 LCModel (Version 6.3-1N) Copyright: S.W. Provencher.          Ref.: Magn. Reson. Med. 30:672-679 (1993).                
 Slice_N1@16_11  02-Jun-2023 14:37:10
 27 lines in following concentration table = NCONC+1
    Conc.  %SD /Cr+PCr  Metabolite                                         
 2.23E-06  15% 2.7E-04 Mac                                                 
 6.36E-02  26%   7.734 Cr                                                  
 2.19E-03 796%   0.266 PCr                                                 
    0.103  10%  12.496 Ins                                                 
    0.107   7%  12.962 NAA                                                 
 8.47E-02  11%  10.307 Tau                                                 
 6.57E-03 136%   0.798 PCho                                                
 9.95E-03  91%   1.210 GPC                                                 
 7.79E-02  13%   9.479 Glu                                                 
 2.86E-02  29%   3.473 Gln                                                 
    0.000 999%   0.000 Ala                                                 
    0.000 999%   0.000 Asc                                                 
    0.000 999%   0.000 Asp                                                 
 1.15E-02  43%   1.399 GABA                                                
 8.36E-03  75%   1.017 Glc                                                 
 2.30E-02  22%   2.793 GSH                                                 
    0.000 999%   0.000 Lac                                                 
    0.000 999%   0.000 NAAG                                                
    0.000 999%   0.000 PE                                                  
 1.65E-02  15%   2.008 GPC+PCho                                            
    0.107   7%  12.962 NAA+NAAG                                            
    0.106  12%  12.952 Glu+Gln                                             
 6.58E-02  11%   8.000 Cr+PCr                                              
    0.107   7%  12.962 NAA+NAAG                                            
 6.58E-02  11%   8.000 Cr+PCr                                              
    0.106  12%  12.952 Glu+Gln                                             
   6 lines in following misc. output table
  FWHM = 0.047 ppm    S/N =   3                                            
  Data shift = 0.000 ppm                                                   
  Ph: -59 deg      -8.3 deg/ppm                                            
  alphaB,S = 9.7E-01,   2.8E+01                                            
   18 spline knots.   Ns = 8(1)                                            
  ( 5) 6 infls.   ( 3) 1 extrs.                                            
  654 points on ppm-axis = NY
      4.000000     3.994181     3.988363     3.982544     3.976726     3.970907     3.965088     3.959270     3.953451     3.947633
      3.941814     3.935995     3.930177     3.924358     3.918540     3.912721     3.906902     3.901084     3.895265     3.889446
      3.883628     3.877809     3.871991     3.866172     3.860353     3.854535     3.848716     3.842898     3.837079     3.831260
      3.825442     3.819623     3.813805     3.807986     3.802167     3.796349     3.790530     3.784712     3.778893     3.773074
      3.767256     3.761437     3.755619     3.749800     3.743981     3.738163     3.732344     3.726526     3.720707     3.714888
      3.709070     3.703251     3.697433     3.691614     3.685795     3.679977     3.674158     3.668339     3.662521     3.656702
      3.650884     3.645065     3.639246     3.633428     3.627609     3.621791     3.615972     3.610153     3.604335     3.598516
      3.592698     3.586879     3.581060     3.575242     3.569423     3.563605     3.557786     3.551967     3.546149     3.540330
      3.534512     3.528693     3.522874     3.517056     3.511237     3.505419     3.499600     3.493781     3.487963     3.482144
      3.476326     3.470507     3.464688     3.458870     3.453051     3.447232     3.441414     3.435595     3.429777     3.423958
      3.418139     3.412321     3.406502     3.400684     3.394865     3.389046     3.383228     3.377409     3.371591     3.365772
      3.359953     3.354135     3.348316     3.342498     3.336679     3.330860     3.325042     3.319223     3.313405     3.307586
      3.301767     3.295949     3.290130     3.284312     3.278493     3.272674     3.266856     3.261037     3.255219     3.249400
      3.243581     3.237763     3.231944     3.226125     3.220307     3.214488     3.208670     3.202851     3.197032     3.191214
      3.185395     3.179577     3.173758     3.167939     3.162121     3.156302     3.150484     3.144665     3.138846     3.133028
      3.127209     3.121391     3.115572     3.109753     3.103935     3.098116     3.092298     3.086479     3.080660     3.074842
      3.069023     3.063205     3.057386     3.051567     3.045749     3.039930     3.034111     3.028293     3.022474     3.016656
      3.010837     3.005018     2.999200     2.993381     2.987563     2.981744     2.975925     2.970107     2.964288     2.958470
      2.952651     2.946832     2.941014     2.935195     2.929377     2.923558     2.917739     2.911921     2.906102     2.900284
      2.894465     2.888646     2.882828     2.877009     2.871191     2.865372     2.859553     2.853735     2.847916     2.842098
      2.836279     2.830460     2.824642     2.818823     2.813004     2.807186     2.801367     2.795549     2.789730     2.783911
      2.778093     2.772274     2.766456     2.760637     2.754818     2.749000     2.743181     2.737363     2.731544     2.725725
      2.719907     2.714088     2.708270     2.702451     2.696632     2.690814     2.684995     2.679177     2.673358     2.667539
      2.661721     2.655902     2.650084     2.644265     2.638446     2.632628     2.626809     2.620991     2.615172     2.609353
      2.603535     2.597716     2.591897     2.586079     2.580260     2.574442     2.568623     2.562804     2.556986     2.551167
      2.545349     2.539530     2.533711     2.527893     2.522074     2.516256     2.510437     2.504618     2.498800     2.492981
      2.487163     2.481344     2.475525     2.469707     2.463888     2.458070     2.452251     2.446432     2.440614     2.434795
      2.428977     2.423158     2.417339     2.411521     2.405702     2.399884     2.394065     2.388246     2.382428     2.376609
      2.370790     2.364972     2.359153     2.353335     2.347516     2.341697     2.335879     2.330060     2.324242     2.318423
      2.312604     2.306786     2.300967     2.295149     2.289330     2.283511     2.277693     2.271874     2.266056     2.260237
      2.254418     2.248600     2.242781     2.236963     2.231144     2.225325     2.219507     2.213688     2.207870     2.202051
      2.196232     2.190414     2.184595     2.178777     2.172958     2.167139     2.161321     2.155502     2.149683     2.143865
      2.138046     2.132228     2.126409     2.120590     2.114772     2.108953     2.103135     2.097316     2.091497     2.085679
      2.079860     2.074042     2.068223     2.062404     2.056586     2.050767     2.044949     2.039130     2.033311     2.027493
      2.021674     2.015856     2.010037     2.004218     1.998400     1.992581     1.986763     1.980944     1.975126     1.969307
      1.963489     1.957670     1.951852     1.946033     1.940215     1.934397     1.928578     1.922760     1.916941     1.911123
      1.905304     1.899486     1.893667     1.887849     1.882030     1.876212     1.870393     1.864575     1.858756     1.852938
      1.847119     1.841301     1.835482     1.829664     1.823845     1.818027     1.812208     1.806390     1.800571     1.794753
      1.788934     1.783116     1.777297     1.771479     1.765660     1.759842     1.754023     1.748205     1.742386     1.736568
      1.730749     1.724931     1.719113     1.713294     1.707476     1.701657     1.695839     1.690020     1.684202     1.678383
      1.672565     1.666746     1.660928     1.655109     1.649291     1.643472     1.637654     1.631835     1.626017     1.620198
      1.614380     1.608561     1.602743     1.596924     1.591106     1.585287     1.579469     1.573650     1.567832     1.562013
      1.556195     1.550376     1.544558     1.538739     1.532921     1.527102     1.521284     1.515465     1.509647     1.503829
      1.498010     1.492192     1.486373     1.480555     1.474736     1.468918     1.463099     1.457281     1.451462     1.445644
      1.439825     1.434007     1.428188     1.422370     1.416551     1.410733     1.404914     1.399096     1.393277     1.387459
      1.381640     1.375822     1.370003     1.364185     1.358366     1.352548     1.346729     1.340911     1.335092     1.329274
      1.323455     1.317637     1.311818     1.306000     1.300182     1.294363     1.288545     1.282726     1.276908     1.271089
      1.265271     1.259452     1.253634     1.247815     1.241997     1.236178     1.230360     1.224541     1.218723     1.212904
      1.207086     1.201267     1.195449     1.189630     1.183812     1.177993     1.172175     1.166356     1.160538     1.154719
      1.148901     1.143082     1.137264     1.131445     1.125627     1.119808     1.113990     1.108171     1.102353     1.096534
      1.090716     1.084898     1.079079     1.073261     1.067442     1.061624     1.055805     1.049987     1.044168     1.038350
      1.032531     1.026713     1.020894     1.015076     1.009257     1.003439     0.997620     0.991802     0.985983     0.980165
      0.974346     0.968528     0.962709     0.956891     0.951072     0.945254     0.939435     0.933617     0.927798     0.921980
      0.916161     0.910343     0.904524     0.898706     0.892887     0.887069     0.881251     0.875432     0.869614     0.863795
      0.857977     0.852158     0.846340     0.840521     0.834703     0.828884     0.823066     0.817247     0.811429     0.805610
      0.799792     0.793973     0.788155     0.782336     0.776518     0.770699     0.764881     0.759062     0.753244     0.747425
      0.741607     0.735788     0.729970     0.724151     0.718333     0.712514     0.706696     0.700877     0.695059     0.689240
      0.683422     0.677603     0.671785     0.665967     0.660148     0.654330     0.648511     0.642693     0.636874     0.631056
      0.625237     0.619419     0.613600     0.607782     0.601963     0.596145     0.590326     0.584508     0.578689     0.572871
      0.567052     0.561234     0.555415     0.549597     0.543778     0.537960     0.532141     0.526323     0.520504     0.514686
      0.508867     0.503049     0.497230     0.491412     0.485593     0.479775     0.473956     0.468138     0.462319     0.456501
      0.450682     0.444864     0.439045     0.433227     0.427408     0.421590     0.415771     0.409953     0.404134     0.398316
      0.392497     0.386679     0.380860     0.375042     0.369223     0.363405     0.357586     0.351767     0.345949     0.340130
      0.334312     0.328493     0.322675     0.316856     0.311038     0.305219     0.299401     0.293582     0.287764     0.281945
      0.276127     0.270308     0.264490     0.258671     0.252853     0.247034     0.241216     0.235397     0.229579     0.223760
      0.217942     0.212123     0.206305     0.200486
 NY phased data points follow
  -2.79154E-01 -1.04032E-01 -1.71463E-01 -1.38408E-01 -2.36939E-01 -2.86135E-01 -1.20593E-01 -2.89099E-02 -1.97888E-01 -1.10216E-01
   3.24219E-01  2.96660E-01  1.86442E-01  1.78151E-01  3.84683E-01  4.00376E-01  3.61469E-01  7.93913E-02 -7.86726E-03  9.11436E-02
   1.65545E-01  3.35396E-01 -2.87721E-02  2.34849E-01  1.23783E-01  3.58730E-02 -7.41033E-02 -6.02150E-02  2.41004E-01 -1.76088E-01
  -2.64813E-01 -3.72429E-01 -2.62735E-01 -3.94215E-01 -2.05052E-01  3.99833E-02 -2.45386E-01 -3.94057E-01 -3.19723E-01 -1.15906E-01
   2.32852E-02  3.22513E-01  1.80982E-01  3.31722E-01  5.47225E-01  4.79962E-01  3.91103E-01  2.26272E-01  2.11163E-01  4.05813E-01
   3.28888E-01  7.44860E-03 -1.34443E-02 -4.57775E-01 -5.50586E-01 -2.14204E-01 -7.96405E-02  3.67601E-03 -2.37094E-01 -4.11563E-01
  -2.18878E-01 -3.98053E-01 -4.12519E-01  7.76029E-02 -9.97244E-02 -9.58537E-02 -1.22861E-01 -2.23291E-01  1.01545E-01  9.67423E-02
   2.91195E-01  2.59737E-01  2.42845E-01  3.49923E-01  5.48624E-02 -6.81177E-02 -1.94741E-01 -2.78721E-01 -2.49145E-01 -2.24216E-01
  -1.66073E-01  6.91596E-05 -1.40439E-01 -5.23267E-02  2.39662E-01  1.63550E-01  2.23919E-01  4.00566E-01  3.03429E-01  7.89104E-02
   5.76968E-01  4.22333E-01  2.59717E-03  1.39214E-02  6.58524E-02  1.53387E-01 -2.05521E-02  6.15658E-02 -1.60077E-02 -6.88821E-02
  -3.37080E-01 -1.86565E-01 -1.36510E-01 -9.41389E-02  3.16824E-01  1.75560E-01  2.88556E-01  5.95081E-01  6.03577E-01  2.34308E-01
   3.24081E-01  3.90929E-01  3.04673E-01  6.37996E-01  6.08665E-01  3.20896E-01  5.17100E-01  7.00834E-02 -6.07849E-02  3.59884E-01
   5.16867E-01  4.19081E-01 -3.97907E-01  9.99938E-02 -1.05720E-01 -3.55617E-01 -1.97754E-02 -4.12764E-01 -5.80364E-01 -7.55439E-01
  -3.93039E-01 -4.77697E-01 -6.96025E-01 -8.54959E-01 -8.39658E-01 -8.66316E-01 -7.85977E-01 -4.87889E-01 -5.70730E-01 -5.08022E-01
  -3.43376E-01 -2.99489E-01 -3.52103E-01 -2.14861E-01 -3.96417E-02  7.59245E-02  9.56411E-03  1.06741E-01  3.15838E-01  5.93638E-01
   4.02815E-01  3.82458E-01  3.89787E-01  2.48688E-01  3.58308E-01  2.15949E-02  1.12560E-01  1.98843E-01  2.90657E-01  3.20108E-01
   4.55181E-01  4.95053E-01  5.46549E-01  8.38856E-01  7.02325E-01  5.57697E-01  6.03462E-01  5.35797E-01 -6.94468E-02 -2.39972E-01
  -1.23869E-01 -4.55125E-01 -6.82450E-01 -6.55517E-01 -7.41516E-01 -2.42196E-01 -2.02160E-01 -4.53272E-01 -1.01584E-01 -2.09986E-01
  -2.89129E-01 -2.66852E-01 -2.40444E-01 -2.06648E-01 -3.21794E-02 -3.10031E-01 -5.17901E-01 -4.79200E-01 -3.55667E-01 -1.84861E-01
  -2.78793E-01 -1.37866E-01 -2.81557E-01 -2.52534E-01 -1.15687E-01 -3.22117E-01 -2.66115E-01 -1.10032E-01 -7.55990E-02 -1.81741E-02
  -2.97415E-01 -9.63179E-02  2.68929E-02 -1.03339E-01 -3.29657E-01 -2.25531E-01 -8.14038E-02 -3.96193E-01  2.00211E-01 -1.79341E-01
  -2.15370E-01  2.28397E-02 -2.79005E-02  1.56769E-01 -8.52204E-02  2.07343E-01  7.08772E-02 -4.08506E-02 -1.79767E-01 -1.70350E-01
   1.62701E-01  1.32800E-01  9.18014E-02 -8.80828E-02 -1.36014E-02  2.55780E-01  4.07549E-02  3.82076E-02 -1.03088E-01  1.10239E-01
   3.92853E-01  2.34362E-01  1.34019E-01 -4.46514E-02  4.57918E-01  1.76893E-01 -1.40758E-02  2.83673E-02 -2.06672E-01 -2.79885E-01
  -2.58430E-01 -2.76215E-01 -1.87469E-01 -6.71549E-02 -1.31817E-01  6.34816E-02 -2.49878E-01  1.28933E-01 -4.88806E-02  2.81222E-01
   2.15901E-01 -2.49668E-01  2.23333E-01 -1.65145E-01  6.77191E-02 -6.62410E-02 -1.28273E-01 -6.02204E-02  1.20453E-01  5.50744E-02
   1.92454E-01  2.30745E-01  1.56408E-01  6.01454E-01  2.34857E-01  2.04070E-01  1.77869E-01  2.94800E-01  2.37913E-01  4.34000E-01
   2.20564E-01 -3.98554E-02  2.76956E-01  9.73464E-02  1.33942E-01  8.64119E-02  1.86933E-02 -2.11311E-01 -2.46459E-01 -1.28991E-01
  -1.28711E-01 -2.80689E-01  5.93954E-03  2.84414E-01  3.29456E-02  1.00697E-02  1.18102E-01  2.25392E-01  2.93084E-01  4.41953E-01
   4.98400E-01  4.03045E-01  5.49655E-02  2.03927E-01  4.70130E-01  3.38565E-01  1.99493E-01  2.36194E-02  3.26691E-01  2.66847E-01
   7.14801E-02  2.70439E-01  2.92167E-01  4.01129E-01  1.18190E-01  2.32111E-02  2.73798E-01  4.25451E-01  4.65036E-01  4.16139E-01
   3.53827E-01  2.60713E-01  3.90388E-01  3.03384E-02  2.43295E-01  1.72557E-01 -1.88520E-01  5.66632E-02  1.76411E-01 -1.19765E-01
  -4.65605E-01 -1.60048E-01 -4.68721E-01 -2.23017E-01 -2.00431E-01 -2.77598E-01 -1.33220E-01 -2.17894E-01 -4.25056E-02 -9.69064E-02
   2.11410E-01 -7.26533E-02 -1.10634E-01 -5.93694E-02 -2.91637E-01 -9.43394E-02  7.50189E-02 -4.69613E-01 -5.54889E-01 -5.01908E-01
  -8.43636E-01 -7.71789E-01 -1.53291E+00 -1.47625E+00 -6.39197E-01 -8.05835E-01 -1.01853E+00 -6.78253E-01 -2.38003E-01  1.61440E-01
  -9.70427E-02  7.11915E-02  4.68079E-02 -1.29108E-01  2.14133E-01  5.70150E-02  3.01928E-01 -3.93686E-02  3.06286E-01  3.12313E-01
  -1.95706E-01 -8.96959E-02 -2.78489E-02  1.21617E-01 -3.09312E-01 -1.40159E-01  1.93633E-01  1.24947E-01 -9.55817E-02  1.11217E-01
  -5.39108E-02 -7.28769E-02  3.26661E-01  3.77726E-01  3.55310E-01  2.77313E-02 -4.52154E-02  5.00229E-02  2.86623E-01  1.44546E-01
   1.85210E-01  2.80880E-01  2.85929E-01  2.73138E-01  3.62112E-01  1.95353E-01  2.55702E-03  3.11666E-01  1.16791E-01  1.63177E-01
   1.87587E-01  3.68710E-01  2.72263E-01  4.57218E-01  3.59580E-01  2.10689E-01  4.70400E-01 -3.80459E-02  3.75584E-01  1.22885E-01
  -7.35496E-02  1.28164E-01  3.06637E-01  2.47571E-01 -1.43826E-01  6.53562E-02 -5.64553E-02  4.25068E-01 -4.19281E-02 -2.56282E-01
  -3.57850E-02 -2.41128E-01  1.53049E-01 -1.06195E-01 -2.88399E-01 -2.45205E-01 -2.91996E-02 -5.83314E-03  1.30320E-01 -2.09856E-01
  -5.63365E-01 -6.69085E-02  8.23334E-02 -8.84350E-02 -4.15566E-01 -7.96993E-02  2.54310E-02 -2.84862E-01 -2.62284E-01 -1.05063E-01
  -1.92998E-01  1.13843E-02  1.13816E-01 -2.08531E-01  1.23296E-01  1.35868E-01  1.67026E-01  1.18494E-01 -1.57878E-02 -1.18166E-01
  -7.35686E-03 -5.09256E-02 -1.85375E-01  2.93164E-01 -1.77651E-01 -1.97949E-01 -1.22250E-01 -9.18755E-02  4.81744E-01  2.69964E-01
   1.18620E-01  1.81448E-01  9.07802E-02  1.72738E-02  9.46308E-02 -2.27481E-02  1.24176E-01  1.50027E-01 -2.77777E-01 -4.31632E-01
  -6.94118E-02 -9.47351E-02 -2.43095E-01  4.35935E-01  1.63791E-01  1.03533E-02  3.25705E-02 -2.87905E-01  3.23464E-02 -5.93097E-02
  -1.23753E-01 -9.33770E-02 -2.68470E-01 -2.84732E-01 -1.14273E-01 -2.75585E-01 -2.08989E-01  1.57731E-01 -1.26449E-01 -2.51690E-01
  -1.20869E-01  6.72706E-02  1.24628E-01 -7.33388E-02 -1.05917E-01 -2.71856E-01  3.02141E-02  1.88328E-01  4.07511E-02  1.72350E-01
   1.02524E-02  2.43944E-01  5.47934E-04  1.25965E-02  1.92663E-03 -3.05027E-01  3.42795E-02 -1.62775E-01  7.74077E-02  3.31574E-01
   2.61817E-01  9.75739E-02  3.68826E-01  3.41740E-01  9.12607E-02  1.64558E-01  2.03901E-01  3.23534E-01 -1.31356E-01  1.21914E-01
   6.30757E-02  3.19802E-01  2.63299E-01 -2.15175E-01  2.20418E-01  2.48895E-01  5.22081E-02 -5.31325E-02  1.75272E-01  2.21809E-01
   3.62488E-01 -4.61045E-02 -2.54764E-01 -3.84832E-01 -2.46155E-01 -1.01913E-01 -5.25381E-01 -4.98122E-01 -6.48332E-01 -4.19654E-01
  -4.04840E-01 -4.45988E-01 -5.75672E-01 -2.96561E-01 -2.88448E-01 -1.80917E-01 -8.00473E-02 -3.62252E-01  1.01371E-01 -4.74063E-02
  -2.03946E-01 -2.46363E-01  2.54945E-01 -1.15025E-02 -1.44509E-01  4.37767E-02 -2.45852E-01 -1.23088E-01 -2.72869E-01  6.39143E-02
   1.47078E-01  3.42895E-01  1.64579E-01 -1.04991E-01  8.27160E-02  3.80265E-01  4.23729E-01  5.16400E-02  1.75041E-01  2.34971E-01
   1.49207E-01  1.02867E-01  2.49870E-01  7.15001E-02 -1.82785E-01 -1.28017E-01  1.69870E-01  6.63284E-02  1.10594E-01  3.04939E-01
   1.91083E-01  5.44933E-01  2.30152E-01  7.34305E-02  2.61611E-01  4.81588E-02  7.87822E-02  1.66434E-01 -1.61625E-01 -1.63610E-01
   2.28834E-01  9.55390E-02 -6.09368E-02 -1.36592E-01 -2.98433E-01 -2.49165E-01 -7.60196E-02 -9.77218E-02 -9.88516E-03  1.71981E-01
   3.01939E-02 -5.25388E-02  3.81700E-01  2.21766E-01 -1.48468E-01 -2.94535E-02  1.72365E-01  2.60142E-01 -1.23171E-01  3.93574E-02
   1.02663E-01 -9.52827E-03 -1.44033E-01  6.39172E-02  3.19019E-01 -1.83939E-02  1.20911E-01  7.46288E-03  1.22747E-01  9.30957E-02
  -2.38792E-02  1.49612E-01  6.44690E-02  6.98871E-02  4.49736E-02 -6.70793E-02 -3.35109E-02 -3.04972E-03  1.97055E-02  2.71546E-01
  -3.17780E-02  9.75423E-02  2.75150E-01  1.37891E-02  3.45215E-02  1.78104E-01  1.75573E-01 -1.46281E-01 -1.51579E-01  9.47709E-02
   6.78529E-02 -2.64827E-01  1.24152E-01  4.70669E-02  9.87221E-03  1.38804E-01 -2.06411E-01 -4.97399E-02 -6.55455E-02  4.20177E-02
   2.25447E-02  2.34318E-01  1.83895E-01  1.05153E-01  3.20811E-01  1.11583E-01  4.46093E-02  1.15938E-01  1.43590E-01 -5.94124E-02
   2.10705E-01  4.41911E-01  1.62513E-02 -6.42375E-02
 NY points of the fit to the data follow
  -1.13634E-02 -5.69406E-03 -5.08041E-05  4.44845E-03  8.37370E-03  1.32374E-02  2.04129E-02  3.38278E-02  3.53180E-02  5.60711E-02
   1.10934E-01  1.75766E-01  2.33684E-01  2.88078E-01  3.74711E-01  4.57232E-01  4.46706E-01  3.77861E-01  3.48620E-01  3.33078E-01
   2.64610E-01  1.48337E-01  3.36642E-02 -2.16483E-02 -4.22188E-02 -6.31379E-02 -8.57717E-02 -1.06362E-01 -1.24825E-01 -1.43969E-01
  -1.63801E-01 -1.84654E-01 -2.03878E-01 -2.30539E-01 -2.49214E-01 -2.46982E-01 -2.31826E-01 -1.99522E-01 -1.47085E-01 -5.59121E-02
   5.58156E-02  1.38234E-01  2.00477E-01  2.73365E-01  3.33589E-01  3.45418E-01  3.08708E-01  2.46039E-01  1.91747E-01  1.38271E-01
   7.38020E-02  1.14244E-02 -4.37003E-02 -8.58691E-02 -1.22143E-01 -1.55277E-01 -1.98125E-01 -2.39616E-01 -2.55533E-01 -2.89428E-01
  -3.27808E-01 -3.39580E-01 -3.23670E-01 -2.76886E-01 -2.38097E-01 -1.65000E-01 -2.55099E-02  7.82256E-02  1.41895E-01  2.43711E-01
   3.22632E-01  3.34492E-01  3.10730E-01  2.50305E-01  1.64227E-01  5.72793E-02 -5.96866E-02 -1.59107E-01 -2.38122E-01 -2.87068E-01
  -2.59975E-01 -1.69387E-01 -9.24058E-02 -1.27473E-02  1.23672E-01  2.65423E-01  3.56551E-01  4.05294E-01  4.21547E-01  4.18066E-01
   3.84614E-01  3.18623E-01  2.48765E-01  1.77725E-01  9.78499E-02  1.24104E-02 -7.54053E-02 -1.53936E-01 -2.09316E-01 -2.28373E-01
  -2.04377E-01 -1.44602E-01 -6.44006E-02  2.58135E-02  1.22995E-01  2.21128E-01  3.07556E-01  3.62347E-01  3.80362E-01  3.76121E-01
   3.65313E-01  3.58128E-01  3.54093E-01  3.50786E-01  3.46360E-01  3.43622E-01  3.37816E-01  3.20642E-01  3.06430E-01  2.80145E-01
   2.33608E-01  1.87024E-01  1.15500E-01  5.09928E-02 -4.60077E-02 -1.63179E-01 -2.55448E-01 -3.59497E-01 -4.72362E-01 -5.43866E-01
  -5.99053E-01 -6.48023E-01 -6.75615E-01 -7.02506E-01 -7.23284E-01 -7.53358E-01 -7.42475E-01 -6.19117E-01 -5.12952E-01 -4.76947E-01
  -4.36079E-01 -3.24730E-01 -1.66537E-01 -3.76124E-02  2.04212E-02  5.07505E-02  7.92875E-02  1.04993E-01  1.27824E-01  1.48501E-01
   1.67876E-01  1.86515E-01  2.04729E-01  2.23078E-01  2.42384E-01  2.63276E-01  2.86646E-01  3.13918E-01  3.47221E-01  3.89338E-01
   4.19448E-01  5.04277E-01  5.73231E-01  5.78085E-01  5.42594E-01  4.92538E-01  4.27166E-01  2.26351E-01 -7.51786E-02 -2.36503E-01
  -2.64452E-01 -3.81365E-01 -5.55304E-01 -6.33153E-01 -5.75186E-01 -4.26250E-01 -3.43916E-01 -3.18484E-01 -3.03399E-01 -2.88290E-01
  -2.68214E-01 -2.49109E-01 -2.41884E-01 -2.41093E-01 -2.35996E-01 -2.27345E-01 -2.18347E-01 -2.13508E-01 -2.10981E-01 -2.05428E-01
  -1.96173E-01 -1.84468E-01 -1.73071E-01 -1.62737E-01 -1.52225E-01 -1.41389E-01 -1.30847E-01 -1.21512E-01 -1.13305E-01 -1.06095E-01
  -9.98491E-02 -9.43116E-02 -8.93733E-02 -8.50601E-02 -8.15000E-02 -7.85597E-02 -7.58319E-02 -7.28346E-02 -7.00359E-02 -6.75735E-02
  -6.49790E-02 -6.21023E-02 -5.90629E-02 -5.65153E-02 -5.43694E-02 -5.22538E-02 -5.00369E-02 -4.60040E-02 -4.33391E-02 -3.61180E-02
  -1.51739E-02  1.44439E-02  4.35914E-02  7.40962E-02  1.20698E-01  1.81760E-01  2.17339E-01  2.22692E-01  2.41484E-01  2.78688E-01
   2.87293E-01  2.38276E-01  1.64764E-01  1.22069E-01  1.04044E-01  6.66405E-02  6.27675E-03 -4.86313E-02 -7.96943E-02 -8.96232E-02
  -9.68175E-02 -1.02951E-01 -1.08009E-01 -1.10900E-01 -1.11586E-01 -1.11811E-01 -1.09749E-01 -1.07735E-01 -1.06935E-01 -1.05920E-01
  -1.15170E-01 -1.19743E-01 -1.16092E-01 -1.13097E-01 -1.08744E-01 -9.34151E-02 -5.29547E-02 -8.89551E-03  1.41313E-02  4.76599E-02
   1.07486E-01  1.53054E-01  1.60797E-01  1.65416E-01  1.86478E-01  2.00124E-01  1.88084E-01  1.75991E-01  1.75155E-01  1.73779E-01
   1.62290E-01  1.36897E-01  1.11988E-01  8.62261E-02  5.17310E-02  8.47995E-03 -4.21346E-02 -9.30104E-02 -1.43229E-01 -1.82393E-01
  -2.08275E-01 -2.13768E-01 -1.86910E-01 -1.36373E-01 -6.43349E-02  2.39674E-02  1.09687E-01  1.91700E-01  2.59822E-01  2.99712E-01
   3.18603E-01  3.18353E-01  2.99601E-01  2.74527E-01  2.50207E-01  2.37499E-01  2.35778E-01  2.36336E-01  2.39763E-01  2.43152E-01
   2.43980E-01  2.42427E-01  2.34419E-01  2.24988E-01  2.14624E-01  2.03909E-01  1.92759E-01  1.80702E-01  1.64609E-01  1.45489E-01
   1.20023E-01  8.82471E-02  5.02896E-02  3.42639E-03 -4.59861E-02 -1.00761E-01 -1.56306E-01 -2.07981E-01 -2.54637E-01 -2.92048E-01
  -3.18380E-01 -3.28938E-01 -3.20121E-01 -2.92191E-01 -2.51894E-01 -1.99077E-01 -1.40707E-01 -8.91850E-02 -4.24992E-02 -1.31042E-02
   5.44950E-03  7.65832E-03 -5.72500E-03 -2.87008E-02 -7.54930E-02 -8.47006E-02 -1.45488E-01 -2.91063E-01 -4.59883E-01 -6.14268E-01
  -7.66779E-01 -1.01481E+00 -1.24019E+00 -1.19577E+00 -1.00370E+00 -9.48579E-01 -9.24541E-01 -7.40052E-01 -4.26190E-01 -1.27570E-01
  -1.34848E-02  5.35061E-04  1.35065E-02  2.89648E-02  4.03316E-02  4.79670E-02  5.24232E-02  5.23642E-02  4.93585E-02  4.32600E-02
   3.53397E-02  2.72054E-02  1.90931E-02  1.23818E-02  8.87685E-03  8.72134E-03  1.16098E-02  1.79499E-02  2.56320E-02  3.51634E-02
   4.50903E-02  5.39176E-02  6.20926E-02  6.86567E-02  7.40819E-02  7.86777E-02  8.30289E-02  8.70294E-02  9.05761E-02  9.37011E-02
   9.65013E-02  9.94946E-02  1.02375E-01  1.05003E-01  1.07302E-01  1.09349E-01  1.11353E-01  1.13466E-01  1.15820E-01  1.17945E-01
   1.19598E-01  1.20829E-01  1.21708E-01  1.21997E-01  1.21524E-01  1.20203E-01  1.17989E-01  1.15096E-01  1.11159E-01  1.06409E-01
   1.01131E-01  9.56495E-02  8.99014E-02  8.34397E-02  7.65712E-02  6.99092E-02  6.36206E-02  5.73563E-02  5.11139E-02  4.54576E-02
   4.05021E-02  3.58971E-02  3.15155E-02  2.73980E-02  2.36033E-02  2.04017E-02  1.74383E-02  1.46074E-02  1.22572E-02  1.02651E-02
   8.70225E-03  7.55249E-03  7.04679E-03  7.51770E-03  8.75784E-03  1.05338E-02  1.30162E-02  1.61112E-02  1.96043E-02  2.34861E-02
   2.74973E-02  3.13636E-02  3.54174E-02  4.01722E-02  4.55289E-02  5.11514E-02  5.70218E-02  6.34898E-02  7.11067E-02  7.97326E-02
   8.89356E-02  9.84425E-02  1.08083E-01  1.18103E-01  1.28388E-01  1.38510E-01  1.48104E-01  1.56664E-01  1.63685E-01  1.69305E-01
   1.73411E-01  1.75951E-01  1.76788E-01  1.75651E-01  1.72731E-01  1.68368E-01  1.62552E-01  1.55311E-01  1.46995E-01  1.37933E-01
   1.28429E-01  1.18453E-01  1.08196E-01  9.82239E-02  8.88435E-02  8.03332E-02  7.25041E-02  6.49440E-02  5.77516E-02  5.15495E-02
   4.64752E-02  4.21858E-02  3.85204E-02  3.57089E-02  3.42496E-02  3.41077E-02  3.47407E-02  3.60854E-02  3.85849E-02  4.20703E-02
   4.59943E-02  5.01749E-02  5.44485E-02  5.84687E-02  6.22444E-02  6.57596E-02  6.88977E-02  7.15392E-02  7.35453E-02  7.52714E-02
   7.64434E-02  7.66397E-02  7.61733E-02  7.53460E-02  7.41108E-02  7.20863E-02  6.90676E-02  6.56122E-02  6.23868E-02  5.90933E-02
   5.54088E-02  5.15226E-02  4.76511E-02  4.40278E-02  4.03597E-02  3.64744E-02  3.24742E-02  2.87026E-02  2.52911E-02  2.16789E-02
   1.75310E-02  1.30785E-02  8.55568E-03  3.58335E-03 -2.47992E-03 -9.51079E-03 -1.73996E-02 -2.62389E-02 -3.63659E-02 -4.79660E-02
  -6.08400E-02 -7.45962E-02 -8.89267E-02 -1.03613E-01 -1.18687E-01 -1.33847E-01 -1.47873E-01 -1.60119E-01 -1.70888E-01 -1.80163E-01
  -1.87310E-01 -1.91616E-01 -1.93553E-01 -1.93968E-01 -1.92523E-01 -1.88667E-01 -1.83141E-01 -1.76893E-01 -1.70295E-01 -1.63100E-01
  -1.55161E-01 -1.46664E-01 -1.37823E-01 -1.28887E-01 -1.19606E-01 -1.09764E-01 -9.94726E-02 -8.90725E-02 -7.87079E-02 -6.85135E-02
  -5.87432E-02 -4.93986E-02 -4.01975E-02 -3.15541E-02 -2.40035E-02 -1.68643E-02 -9.79370E-03 -3.15045E-03  2.45456E-03  6.89776E-03
   1.13934E-02  1.59530E-02  1.95967E-02  2.23545E-02  2.46390E-02  2.68082E-02  2.90159E-02  3.07699E-02  3.19803E-02  3.32883E-02
   3.49688E-02  3.67132E-02  3.81901E-02  3.95709E-02  4.10589E-02  4.23746E-02  4.33407E-02  4.40786E-02  4.46073E-02  4.47819E-02
   4.47581E-02  4.47183E-02  4.45430E-02  4.46177E-02  4.50243E-02  4.51383E-02  4.50431E-02  4.51021E-02  4.52851E-02  4.52179E-02
   4.43720E-02  4.36728E-02  4.39458E-02  4.40987E-02  4.33066E-02  4.24412E-02  4.25443E-02  4.31619E-02  4.32978E-02  4.31197E-02
   4.35562E-02  4.44908E-02  4.52292E-02  4.57744E-02  4.67335E-02  4.82665E-02  4.99046E-02  5.10572E-02  5.18071E-02  5.26586E-02
   5.36713E-02  5.43903E-02  5.46666E-02  5.50260E-02  5.59068E-02  5.68957E-02  5.76621E-02  5.86357E-02  6.00629E-02  6.18144E-02
   6.36487E-02  6.54001E-02  6.73606E-02  6.91406E-02  7.04962E-02  7.16598E-02  7.27352E-02  7.39185E-02  7.51921E-02  7.61618E-02
   7.68315E-02  7.74660E-02  7.83381E-02  7.97534E-02  8.13880E-02  8.28693E-02  8.41455E-02  8.54202E-02  8.73116E-02  8.99471E-02
   9.23133E-02  9.41717E-02  9.64479E-02  9.95245E-02  1.02944E-01  1.06295E-01  1.09704E-01  1.13946E-01  1.18825E-01  1.23631E-01
   1.28381E-01  1.33515E-01  1.39142E-01  1.44908E-01
 NY background values follow
     6.214E-02    6.211E-02    6.208E-02    6.205E-02    6.201E-02    6.198E-02    6.195E-02    6.192E-02    6.188E-02    6.185E-02
     6.182E-02    6.179E-02    6.175E-02    6.172E-02    6.169E-02    6.166E-02    6.162E-02    6.159E-02    6.156E-02    6.152E-02
     6.149E-02    6.146E-02    6.143E-02    6.139E-02    6.136E-02    6.132E-02    6.129E-02    6.126E-02    6.122E-02    6.119E-02
     6.116E-02    6.112E-02    6.109E-02    6.105E-02    6.102E-02    6.098E-02    6.095E-02    6.091E-02    6.088E-02    6.084E-02
     6.081E-02    6.077E-02    6.073E-02    6.070E-02    6.066E-02    6.062E-02    6.059E-02    6.055E-02    6.051E-02    6.047E-02
     6.044E-02    6.040E-02    6.036E-02    6.032E-02    6.028E-02    6.024E-02    6.020E-02    6.016E-02    6.012E-02    6.008E-02
     6.004E-02    6.000E-02    5.996E-02    5.992E-02    5.988E-02    5.983E-02    5.979E-02    5.975E-02    5.970E-02    5.966E-02
