 
 $NMID
 ID=''
 FMTDAT='(2E13.5)'
 TRAMP=   1.00000E+0
 VOLUME=   1.00000E+0
 $END
  -1.20905E+4   3.60443E+1
  -3.05161E+4  -8.70692E+3
  -3.20405E+4  -3.28703E+3
  -2.98956E+4  -2.77634E+3
  -3.11171E+4  -3.66699E+3
  -3.14757E+4  -2.46810E+3
  -3.02898E+4  -2.54878E+3
  -3.06783E+4  -3.12250E+3
  -3.07798E+4  -2.26720E+3
  -2.99602E+4  -2.41246E+3
  -2.99745E+4  -2.75901E+3
  -2.99665E+4  -2.07627E+3
  -2.94359E+4  -2.00174E+3
  -2.95366E+4  -2.32681E+3
  -2.94393E+4  -1.88457E+3
  -2.89952E+4  -1.82903E+3
  -2.90170E+4  -2.01108E+3
  -2.87896E+4  -1.63347E+3
  -2.84083E+4  -1.47052E+3
  -2.83956E+4  -1.61657E+3
  -2.81544E+4  -1.41355E+3
  -2.78072E+4  -9.95787E+2
  -2.78884E+4  -1.19398E+3
  -2.77114E+4  -1.03253E+3
  -2.72586E+4  -8.60639E+2
  -2.72999E+4  -7.49512E+2
  -2.72018E+4  -6.75689E+2
  -2.68583E+4  -6.38839E+2
  -2.67241E+4  -6.87638E+2
  -2.65577E+4  -5.39468E+2
  -2.62078E+4  -4.70595E+2
  -2.62040E+4  -3.64183E+2
  -2.60658E+4  -3.12842E+2
  -2.58431E+4  -3.29025E+2
  -2.56394E+4  -2.96956E+2
  -2.54735E+4  -9.52511E+1
  -2.52650E+4   4.77357E+1
  -2.50608E+4   1.14247E+2
  -2.49426E+4   3.18502E+2
  -2.47954E+4   4.09882E+2
  -2.46550E+4   4.77991E+2
  -2.45461E+4   4.42189E+2
  -2.42701E+4   4.97625E+2
  -2.40869E+4   5.94989E+2
  -2.39880E+4   6.49114E+2
  -2.38460E+4   7.40248E+2
  -2.36503E+4   7.45024E+2
  -2.34664E+4   7.76536E+2
  -2.32892E+4   9.08021E+2
  -2.30694E+4   9.82063E+2
  -2.29732E+4   9.99315E+2
  -2.26673E+4   1.10670E+3
  -2.24461E+4   1.19731E+3
  -2.22743E+4   1.30991E+3
  -2.21592E+4   1.34504E+3
  -2.19928E+4   1.37683E+3
  -2.17948E+4   1.40849E+3
  -2.16213E+4   1.57618E+3
  -2.13874E+4   1.56515E+3
  -2.11997E+4   1.75718E+3
  -2.09561E+4   1.69592E+3
  -2.08202E+4   1.77011E+3
  -2.07125E+4   1.94770E+3
  -2.06258E+4   1.90654E+3
  -2.03933E+4   1.97617E+3
  -2.02291E+4   2.06657E+3
  -2.01538E+4   2.20962E+3
  -2.00356E+4   2.21886E+3
  -1.97899E+4   2.29128E+3
  -1.97083E+4   2.34786E+3
  -1.95586E+4   2.35226E+3
  -1.93515E+4   2.44496E+3
  -1.92930E+4   2.43650E+3
  -1.90865E+4   2.48116E+3
  -1.90079E+4   2.50988E+3
  -1.88784E+4   2.56707E+3
  -1.87774E+4   2.60086E+3
  -1.86506E+4   2.63766E+3
  -1.84815E+4   2.62388E+3
  -1.83319E+4   2.75787E+3
  -1.82319E+4   2.74816E+3
  -1.80476E+4   2.72121E+3
  -1.79057E+4   2.73916E+3
  -1.78018E+4   2.80020E+3
  -1.76657E+4   2.79324E+3
  -1.75006E+4   2.73623E+3
  -1.73974E+4   2.65819E+3
  -1.71992E+4   2.67974E+3
  -1.71168E+4   2.70879E+3
  -1.69857E+4   2.67567E+3
  -1.68649E+4   2.65558E+3
  -1.67229E+4   2.68604E+3
  -1.66081E+4   2.72062E+3
  -1.65085E+4   2.69517E+3
  -1.63623E+4   2.64106E+3
  -1.61643E+4   2.67702E+3
  -1.60681E+4   2.64413E+3
  -1.59835E+4   2.71276E+3
  -1.58553E+4   2.71493E+3
  -1.56655E+4   2.70658E+3
  -1.55395E+4   2.71187E+3
  -1.54054E+4   2.65029E+3
  -1.53694E+4   2.74203E+3
  -1.51752E+4   2.80589E+3
  -1.50770E+4   2.72801E+3
  -1.50006E+4   2.70565E+3
  -1.47960E+4   2.70242E+3
  -1.47629E+4   2.74995E+3
  -1.45912E+4   2.75364E+3
  -1.43844E+4   2.72192E+3
  -1.42652E+4   2.86429E+3
  -1.42258E+4   2.80005E+3
  -1.41442E+4   2.83381E+3
  -1.40006E+4   2.88673E+3
  -1.38990E+4   2.89894E+3
  -1.37545E+4   2.92250E+3
  -1.36625E+4   2.86513E+3
  -1.34898E+4   2.91246E+3
  -1.34158E+4   2.86523E+3
  -1.33333E+4   2.92291E+3
  -1.32191E+4   2.99098E+3
  -1.31763E+4   2.97295E+3
  -1.30249E+4   2.97584E+3
  -1.29080E+4   3.03177E+3
  -1.28845E+4   3.04550E+3
  -1.27580E+4   3.03194E+3
  -1.26994E+4   3.08077E+3
  -1.25805E+4   3.07607E+3
  -1.25153E+4   3.13135E+3
  -1.24445E+4   3.10213E+3
  -1.23338E+4   3.14318E+3
  -1.22327E+4   3.15335E+3
  -1.21490E+4   3.15849E+3
  -1.20810E+4   3.21200E+3
  -1.19884E+4   3.24287E+3
  -1.19238E+4   3.17706E+3
  -1.18534E+4   3.22894E+3
  -1.17324E+4   3.25972E+3
  -1.17014E+4   3.20106E+3
  -1.16051E+4   3.25113E+3
  -1.14465E+4   3.19249E+3
  -1.13860E+4   3.20631E+3
  -1.12983E+4   3.15247E+3
  -1.11683E+4   3.22268E+3
  -1.11551E+4   3.24240E+3
  -1.10253E+4   3.20274E+3
  -1.09392E+4   3.20933E+3
  -1.08371E+4   3.27104E+3
  -1.07274E+4   3.22947E+3
  -1.06724E+4   3.25116E+3
  -1.05656E+4   3.20333E+3
  -1.04274E+4   3.20029E+3
  -1.03521E+4   3.19152E+3
  -1.03026E+4   3.23765E+3
  -1.02072E+4   3.20297E+3
  -1.01513E+4   3.24968E+3
  -1.00965E+4   3.25182E+3
  -9.92647E+3   3.26733E+3
  -9.86642E+3   3.23788E+3
  -9.74976E+3   3.26220E+3
  -9.67204E+3   3.26374E+3
  -9.57969E+3   3.19032E+3
  -9.53426E+3   3.25007E+3
  -9.45360E+3   3.23269E+3
  -9.23747E+3   3.33421E+3
  -9.13910E+3   3.26291E+3
  -9.16266E+3   3.25051E+3
  -8.98183E+3   3.27638E+3
  -8.97298E+3   3.34109E+3
  -8.92909E+3   3.37654E+3
  -8.80836E+3   3.30829E+3
  -8.77916E+3   3.35637E+3
  -8.66429E+3   3.25312E+3
  -8.57004E+3   3.31691E+3
  -8.49558E+3   3.36734E+3
  -8.39455E+3   3.35704E+3
  -8.39017E+3   3.40156E+3
  -8.32094E+3   3.38358E+3
  -8.19927E+3   3.40869E+3
  -8.11722E+3   3.36959E+3
  -8.07812E+3   3.33273E+3
  -8.00890E+3   3.40697E+3
  -7.94899E+3   3.33251E+3
  -7.89986E+3   3.37947E+3
  -7.78799E+3   3.38278E+3
  -7.76095E+3   3.39386E+3
  -7.71729E+3   3.32775E+3
  -7.73127E+3   3.37019E+3
  -7.60026E+3   3.31167E+3
  -7.51757E+3   3.36864E+3
  -7.42855E+3   3.40635E+3
  -7.37547E+3   3.36401E+3
  -7.31833E+3   3.37556E+3
  -7.26542E+3   3.36192E+3
  -7.20471E+3   3.38224E+3
  -7.14104E+3   3.38933E+3
  -7.12681E+3   3.39054E+3
  -7.08104E+3   3.39751E+3
  -7.01738E+3   3.36352E+3
  -6.91596E+3   3.38139E+3
  -6.84293E+3   3.39357E+3
  -6.85068E+3   3.40331E+3
  -6.83271E+3   3.34920E+3
  -6.66862E+3   3.36696E+3
  -6.64325E+3   3.34644E+3
  -6.66080E+3   3.35673E+3
  -6.57949E+3   3.28949E+3
  -6.52838E+3   3.31016E+3
  -6.48025E+3   3.29787E+3
  -6.43281E+3   3.32811E+3
  -6.36786E+3   3.32369E+3
  -6.30193E+3   3.32675E+3
  -6.25066E+3   3.33098E+3
  -6.23284E+3   3.33844E+3
  -6.13754E+3   3.31712E+3
  -6.24230E+3   3.27035E+3
  -6.07838E+3   3.28255E+3
  -5.99542E+3   3.26129E+3
  -5.98581E+3   3.24206E+3
  -5.96482E+3   3.27144E+3
  -5.89584E+3   3.18110E+3
  -5.77755E+3   3.24833E+3
  -5.81008E+3   3.26086E+3
  -5.66507E+3   3.18012E+3
  -5.66662E+3   3.25822E+3
  -5.63103E+3   3.26767E+3
  -5.59878E+3   3.24964E+3
  -5.51404E+3   3.20309E+3
  -5.49725E+3   3.15792E+3
  -5.49061E+3   3.19253E+3
  -5.41226E+3   3.17592E+3
  -5.37903E+3   3.12452E+3
  -5.25250E+3   3.16414E+3
  -5.26023E+3   3.21551E+3
  -5.21051E+3   3.15967E+3
  -5.11929E+3   3.20317E+3
  -5.17348E+3   3.16815E+3
  -5.12290E+3   3.24582E+3
  -5.03771E+3   3.16100E+3
  -5.07210E+3   3.16736E+3
  -4.95029E+3   3.12366E+3
  -4.91525E+3   3.09085E+3
  -4.87240E+3   3.13161E+3
  -4.85993E+3   3.14255E+3
  -4.88219E+3   3.15712E+3
  -4.71893E+3   3.19379E+3
  -4.75775E+3   3.11877E+3
  -4.73980E+3   3.07443E+3
  -4.67067E+3   3.10949E+3
  -4.61312E+3   3.19272E+3
  -4.61641E+3   3.11137E+3
  -4.53358E+3   3.06238E+3
  -4.46161E+3   3.12565E+3
  -4.45124E+3   3.07373E+3
  -4.38099E+3   3.07834E+3
  -4.35522E+3   3.04143E+3
  -4.23280E+3   3.14367E+3
  -4.26023E+3   3.04492E+3
  -4.23662E+3   3.08527E+3
  -4.17355E+3   3.07888E+3
  -4.13875E+3   3.06763E+3
  -4.10326E+3   3.00416E+3
  -4.01069E+3   3.10192E+3
  -3.92386E+3   3.03632E+3
  -3.99754E+3   3.01867E+3
  -3.94301E+3   2.99323E+3
  -3.89421E+3   2.99815E+3
  -3.82733E+3   3.05987E+3
  -3.87811E+3   3.05785E+3
  -3.73025E+3   2.98286E+3
  -3.77282E+3   2.98608E+3
  -3.67939E+3   3.03635E+3
  -3.66590E+3   3.03406E+3
  -3.64420E+3   3.04290E+3
  -3.60080E+3   3.00813E+3
  -3.53281E+3   2.96720E+3
  -3.45595E+3   2.96687E+3
  -3.50288E+3   2.98685E+3
  -3.46619E+3   2.96793E+3
  -3.43256E+3   2.98539E+3
  -3.35503E+3   2.92831E+3
  -3.35821E+3   2.89927E+3
  -3.31671E+3   2.91848E+3
  -3.28102E+3   2.84403E+3
  -3.16189E+3   2.91287E+3
  -3.23768E+3   2.89836E+3
  -3.20162E+3   2.91238E+3
  -3.17538E+3   2.88119E+3
  -3.16654E+3   2.80790E+3
  -3.06140E+3   2.86673E+3
  -3.01607E+3   2.77770E+3
  -3.02725E+3   2.77002E+3
  -3.01758E+3   2.80816E+3
  -2.94974E+3   2.85136E+3
  -2.98786E+3   2.74970E+3
  -2.88570E+3   2.74436E+3
  -2.88018E+3   2.75318E+3
  -2.86090E+3   2.67459E+3
  -2.87439E+3   2.68104E+3
  -2.80448E+3   2.68390E+3
  -2.75158E+3   2.71536E+3
  -2.73224E+3   2.71606E+3
  -2.77849E+3   2.65084E+3
  -2.67907E+3   2.62264E+3
  -2.65908E+3   2.65998E+3
  -2.65312E+3   2.58246E+3
  -2.63155E+3   2.61889E+3
  -2.59657E+3   2.61557E+3
  -2.57954E+3   2.65496E+3
  -2.53628E+3   2.59704E+3
  -2.53678E+3   2.54554E+3
  -2.53990E+3   2.52190E+3
  -2.51687E+3   2.56446E+3
  -2.48131E+3   2.49753E+3
  -2.41529E+3   2.54397E+3
  -2.43058E+3   2.52600E+3
  -2.41277E+3   2.44618E+3
  -2.48502E+3   2.49748E+3
  -2.38421E+3   2.46561E+3
  -2.33071E+3   2.38729E+3
  -2.36409E+3   2.46174E+3
  -2.30849E+3   2.42109E+3
  -2.30830E+3   2.42166E+3
  -2.33933E+3   2.41245E+3
  -2.20987E+3   2.40580E+3
  -2.26894E+3   2.34303E+3
  -2.19937E+3   2.33420E+3
  -2.20002E+3   2.28774E+3
  -2.24161E+3   2.29181E+3
  -2.09928E+3   2.32674E+3
  -2.15058E+3   2.29566E+3
  -2.10655E+3   2.25759E+3
  -2.11338E+3   2.24179E+3
  -2.08009E+3   2.25203E+3
  -2.04749E+3   2.23240E+3
  -2.10318E+3   2.19737E+3
  -2.03589E+3   2.15548E+3
  -2.04827E+3   2.22048E+3
  -1.93408E+3   2.14570E+3
  -2.01828E+3   2.16303E+3
  -1.95025E+3   2.17394E+3
  -1.91196E+3   2.16320E+3
  -1.97306E+3   2.14384E+3
  -1.90589E+3   2.07938E+3
  -1.90141E+3   2.11210E+3
  -1.90705E+3   2.12137E+3
  -1.81015E+3   2.10380E+3
  -1.90233E+3   2.07825E+3
  -1.86639E+3   2.08590E+3
  -1.73516E+3   2.03873E+3
  -1.81395E+3   2.04509E+3
  -1.83441E+3   2.03006E+3
  -1.76424E+3   2.06630E+3
  -1.77307E+3   2.03141E+3
  -1.80525E+3   1.99451E+3
  -1.76563E+3   2.02402E+3
  -1.64902E+3   2.00146E+3
  -1.66358E+3   2.03793E+3
  -1.73610E+3   2.05353E+3
  -1.69914E+3   1.97507E+3
  -1.67407E+3   1.96451E+3
  -1.62461E+3   1.97796E+3
  -1.61219E+3   1.87695E+3
  -1.63586E+3   1.91607E+3
  -1.63389E+3   1.98452E+3
  -1.66653E+3   1.96445E+3
  -1.59834E+3   1.94297E+3
