 LCModel (Version 6.3-1N) Copyright: S.W. Provencher.          Ref.: Magn. Reson. Med. 30:672-679 (1993).                
 Slice_N1@19_22  02-Jun-2023 14:36:39
 27 lines in following concentration table = NCONC+1
    Conc.  %SD /Cr+PCr  Metabolite                                         
 1.99E-06  17% 3.0E-04 Mac                                                 
 3.76E-02  25%   5.745 Cr                                                  
 1.48E-02  63%   2.255 PCr                                                 
 7.35E-02  11%  11.217 Ins                                                 
 7.34E-02   8%  11.208 NAA                                                 
 5.75E-02  13%   8.778 Tau                                                 
 9.73E-03  37%   1.485 PCho                                                
 9.50E-03  36%   1.450 GPC                                                 
 3.74E-02  24%   5.709 Glu                                                 
 1.53E-02  42%   2.343 Gln                                                 
    0.000 999%   0.000 Ala                                                 
 3.70E-02  35%   5.646 Asc                                                 
 8.06E-03  84%   1.230 Asp                                                 
 8.25E-03  45%   1.259 GABA                                                
 6.74E-03  65%   1.028 Glc                                                 
 7.23E-03  46%   1.104 GSH                                                 
 7.01E-03 100%   1.070 Lac                                                 
 7.81E-03  60%   1.192 NAAG                                                
    0.000 999%   0.000 PE                                                  
 1.92E-02  11%   2.935 GPC+PCho                                            
 8.12E-02   9%  12.400 NAA+NAAG                                            
 5.28E-02  20%   8.052 Glu+Gln                                             
 5.24E-02  11%   8.000 Cr+PCr                                              
 8.12E-02   9%  12.400 NAA+NAAG                                            
 5.24E-02  11%   8.000 Cr+PCr                                              
 5.28E-02  20%   8.052 Glu+Gln                                             
   6 lines in following misc. output table
  FWHM = 0.023 ppm    S/N =   4                                            
  Data shift = 0.000 ppm                                                   
  Ph:  38 deg      -4.0 deg/ppm                                            
  alphaB,S = 3.1E+01,   1.8E+01                                            
   18 spline knots.   Ns = 5(1)                                            
   2 inflections.     1 extrema                                            
  654 points on ppm-axis = NY
      4.000000     3.994181     3.988363     3.982544     3.976726     3.970907     3.965088     3.959270     3.953451     3.947633
      3.941814     3.935995     3.930177     3.924358     3.918540     3.912721     3.906902     3.901084     3.895265     3.889446
      3.883628     3.877809     3.871991     3.866172     3.860353     3.854535     3.848716     3.842898     3.837079     3.831260
      3.825442     3.819623     3.813805     3.807986     3.802167     3.796349     3.790530     3.784712     3.778893     3.773074
      3.767256     3.761437     3.755619     3.749800     3.743981     3.738163     3.732344     3.726526     3.720707     3.714888
      3.709070     3.703251     3.697433     3.691614     3.685795     3.679977     3.674158     3.668339     3.662521     3.656702
      3.650884     3.645065     3.639246     3.633428     3.627609     3.621791     3.615972     3.610153     3.604335     3.598516
      3.592698     3.586879     3.581060     3.575242     3.569423     3.563605     3.557786     3.551967     3.546149     3.540330
      3.534512     3.528693     3.522874     3.517056     3.511237     3.505419     3.499600     3.493781     3.487963     3.482144
      3.476326     3.470507     3.464688     3.458870     3.453051     3.447232     3.441414     3.435595     3.429777     3.423958
      3.418139     3.412321     3.406502     3.400684     3.394865     3.389046     3.383228     3.377409     3.371591     3.365772
      3.359953     3.354135     3.348316     3.342498     3.336679     3.330860     3.325042     3.319223     3.313405     3.307586
      3.301767     3.295949     3.290130     3.284312     3.278493     3.272674     3.266856     3.261037     3.255219     3.249400
      3.243581     3.237763     3.231944     3.226125     3.220307     3.214488     3.208670     3.202851     3.197032     3.191214
      3.185395     3.179577     3.173758     3.167939     3.162121     3.156302     3.150484     3.144665     3.138846     3.133028
      3.127209     3.121391     3.115572     3.109753     3.103935     3.098116     3.092298     3.086479     3.080660     3.074842
      3.069023     3.063205     3.057386     3.051567     3.045749     3.039930     3.034111     3.028293     3.022474     3.016656
      3.010837     3.005018     2.999200     2.993381     2.987563     2.981744     2.975925     2.970107     2.964288     2.958470
      2.952651     2.946832     2.941014     2.935195     2.929377     2.923558     2.917739     2.911921     2.906102     2.900284
      2.894465     2.888646     2.882828     2.877009     2.871191     2.865372     2.859553     2.853735     2.847916     2.842098
      2.836279     2.830460     2.824642     2.818823     2.813004     2.807186     2.801367     2.795549     2.789730     2.783911
      2.778093     2.772274     2.766456     2.760637     2.754818     2.749000     2.743181     2.737363     2.731544     2.725725
      2.719907     2.714088     2.708270     2.702451     2.696632     2.690814     2.684995     2.679177     2.673358     2.667539
      2.661721     2.655902     2.650084     2.644265     2.638446     2.632628     2.626809     2.620991     2.615172     2.609353
      2.603535     2.597716     2.591897     2.586079     2.580260     2.574442     2.568623     2.562804     2.556986     2.551167
      2.545349     2.539530     2.533711     2.527893     2.522074     2.516256     2.510437     2.504618     2.498800     2.492981
      2.487163     2.481344     2.475525     2.469707     2.463888     2.458070     2.452251     2.446432     2.440614     2.434795
      2.428977     2.423158     2.417339     2.411521     2.405702     2.399884     2.394065     2.388246     2.382428     2.376609
      2.370790     2.364972     2.359153     2.353335     2.347516     2.341697     2.335879     2.330060     2.324242     2.318423
      2.312604     2.306786     2.300967     2.295149     2.289330     2.283511     2.277693     2.271874     2.266056     2.260237
      2.254418     2.248600     2.242781     2.236963     2.231144     2.225325     2.219507     2.213688     2.207870     2.202051
      2.196232     2.190414     2.184595     2.178777     2.172958     2.167139     2.161321     2.155502     2.149683     2.143865
      2.138046     2.132228     2.126409     2.120590     2.114772     2.108953     2.103135     2.097316     2.091497     2.085679
      2.079860     2.074042     2.068223     2.062404     2.056586     2.050767     2.044949     2.039130     2.033311     2.027493
      2.021674     2.015856     2.010037     2.004218     1.998400     1.992581     1.986763     1.980944     1.975126     1.969307
      1.963489     1.957670     1.951852     1.946033     1.940215     1.934397     1.928578     1.922760     1.916941     1.911123
      1.905304     1.899486     1.893667     1.887849     1.882030     1.876212     1.870393     1.864575     1.858756     1.852938
      1.847119     1.841301     1.835482     1.829664     1.823845     1.818027     1.812208     1.806390     1.800571     1.794753
      1.788934     1.783116     1.777297     1.771479     1.765660     1.759842     1.754023     1.748205     1.742386     1.736568
      1.730749     1.724931     1.719113     1.713294     1.707476     1.701657     1.695839     1.690020     1.684202     1.678383
      1.672565     1.666746     1.660928     1.655109     1.649291     1.643472     1.637654     1.631835     1.626017     1.620198
      1.614380     1.608561     1.602743     1.596924     1.591106     1.585287     1.579469     1.573650     1.567832     1.562013
      1.556195     1.550376     1.544558     1.538739     1.532921     1.527102     1.521284     1.515465     1.509647     1.503829
      1.498010     1.492192     1.486373     1.480555     1.474736     1.468918     1.463099     1.457281     1.451462     1.445644
      1.439825     1.434007     1.428188     1.422370     1.416551     1.410733     1.404914     1.399096     1.393277     1.387459
      1.381640     1.375822     1.370003     1.364185     1.358366     1.352548     1.346729     1.340911     1.335092     1.329274
      1.323455     1.317637     1.311818     1.306000     1.300182     1.294363     1.288545     1.282726     1.276908     1.271089
      1.265271     1.259452     1.253634     1.247815     1.241997     1.236178     1.230360     1.224541     1.218723     1.212904
      1.207086     1.201267     1.195449     1.189630     1.183812     1.177993     1.172175     1.166356     1.160538     1.154719
      1.148901     1.143082     1.137264     1.131445     1.125627     1.119808     1.113990     1.108171     1.102353     1.096534
      1.090716     1.084898     1.079079     1.073261     1.067442     1.061624     1.055805     1.049987     1.044168     1.038350
      1.032531     1.026713     1.020894     1.015076     1.009257     1.003439     0.997620     0.991802     0.985983     0.980165
      0.974346     0.968528     0.962709     0.956891     0.951072     0.945254     0.939435     0.933617     0.927798     0.921980
      0.916161     0.910343     0.904524     0.898706     0.892887     0.887069     0.881251     0.875432     0.869614     0.863795
      0.857977     0.852158     0.846340     0.840521     0.834703     0.828884     0.823066     0.817247     0.811429     0.805610
      0.799792     0.793973     0.788155     0.782336     0.776518     0.770699     0.764881     0.759062     0.753244     0.747425
      0.741607     0.735788     0.729970     0.724151     0.718333     0.712514     0.706696     0.700877     0.695059     0.689240
      0.683422     0.677603     0.671785     0.665967     0.660148     0.654330     0.648511     0.642693     0.636874     0.631056
      0.625237     0.619419     0.613600     0.607782     0.601963     0.596145     0.590326     0.584508     0.578689     0.572871
      0.567052     0.561234     0.555415     0.549597     0.543778     0.537960     0.532141     0.526323     0.520504     0.514686
      0.508867     0.503049     0.497230     0.491412     0.485593     0.479775     0.473956     0.468138     0.462319     0.456501
      0.450682     0.444864     0.439045     0.433227     0.427408     0.421590     0.415771     0.409953     0.404134     0.398316
      0.392497     0.386679     0.380860     0.375042     0.369223     0.363405     0.357586     0.351767     0.345949     0.340130
      0.334312     0.328493     0.322675     0.316856     0.311038     0.305219     0.299401     0.293582     0.287764     0.281945
      0.276127     0.270308     0.264490     0.258671     0.252853     0.247034     0.241216     0.235397     0.229579     0.223760
      0.217942     0.212123     0.206305     0.200486
 NY phased data points follow
   1.42032E-01  1.88647E-01 -2.38527E-01 -2.17230E-01 -2.21283E-01 -7.53260E-02  3.14262E-01  9.05342E-02  1.20483E-01  5.35686E-02
  -5.24813E-01 -1.89513E-01  3.54383E-01 -2.25444E-03 -2.24350E-01  5.63858E-02  2.64425E-01  2.07547E-01  2.08058E-01  2.92663E-01
   1.77314E-01  1.31411E-01  7.09403E-02 -1.86470E-02  3.93916E-02  1.21521E-01  2.67050E-01  2.61444E-01  3.28365E-01  2.19137E-01
  -7.80525E-02  3.61965E-02  1.65717E-01 -3.40176E-02 -3.96730E-01 -3.44703E-01 -2.79078E-01 -3.66731E-01 -3.46920E-01 -6.07261E-01
  -4.02634E-01  7.65587E-02  1.56356E-01  6.58056E-02  1.13794E-01  4.10711E-01  2.72201E-01  1.89845E-02  3.15943E-02  1.92801E-01
   2.08423E-01  3.95032E-02  3.24625E-02  6.28857E-02 -9.81130E-03 -1.50650E-01 -1.89742E-01 -2.25450E-01 -1.38833E-01 -1.95736E-01
  -9.00308E-02 -7.12410E-03 -2.64227E-01 -1.41890E-01 -4.01765E-02 -1.69489E-01 -5.46167E-03  2.49462E-01  3.18422E-01  2.60026E-01
   7.96727E-02  2.24551E-02  3.88708E-02  2.91332E-01  6.08873E-02 -2.35716E-01 -4.02998E-02 -1.59030E-02 -3.03146E-01 -4.49164E-01
  -3.58945E-01 -2.26989E-01  2.25566E-01 -5.05958E-02  2.82844E-01  7.49611E-01  3.46788E-01  3.21156E-01  4.20010E-01  3.31554E-01
   1.01816E-01  2.52147E-01  1.91645E-01 -1.52382E-01  9.02955E-02  2.87863E-01 -2.56774E-02  2.79164E-01 -9.07318E-02 -2.00733E-01
  -2.72368E-01 -4.78153E-01  1.27059E-01  7.81538E-02  5.24607E-01  4.18826E-01  4.54634E-01  4.63419E-01  3.93180E-01  2.72783E-01
   7.39801E-02  5.40189E-01  5.28593E-01  6.58429E-01  2.90257E-01  7.13435E-02  1.14695E-01  1.51341E-01  2.49950E-01  2.59726E-01
  -9.01797E-02  3.07414E-03  3.60636E-02 -2.79586E-02 -6.37272E-02 -6.00466E-01 -7.28890E-02 -1.89412E-01 -1.82877E-01 -5.74159E-01
  -7.62410E-01 -3.47179E-01 -4.91295E-01 -3.20424E-01 -6.15248E-01 -5.99859E-01 -9.91783E-01 -1.15163E+00 -9.99590E-01 -5.92259E-01
  -2.39970E-01 -3.71834E-01  8.53782E-02  3.70212E-02 -2.14193E-01  2.09239E-02 -4.08198E-02 -1.97504E-01  1.36765E-01  1.08849E-01
   1.65573E-01  2.93902E-01 -9.27039E-02  4.79157E-02  4.04344E-01  3.07091E-02  2.69759E-02  1.96229E-01  1.69429E-01  3.81634E-01
   1.38921E-02  3.80208E-01  5.42265E-01  2.36134E-01  5.90060E-01  6.33833E-01  8.80382E-01  6.60362E-01 -3.03483E-02 -8.16837E-01
  -9.69839E-01 -3.97841E-01 -5.06122E-01 -5.81027E-01 -5.49612E-01 -4.41878E-01 -6.05057E-01 -3.77349E-01 -7.86978E-02 -5.06973E-01
  -2.71731E-01 -3.96818E-01 -3.24218E-01 -8.58959E-02 -1.87472E-01 -3.03582E-01 -5.61328E-01 -2.19569E-01 -4.41083E-01 -4.17488E-01
  -2.48369E-01 -4.70150E-01  1.36464E-01  2.35909E-01 -6.72273E-02 -1.93188E-01 -4.39227E-01 -1.16593E-01  1.97911E-03 -2.23795E-01
  -1.34848E-01 -2.61445E-01 -6.14899E-02  3.26513E-01  1.94536E-01 -8.23222E-02 -2.02208E-01  1.13654E-01 -9.70101E-02 -2.79361E-01
  -5.05656E-02 -2.14111E-01  8.48032E-02 -1.40588E-01 -7.84578E-02  1.71718E-01 -1.30969E-01  2.91670E-01  3.58527E-02 -2.15716E-01
   1.21284E-01  8.40995E-02 -1.39832E-01 -7.28441E-03  1.85331E-01  3.62109E-01  4.18034E-01  2.04631E-01  2.18924E-01  2.22282E-02
   2.75594E-01  1.15117E-01 -1.32225E-02  1.91311E-01 -1.82458E-02  1.12900E-01  7.55575E-02  7.97594E-02 -2.67573E-01 -2.13150E-01
   1.14400E-01 -2.85706E-02  1.26412E-02 -5.04486E-02  4.12441E-02  1.82188E-01 -3.20745E-02 -3.92536E-02  1.20224E-01 -9.00212E-02
   1.16571E-01  2.60203E-01  7.30613E-02  1.77596E-01  1.10348E-02 -2.79360E-01  1.44188E-02  2.98708E-01  1.41492E-01 -4.97566E-02
  -1.13501E-02  2.28532E-01  7.26424E-02  6.19243E-03  1.31775E-01  2.59582E-01  1.26525E-01  1.00052E-01  1.66505E-01  1.05582E-01
   3.56534E-01  6.80797E-02 -4.94102E-02  1.48099E-01  2.93234E-01  2.81171E-01  1.90459E-01  2.14681E-01  3.04757E-02 -1.49457E-01
  -1.27909E-01 -8.79173E-02 -3.61188E-01 -4.15495E-01 -7.99729E-02  2.54718E-01  3.89303E-01  5.10218E-01  3.88982E-01  4.95955E-01
   2.80698E-01 -5.98823E-02 -7.59999E-02 -1.58092E-01  2.59479E-01  7.16233E-02  1.30456E-01  1.97713E-01  4.36933E-02  2.21535E-01
   1.01263E-02 -8.60016E-03  1.92748E-02  2.05610E-01  5.41460E-01  2.25003E-01  2.12090E-01  2.79222E-01 -3.93165E-02  4.76308E-01
   2.87504E-01  2.20965E-01  2.44344E-01 -7.84812E-02 -1.58521E-03 -2.08798E-01  4.70666E-02 -1.62147E-02  3.12594E-03  6.17186E-03
   5.28048E-02  9.54929E-03 -9.40964E-02 -1.74391E-02 -2.57260E-01 -9.70791E-02 -1.48724E-01  3.32744E-02  1.90759E-01  3.09011E-01
   2.62304E-01  2.89283E-02  3.85525E-01  1.91679E-01 -1.97556E-01 -3.12651E-01 -2.66842E-01 -4.32615E-01 -4.25382E-01  9.71391E-03
  -1.78026E-01 -1.03197E-01 -1.08557E+00 -2.16446E+00 -1.04698E+00 -4.29741E-01 -3.05702E-01 -1.00923E-01 -3.02677E-01 -4.36229E-01
  -1.21404E-01  1.84060E-01 -1.16101E-01  5.83868E-02  2.30466E-01 -4.97490E-02  3.06496E-01  2.07359E-01 -2.64135E-01  6.88866E-02
  -7.01615E-03 -1.96285E-01  6.36162E-02  2.13758E-02 -1.72727E-01 -2.48360E-02  4.77222E-02  1.54372E-01  1.47866E-01  1.60011E-01
   3.38465E-01  1.73222E-01 -1.71204E-01 -1.98459E-01  1.88567E-01 -4.60532E-02  3.82694E-01  1.72653E-01  8.34843E-03  4.13990E-01
  -2.01854E-02  4.15838E-01  1.12968E-01  1.57334E-01  1.09465E-01 -2.68353E-01  1.81100E-01  2.61638E-01  8.04692E-02 -3.31683E-02
   8.79990E-02  5.27397E-02  2.21228E-01  8.89226E-02  9.10005E-02  1.59288E-01  1.45918E-02 -4.61541E-02  6.15174E-02  8.97821E-02
   2.95003E-02  2.63794E-01  4.06572E-02 -2.04865E-02 -2.53499E-02 -3.47874E-02 -1.79699E-01 -3.44144E-01  3.48938E-02 -4.61129E-03
  -9.30464E-02 -1.20293E-02 -3.05967E-01 -2.56306E-01 -1.94184E-01 -2.59954E-01 -1.63713E-01 -1.40675E-01 -9.97696E-02 -1.24274E-01
   8.32182E-02 -9.85991E-02 -1.63884E-02 -2.08464E-01 -4.72154E-01  2.16459E-02 -1.99557E-01 -2.54402E-02 -1.85300E-01 -3.61759E-01
   1.06991E-01 -1.22687E-01 -3.27848E-02  1.59278E-02 -6.16688E-02 -1.80265E-01 -1.72425E-01  5.01249E-01  2.49072E-01  6.49950E-02
   7.50695E-04 -1.21472E-01  3.66167E-01  2.22670E-01  2.45267E-01 -7.68939E-02  2.08928E-01  3.56747E-01 -6.68130E-02  3.21483E-01
   3.14150E-02  1.38877E-01  1.10748E-01  1.71862E-01  1.40135E-01 -8.66493E-02  4.13370E-02 -1.99249E-01  2.05467E-01  1.52641E-01
  -4.78746E-02  1.28852E-01  4.08229E-01  5.02590E-01  3.24475E-01 -8.59739E-02 -5.35795E-01 -2.13809E-01 -1.42929E-01 -1.35462E-01
   4.71857E-02  2.02291E-01  8.74522E-02  5.06582E-02 -2.64238E-01 -5.08170E-01  7.28155E-02 -7.73284E-02 -1.80926E-01 -1.53497E-01
   3.96229E-02  3.39864E-01 -1.49415E-01 -4.95359E-01 -9.48464E-02  7.45262E-02 -1.28817E-01  8.47863E-02 -8.25629E-03  1.22881E-01
  -9.31054E-02 -3.15548E-02  2.56881E-01 -1.34747E-01  2.43418E-01  1.02894E-02  8.41641E-02  3.40232E-01  3.11231E-01  5.43860E-02
  -4.27197E-01  2.84327E-02 -3.15600E-03  3.91814E-01  4.28355E-01  2.56182E-01  1.84427E-01 -2.37405E-02  1.51427E-01 -6.97747E-02
   4.17988E-02 -1.09698E-01  1.50210E-01  7.13298E-02 -3.12893E-02 -6.70866E-02 -1.52753E-01  1.23211E-01  1.47763E-02  2.39116E-01
  -1.20156E-01  1.36123E-02  2.88841E-01  1.17248E-01 -3.98797E-01 -2.41344E-01 -1.72062E-01 -5.46660E-01 -6.87719E-03 -4.60843E-01
  -2.32528E-01 -2.74441E-01 -3.91024E-01 -1.79310E-01 -4.32609E-01 -2.81850E-02 -1.95356E-01 -2.96965E-01 -2.99472E-01 -1.41472E-01
   1.29469E-01 -9.07441E-03 -2.82422E-01 -6.89274E-02  3.18530E-02 -5.32289E-03  1.20239E-01 -2.75173E-01 -1.05936E-02  4.59646E-02
  -2.93750E-02  5.17195E-01  2.68871E-01  1.43237E-01  2.52241E-01  9.43446E-02  2.81863E-01  2.39056E-02  9.03068E-02  1.90854E-01
  -8.75334E-02 -3.17429E-02 -8.00097E-02  2.36103E-01  1.94085E-01  3.78977E-02 -7.01496E-03 -2.02491E-01 -1.45732E-02 -3.70944E-02
  -1.34668E-01  7.54623E-02  5.15066E-02 -3.12381E-02  1.39655E-01  2.87000E-01  2.68133E-02 -1.07930E-01  1.33159E-01 -1.18886E-01
   6.43944E-02 -2.62314E-01 -1.66236E-01  3.95901E-01 -1.12266E-01  1.50620E-01  1.20774E-01  6.59449E-02  3.77985E-01  1.64510E-01
  -1.75127E-01  6.40660E-02  1.21640E-01  6.30717E-02 -8.49853E-02 -3.27860E-01  1.40235E-01 -1.56220E-01 -1.14159E-01  6.51072E-02
   3.14759E-02  2.72600E-01  2.67062E-01 -4.32308E-02 -4.97114E-02  1.48599E-01  1.36470E-01  1.20270E-01 -1.14318E-01  5.56887E-02
  -1.68369E-01 -1.18911E-01 -1.65316E-02  1.69512E-02 -1.13824E-02  2.97004E-01  2.31998E-01 -1.49942E-01  3.49578E-01 -1.36503E-01
   3.15025E-01  3.76236E-01 -1.33473E-01  2.14772E-01  2.56762E-01  2.52176E-01  1.69480E-01 -1.87447E-01  7.69739E-02  2.28971E-01
  -1.85321E-01  4.99481E-02 -3.35460E-01  1.36700E-01  1.52168E-01 -1.79236E-01 -1.66250E-02 -7.35157E-02  2.59034E-01  6.90298E-02
   1.54433E-01  3.96075E-02 -1.10081E-01 -2.41524E-01 -8.79554E-03 -2.33719E-02  1.45735E-02  2.56943E-01 -3.60403E-01  3.96256E-02
   4.73749E-01 -2.95740E-01 -3.49308E-01  2.10830E-01
 NY points of the fit to the data follow
   1.44473E-01  1.11533E-01  6.83213E-02  3.10354E-02  1.16469E-02  1.22906E-02  2.24456E-02  3.33147E-02  3.51044E-02  3.31264E-02
   7.02970E-02  1.52155E-01  2.09036E-01  2.44570E-01  3.01947E-01  4.30157E-01  5.35011E-01  4.76150E-01  2.98028E-01  1.59987E-01
   1.03800E-01  6.84326E-02  2.82608E-02 -5.20574E-03 -3.10133E-02 -5.15266E-02 -7.10892E-02 -8.90348E-02 -1.03488E-01 -1.15388E-01
  -1.25447E-01 -1.34121E-01 -1.44732E-01 -1.61461E-01 -1.82370E-01 -2.03295E-01 -2.20874E-01 -2.43356E-01 -2.54615E-01 -2.25619E-01
  -1.55529E-01 -5.77695E-02  1.96434E-02  7.13252E-02  1.29316E-01  1.87708E-01  2.24609E-01  2.26396E-01  1.97145E-01  1.64462E-01
   1.33760E-01  9.00471E-02  4.22343E-02  2.69456E-03 -3.90216E-02 -9.63529E-02 -1.56215E-01 -2.00626E-01 -1.95488E-01 -1.97526E-01
  -2.35523E-01 -2.50257E-01 -2.56913E-01 -2.31643E-01 -1.95348E-01 -1.19090E-01  4.76351E-02  2.12708E-01  3.01809E-01  3.55624E-01
   3.81036E-01  3.34607E-01  2.46538E-01  1.68479E-01  8.64111E-02  1.78708E-02 -3.37254E-02 -1.52346E-01 -3.20074E-01 -4.31074E-01
  -3.81345E-01 -1.94572E-01 -1.68496E-02  1.28325E-01  2.96929E-01  4.27940E-01  4.42181E-01  3.85886E-01  3.35114E-01  2.97064E-01
   2.63485E-01  2.35169E-01  2.04571E-01  1.65325E-01  1.29043E-01  7.43576E-02  9.60223E-03 -9.99724E-02 -2.22148E-01 -3.14833E-01
  -3.18910E-01 -2.09615E-01 -3.33372E-02  1.31020E-01  2.32472E-01  2.71004E-01  2.75337E-01  2.70824E-01  2.68421E-01  2.66056E-01
   2.64934E-01  2.63802E-01  2.61672E-01  2.58750E-01  2.55823E-01  2.53803E-01  2.51979E-01  2.40436E-01  2.41667E-01  2.39423E-01
   1.97507E-01  1.47334E-01  8.58416E-02  1.65276E-02 -3.81937E-02 -1.30031E-01 -1.53673E-01 -1.84850E-01 -2.75459E-01 -4.12608E-01
  -5.41897E-01 -5.52214E-01 -4.47384E-01 -3.09576E-01 -3.67904E-01 -6.94461E-01 -1.05722E+00 -1.13950E+00 -8.90632E-01 -5.52889E-01
  -3.21289E-01 -2.02614E-01 -1.31625E-01 -7.73810E-02 -3.83959E-02 -7.00730E-03  1.98648E-02  4.28494E-02  6.25694E-02  7.95913E-02
   9.51113E-02  1.09785E-01  1.24074E-01  1.38059E-01  1.52358E-01  1.68132E-01  1.86148E-01  2.06295E-01  2.28227E-01  2.52500E-01
   2.83409E-01  3.28815E-01  3.93968E-01  3.74181E-01  4.24663E-01  5.81980E-01  7.03119E-01  4.89150E-01 -1.11768E-01 -6.66286E-01
  -7.87469E-01 -6.20715E-01 -4.79009E-01 -4.21022E-01 -3.80872E-01 -3.47294E-01 -3.11123E-01 -2.75830E-01 -2.55526E-01 -2.45166E-01
  -2.34932E-01 -2.17213E-01 -1.98629E-01 -1.85991E-01 -1.80240E-01 -1.76724E-01 -1.71677E-01 -1.63668E-01 -1.54176E-01 -1.46498E-01
  -1.40276E-01 -1.32638E-01 -1.23296E-01 -1.13970E-01 -1.05327E-01 -9.71729E-02 -8.93572E-02 -8.08730E-02 -7.31998E-02 -6.66255E-02
  -5.88685E-02 -4.79882E-02 -3.62312E-02 -3.27878E-02 -3.90898E-02 -4.36182E-02 -3.71531E-02 -2.52155E-02 -2.23278E-02 -3.30453E-02
  -4.58520E-02 -5.00992E-02 -4.65254E-02 -4.14021E-02 -3.73333E-02 -3.08688E-02 -2.06223E-02 -1.17918E-02 -9.79486E-03 -1.26071E-02
  -1.74288E-03  1.11302E-02  1.65490E-02  3.24204E-02  9.17134E-02  1.90950E-01  2.43226E-01  1.98230E-01  1.43913E-01  1.75278E-01
   2.73088E-01  3.16196E-01  2.42472E-01  1.20552E-01  3.72836E-02  1.26062E-04 -2.02883E-02 -3.41990E-02 -4.34245E-02 -5.22434E-02
  -6.07734E-02 -6.88905E-02 -7.48434E-02 -7.81186E-02 -8.14543E-02 -8.41677E-02 -8.81934E-02 -9.23925E-02 -9.58400E-02 -9.60458E-02
  -9.33701E-02 -9.38662E-02 -8.79330E-02 -1.05036E-01 -1.28600E-01 -1.19126E-01 -7.24164E-02 -3.06790E-03  2.82763E-02  4.57675E-02
   9.31329E-02  1.40358E-01  1.46286E-01  1.24143E-01  1.29866E-01  1.44930E-01  1.40800E-01  1.27490E-01  1.23014E-01  1.27796E-01
   1.26155E-01  1.13937E-01  9.20480E-02  6.66101E-02  4.21299E-02  1.94404E-02 -4.13571E-03 -2.86363E-02 -5.33989E-02 -8.23563E-02
  -1.10237E-01 -1.40700E-01 -1.68435E-01 -1.71572E-01 -1.37988E-01 -5.62893E-02  5.15101E-02  1.44793E-01  2.01415E-01  2.07548E-01
   1.81712E-01  1.40310E-01  1.08760E-01  9.03925E-02  8.83418E-02  1.04461E-01  1.27842E-01  1.45904E-01  1.53900E-01  1.53747E-01
   1.49386E-01  1.44280E-01  1.40208E-01  1.35595E-01  1.30105E-01  1.25418E-01  1.17839E-01  1.06553E-01  9.31604E-02  7.37135E-02
   5.55785E-02  3.82021E-02  2.30467E-02  1.50505E-02  7.76336E-03 -5.81213E-04 -2.06110E-02 -5.27820E-02 -9.25413E-02 -1.29403E-01
  -1.53335E-01 -1.68874E-01 -1.69815E-01 -1.58413E-01 -1.31180E-01 -9.19477E-02 -4.76305E-02 -3.59046E-03  2.73904E-02  4.80720E-02
   4.61443E-02  2.36969E-02 -1.06664E-02 -3.68159E-02 -6.73676E-02 -1.18894E-01 -1.84720E-01 -2.76690E-01 -2.80915E-01 -1.65774E-01
  -1.85959E-01 -5.61242E-01 -1.19944E+00 -1.57502E+00 -1.32794E+00 -7.65458E-01 -3.75432E-01 -2.27818E-01 -1.54808E-01 -9.90471E-02
  -6.51170E-02 -4.11853E-02 -2.29136E-02 -9.45832E-03  1.43160E-03  9.13604E-03  1.67616E-02  2.06089E-02  1.97429E-02  1.36011E-02
   1.62657E-03 -1.26325E-02 -2.73280E-02 -3.93365E-02 -4.61445E-02 -4.66507E-02 -4.15324E-02 -3.25885E-02 -2.16917E-02 -1.13418E-02
  -1.94207E-03  7.09999E-03  1.58829E-02  2.39997E-02  2.98779E-02  3.40543E-02  3.78875E-02  4.24703E-02  4.70323E-02  5.10812E-02
   5.41266E-02  5.66534E-02  5.96257E-02  6.31172E-02  6.68702E-02  6.95760E-02  7.13264E-02  7.24088E-02  7.42577E-02  7.72958E-02
   8.09790E-02  8.46333E-02  8.74653E-02  8.85007E-02  8.75799E-02  8.54751E-02  8.33953E-02  8.17191E-02  7.98506E-02  7.66315E-02
   7.23510E-02  6.74490E-02  6.22501E-02  5.61420E-02  4.94203E-02  4.33718E-02  3.83528E-02  3.37345E-02  2.84209E-02  2.29873E-02
   1.82764E-02  1.42588E-02  1.07432E-02  7.68255E-03  4.69075E-03  1.81602E-03 -1.02710E-03 -3.92327E-03 -6.32379E-03 -8.06423E-03
  -9.63176E-03 -1.11672E-02 -1.23551E-02 -1.23438E-02 -1.12062E-02 -9.42500E-03 -7.30368E-03 -4.45226E-03 -5.10249E-04  4.25182E-03
   8.84464E-03  1.16279E-02  1.26645E-02  1.43493E-02  1.86164E-02  2.50558E-02  3.20838E-02  3.83387E-02  4.41298E-02  5.05424E-02
   5.83884E-02  6.77401E-02  7.76117E-02  8.73985E-02  9.71444E-02  1.06898E-01  1.16882E-01  1.26451E-01  1.34419E-01  1.39808E-01
   1.42954E-01  1.44109E-01  1.43921E-01  1.42507E-01  1.40051E-01  1.36712E-01  1.36252E-01  1.26760E-01  1.18883E-01  1.13698E-01
   1.27452E-01  1.58496E-01  1.86018E-01  1.93148E-01  1.74621E-01  1.40730E-01  1.09609E-01  9.05608E-02  7.84997E-02  6.81520E-02
   6.06757E-02  5.47788E-02  4.92798E-02  4.45972E-02  4.16034E-02  4.08023E-02  4.15421E-02  4.28349E-02  4.47284E-02  4.73417E-02
   5.06071E-02  5.45240E-02  5.92164E-02  6.39768E-02  6.79851E-02  7.10953E-02  7.31291E-02  7.44476E-02  7.59823E-02  7.84551E-02
   8.15853E-02  8.31677E-02  8.28923E-02  8.17777E-02  8.05065E-02  7.88443E-02  7.60632E-02  7.27093E-02  6.98088E-02  6.76076E-02
   6.51896E-02  6.20919E-02  5.88551E-02  5.59425E-02  5.31031E-02  4.97035E-02  4.57498E-02  4.21410E-02  3.97141E-02  3.79048E-02
   3.55471E-02  3.24552E-02  2.91338E-02  2.53580E-02  2.01581E-02  1.35464E-02  6.69875E-03 -1.26794E-04 -7.23385E-03 -1.62948E-02
  -2.81032E-02 -4.23567E-02 -5.75210E-02 -7.24769E-02 -8.71686E-02 -1.01928E-01 -1.15813E-01 -1.27951E-01 -1.39177E-01 -1.50032E-01
  -1.58969E-01 -1.64146E-01 -1.65968E-01 -1.66487E-01 -1.66315E-01 -1.63899E-01 -1.58840E-01 -1.52537E-01 -1.46566E-01 -1.41476E-01
  -1.36562E-01 -1.31121E-01 -1.24472E-01 -1.16863E-01 -1.08818E-01 -1.00062E-01 -9.08209E-02 -8.12410E-02 -7.20234E-02 -6.33232E-02
  -5.50920E-02 -4.69483E-02 -3.83198E-02 -2.99142E-02 -2.34216E-02 -1.79574E-02 -1.16327E-02 -4.74836E-03  1.14979E-03  4.96811E-03
   8.15300E-03  1.22128E-02  1.62319E-02  1.91942E-02  2.11714E-02  2.29553E-02  2.49641E-02  2.67152E-02  2.77349E-02  2.81970E-02
   2.91758E-02  3.09976E-02  3.30837E-02  3.52874E-02  3.73965E-02  3.89763E-02  3.96030E-02  3.96246E-02  3.97791E-02  3.99461E-02
   3.99120E-02  3.99070E-02  3.97225E-02  3.95079E-02  3.96949E-02  3.96519E-02  3.93415E-02  4.00976E-02  4.17547E-02  4.21912E-02
   4.00496E-02  3.68685E-02  3.57944E-02  3.66082E-02  3.71178E-02  3.67928E-02  3.68279E-02  3.70954E-02  3.60306E-02  3.41903E-02
   3.34906E-02  3.45650E-02  3.59719E-02  3.65205E-02  3.66343E-02  3.72985E-02  3.83564E-02  3.93198E-02  3.95672E-02  4.00569E-02
   4.09008E-02  4.13453E-02  4.04701E-02  3.88483E-02  3.80194E-02  3.83666E-02  3.91332E-02  4.02334E-02  4.14414E-02  4.19793E-02
   4.18086E-02  4.16374E-02  4.28828E-02  4.54788E-02  4.76247E-02  4.79758E-02  4.63375E-02  4.42458E-02  4.35345E-02  4.44134E-02
   4.54679E-02  4.52779E-02  4.38706E-02  4.26161E-02  4.26406E-02  4.31989E-02  4.29928E-02  4.18934E-02  4.11933E-02  4.19782E-02
   4.32814E-02  4.32010E-02  4.24546E-02  4.24508E-02  4.28902E-02  4.28159E-02  4.26657E-02  4.36126E-02  4.61930E-02  4.89272E-02
   5.08092E-02  5.13979E-02  5.15321E-02  5.17290E-02
 NY background values follow
     4.527E-02    4.518E-02    4.509E-02    4.499E-02    4.490E-02    4.481E-02    4.472E-02    4.463E-02    4.454E-02    4.445E-02
     4.436E-02    4.426E-02    4.417E-02    4.408E-02    4.399E-02    4.390E-02    4.381E-02    4.372E-02    4.362E-02    4.353E-02
     4.344E-02    4.335E-02    4.326E-02    4.317E-02    4.308E-02    4.299E-02    4.289E-02    4.280E-02    4.271E-02    4.262E-02
     4.253E-02    4.244E-02    4.234E-02    4.225E-02    4.216E-02    4.207E-02    4.198E-02    4.189E-02    4.180E-02    4.170E-02
     4.161E-02    4.152E-02    4.143E-02    4.134E-02    4.125E-02    4.115E-02    4.106E-02    4.097E-02    4.088E-02    4.079E-02
     4.070E-02    4.060E-02    4.051E-02    4.042E-02    4.033E-02    4.024E-02    4.014E-02    4.005E-02    3.996E-02    3.987E-02
     3.978E-02    3.969E-02    3.959E-02    3.950E-02    3.941E-02    3.932E-02    3.923E-02    3.913E-02    3.904E-02    3.895E-02
