 
 $NMID
 ID=''
 FMTDAT='(2E13.5)'
 TRAMP=   1.00000E+0
 VOLUME=   1.00000E+0
 $END
  -2.33813E+4   8.21778E+3
  -6.38651E+4   3.37661E+3
  -6.20910E+4   1.45684E+4
  -5.70495E+4   1.34614E+4
  -5.96172E+4   1.21172E+4
  -5.89340E+4   1.48303E+4
  -5.67515E+4   1.36394E+4
  -5.76846E+4   1.25873E+4
  -5.71876E+4   1.41816E+4
  -5.58523E+4   1.34884E+4
  -5.62120E+4   1.27436E+4
  -5.58145E+4   1.39083E+4
  -5.46696E+4   1.35208E+4
  -5.50551E+4   1.28254E+4
  -5.45631E+4   1.35545E+4
  -5.35606E+4   1.32887E+4
  -5.37638E+4   1.28960E+4
  -5.33152E+4   1.34596E+4
  -5.25354E+4   1.33695E+4
  -5.25822E+4   1.30337E+4
  -5.21260E+4   1.34705E+4
  -5.12699E+4   1.35767E+4
  -5.13626E+4   1.33962E+4
  -5.09643E+4   1.35526E+4
  -5.01313E+4   1.35485E+4
  -5.00085E+4   1.35151E+4
  -4.97262E+4   1.36736E+4
  -4.90418E+4   1.34001E+4
  -4.87429E+4   1.32684E+4
  -4.83314E+4   1.34307E+4
  -4.77188E+4   1.34527E+4
  -4.75119E+4   1.34645E+4
  -4.72797E+4   1.35258E+4
  -4.66647E+4   1.33818E+4
  -4.62452E+4   1.34113E+4
  -4.59666E+4   1.35433E+4
  -4.54183E+4   1.36411E+4
  -4.50624E+4   1.35798E+4
  -4.46515E+4   1.38454E+4
  -4.42225E+4   1.38648E+4
  -4.38546E+4   1.38293E+4
  -4.35989E+4   1.36834E+4
  -4.31339E+4   1.35802E+4
  -4.26327E+4   1.35582E+4
  -4.23137E+4   1.36047E+4
  -4.18674E+4   1.35655E+4
  -4.15351E+4   1.34597E+4
  -4.11557E+4   1.35121E+4
  -4.07356E+4   1.35459E+4
  -4.03637E+4   1.34115E+4
  -3.99789E+4   1.34560E+4
  -3.95832E+4   1.33527E+4
  -3.90809E+4   1.33944E+4
  -3.86988E+4   1.34686E+4
  -3.83085E+4   1.34691E+4
  -3.79939E+4   1.33728E+4
  -3.76488E+4   1.34252E+4
  -3.72590E+4   1.33899E+4
  -3.68848E+4   1.32778E+4
  -3.64855E+4   1.31555E+4
  -3.60543E+4   1.31246E+4
  -3.56959E+4   1.31057E+4
  -3.53114E+4   1.31053E+4
  -3.50724E+4   1.29957E+4
  -3.46384E+4   1.28157E+4
  -3.43058E+4   1.29170E+4
  -3.39479E+4   1.28411E+4
  -3.36054E+4   1.26960E+4
  -3.32014E+4   1.26323E+4
  -3.28616E+4   1.25811E+4
  -3.24874E+4   1.24945E+4
  -3.22169E+4   1.24712E+4
  -3.18019E+4   1.23215E+4
  -3.14679E+4   1.23019E+4
  -3.10785E+4   1.22747E+4
  -3.07599E+4   1.22656E+4
  -3.04137E+4   1.21621E+4
  -3.00384E+4   1.19880E+4
  -2.97231E+4   1.19704E+4
  -2.94480E+4   1.19291E+4
  -2.90622E+4   1.18972E+4
  -2.87920E+4   1.18105E+4
  -2.84980E+4   1.16855E+4
  -2.81547E+4   1.16706E+4
  -2.79444E+4   1.15265E+4
  -2.76534E+4   1.14366E+4
  -2.73314E+4   1.12511E+4
  -2.70488E+4   1.11680E+4
  -2.67296E+4   1.10913E+4
  -2.65031E+4   1.10195E+4
  -2.61456E+4   1.08871E+4
  -2.58964E+4   1.08191E+4
  -2.56256E+4   1.07360E+4
  -2.53735E+4   1.07267E+4
  -2.50517E+4   1.05952E+4
  -2.47497E+4   1.05447E+4
  -2.44497E+4   1.04149E+4
  -2.42622E+4   1.04645E+4
  -2.39682E+4   1.02851E+4
  -2.37447E+4   1.01419E+4
  -2.34426E+4   1.01467E+4
  -2.31708E+4   9.97870E+3
  -2.29347E+4   9.95264E+3
  -2.27047E+4   9.88638E+3
  -2.25550E+4   9.75535E+3
  -2.22853E+4   9.70127E+3
  -2.20207E+4   9.64685E+3
  -2.17469E+4   9.49534E+3
  -2.15521E+4   9.43027E+3
  -2.13107E+4   9.31556E+3
  -2.10518E+4   9.21607E+3
  -2.08303E+4   9.24756E+3
  -2.06001E+4   9.14109E+3
  -2.03710E+4   9.06208E+3
  -2.01051E+4   8.92006E+3
  -2.00336E+4   8.87634E+3
  -1.96663E+4   8.72235E+3
  -1.95707E+4   8.64521E+3
  -1.93493E+4   8.55571E+3
  -1.91040E+4   8.46479E+3
  -1.88720E+4   8.47863E+3
  -1.87657E+4   8.35224E+3
  -1.85159E+4   8.22297E+3
  -1.82776E+4   8.13177E+3
  -1.81276E+4   8.11125E+3
  -1.79701E+4   8.05167E+3
  -1.78274E+4   7.97346E+3
  -1.75356E+4   7.88472E+3
  -1.73922E+4   7.81810E+3
  -1.72271E+4   7.77067E+3
  -1.70904E+4   7.69641E+3
  -1.69194E+4   7.57897E+3
  -1.67662E+4   7.53858E+3
  -1.66144E+4   7.41240E+3
  -1.64566E+4   7.46994E+3
  -1.62535E+4   7.40265E+3
  -1.61009E+4   7.30390E+3
  -1.60029E+4   7.21051E+3
  -1.57327E+4   7.15918E+3
  -1.56079E+4   7.12930E+3
  -1.54738E+4   7.08512E+3
  -1.53256E+4   6.94011E+3
  -1.51854E+4   6.95665E+3
  -1.51284E+4   6.91634E+3
  -1.49773E+4   6.78810E+3
  -1.48327E+4   6.71952E+3
  -1.47122E+4   6.67070E+3
  -1.45670E+4   6.66551E+3
  -1.44324E+4   6.58727E+3
  -1.42325E+4   6.49624E+3
  -1.41456E+4   6.37356E+3
  -1.40781E+4   6.34250E+3
  -1.38543E+4   6.31554E+3
  -1.37291E+4   6.24155E+3
  -1.35178E+4   6.23736E+3
  -1.34516E+4   6.11603E+3
  -1.33174E+4   6.11564E+3
  -1.32814E+4   6.07105E+3
  -1.30364E+4   5.95139E+3
  -1.29631E+4   5.94338E+3
  -1.27774E+4   5.85628E+3
  -1.26615E+4   5.76608E+3
  -1.25875E+4   5.73291E+3
  -1.24410E+4   5.67319E+3
  -1.23159E+4   5.56764E+3
  -1.21727E+4   5.56885E+3
  -1.20428E+4   5.51741E+3
  -1.18708E+4   5.43332E+3
  -1.17565E+4   5.39025E+3
  -1.16338E+4   5.42419E+3
  -1.15016E+4   5.28993E+3
  -1.14209E+4   5.32871E+3
  -1.13175E+4   5.19725E+3
  -1.11411E+4   5.12540E+3
  -1.10073E+4   5.10514E+3
  -1.09289E+4   5.05196E+3
  -1.07246E+4   5.03124E+3
  -1.05772E+4   4.95363E+3
  -1.04996E+4   4.89942E+3
  -1.04304E+4   4.93046E+3
  -1.03118E+4   4.78789E+3
  -1.02153E+4   4.73518E+3
  -1.00083E+4   4.74969E+3
  -9.95860E+3   4.67757E+3
  -9.77130E+3   4.64748E+3
  -9.70412E+3   4.57903E+3
  -9.56935E+3   4.53877E+3
  -9.49773E+3   4.49315E+3
  -9.40353E+3   4.44759E+3
  -9.21846E+3   4.37355E+3
  -9.11245E+3   4.36353E+3
  -9.01481E+3   4.31626E+3
  -8.91709E+3   4.25592E+3
  -8.81720E+3   4.18571E+3
  -8.74921E+3   4.18281E+3
  -8.64071E+3   4.20137E+3
  -8.51654E+3   4.12161E+3
  -8.46379E+3   4.12247E+3
  -8.31995E+3   4.04234E+3
  -8.19178E+3   4.03483E+3
  -8.14269E+3   3.93101E+3
  -8.09269E+3   3.87810E+3
  -7.90050E+3   3.89963E+3
  -7.78984E+3   3.83355E+3
  -7.70714E+3   3.78468E+3
  -7.64607E+3   3.76213E+3
  -7.56148E+3   3.78029E+3
  -7.45680E+3   3.65135E+3
  -7.33864E+3   3.57327E+3
  -7.25566E+3   3.66281E+3
  -7.23264E+3   3.65453E+3
  -7.06186E+3   3.49717E+3
  -7.00534E+3   3.46252E+3
  -6.91515E+3   3.47774E+3
  -6.82397E+3   3.47581E+3
  -6.82905E+3   3.44896E+3
  -6.74075E+3   3.35670E+3
  -6.63498E+3   3.40345E+3
  -6.49551E+3   3.32213E+3
  -6.45168E+3   3.30873E+3
  -6.37174E+3   3.26431E+3
  -6.25097E+3   3.20747E+3
  -6.15946E+3   3.14867E+3
  -6.14540E+3   3.17197E+3
  -6.07154E+3   3.11847E+3
  -5.92875E+3   3.08991E+3
  -5.85168E+3   2.98026E+3
  -5.82168E+3   3.00230E+3
  -5.73622E+3   3.05620E+3
  -5.67222E+3   2.97466E+3
  -5.59376E+3   2.89257E+3
  -5.51827E+3   2.86096E+3
  -5.45491E+3   2.84111E+3
  -5.35413E+3   2.84929E+3
  -5.31470E+3   2.71103E+3
  -5.16791E+3   2.75735E+3
  -5.17793E+3   2.74809E+3
  -5.02808E+3   2.70951E+3
  -4.98398E+3   2.63982E+3
  -4.94389E+3   2.60670E+3
  -4.86952E+3   2.57264E+3
  -4.77389E+3   2.62508E+3
  -4.69528E+3   2.57857E+3
  -4.60365E+3   2.51499E+3
  -4.54905E+3   2.46490E+3
  -4.54696E+3   2.48443E+3
  -4.43401E+3   2.35928E+3
  -4.38351E+3   2.38887E+3
  -4.35751E+3   2.38953E+3
  -4.25060E+3   2.31363E+3
  -4.15243E+3   2.24796E+3
  -4.23816E+3   2.24073E+3
  -4.05874E+3   2.21650E+3
  -4.04036E+3   2.18594E+3
  -3.98147E+3   2.22047E+3
  -3.95718E+3   2.12517E+3
  -3.89200E+3   2.18651E+3
  -3.82230E+3   2.12599E+3
  -3.77993E+3   2.12682E+3
  -3.76478E+3   2.07103E+3
  -3.63231E+3   2.04594E+3
  -3.64192E+3   1.98394E+3
  -3.53488E+3   1.96758E+3
  -3.45024E+3   1.94097E+3
  -3.52697E+3   1.93113E+3
  -3.45322E+3   1.88444E+3
  -3.37423E+3   1.79824E+3
  -3.39110E+3   1.81088E+3
  -3.29434E+3   1.76956E+3
  -3.22437E+3   1.74555E+3
  -3.19055E+3   1.75361E+3
  -3.11400E+3   1.68447E+3
  -3.13798E+3   1.75144E+3
  -3.04320E+3   1.69665E+3
  -2.96899E+3   1.66353E+3
  -2.95486E+3   1.62223E+3
  -2.90529E+3   1.60040E+3
  -2.91205E+3   1.68365E+3
  -2.87038E+3   1.59614E+3
  -2.83577E+3   1.54272E+3
  -2.75809E+3   1.54474E+3
  -2.75797E+3   1.53346E+3
  -2.77375E+3   1.38382E+3
  -2.66951E+3   1.35970E+3
  -2.59729E+3   1.44669E+3
  -2.57189E+3   1.33197E+3
  -2.61356E+3   1.33993E+3
  -2.56101E+3   1.34849E+3
  -2.51430E+3   1.27552E+3
  -2.48164E+3   1.24527E+3
  -2.43942E+3   1.20242E+3
  -2.40132E+3   1.17654E+3
  -2.38132E+3   1.18444E+3
  -2.27609E+3   1.13685E+3
  -2.30175E+3   1.10705E+3
  -2.31829E+3   1.12787E+3
  -2.30416E+3   1.18905E+3
  -2.23349E+3   1.02238E+3
  -2.19397E+3   1.02624E+3
  -2.10904E+3   9.85815E+2
  -2.09221E+3   9.14629E+2
  -2.05346E+3   1.00102E+3
  -2.08341E+3   9.24935E+2
  -2.11534E+3   9.22733E+2
  -2.00832E+3   8.69659E+2
  -1.96795E+3   8.17005E+2
  -1.97763E+3   8.53791E+2
  -1.84578E+3   8.44948E+2
  -1.89598E+3   8.63291E+2
  -1.87517E+3   7.75969E+2
  -1.77771E+3   7.55005E+2
  -1.89667E+3   7.63054E+2
  -1.73321E+3   6.83502E+2
  -1.77287E+3   6.77447E+2
  -1.74267E+3   6.86965E+2
  -1.67097E+3   6.70467E+2
  -1.70507E+3   6.50835E+2
  -1.62949E+3   6.27389E+2
  -1.70307E+3   5.68937E+2
  -1.68123E+3   5.50168E+2
  -1.63740E+3   4.69764E+2
  -1.56892E+3   4.37755E+2
  -1.62523E+3   5.54685E+2
  -1.63702E+3   4.41607E+2
  -1.56858E+3   4.57674E+2
  -1.55269E+3   4.01849E+2
  -1.49536E+3   3.98063E+2
  -1.48919E+3   4.56901E+2
  -1.45048E+3   3.90694E+2
  -1.39983E+3   3.91688E+2
  -1.41962E+3   3.03917E+2
  -1.41103E+3   3.53309E+2
  -1.40209E+3   2.92601E+2
  -1.43204E+3   2.11632E+2
  -1.41090E+3   1.89806E+2
  -1.35643E+3   2.67500E+2
  -1.37147E+3   1.02402E+2
  -1.36569E+3   1.85494E+2
  -1.34496E+3   2.12193E+2
  -1.35095E+3   1.89322E+2
  -1.32439E+3   1.30261E+2
  -1.24452E+3   8.81784E+1
  -1.30211E+3   1.26378E+2
  -1.27653E+3   1.20496E+2
  -1.25016E+3   4.13044E+1
  -1.29366E+3   6.14729E+1
  -1.20000E+3   2.81477E+1
  -1.18057E+3   4.77035E+1
  -1.17251E+3   2.19238E+1
  -1.12959E+3  -2.31159E+1
  -1.12338E+3  -4.97250E+1
  -1.14319E+3  -5.90588E+1
  -1.13646E+3  -8.32438E+1
  -1.14120E+3  -3.25959E+1
  -1.13299E+3  -4.70504E+1
  -1.14478E+3  -1.15042E+2
  -1.07418E+3  -5.92870E+1
  -1.10396E+3  -3.17152E+1
  -1.07642E+3  -9.13473E+1
  -1.03643E+3  -1.45008E+2
  -1.10770E+3  -1.88317E+2
  -1.07534E+3  -1.45964E+2
  -1.06595E+3  -1.92772E+2
  -1.08445E+3  -2.28270E+2
  -1.08016E+3  -2.29832E+2
  -1.02952E+3  -2.34243E+2
  -1.02751E+3  -2.47888E+2
