 
 $NMID
 ID=''
 FMTDAT='(2E13.5)'
 TRAMP=   1.00000E+0
 VOLUME=   1.00000E+0
 $END
   4.76061E+2  -3.20204E+2
  -1.64447E+2   1.58285E+3
   3.17726E+3  -1.36215E+3
   1.17600E+3   3.24020E+2
  -7.81444E+2  -1.93825E+3
  -6.77355E+2  -1.54064E+3
  -3.38127E+3  -1.15975E+2
  -1.91774E+3  -1.46848E+2
  -2.39418E+2  -1.88214E+2
   1.52176E+3   1.68166E+3
   7.49532E+2   3.16268E+3
   2.87677E+3   1.64326E+3
   1.66057E+3   2.69570E+3
  -1.14981E+3   2.55448E+3
   6.95085E+2  -4.80303E+2
   1.15644E+3  -2.91592E+3
   2.03649E+3  -4.86709E+3
   2.46183E+3   1.68038E+3
   3.30637E+3   1.13896E+3
  -1.34471E+3  -1.12983E+3
   1.45051E+3  -2.52786E+3
  -9.08709E+2   1.21602E+3
  -5.11304E+3   1.03629E+3
  -3.29830E+3  -4.16505E+3
   2.30385E+1  -1.48892E+3
  -2.33983E+3  -2.59133E+1
  -8.63183E+2   1.93941E+3
  -2.32783E+3   8.92035E+2
  -1.30438E+3  -2.36576E+3
   6.89990E+2  -7.45988E+2
   5.84103E+3   3.92949E+3
  -4.62195E+3   4.64090E+3
  -4.74833E+3  -1.76054E+2
  -2.33537E+3  -1.40357E+3
  -2.39939E+2   5.23476E+2
  -9.98386E+2  -2.47366E+3
   2.94109E+3  -3.55223E+3
   3.45905E+3  -7.05807E+2
  -7.20967E+2  -2.30684E+2
   3.98019E+3   7.97769E+2
   4.76583E+2  -8.65535E+2
  -1.82352E+3  -3.84149E+2
  -1.02617E+3  -4.42527E+3
   2.71952E+3  -3.08384E+3
   2.63295E+3  -1.76606E+3
  -2.26727E+3   2.11296E+2
   1.00730E+3  -1.26432E+2
  -1.48555E+3   2.33961E+3
  -7.93811E+1   3.53885E+3
  -7.33450E+2   2.20160E+3
  -1.07139E+3   6.48209E+2
   7.09317E+2  -2.59720E+3
   1.77605E+3  -1.55629E+3
   3.44864E+3   7.15402E+1
   1.31366E+3   1.36609E+3
  -2.90864E+2   2.68385E+3
  -1.80842E+3   1.15229E+3
  -1.62714E+3   1.37975E+3
  -1.32114E+3   4.22938E+2
   4.12759E+2  -1.64382E+3
   9.39406E+2   2.08960E+3
   1.68920E+3   2.57338E+3
  -8.70069E+2   1.88641E+3
   2.05113E+2   1.51442E+3
   3.04341E+1   9.29853E+2
   1.13210E+3   1.20701E+3
   7.79571E+1   3.92506E+3
  -1.68566E+3   1.48689E+3
   2.99858E+3   4.49301E+2
  -8.44802E+2  -4.16675E+2
  -1.73586E+3   9.44483E+2
   6.99277E+2   1.01624E+3
  -1.40651E+3  -5.23425E+2
   2.46683E+2   1.85988E+2
   5.03036E+2  -1.86600E+2
  -1.78972E+2   1.60671E+2
  -9.96584E+0  -1.04299E+3
   1.56816E+3  -1.11440E+3
   2.60885E+3  -9.11166E+2
   9.49335E+2  -7.86691E+2
  -1.92077E+3   5.65472E+2
   2.76468E+2  -1.28914E+3
   8.59874E+2  -7.90019E+2
   1.12093E+3  -5.80832E+2
  -6.96093E+2  -1.71345E+2
  -1.54789E+3  -4.82392E+2
   1.40309E+3  -2.90579E+2
   7.15989E+2   7.89220E+2
   9.58918E+2   1.88789E+3
  -2.15224E+2   4.45045E+2
  -2.39238E+3   6.57989E+2
  -2.08554E+2  -1.17551E+3
  -2.37098E+3   3.87733E+2
  -2.08692E+3  -2.36675E+3
   8.32622E+2  -1.21508E+3
   1.84586E+3  -8.85159E+2
   6.87346E+2  -4.29917E+2
  -1.01973E+3  -9.11132E+2
  -8.83325E+1   3.00236E+2
   1.12522E+2  -3.66712E+2
   3.06393E+2   3.03021E+2
   1.59958E+2   5.48607E+2
  -1.30481E+2   1.06693E+3
  -1.30061E+3  -2.05661E+2
   8.84735E+2  -1.85326E+3
   1.47912E+3   1.27683E+3
  -1.73521E+2  -1.20221E+3
  -1.11547E+3  -4.56090E+2
   1.30674E+3   2.57379E+1
   2.88529E+3  -7.64423E+1
  -1.13985E+3   2.16043E+3
  -2.89869E+3  -1.12255E+3
  -2.43717E+3  -1.34276E+3
   1.30400E+3  -1.38227E+2
  -8.81322E+1  -1.26714E+3
  -1.64312E+2   1.21602E+2
  -1.42662E+3  -1.08278E+3
  -5.74105E+2   5.46891E+2
   1.32838E+3  -2.99204E+1
   1.23025E+3  -2.00784E+2
   1.48070E+3  -5.80087E+2
   2.30729E+2   4.71608E+2
   4.80169E+2  -1.50202E+3
  -8.11775E+1  -1.88938E+3
   2.19342E+3  -4.45848E+1
   1.05638E+3   1.26663E+2
   8.17722E+2  -1.12819E+3
  -1.93620E+3   3.07092E+2
   7.33927E+1  -2.25398E+2
  -2.61994E+2   6.75680E+1
  -7.44972E+2   1.61123E+3
  -2.62990E+3   9.39293E+2
  -1.48021E+3  -5.64186E+2
  -2.06265E+2  -8.68092E+2
  -1.58473E+3  -4.83436E+2
   1.12359E+1  -2.27014E+2
   6.87308E+2  -7.11957E+2
   3.26264E+2  -1.62547E+3
  -4.73315E+1  -2.08922E+3
  -7.30982E+2  -2.26826E+2
  -7.95821E+2  -3.45631E+1
   8.94858E+1   4.62880E+2
   9.21107E+2   1.52563E+3
   6.23758E+1  -1.28957E+3
   3.04453E+2   2.05403E+3
   2.27382E+2   1.81501E+1
  -5.80435E+2  -1.68855E+3
  -2.85856E+2  -3.47592E+2
  -8.58620E+2  -1.84510E+3
   2.96680E+2  -9.50846E+2
   7.20679E+2   1.25128E+3
  -1.08610E+3   6.75361E+2
   1.71210E+1  -4.82282E+2
   4.87782E+2   5.24963E+2
   6.14228E+2   4.67306E+2
  -4.46229E+2  -5.63348E+2
  -1.02756E+3  -1.90455E+2
   2.86863E+1  -1.58060E+3
  -1.35829E+2  -4.10403E+2
  -6.04696E+2   7.67513E+2
  -2.97352E+3   1.77998E+3
   4.36983E+2   7.13224E+2
   5.16892E+2  -4.81383E+2
  -6.46494E+2  -1.60219E+2
   3.06961E+2  -4.50709E+2
   1.94982E+2   1.05163E+3
   8.57486E+2   3.00299E+2
  -3.91913E+2   1.46889E+3
   1.26975E+3  -1.29711E+2
   1.03748E+3   8.60028E+2
   7.81370E+2  -1.38588E+3
   4.77671E+2  -4.09191E+2
   8.92758E+1  -8.08738E+2
   1.48077E+3   4.93581E+2
  -3.52296E+2   4.33073E+2
   1.90601E+3   1.90460E+3
  -8.29273E+2  -5.69562E+2
   1.94974E+3   2.77785E+2
   7.70554E+2  -4.66139E+2
   2.13593E+3   1.77303E+3
   4.81536E+2  -3.31570E+2
   2.51734E+2   2.91963E+2
   7.82968E+2  -7.36410E+1
   1.29662E+3  -3.43667E+2
   9.85951E+2   7.30520E+2
   1.06233E+3  -2.78206E+2
   9.88231E+2   1.66021E+3
   1.47934E+3  -1.79337E+3
   1.24970E+3   2.09492E+3
   7.63316E+2  -1.79656E+3
   6.03966E+2   3.37590E+2
   5.47522E+2  -4.55296E+2
  -1.66236E+2   6.25251E+2
   1.44488E+3  -1.08052E+2
  -1.40920E+3   1.46229E+3
  -1.14996E+2   2.28185E+3
  -8.43020E+2   3.13824E+2
   1.67096E+3   1.73822E+3
   8.17334E+2   8.43649E+2
   2.04566E+3  -6.29016E+2
   2.94973E+3   6.30762E+2
   1.72236E+3   1.35695E+3
  -5.36626E+2   1.15187E+3
   1.11039E+3   4.46036E+2
   2.30386E+3   1.44377E+3
   2.41750E+3   4.04636E+2
   8.92113E+2  -5.14509E+1
   2.38768E+3   8.91747E+2
   1.16383E+3  -1.25808E+3
   8.46757E+2   3.05726E+2
  -4.66699E+2  -1.89387E+3
   1.24271E+3   2.85850E+3
  -1.39061E+3   4.24103E+2
  -5.59053E+2   1.29900E+3
   1.02378E+3   1.38271E+1
  -2.69275E+2   2.91647E+2
  -6.24127E+1  -7.56417E+2
   1.51683E+3  -1.05255E+3
  -2.46038E+3   1.42116E+3
  -5.98980E+2   7.59401E+2
   1.34024E+3  -8.41350E+2
  -9.79096E+2  -4.50907E+2
  -2.95235E+2  -1.61585E+2
  -4.89970E+1  -3.94413E+2
  -5.05634E+2   1.44362E+3
   1.27383E+3  -6.02101E+2
  -5.21174E+2   1.37039E+3
   1.28705E+3  -4.55598E+2
   3.94997E+2   3.20334E+2
  -6.21924E+1  -7.45259E+2
   1.60576E+2   6.57391E+2
  -8.52057E+2   1.61697E+3
  -1.69190E+3   2.06757E+2
  -2.50985E+2   3.08465E+2
   1.77883E+2  -1.78787E+3
   7.42747E+2  -1.65863E+2
   1.66258E+3   6.15259E+1
  -2.02415E+3  -8.12252E+2
   6.79040E+2   9.83508E+2
   9.61673E+2  -1.00422E+3
   1.37045E+3  -1.55706E+3
   6.29741E+2  -2.80652E+0
  -2.02744E+3   9.43678E+2
   2.17478E+3  -7.51764E+1
   6.62333E+2  -1.12734E+3
  -1.37932E+3  -8.40844E+2
  -8.12224E+1   1.57738E+2
  -6.01989E+2   1.07918E+3
   3.53594E+2  -1.49233E+3
   7.71266E+2   9.51147E+2
  -3.83920E+2  -1.47056E+3
  -2.38203E+2   1.60645E+3
   4.59007E+2  -6.43530E+2
   1.11315E+2  -9.21382E+2
  -2.71306E+2  -1.14184E+3
   4.46592E+2  -5.71342E+1
   4.73069E+0  -5.42650E+2
   5.93881E+2   1.23563E+2
  -2.36199E+2  -5.68138E+2
   7.56103E+2   4.14392E+2
  -3.22365E+1  -3.84611E+2
   2.61546E+2   1.19009E+3
  -3.49276E+2   1.18659E+3
   3.55275E+2   6.84763E+1
  -6.36911E+2  -2.69607E+2
   1.48012E+3   1.40750E+2
   1.65500E+3   8.46170E+2
   4.46682E+2   1.22643E+2
  -2.22957E+3  -1.75692E+3
  -2.23033E+3  -1.06092E+2
  -1.40640E+2  -5.15289E+2
  -1.73258E+2  -7.37850E+2
  -6.32749E+2   1.42445E+2
  -1.55667E+3   4.05804E+2
  -1.50767E+3   6.27210E+2
   4.82372E+2   1.63383E+2
  -9.71153E+2  -5.84993E+2
   1.24734E+3   4.96573E+2
  -2.21206E+3   2.41222E+3
  -1.46682E+3  -3.04071E+3
  -6.75616E+2  -5.20875E+2
  -3.55277E+1   5.47799E+2
   1.39645E+1   1.48603E+3
   1.23028E+2  -3.68900E+2
   3.82830E+2  -3.19975E+1
  -7.72691E+2   7.74716E+2
   7.00734E+2  -5.61770E+2
   8.42751E+2   1.68765E+3
   7.30965E+2  -1.17047E+3
  -4.21893E+2  -1.37242E+3
  -7.24968E+2   5.26903E+2
   7.25949E+2  -4.43560E+2
  -1.88202E+3  -8.65801E+2
  -1.08633E+3   2.98055E+3
  -1.04013E+3   3.21475E+2
  -1.37447E+3   1.41804E+3
   1.45172E+3   4.97663E+2
  -3.28329E+2  -6.53598E+2
  -1.89958E+3  -1.14860E+3
   6.91643E+2   4.87583E+2
  -1.42364E+3  -1.50037E+3
   3.00302E+1  -1.34509E+2
   9.01065E+2   8.96898E+1
   1.03742E+3   3.59433E+2
  -1.20889E+3  -3.80632E+2
  -8.37702E+2   2.95541E+2
  -6.17551E+2  -1.83831E+3
  -7.86480E+2   8.42066E+1
   1.21468E+3   1.28776E+3
  -6.81762E+2  -3.64023E+2
   1.81860E+3   3.19330E+3
  -6.56783E+2  -1.56270E+2
  -5.32903E+2   8.60635E+2
  -1.73453E+3  -6.51753E+2
  -9.00008E+2   2.22006E+2
   1.69685E+3   2.81021E+1
  -1.04784E+3   2.03855E+3
  -9.98687E+2  -1.06949E+3
  -3.61720E+2   7.06697E+2
   1.25701E+3   6.08577E+2
  -1.14516E+3   1.14753E+3
  -2.14018E+3   2.07418E+3
  -3.80039E+2   8.19648E+2
  -8.01912E+2  -7.44827E+2
  -5.52609E+2  -2.92177E+2
  -6.12454E+2  -9.20559E+2
   4.15540E+2  -3.55402E+2
   1.02762E+3   2.66599E+2
   1.14323E+3   1.02151E+3
  -1.85676E+3   9.58934E+1
   1.73988E+0   1.51772E+3
  -1.23928E+2   8.22526E+2
  -1.53641E+3  -1.46844E+3
   1.08062E+3  -1.29031E+2
  -1.59746E+3   9.37299E+2
   4.51331E+1  -3.14340E+2
  -4.10720E+1   5.45442E+2
   5.06318E+2   9.73373E+1
   2.97473E+2   2.55486E+2
   3.00339E+2  -1.71242E+3
   1.12247E+3  -3.94320E+2
   4.92028E+0   1.34172E+3
  -3.08945E+2   6.38128E+2
  -1.15126E+3   1.22336E+2
  -1.23113E+3   1.39617E+3
  -3.73254E+2   9.70627E+2
   5.75560E+2  -1.31831E+3
  -2.12749E+2  -1.41160E+2
   1.05359E+3   1.81321E+3
  -1.63069E+3   1.29985E+3
  -6.88860E+2  -3.94554E+1
  -8.30345E+2   5.60285E+1
  -1.49252E+3   3.55122E+2
  -7.63858E+2   6.31207E+2
   7.47789E+2   7.81864E+2
   5.82864E+2   6.23445E+2
   9.87357E+2   2.75924E+2
  -7.33720E+2   1.07565E+3
  -3.43822E+2   4.12148E+2
  -4.10484E+2  -1.90234E+3
  -1.66594E+3   2.71204E+2
  -4.57671E+2   7.18545E+2
  -1.69063E+3  -8.00983E+2
  -2.71500E+2   1.47636E+3
   4.71190E+2  -2.53132E+2
   5.19549E+2  -1.69776E+3
  -8.08001E+2   1.56061E+3
