 
 $NMID
 ID=''
 FMTDAT='(2E13.5)'
 TRAMP=   1.00000E+0
 VOLUME=   1.00000E+0
 $END
   4.47416E+2  -1.75915E+2
  -2.69654E+2   1.35062E+3
   1.62257E+1  -3.45251E+3
  -1.00280E+3   8.09717E+2
  -1.02534E+3   1.27133E+3
   2.53451E+3   3.30455E+2
   8.28497E+2   1.59162E+3
   1.67339E+2   1.13395E+3
   1.03373E+3  -1.90808E+3
  -2.10972E+2  -2.52551E+3
  -5.52070E+2  -4.74776E+3
   2.95872E+3  -2.45726E+3
  -1.55844E+2   2.79774E+3
  -3.59163E+3   2.02848E+3
  -2.37585E+3  -8.88989E+2
  -1.82313E+3   3.10284E+2
   7.35623E+2  -1.52095E+3
   1.63872E+3   1.31066E+3
  -1.73247E+2   1.50333E+3
  -3.51198E+2  -2.60658E+3
   4.94292E+2  -1.12964E+2
   1.64010E+3   1.09466E+3
  -1.27587E+2   1.95122E+3
  -1.53807E+3  -8.29837E+2
   8.98400E+2  -1.72002E+3
   8.16306E+1  -8.63901E+2
  -1.58250E+3   1.18323E+3
  -2.14014E+3  -2.07258E+3
   1.61246E+3  -4.58886E+3
   3.14684E+3  -2.46293E+3
   3.71634E+3   3.56032E+3
  -2.12291E+3   5.26899E+3
  -4.00949E+3  -9.97561E+2
  -2.54932E+2  -1.74705E+3
  -2.55036E+3  -6.95785E+2
   4.86816E+2  -3.62759E+3
   3.97082E+3  -5.08271E+3
   5.42989E+3   1.04619E+3
  -5.68619E+2   2.51694E+3
   2.83373E+2   6.70088E+2
  -1.04378E+3   2.08237E+3
  -5.76194E+3  -8.93457E+2
  -1.36774E+3  -5.14592E+3
   2.47024E+3  -4.31572E+3
   2.98965E+3   2.58804E+1
   5.51636E+2   1.15214E+3
   1.18647E+3   2.30573E+3
   5.73450E+2   2.50169E+3
  -4.06153E+3   2.49928E+3
  -1.50291E+3   2.44540E+3
  -7.94028E+2  -1.15488E+3
  -1.28723E+3  -1.66774E+3
   2.35731E+3  -1.37946E+2
   1.81244E+3   3.59729E+3
  -4.53874E+2   4.00954E+3
  -3.75821E+3   1.65567E+3
  -4.14710E+3   6.50499E+2
  -3.84502E+3  -1.50426E+3
  -1.34345E+3  -3.34006E+3
   6.15334E+2  -1.52975E+3
   4.67101E+3   3.59305E+2
   3.28171E+3   2.31310E+2
  -1.18284E+3   3.64887E+2
  -3.49917E+3  -4.28802E+2
  -9.12006E+2  -4.78883E+2
   7.73910E+0   1.49337E+3
  -3.60474E+3   9.15478E+1
  -2.98770E+3  -1.19897E+2
  -1.77050E+3  -2.76632E+2
  -9.62693E+2   5.89398E+2
  -1.53596E+3   2.84625E+1
  -1.98687E+3   1.86926E+3
  -4.72788E+2  -1.09030E+3
   2.27328E+3  -2.13362E+3
   2.48962E+3   5.60040E+2
  -1.57562E+3  -3.54431E+2
  -1.21362E+3  -1.24524E+2
   2.88368E+3  -1.56883E+3
   3.58871E+3  -1.40370E+1
   2.48685E+2   2.07217E+3
   3.99871E+2   7.40319E+2
   3.44097E+2   6.37439E+2
  -2.56407E+2   1.55496E+3
  -2.12407E+3   1.03561E+3
  -2.74631E+3   2.33482E+3
  -1.01554E+3  -6.23543E+2
  -1.42281E+3  -1.74860E+3
   2.11389E+3  -9.96196E+2
   2.25274E+3   1.52425E+3
   1.58341E+3   3.70835E+3
  -6.32629E+2  -1.64934E+2
  -9.17151E+2   3.22339E+2
  -1.09224E+3   3.95605E+3
  -2.43683E+3   6.27420E+2
  -3.74350E+3   1.50739E+3
   2.27253E+3  -1.45003E+3
   1.04854E+3   1.62481E+3
  -1.19453E+3   2.06894E+3
  -2.21880E+3   1.08548E+3
   2.64721E+2  -1.62542E+3
   3.00716E+3  -1.47681E+3
   3.99373E+3   1.01011E+3
   2.68534E+2   1.81765E+3
  -1.08830E+3   7.82052E+2
  -1.81659E+3  -8.47104E+2
  -1.06816E+3  -1.19727E+3
  -4.58829E+1  -2.12204E+3
  -1.51879E+3  -1.64937E+3
  -1.16988E+2  -4.05979E+3
   2.89872E+3   3.52057E+2
   3.55161E+3   6.96500E+2
   9.68152E+2   1.01393E+3
  -2.24536E+3   2.58782E+3
  -1.34761E+3   1.15027E+3
  -1.47637E+3   1.01623E+3
  -7.25699E+2  -1.39511E+3
   1.30759E+3  -1.50075E+3
   2.35356E+3   1.37299E+3
   2.11042E+3   6.65266E+2
   1.18990E+3   2.56210E+2
   1.39735E+3   1.03687E+3
   6.11139E+2   9.58579E+2
   4.35809E+2  -3.54143E+2
   1.60853E+3   1.11931E+3
   9.24167E+2   8.52543E+2
   1.86616E+3   1.17781E+3
   9.08082E+2   1.23959E+3
   1.58751E+3   5.32259E+2
  -9.50657E+2   6.40889E+2
  -6.29439E+2   4.40098E+1
  -1.06579E+3  -1.43777E+3
   3.21782E+3  -2.29007E+3
   5.32255E+2   2.34632E+3
   1.55197E+3   5.95956E+2
  -5.39594E+2   9.55383E+2
  -2.32869E+2  -6.92486E+2
   1.43640E+3   8.14132E+2
   5.67474E+2  -3.23114E+1
   2.70225E+3   6.53131E+2
  -3.74039E+2  -3.08768E+2
   1.49288E+3   9.83326E+2
   8.59974E+2   2.39113E+3
  -4.32661E+2   2.71231E+3
   1.06558E+3   1.80497E+3
  -4.82165E+2   2.52034E+2
  -1.48586E+3   8.84685E+2
  -1.41890E+2   2.45681E+3
  -8.03829E+2  -4.94528E+2
  -1.78376E+3   2.49180E+1
  -1.38663E+3  -1.05515E+3
  -7.95601E+2  -5.59873E+2
   7.96539E+2  -8.53794E+2
   3.60815E+2  -7.68430E+2
  -6.56972E+1   2.45991E+2
  -1.20679E+3  -7.39072E+0
  -8.17092E+1   9.78710E+1
   2.90300E+3  -8.95311E+2
  -4.91183E+2  -1.11611E+3
   7.74683E+2  -5.05256E+2
  -6.14596E+2   1.13848E+3
  -8.68620E+2   1.60281E+3
   6.58923E+0  -4.45451E+2
   7.72778E+2  -1.15510E+3
  -2.34840E+2  -1.12510E+3
  -3.24418E+2   3.68067E+2
  -1.13642E+3  -1.12737E+3
   9.02112E+1  -1.09790E+3
  -5.98901E+2   1.75782E+2
  -3.54421E+2   9.75906E+2
  -1.81908E+3   5.40710E+2
   3.83007E+2  -2.48764E+3
   2.09959E+2   2.08424E+2
  -7.38453E+2   2.44672E+2
  -2.38937E+2  -1.74503E+3
   1.28334E+3   8.79190E+2
  -2.91436E+2   8.49081E+2
   8.37174E+2   8.39352E+2
   1.16419E+3   9.20427E+2
   5.35768E+2  -9.10559E+2
  -2.22998E+3  -2.80918E+3
   1.77281E+3   1.54870E+2
   1.60568E+2  -2.20741E+1
   1.05389E+3   2.51572E+3
  -1.06777E+2  -4.12143E+2
   4.62750E+2   6.97406E+2
  -1.73815E+3   3.38802E+1
  -1.31942E+3   1.02321E+3
  -8.88953E+2  -1.50656E+3
  -4.35975E+2  -2.13370E+3
   2.83076E+3   8.89600E+2
   1.06354E+3   1.56316E+3
   1.76527E+3  -1.52004E+3
   2.31912E+3  -1.15150E+2
  -2.96858E+2   1.28698E+3
   2.66262E+3   1.02887E+2
   1.68093E+3   1.08754E+3
   1.89570E+3   4.94710E+2
  -8.72800E+2  -1.09505E+3
  -7.87564E+2   2.00975E+3
  -4.87079E+2   7.56207E+2
  -1.03291E+3  -3.22326E+2
  -3.51044E+2  -3.45111E+3
  -7.39835E+2  -1.49476E+3
   4.79795E+2  -7.34956E+2
   7.52526E+2  -5.47283E+2
   9.60287E+2  -1.01464E+3
   1.37479E+2  -3.67748E+2
   9.42201E+2   1.08362E+3
  -4.89641E+2   1.07042E+3
   7.32808E+2   5.18865E+1
  -2.39410E+2  -5.04313E+2
   5.01764E+2   3.59803E+2
   2.01368E+3   1.27483E+3
   4.77919E+1   2.58502E+3
  -2.46413E+2   8.20673E+2
   4.33518E+2   8.20722E+2
   1.13778E+3  -3.07790E+1
  -3.26322E+1   7.27806E+2
   1.16099E+3   3.42198E+2
   9.06634E+2   2.54760E+2
   4.44821E+1   2.41420E+3
  -1.14132E+3   1.90567E+3
  -1.95918E+3  -1.00667E+3
   1.64162E+3  -1.39757E+3
   1.20302E+2   3.31047E+2
  -4.27737E+2   5.05647E+2
   6.63288E+2   1.48009E+3
   1.20169E+3   8.84270E+2
   3.13825E+2   2.59887E+2
  -8.92621E+2   1.94328E+3
   3.75222E+2   1.81626E+3
   2.33948E+2  -1.56434E+3
   1.15407E+3   1.83553E+1
   1.49260E+3  -8.42521E+2
  -3.50335E+2   5.69395E+2
  -3.05406E+3   7.65946E+2
  -2.18422E+3  -4.94302E+2
   4.06321E+2   7.71700E+2
  -1.21876E+3  -1.55070E+3
   1.58330E+3   4.03455E+2
   1.27330E+3   9.99519E+2
   1.96449E+3   1.03260E+3
  -1.68382E+3   1.19136E+3
  -8.38312E+1   5.06760E+2
   1.47881E+3  -6.22350E+2
  -8.85605E+2  -1.47513E+3
  -9.25867E+1   4.02134E+2
  -6.80318E+1   1.12982E+3
   1.01478E+3   7.78291E+2
   4.68388E+2   7.64452E+2
  -7.43622E+2  -7.43954E+2
   2.07487E+3   1.78259E+2
   6.03306E+2  -9.31573E+2
  -1.10683E+3   1.22967E+3
   2.94309E+3   1.12796E+3
  -3.47092E+2  -2.92502E+2
   2.39302E+2   2.11875E+2
   3.22834E+0   1.75899E+3
   5.22464E+2   1.07824E+3
   6.01592E+2  -1.37333E+3
   4.37519E+2   3.23081E+2
   1.05688E+3  -1.15911E+3
  -1.37307E+3  -8.21361E+2
  -2.36280E+3  -2.92147E+2
  -7.78531E+2  -6.76476E+2
   9.97947E+2  -5.40972E+1
  -1.48955E+3   1.15298E+2
  -5.57097E+2  -1.14507E+3
   7.28469E+2   4.50397E+1
  -8.60648E+1   3.66525E+2
   1.61919E+3  -4.47817E+2
  -1.85122E+3   3.51762E+2
  -1.83466E+3   3.47478E+2
  -4.50272E+2  -4.20153E+2
  -8.30056E+2   2.24643E+3
   1.41031E+3   4.61203E+2
   1.22147E+3   2.24507E+3
  -1.41380E+2  -1.56342E+3
   1.90390E+2   3.69115E+2
   8.54978E+2   9.42213E+2
  -7.19767E+1  -1.91746E+3
   7.91959E+2  -1.01529E+3
  -8.90036E+2  -1.36754E+3
  -5.82613E+2  -4.06925E+2
   2.84252E+2   2.49620E+2
  -2.62631E+3   4.82247E+2
  -1.87952E+3   2.79436E+2
  -3.88115E+2  -4.82461E+2
   1.66960E+3   1.59629E+3
  -9.32445E+2   8.16119E+2
   2.95899E+3   6.51935E+2
  -1.94009E+3  -4.77374E+2
   1.49848E+3   4.66596E+2
  -1.01645E+2  -1.16596E+2
  -1.33994E+2  -2.77116E+2
  -1.28174E+3  -2.45873E+3
  -3.16311E+2  -3.36490E+3
   1.81923E+2  -3.82075E+2
   1.07904E+3   1.65780E+3
   2.82382E+2  -4.80245E+2
  -1.35115E+3  -6.86293E+2
  -1.48370E+3  -3.42066E+2
   1.01345E+3   2.11461E+2
   1.69995E+3   4.98771E+2
   9.94321E+2   1.00758E+3
  -3.08267E+2   1.52997E+3
  -9.79861E+2   3.25495E+3
  -3.78949E+2  -1.50136E+3
   8.60730E+2  -8.10916E+2
   5.00356E+1  -1.95917E+3
   8.34133E+2  -4.41211E+2
   1.82468E+3   3.64141E+2
  -7.41563E+2  -8.69589E+1
   9.78855E+2   1.15337E+3
  -3.19999E+2   1.70932E+3
  -7.39156E+2  -7.90431E+1
  -1.91588E+3   7.77834E+2
  -2.71758E+2  -3.75148E+3
  -8.22595E+2  -1.12964E+3
  -1.46113E+3   8.09157E+2
  -2.40159E+2  -1.61246E+3
  -1.90905E+3  -5.72498E+2
   3.84532E+2  -9.36952E+2
  -4.29475E+2  -1.11134E+3
   6.49985E+1   2.81929E+2
  -3.57816E+1   8.89060E+2
  -4.48517E+2   1.25185E+2
  -4.25490E+2   2.48238E+2
   1.61350E+3  -1.58504E+2
  -6.29496E+2   1.97582E+3
  -2.86334E+2   6.29262E+2
  -3.49774E+2  -3.97628E+2
   1.11895E+3   4.39095E+2
  -6.08170E+2  -8.34752E+2
   7.33589E+2  -1.08176E+3
  -9.82156E+1  -7.77866E+2
  -5.57805E+2  -7.32002E+2
  -7.23832E+2   7.15672E+2
  -1.85906E+3  -4.45710E+2
  -9.11382E+2   1.13401E+3
   6.64911E+2  -1.09646E+3
  -5.84441E+2  -9.07956E+2
   7.95084E+2  -1.42737E+2
   8.61626E+2   4.84884E+2
   7.26139E+2   2.74001E+2
   1.66354E+3  -1.97122E+2
  -2.77286E+3  -1.37981E+3
  -2.34134E+2   1.09138E+2
  -4.31205E+2   8.55042E+2
  -5.28131E+1   9.15612E+2
  -2.02073E+3  -6.29146E+2
   8.65672E+2   2.33018E+2
   1.06869E+3  -9.95103E+2
  -9.99398E+2  -6.13161E+2
   2.80388E+3   1.11601E+3
  -1.45462E+3   3.76505E+2
   8.26451E+1  -1.40407E+3
  -3.02240E+2  -1.44370E+3
  -1.71840E+3  -9.97074E+2
   5.77312E+2   6.18350E+2
  -1.88517E+3  -3.12362E+2
  -9.66437E+2  -2.14305E+3
  -5.18753E+2  -5.54893E+2
   2.09841E+3  -1.24999E+3
  -5.87548E+2   5.93432E+2
  -4.83735E+1   3.95267E+2
   9.57929E+2  -6.21687E+2
