 
 $NMID
 ID=''
 FMTDAT='(2E13.5)'
 TRAMP=   1.00000E+0
 VOLUME=   1.00000E+0
 $END
   2.48434E+1  -2.87269E+2
  -2.58910E+2   1.91825E+3
   6.92857E+2  -3.70679E+2
   4.15651E+3   1.28314E+3
   3.68418E+3  -3.57827E+3
  -2.21297E+3  -5.51558E+3
  -4.63833E+3   1.69100E+3
  -2.79434E+3   5.04959E+3
   1.88265E+3   4.40291E+2
   2.19786E+3  -1.58565E+3
   3.76653E+3  -4.14725E+3
   3.55697E+3   1.15911E+3
   2.16121E+3   1.12428E+3
  -1.57053E+3   2.09027E+3
  -2.21647E+3  -4.03922E+3
  -2.55999E+3  -4.86271E+3
   6.70985E+2  -1.65910E+3
  -1.52484E+3   2.14983E+2
  -2.16586E+2   2.96843E+3
  -1.32538E+3  -3.67892E+2
   6.60110E+2  -2.73013E+3
   1.26719E+3   3.89062E+3
  -3.16750E+3   4.72697E+3
  -5.50409E+3  -9.59852E+2
   1.00214E+3  -2.48809E+3
   1.82633E+3   2.84499E+3
  -6.54770E+2   2.83931E+3
  -4.99396E+3  -2.51504E+3
   1.37666E+3  -3.40591E+3
   6.15306E+3  -7.68397E+2
   6.76887E+3   3.58438E+3
  -2.35285E+3   6.63989E+3
  -4.24872E+3  -2.18974E+3
  -7.34608E+2  -3.24723E+3
  -1.38632E+3  -1.65265E+3
  -4.43659E+3  -2.38777E+3
   2.83165E+3  -7.06514E+3
   5.00003E+3  -1.51292E+3
   4.94256E+2   3.22067E+3
   7.10833E+2   1.98372E+3
  -2.05471E+2   4.76050E+3
  -5.98206E+3   2.41543E+2
  -3.82178E+3  -5.71865E+3
   3.62312E+3  -4.05583E+3
   3.11202E+3   6.48601E+2
   5.00448E+2   1.98599E+3
   1.75827E+3   2.06049E+3
   1.88528E+3   2.47277E+3
   8.18843E+2   6.30891E+3
  -1.22673E+3   2.71894E+3
  -2.87522E+3  -1.80299E+2
  -6.52466E+2  -1.54098E+3
   2.48317E+3  -2.38864E+2
   3.58081E+3   2.57729E+3
  -1.28437E+3   1.63592E+3
  -2.52726E+3   2.90812E+3
  -2.85479E+3   2.64914E+3
  -3.98634E+3  -3.57992E+3
  -4.23867E+3  -4.43363E+3
   1.78660E+3  -5.47610E+3
   2.01125E+3  -2.34403E+3
   2.12565E+3   4.55119E+2
   1.03639E+3   1.50416E+3
  -3.68365E+3  -9.62995E+2
   1.22595E+3  -9.87065E+2
   2.71600E+3   7.13245E+2
   4.51247E+2   3.70313E+3
  -2.04813E+3   1.61291E+3
  -2.36767E+3  -7.33264E+2
   3.23646E+3   9.27738E+2
  -2.18920E+3   2.04727E+3
  -3.52618E+3  -7.16114E+2
  -2.02569E+3  -1.06030E+3
  -2.44726E+2  -1.62473E+3
   5.58648E+2  -1.67769E+3
  -1.14088E+3   3.79235E+2
  -1.32759E+3  -4.97953E+2
   1.70213E+3  -3.13973E+3
   9.59849E+2  -2.24267E+3
   2.25251E+3  -1.11598E+3
  -7.95117E+2  -4.40462E+2
  -8.29128E+2  -9.83610E+2
   7.12588E+2  -1.07278E+3
   1.03327E+3   4.48048E+2
  -7.47257E+2   2.87464E+3
  -3.48683E+3  -6.22485E+2
  -1.29825E+3  -3.32341E+3
   1.98913E+3  -4.36163E+3
   2.55308E+3  -1.28749E+3
   2.51261E+3   7.96584E+2
   7.78195E+2   3.40341E+2
   2.25225E+3  -1.51187E+3
   4.26553E+2   3.80667E+3
  -2.91330E+3   8.22392E+2
  -3.99534E+3  -2.57127E+3
  -7.58470E+2  -3.31178E+3
   2.55789E+3  -2.49382E+3
   3.25000E+3   6.73810E+2
  -1.29214E+3   1.41728E+3
  -1.40885E+3  -2.39685E+3
   1.76041E+3  -2.12284E+3
   3.92235E+3  -3.17833E+1
   3.23306E+3   5.21156E+3
   6.28871E+1   3.31293E+3
   6.77069E+2   2.17368E+3
   1.05726E+3  -1.08313E+3
  -1.56965E+3   5.16569E+2
  -1.27653E+3  -1.27374E+3
  -6.73845E+2  -1.57590E+1
   2.54242E+3  -2.20548E+3
   4.48983E+3  -3.02413E+2
   3.46054E+3   1.08757E+3
   3.18255E+3   8.44378E+2
   2.92282E+2   3.80043E+3
  -4.61248E+2   2.92084E+3
  -1.00864E+2   1.54838E+3
  -9.44092E+2  -1.79886E+3
   1.01461E+0  -5.26520E+2
  -1.07755E+2  -3.57713E+2
   1.89040E+3   5.77093E+1
   1.97345E+2   5.00926E+2
   1.44928E+3   7.64616E+1
   2.72009E+2  -2.32966E+3
  -1.78034E+2  -1.60431E+3
   3.20731E+3  -1.65661E+3
   5.78653E+2   8.37751E+2
  -1.06801E+3  -8.23567E+2
   1.30467E+3   1.09652E+3
   1.46951E+2   1.13831E+3
  -1.51062E+3   3.18394E+2
  -9.27234E+2  -1.48203E+3
   1.36837E+3  -1.69212E+3
   2.02952E+3  -6.76468E+2
   2.90327E+3   2.32259E+3
  -1.63743E+3   4.46894E+3
  -3.44126E+3  -7.78026E+2
  -1.37650E+3  -7.93668E+2
  -2.63351E+3  -1.53004E+3
  -1.02518E+3   1.19539E+2
   1.73422E+3  -2.05164E+3
   1.20890E+3   1.77173E+2
   3.88798E+2  -1.20738E+2
   1.91224E+3  -1.74694E+3
  -1.45555E+2   3.61933E+3
  -1.47350E+3   1.29709E+3
  -2.56549E+1  -1.60755E+3
  -1.15785E+3   1.76814E+2
  -1.59391E+3   4.58721E+2
  -1.37807E+2   3.44161E+2
  -7.01759E+2   2.76921E+3
  -8.37259E+2   5.25924E+2
  -2.58986E+3  -8.50261E+2
  -1.24363E+1  -7.46703E+2
   1.02215E+3  -1.89234E+3
   8.35690E+2  -1.24398E+3
   5.38490E+2   3.35619E+3
   8.08105E+2   2.39674E+3
   1.15239E+3   1.60385E+3
  -1.78635E+3  -3.62197E+2
   9.86123E+2   9.64656E+2
   5.48700E+2  -5.07511E+2
  -2.11508E+3  -2.93439E+2
  -1.29165E+3  -5.57999E+2
   2.06684E+3  -5.35918E+2
   6.12498E+2  -4.42974E+2
  -2.62313E+2   1.31229E+3
  -2.11507E+2   6.99048E+2
   2.02012E+3  -3.74746E+3
   2.91685E+3  -4.39453E+1
   4.86936E+2   2.69861E+3
  -2.02103E+2   1.15890E+2
  -3.65661E+2  -1.30483E+3
  -7.71038E+2  -2.26389E+3
   3.03872E+1   7.15900E+2
   7.49525E+2  -2.07261E+3
   1.47147E+3  -2.52073E+3
   1.48078E+3  -1.31429E+3
   3.69465E+3   2.44894E+3
  -1.42453E+1   2.02777E+3
  -2.43438E+3   1.33608E+3
  -7.70507E+2  -1.44922E+3
  -2.33974E+2  -2.29013E+3
   1.22849E+3   5.33407E+2
   1.49319E+3   6.01015E+2
   1.15402E+2  -5.47415E+2
   1.03708E+3   1.05933E+3
   3.86232E+2   1.23649E+3
  -7.66931E+2   5.74518E+2
  -5.48191E+2  -5.88887E+2
   6.24894E+2  -1.09669E+3
   1.45899E+2  -1.76987E+3
   4.79041E+2   1.51735E+3
  -2.58897E+2  -3.77900E+2
  -1.73682E+3   1.23213E+2
   3.31172E+2  -1.93168E+3
  -8.32347E+2   1.28911E+3
  -1.48479E+3  -4.70216E+1
  -2.04666E+3   1.06965E+3
   1.93992E+2  -2.98832E+3
   7.64897E+2   1.22333E+3
  -5.29532E+2   2.97597E+3
  -3.81167E+3  -3.11316E+2
  -2.20426E+3  -2.53361E+3
   7.14118E+1  -4.35172E+1
   9.67737E+2  -1.17105E+3
   5.32540E+2   1.70136E+3
  -4.67126E+2   9.58800E+2
   1.51396E+2  -3.11426E+2
   9.77186E+2   1.06359E+3
  -1.43852E+3   1.17150E+3
  -1.82538E+3   1.46457E+3
  -2.21982E+2   1.87455E+2
   2.03881E+3   6.43965E+1
   2.55987E+3  -7.23218E+2
   1.35411E+3   9.69187E+2
  -1.52537E+3  -8.90656E+1
  -7.14263E+2  -3.79778E+2
  -1.65456E+3  -8.71768E+2
  -2.10223E+2  -1.00837E+3
  -4.44417E+2   9.05801E+2
   2.24802E+3  -1.10655E+3
   1.67947E+3   6.17662E+2
   1.79438E+3   1.04874E+3
  -1.80722E+3  -5.62578E+2
  -9.87524E+2   1.49293E+3
   3.52554E+2   1.70284E+3
   1.71797E+3   2.09922E+3
   1.31179E+3   1.11565E+3
  -1.76258E+2   3.22419E+3
  -2.02117E+3  -3.05707E+2
   8.39793E+2  -7.53863E+2
  -8.26345E+2  -2.08597E+3
  -1.68810E+3  -8.99520E+2
  -3.01827E+2  -1.70516E+3
   1.84068E+3  -2.23579E+3
   3.53869E+3   2.38721E+3
   2.00933E+3   7.69569E+2
  -2.01992E+3   4.56032E+2
  -2.76993E+3  -1.81636E+3
  -2.47979E+2  -2.39474E+3
   8.28001E+2  -6.84096E+2
  -5.19924E+2   3.24164E+3
  -7.56160E+2  -3.70411E+2
  -4.83803E+2   3.44887E+2
   2.36463E+3   2.05024E+1
  -4.70644E+2  -2.78879E+2
   2.81120E+2  -1.55801E+2
  -1.41623E+2   1.30920E+3
   1.96287E+3  -1.15740E+3
   7.58147E+2   1.35178E+3
  -1.12875E+3   1.97738E+3
  -1.10830E+3   1.41810E+3
  -3.72435E+2  -1.83405E+3
  -3.94915E+2  -6.53440E+2
  -1.04655E+3   1.38472E+2
   3.71042E+2  -1.30967E+3
   1.72757E+3  -2.80633E+1
   1.06769E+3   1.57572E+3
  -8.42571E+0   2.04219E+3
  -2.18523E+3   2.70293E+2
  -3.03507E+2  -1.37679E+3
   4.72761E+2  -2.61151E+2
   3.11980E+2  -2.16907E+3
  -5.24477E+2  -3.28976E+1
  -1.61956E+2   1.06288E+3
   9.41260E+2   1.30764E+2
  -5.60761E+2  -3.07589E+2
  -8.14746E+2  -1.42212E+3
  -7.34134E+2  -1.26628E+2
   2.94765E+2  -1.92866E+3
   2.37537E+3  -7.15588E+2
   1.48666E+3  -7.27601E+1
  -3.13984E+2   1.19675E+3
  -6.78922E+2   1.13739E+3
  -1.34062E+3  -2.09543E+3
   1.94738E+2  -1.74386E+3
   4.00958E+2   2.25641E+3
  -5.44372E+2  -4.27813E+2
  -6.36457E+2  -1.12441E+2
   2.02093E+3   2.48158E+2
   1.20515E+3   1.17083E+3
   2.85563E+2   4.35643E+2
  -1.87822E+3  -9.97088E+2
  -2.08182E+3  -1.38483E+3
  -2.05587E+0  -2.16178E+3
  -5.34813E+2  -8.02547E+1
  -2.48271E+3   3.00747E+2
  -7.72941E+2   1.37663E+3
  -5.44540E+2  -2.07115E+3
  -4.36626E+2   6.05309E+2
  -1.42119E+2  -1.12069E+3
   4.70657E+2  -2.98222E+3
   1.02992E+3  -2.17664E+2
  -1.10395E+3   4.53515E+2
   1.17491E+0   3.94005E+2
  -1.33465E+3   5.90499E+1
  -1.01517E+3  -4.51749E+2
   2.58223E+3  -6.85945E+2
  -5.46556E+1   1.30243E+3
  -6.89270E+2   1.56447E+3
  -1.28636E+3  -1.27085E+3
   1.23179E+3  -6.13767E+2
   1.13859E+3   2.03340E+2
   6.76793E+1   1.33749E+3
  -2.05753E+3   5.85181E+2
  -6.17652E+1  -1.80476E+2
   1.94672E+2  -2.53600E+3
   1.24373E+3  -4.07594E+2
  -2.02636E+3   3.99056E+2
  -2.21058E+3  -4.74541E+2
  -1.74695E+3  -1.52919E+3
  -8.21768E+2  -1.05012E+3
  -1.85914E+3   3.41116E+2
  -5.90764E+2   3.76606E+2
   7.05400E+2  -2.56795E+3
  -2.57392E+2   6.83117E+2
  -1.13839E+2   1.87909E+3
  -1.48232E+3   7.94223E+2
  -1.51211E+3  -5.14932E+2
  -9.57389E+2  -1.75327E+3
  -2.42872E+2  -1.29148E+3
  -1.37116E+3   1.91900E+3
  -4.09712E+2   3.32834E+3
   1.71349E+2  -1.90055E+3
   1.07428E+3   2.53749E+2
   2.78613E+2  -5.13897E+2
  -1.47730E+2  -4.11122E+2
  -1.07450E+2   3.56347E+2
  -1.26433E+3  -1.21892E+3
   1.49425E+3  -4.32260E+2
   5.92829E+2   2.98214E+3
   1.25101E+2   2.99685E+2
  -6.32251E+2   6.85901E+2
   7.31980E+0   5.51259E+2
   1.18668E+1   6.48213E+2
   2.84712E+2   7.83658E+2
   1.50087E+2  -5.31000E+2
   6.49169E+2  -1.80762E+3
  -1.17456E+3  -3.26110E+2
   4.58938E+2   1.38654E+2
  -5.38474E+2   3.77938E+2
  -1.52225E+3  -8.84599E+2
   1.18903E+3  -1.85332E+3
   1.14529E+3   1.01113E+2
  -6.62553E+2   8.69216E+2
   1.33345E+3   8.93412E+2
  -6.24838E+2   4.44594E+2
   3.45248E+3   5.02056E+2
   3.68644E+1   8.00377E+1
  -1.51531E+2   1.28352E+2
   2.37583E+2  -5.34027E+1
   6.58119E+2  -4.21247E+2
   1.04200E+3  -3.49710E+2
  -1.31476E+3   1.11222E+3
  -1.57981E+3  -2.00338E+3
   8.92447E+2  -2.02349E+3
   4.47492E+1  -5.54278E+2
  -4.19548E+2   2.08527E+3
   1.91054E+2  -5.35474E+2
  -2.71512E+2  -7.67347E+2
  -5.37581E+2  -9.10223E+2
   3.05990E+2   1.03649E+3
   4.84270E+2   3.05211E+2
   1.18748E+2   4.63225E+1
  -1.61953E+3  -8.10624E+2
  -1.93290E+3  -7.41339E+2
  -5.42051E+2  -8.99692E+1
