 LCModel (Version 6.3-1N) Copyright: S.W. Provencher.          Ref.: Magn. Reson. Med. 30:672-679 (1993).                
 Slice_N1@22_24  02-Jun-2023 14:37:42
 27 lines in following concentration table = NCONC+1
    Conc.  %SD /Cr+PCr  Metabolite                                         
 1.99E-06  24% 2.2E-04 Mac                                                 
    0.000 999%   0.000 Cr                                                  
 7.26E-02  13%   8.000 PCr                                                 
 7.56E-02  18%   8.333 Ins                                                 
    0.131   9%  14.404 NAA                                                 
 9.45E-02  14%  10.420 Tau                                                 
 8.11E-03  56%   0.894 PCho                                                
    0.000 999%   0.000 GPC                                                 
 8.19E-02  17%   9.024 Glu                                                 
 2.49E-02  39%   2.743 Gln                                                 
    0.000 999%   0.000 Ala                                                 
 9.80E-02  20%  10.808 Asc                                                 
 8.79E-03 108%   0.969 Asp                                                 
 7.16E-03  74%   0.790 GABA                                                
 8.05E-03  76%   0.887 Glc                                                 
 5.99E-03  89%   0.660 GSH                                                 
    0.000 999%   0.000 Lac                                                 
 4.54E-03 200%   0.501 NAAG                                                
 2.20E-02  82%   2.429 PE                                                  
 8.11E-03  56%   0.894 GPC+PCho                                            
    0.135   8%  14.905 NAA+NAAG                                            
    0.107  15%  11.767 Glu+Gln                                             
 7.26E-02  13%   8.000 Cr+PCr                                              
    0.135   8%  14.905 NAA+NAAG                                            
 7.26E-02  13%   8.000 Cr+PCr                                              
    0.107  15%  11.767 Glu+Gln                                             
   6 lines in following misc. output table
  FWHM = 0.041 ppm    S/N =   3                                            
  Data shift = 0.058 ppm                                                   
  Ph:  26 deg      -7.7 deg/ppm                                            
  alphaB,S = 3.1E+01,   2.6E+01                                            
   18 spline knots.   Ns = 8(1)                                            
   2 inflections.     1 extrema                                            
  654 points on ppm-axis = NY
      4.000000     3.994181     3.988363     3.982544     3.976726     3.970907     3.965088     3.959270     3.953451     3.947633
      3.941814     3.935995     3.930177     3.924358     3.918540     3.912721     3.906902     3.901084     3.895265     3.889446
      3.883628     3.877809     3.871991     3.866172     3.860353     3.854535     3.848716     3.842898     3.837079     3.831260
      3.825442     3.819623     3.813805     3.807986     3.802167     3.796349     3.790530     3.784712     3.778893     3.773074
      3.767256     3.761437     3.755619     3.749800     3.743981     3.738163     3.732344     3.726526     3.720707     3.714888
      3.709070     3.703251     3.697433     3.691614     3.685795     3.679977     3.674158     3.668339     3.662521     3.656702
      3.650884     3.645065     3.639246     3.633428     3.627609     3.621791     3.615972     3.610153     3.604335     3.598516
      3.592698     3.586879     3.581060     3.575242     3.569423     3.563605     3.557786     3.551967     3.546149     3.540330
      3.534512     3.528693     3.522874     3.517056     3.511237     3.505419     3.499600     3.493781     3.487963     3.482144
      3.476326     3.470507     3.464688     3.458870     3.453051     3.447232     3.441414     3.435595     3.429777     3.423958
      3.418139     3.412321     3.406502     3.400684     3.394865     3.389046     3.383228     3.377409     3.371591     3.365772
      3.359953     3.354135     3.348316     3.342498     3.336679     3.330860     3.325042     3.319223     3.313405     3.307586
      3.301767     3.295949     3.290130     3.284312     3.278493     3.272674     3.266856     3.261037     3.255219     3.249400
      3.243581     3.237763     3.231944     3.226125     3.220307     3.214488     3.208670     3.202851     3.197032     3.191214
      3.185395     3.179577     3.173758     3.167939     3.162121     3.156302     3.150484     3.144665     3.138846     3.133028
      3.127209     3.121391     3.115572     3.109753     3.103935     3.098116     3.092298     3.086479     3.080660     3.074842
      3.069023     3.063205     3.057386     3.051567     3.045749     3.039930     3.034111     3.028293     3.022474     3.016656
      3.010837     3.005018     2.999200     2.993381     2.987563     2.981744     2.975925     2.970107     2.964288     2.958470
      2.952651     2.946832     2.941014     2.935195     2.929377     2.923558     2.917739     2.911921     2.906102     2.900284
      2.894465     2.888646     2.882828     2.877009     2.871191     2.865372     2.859553     2.853735     2.847916     2.842098
      2.836279     2.830460     2.824642     2.818823     2.813004     2.807186     2.801367     2.795549     2.789730     2.783911
      2.778093     2.772274     2.766456     2.760637     2.754818     2.749000     2.743181     2.737363     2.731544     2.725725
      2.719907     2.714088     2.708270     2.702451     2.696632     2.690814     2.684995     2.679177     2.673358     2.667539
      2.661721     2.655902     2.650084     2.644265     2.638446     2.632628     2.626809     2.620991     2.615172     2.609353
      2.603535     2.597716     2.591897     2.586079     2.580260     2.574442     2.568623     2.562804     2.556986     2.551167
      2.545349     2.539530     2.533711     2.527893     2.522074     2.516256     2.510437     2.504618     2.498800     2.492981
      2.487163     2.481344     2.475525     2.469707     2.463888     2.458070     2.452251     2.446432     2.440614     2.434795
      2.428977     2.423158     2.417339     2.411521     2.405702     2.399884     2.394065     2.388246     2.382428     2.376609
      2.370790     2.364972     2.359153     2.353335     2.347516     2.341697     2.335879     2.330060     2.324242     2.318423
      2.312604     2.306786     2.300967     2.295149     2.289330     2.283511     2.277693     2.271874     2.266056     2.260237
      2.254418     2.248600     2.242781     2.236963     2.231144     2.225325     2.219507     2.213688     2.207870     2.202051
      2.196232     2.190414     2.184595     2.178777     2.172958     2.167139     2.161321     2.155502     2.149683     2.143865
      2.138046     2.132228     2.126409     2.120590     2.114772     2.108953     2.103135     2.097316     2.091497     2.085679
      2.079860     2.074042     2.068223     2.062404     2.056586     2.050767     2.044949     2.039130     2.033311     2.027493
      2.021674     2.015856     2.010037     2.004218     1.998400     1.992581     1.986763     1.980944     1.975126     1.969307
      1.963489     1.957670     1.951852     1.946033     1.940215     1.934397     1.928578     1.922760     1.916941     1.911123
      1.905304     1.899486     1.893667     1.887849     1.882030     1.876212     1.870393     1.864575     1.858756     1.852938
      1.847119     1.841301     1.835482     1.829664     1.823845     1.818027     1.812208     1.806390     1.800571     1.794753
      1.788934     1.783116     1.777297     1.771479     1.765660     1.759842     1.754023     1.748205     1.742386     1.736568
      1.730749     1.724931     1.719113     1.713294     1.707476     1.701657     1.695839     1.690020     1.684202     1.678383
      1.672565     1.666746     1.660928     1.655109     1.649291     1.643472     1.637654     1.631835     1.626017     1.620198
      1.614380     1.608561     1.602743     1.596924     1.591106     1.585287     1.579469     1.573650     1.567832     1.562013
      1.556195     1.550376     1.544558     1.538739     1.532921     1.527102     1.521284     1.515465     1.509647     1.503829
      1.498010     1.492192     1.486373     1.480555     1.474736     1.468918     1.463099     1.457281     1.451462     1.445644
      1.439825     1.434007     1.428188     1.422370     1.416551     1.410733     1.404914     1.399096     1.393277     1.387459
      1.381640     1.375822     1.370003     1.364185     1.358366     1.352548     1.346729     1.340911     1.335092     1.329274
      1.323455     1.317637     1.311818     1.306000     1.300182     1.294363     1.288545     1.282726     1.276908     1.271089
      1.265271     1.259452     1.253634     1.247815     1.241997     1.236178     1.230360     1.224541     1.218723     1.212904
      1.207086     1.201267     1.195449     1.189630     1.183812     1.177993     1.172175     1.166356     1.160538     1.154719
      1.148901     1.143082     1.137264     1.131445     1.125627     1.119808     1.113990     1.108171     1.102353     1.096534
      1.090716     1.084898     1.079079     1.073261     1.067442     1.061624     1.055805     1.049987     1.044168     1.038350
      1.032531     1.026713     1.020894     1.015076     1.009257     1.003439     0.997620     0.991802     0.985983     0.980165
      0.974346     0.968528     0.962709     0.956891     0.951072     0.945254     0.939435     0.933617     0.927798     0.921980
      0.916161     0.910343     0.904524     0.898706     0.892887     0.887069     0.881251     0.875432     0.869614     0.863795
      0.857977     0.852158     0.846340     0.840521     0.834703     0.828884     0.823066     0.817247     0.811429     0.805610
      0.799792     0.793973     0.788155     0.782336     0.776518     0.770699     0.764881     0.759062     0.753244     0.747425
      0.741607     0.735788     0.729970     0.724151     0.718333     0.712514     0.706696     0.700877     0.695059     0.689240
      0.683422     0.677603     0.671785     0.665967     0.660148     0.654330     0.648511     0.642693     0.636874     0.631056
      0.625237     0.619419     0.613600     0.607782     0.601963     0.596145     0.590326     0.584508     0.578689     0.572871
      0.567052     0.561234     0.555415     0.549597     0.543778     0.537960     0.532141     0.526323     0.520504     0.514686
      0.508867     0.503049     0.497230     0.491412     0.485593     0.479775     0.473956     0.468138     0.462319     0.456501
      0.450682     0.444864     0.439045     0.433227     0.427408     0.421590     0.415771     0.409953     0.404134     0.398316
      0.392497     0.386679     0.380860     0.375042     0.369223     0.363405     0.357586     0.351767     0.345949     0.340130
      0.334312     0.328493     0.322675     0.316856     0.311038     0.305219     0.299401     0.293582     0.287764     0.281945
      0.276127     0.270308     0.264490     0.258671     0.252853     0.247034     0.241216     0.235397     0.229579     0.223760
      0.217942     0.212123     0.206305     0.200486
 NY phased data points follow
   5.03821E-01  4.20054E-01  5.15323E-01  2.51266E-01  5.20090E-02  2.39191E-01  2.96187E-03  7.57166E-03  1.57056E-01  5.52112E-01
   1.42136E-01 -3.51358E-02  7.09215E-01  5.46461E-01  2.55646E-01  1.07860E-01  4.01446E-01  2.39881E-01 -4.77552E-01 -1.59802E-02
  -1.36066E-01 -1.15316E-01  3.90732E-02  3.95561E-02 -3.48836E-01 -9.01888E-01 -6.61346E-02 -1.10218E-01 -5.76226E-01 -1.24807E-01
  -9.81763E-02 -2.21322E-02 -2.22165E-01 -4.71009E-01 -2.01163E-01 -5.30669E-01 -2.57920E-01 -5.81017E-01 -4.82767E-01 -1.81131E-01
  -1.61003E-01  3.56408E-01 -2.33412E-01  4.07579E-02  1.46058E-01  3.00384E-01  6.00766E-01  4.00771E-01 -1.88545E-02  2.69549E-01
   6.72367E-01  2.72127E-01  4.92204E-01  4.20852E-01  8.42629E-01  6.04103E-01 -1.11228E-01 -9.36629E-02 -5.87387E-02  2.54089E-01
   2.97215E-02 -3.35754E-01 -8.12457E-02 -3.86154E-01 -2.77388E-01 -6.10104E-02 -3.26578E-01 -9.41891E-02  2.98291E-02  2.91022E-01
  -5.67834E-02  2.50930E-01  1.58892E-01 -3.93078E-01  3.02190E-01  4.01631E-01 -5.55360E-03 -1.49665E-01 -1.14375E-01 -8.98453E-03
   6.56761E-02 -7.38228E-02 -9.53806E-02 -4.15606E-01  4.76056E-02  1.20560E-01 -1.26964E-01  5.45534E-01  8.21245E-02 -1.54676E-01
   1.70343E-01  2.67690E-01  1.27814E-01  7.02238E-02  9.42428E-02 -1.96256E-01  7.42230E-02  6.91698E-02 -3.11303E-01 -4.47091E-01
  -4.15900E-01 -2.09832E-01 -3.00028E-01  1.10948E-01 -4.22558E-04 -2.20459E-01  1.61045E-01  3.94965E-01  6.17863E-01 -1.13754E-01
   1.01755E-01  4.27403E-01  2.80776E-01  4.47585E-01  2.61785E-01  4.80587E-01  3.27232E-01  2.70300E-01  2.38055E-01  3.92990E-01
   4.06685E-01  1.60893E-01  2.04475E-01 -1.26558E-01  1.24797E-01 -2.28092E-02 -2.63122E-01 -4.61098E-01 -8.21111E-01 -8.77635E-01
  -8.64731E-01 -3.82073E-01 -7.44407E-01 -9.12755E-01 -8.88812E-01 -5.21370E-01 -5.03531E-01 -8.63339E-01 -4.62707E-01 -4.79453E-01
  -4.37341E-01 -4.67912E-01  1.24916E-01  1.17110E-01 -4.90013E-02  2.73966E-01  2.90065E-01  8.99512E-02 -4.82067E-02  8.72147E-02
   2.73927E-01  1.01240E-01 -2.03193E-01  4.18955E-01  2.15183E-01  1.32470E-01 -1.05575E-01  5.41554E-02  4.49934E-01  5.95702E-01
   5.52206E-01  1.66551E-01  7.56479E-01  7.09464E-01  7.60710E-01  4.53344E-01  3.12451E-01  3.52135E-01  7.56961E-03 -2.18574E-01
  -2.92955E-01 -6.77539E-01 -5.24349E-01 -4.04063E-01 -6.07733E-01 -4.43913E-01 -5.93858E-01 -2.91951E-01 -1.00538E+00 -5.40892E-01
  -4.66217E-01 -7.71854E-01 -2.86436E-01 -1.75410E-01 -5.67041E-01 -5.09035E-01 -2.19004E-01 -7.90437E-01 -2.07601E-01 -4.73330E-01
  -7.69054E-02 -4.12791E-01 -5.27930E-01  3.73097E-02 -1.84611E-01 -3.35726E-01  1.39397E-01  2.79263E-01 -6.66552E-01 -2.29000E-02
  -7.90513E-02  3.85653E-01  1.51144E-01  7.14553E-02  1.89522E-02 -2.28525E-02  2.86357E-01 -1.56876E-01  1.42764E-01 -7.98200E-02
   1.93791E-01 -1.49388E-01  8.67981E-02 -3.15655E-01 -3.76478E-01  7.08214E-02 -1.69307E-01  1.50305E-01  1.44234E-01  4.54956E-01
  -1.46617E-02 -1.69516E-01  3.07041E-01  5.72771E-02 -1.59347E-01  1.37743E-01  2.13589E-01  5.87339E-01  5.35987E-01  3.31172E-03
  -1.19315E-01  7.02348E-01  5.07184E-01 -1.01679E-01  2.38923E-01 -2.32303E-01  1.09964E-02  2.54768E-01 -9.86847E-02 -2.65529E-01
   2.53114E-01  8.81519E-03 -1.63946E-01 -3.16642E-01 -3.35234E-01 -3.20797E-04 -3.61289E-01  2.24566E-01  2.09811E-01 -1.57286E-01
  -3.39159E-01 -3.25970E-01 -8.19392E-02  1.66039E-01 -6.04638E-02 -1.66029E-01 -2.78673E-01  4.19026E-02  2.51626E-01 -1.21236E-01
  -1.39004E-01  1.90077E-02  9.57140E-01  2.62705E-01  2.61958E-01  1.03960E-03 -6.90191E-02  3.22865E-01 -2.67880E-01  6.97377E-01
   4.76561E-01  3.38618E-01  3.21577E-01  1.47397E-01  2.53933E-01  1.74536E-01  1.08353E-01 -4.01710E-01 -5.07561E-02  3.01610E-02
  -8.39944E-02 -2.60319E-02 -3.82137E-01 -2.53405E-01 -6.02894E-01 -2.81010E-01  8.12733E-01  6.93546E-01  7.60525E-01  7.93038E-01
   4.82007E-01  4.58797E-01  6.53735E-01  3.66787E-01  2.24832E-01  4.43740E-01  1.27398E-01  1.24979E-01  3.86004E-01  3.60050E-02
   1.01581E-01  4.39819E-01  1.62179E-02  3.35095E-01  4.15134E-01  1.58394E-01  1.29128E-01  2.79924E-01  4.38640E-01  9.33879E-02
   3.13214E-02  1.72048E-01  1.42968E-01  1.04608E-01  4.02554E-01  6.39861E-01  8.03279E-01  2.75569E-01 -1.03069E-01 -1.98914E-01
  -8.80815E-02 -2.97304E-01 -4.57246E-01 -2.22023E-01 -3.52860E-01  2.18764E-01  3.23670E-02  2.08843E-01  7.31559E-02  1.20555E-01
   5.72322E-01 -5.32682E-02 -9.98462E-02 -1.82373E-01  3.62043E-01 -7.94808E-02 -4.29090E-01  3.58511E-02 -6.59647E-01 -3.27437E-01
  -8.91884E-01 -1.73227E+00 -9.99663E-01 -1.14345E+00 -1.72330E+00 -1.74263E+00 -6.88068E-01 -5.46115E-01 -5.43241E-01  8.23494E-02
  -7.52061E-02 -1.68416E-01 -5.51159E-01 -8.95530E-03  7.39544E-02 -2.99022E-01 -1.17499E-01  3.09638E-01  3.96792E-01  4.49004E-03
   1.84335E-01  1.93775E-01  3.12788E-01 -1.09164E-01  1.73805E-01  3.76573E-01 -1.17803E-02  1.80637E-01 -3.55623E-01 -5.50554E-01
  -1.32493E-02  3.12853E-01  3.19053E-01 -8.03459E-02 -5.29984E-02  3.89156E-01  1.82275E-01  2.63181E-01  4.87561E-02  8.84839E-02
   1.41433E-01 -1.24175E-01 -9.75171E-02 -2.25805E-01  1.21509E-01  4.07709E-02  1.70449E-01  3.44367E-01  3.89724E-01  3.63084E-01
   2.14528E-01 -2.62137E-01 -5.11989E-02  4.72476E-01  3.03881E-01  5.62659E-01 -1.56714E-01 -1.91904E-01 -3.60624E-02  1.90560E-03
   2.35325E-01  6.42356E-02 -4.27288E-02  1.82723E-02 -8.83287E-02 -3.06019E-01  5.91783E-01  3.37686E-01  1.77384E-01 -2.08651E-01
  -2.33962E-01  2.29152E-01 -2.05564E-01 -2.22954E-01 -6.46012E-01 -7.16500E-02 -9.24535E-02 -2.61862E-01  2.33147E-01 -3.97936E-02
  -1.18115E-01 -1.38416E-02 -1.29667E-01  2.45578E-03 -9.73464E-02 -3.99773E-01 -3.22455E-01 -3.75633E-01  3.51990E-01  5.48867E-01
   2.13679E-02 -2.10584E-01  2.19075E-02  5.95926E-02 -3.36971E-01  5.10200E-02 -1.01933E-01 -6.57738E-03  3.41442E-01 -4.86292E-01
   1.12922E-01  4.04379E-01  1.26405E-02  2.97964E-01 -1.57745E-01  3.78165E-01 -1.61876E-01  1.48474E-01  3.70095E-01 -3.55104E-01
   4.53227E-01  3.71858E-02  4.53617E-02 -2.63534E-01  8.71111E-02  7.27956E-02 -2.51643E-01  2.43369E-01 -5.26439E-02  2.80788E-01
   4.81778E-02  1.28752E-03  1.05104E-01  4.69518E-02  1.53365E-02  3.11522E-02  2.34575E-01  4.76776E-02  4.15818E-02  4.29921E-01
   3.76554E-01 -2.88365E-01 -4.37463E-01  1.17243E-01 -9.62712E-03 -7.99218E-02  3.38917E-01  2.78708E-02  8.22649E-02 -1.84515E-01
  -3.15444E-01 -4.26351E-01 -4.39564E-01 -2.66898E-01 -4.28723E-01 -4.28778E-02  1.19300E-01 -1.66734E-02 -2.45743E-01  2.30297E-01
   2.19000E-01  4.20920E-01  4.05700E-01 -3.63299E-02 -4.26356E-02 -4.60980E-01 -1.71150E-01 -9.92269E-02  5.93198E-02  3.27960E-02
  -1.10976E-01  1.45128E-01  2.68314E-01  3.51765E-01  2.64468E-01  2.28475E-01  3.81158E-01  2.47040E-01  1.67433E-01  3.26757E-01
  -4.25725E-02  2.41026E-02 -1.91505E-01 -2.01942E-01  1.73505E-01 -1.91247E-01 -4.68508E-01  8.04842E-02  3.05302E-01 -2.28465E-02
   1.63732E-01 -4.07238E-01 -1.36206E-01 -1.71815E-01 -4.96550E-01  1.28119E-01 -3.66176E-01 -2.90104E-01 -2.56858E-01 -2.26739E-01
  -1.87876E-01 -2.50535E-01 -1.61074E-01 -6.83306E-01 -8.85569E-02  1.87573E-01 -3.14374E-01 -1.79514E-01  7.80155E-03 -3.58601E-01
  -2.07021E-01  3.65085E-02 -3.90356E-01 -1.12678E-01  2.19033E-02  1.51579E-01  1.03056E-01  2.56644E-01  2.39550E-01 -1.68736E-01
   4.87743E-01  6.56774E-02 -1.65294E-01  3.35908E-01  9.36662E-02 -1.70225E-01  8.11478E-02  3.92327E-01 -3.17834E-01  8.99481E-02
   3.45332E-01 -4.47251E-01 -1.05268E-01  1.25206E-02 -3.24268E-01 -2.62113E-01  6.43771E-02  1.02791E-01  2.77817E-01  8.58924E-02
  -2.32656E-01  6.66321E-02 -4.39857E-02 -1.20905E-01  1.58296E-01  3.58966E-01 -1.33142E-01 -1.22391E-01  2.34763E-01 -3.40526E-02
   1.21075E-01  2.79444E-01 -2.80489E-02  2.03404E-01 -5.15298E-02 -3.86545E-01  5.16459E-01 -2.19148E-01 -3.25096E-01  2.44873E-01
   1.69411E-02  3.72551E-01  8.78459E-02  2.13998E-01 -1.62165E-01 -1.70874E-01  1.17321E-01 -6.89939E-03  3.58060E-01  7.91898E-02
   5.32010E-02 -7.40558E-02  1.65594E-01  2.41276E-01 -4.30847E-01 -9.01723E-02  8.84307E-02  2.31397E-01  3.35582E-01 -9.46912E-03
   5.31146E-02  4.03995E-02  2.42861E-01  9.09612E-02  1.79097E-01  1.78043E-01 -1.49456E-01  6.51403E-01  2.58493E-01 -3.52086E-01
  -3.89498E-02 -1.03227E-02  2.07459E-01  6.94224E-02 -5.32025E-02 -4.02586E-01 -3.47578E-01 -6.34644E-02 -2.57017E-01  3.31333E-01
   3.89716E-02 -1.16453E-01  5.45697E-02 -1.14712E-01  1.05374E-01 -2.77020E-01  4.15459E-02  2.75453E-01  2.45856E-01  2.54836E-02
   1.54607E-02  3.02272E-01 -5.92504E-02 -2.73954E-01 -3.74576E-01  9.83402E-02 -1.24418E-01 -3.24460E-01  1.67878E-01  4.47403E-01
   2.92931E-01 -1.80144E-02  1.00925E-01  7.89117E-02
 NY points of the fit to the data follow
   3.43025E-01  3.49805E-01  3.35001E-01  2.95892E-01  2.52862E-01  2.10283E-01  1.50048E-01  1.18902E-01  1.52657E-01  2.31850E-01
   3.16758E-01  3.62140E-01  3.95624E-01  4.34795E-01  4.28425E-01  3.38477E-01  2.11071E-01  1.01940E-01  2.23611E-02 -1.49581E-02
  -3.10593E-02 -6.39487E-02 -9.74845E-02 -1.20131E-01 -1.40247E-01 -1.59143E-01 -1.77104E-01 -1.93592E-01 -2.08076E-01 -2.21683E-01
  -2.36655E-01 -2.54042E-01 -2.72269E-01 -2.93500E-01 -3.18421E-01 -3.40027E-01 -3.58161E-01 -3.60610E-01 -3.46734E-01 -3.14047E-01
  -2.46902E-01 -1.67008E-01 -6.79004E-02  5.16149E-02  1.65070E-01  2.74127E-01  3.66357E-01  4.37294E-01  4.90054E-01  5.13984E-01
   5.05253E-01  4.74395E-01  4.32662E-01  3.66847E-01  2.94682E-01  2.27816E-01  1.50569E-01  8.27139E-02  1.91722E-02 -3.95508E-02
  -7.57852E-02 -1.20660E-01 -1.51516E-01 -1.53496E-01 -1.40385E-01 -9.74369E-02 -4.69540E-02  2.19313E-02  1.19002E-01  2.02923E-01
   2.48401E-01  2.78057E-01  2.88661E-01  2.45519E-01  1.93693E-01  1.46433E-01  5.24057E-02 -4.49642E-02 -1.16702E-01 -1.75836E-01
  -2.06979E-01 -2.18351E-01 -1.89468E-01 -9.89478E-02  1.82049E-02  1.18463E-01  2.02146E-01  2.65901E-01  2.84442E-01  2.74928E-01
   2.50646E-01  2.04595E-01  1.53398E-01  9.78729E-02  2.64306E-02 -7.76088E-02 -1.86974E-01 -2.90624E-01 -3.66770E-01 -3.92986E-01
  -3.73790E-01 -2.98935E-01 -1.79596E-01 -3.12092E-02  1.06407E-01  2.09189E-01  2.71491E-01  2.95892E-01  3.06392E-01  3.13620E-01
   3.13300E-01  3.14989E-01  3.11025E-01  3.07086E-01  3.03579E-01  2.99427E-01  2.93652E-01  2.90639E-01  2.86461E-01  2.72181E-01
   2.49706E-01  2.14779E-01  1.68507E-01  1.05567E-01  3.13281E-02 -8.70556E-02 -2.26489E-01 -3.79477E-01 -5.37226E-01 -6.50538E-01
  -7.17867E-01 -7.64325E-01 -7.87629E-01 -7.79186E-01 -7.43735E-01 -6.72568E-01 -6.21265E-01 -6.02351E-01 -5.44842E-01 -4.20845E-01
  -2.96332E-01 -1.81543E-01 -9.34561E-02 -4.68022E-02 -1.24303E-02  3.16155E-02  6.34425E-02  8.85165E-02  1.10314E-01  1.30017E-01
   1.48435E-01  1.66017E-01  1.83567E-01  2.02010E-01  2.22039E-01  2.44282E-01  2.69703E-01  3.00262E-01  3.40466E-01  3.87595E-01
   4.04821E-01  4.30751E-01  5.45505E-01  6.30207E-01  6.12433E-01  4.76234E-01  2.92954E-01  1.41482E-01 -6.95826E-02 -3.57156E-01
  -5.92209E-01 -6.61462E-01 -6.32992E-01 -5.56648E-01 -4.61901E-01 -4.32433E-01 -4.22954E-01 -3.73743E-01 -3.37771E-01 -3.10654E-01
  -2.89993E-01 -2.72064E-01 -2.56286E-01 -2.41479E-01 -2.28233E-01 -2.16734E-01 -2.06805E-01 -1.97524E-01 -1.87668E-01 -1.77897E-01
  -1.68696E-01 -1.59776E-01 -1.50892E-01 -1.42214E-01 -1.33315E-01 -1.24522E-01 -1.16559E-01 -1.08624E-01 -9.96993E-02 -9.01424E-02
  -8.18463E-02 -7.66841E-02 -7.20410E-02 -6.58872E-02 -6.05935E-02 -5.86309E-02 -5.97827E-02 -6.10685E-02 -6.10801E-02 -6.17416E-02
  -6.48615E-02 -6.92366E-02 -7.15152E-02 -7.03314E-02 -6.66916E-02 -6.25830E-02 -5.93721E-02 -5.18205E-02 -4.07055E-02 -3.65927E-02
  -2.88043E-02 -7.77443E-04  5.45064E-02  1.17278E-01  1.53926E-01  1.87157E-01  2.51323E-01  3.25247E-01  3.66874E-01  3.61910E-01
   3.41801E-01  3.31778E-01  3.11833E-01  2.51888E-01  1.61346E-01  7.63233E-02  1.09062E-02 -2.56124E-02 -4.25085E-02 -6.33848E-02
  -8.37251E-02 -9.64325E-02 -1.06908E-01 -1.16078E-01 -1.24284E-01 -1.32200E-01 -1.40416E-01 -1.48938E-01 -1.59359E-01 -1.64923E-01
  -1.72046E-01 -1.96642E-01 -2.07718E-01 -2.00539E-01 -1.88856E-01 -1.68749E-01 -1.45899E-01 -8.78100E-02 -1.12125E-02  4.74070E-02
   8.95472E-02  1.34251E-01  1.81161E-01  1.96043E-01  2.05276E-01  2.12109E-01  2.07875E-01  2.10014E-01  2.04131E-01  1.90960E-01
   1.71704E-01  1.47587E-01  1.21128E-01  8.31818E-02  3.96907E-02 -3.99529E-03 -5.09361E-02 -9.73600E-02 -1.44240E-01 -1.93788E-01
  -2.33837E-01 -2.56286E-01 -2.52176E-01 -2.07666E-01 -1.31007E-01 -2.94528E-02  8.57024E-02  1.95181E-01  2.82066E-01  3.36379E-01
   3.54789E-01  3.39554E-01  3.15133E-01  2.93929E-01  2.74635E-01  2.64634E-01  2.58490E-01  2.53227E-01  2.50556E-01  2.47346E-01
   2.43572E-01  2.37701E-01  2.31061E-01  2.24977E-01  2.17331E-01  2.09446E-01  2.00504E-01  1.89187E-01  1.76906E-01  1.61868E-01
   1.44872E-01  1.26247E-01  1.05921E-01  8.19714E-02  5.24289E-02  1.72323E-02 -2.57651E-02 -7.30387E-02 -1.23403E-01 -1.74022E-01
  -2.15689E-01 -2.43966E-01 -2.51360E-01 -2.37192E-01 -2.03282E-01 -1.54967E-01 -9.92896E-02 -4.14611E-02  6.62940E-04  2.78686E-02
   3.46447E-02  2.68084E-02  2.54004E-03 -3.33083E-02 -9.10088E-02 -1.71047E-01 -1.79312E-01 -1.63758E-01 -3.01595E-01 -5.82736E-01
  -9.07080E-01 -1.13917E+00 -1.29203E+00 -1.48141E+00 -1.59473E+00 -1.45651E+00 -1.11498E+00 -7.74011E-01 -4.94961E-01 -3.25455E-01
  -2.73268E-01 -2.08860E-01 -1.24606E-01 -8.58337E-02 -6.03399E-02 -4.22393E-02 -2.93849E-02 -2.00487E-02 -1.52037E-02 -1.32918E-02
  -1.46748E-02 -1.86958E-02 -2.33468E-02 -2.75943E-02 -2.99380E-02 -3.01527E-02 -2.72447E-02 -2.19867E-02 -1.46117E-02 -5.69911E-03
   2.98453E-03  1.13261E-02  1.90207E-02  2.57423E-02  3.23901E-02  3.82320E-02  4.33951E-02  4.79872E-02  5.21671E-02  5.61383E-02
   6.01414E-02  6.39552E-02  6.74612E-02  7.05945E-02  7.36201E-02  7.65006E-02  7.93812E-02  8.21345E-02  8.47339E-02  8.74792E-02
   9.01616E-02  9.26230E-02  9.46415E-02  9.59843E-02  9.65820E-02  9.62973E-02  9.51257E-02  9.32730E-02  9.10167E-02  8.82967E-02
   8.48422E-02  8.05833E-02  7.57750E-02  7.07702E-02  6.55910E-02  6.02045E-02  5.47366E-02  4.95745E-02  4.46654E-02  3.98697E-02
   3.53699E-02  3.12035E-02  2.73204E-02  2.38255E-02  2.06672E-02  1.76748E-02  1.49072E-02  1.23942E-02  9.96351E-03  7.76228E-03
   6.05585E-03  4.88527E-03  4.23796E-03  4.17268E-03  4.64777E-03  5.93995E-03  8.02787E-03  1.07614E-02  1.38883E-02  1.68336E-02
   1.98252E-02  2.31810E-02  2.68208E-02  3.05162E-02  3.45162E-02  3.91409E-02  4.45822E-02  5.08961E-02  5.78335E-02  6.51237E-02
   7.28154E-02  8.11717E-02  9.02168E-02  9.98520E-02  1.09774E-01  1.19653E-01  1.29047E-01  1.37794E-01  1.45704E-01  1.52257E-01
   1.57394E-01  1.61016E-01  1.63109E-01  1.63899E-01  1.63258E-01  1.61114E-01  1.57583E-01  1.52807E-01  1.46777E-01  1.39744E-01
   1.31868E-01  1.23600E-01  1.15412E-01  1.07469E-01  9.96956E-02  9.19644E-02  8.45774E-02  7.78698E-02  7.18801E-02  6.62675E-02
   6.10871E-02  5.66200E-02  5.29322E-02  5.01639E-02  4.83024E-02  4.73099E-02  4.73355E-02  4.83333E-02  5.02574E-02  5.29202E-02
   5.61973E-02  5.98116E-02  6.37308E-02  6.77740E-02  7.15950E-02  7.50509E-02  7.81709E-02  8.10735E-02  8.35197E-02  8.53803E-02
   8.70878E-02  8.85850E-02  8.94291E-02  8.94180E-02  8.85475E-02  8.71444E-02  8.54602E-02  8.34729E-02  8.10177E-02  7.83999E-02
   7.58636E-02  7.32644E-02  7.05443E-02  6.75554E-02  6.44203E-02  6.14390E-02  5.85898E-02  5.56728E-02  5.26706E-02  4.98380E-02
   4.72174E-02  4.43303E-02  4.07751E-02  3.66075E-02  3.19099E-02  2.65802E-02  2.05377E-02  1.34093E-02  5.02071E-03 -4.51587E-03
  -1.51521E-02 -2.69815E-02 -4.01814E-02 -5.42956E-02 -6.83767E-02 -8.20909E-02 -9.56027E-02 -1.08451E-01 -1.19951E-01 -1.29863E-01
  -1.38260E-01 -1.45077E-01 -1.49844E-01 -1.52189E-01 -1.52507E-01 -1.51365E-01 -1.49017E-01 -1.45617E-01 -1.41303E-01 -1.36333E-01
  -1.30910E-01 -1.25311E-01 -1.19355E-01 -1.12585E-01 -1.05144E-01 -9.71590E-02 -8.89334E-02 -8.04831E-02 -7.19598E-02 -6.34522E-02
  -5.48800E-02 -4.66923E-02 -3.91317E-02 -3.16807E-02 -2.42473E-02 -1.73278E-02 -1.11844E-02 -5.57608E-03 -1.72812E-04  4.91708E-03
   9.45851E-03  1.32358E-02  1.65334E-02  1.96395E-02  2.24579E-02  2.48608E-02  2.67487E-02  2.82247E-02  2.97310E-02  3.12335E-02
   3.25617E-02  3.39423E-02  3.54649E-02  3.70035E-02  3.84221E-02  3.97728E-02  4.09312E-02  4.15710E-02  4.19174E-02  4.22218E-02
   4.22930E-02  4.22932E-02  4.23124E-02  4.20567E-02  4.18551E-02  4.21300E-02  4.23929E-02  4.21731E-02  4.17505E-02  4.13804E-02
   4.11048E-02  4.05459E-02  3.94968E-02  3.86005E-02  3.83106E-02  3.81357E-02  3.75636E-02  3.69517E-02  3.63877E-02  3.58406E-02
   3.53970E-02  3.50429E-02  3.50548E-02  3.54752E-02  3.60439E-02  3.64280E-02  3.66526E-02  3.71369E-02  3.76505E-02  3.79205E-02
   3.79009E-02  3.76770E-02  3.75050E-02  3.71275E-02  3.65916E-02  3.63769E-02  3.63612E-02  3.63402E-02  3.64764E-02  3.67334E-02
   3.72799E-02  3.78968E-02  3.83576E-02  3.87148E-02  3.89542E-02  3.90937E-02  3.90334E-02  3.86143E-02  3.76639E-02  3.66042E-02
   3.59112E-02  3.54182E-02  3.50404E-02  3.43120E-02  3.31734E-02  3.21617E-02  3.15261E-02  3.10872E-02  3.04873E-02  2.96345E-02
   2.90374E-02  2.88037E-02  2.82807E-02  2.75399E-02  2.69825E-02  2.66621E-02  2.67359E-02  2.69935E-02  2.73340E-02  2.77754E-02
   2.82982E-02  2.86264E-02  2.86449E-02  2.86115E-02
 NY background values follow
     2.232E-02    2.225E-02    2.219E-02    2.212E-02    2.206E-02    2.200E-02    2.193E-02    2.187E-02    2.180E-02    2.174E-02
     2.168E-02    2.161E-02    2.155E-02    2.148E-02    2.142E-02    2.135E-02    2.129E-02    2.123E-02    2.116E-02    2.110E-02
     2.103E-02    2.097E-02    2.091E-02    2.084E-02    2.078E-02    2.071E-02    2.065E-02    2.058E-02    2.052E-02    2.045E-02
     2.039E-02    2.033E-02    2.026E-02    2.020E-02    2.013E-02    2.007E-02    2.000E-02    1.994E-02    1.988E-02    1.981E-02
     1.975E-02    1.968E-02    1.962E-02    1.955E-02    1.949E-02    1.942E-02    1.936E-02    1.929E-02    1.923E-02    1.917E-02
     1.910E-02    1.904E-02    1.897E-02    1.891E-02    1.884E-02    1.878E-02    1.871E-02    1.865E-02    1.858E-02    1.852E-02
     1.846E-02    1.839E-02    1.833E-02    1.826E-02    1.820E-02    1.813E-02    1.807E-02    1.800E-02    1.794E-02    1.787E-02
