 
 $NMID
 ID=''
 FMTDAT='(2E13.5)'
 TRAMP=   1.00000E+0
 VOLUME=   1.00000E+0
 $END
  -3.34723E+3   1.88658E+4
  -2.14604E+4   4.42646E+4
  -1.25811E+4   4.73031E+4
  -1.05651E+4   4.34999E+4
  -1.15547E+4   4.46936E+4
  -8.61712E+3   4.52256E+4
  -7.69818E+3   4.31988E+4
  -7.94504E+3   4.33864E+4
  -5.86432E+3   4.35854E+4
  -4.92902E+3   4.20955E+4
  -4.73858E+3   4.19179E+4
  -2.92574E+3   4.16926E+4
  -1.83166E+3   4.05760E+4
  -1.69478E+3   4.02994E+4
  -1.72291E+2   3.99691E+4
   7.87136E+2   3.89685E+4
   1.21270E+3   3.86335E+4
   2.38809E+3   3.82529E+4
   3.34521E+3   3.72487E+4
   3.72015E+3   3.67297E+4
   4.80177E+3   3.62220E+4
   5.85293E+3   3.53680E+4
   6.30178E+3   3.48958E+4
   7.12351E+3   3.43718E+4
   7.86924E+3   3.34021E+4
   8.31613E+3   3.28854E+4
   9.01642E+3   3.23368E+4
   9.52936E+3   3.14618E+4
   9.89889E+3   3.08989E+4
   1.04380E+4   3.02962E+4
   1.10690E+4   2.94469E+4
   1.13807E+4   2.88435E+4
   1.17630E+4   2.83219E+4
   1.20757E+4   2.74739E+4
   1.24382E+4   2.67472E+4
   1.28294E+4   2.61066E+4
   1.31429E+4   2.52486E+4
   1.33674E+4   2.45915E+4
   1.36891E+4   2.39697E+4
   1.38609E+4   2.32295E+4
   1.39051E+4   2.24982E+4
   1.39699E+4   2.19581E+4
   1.39612E+4   2.12176E+4
   1.39511E+4   2.04386E+4
   1.40017E+4   1.97237E+4
   1.39885E+4   1.89977E+4
   1.38940E+4   1.83757E+4
   1.37853E+4   1.77180E+4
   1.37132E+4   1.69744E+4
   1.35283E+4   1.63211E+4
   1.34435E+4   1.56185E+4
   1.32089E+4   1.49202E+4
   1.30638E+4   1.41666E+4
   1.29304E+4   1.34992E+4
   1.27361E+4   1.28339E+4
   1.25527E+4   1.22016E+4
   1.23117E+4   1.15954E+4
   1.22033E+4   1.09453E+4
   1.19356E+4   1.03569E+4
   1.16577E+4   9.72932E+3
   1.15161E+4   9.16552E+3
   1.13342E+4   8.56773E+3
   1.10979E+4   8.02449E+3
   1.09063E+4   7.54959E+3
   1.06546E+4   7.02348E+3
   1.05071E+4   6.55866E+3
   1.02264E+4   6.06020E+3
   1.00278E+4   5.72604E+3
   9.72866E+3   5.31324E+3
   9.62733E+3   4.92975E+3
   9.40909E+3   4.61251E+3
   9.12126E+3   4.23979E+3
   8.93072E+3   3.90358E+3
   8.67002E+3   3.65928E+3
   8.48440E+3   3.40705E+3
   8.23785E+3   3.26796E+3
   8.08031E+3   2.94280E+3
   7.85461E+3   2.72183E+3
   7.64598E+3   2.56279E+3
   7.39180E+3   2.42410E+3
   7.17619E+3   2.33612E+3
   6.86895E+3   2.20544E+3
   6.66958E+3   2.12122E+3
   6.44796E+3   1.98842E+3
   6.22921E+3   1.92847E+3
   6.03285E+3   1.87921E+3
   5.80277E+3   1.88430E+3
   5.52191E+3   1.83416E+3
   5.30219E+3   1.83571E+3
   5.12779E+3   1.87112E+3
   4.92688E+3   1.84606E+3
   4.71120E+3   1.84765E+3
   4.50365E+3   1.93221E+3
   4.31164E+3   1.92038E+3
   4.07016E+3   1.89983E+3
   3.89218E+3   2.00737E+3
   3.74181E+3   1.96960E+3
   3.51922E+3   2.14094E+3
   3.35924E+3   2.07084E+3
   3.14597E+3   2.17414E+3
   3.05056E+3   2.23861E+3
   2.91199E+3   2.25083E+3
   2.77503E+3   2.34381E+3
   2.59982E+3   2.40168E+3
   2.53431E+3   2.52295E+3
   2.34603E+3   2.50229E+3
   2.22574E+3   2.61037E+3
   2.16510E+3   2.65965E+3
   2.02151E+3   2.70772E+3
   1.90991E+3   2.83672E+3
   1.86026E+3   2.83602E+3
   1.76288E+3   2.92369E+3
   1.73059E+3   3.00668E+3
   1.73034E+3   3.11703E+3
   1.60365E+3   3.11339E+3
   1.55100E+3   3.13782E+3
   1.47215E+3   3.18744E+3
   1.49436E+3   3.19299E+3
   1.36446E+3   3.29669E+3
   1.31764E+3   3.20119E+3
   1.39885E+3   3.34348E+3
   1.31756E+3   3.37656E+3
   1.36155E+3   3.38907E+3
   1.33689E+3   3.39930E+3
   1.30200E+3   3.48590E+3
   1.27464E+3   3.36795E+3
   1.27586E+3   3.40296E+3
   1.34872E+3   3.39025E+3
   1.33289E+3   3.44702E+3
   1.28625E+3   3.43134E+3
   1.29558E+3   3.35825E+3
   1.33641E+3   3.38130E+3
   1.39208E+3   3.38406E+3
   1.33352E+3   3.37786E+3
   1.36025E+3   3.36180E+3
   1.33261E+3   3.31106E+3
   1.38590E+3   3.24269E+3
   1.40188E+3   3.25697E+3
   1.37600E+3   3.16040E+3
   1.40595E+3   3.16426E+3
   1.42081E+3   3.10719E+3
   1.44495E+3   2.98626E+3
   1.51985E+3   2.94093E+3
   1.48528E+3   2.93515E+3
   1.55209E+3   2.80855E+3
   1.59092E+3   2.81736E+3
   1.61793E+3   2.74047E+3
   1.59324E+3   2.65323E+3
   1.56313E+3   2.60176E+3
   1.63766E+3   2.54167E+3
   1.58788E+3   2.47296E+3
   1.63073E+3   2.38602E+3
   1.63016E+3   2.23560E+3
   1.66120E+3   2.19751E+3
   1.66996E+3   2.16469E+3
   1.66189E+3   2.09695E+3
   1.68903E+3   2.01614E+3
   1.71807E+3   1.95512E+3
   1.70942E+3   1.77587E+3
   1.75201E+3   1.74434E+3
   1.75102E+3   1.66900E+3
   1.80317E+3   1.63961E+3
   1.82857E+3   1.45974E+3
   1.81529E+3   1.41744E+3
   1.80093E+3   1.35139E+3
   1.91035E+3   1.25088E+3
   1.85213E+3   1.24942E+3
   1.86469E+3   1.14453E+3
   1.90261E+3   1.14132E+3
   1.89765E+3   9.97994E+2
   1.84950E+3   8.94672E+2
   1.85776E+3   8.33543E+2
   1.84433E+3   7.41248E+2
   1.86554E+3   6.66072E+2
   1.88640E+3   6.38149E+2
   1.86821E+3   5.86284E+2
   1.90610E+3   5.14787E+2
   1.91646E+3   4.11133E+2
   1.85612E+3   4.02222E+2
   1.87118E+3   3.16782E+2
   1.88114E+3   2.11650E+2
   1.78639E+3   1.85060E+2
   1.90421E+3   1.58592E+2
   1.77051E+3   1.15769E+2
   1.81366E+3   3.93810E+1
   1.79615E+3   6.63787E+1
   1.76571E+3  -5.36874E+1
   1.77839E+3  -8.66154E+1
   1.76088E+3  -8.22478E+1
   1.71864E+3  -1.54609E+2
   1.77991E+3  -1.76342E+2
   1.69960E+3  -2.35210E+2
   1.61789E+3  -2.54235E+2
   1.70274E+3  -3.10805E+2
   1.67950E+3  -3.04461E+2
   1.63921E+3  -4.09752E+2
   1.61651E+3  -4.20229E+2
   1.65439E+3  -4.02024E+2
   1.60025E+3  -4.95401E+2
   1.55204E+3  -4.90031E+2
   1.63113E+3  -5.21157E+2
   1.57264E+3  -5.96453E+2
   1.58003E+3  -5.56309E+2
   1.48464E+3  -5.90984E+2
   1.54333E+3  -6.22850E+2
   1.48120E+3  -6.52083E+2
   1.44221E+3  -5.87366E+2
   1.40369E+3  -6.47425E+2
   1.45078E+3  -6.95209E+2
   1.36944E+3  -6.52216E+2
   1.38472E+3  -6.38763E+2
   1.37971E+3  -6.23453E+2
   1.41022E+3  -7.08824E+2
   1.36517E+3  -6.47174E+2
   1.34170E+3  -7.59389E+2
   1.30175E+3  -7.49913E+2
   1.31915E+3  -6.77739E+2
   1.28511E+3  -7.09176E+2
   1.31810E+3  -6.80349E+2
   1.26940E+3  -7.22768E+2
   1.21412E+3  -6.65649E+2
   1.19107E+3  -7.76937E+2
   1.26017E+3  -6.89055E+2
   1.21547E+3  -7.03876E+2
   1.11871E+3  -6.53591E+2
   1.20208E+3  -6.60991E+2
   1.11867E+3  -6.98298E+2
   1.16701E+3  -6.09816E+2
   1.11517E+3  -6.78506E+2
   1.11410E+3  -6.00957E+2
   1.09101E+3  -5.55234E+2
   1.04907E+3  -5.47411E+2
   1.05150E+3  -5.11605E+2
   1.07395E+3  -4.68787E+2
   9.90733E+2  -5.47013E+2
   9.71196E+2  -4.60677E+2
   9.91411E+2  -4.88382E+2
   1.01051E+3  -5.17008E+2
   9.96121E+2  -5.18200E+2
   9.28118E+2  -5.24282E+2
   9.26798E+2  -4.59710E+2
   8.91517E+2  -5.03119E+2
   9.51876E+2  -4.63477E+2
   8.94970E+2  -4.63007E+2
   8.81892E+2  -4.61922E+2
   8.68903E+2  -3.88367E+2
   8.55658E+2  -4.10373E+2
   8.59530E+2  -4.33726E+2
   7.31390E+2  -4.35201E+2
   8.35383E+2  -4.25932E+2
   7.83039E+2  -3.26280E+2
   8.18677E+2  -3.75394E+2
   7.51810E+2  -3.87374E+2
   7.28847E+2  -3.07499E+2
   7.86318E+2  -3.73286E+2
   7.35157E+2  -3.59217E+2
   7.70613E+2  -3.90383E+2
   7.15629E+2  -3.61075E+2
   7.54745E+2  -3.32774E+2
   7.41029E+2  -2.59759E+2
   6.95536E+2  -2.81994E+2
   6.97746E+2  -2.68941E+2
   7.13908E+2  -2.19233E+2
   7.46270E+2  -3.15159E+2
   6.39537E+2  -3.34561E+2
   6.19462E+2  -2.65722E+2
   6.80253E+2  -2.65511E+2
   6.28271E+2  -2.68547E+2
   5.28643E+2  -2.57912E+2
   5.84737E+2  -2.50507E+2
   5.87441E+2  -2.06637E+2
   6.12942E+2  -2.27368E+2
   5.70139E+2  -2.35439E+2
   5.53243E+2  -2.28242E+2
   5.41370E+2  -2.01070E+2
   5.33524E+2  -1.53290E+2
   5.20451E+2  -1.19460E+2
   5.25558E+2  -2.22276E+2
   5.22123E+2  -1.27757E+2
   4.58138E+2  -2.16875E+2
   4.98184E+2  -1.44101E+2
   5.04852E+2  -2.01175E+2
   4.47956E+2  -1.87961E+2
   4.32847E+2  -1.27756E+2
   4.80053E+2  -1.95687E+2
   4.76052E+2  -2.01954E+2
   4.46811E+2  -1.99865E+2
   4.08456E+2  -1.59113E+2
   4.27289E+2  -1.64347E+2
   4.26712E+2  -1.55627E+2
   3.96372E+2  -9.46217E+1
   4.08082E+2  -1.60105E+2
   3.16513E+2  -1.13762E+2
   3.41558E+2  -1.12625E+2
   3.49367E+2  -1.33985E+2
   3.66974E+2  -1.21738E+2
   2.94579E+2  -1.11714E+2
   3.51913E+2  -6.61036E+1
   3.39649E+2  -7.84972E+1
   3.14303E+2  -8.61511E+1
   3.54238E+2  -7.72867E+1
   3.10046E+2  -1.92771E+1
   2.19324E+2  -3.51536E+1
   3.28236E+2  -2.17426E+1
   2.42922E+2  -1.72425E+1
   3.00184E+2  -4.09642E+1
   2.55152E+2  -2.50189E+0
   2.62091E+2  -4.86327E+0
   2.87242E+2  -1.33501E+1
   2.51297E+2   1.18985E+1
   2.22554E+2  -1.77133E+1
   2.15374E+2   2.16114E+1
   1.93427E+2  -5.58321E+1
   1.62450E+2   4.18310E+1
   1.57318E+2   1.12857E+2
   1.23305E+2   5.29310E+1
   1.72067E+2   4.26501E+1
   1.49709E+2   3.98314E+1
   9.92741E+1   2.17975E+1
   1.74691E+2   5.53875E+1
   1.63087E+2   1.02251E+1
   8.01151E+1   3.53232E+1
   2.43620E+1   6.35032E+1
   9.36297E+1  -2.54094E+1
   1.17344E+2   3.88146E+1
   9.99522E+1   1.07350E+2
   6.74563E+1  -3.19868E+0
   5.72474E+1   9.52652E+1
  -4.95067E+1   1.12953E+2
   1.26428E-1   1.12420E+2
   2.27789E+1   6.14477E+0
  -3.69794E+1   7.26833E+1
  -4.99028E+1   7.23901E+1
  -3.29318E+1   6.67118E+1
  -3.43080E-1   9.58279E+1
   6.39375E+0   1.04356E+2
  -2.85890E+1   8.21725E+1
  -4.98638E+1   1.13187E+2
  -8.62119E+1   8.91945E+1
  -1.37205E+2   1.44129E+2
  -1.04572E+2   1.02676E+2
  -1.04381E+2   1.38523E+2
  -1.02744E+2   1.22258E+2
  -8.46703E+1   8.22988E+1
  -1.09989E+2   6.41541E+1
  -1.76865E+2   9.19459E+1
  -1.83031E+2   1.61955E+2
  -1.66356E+2   7.24433E+1
  -1.58715E+2   1.03382E+2
  -1.04671E+2   1.45759E+2
  -1.53450E+2   1.35297E+2
  -2.12218E+2   1.16969E+2
  -1.85991E+2   1.14241E+2
  -1.76651E+2   1.21138E+2
  -1.87939E+2   1.49359E+2
  -2.46496E+2   1.21477E+2
  -2.68111E+2   2.15832E+2
  -2.40918E+2   1.64544E+2
  -2.12042E+2   1.49787E+2
  -2.25837E+2   1.08489E+2
  -2.22000E+2   1.53782E+2
  -2.58286E+2   1.18676E+2
  -2.75626E+2   1.23880E+2
  -2.52622E+2   1.85902E+2
  -2.60171E+2   1.58168E+2
  -2.68749E+2   2.06832E+2
  -3.21083E+2   2.34100E+2
