 
 $NMID
 ID=''
 FMTDAT='(2E13.5)'
 TRAMP=   1.00000E+0
 VOLUME=   1.00000E+0
 $END
   2.27119E+2  -2.68486E+2
  -1.73042E+2   7.87457E+2
  -2.83804E+3  -1.74433E+2
   2.22148E+1   3.24383E+3
   3.04751E+3   3.28854E+3
   4.43286E+3  -2.18183E+3
   3.46766E+3   9.54416E+2
   3.04720E+3  -3.72833E+2
   1.64919E+3  -2.70900E+3
  -1.24376E+3  -2.41735E+3
   7.54738E+1  -5.57801E+3
   2.01577E+3  -4.53512E+3
   2.68088E+3  -1.81713E+3
  -4.82552E+3   1.55699E+3
  -4.51156E+3   1.35330E+3
  -2.02511E+3  -2.59834E+3
   6.25965E+2  -3.35181E+2
  -2.92749E+2   3.86109E+2
  -4.14823E+3   1.32820E+3
  -1.57088E+3   1.13385E+2
  -3.68435E+2   5.38058E+1
   1.09397E+3   2.99522E+3
  -2.06178E+3   7.54172E+3
  -1.91159E+3  -1.01226E+3
   1.67513E+3  -1.48846E+3
   3.70763E+3   3.56152E+3
   3.91886E+2   3.40287E+3
  -1.30558E+3  -8.74341E+2
  -6.37491E+2  -5.18816E+3
   2.55566E+3  -4.13984E+3
   6.34016E+3   1.18132E+3
  -3.15282E+3   2.64641E+3
  -5.85380E+3  -1.17891E+3
  -1.95939E+3  -1.03354E+3
  -2.02595E+3  -1.37614E+3
  -3.14910E+3  -2.40144E+3
  -2.23539E+2  -5.08276E+3
   5.87355E+3   1.33466E+3
   1.74268E+3   2.05154E+3
  -1.19795E+3   9.08297E+2
  -1.69200E+3   3.08507E+3
  -5.91480E+3   3.29378E+3
  -2.47453E+3  -4.39007E+3
   3.92982E+3  -4.39518E+3
   3.98176E+3   3.09824E+2
   1.70625E+3   1.61339E+3
   1.25175E+3  -2.91290E+2
   1.86590E+3   3.49575E+3
  -2.05043E+2   2.18808E+3
  -2.40169E+3   1.09845E+3
  -9.59162E+2  -2.55726E+3
   1.78764E+3  -1.54231E+3
   2.35397E+3   2.26332E+3
   2.42272E+3   3.65368E+3
  -3.34054E+2   2.18029E+3
  -4.98975E+2   3.94674E+3
  -1.78548E+3   3.28102E+3
  -3.65607E+3  -1.06525E+3
  -1.77156E+3  -5.44629E+3
   8.52184E+2  -2.37970E+3
   1.99617E+3  -7.42175E+2
   2.45359E+3   1.45146E+3
  -7.32996E+2   4.07268E+3
  -3.42792E+3   3.64924E+2
   1.49435E+3  -8.06359E+2
   2.65044E+3   3.01397E+3
  -4.23010E+3   4.61993E+3
  -4.17768E+3  -1.01560E+2
  -1.09741E+3  -9.56724E+2
   1.27488E+3  -1.93960E+3
   9.49430E+0  -9.06160E+2
  -2.63825E+3  -1.57809E+3
   5.80512E+2  -1.60536E+3
   1.95517E+3  -6.71863E+2
   1.05222E+3  -1.71159E+3
   1.05082E+3  -3.10811E+2
   1.17328E+2  -1.84782E+2
   8.13665E+2  -1.53050E+3
   3.24596E+3   1.02603E+3
   1.14894E+3   1.76544E+3
  -1.92188E+3   2.44240E+3
  -5.51300E+2   5.64944E+2
   3.15850E+3   9.32906E+2
  -6.89576E+2   2.55420E+3
  -5.63497E+3  -1.47906E+3
   5.58145E+2  -5.13884E+3
   4.05381E+3  -4.52793E+3
   4.15702E+3  -1.17720E+2
   5.77942E+2   2.26329E+3
  -1.06606E+3   2.78371E+2
   3.09273E+2  -2.42120E+3
   2.43661E+3   1.26609E+3
  -3.39956E+2   1.24456E+3
  -2.78228E+3  -6.19587E+2
   1.17014E+3  -3.02439E+3
   5.37385E+3  -1.13012E+3
   3.76448E+3   2.36089E+3
  -9.66672E+2   5.11120E+3
  -3.65329E+3  -1.63146E+3
   1.83596E+3  -3.83576E+3
   3.64945E+3   3.61934E+2
  -7.11194E+0   5.84302E+3
  -1.27574E+3   3.41980E+3
  -4.15229E+3   4.79155E+2
  -6.93028E+2  -1.66899E+3
   5.57139E+2  -2.61995E+3
   1.35954E+3  -1.13474E+3
  -1.51539E+3  -4.07408E+3
   2.75944E+3  -3.38843E+3
   3.14897E+3  -1.25057E+3
   2.91920E+3   4.87357E+3
   7.56217E+0   3.10831E+3
  -1.66266E+3  -1.34223E+3
   2.02299E+2   1.60422E+3
  -2.04314E+3   5.58627E+2
   6.80077E+1  -9.05309E+2
   2.02010E+3  -5.64399E+2
   1.66424E+3   1.79536E+3
   1.77113E+2   1.36011E+3
   8.37838E+1   1.10626E+3
  -1.08111E+3   3.30372E+2
   1.31817E+3  -2.01626E+3
   8.02871E+2  -6.61255E+2
   1.08663E+3  -5.93313E+2
  -2.89370E+3   2.25330E+3
   5.40852E+2   8.39720E+2
  -1.46913E+2  -2.17534E+2
  -1.62896E+2  -7.61279E+2
  -1.58891E+3  -4.59371E+2
  -1.42099E+3  -3.65174E+3
   1.21229E+2  -2.51616E+3
  -1.04788E+2   1.19980E+3
  -3.35296E+2   1.89087E+3
  -2.23420E+3  -1.14441E+2
  -1.03754E+3  -2.34323E+3
   1.12063E+3  -1.27911E+3
   8.31791E+2   4.63557E+2
   8.72787E+1   4.58101E+2
  -1.75300E+2   2.61852E+2
   8.57626E+1  -1.24577E+3
   7.69866E+2   7.54861E+1
   1.37505E+2   2.75658E+1
  -2.44874E+3   1.52216E+3
  -8.86028E+2  -1.28636E+3
   2.14186E+1  -1.38846E+3
  -9.07493E+2   5.86236E+2
  -2.07587E+2  -1.60009E+3
  -1.31429E+3  -1.75611E+3
  -1.32767E+3  -2.06394E+3
  -1.07514E+3  -1.31357E+3
   1.92473E+3  -3.45393E+2
   6.59619E+2  -1.67883E+0
   2.42732E+2  -1.73862E+2
   4.53088E-2   1.11951E+3
   8.94678E+1  -3.94327E+2
  -1.92003E+3  -8.24598E+2
  -8.86357E+2  -2.06577E+1
  -1.85298E+3  -1.35795E+3
  -2.02283E+3  -9.67888E+2
   6.88852E+2   5.16308E+2
   2.62711E+2  -7.40583E+2
  -1.39145E+3  -2.66007E+2
  -1.89697E+3   3.26749E+3
  -1.21303E+3   1.04564E+3
  -9.58140E+2  -4.43157E+2
   4.81329E+2   5.72310E+2
  -2.30454E+2   2.12892E+2
   2.01403E+1   1.30100E+3
  -2.07945E+3  -1.95562E+3
   9.90853E+2   5.66200E+2
  -1.83322E+2   1.49406E+2
   8.51105E+2  -1.00651E+3
  -1.74330E+1   1.11473E+3
   8.30119E+2  -8.20620E+2
  -8.10403E+2   4.54042E+2
   1.55894E+3   2.69135E+2
  -8.82969E+2  -1.42842E+3
  -1.31370E+3   8.04283E+2
  -2.18234E+3   1.86760E+2
  -1.12846E+3  -2.57759E+2
  -8.09847E+2   4.10210E+2
  -5.45415E+2   1.40283E+3
   1.27033E+3  -8.40886E+1
   4.92223E+2   7.44279E+2
   1.05978E+2   6.82216E+2
   4.39241E+2   1.41433E+3
  -1.71643E+3  -1.66134E+2
   1.33437E+3  -3.15812E+2
   1.17864E+3  -4.24898E+2
   2.43174E+3   5.73994E+2
   1.16763E+3  -8.31101E+2
   5.16738E+2   9.64129E+2
  -4.48242E+2   1.24287E+2
  -5.16473E+1  -4.68540E+2
  -1.05452E+3  -2.03427E+2
   6.88387E+2   6.11272E+2
  -8.95784E+2   8.30982E+2
   5.41191E+2   1.24608E+3
  -1.45638E+3  -2.00007E+3
  -1.24028E+3   8.65003E+2
  -1.11424E+3  -1.44807E+3
   1.12144E+3  -2.49536E+3
   3.82451E+2   3.49208E+3
   4.47276E+2   2.46948E+3
  -1.26490E+3  -5.21901E+1
   1.81297E+1  -8.65347E+2
  -1.27649E+3  -9.17466E+2
  -4.05445E+2  -7.58084E+2
  -1.77314E+3  -1.72566E+3
   5.57365E+2   2.87304E+2
   2.48076E+3   1.42473E+3
  -7.01976E+1   2.84208E+1
  -4.45769E+2   2.00129E+2
  -3.13868E+2  -1.85243E+3
   8.44592E+2   6.10947E+2
  -1.07574E+2   8.79186E+1
  -1.21023E+3   2.27416E+3
   1.81405E+2  -1.68607E+3
   5.91327E+2  -1.09821E+3
  -2.17966E+3   1.02289E+3
  -2.13731E+3   1.96976E+3
  -4.44726E+2   5.36977E+2
   9.75770E+2  -1.73831E+3
   8.09936E+2  -1.32846E+3
  -3.15061E+2  -1.84945E+3
  -3.19789E+2   1.67430E+3
  -8.00927E+2  -1.60779E+3
   1.25424E+3   6.29138E+2
  -2.73666E+1  -6.12874E+2
   1.65420E+3  -1.03769E+3
   2.20995E+3   8.50604E+1
   1.31608E+3  -9.94216E+2
  -5.60365E+2  -8.63439E+2
   1.36426E+2   1.30755E+2
   6.00037E+2   4.63039E+1
  -8.39939E+2  -1.75161E+2
   1.17573E+3  -1.28724E+3
   9.22038E+1  -7.49878E+2
   1.26326E+3   2.42669E+3
   8.97771E+2   1.35503E+3
  -1.74316E+3  -6.44633E+2
  -1.38900E+3  -2.39151E+1
  -1.06302E+3  -1.23792E+3
  -9.98028E+1   8.18164E+2
  -8.76524E+2   5.78746E+2
  -2.98099E+3  -7.87898E+2
   6.24879E+0   1.11038E+3
   1.17298E+2  -4.44550E+2
  -1.75807E+3   5.63648E+1
  -1.25030E+3   2.52461E+3
   8.07564E+1  -1.88174E+3
  -3.66376E+2  -8.19879E+2
  -5.31072E+2  -2.21803E+2
   4.56222E+2  -2.02801E+2
   6.11873E+2   1.83234E+3
   9.17141E+2  -1.22950E+2
   1.01225E+3   6.47032E+2
   1.01437E+3  -1.28686E+3
   2.96187E+3  -1.15620E+2
   6.06846E+2  -3.27229E+2
  -1.86541E+2   1.87413E+2
  -1.15165E+3  -1.11873E+3
  -1.19217E+3   1.57930E+3
  -6.57089E+2   7.99360E+2
  -6.19962E+2   2.04390E+3
  -2.07443E+2   6.98317E+2
   8.53059E+1   6.05176E+2
   1.87354E+2  -2.21387E+2
  -3.73100E+2   1.54883E+2
  -1.01555E+3   1.00556E+3
  -3.99908E+2   2.10207E+2
  -1.47284E+3   1.39651E+3
  -5.79493E+2  -1.23532E+3
  -2.13426E+3  -9.51943E+1
   1.27409E+3  -1.42238E+1
  -1.46271E+3   8.31509E+2
   6.29091E+2  -5.72742E+1
  -2.36589E+2  -3.61582E+2
  -1.75013E+2   5.29808E+2
   7.37047E+1   1.46463E+3
   1.20611E+3   4.40234E+2
   1.93663E+2  -1.25335E+3
  -2.48584E+3  -8.41615E+2
   7.07638E+2  -1.38315E+3
   9.35330E+2   1.15131E+3
   9.43208E+2   9.93281E+2
   6.77818E+2   6.92343E+2
   6.86974E+1  -1.11991E+3
  -1.33260E+3   1.76245E+3
  -3.22483E+2  -5.91657E+2
   6.37839E+2   7.34924E+2
  -6.18559E+2   4.90664E+2
   1.79906E+3  -2.05466E+3
  -1.11541E+3   6.01670E+2
  -1.06050E+3   1.15987E+2
   2.27864E+3  -9.16665E+1
   1.32668E+3   1.58906E+3
  -6.61172E+2   3.57687E+2
  -7.71374E+2   6.37529E+2
  -1.27678E+3  -5.89868E+2
  -5.74896E+2  -1.69830E+3
  -1.72002E+3  -1.18901E+3
  -1.62858E+3   7.66873E+1
   7.22211E+2   1.79462E+3
  -3.31493E+2   5.74993E+2
  -1.78793E+3  -2.08147E+2
  -1.06639E+3   2.29903E+1
  -2.18035E+2   3.49057E+2
  -1.75972E+3   6.36291E+2
   5.16807E+2  -5.03090E+2
  -9.97795E+2  -4.84568E+2
   1.67456E+3   6.03289E+2
  -5.81887E+2   4.40114E+2
  -5.71949E+2  -2.24554E+2
   3.60968E+2   1.43528E+2
   1.71470E+3   1.48866E+3
  -1.13464E+2   1.84000E+3
   1.62232E+3  -8.00035E+2
  -3.41024E+1   1.14220E+3
   1.87114E+3  -7.05510E+2
  -1.01484E+3   1.02429E+3
   1.40327E+2  -6.29286E+2
  -1.71965E+3  -3.55019E+2
  -1.96771E+3  -4.29775E+2
  -6.50666E+2   1.17294E+3
   1.72697E+3  -1.13136E+2
  -4.56905E+2   1.67497E+2
  -1.38228E+3  -5.17776E+2
   1.27249E+3  -1.42588E+3
  -1.41750E+3  -3.58753E+2
  -1.15027E+3  -7.27384E+2
  -4.13713E+2   9.95586E+1
   1.10489E+3  -1.92814E+3
   1.39246E+3   5.17985E+2
   1.37515E+3  -3.77279E+2
  -1.53512E+3  -4.35604E+2
  -1.54664E+3  -1.98309E+3
   1.01621E+3  -5.56123E+2
  -1.05338E+3   2.26115E+2
  -1.95570E+1  -6.05013E+0
  -1.52032E+3  -1.41698E+3
   5.44121E+2  -1.03868E+3
   7.16946E+2  -2.09030E+3
  -3.64620E+2   1.38462E+3
   1.05819E+3   2.13806E+2
  -5.34696E+2  -3.48459E+2
  -7.81406E+2   7.77331E+2
  -4.43043E+2   1.69448E+3
   4.73762E+2  -9.98610E+2
   7.45327E+2   4.56075E+2
   1.47313E+3  -1.01707E+1
   1.58375E+3  -6.58538E+2
  -7.59574E+2   9.51735E+2
  -2.23994E+2  -1.00316E+3
   1.71939E+3  -1.07024E+2
   1.03158E+3   3.56869E+2
   1.00544E+3   1.56667E+3
  -1.35018E+2  -6.94060E+2
  -7.22407E+2   4.28211E+2
  -2.15421E+2  -1.45822E+3
  -3.03730E+2  -1.15436E+3
   1.37409E+3   8.08293E+2
  -1.23158E+3   2.56904E+2
  -3.74683E+2  -3.42636E+2
   2.29214E+3  -1.02760E+3
  -7.76684E+1   5.05409E+1
   1.18525E+3  -1.15713E+3
