 
 $NMID
 ID=''
 FMTDAT='(2E13.5)'
 TRAMP=   1.00000E+0
 VOLUME=   1.00000E+0
 $END
   4.58795E+1  -4.64889E+2
   5.44345E+2  -1.34128E+2
  -2.28460E+3  -1.95609E+3
  -1.99269E+3   2.15866E+3
   5.67930E+1   4.74444E+3
   3.32503E+3   1.31445E+3
   1.79619E+3   1.83766E+3
   2.01371E+3  -7.20819E+2
  -5.83542E+1  -2.44750E+3
  -4.83999E+1  -2.58489E+3
   8.97594E+2  -2.05894E+3
   2.25487E+3   1.35617E+3
   1.40050E+3   8.88696E+2
  -1.58843E+2   5.30155E+3
  -1.51143E+3  -1.49861E+3
  -1.11001E+3  -6.48094E+3
   2.31842E+3  -5.01962E+3
   4.48753E+2  -2.34913E+3
  -3.41332E+3  -5.30788E+2
  -5.00569E+3  -1.19993E+3
  -2.23326E+3  -3.83242E+3
  -1.48558E+2   3.37088E+3
  -3.23054E+3   5.74786E+3
  -7.30946E+3  -1.82089E+3
  -2.17773E+3  -5.90703E+3
   2.47908E+3   1.96088E+3
  -1.96725E+3   4.73337E+3
  -4.29247E+3  -1.55705E+3
  -3.72899E+3  -1.34335E+3
   2.68164E+3  -3.14771E+3
   4.92890E+3   1.94282E+3
   1.87056E+3   6.19056E+3
  -3.27501E+3   3.03804E+3
  -2.56643E+3   4.02409E+2
  -1.39926E+3  -4.79253E+2
  -3.77620E+3  -1.87792E+3
   1.60908E+3  -4.23736E+3
   6.01526E+3  -2.23129E+3
   3.30902E+3   4.47533E+2
   3.57481E+3   4.29621E+2
   2.34413E+3   4.43289E+3
  -1.41395E+3   5.05733E+3
  -2.91715E+3  -2.49711E+3
   5.38783E+2  -4.54308E+3
   3.02187E+3  -9.38249E+2
   2.28512E+3   9.37556E+1
   2.26522E+3  -7.73726E+2
   2.35000E+3   2.83885E+3
  -1.16974E+3   2.33790E+3
   1.35384E+3   8.47711E+2
  -3.37437E+3  -1.16517E+3
  -1.86849E+3  -1.37908E+3
   7.24567E+2  -3.34624E+3
   4.29872E+3  -1.48636E+3
   3.95808E+3   7.81464E+2
   3.72363E+3   1.99737E+3
   1.11338E+3   2.69917E+3
  -1.74554E+3   2.18904E+3
  -2.74124E+3  -1.03765E+3
  -3.56656E+2  -4.68662E+3
   1.60688E+3  -3.56798E+3
   5.34685E+3  -2.38506E+3
   2.94382E+3   1.25037E+3
  -3.57281E+2   2.40167E+3
  -1.58226E+3  -1.06698E+3
   3.02016E+3  -1.14613E+3
   2.59257E+3   2.02574E+3
   6.67046E+2   4.02645E+3
  -2.18485E+3  -2.10485E+2
  -2.18538E+3   5.05334E+2
  -2.48706E+3   2.17621E+3
  -9.67774E+1   1.67909E+3
   2.16734E+2   3.40022E+2
  -8.47373E+2  -1.02959E+3
  -1.95498E+3  -2.69059E+3
   3.90502E+2  -1.30220E+3
  -1.81475E+3  -2.13863E+3
  -3.89451E+3  -5.54492E+2
  -2.74745E+2  -3.97121E+3
   1.66217E+3  -2.61805E+3
   1.71631E+3   1.56220E+3
   2.39557E+2  -9.53926E+2
   4.00946E+2  -2.24254E+3
   3.32332E+3  -9.95505E+2
  -1.29527E+3  -7.97429E+1
  -3.41569E+3   6.11388E+1
  -5.03186E+3  -1.76522E+3
  -2.33886E+3  -3.37422E+3
   1.52173E+3  -7.73538E+2
   2.47923E+3   6.12820E+1
   2.01740E+3  -2.65589E+3
  -4.40450E+2  -1.18551E+3
   4.58641E+3  -5.42882E+1
   9.86594E+2   4.09224E+3
   4.04366E+2   1.70828E+3
  -2.68018E+3   3.94643E+2
  -9.33603E+2  -3.71502E+3
   2.70865E+3  -8.67497E+1
  -1.28178E+3   2.46220E+3
  -2.09451E+3   1.49366E+3
  -3.17461E+3  -1.06931E+3
   3.64867E+2  -3.34014E+3
   3.12019E+3  -1.45865E+3
   7.02961E+2   2.86157E+3
  -2.06865E+3   1.80254E+3
  -1.53797E+3  -7.21242E+2
  -2.28056E+3  -8.79071E+2
  -2.12956E+3   1.74814E+3
  -4.48896E+3   1.63266E+3
  -1.73903E+3  -5.14026E+3
   1.14609E+3  -2.35119E+3
   2.74016E+3  -2.84113E+2
   1.44924E+3   9.89236E+2
   9.58065E+2   2.30375E+3
   8.10198E+2   1.51644E+3
  -8.98768E+2   3.18915E+3
  -2.21038E+3   1.83444E+3
  -8.64317E+2   1.50669E+3
  -6.95314E+2   8.22501E+2
   1.42101E+2  -1.22507E+3
   1.72865E+3  -1.63253E+3
   2.01052E+3   2.75397E+2
  -5.09835E+2  -6.86454E+2
  -4.61317E+2   1.42437E+3
   5.77514E+2  -1.60506E+3
  -1.27915E+3   1.29864E+3
  -1.50539E+3   1.04616E+2
  -7.88336E+2  -1.32267E+3
   8.48447E+2   1.53141E+3
   3.10600E+2   2.32523E+3
  -7.01147E+2   1.35728E+3
  -5.75600E+2  -1.21185E+3
   2.59451E+3  -1.40671E+3
   3.31849E+3   1.21321E+3
   2.55846E+3   2.30945E+3
  -1.30077E+3   3.04477E+3
   6.26929E+2   1.79686E+3
  -1.53293E+3   1.18182E+3
  -9.64343E+2   1.73521E+3
   8.92567E+2  -1.28458E+3
   9.61251E+2   1.26843E+3
   1.48100E+3  -3.84743E+2
   1.39364E+3   6.10559E+2
   1.86482E+3  -6.98608E+2
  -2.06978E+3   3.22476E+2
   2.10895E+2   1.51690E+3
   5.80880E+2   5.61809E+2
   1.04588E+3   5.12864E+2
  -1.04401E+2  -3.69355E+2
   1.51244E+3  -2.30870E+2
  -3.04780E+2   1.30711E+3
  -6.42299E+2   2.76439E+2
  -2.44332E+3   1.31682E+3
  -1.00820E+3   1.02294E+3
   1.20658E+3  -8.41997E+2
   2.35644E+3  -1.00843E+3
   2.39716E+2  -3.80339E+2
   3.53978E+2   7.73013E+2
  -6.43541E+2   1.50334E+3
   6.21498E+2  -6.38763E+2
   1.48213E+2  -6.43417E+2
  -7.48026E+2   8.02724E+2
  -4.15052E+2   4.75074E+2
  -6.17986E+2  -1.44527E+3
   2.43485E+2  -1.48130E+3
   1.36884E+3   2.31890E+2
  -2.67779E+3  -3.65865E+2
  -1.18469E+2   1.65858E+2
  -2.35471E+2  -8.48784E+2
   2.74643E+3   1.79978E+2
   1.49294E+3  -1.17509E+3
  -1.47607E+3   1.35828E+3
  -1.46645E+3   2.98999E+3
  -1.51001E+3   8.82103E+2
   8.22620E+2  -1.06513E+3
  -1.66967E+3  -1.00931E+2
  -1.25077E+3  -6.25667E+2
   1.39841E+2   3.19994E+2
   3.20216E+3   9.30883E+2
   3.03682E+3   1.22079E+3
  -4.00170E+2   2.62504E+3
   5.70927E+2   1.72885E+3
  -3.18379E+2   7.04082E+1
  -4.78164E+2  -1.11095E+3
   6.52640E+2   1.19933E+3
  -2.62050E+2  -3.04926E+2
   8.16695E+2   2.00284E+3
  -1.25550E+3   2.09481E+3
  -1.19389E+3   1.01593E+3
  -1.56847E+3  -1.35600E+3
  -1.01532E+3  -3.71380E+2
  -1.19306E+3  -1.10277E+2
   1.21113E+3   1.33544E+3
   8.31742E+2   1.87626E+3
   2.36345E+2  -5.91036E+1
   5.03781E+2  -1.37914E+3
  -1.25781E+1  -6.10585E+2
   5.00808E+2   8.50990E+2
  -2.10342E+3   1.15484E+3
  -3.87183E+2   3.61177E+2
   2.65408E+3   8.33558E+2
  -9.16999E+2   2.80089E+3
   1.11391E+2  -2.95400E+2
  -7.27681E+2   4.39028E+1
   2.22669E+2  -2.16733E+3
   2.12486E+3  -1.35107E+3
  -2.54753E+2   6.02142E+2
  -8.45283E+1  -1.27171E+3
   1.52695E+3  -1.78553E+3
   2.40136E+2  -2.06890E+3
   1.95091E+3   8.68762E+2
  -2.35834E+2   3.24994E+2
  -7.74201E+2  -7.04983E+2
  -3.79545E+2  -2.35051E+3
   1.62856E+3  -1.06608E+3
  -4.85690E+1   5.02509E+2
   4.44912E+2  -9.46142E+2
  -8.07680E+2   2.54882E+3
   1.07170E+3   2.38517E+3
   1.44241E+2  -1.20474E+2
  -1.80601E+3  -1.01198E+3
  -1.83284E+3   2.81724E+2
  -3.22969E+2  -4.31971E+2
   6.18474E+2   4.88114E+2
   1.78595E+2   1.14474E+3
  -2.11142E+2  -1.44715E+3
   9.50794E+2  -1.52551E+3
   1.41086E+3  -1.38452E+3
   2.82318E+3  -8.95106E+2
   8.06768E+2  -1.70542E+2
  -8.54853E+1  -2.64145E+2
   5.30990E+2   1.15437E+3
   5.00093E+2   1.02717E+3
  -2.84963E+3   5.11533E+2
  -2.14604E+3  -1.17885E+3
   1.26833E+2  -1.36813E+3
   2.19484E+3  -1.76066E+3
   1.08913E+3  -9.24560E+2
  -9.95788E+2   2.12384E+2
   2.31181E+2   9.79680E+1
  -7.64003E+2  -1.97163E+3
   1.09450E+3  -9.16097E+1
   9.06859E+2   1.35038E+3
  -3.97358E+2   4.70398E+2
   6.32649E+2  -7.85679E+2
   1.44098E+3   3.63029E+2
   1.04375E+3   1.42290E+3
  -9.90091E+2   1.83106E+3
  -2.06833E+3  -1.03998E+3
   7.71598E+2  -1.99679E+3
  -3.17534E+2  -1.43114E+3
  -1.01331E+3   1.12757E+3
  -1.56157E+3  -1.14947E+3
  -4.55860E+2  -1.57365E+3
   2.20227E+2  -5.37300E+2
   1.06842E+3   1.07355E+2
   2.36348E+2   7.31912E+2
  -1.53516E+3  -1.74090E+3
   1.96703E+3  -4.66059E+2
   1.41730E+3   1.14743E+3
   1.05115E+3   1.92501E+3
  -1.77113E+2   8.88037E+2
  -4.11384E+1  -1.44193E+2
   2.44014E+2  -1.49962E+3
  -1.84357E+3   2.82497E+2
   4.91966E+2   4.78019E+2
  -3.41479E+2  -1.81934E+3
   1.92678E+2   4.80467E+2
   6.13174E+0  -9.85602E+0
  -9.85976E+2   1.55445E+3
  -2.62356E+3  -5.00043E+2
  -1.90868E+1  -2.03240E+3
   1.28076E+3  -1.80910E+3
   2.53887E+2  -6.01988E+2
   6.15555E+1  -1.20700E+3
  -3.91602E+2  -5.72961E+2
  -1.21922E+3   9.13250E+2
  -3.67721E+2  -6.99245E+2
  -1.52127E+3   2.32330E+3
  -2.62906E+3  -1.82814E+2
  -7.96427E+2  -1.39343E+3
   1.73760E+3  -1.22749E+2
   9.35130E+2   1.84119E+3
  -1.22576E+1  -1.94843E+3
  -1.41029E+3   3.55098E+2
  -4.98757E+2  -1.97004E+1
  -1.84382E+3  -1.35829E+3
   3.63288E+2   9.27493E+2
  -3.14343E+3  -7.74490E+2
  -2.00317E+3  -1.55724E+3
  -4.82850E+2   6.81502E+2
  -2.57376E+2   2.24217E+3
   2.52802E+2  -1.58421E+3
  -3.18009E+2   5.26820E+2
   7.10729E+2  -9.42897E+2
   1.09237E+3   9.41041E+2
  -3.26654E+2  -6.45467E+2
  -2.71235E+3   3.02757E+2
   8.88300E+1  -1.72959E+3
  -1.59820E+2  -8.32110E+2
   1.47069E+3   4.04029E+2
  -3.97767E+2   3.39519E+2
  -2.89474E+3  -4.22731E+2
   9.22040E+2  -6.81000E+2
   3.16782E+1   4.10712E+2
  -5.62334E+2  -5.42633E+1
  -1.21677E+3  -1.08219E+3
   4.14863E+2   3.25091E+1
   8.85772E+1  -1.16331E+3
   1.39208E+2   3.78483E+2
  -8.68940E+2   1.23474E+3
   4.56439E+2  -3.88196E+1
  -1.47312E+3   6.82907E+2
  -6.39093E+2  -1.41273E+2
   4.44671E+2  -4.87736E+2
   1.61822E+3  -1.03429E+2
   1.45905E+3  -4.27977E+2
   3.22255E+3   3.80613E+2
  -1.98311E+1   2.90016E+2
   1.80855E+3   7.44087E+2
  -1.80733E+3  -1.96798E+2
  -8.25849E+2  -1.16068E+3
   8.40657E+2  -1.30594E+3
   8.79708E+2  -5.75580E+2
  -1.27850E+3  -1.38720E+3
   4.82548E+2  -1.89949E+3
  -9.25056E+2   8.43197E+2
  -8.91477E+2  -4.33229E+2
  -3.35963E+3  -2.16999E+2
   5.01740E+0  -7.93063E+2
   1.84290E+3  -6.95599E+2
   5.18739E+2  -1.72379E+2
   7.34811E+2  -9.43892E+2
   2.36651E+2  -7.68300E+2
  -1.16279E+3  -1.25938E+3
  -7.00991E+0   1.91280E+3
   1.15224E+2  -9.17206E+2
   3.57359E+2   1.29342E+2
  -7.25105E+2  -1.01313E+3
   3.31086E+3   8.71375E+2
   2.47462E+3   1.54569E+2
  -2.85125E+3   7.66985E+2
   1.11686E+2  -6.44507E+2
  -7.46167E+2  -4.05311E+2
   7.46106E+2  -8.08514E+2
   3.74686E+2   1.50471E+2
   4.19853E+2  -2.88437E+2
   2.14625E+2  -6.31852E+2
  -1.82362E+3  -2.64290E+2
   1.30275E+3   1.91774E+3
   4.11676E+2   5.18358E+2
  -2.17058E+3   4.08221E+2
  -8.06489E+2   4.31521E+2
   7.12842E+2   1.09744E+3
   1.22818E+3  -7.22311E+2
  -1.87983E+3   5.38526E+2
  -1.60770E+2   4.85027E+2
   7.49922E+2  -1.16757E+3
   7.09014E+2  -2.43432E+2
  -8.37228E+2   9.03624E+2
  -2.63719E+2   6.93675E+2
   2.70982E+3  -2.37692E+3
   3.37260E+2   1.43170E+3
   3.32864E+2  -8.74036E+2
  -4.99782E+2   6.73034E+2
   1.23050E+3   3.75540E+2
   1.25427E+3  -1.20410E+3
