 
 $NMID
 ID=''
 FMTDAT='(2E13.5)'
 TRAMP=   1.00000E+0
 VOLUME=   1.00000E+0
 $END
  -6.62713E+3   1.67167E+4
  -2.79126E+4   3.66588E+4
  -2.00215E+4   4.12522E+4
  -1.72266E+4   3.81485E+4
  -1.82378E+4   3.91249E+4
  -1.56326E+4   4.03278E+4
  -1.42720E+4   3.87459E+4
  -1.43360E+4   3.89646E+4
  -1.23955E+4   3.95416E+4
  -1.12428E+4   3.85247E+4
  -1.10821E+4   3.85359E+4
  -9.23837E+3   3.88189E+4
  -8.06283E+3   3.81781E+4
  -7.82824E+3   3.81783E+4
  -6.43584E+3   3.82114E+4
  -5.23429E+3   3.76679E+4
  -4.72804E+3   3.75750E+4
  -3.46328E+3   3.76019E+4
  -2.31410E+3   3.71718E+4
  -1.80752E+3   3.71238E+4
  -6.53596E+2   3.69572E+4
   5.47858E+2   3.64906E+4
   1.13037E+3   3.63691E+4
   2.02250E+3   3.62405E+4
   3.01269E+3   3.55680E+4
   3.68489E+3   3.53532E+4
   4.55916E+3   3.51349E+4
   5.36102E+3   3.45050E+4
   5.99612E+3   3.41249E+4
   6.93169E+3   3.37413E+4
   7.82837E+3   3.31788E+4
   8.61138E+3   3.27344E+4
   9.39721E+3   3.24246E+4
   1.01028E+4   3.18312E+4
   1.09239E+4   3.13597E+4
   1.16789E+4   3.09826E+4
   1.24224E+4   3.03613E+4
   1.32385E+4   2.99188E+4
   1.40592E+4   2.94750E+4
   1.47365E+4   2.89667E+4
   1.54083E+4   2.84305E+4
   1.58810E+4   2.80424E+4
   1.63086E+4   2.74611E+4
   1.68890E+4   2.68015E+4
   1.74839E+4   2.62775E+4
   1.79605E+4   2.58071E+4
   1.83457E+4   2.52023E+4
   1.89234E+4   2.46395E+4
   1.93033E+4   2.40600E+4
   1.95886E+4   2.34650E+4
   1.99377E+4   2.28972E+4
   2.02591E+4   2.22073E+4
   2.06578E+4   2.15592E+4
   2.10587E+4   2.09115E+4
   2.12812E+4   2.02323E+4
   2.15310E+4   1.95874E+4
   2.17647E+4   1.89571E+4
   2.19944E+4   1.83659E+4
   2.21597E+4   1.76448E+4
   2.22875E+4   1.68384E+4
   2.24812E+4   1.60896E+4
   2.26683E+4   1.53829E+4
   2.28904E+4   1.47413E+4
   2.29453E+4   1.39900E+4
   2.30749E+4   1.33156E+4
   2.31731E+4   1.27376E+4
   2.33011E+4   1.19810E+4
   2.33858E+4   1.13277E+4
   2.34435E+4   1.05889E+4
   2.34991E+4   9.97135E+3
   2.35390E+4   9.22692E+3
   2.35448E+4   8.59528E+3
   2.35259E+4   7.94454E+3
   2.34845E+4   7.27765E+3
   2.35187E+4   6.54352E+3
   2.34644E+4   5.89956E+3
   2.34485E+4   5.23318E+3
   2.32989E+4   4.62645E+3
   2.32391E+4   4.00737E+3
   2.32026E+4   3.41069E+3
   2.30573E+4   2.77643E+3
   2.29913E+4   2.16396E+3
   2.28352E+4   1.59926E+3
   2.26844E+4   1.06238E+3
   2.25933E+4   5.67260E+2
   2.23685E+4   7.08342E+1
   2.21823E+4  -4.05642E+2
   2.19533E+4  -9.53255E+2
   2.18784E+4  -1.51813E+3
   2.15834E+4  -1.99976E+3
   2.14065E+4  -2.36036E+3
   2.12442E+4  -2.81241E+3
   2.10733E+4  -3.33623E+3
   2.07158E+4  -3.72265E+3
   2.05604E+4  -4.17383E+3
   2.01559E+4  -4.54367E+3
   1.99400E+4  -4.98479E+3
   1.97330E+4  -5.33455E+3
   1.94241E+4  -5.68631E+3
   1.92562E+4  -5.96790E+3
   1.89108E+4  -6.31142E+3
   1.85886E+4  -6.67050E+3
   1.83269E+4  -6.96371E+3
   1.80236E+4  -7.27609E+3
   1.77343E+4  -7.54050E+3
   1.74319E+4  -7.84745E+3
   1.71270E+4  -8.11209E+3
   1.69504E+4  -8.25873E+3
   1.65967E+4  -8.54154E+3
   1.62095E+4  -8.67546E+3
   1.58778E+4  -8.93654E+3
   1.56097E+4  -9.14741E+3
   1.52671E+4  -9.25209E+3
   1.49783E+4  -9.53400E+3
   1.46261E+4  -9.61761E+3
   1.43357E+4  -9.66628E+3
   1.39878E+4  -9.81378E+3
   1.36155E+4  -9.93148E+3
   1.33125E+4  -1.00031E+4
   1.29981E+4  -1.01176E+4
   1.26066E+4  -1.02111E+4
   1.22905E+4  -1.02570E+4
   1.20142E+4  -1.02881E+4
   1.17086E+4  -1.02880E+4
   1.12520E+4  -1.03986E+4
   1.09249E+4  -1.03596E+4
   1.05978E+4  -1.04039E+4
   1.02987E+4  -1.04508E+4
   9.93035E+3  -1.03845E+4
   9.55443E+3  -1.04112E+4
   9.25070E+3  -1.04415E+4
   8.87482E+3  -1.03629E+4
   8.61730E+3  -1.03700E+4
   8.27900E+3  -1.03343E+4
   7.94079E+3  -1.02950E+4
   7.63990E+3  -1.01972E+4
   7.31857E+3  -1.02412E+4
   6.96753E+3  -1.01751E+4
   6.65383E+3  -1.01444E+4
   6.31966E+3  -9.99363E+3
   6.04707E+3  -9.93133E+3
   5.71439E+3  -9.91068E+3
   5.43817E+3  -9.84474E+3
   5.22774E+3  -9.78954E+3
   4.91553E+3  -9.64975E+3
   4.62214E+3  -9.55697E+3
   4.35367E+3  -9.50983E+3
   4.09383E+3  -9.42097E+3
   3.81078E+3  -9.30108E+3
   3.54472E+3  -9.16088E+3
   3.38901E+3  -9.09969E+3
   3.14402E+3  -8.95117E+3
   2.93400E+3  -8.79198E+3
   2.68561E+3  -8.76229E+3
   2.48013E+3  -8.58172E+3
   2.30051E+3  -8.46297E+3
   2.06015E+3  -8.37642E+3
   1.85591E+3  -8.28203E+3
   1.70336E+3  -8.18153E+3
   1.58040E+3  -8.03117E+3
   1.40359E+3  -7.93532E+3
   1.21274E+3  -7.82889E+3
   1.05554E+3  -7.67113E+3
   8.54976E+2  -7.55847E+3
   7.56660E+2  -7.40970E+3
   5.68279E+2  -7.32377E+3
   4.12977E+2  -7.17939E+3
   3.78432E+2  -7.09786E+3
   1.36872E+2  -6.94982E+3
   1.11998E+2  -6.75525E+3
  -2.03064E+1  -6.66422E+3
  -1.75163E+2  -6.54575E+3
  -2.48416E+2  -6.45619E+3
  -2.96130E+2  -6.36233E+3
  -4.54938E+2  -6.24732E+3
  -5.19795E+2  -6.10605E+3
  -6.11484E+2  -5.99954E+3
  -7.46275E+2  -5.85516E+3
  -8.17306E+2  -5.80647E+3
  -8.35029E+2  -5.69591E+3
  -9.34416E+2  -5.55423E+3
  -1.03864E+3  -5.43718E+3
  -9.95799E+2  -5.42890E+3
  -1.16691E+3  -5.31674E+3
  -1.13237E+3  -5.20356E+3
  -1.17932E+3  -5.09457E+3
  -1.24763E+3  -4.94898E+3
  -1.26832E+3  -4.94644E+3
  -1.35568E+3  -4.87655E+3
  -1.38155E+3  -4.73301E+3
  -1.33423E+3  -4.64541E+3
  -1.38601E+3  -4.52616E+3
  -1.38014E+3  -4.52646E+3
  -1.48232E+3  -4.43863E+3
  -1.49242E+3  -4.35105E+3
  -1.43289E+3  -4.31888E+3
  -1.52142E+3  -4.21165E+3
  -1.47298E+3  -4.13511E+3
  -1.52178E+3  -4.10627E+3
  -1.48949E+3  -4.01179E+3
  -1.52425E+3  -3.98106E+3
  -1.44975E+3  -3.92037E+3
  -1.47215E+3  -3.87844E+3
  -1.42763E+3  -3.74951E+3
  -1.45224E+3  -3.73702E+3
  -1.45451E+3  -3.66149E+3
  -1.44861E+3  -3.65622E+3
  -1.51597E+3  -3.52042E+3
  -1.45637E+3  -3.47344E+3
  -1.40711E+3  -3.42323E+3
  -1.41135E+3  -3.37041E+3
  -1.36385E+3  -3.37469E+3
  -1.36950E+3  -3.31935E+3
  -1.43450E+3  -3.25370E+3
  -1.46314E+3  -3.16344E+3
  -1.40917E+3  -3.17136E+3
  -1.31698E+3  -3.14287E+3
  -1.28877E+3  -3.09359E+3
  -1.30273E+3  -3.03791E+3
  -1.36859E+3  -3.09222E+3
  -1.21975E+3  -3.05860E+3
  -1.31329E+3  -3.07904E+3
  -1.23267E+3  -3.00893E+3
  -1.23709E+3  -3.01125E+3
  -1.30453E+3  -2.99426E+3
  -1.26487E+3  -2.85711E+3
  -1.20508E+3  -2.81739E+3
  -1.25398E+3  -2.88170E+3
  -1.21462E+3  -2.86463E+3
  -1.24183E+3  -2.93953E+3
  -1.13636E+3  -2.87922E+3
  -1.19459E+3  -2.87493E+3
  -1.18535E+3  -2.80032E+3
  -1.14578E+3  -2.82086E+3
  -1.05595E+3  -2.79446E+3
  -1.13064E+3  -2.78222E+3
  -1.10083E+3  -2.79876E+3
  -1.08763E+3  -2.75027E+3
  -1.10506E+3  -2.81666E+3
  -1.10534E+3  -2.77551E+3
  -1.08177E+3  -2.76040E+3
  -1.09734E+3  -2.77725E+3
  -1.06461E+3  -2.79880E+3
  -1.07612E+3  -2.77146E+3
  -9.24931E+2  -2.75111E+3
  -9.86223E+2  -2.70675E+3
  -9.31978E+2  -2.78762E+3
  -9.55792E+2  -2.76162E+3
  -9.65287E+2  -2.71930E+3
  -9.93101E+2  -2.69781E+3
  -9.95439E+2  -2.71897E+3
  -9.62583E+2  -2.81174E+3
  -9.55728E+2  -2.70958E+3
  -9.82082E+2  -2.77487E+3
  -9.82433E+2  -2.75622E+3
  -1.00278E+3  -2.71645E+3
  -1.02308E+3  -2.68058E+3
  -9.93632E+2  -2.73596E+3
  -1.02115E+3  -2.67013E+3
  -1.02492E+3  -2.72318E+3
  -1.01642E+3  -2.71153E+3
  -1.02423E+3  -2.72806E+3
  -9.86996E+2  -2.73533E+3
  -1.00519E+3  -2.74696E+3
  -1.01719E+3  -2.64759E+3
  -1.02197E+3  -2.70040E+3
  -1.09872E+3  -2.62069E+3
  -1.02282E+3  -2.68864E+3
  -1.03699E+3  -2.67884E+3
  -1.06009E+3  -2.63555E+3
  -1.08592E+3  -2.62797E+3
  -1.16521E+3  -2.62246E+3
  -1.18096E+3  -2.66371E+3
  -1.12814E+3  -2.63475E+3
  -1.17701E+3  -2.62834E+3
  -1.11700E+3  -2.55625E+3
  -1.15148E+3  -2.51802E+3
  -1.19059E+3  -2.56766E+3
  -1.14982E+3  -2.53257E+3
  -1.21198E+3  -2.50987E+3
  -1.22056E+3  -2.55996E+3
  -1.23521E+3  -2.51583E+3
  -1.14015E+3  -2.50833E+3
  -1.21534E+3  -2.40232E+3
  -1.17109E+3  -2.45212E+3
  -1.24348E+3  -2.33204E+3
  -1.28409E+3  -2.44723E+3
  -1.27336E+3  -2.34508E+3
  -1.37558E+3  -2.37221E+3
  -1.33162E+3  -2.37476E+3
  -1.26313E+3  -2.33114E+3
  -1.40512E+3  -2.25205E+3
  -1.35168E+3  -2.22637E+3
  -1.33113E+3  -2.19804E+3
  -1.41114E+3  -2.17822E+3
  -1.41937E+3  -2.28900E+3
  -1.39052E+3  -2.12862E+3
  -1.44391E+3  -2.14257E+3
  -1.40451E+3  -2.07507E+3
  -1.44138E+3  -2.02810E+3
  -1.42921E+3  -2.04708E+3
  -1.48507E+3  -1.99107E+3
  -1.42573E+3  -2.00455E+3
  -1.49667E+3  -1.99611E+3
  -1.49107E+3  -1.89027E+3
  -1.46892E+3  -1.89341E+3
  -1.47319E+3  -1.89180E+3
  -1.45473E+3  -1.83692E+3
  -1.53856E+3  -1.70870E+3
  -1.51292E+3  -1.79894E+3
  -1.59556E+3  -1.78483E+3
  -1.54427E+3  -1.65794E+3
  -1.55605E+3  -1.63490E+3
  -1.50277E+3  -1.52464E+3
  -1.53142E+3  -1.62178E+3
  -1.55592E+3  -1.58025E+3
  -1.45719E+3  -1.53969E+3
  -1.51884E+3  -1.44174E+3
  -1.55738E+3  -1.49865E+3
  -1.52989E+3  -1.43366E+3
  -1.50684E+3  -1.39731E+3
  -1.51363E+3  -1.28866E+3
  -1.48184E+3  -1.30789E+3
  -1.54018E+3  -1.27020E+3
  -1.49180E+3  -1.26943E+3
  -1.50672E+3  -1.27484E+3
  -1.54087E+3  -1.13047E+3
  -1.49674E+3  -1.14177E+3
  -1.51982E+3  -1.04399E+3
  -1.53361E+3  -9.94833E+2
  -1.52468E+3  -9.63095E+2
  -1.47662E+3  -9.61388E+2
  -1.50511E+3  -9.08408E+2
  -1.46192E+3  -8.97445E+2
  -1.52672E+3  -7.94570E+2
  -1.46699E+3  -7.67145E+2
  -1.42937E+3  -6.98949E+2
  -1.46190E+3  -6.56265E+2
  -1.44456E+3  -6.61782E+2
  -1.52093E+3  -7.24709E+2
  -1.38839E+3  -5.47403E+2
  -1.42508E+3  -5.19081E+2
  -1.49423E+3  -4.81653E+2
  -1.37122E+3  -4.62150E+2
  -1.39808E+3  -4.40190E+2
  -1.39405E+3  -3.85949E+2
  -1.35570E+3  -2.96151E+2
  -1.34428E+3  -3.38554E+2
  -1.34047E+3  -2.54568E+2
  -1.36403E+3  -1.83625E+2
  -1.27290E+3  -1.94464E+2
  -1.33780E+3  -1.59457E+2
  -1.30075E+3  -1.32087E+2
  -1.33235E+3  -4.85646E+1
  -1.21385E+3  -6.18875E+1
  -1.21045E+3   9.39457E+0
  -1.21256E+3   1.32691E+1
  -1.13103E+3   6.75037E+1
  -1.12533E+3   1.64433E+1
  -1.16296E+3   6.40893E+1
  -1.11542E+3   1.18023E+2
  -1.09576E+3   1.84738E+2
  -1.07007E+3   1.81951E+2
  -1.03892E+3   2.18551E+2
  -1.02523E+3   2.47979E+2
  -9.77376E+2   3.40405E+2
  -9.43580E+2   3.27415E+2
