 LCModel (Version 6.3-1N) Copyright: S.W. Provencher.          Ref.: Magn. Reson. Med. 30:672-679 (1993).                
 Slice_N1@25_22  02-Jun-2023 14:38:06
 27 lines in following concentration table = NCONC+1
    Conc.  %SD /Cr+PCr  Metabolite                                         
 1.86E-06  26% 2.4E-04 Mac                                                 
 6.19E-02  20%   8.000 Cr                                                  
    0.000 999%   0.000 PCr                                                 
    0.123  15%  15.923 Ins                                                 
    0.119  11%  15.379 NAA                                                 
    0.126  15%  16.283 Tau                                                 
 1.02E-02  43%   1.319 PCho                                                
    0.000 999%   0.000 GPC                                                 
    0.116  16%  15.031 Glu                                                 
 1.22E-02  94%   1.572 Gln                                                 
 4.09E-02  36%   5.280 Ala                                                 
 8.35E-02  31%  10.790 Asc                                                 
 9.15E-03  77%   1.182 Asp                                                 
 7.70E-03  53%   0.995 GABA                                                
 7.18E-03  60%   0.927 Glc                                                 
 5.07E-03  98%   0.655 GSH                                                 
    0.000 999%   0.000 Lac                                                 
    0.000 999%   0.000 NAAG                                                
    0.000 999%   0.000 PE                                                  
 1.02E-02  43%   1.319 GPC+PCho                                            
    0.119  11%  15.379 NAA+NAAG                                            
    0.128  17%  16.603 Glu+Gln                                             
 6.19E-02  20%   8.000 Cr+PCr                                              
    0.119  11%  15.379 NAA+NAAG                                            
 6.19E-02  20%   8.000 Cr+PCr                                              
    0.128  17%  16.603 Glu+Gln                                             
   6 lines in following misc. output table
  FWHM = 0.081 ppm    S/N =   1                                            
  Data shift = 0.151 ppm                                                   
  Ph:  57 deg      -0.3 deg/ppm                                            
  alphaB,S = 1.1E+01,   1.3E+02                                            
   18 spline knots.   Ns = 7(2)                                            
   2 inflections.     1 extrema                                            
  654 points on ppm-axis = NY
      4.000000     3.994181     3.988363     3.982544     3.976726     3.970907     3.965088     3.959270     3.953451     3.947633
      3.941814     3.935995     3.930177     3.924358     3.918540     3.912721     3.906902     3.901084     3.895265     3.889446
      3.883628     3.877809     3.871991     3.866172     3.860353     3.854535     3.848716     3.842898     3.837079     3.831260
      3.825442     3.819623     3.813805     3.807986     3.802167     3.796349     3.790530     3.784712     3.778893     3.773074
      3.767256     3.761437     3.755619     3.749800     3.743981     3.738163     3.732344     3.726526     3.720707     3.714888
      3.709070     3.703251     3.697433     3.691614     3.685795     3.679977     3.674158     3.668339     3.662521     3.656702
      3.650884     3.645065     3.639246     3.633428     3.627609     3.621791     3.615972     3.610153     3.604335     3.598516
      3.592698     3.586879     3.581060     3.575242     3.569423     3.563605     3.557786     3.551967     3.546149     3.540330
      3.534512     3.528693     3.522874     3.517056     3.511237     3.505419     3.499600     3.493781     3.487963     3.482144
      3.476326     3.470507     3.464688     3.458870     3.453051     3.447232     3.441414     3.435595     3.429777     3.423958
      3.418139     3.412321     3.406502     3.400684     3.394865     3.389046     3.383228     3.377409     3.371591     3.365772
      3.359953     3.354135     3.348316     3.342498     3.336679     3.330860     3.325042     3.319223     3.313405     3.307586
      3.301767     3.295949     3.290130     3.284312     3.278493     3.272674     3.266856     3.261037     3.255219     3.249400
      3.243581     3.237763     3.231944     3.226125     3.220307     3.214488     3.208670     3.202851     3.197032     3.191214
      3.185395     3.179577     3.173758     3.167939     3.162121     3.156302     3.150484     3.144665     3.138846     3.133028
      3.127209     3.121391     3.115572     3.109753     3.103935     3.098116     3.092298     3.086479     3.080660     3.074842
      3.069023     3.063205     3.057386     3.051567     3.045749     3.039930     3.034111     3.028293     3.022474     3.016656
      3.010837     3.005018     2.999200     2.993381     2.987563     2.981744     2.975925     2.970107     2.964288     2.958470
      2.952651     2.946832     2.941014     2.935195     2.929377     2.923558     2.917739     2.911921     2.906102     2.900284
      2.894465     2.888646     2.882828     2.877009     2.871191     2.865372     2.859553     2.853735     2.847916     2.842098
      2.836279     2.830460     2.824642     2.818823     2.813004     2.807186     2.801367     2.795549     2.789730     2.783911
      2.778093     2.772274     2.766456     2.760637     2.754818     2.749000     2.743181     2.737363     2.731544     2.725725
      2.719907     2.714088     2.708270     2.702451     2.696632     2.690814     2.684995     2.679177     2.673358     2.667539
      2.661721     2.655902     2.650084     2.644265     2.638446     2.632628     2.626809     2.620991     2.615172     2.609353
      2.603535     2.597716     2.591897     2.586079     2.580260     2.574442     2.568623     2.562804     2.556986     2.551167
      2.545349     2.539530     2.533711     2.527893     2.522074     2.516256     2.510437     2.504618     2.498800     2.492981
      2.487163     2.481344     2.475525     2.469707     2.463888     2.458070     2.452251     2.446432     2.440614     2.434795
      2.428977     2.423158     2.417339     2.411521     2.405702     2.399884     2.394065     2.388246     2.382428     2.376609
      2.370790     2.364972     2.359153     2.353335     2.347516     2.341697     2.335879     2.330060     2.324242     2.318423
      2.312604     2.306786     2.300967     2.295149     2.289330     2.283511     2.277693     2.271874     2.266056     2.260237
      2.254418     2.248600     2.242781     2.236963     2.231144     2.225325     2.219507     2.213688     2.207870     2.202051
      2.196232     2.190414     2.184595     2.178777     2.172958     2.167139     2.161321     2.155502     2.149683     2.143865
      2.138046     2.132228     2.126409     2.120590     2.114772     2.108953     2.103135     2.097316     2.091497     2.085679
      2.079860     2.074042     2.068223     2.062404     2.056586     2.050767     2.044949     2.039130     2.033311     2.027493
      2.021674     2.015856     2.010037     2.004218     1.998400     1.992581     1.986763     1.980944     1.975126     1.969307
      1.963489     1.957670     1.951852     1.946033     1.940215     1.934397     1.928578     1.922760     1.916941     1.911123
      1.905304     1.899486     1.893667     1.887849     1.882030     1.876212     1.870393     1.864575     1.858756     1.852938
      1.847119     1.841301     1.835482     1.829664     1.823845     1.818027     1.812208     1.806390     1.800571     1.794753
      1.788934     1.783116     1.777297     1.771479     1.765660     1.759842     1.754023     1.748205     1.742386     1.736568
      1.730749     1.724931     1.719113     1.713294     1.707476     1.701657     1.695839     1.690020     1.684202     1.678383
      1.672565     1.666746     1.660928     1.655109     1.649291     1.643472     1.637654     1.631835     1.626017     1.620198
      1.614380     1.608561     1.602743     1.596924     1.591106     1.585287     1.579469     1.573650     1.567832     1.562013
      1.556195     1.550376     1.544558     1.538739     1.532921     1.527102     1.521284     1.515465     1.509647     1.503829
      1.498010     1.492192     1.486373     1.480555     1.474736     1.468918     1.463099     1.457281     1.451462     1.445644
      1.439825     1.434007     1.428188     1.422370     1.416551     1.410733     1.404914     1.399096     1.393277     1.387459
      1.381640     1.375822     1.370003     1.364185     1.358366     1.352548     1.346729     1.340911     1.335092     1.329274
      1.323455     1.317637     1.311818     1.306000     1.300182     1.294363     1.288545     1.282726     1.276908     1.271089
      1.265271     1.259452     1.253634     1.247815     1.241997     1.236178     1.230360     1.224541     1.218723     1.212904
      1.207086     1.201267     1.195449     1.189630     1.183812     1.177993     1.172175     1.166356     1.160538     1.154719
      1.148901     1.143082     1.137264     1.131445     1.125627     1.119808     1.113990     1.108171     1.102353     1.096534
      1.090716     1.084898     1.079079     1.073261     1.067442     1.061624     1.055805     1.049987     1.044168     1.038350
      1.032531     1.026713     1.020894     1.015076     1.009257     1.003439     0.997620     0.991802     0.985983     0.980165
      0.974346     0.968528     0.962709     0.956891     0.951072     0.945254     0.939435     0.933617     0.927798     0.921980
      0.916161     0.910343     0.904524     0.898706     0.892887     0.887069     0.881251     0.875432     0.869614     0.863795
      0.857977     0.852158     0.846340     0.840521     0.834703     0.828884     0.823066     0.817247     0.811429     0.805610
      0.799792     0.793973     0.788155     0.782336     0.776518     0.770699     0.764881     0.759062     0.753244     0.747425
      0.741607     0.735788     0.729970     0.724151     0.718333     0.712514     0.706696     0.700877     0.695059     0.689240
      0.683422     0.677603     0.671785     0.665967     0.660148     0.654330     0.648511     0.642693     0.636874     0.631056
      0.625237     0.619419     0.613600     0.607782     0.601963     0.596145     0.590326     0.584508     0.578689     0.572871
      0.567052     0.561234     0.555415     0.549597     0.543778     0.537960     0.532141     0.526323     0.520504     0.514686
      0.508867     0.503049     0.497230     0.491412     0.485593     0.479775     0.473956     0.468138     0.462319     0.456501
      0.450682     0.444864     0.439045     0.433227     0.427408     0.421590     0.415771     0.409953     0.404134     0.398316
      0.392497     0.386679     0.380860     0.375042     0.369223     0.363405     0.357586     0.351767     0.345949     0.340130
      0.334312     0.328493     0.322675     0.316856     0.311038     0.305219     0.299401     0.293582     0.287764     0.281945
      0.276127     0.270308     0.264490     0.258671     0.252853     0.247034     0.241216     0.235397     0.229579     0.223760
      0.217942     0.212123     0.206305     0.200486
 NY phased data points follow
   1.02677E-01  2.89321E-02  6.41135E-02  1.64581E-01  1.51723E-01  2.19057E-02  1.18571E-01 -1.21175E-01 -1.41978E-01 -1.57323E-01
   1.22895E-01  2.78000E-01  1.15845E-01  5.59273E-01  1.51164E-02 -1.88489E-01  1.64396E-01  3.19289E-01  4.90877E-01 -3.73299E-01
  -3.10061E-01  2.86340E-02  1.83522E-01  5.15351E-01 -2.05915E-01 -4.50122E-01 -2.17199E-01  8.57165E-02 -2.16875E-01 -3.90311E-02
   6.83773E-02 -3.79317E-01 -1.41674E-01 -6.25757E-01 -2.49194E-01 -7.20249E-02 -3.04940E-01 -2.58872E-01 -1.67173E-01 -8.62156E-02
  -3.62995E-01 -9.26476E-02  1.21690E-01  2.06917E-01  6.90267E-02  3.92112E-01  5.39952E-01  4.98240E-01  3.02617E-01  4.32733E-01
   3.42142E-01  5.37061E-02  5.04215E-01  5.65058E-01  4.33629E-01  7.03483E-02  1.87429E-02 -2.07547E-01  2.45308E-01 -1.52764E-01
  -4.70001E-01  2.31466E-02  5.23598E-02  4.64615E-02 -6.32020E-02 -7.44391E-03 -7.57787E-01 -1.79450E-02 -2.14943E-01  1.71864E-01
   5.44221E-01 -2.33724E-01  2.20494E-02 -3.95359E-01 -8.57388E-03 -3.95553E-01 -3.65049E-01 -4.01906E-01  8.61827E-03  1.31732E-01
  -2.66505E-01  7.96083E-02 -4.76471E-01 -7.23954E-02  1.26831E-02  5.01065E-02 -1.76242E-01  5.36299E-02  2.88968E-01 -9.21187E-02
   2.38828E-02 -4.41633E-01  2.14545E-02  1.52998E-01 -5.12968E-01 -3.41553E-01 -8.72467E-02  1.55961E-01 -4.88126E-03 -3.63054E-01
   1.95590E-01  1.34722E-01 -1.29547E-01  1.22227E-01  2.85634E-01  3.13981E-01  1.50034E-01  3.07892E-01  2.11582E-01 -7.57610E-03
  -1.15964E-02  3.88165E-01  2.60209E-01  2.11425E-01  7.25070E-01  4.27820E-01  2.63405E-01  2.38017E-01  2.13528E-01  3.08988E-01
   2.53430E-01  2.58456E-01  7.80366E-02 -5.55098E-02  6.98800E-03  5.64893E-02 -3.80793E-01 -5.16999E-01 -2.70234E-02 -2.68914E-01
  -4.63003E-01 -4.33213E-01 -4.62599E-01 -5.66943E-01 -8.72012E-01 -7.58471E-01 -4.07135E-01 -5.88126E-01 -6.09868E-01 -4.44104E-01
  -8.97679E-01 -3.88565E-01  3.54903E-03 -2.04472E-01 -4.58825E-01 -3.07027E-01 -2.72726E-02 -1.35957E-01  3.97412E-01  5.55892E-01
   3.76507E-01  2.19653E-01  4.79901E-01 -1.01425E-01 -1.84690E-01  4.48986E-01  3.16156E-01  5.36939E-01  1.55598E-01  3.19553E-01
   6.47546E-01  2.96318E-01  3.98523E-01  3.89298E-01  1.60415E-01  5.13720E-01  3.64668E-01  2.46799E-01  2.43431E-01 -2.68571E-01
  -2.33967E-01  1.05622E-01  2.39683E-01 -4.82256E-01 -4.56933E-01  1.60327E-01 -1.51288E-01 -5.26409E-01 -4.14424E-01 -3.09106E-01
  -1.93676E-01 -2.78578E-01 -2.88037E-01 -4.04637E-01 -4.82219E-01 -2.11346E-01 -2.38080E-01 -3.03465E-01 -7.29143E-01 -3.71336E-01
  -2.85427E-01 -2.04353E-03  1.60971E-01 -4.54196E-02 -9.25145E-02 -6.11409E-01  1.41521E-01 -1.07119E-01 -5.03886E-01  1.38065E-01
   6.72386E-02 -1.96985E-01  8.21814E-02 -2.07348E-03 -4.40170E-02  1.74490E-01  1.86654E-01 -2.97708E-01 -3.34417E-01  4.80394E-01
  -2.32345E-01 -2.71649E-01  5.44945E-02  2.08268E-01  5.75716E-02 -1.82678E-02  5.43405E-01  2.49219E-01  2.66723E-01 -1.93189E-01
  -2.64959E-01  1.78723E-01 -2.01014E-02  1.85998E-02  2.61572E-01  2.56348E-01  1.88859E-01  3.16210E-01  4.61498E-01  1.27396E-01
   1.98879E-01  1.58210E-01  2.51717E-01  3.00468E-01 -4.10605E-01  8.85829E-02  2.23278E-01  2.03553E-01  3.33354E-01  2.05021E-01
   1.95071E-01  1.81792E-01 -1.22372E-01 -2.82048E-01 -5.22267E-02 -4.91780E-01 -4.65420E-01 -1.69239E-01 -2.77537E-01 -1.89410E-01
   5.42970E-01  2.93609E-01  1.65113E-01  1.71782E-01 -2.73215E-01 -3.71663E-03  1.46958E-01  2.13798E-01 -2.27245E-01 -3.92827E-01
  -2.98587E-01  1.23699E-01  1.59576E-01 -1.58207E-01  1.21308E-02 -7.10636E-03 -1.85032E-01  4.58460E-02  6.51139E-02 -3.14023E-01
   1.73967E-01  1.67667E-01  1.97840E-01  8.04725E-02 -3.01888E-01 -2.10637E-01 -3.78176E-01 -1.75889E-01 -1.14663E-01 -2.62813E-01
  -1.93597E-01  4.20191E-02 -1.71853E-01  2.25351E-02  1.42092E-01 -3.16538E-01  2.79337E-01  2.04819E-01  3.59611E-01  4.96011E-01
   2.12159E-01  3.44325E-01  3.85258E-01  7.32035E-01  9.23295E-02  4.14118E-01  4.05691E-01  2.86898E-01  3.98964E-01  2.51052E-01
   2.66121E-01 -6.45945E-02  7.04539E-01  6.29638E-02  2.93253E-01  4.87544E-01  5.14666E-01  8.02858E-01  3.96194E-01  4.79707E-01
   1.54312E-01  3.53065E-01  2.02696E-01  5.75846E-01 -4.14743E-02 -7.26492E-03  2.65831E-01 -7.05354E-02 -2.15668E-01 -6.29895E-01
  -4.35563E-02 -4.97990E-01 -4.58420E-02  8.67564E-02 -2.69204E-01 -1.81171E-01 -6.73055E-03  1.97446E-01 -3.19074E-01  1.84827E-01
   2.12086E-01  3.73782E-02  3.12179E-01 -9.52428E-02 -1.51028E-01  1.09750E-01 -5.18118E-01 -7.44145E-01 -4.43636E-01 -9.55964E-01
  -1.25075E+00 -8.03366E-01 -8.12818E-01 -1.01331E+00 -4.31605E-01 -6.13478E-01 -9.70866E-01 -4.89638E-01 -5.09162E-01 -4.71124E-01
  -2.93468E-01 -1.44562E-01  1.83091E-01  3.28534E-01  1.01020E-02 -2.87646E-02  3.02798E-01  6.49260E-02  2.12211E-01  9.01969E-02
  -4.09302E-02  4.74172E-01  4.66912E-01  1.21590E-01  5.22259E-02 -2.57499E-01 -3.13439E-01  1.11002E-01 -3.66960E-01 -3.02116E-01
   2.64808E-01 -2.29965E-03 -1.62693E-01  1.30447E-01 -5.70603E-03  1.05670E-01  3.18379E-01  3.15666E-01 -7.46009E-02 -1.49490E-01
   2.84869E-01 -3.16579E-01 -8.32417E-02 -7.61323E-03 -1.11080E-01  2.11693E-01  2.63812E-01  6.79956E-02 -1.99285E-02 -3.90898E-02
   2.21439E-01  4.01451E-01 -3.26242E-01  3.20073E-01  2.38749E-01  3.93928E-01  4.76172E-01 -1.12372E-01  3.22273E-01  1.13137E-01
   1.05389E-01  3.24692E-02 -2.51527E-01 -2.32348E-01  2.76747E-02 -3.02935E-01 -6.84415E-02  2.34367E-01 -2.72525E-01 -1.44798E-01
   4.23010E-02 -3.16420E-01 -2.14296E-01  3.30783E-01  3.16081E-01  5.04931E-02 -2.94008E-01 -1.19079E-01  1.50513E-03  4.68744E-03
   2.16262E-01  3.30229E-01  3.74651E-02  2.55510E-02  7.84895E-02  2.08730E-02  3.57358E-01  7.14645E-02 -7.26506E-02  1.48035E-01
   4.01139E-01  4.44191E-01  1.88859E-01  4.11664E-03  2.16893E-01  2.09244E-01  9.76372E-02  1.85123E-01  1.69590E-01  2.13980E-01
   1.56401E-01 -1.06776E-01 -3.65400E-02  3.53668E-01  1.68617E-01  2.32995E-01  1.74656E-01  6.30403E-02 -1.66961E-01 -1.45351E-01
  -9.81273E-03 -1.87353E-01 -1.82119E-01 -2.67572E-01 -2.34437E-02 -2.95335E-01 -1.59386E-01  1.80884E-01 -1.33922E-01 -1.83431E-01
   8.20860E-02 -2.85032E-01 -3.06185E-01 -2.13345E-01 -3.05212E-01  6.42782E-02 -1.94825E-01 -1.68651E-01 -5.94736E-01 -6.32239E-01
   9.93170E-02 -1.24654E-01 -3.59695E-01 -6.76261E-02 -3.67456E-01 -3.64809E-01  2.85140E-02  1.40133E-01  1.31997E-01  1.27884E-01
   2.07767E-01 -2.33580E-01 -1.34072E-01 -2.16478E-01  5.59351E-01  3.54421E-01  4.57450E-02  5.81712E-01  6.61282E-02  3.99799E-01
  -6.68858E-02  2.63066E-01  3.80160E-01  1.98194E-01  2.89257E-01  3.96008E-01  6.33046E-01  1.57020E-01  2.21658E-01  1.24951E-01
   4.72553E-01  2.98999E-02 -4.27305E-02 -1.50555E-01 -2.07332E-01 -1.99841E-01 -3.98634E-01  3.34250E-01 -2.67389E-01 -1.86334E-01
  -4.81693E-01 -5.70316E-01 -1.67849E-03 -1.63085E-01  9.61626E-02 -2.83237E-01 -3.02197E-01 -2.41629E-01 -3.93881E-01  1.75396E-01
  -3.43003E-02 -4.76795E-01 -1.43210E-01 -6.30962E-01 -6.70707E-01 -3.43441E-01 -6.01775E-01 -5.97204E-01 -3.87513E-01 -1.02255E-01
  -4.35925E-02 -1.87772E-01 -2.34709E-01 -2.27079E-01 -2.92305E-01 -1.51816E-01 -6.73420E-01 -2.23734E-01  1.83825E-01 -2.40877E-01
  -2.95044E-01 -1.02086E-01  5.03298E-01 -4.31967E-01 -1.33072E-01  1.38621E-01 -4.84745E-01  2.77521E-01  2.43054E-01 -8.38257E-02
   4.09584E-02  4.45647E-02  1.58227E-02  3.33815E-01  6.29614E-02  2.86672E-01  2.21426E-01 -3.79191E-01  9.39774E-02  1.92629E-01
   4.10297E-01  1.99930E-01  3.88791E-02  2.84352E-01  1.08494E-01 -1.73415E-01 -3.42039E-01  1.07960E-01  5.56616E-03  3.92228E-02
   3.45076E-01  1.18587E-01  1.46060E-01  6.01518E-01  2.50748E-01 -3.10280E-02  2.09244E-01 -1.88324E-01  2.44845E-01  2.19588E-01
  -1.12390E-02 -1.00654E-01  1.59096E-01  9.92208E-02 -2.30135E-01  3.94711E-01  2.33822E-01  1.94830E-01  2.96161E-01  4.62783E-01
  -4.47881E-01  5.98513E-02  3.69323E-01  2.94301E-02  2.43485E-01 -5.06279E-01  1.29680E-01 -1.14209E-01  2.93506E-01  7.22699E-02
   1.06549E-01  4.31132E-01 -5.21263E-03  1.24037E-01 -1.69936E-01  1.39817E-01  3.09382E-02 -9.75613E-03 -2.79526E-01  3.39923E-01
   1.99032E-01 -2.70061E-04  2.14620E-01  2.01381E-01 -8.58872E-02 -2.62789E-01  5.29063E-01 -2.67068E-01  1.14726E-02  8.73547E-02
  -2.09782E-01  8.66424E-02  3.57079E-02  4.99498E-02 -2.32263E-02  1.56823E-01  2.15146E-01  1.50316E-01 -2.23392E-01 -3.36725E-02
   2.89056E-01  3.60534E-02  8.98528E-02  1.63378E-01  3.29621E-01  1.33485E-01 -1.12386E-01  4.87775E-01 -2.55592E-01 -7.47070E-02
  -4.03779E-02 -2.01484E-01  3.42505E-01  3.02491E-01  5.37093E-01 -2.03013E-01  2.18169E-01  1.21840E-01 -1.78255E-01  9.88506E-02
   3.59646E-01 -1.09114E-01 -1.72433E-01  2.55393E-01
 NY points of the fit to the data follow
   2.09486E-01  1.25159E-01  1.64186E-01  8.36961E-02  1.30403E-01  5.48925E-02  1.21699E-01  4.38925E-02  1.40377E-01  5.04467E-02
   1.77519E-01  6.46123E-02  2.14697E-01  7.91544E-02  2.39885E-01  8.75689E-02  2.44503E-01  8.43516E-02  2.23429E-01  6.59304E-02
   1.76743E-01  3.18058E-02  1.08848E-01 -1.59722E-02  2.79654E-02 -7.44319E-02 -5.71548E-02 -1.39344E-01 -1.35922E-01 -2.02928E-01
  -1.97674E-01 -2.52704E-01 -2.34538E-01 -2.72795E-01 -2.39223E-01 -2.51174E-01 -2.16852E-01 -1.85891E-01 -1.66375E-01 -8.38799E-02
  -9.15075E-02  3.90239E-02 -1.88008E-03  1.62267E-01  8.86227E-02  2.65933E-01  1.64799E-01  3.33883E-01  2.13466E-01  3.55788E-01
   2.25399E-01  3.28900E-01  1.96137E-01  2.59110E-01  1.29380E-01  1.60694E-01  4.06505E-02  5.44461E-02 -4.49320E-02 -3.51578E-02
  -1.02364E-01 -8.89701E-02 -1.15791E-01 -9.95148E-02 -8.55833E-02 -7.27721E-02 -2.63176E-02 -2.91519E-02  3.71820E-02  7.71035E-03
   7.87820E-02  1.99240E-02  8.47103E-02  5.08758E-03  5.81535E-02 -2.49043E-02  1.69728E-02 -5.01386E-02 -1.81489E-02 -5.55960E-02
  -3.09892E-02 -3.50783E-02 -1.60325E-02  8.03881E-03  2.08303E-02  5.59233E-02  6.66665E-02  8.43844E-02  9.99634E-02  7.65978E-02
   1.08420E-01  2.91720E-02  9.39085E-02 -4.19475E-02  6.89062E-02 -1.10650E-01  4.85466E-02 -1.52733E-01  4.48564E-02 -1.54700E-01
   6.61702E-02 -1.07280E-01  1.13134E-01 -2.20790E-02  1.80455E-01  8.52360E-02  2.54224E-01  1.96012E-01  3.23401E-01  2.95224E-01
   3.78933E-01  3.71754E-01  4.12802E-01  4.17523E-01  4.17171E-01  4.25002E-01  3.81858E-01  3.88204E-01  2.96612E-01  3.08132E-01
   1.59313E-01  1.90748E-01 -1.93463E-02  4.60211E-02 -2.15073E-01 -1.11235E-01 -3.97426E-01 -2.64825E-01 -5.41208E-01 -3.97273E-01
  -6.30219E-01 -4.93657E-01 -6.58096E-01 -5.42039E-01 -6.27838E-01 -5.39398E-01 -5.50585E-01 -4.90711E-01 -4.42204E-01 -4.07048E-01
  -3.20164E-01 -3.04313E-01 -2.02300E-01 -1.97632E-01 -9.93934E-02 -9.96744E-02 -1.77095E-02 -1.44254E-02  4.52527E-02  5.84581E-02
   9.97209E-02  1.21492E-01  1.51982E-01  1.80178E-01  2.04190E-01  2.35781E-01  2.54281E-01  2.88267E-01  2.93104E-01  3.21006E-01
   3.05633E-01  3.18459E-01  2.80600E-01  2.72370E-01  2.17058E-01  1.89318E-01  1.24698E-01  8.32485E-02  1.84767E-02 -2.90057E-02
  -8.52697E-02 -1.30734E-01 -1.72929E-01 -2.10689E-01 -2.35938E-01 -2.62502E-01 -2.70962E-01 -2.85463E-01 -2.79189E-01 -2.82104E-01
  -2.65460E-01 -2.59333E-01 -2.37890E-01 -2.26849E-01 -2.05182E-01 -1.92714E-01 -1.76608E-01 -1.68913E-01 -1.54947E-01 -1.48820E-01
  -1.36690E-01 -1.30911E-01 -1.20351E-01 -1.14577E-01 -1.05216E-01 -9.93768E-02 -9.11878E-02 -8.55112E-02 -7.86476E-02 -7.33910E-02
  -6.80584E-02 -6.35902E-02 -5.99110E-02 -5.65078E-02 -5.44922E-02 -5.21473E-02 -5.16045E-02 -5.01861E-02 -5.08236E-02 -5.00698E-02
  -5.13047E-02 -4.98159E-02 -5.07088E-02 -4.55641E-02 -4.52816E-02 -3.31283E-02 -3.05214E-02 -9.29495E-03 -3.12067E-03  2.75939E-02
   3.71085E-02  7.48857E-02  8.44173E-02  1.25336E-01  1.30393E-01  1.69682E-01  1.65375E-01  1.98190E-01  1.82252E-01  2.05692E-01
   1.78584E-01  1.91396E-01  1.55493E-01  1.58260E-01  1.17439E-01  1.12048E-01  7.02420E-02  5.96860E-02  2.03376E-02  7.68116E-03
  -2.71365E-02 -3.98200E-02 -6.91774E-02 -7.89173E-02 -1.04408E-01 -1.08722E-01 -1.33769E-01 -1.26877E-01 -1.52600E-01 -1.31532E-01
  -1.58043E-01 -1.24681E-01 -1.45813E-01 -1.06700E-01 -1.15275E-01 -7.83132E-02 -7.11761E-02 -4.26913E-02 -2.15284E-02 -4.67296E-03
   2.45291E-02  2.97311E-02  5.89807E-02  5.41170E-02  7.59369E-02  6.30894E-02  7.14989E-02  5.15426E-02  4.35538E-02  1.59074E-02
  -7.27869E-03 -4.25656E-02 -7.43821E-02 -1.12780E-01 -1.43166E-01 -1.73981E-01 -1.93454E-01 -2.07725E-01 -2.08598E-01 -1.99808E-01
  -1.82997E-01 -1.50657E-01 -1.21235E-01 -6.91785E-02 -3.61377E-02  2.88590E-02  5.75692E-02  1.27470E-01  1.46336E-01  2.13228E-01
   2.19777E-01  2.77393E-01  2.71771E-01  3.16037E-01  3.00378E-01  3.29568E-01  3.07564E-01  3.22496E-01  2.98302E-01  3.02029E-01
   2.79576E-01  2.77028E-01  2.57886E-01  2.53307E-01  2.36000E-01  2.29109E-01  2.11804E-01  1.99117E-01  1.80423E-01  1.58989E-01
   1.39154E-01  1.06388E-01  8.81787E-02  4.28236E-02  3.15668E-02 -2.52744E-02 -2.37650E-02 -8.79238E-02 -7.05418E-02 -1.35801E-01
  -1.03930E-01 -1.64568E-01 -1.22886E-01 -1.76208E-01 -1.29177E-01 -1.76609E-01 -1.25399E-01 -1.72257E-01 -1.22553E-01 -1.76567E-01
  -1.43312E-01 -2.10601E-01 -2.09701E-01 -2.90112E-01 -3.24279E-01 -4.10286E-01 -4.69217E-01 -5.48438E-01 -6.09375E-01 -6.69243E-01
  -7.12800E-01 -7.44975E-01 -7.59000E-01 -7.60501E-01 -7.40784E-01 -7.14370E-01 -6.66633E-01 -6.19822E-01 -5.53709E-01 -4.96058E-01
  -4.22513E-01 -3.63896E-01 -2.91243E-01 -2.40138E-01 -1.76906E-01 -1.38882E-01 -9.19071E-02 -6.85729E-02 -3.95639E-02 -2.93719E-02
  -2.01486E-02 -1.85995E-02 -1.09141E-02 -1.25207E-02 -4.31062E-03 -7.05692E-03  1.99619E-03 -6.39611E-04  8.95069E-03  7.13553E-03
   1.67791E-02  1.60761E-02  2.52626E-02  2.56548E-02  3.39684E-02  3.52159E-02  4.23654E-02  4.41493E-02  5.00439E-02  5.20636E-02
   5.68367E-02  5.88831E-02  6.27360E-02  6.48092E-02  6.78140E-02  6.99944E-02  7.20878E-02  7.43471E-02  7.54597E-02  7.76316E-02
   7.77141E-02  7.95652E-02  7.85839E-02  7.98447E-02  7.78222E-02  7.82874E-02  7.52946E-02  7.48529E-02  7.10147E-02  6.96433E-02
   6.51936E-02  6.29593E-02  5.81862E-02  5.52373E-02  5.04390E-02  4.69802E-02  4.24493E-02  3.87245E-02  3.46917E-02  3.09304E-02
   2.75670E-02  2.39790E-02  2.13920E-02  1.82094E-02  1.64960E-02  1.39909E-02  1.32857E-02  1.17925E-02  1.23674E-02  1.25582E-02
   1.62625E-02  1.85572E-02  3.05535E-02  3.34109E-02  6.07773E-02  5.96508E-02  1.06817E-01  9.57031E-02  1.61650E-01  1.35555E-01
   2.13705E-01  1.71258E-01  2.52273E-01  1.96135E-01  2.71500E-01  2.07185E-01  2.70466E-01  2.04853E-01  2.52670E-01  1.92207E-01
   2.24091E-01  1.73653E-01  1.91258E-01  1.53497E-01  1.59810E-01  1.35259E-01  1.34086E-01  1.21262E-01  1.16704E-01  1.12435E-01
   1.07546E-01  1.08066E-01  1.04923E-01  1.05895E-01  1.03128E-01  1.02594E-01  9.80044E-02  9.57564E-02  8.97695E-02  8.60743E-02
   7.92968E-02  7.45377E-02  6.75832E-02  6.22127E-02  5.56314E-02  5.01385E-02  4.43653E-02  3.92095E-02  3.45665E-02  3.01650E-02
   2.68548E-02  2.35441E-02  2.16183E-02  1.96097E-02  1.89728E-02  1.83030E-02  1.87533E-02  1.92962E-02  2.06058E-02  2.21052E-02
   2.40082E-02  2.61179E-02  2.83058E-02  3.06723E-02  3.28122E-02  3.51198E-02  3.68475E-02  3.88487E-02  3.98838E-02  4.13864E-02
   4.15759E-02  4.24360E-02  4.17666E-02  4.19181E-02  4.04915E-02  3.99081E-02  3.78819E-02  3.66224E-02  3.41748E-02  3.23392E-02
   2.96420E-02  2.73342E-02  2.44969E-02  2.17987E-02  1.88576E-02  1.57946E-02  1.27018E-02  9.24681E-03  5.84324E-03  1.88055E-03
  -2.13429E-03 -6.75479E-03 -1.17424E-02 -1.71703E-02 -2.34555E-02 -2.98139E-02 -3.75547E-02 -4.48420E-02 -5.39783E-02 -6.20449E-02
  -7.22447E-02 -8.07449E-02 -9.14171E-02 -9.98426E-02 -1.10215E-01 -1.17967E-01 -1.27197E-01 -1.33693E-01 -1.41058E-01 -1.45859E-01
  -1.50831E-01 -1.53673E-01 -1.56002E-01 -1.56808E-01 -1.56512E-01 -1.55328E-01 -1.52654E-01 -1.49651E-01 -1.45018E-01 -1.40463E-01
  -1.34325E-01 -1.28551E-01 -1.21347E-01 -1.14724E-01 -1.06869E-01 -9.97450E-02 -9.15948E-02 -8.42983E-02 -7.61677E-02 -6.89542E-02
  -6.10954E-02 -5.41732E-02 -4.68372E-02 -4.03536E-02 -3.37204E-02 -2.78122E-02 -2.20015E-02 -1.67810E-02 -1.18362E-02 -7.35721E-03
  -3.23244E-03  5.50237E-04  3.92607E-03  7.11655E-03  9.86512E-03  1.25743E-02  1.48174E-02  1.71363E-02  1.89889E-02  2.09693E-02
   2.25239E-02  2.42171E-02  2.55103E-02  2.69412E-02  2.80257E-02  2.92393E-02  3.01501E-02  3.11580E-02  3.19196E-02  3.27654E-02
   3.33816E-02  3.40638E-02  3.45708E-02  3.50870E-02  3.55049E-02  3.59042E-02  3.62147E-02  3.65887E-02  3.67618E-02  3.72317E-02
   3.72471E-02  3.78962E-02  3.78001E-02  3.86555E-02  3.85256E-02  3.95852E-02  3.95443E-02  4.07660E-02  4.09300E-02  4.22510E-02
   4.27188E-02  4.40269E-02  4.48823E-02  4.60435E-02  4.73269E-02  4.82563E-02  4.99525E-02  5.06380E-02  5.26684E-02  5.31664E-02
   5.54668E-02  5.59326E-02  5.83871E-02  5.89708E-02  6.14712E-02  6.23130E-02  6.47482E-02  6.59140E-02  6.82316E-02  6.97465E-02
   7.19125E-02  7.37371E-02  7.57543E-02  7.78377E-02  7.97343E-02  8.20113E-02  8.38380E-02  8.62444E-02  8.80997E-02  9.05938E-02
   9.25755E-02  9.51417E-02  9.73478E-02  1.00047E-01  1.02532E-01  1.05471E-01  1.08274E-01  1.11591E-01  1.14750E-01  1.18576E-01
   1.22143E-01  1.26593E-01  1.30597E-01  1.35762E-01  1.40215E-01  1.46174E-01  1.51135E-01  1.57943E-01  1.63512E-01  1.71187E-01
   1.77523E-01  1.86110E-01  1.93481E-01  2.03082E-01
 NY background values follow
     7.460E-02    7.427E-02    7.395E-02    7.362E-02    7.330E-02    7.297E-02    7.264E-02    7.232E-02    7.199E-02    7.167E-02
     7.134E-02    7.101E-02    7.069E-02    7.036E-02    7.004E-02    6.971E-02    6.938E-02    6.906E-02    6.873E-02    6.841E-02
     6.808E-02    6.775E-02    6.743E-02    6.710E-02    6.678E-02    6.645E-02    6.612E-02    6.580E-02    6.547E-02    6.514E-02
     6.482E-02    6.449E-02    6.417E-02    6.384E-02    6.351E-02    6.319E-02    6.286E-02    6.254E-02    6.221E-02    6.188E-02
     6.156E-02    6.123E-02    6.090E-02    6.058E-02    6.025E-02    5.993E-02    5.960E-02    5.927E-02    5.895E-02    5.862E-02
     5.830E-02    5.797E-02    5.764E-02    5.732E-02    5.699E-02    5.666E-02    5.634E-02    5.601E-02    5.569E-02    5.536E-02
     5.503E-02    5.471E-02    5.438E-02    5.405E-02    5.373E-02    5.340E-02    5.308E-02    5.275E-02    5.242E-02    5.210E-02
