 LCModel (Version 6.3-1N) Copyright: S.W. Provencher.          Ref.: Magn. Reson. Med. 30:672-679 (1993).                
 Slice_N1@20_23  02-Jun-2023 14:37:41
 27 lines in following concentration table = NCONC+1
    Conc.  %SD /Cr+PCr  Metabolite                                         
 1.76E-06  20% 2.5E-04 Mac                                                 
 1.57E-02  59%   2.182 Cr                                                  
 4.17E-02  21%   5.818 PCr                                                 
 5.55E-02  14%   7.742 Ins                                                 
 9.35E-02   7%  13.037 NAA                                                 
 5.25E-02  14%   7.317 Tau                                                 
 3.64E-03 101%   0.507 PCho                                                
 6.15E-03  61%   0.857 GPC                                                 
 9.14E-02  11%  12.739 Glu                                                 
 1.75E-02  37%   2.441 Gln                                                 
    0.000 999%   0.000 Ala                                                 
 4.42E-02  30%   6.158 Asc                                                 
 1.55E-02  50%   2.163 Asp                                                 
 6.65E-03  62%   0.927 GABA                                                
 1.13E-02  46%   1.574 Glc                                                 
 6.00E-03  57%   0.836 GSH                                                 
    0.000 999%   0.000 Lac                                                 
 1.24E-02  38%   1.731 NAAG                                                
    0.000 999%   0.000 PE                                                  
 9.79E-03  19%   1.364 GPC+PCho                                            
    0.106   7%  14.768 NAA+NAAG                                            
    0.109  10%  15.180 Glu+Gln                                             
 5.74E-02  10%   8.000 Cr+PCr                                              
    0.106   7%  14.768 NAA+NAAG                                            
 5.74E-02  10%   8.000 Cr+PCr                                              
    0.109  10%  15.180 Glu+Gln                                             
   6 lines in following misc. output table
  FWHM = 0.023 ppm    S/N =   4                                            
  Data shift = 0.006 ppm                                                   
  Ph:  43 deg      -3.8 deg/ppm                                            
  alphaB,S = 3.1E+01,   4.8E-01                                            
   18 spline knots.   Ns = 5(1)                                            
  ( 3) 2 infls.   ( 2) 1 extrs.                                            
  654 points on ppm-axis = NY
      4.000000     3.994181     3.988363     3.982544     3.976726     3.970907     3.965088     3.959270     3.953451     3.947633
      3.941814     3.935995     3.930177     3.924358     3.918540     3.912721     3.906902     3.901084     3.895265     3.889446
      3.883628     3.877809     3.871991     3.866172     3.860353     3.854535     3.848716     3.842898     3.837079     3.831260
      3.825442     3.819623     3.813805     3.807986     3.802167     3.796349     3.790530     3.784712     3.778893     3.773074
      3.767256     3.761437     3.755619     3.749800     3.743981     3.738163     3.732344     3.726526     3.720707     3.714888
      3.709070     3.703251     3.697433     3.691614     3.685795     3.679977     3.674158     3.668339     3.662521     3.656702
      3.650884     3.645065     3.639246     3.633428     3.627609     3.621791     3.615972     3.610153     3.604335     3.598516
      3.592698     3.586879     3.581060     3.575242     3.569423     3.563605     3.557786     3.551967     3.546149     3.540330
      3.534512     3.528693     3.522874     3.517056     3.511237     3.505419     3.499600     3.493781     3.487963     3.482144
      3.476326     3.470507     3.464688     3.458870     3.453051     3.447232     3.441414     3.435595     3.429777     3.423958
      3.418139     3.412321     3.406502     3.400684     3.394865     3.389046     3.383228     3.377409     3.371591     3.365772
      3.359953     3.354135     3.348316     3.342498     3.336679     3.330860     3.325042     3.319223     3.313405     3.307586
      3.301767     3.295949     3.290130     3.284312     3.278493     3.272674     3.266856     3.261037     3.255219     3.249400
      3.243581     3.237763     3.231944     3.226125     3.220307     3.214488     3.208670     3.202851     3.197032     3.191214
      3.185395     3.179577     3.173758     3.167939     3.162121     3.156302     3.150484     3.144665     3.138846     3.133028
      3.127209     3.121391     3.115572     3.109753     3.103935     3.098116     3.092298     3.086479     3.080660     3.074842
      3.069023     3.063205     3.057386     3.051567     3.045749     3.039930     3.034111     3.028293     3.022474     3.016656
      3.010837     3.005018     2.999200     2.993381     2.987563     2.981744     2.975925     2.970107     2.964288     2.958470
      2.952651     2.946832     2.941014     2.935195     2.929377     2.923558     2.917739     2.911921     2.906102     2.900284
      2.894465     2.888646     2.882828     2.877009     2.871191     2.865372     2.859553     2.853735     2.847916     2.842098
      2.836279     2.830460     2.824642     2.818823     2.813004     2.807186     2.801367     2.795549     2.789730     2.783911
      2.778093     2.772274     2.766456     2.760637     2.754818     2.749000     2.743181     2.737363     2.731544     2.725725
      2.719907     2.714088     2.708270     2.702451     2.696632     2.690814     2.684995     2.679177     2.673358     2.667539
      2.661721     2.655902     2.650084     2.644265     2.638446     2.632628     2.626809     2.620991     2.615172     2.609353
      2.603535     2.597716     2.591897     2.586079     2.580260     2.574442     2.568623     2.562804     2.556986     2.551167
      2.545349     2.539530     2.533711     2.527893     2.522074     2.516256     2.510437     2.504618     2.498800     2.492981
      2.487163     2.481344     2.475525     2.469707     2.463888     2.458070     2.452251     2.446432     2.440614     2.434795
      2.428977     2.423158     2.417339     2.411521     2.405702     2.399884     2.394065     2.388246     2.382428     2.376609
      2.370790     2.364972     2.359153     2.353335     2.347516     2.341697     2.335879     2.330060     2.324242     2.318423
      2.312604     2.306786     2.300967     2.295149     2.289330     2.283511     2.277693     2.271874     2.266056     2.260237
      2.254418     2.248600     2.242781     2.236963     2.231144     2.225325     2.219507     2.213688     2.207870     2.202051
      2.196232     2.190414     2.184595     2.178777     2.172958     2.167139     2.161321     2.155502     2.149683     2.143865
      2.138046     2.132228     2.126409     2.120590     2.114772     2.108953     2.103135     2.097316     2.091497     2.085679
      2.079860     2.074042     2.068223     2.062404     2.056586     2.050767     2.044949     2.039130     2.033311     2.027493
      2.021674     2.015856     2.010037     2.004218     1.998400     1.992581     1.986763     1.980944     1.975126     1.969307
      1.963489     1.957670     1.951852     1.946033     1.940215     1.934397     1.928578     1.922760     1.916941     1.911123
      1.905304     1.899486     1.893667     1.887849     1.882030     1.876212     1.870393     1.864575     1.858756     1.852938
      1.847119     1.841301     1.835482     1.829664     1.823845     1.818027     1.812208     1.806390     1.800571     1.794753
      1.788934     1.783116     1.777297     1.771479     1.765660     1.759842     1.754023     1.748205     1.742386     1.736568
      1.730749     1.724931     1.719113     1.713294     1.707476     1.701657     1.695839     1.690020     1.684202     1.678383
      1.672565     1.666746     1.660928     1.655109     1.649291     1.643472     1.637654     1.631835     1.626017     1.620198
      1.614380     1.608561     1.602743     1.596924     1.591106     1.585287     1.579469     1.573650     1.567832     1.562013
      1.556195     1.550376     1.544558     1.538739     1.532921     1.527102     1.521284     1.515465     1.509647     1.503829
      1.498010     1.492192     1.486373     1.480555     1.474736     1.468918     1.463099     1.457281     1.451462     1.445644
      1.439825     1.434007     1.428188     1.422370     1.416551     1.410733     1.404914     1.399096     1.393277     1.387459
      1.381640     1.375822     1.370003     1.364185     1.358366     1.352548     1.346729     1.340911     1.335092     1.329274
      1.323455     1.317637     1.311818     1.306000     1.300182     1.294363     1.288545     1.282726     1.276908     1.271089
      1.265271     1.259452     1.253634     1.247815     1.241997     1.236178     1.230360     1.224541     1.218723     1.212904
      1.207086     1.201267     1.195449     1.189630     1.183812     1.177993     1.172175     1.166356     1.160538     1.154719
      1.148901     1.143082     1.137264     1.131445     1.125627     1.119808     1.113990     1.108171     1.102353     1.096534
      1.090716     1.084898     1.079079     1.073261     1.067442     1.061624     1.055805     1.049987     1.044168     1.038350
      1.032531     1.026713     1.020894     1.015076     1.009257     1.003439     0.997620     0.991802     0.985983     0.980165
      0.974346     0.968528     0.962709     0.956891     0.951072     0.945254     0.939435     0.933617     0.927798     0.921980
      0.916161     0.910343     0.904524     0.898706     0.892887     0.887069     0.881251     0.875432     0.869614     0.863795
      0.857977     0.852158     0.846340     0.840521     0.834703     0.828884     0.823066     0.817247     0.811429     0.805610
      0.799792     0.793973     0.788155     0.782336     0.776518     0.770699     0.764881     0.759062     0.753244     0.747425
      0.741607     0.735788     0.729970     0.724151     0.718333     0.712514     0.706696     0.700877     0.695059     0.689240
      0.683422     0.677603     0.671785     0.665967     0.660148     0.654330     0.648511     0.642693     0.636874     0.631056
      0.625237     0.619419     0.613600     0.607782     0.601963     0.596145     0.590326     0.584508     0.578689     0.572871
      0.567052     0.561234     0.555415     0.549597     0.543778     0.537960     0.532141     0.526323     0.520504     0.514686
      0.508867     0.503049     0.497230     0.491412     0.485593     0.479775     0.473956     0.468138     0.462319     0.456501
      0.450682     0.444864     0.439045     0.433227     0.427408     0.421590     0.415771     0.409953     0.404134     0.398316
      0.392497     0.386679     0.380860     0.375042     0.369223     0.363405     0.357586     0.351767     0.345949     0.340130
      0.334312     0.328493     0.322675     0.316856     0.311038     0.305219     0.299401     0.293582     0.287764     0.281945
      0.276127     0.270308     0.264490     0.258671     0.252853     0.247034     0.241216     0.235397     0.229579     0.223760
      0.217942     0.212123     0.206305     0.200486
 NY phased data points follow
   5.74457E-02  7.02454E-02 -1.61187E-01  2.73654E-02 -2.18692E-01 -3.88427E-01 -1.34929E-01  1.49130E-01 -4.17195E-01 -3.91452E-01
   2.47329E-01  2.15007E-01  4.34714E-01  6.95060E-01  1.64517E-02  3.56898E-01  4.65652E-01  2.52208E-02  2.32254E-01  8.55383E-02
   3.47484E-01  6.44007E-03  1.45832E-01 -8.69231E-02 -5.63685E-01 -1.72405E-02  9.93816E-02 -7.10993E-02 -1.71562E-01 -1.64061E-01
  -3.48879E-01 -1.31110E-01  2.30632E-01 -2.32888E-02 -2.38811E-01 -2.46401E-01 -4.30136E-01 -4.42802E-01 -7.86815E-01 -5.51667E-01
  -2.14297E-01 -4.29670E-02  2.77813E-01  3.14255E-01  2.32743E-01  4.01672E-01  7.75134E-01  3.82062E-01  5.52390E-01 -1.35482E-02
   1.33873E-01  4.26850E-01  5.15850E-02  2.32409E-01 -1.17792E-02  1.99290E-01 -1.07684E-03  8.31913E-02 -1.91092E-01  2.65613E-02
   3.85940E-02 -2.66931E-01 -1.30165E-01 -3.34763E-01 -6.20050E-02 -4.17893E-01 -1.31967E-02  9.28616E-02 -3.49565E-01  1.56828E-01
   2.22391E-01  6.35899E-02  9.83387E-02 -1.01481E-01  2.18849E-02 -1.78941E-01 -2.60389E-01 -1.59548E-01 -4.88226E-01 -3.06366E-01
  -3.90305E-01 -7.44054E-02  1.66925E-01 -2.90061E-02 -1.09255E-01  1.54301E-01 -1.73936E-02 -3.46503E-01  4.03246E-01  2.79440E-01
   5.81329E-02  3.88559E-01  2.38505E-01  3.13609E-03  5.74496E-02 -1.08990E-01 -1.24510E-01  1.12343E-01  1.75964E-01 -2.27652E-01
  -7.29077E-01  7.39974E-03  2.64462E-01  4.00550E-02  4.47760E-01  2.07949E-01 -3.35158E-02  3.77245E-01  2.34496E-01  8.15169E-02
   3.69665E-01  5.60456E-01  4.49282E-01  3.88720E-01  4.25080E-01  1.20734E-03  1.17544E-01  3.68007E-01  5.07131E-01  5.36349E-01
   3.72360E-01  1.89589E-01 -2.13707E-01  3.12647E-02  3.92628E-01 -5.44368E-02 -2.78473E-01  2.30330E-02 -3.59673E-01 -4.08742E-01
  -4.57445E-01 -6.82189E-01 -4.50511E-01 -5.32875E-01 -5.08214E-01 -6.75353E-01 -7.55013E-01 -5.00898E-01 -3.17793E-01 -2.96747E-01
  -3.04585E-01 -1.83249E-01  2.28721E-01 -4.78629E-02 -4.81295E-01  1.80554E-01  9.23163E-02 -1.17149E-01  2.93347E-01  7.98932E-02
   1.14108E-01  4.61020E-01  2.90268E-01  2.37297E-01 -1.11883E-01 -1.62303E-01  4.67574E-01  3.67094E-01  9.69998E-02  4.35799E-01
   4.80878E-01  1.07690E-01  2.41022E-01  5.29140E-01  7.63983E-01  9.82500E-01  1.12546E+00  3.19284E-01 -3.70066E-01 -3.96671E-01
  -7.54003E-01 -9.04357E-01 -6.34333E-01 -3.50651E-01 -6.14434E-01 -1.20617E-01 -7.08762E-02 -1.77397E-01 -1.39742E-01 -4.08199E-01
  -3.50122E-01 -5.35930E-01 -2.36507E-01 -2.23225E-01 -3.27259E-01 -4.28474E-01 -1.37258E-01 -3.58553E-01 -1.53310E-01  2.99820E-02
  -6.70077E-01 -1.62203E-01 -1.02792E-01  3.24786E-02 -1.94208E-01 -3.37197E-01 -9.43831E-02 -1.29314E-01 -1.62289E-02 -1.32185E-01
  -1.20458E-02  2.13081E-02 -5.68853E-02 -1.26348E-01 -2.44765E-01 -1.91133E-01  2.06958E-01 -1.37656E-01 -6.61105E-02  1.45744E-01
  -7.89232E-02  2.99531E-02  5.82841E-03 -1.30006E-01 -8.92470E-02  6.13876E-02 -1.17802E-02  3.20806E-01 -1.75682E-01  2.83157E-01
   4.17811E-01 -1.16915E-02  3.43062E-01  3.27503E-02  3.77352E-01  3.40942E-01  6.32192E-01  2.93872E-01  3.40543E-01  6.68160E-01
   4.49870E-01  4.57786E-01  2.35518E-01  3.94838E-01 -7.31957E-02  1.88594E-01 -1.63021E-01  1.56612E-01  2.32074E-01 -2.93432E-01
   1.65705E-01 -6.30916E-02  1.04070E-01 -4.61994E-01 -1.39349E-01  6.25050E-02 -1.51104E-03  7.07632E-02 -3.49380E-01  2.03008E-02
  -2.58705E-01  4.60809E-02  1.80585E-01 -7.79448E-02  8.37066E-02 -8.44539E-02 -3.41750E-02  2.32633E-01  2.14294E-01  1.92167E-01
   2.20098E-01  2.05782E-01  2.28229E-01 -2.37838E-01 -2.23162E-01  4.26190E-02 -1.04194E-01 -9.36577E-02  2.97866E-01  3.35539E-01
   1.08980E-02  1.97193E-01 -9.41869E-02  2.50761E-02  2.01782E-01 -2.99345E-01 -1.25175E-01 -8.06921E-02 -2.10201E-01 -5.03595E-01
  -3.36883E-01 -2.20939E-01 -4.67721E-01 -2.22655E-01 -2.08402E-01  1.39113E-01  3.18063E-01  5.31795E-01  6.43729E-01  5.67941E-01
   4.78145E-01  2.82801E-01  3.22643E-01 -7.88008E-03  1.83306E-01  4.18156E-01  2.78653E-01  1.36808E-02  1.02852E-01  3.89662E-01
   4.07992E-01  4.57400E-01  3.49868E-01  2.42289E-01  1.68323E-01  3.86448E-01  5.15187E-01  4.55227E-01  1.41193E-01  2.10750E-01
   1.91330E-01 -1.27161E-01  1.51665E-01 -3.65018E-02  2.16522E-01  5.44347E-01  1.18210E-01  1.50498E-01 -5.00831E-02 -1.66365E-01
  -2.53711E-01 -4.19497E-01 -1.24382E-01 -1.77305E-01 -2.66439E-01 -4.51443E-01 -3.48025E-01 -1.33596E-01  7.06743E-02 -1.17248E-02
   1.73597E-01  3.41898E-01 -3.19055E-01 -4.99281E-02 -3.51400E-01 -3.47654E-01 -1.43274E-01 -4.40378E-01 -3.93256E-01 -2.51038E-01
  -2.86430E-01 -1.18865E+00 -1.47432E+00 -1.87499E+00 -1.76041E+00 -1.11426E+00 -5.55054E-01 -1.66471E-01 -1.84333E-01  2.34705E-01
   2.78905E-01  1.80792E-01  1.55320E-01 -1.14833E-02 -7.65888E-02  1.16778E-01 -2.42113E-01 -8.34100E-02  1.96372E-01  2.08684E-02
   7.57345E-02  2.32915E-02  1.11299E-01 -3.93197E-01  1.40797E-02  1.79809E-01  1.23347E-02  1.54127E-01 -3.36347E-01  4.17264E-02
   2.72622E-01  2.41127E-01  2.28332E-02  1.16602E-01  3.29019E-01  2.80901E-01  2.66091E-01  5.74031E-02  1.80903E-01  2.22418E-02
   2.08603E-01  2.16495E-01  4.01859E-01  3.00277E-01  1.66222E-01  4.39003E-01  8.89594E-02  5.08425E-01  4.26243E-01  3.37895E-01
   2.92938E-01  8.83366E-02 -1.10513E-01 -2.55559E-03  4.39947E-01  9.84106E-02  3.90077E-01  3.32648E-01  1.56989E-01  6.04819E-02
   2.04347E-01  3.65222E-01 -1.79796E-01 -6.47286E-02  1.92294E-01 -1.88170E-03 -2.70169E-01 -6.05090E-02  3.36064E-01  3.71160E-02
  -3.82104E-01  1.66097E-01  2.46531E-02 -1.47666E-01 -1.35469E-02 -3.97790E-01 -7.93805E-02  3.47901E-02 -2.55321E-01 -2.57495E-01
   1.05636E-01 -2.05156E-01 -3.05840E-01 -2.29171E-02 -2.37531E-01 -1.06683E-01 -5.52272E-02 -4.96337E-02 -4.36377E-02 -1.62457E-02
   1.15394E-01 -1.48397E-01 -3.05779E-01  1.14569E-01 -2.82119E-01 -2.53761E-01  4.86935E-01  4.54100E-02  7.21879E-02  2.23429E-01
  -4.74288E-03  1.05516E-01 -2.97549E-03  2.60597E-02  1.53717E-01  2.26734E-01  4.00244E-01  2.34510E-01  7.90413E-02  1.44494E-01
   2.77799E-01  4.01758E-01 -1.64359E-01 -1.00190E-01  1.67063E-01 -2.49887E-01  8.66919E-02  1.18295E-01 -2.92120E-01 -7.73876E-02
   1.04498E-01 -2.46599E-02 -1.23902E-02 -3.56717E-02 -7.30886E-02 -7.29439E-02 -1.21465E-01  4.99474E-02  1.69416E-01 -2.04405E-01
  -1.73319E-01  7.58514E-02 -2.77541E-01 -2.30331E-01 -3.81709E-01 -1.38384E-01  4.70549E-02 -3.59391E-01 -2.21828E-01 -2.26534E-01
  -2.36839E-01 -2.48587E-01 -8.92673E-03  1.07227E-01  5.03785E-02 -4.31867E-02  2.38746E-01  4.42047E-01  1.19700E-01  1.75624E-01
   7.84548E-02  1.27891E-01  2.46683E-01  9.65036E-05 -2.15217E-01 -1.69227E-01 -1.49409E-01  1.28519E-01  3.14795E-01  1.06997E-01
   2.06900E-02  2.09139E-01 -3.86483E-02 -4.02241E-02  1.16834E-01 -8.20945E-02  3.48290E-01  3.89882E-02 -2.97018E-02  4.84124E-02
   2.66415E-01  1.73420E-01  9.31593E-02  3.30720E-01 -1.63884E-01  5.62793E-02 -2.21010E-01  1.33039E-01  1.37120E-01 -1.38372E-02
   1.00191E-01 -1.81675E-01 -9.32591E-03 -1.19860E-01  1.82566E-01 -7.95825E-02 -1.18189E-01 -3.95093E-01 -5.97288E-01 -8.44788E-02
  -4.27877E-01 -4.09649E-01 -1.09452E-01 -3.68734E-01 -2.95001E-01 -3.62514E-01 -3.85037E-02  2.52160E-01 -3.84117E-01 -6.88485E-02
  -1.51770E-01 -3.34527E-01 -2.05676E-01  1.34743E-02  2.96526E-01  5.36287E-02  1.38025E-01  3.19273E-01  4.44353E-01  6.60385E-02
   2.13888E-01  2.88964E-01 -3.82320E-02  2.25719E-01  4.35865E-01  1.97255E-01  4.54774E-02  9.16213E-02 -6.98510E-04  1.94065E-01
   7.26723E-02 -5.79603E-02  1.45862E-01  4.11030E-01  9.32132E-02  5.08174E-02  1.14992E-01 -9.45267E-02  5.02758E-02 -1.90083E-01
   2.41830E-01  3.64872E-01  2.86332E-01 -2.13395E-01 -4.23960E-01  1.39573E-01 -1.13631E-02  2.01471E-01  6.57874E-02  2.39093E-01
   6.62460E-02 -3.69418E-01 -1.81914E-01  1.12348E-01 -6.06290E-02 -2.00535E-01  4.90759E-01  1.46367E-01 -1.94624E-01 -1.91595E-01
  -1.61822E-01 -1.35866E-02  9.62510E-02 -6.65828E-02 -1.07835E-01  1.61920E-01  6.41425E-02 -9.66536E-02 -1.81468E-01  1.09632E-01
  -7.45246E-02  7.76622E-02  9.18426E-02 -2.32707E-01  1.23473E-01  2.97161E-01  2.47913E-02 -1.43608E-01 -8.57200E-02  1.26902E-01
   2.54483E-01  4.78708E-02  4.70232E-02  1.54033E-01  2.03615E-01 -2.89438E-01 -5.40986E-02 -2.22354E-02 -3.28871E-04  3.41453E-01
   4.04452E-02 -7.31788E-02 -1.90635E-01  1.23283E-01 -1.34887E-01  4.35184E-02  7.15637E-02  1.00961E-01  1.50347E-01 -7.65811E-02
   2.10632E-02 -2.06819E-01  6.46051E-02 -5.90723E-02 -1.22435E-01 -1.53490E-01  2.74619E-02 -9.50131E-02  5.98757E-03  1.15591E-01
  -3.11675E-01  1.16827E-01  1.96852E-01  5.93599E-02  1.00015E-02 -9.45823E-02 -1.29918E-01  2.77501E-01  1.65758E-02 -3.05828E-01
   1.02680E-01 -1.73165E-01  3.26647E-02 -3.47744E-02
 NY points of the fit to the data follow
   1.33662E-01  1.00200E-01  2.97944E-02 -4.10851E-03 -2.75247E-02 -2.76928E-02 -2.19930E-02 -8.48391E-03 -1.41429E-03  3.22966E-03
   8.65939E-02  2.53510E-01  4.67101E-01  5.02884E-01  4.15012E-01  4.56076E-01  3.39625E-01  1.92177E-01  1.68293E-01  1.31048E-01
   6.74851E-02  2.32242E-02  1.23875E-03 -3.30698E-02 -6.30563E-02 -8.94744E-02 -1.12121E-01 -1.26815E-01 -1.37178E-01 -1.48866E-01
  -1.56418E-01 -1.61706E-01 -1.74216E-01 -1.99432E-01 -2.28261E-01 -2.62898E-01 -3.03879E-01 -3.48064E-01 -3.52749E-01 -3.13047E-01
  -1.96211E-01 -7.05325E-02  7.21904E-02  2.80281E-01  3.93916E-01  4.99582E-01  5.21347E-01  4.52437E-01  4.05053E-01  3.38770E-01
   2.56896E-01  2.11889E-01  1.93369E-01  1.35847E-01  9.35612E-02  4.69884E-02  1.19619E-03 -2.60286E-02 -3.49057E-02 -3.36835E-02
  -7.13671E-02 -1.11790E-01 -1.50323E-01 -1.76678E-01 -1.66203E-01 -2.04891E-01 -4.64432E-02  1.05754E-01  1.09114E-01  2.74451E-01
   3.39547E-01  2.90301E-01  2.56580E-01  2.13830E-01  1.40127E-01  6.80293E-02  2.23683E-02 -4.33696E-02 -1.62705E-01 -2.95436E-01
  -3.61621E-01 -2.55368E-01 -1.59506E-01 -7.99667E-02  1.61200E-01  2.93388E-01  3.05362E-01  3.23530E-01  3.08068E-01  2.48228E-01
   1.94113E-01  1.73010E-01  1.41634E-01  1.15756E-01  8.56574E-02  3.09247E-02 -4.68700E-02 -1.65186E-01 -2.66599E-01 -3.33324E-01
  -3.00835E-01 -1.77063E-01 -3.37279E-02  1.15888E-01  1.98139E-01  2.36305E-01  2.33387E-01  2.28068E-01  2.19209E-01  2.22971E-01
   2.26095E-01  2.27554E-01  2.25004E-01  2.22992E-01  2.20294E-01  2.18768E-01  2.18159E-01  2.17858E-01  2.13125E-01  2.18829E-01
   2.09273E-01  1.81354E-01  1.38511E-01  7.80806E-02  7.75510E-02 -5.81029E-02 -1.06283E-01 -1.94306E-01 -3.61275E-01 -4.83165E-01
  -5.89068E-01 -4.70430E-01 -4.52775E-01 -3.13938E-01 -4.31639E-01 -6.33399E-01 -6.33430E-01 -5.48415E-01 -4.51166E-01 -2.55430E-01
  -8.95588E-02 -2.67430E-02 -1.07401E-02  1.01131E-02  3.18708E-02  5.21884E-02  6.98439E-02  8.61374E-02  1.01255E-01  1.13776E-01
   1.26815E-01  1.39263E-01  1.51260E-01  1.64517E-01  1.78741E-01  1.95062E-01  2.13108E-01  2.33949E-01  2.56140E-01  2.82039E-01
   3.16883E-01  3.65213E-01  4.31256E-01  4.51207E-01  6.49220E-01  8.09097E-01  8.89619E-01  3.55648E-01 -4.13876E-01 -5.40292E-01
  -8.42600E-01 -8.42764E-01 -6.15348E-01 -3.87470E-01 -3.62464E-01 -3.32886E-01 -3.04137E-01 -2.78755E-01 -2.64590E-01 -2.47525E-01
  -2.32661E-01 -2.17397E-01 -2.05013E-01 -1.91617E-01 -1.81134E-01 -1.79316E-01 -1.70956E-01 -1.64228E-01 -1.55691E-01 -1.50751E-01
  -1.41302E-01 -1.34448E-01 -1.26712E-01 -1.18269E-01 -1.09426E-01 -1.02078E-01 -9.42766E-02 -8.52659E-02 -7.83491E-02 -6.86644E-02
  -5.35001E-02 -3.32858E-02 -1.96706E-02 -2.96688E-02 -3.72509E-02 -3.31847E-02 -2.06043E-02 -8.40400E-03 -2.23898E-02 -3.98750E-02
  -5.52477E-02 -7.34330E-02 -7.81405E-02 -7.13274E-02 -6.09090E-02 -4.88502E-02 -3.35646E-02 -2.21509E-02 -2.46721E-02 -2.90806E-02
  -1.43162E-02 -1.29049E-02  1.35559E-03  4.93064E-02  1.62816E-01  2.76821E-01  2.58348E-01  2.36086E-01  2.41747E-01  3.02058E-01
   3.77532E-01  3.44417E-01  2.73515E-01  1.92151E-01  5.77979E-02 -2.62257E-02 -5.12440E-02 -5.41692E-02 -6.31504E-02 -7.23871E-02
  -8.25116E-02 -9.18622E-02 -9.90032E-02 -1.05690E-01 -1.11373E-01 -1.17270E-01 -1.24098E-01 -1.30578E-01 -1.39614E-01 -1.42793E-01
  -1.45444E-01 -1.49252E-01 -1.57201E-01 -1.86703E-01 -1.93755E-01 -1.88287E-01 -1.07530E-01 -2.85551E-02 -5.09971E-02  7.24377E-02
   1.40053E-01  1.22558E-01  1.37820E-01  1.41436E-01  1.71519E-01  1.22004E-01  1.21603E-01  1.31556E-01  1.07385E-01  1.10327E-01
   8.74380E-02  7.64208E-02  3.86027E-02  3.29335E-04 -4.29985E-02 -8.73593E-02 -1.34220E-01 -1.78320E-01 -2.48553E-01 -3.24992E-01
  -4.26768E-01 -5.02746E-01 -4.75637E-01 -4.18141E-01 -1.92295E-01  4.75604E-02  2.46983E-01  4.52994E-01  4.92504E-01  4.68658E-01
   4.21210E-01  3.40817E-01  2.85209E-01  2.48349E-01  2.36915E-01  2.46500E-01  2.42626E-01  2.56357E-01  2.53007E-01  2.48858E-01
   2.38918E-01  2.30300E-01  2.19443E-01  2.12757E-01  2.03945E-01  1.95278E-01  1.82037E-01  1.64909E-01  1.40303E-01  1.08556E-01
   8.81592E-02  5.17122E-02  4.53526E-02  4.69725E-02  3.34212E-02  4.46146E-02 -2.07489E-04 -3.87675E-02 -1.03836E-01 -1.64498E-01
  -2.26756E-01 -2.78159E-01 -2.91270E-01 -3.14030E-01 -2.65112E-01 -2.03283E-01 -9.39541E-02 -2.20950E-03  7.84696E-02  1.04438E-01
   8.11026E-02  3.69408E-02 -6.00252E-02 -9.47812E-02 -1.87370E-01 -2.82610E-01 -3.81575E-01 -4.39180E-01 -2.78637E-01 -2.48029E-01
  -3.62091E-01 -1.00659E+00 -1.79412E+00 -1.79778E+00 -1.50327E+00 -1.20137E+00 -6.06786E-01 -1.85956E-01 -8.58345E-02 -1.09288E-01
  -8.63546E-02 -6.18610E-02 -4.10064E-02 -2.48291E-02 -1.00862E-02  1.99012E-03  1.33948E-02  1.95199E-02  2.29947E-02  1.94511E-02
   6.93488E-03 -3.18463E-03 -2.24614E-02 -3.44139E-02 -4.30953E-02 -4.67123E-02 -4.26803E-02 -3.46458E-02 -2.40796E-02 -1.33576E-02
  -2.70188E-03  8.35209E-03  1.82066E-02  2.64941E-02  3.23151E-02  3.83640E-02  4.26467E-02  4.71982E-02  5.19787E-02  5.57265E-02
   5.90962E-02  6.22210E-02  6.59415E-02  6.91100E-02  7.31382E-02  7.53710E-02  7.74354E-02  7.88119E-02  8.17026E-02  8.47774E-02
   8.83943E-02  9.29763E-02  9.52288E-02  9.65440E-02  9.60050E-02  9.49624E-02  9.35252E-02  9.23898E-02  9.06814E-02  8.82265E-02
   8.49474E-02  8.11345E-02  7.63948E-02  7.06223E-02  6.50728E-02  6.07802E-02  5.58618E-02  5.14258E-02  4.66996E-02  4.28672E-02
   3.83970E-02  3.47434E-02  3.23454E-02  2.91058E-02  2.66161E-02  2.41635E-02  2.11298E-02  1.85117E-02  1.66852E-02  1.46573E-02
   1.32016E-02  1.14047E-02  1.06255E-02  1.09645E-02  1.10973E-02  1.23448E-02  1.47835E-02  1.72171E-02  2.10013E-02  2.53872E-02
   2.85646E-02  2.99059E-02  3.12038E-02  3.38705E-02  3.74299E-02  4.27093E-02  4.87169E-02  5.41352E-02  5.97924E-02  6.57702E-02
   7.32719E-02  8.16744E-02  9.05060E-02  1.00166E-01  1.09555E-01  1.18991E-01  1.29404E-01  1.38301E-01  1.45982E-01  1.51931E-01
   1.55446E-01  1.57816E-01  1.59007E-01  1.59633E-01  1.59658E-01  1.58499E-01  1.55015E-01  1.49177E-01  1.41482E-01  1.34051E-01
   1.26342E-01  1.19217E-01  1.11815E-01  1.04717E-01  9.66778E-02  9.04087E-02  8.43055E-02  7.81138E-02  7.30511E-02  6.84388E-02
   6.41815E-02  5.99666E-02  5.63915E-02  5.33046E-02  5.18645E-02  5.21121E-02  5.26848E-02  5.40609E-02  5.70672E-02  5.93867E-02
   6.25964E-02  6.72227E-02  7.17797E-02  7.60299E-02  7.96497E-02  8.28118E-02  8.44430E-02  8.59163E-02  8.81914E-02  9.10771E-02
   9.36228E-02  9.46400E-02  9.57479E-02  9.51469E-02  9.40678E-02  9.26687E-02  8.96599E-02  8.80015E-02  8.57682E-02  8.37440E-02
   8.15626E-02  7.94517E-02  7.72993E-02  7.46650E-02  7.21521E-02  6.91990E-02  6.58912E-02  6.35369E-02  6.20357E-02  6.00101E-02
   5.81710E-02  5.64744E-02  5.40788E-02  5.03205E-02  4.53915E-02  4.03869E-02  3.50561E-02  2.92083E-02  2.30578E-02  1.42586E-02
   3.53819E-03 -9.25163E-03 -2.29020E-02 -3.63214E-02 -5.07758E-02 -6.40834E-02 -7.65917E-02 -8.82081E-02 -1.00068E-01 -1.10331E-01
  -1.18155E-01 -1.22887E-01 -1.26392E-01 -1.28479E-01 -1.27862E-01 -1.25220E-01 -1.22177E-01 -1.17881E-01 -1.13192E-01 -1.09576E-01
  -1.06031E-01 -1.01839E-01 -9.64204E-02 -9.11786E-02 -8.43390E-02 -7.64785E-02 -6.90602E-02 -6.12097E-02 -5.33425E-02 -4.57958E-02
  -3.91661E-02 -3.18783E-02 -2.37400E-02 -1.79067E-02 -1.25409E-02 -6.66367E-03 -8.98255E-04  4.61531E-03  8.73882E-03  1.20042E-02
   1.66709E-02  1.95903E-02  2.17638E-02  2.52558E-02  2.68170E-02  2.85360E-02  3.05531E-02  3.13633E-02  3.17856E-02  3.23146E-02
   3.38856E-02  3.49448E-02  3.65193E-02  3.94304E-02  4.11385E-02  4.19592E-02  4.24645E-02  4.30207E-02  4.27339E-02  4.21864E-02
   4.27484E-02  4.23909E-02  4.14990E-02  4.17598E-02  4.15530E-02  4.09609E-02  4.14285E-02  4.24959E-02  4.33850E-02  4.25656E-02
   3.96954E-02  3.81679E-02  3.80799E-02  3.67310E-02  3.63807E-02  3.68476E-02  3.70835E-02  3.59431E-02  3.35863E-02  3.29959E-02
   3.27081E-02  3.28986E-02  3.28693E-02  3.33028E-02  3.36369E-02  3.36596E-02  3.40201E-02  3.43465E-02  3.42852E-02  3.49852E-02
   3.51358E-02  3.40607E-02  3.25262E-02  3.09333E-02  3.03410E-02  2.90755E-02  2.95675E-02  3.01916E-02  3.02914E-02  2.97764E-02
   2.90221E-02  2.91020E-02  3.02672E-02  3.11591E-02  3.18317E-02  3.10440E-02  2.86206E-02  2.68939E-02  2.56455E-02  2.53136E-02
   2.49100E-02  2.33969E-02  2.18438E-02  2.02246E-02  1.85885E-02  1.77211E-02  1.59966E-02  1.37729E-02  1.29440E-02  1.25105E-02
   1.07705E-02  9.10582E-03  8.31520E-03  6.16878E-03  4.12575E-03  2.24863E-03  3.95000E-04  3.43651E-04  2.48392E-04 -1.85044E-04
  -8.56814E-04 -2.41183E-03 -4.77027E-03 -7.71443E-03
 NY background values follow
     2.143E-02    2.143E-02    2.144E-02    2.144E-02    2.144E-02    2.145E-02    2.145E-02    2.146E-02    2.146E-02    2.147E-02
     2.147E-02    2.148E-02    2.148E-02    2.148E-02    2.149E-02    2.149E-02    2.150E-02    2.150E-02    2.151E-02    2.151E-02
     2.151E-02    2.152E-02    2.152E-02    2.153E-02    2.153E-02    2.154E-02    2.154E-02    2.154E-02    2.155E-02    2.155E-02
     2.156E-02    2.156E-02    2.157E-02    2.157E-02    2.157E-02    2.158E-02    2.158E-02    2.159E-02    2.159E-02    2.159E-02
     2.160E-02    2.160E-02    2.161E-02    2.161E-02    2.162E-02    2.162E-02    2.162E-02    2.163E-02    2.163E-02    2.164E-02
     2.164E-02    2.164E-02    2.165E-02    2.165E-02    2.166E-02    2.166E-02    2.167E-02    2.167E-02    2.167E-02    2.168E-02
     2.168E-02    2.169E-02    2.169E-02    2.169E-02    2.170E-02    2.170E-02    2.171E-02    2.171E-02    2.171E-02    2.172E-02
