 
 $NMID
 ID=''
 FMTDAT='(2E13.5)'
 TRAMP=   1.00000E+0
 VOLUME=   1.00000E+0
 $END
   7.46055E+2  -2.75087E+2
  -5.54656E+2   1.04536E+3
   4.11357E+3  -2.45740E+3
  -3.22709E+2  -1.21044E+3
  -3.27442E+3  -1.33923E+3
  -8.94946E+2  -9.12925E+1
  -3.08085E+3   6.84207E+2
  -3.71452E+3  -1.83567E+1
   1.92370E+3  -4.04041E+2
   3.83803E+1   7.27536E+2
   2.45838E+3   3.26782E+3
   3.27801E+3   2.34766E+3
   8.30821E+2   2.14198E+3
  -2.44821E+3  -1.33465E+2
  -2.54189E+3  -2.81504E+3
   2.24871E+3  -4.22304E+3
   5.42004E+3  -1.43271E+3
   2.88447E+3  -1.15721E+2
  -9.79263E+2  -1.00151E+2
  -1.76120E+3  -4.67374E+3
   4.05327E+3  -2.42837E+3
  -4.35303E+2   1.46072E+3
  -5.61252E+3  -1.81641E+3
  -3.00901E+3  -5.95643E+3
   5.95458E+3  -3.08236E+3
  -1.05361E+3   2.96831E+3
  -4.13060E+3  -1.32776E+3
   5.29922E+2  -3.71709E+3
   5.00524E+3  -2.93347E+3
   4.10837E+3  -7.82818E+2
   2.03695E+3   5.49475E+3
  -4.64981E+3   4.13340E+3
  -4.45847E+3  -4.00444E+2
   1.14391E+3  -2.25776E+3
   2.40723E+2  -6.60137E+2
  -1.51714E+3  -2.46818E+3
   3.51267E+3  -2.55288E+3
   4.70297E+3   3.62314E+3
   1.27867E+3   3.10552E+3
  -1.53101E+3   2.75804E+3
  -3.04104E+3   3.45095E+3
  -3.31822E+3  -7.47223E+2
  -2.05419E+3  -2.81364E+3
   2.52472E+3  -7.77712E+1
   2.94211E+2   2.80502E+3
   7.23441E+2   1.96899E+3
  -1.57393E+3   2.91197E+3
  -1.91658E+2   4.39223E+3
  -3.13198E+3   5.21983E+3
  -4.05490E+3   2.25293E+3
  -4.47789E+3  -3.39857E+3
  -8.71366E+2  -3.14074E+3
   2.20132E+3   1.09144E+3
   1.09535E+3  -1.56782E+3
  -2.19426E+2   2.15882E+3
  -2.76849E+3   8.79547E+2
  -2.52343E+3  -2.59428E+1
  -1.39563E+3  -4.06757E+3
   2.15675E+3  -5.14031E+3
   3.57976E+3  -1.38633E+3
   6.16034E+3   1.24266E+3
   3.89127E+3   5.00508E+3
  -5.63586E+2   4.51735E+3
   1.21750E+2   3.19096E+3
   3.35256E+3  -8.04519E+2
   3.46915E+3   3.03398E+3
  -1.59328E+3   6.77438E+3
  -4.33686E+3  -6.15731E+2
  -6.90272E+2  -8.71434E+2
   1.95211E+2  -1.54177E+2
  -7.62657E+2  -8.36274E+2
   1.52517E+2  -1.15857E+3
  -2.35944E+3  -7.65912E+2
   4.08366E+2  -1.32404E+3
   7.59172E+2   1.32106E+3
   2.57696E+2   1.42100E+3
  -1.73792E+2  -3.88830E+2
   7.24102E+2  -1.69585E+3
   2.26097E+3   2.93159E+2
   4.18533E+2   3.15793E+3
   1.24177E+2   1.62346E+3
   1.07579E+3  -1.01226E+3
   1.17478E+3   9.92382E+2
  -3.35444E+2   1.99348E+3
  -3.12371E+3   2.94303E+2
  -2.73028E+3  -3.09827E+3
   9.17037E+1  -4.35066E+3
   4.21043E+3  -3.15112E+3
   3.59699E+3   1.34138E+3
  -1.68945E+2   3.58924E+3
   3.93196E+2   4.92133E+2
  -4.85083E+2   1.81911E+3
  -5.72871E+2   3.29255E+3
  -3.66419E+3   2.18260E+3
  -1.79649E+3  -3.19881E+3
   6.33386E+2  -4.67434E+3
  -3.76942E+2   1.17861E+3
   8.07170E+2   4.08342E+3
  -3.92982E+3   4.18940E+2
  -4.67265E+3  -2.30514E+3
  -4.13935E+1  -2.92625E+3
   3.77019E+3   3.12614E+2
   1.20411E+2   2.94288E+3
  -2.20880E+3   6.58002E+2
  -6.94725E+2  -2.82361E+2
  -2.75428E+3   1.92050E+2
  -8.30654E+2   1.34145E+3
  -4.58004E+2  -2.40929E+3
  -3.75378E+3  -8.70803E+2
   1.07728E+3  -2.76288E+3
   2.59317E+3   2.88390E+2
   2.78628E+3   3.86151E+3
  -2.52154E+2   2.18072E+3
   1.25699E+2   1.26347E+3
  -5.19049E+2   1.15393E+3
  -1.98130E+3   1.26560E+2
  -4.39975E+3  -2.43972E+3
   6.31633E+2  -1.36405E+3
   5.43778E+0   4.50516E+2
   2.08080E+3  -1.92138E+3
  -5.99092E+2   1.78169E+3
  -1.91961E+3   2.77489E+2
   4.78273E+2  -2.82334E+3
   1.80148E+3   2.18103E+2
   5.44051E+2   3.10376E+3
  -2.98410E+2   1.31419E+2
  -2.60248E+2  -1.40649E+3
   1.44894E+2   4.52996E+2
  -3.81013E+2   3.84025E+2
  -4.31276E+2  -1.02020E+3
  -2.49444E+1  -3.20662E+3
   1.79011E+3  -1.25254E+3
   3.76026E+3   1.51281E+3
  -3.42208E+1   2.92553E+3
  -2.17162E+3   2.31097E+3
  -5.07006E+2  -1.89190E+3
  -1.05319E+3  -1.10846E+3
   1.74193E+3  -2.21200E+3
  -2.68592E+2  -1.18722E+3
   1.84348E+3  -8.34523E+2
   1.32346E+1   2.39853E+3
   2.40561E+3   9.63436E+2
   1.54871E+3   2.06011E+2
  -2.04318E+3   1.95378E+3
  -2.77048E+2   1.12251E+2
   6.51367E+2   2.92135E+2
  -4.92739E+2   6.89019E+0
   1.53198E+3  -5.89668E+2
  -2.84422E+2   8.91095E+2
  -4.91559E+2  -3.00503E+2
  -3.99498E+2  -2.18634E+3
  -1.07563E+2  -1.76099E+2
  -2.67119E+2  -1.36242E+2
  -8.53844E+2  -2.49888E+3
   6.63051E+2  -6.92172E+2
   5.16463E+2   3.56628E+2
  -7.96957E+2   7.24942E+2
  -2.90704E+2   1.68796E+3
  -1.36155E+3   3.70951E+2
  -7.61197E+2   1.57561E+3
   1.99642E+3   2.31700E+2
  -1.37298E+3   1.21513E+3
  -5.36274E+2  -2.27811E+2
  -1.22260E+2  -8.31939E+2
  -2.63614E+1  -1.85497E+3
  -1.64483E+3   9.94577E+2
  -2.12095E+2  -1.66193E+3
   2.12636E+3  -1.16136E+3
  -1.39080E+3   8.49799E+2
  -7.90857E+2   1.96091E+3
  -2.82492E+2   1.11142E+3
  -1.61368E+3  -1.61156E+3
  -5.19474E+2  -1.63759E+3
  -3.11793E+2   9.40028E+2
   4.54506E+2  -1.51439E+1
   6.24516E+2  -3.77455E+3
   1.15592E+3  -1.90003E+3
   4.39027E+2   1.10670E+3
  -8.52044E+2   3.22217E+3
  -1.94164E+3  -8.40380E+2
  -1.65178E+3  -1.56701E+3
   1.71611E+3  -9.88591E+2
  -1.36266E+2  -9.12454E+2
  -2.75514E+3   1.16807E+3
  -3.17451E+2  -3.81299E+2
   4.64140E+2  -1.19861E+3
   8.90343E+1   1.09884E+2
  -1.80461E+3  -5.46439E+2
  -1.62497E+2  -2.75972E+3
   1.99609E+3  -2.26892E+3
   2.59921E+3   1.42580E+3
   7.25053E+2   1.75174E+3
   1.09995E+3   3.84955E+2
   1.99361E+2  -1.26774E+3
   1.90552E+2  -2.33861E+3
  -2.21230E+1  -5.54824E+1
   1.86268E+2  -2.73592E+2
  -1.84878E+3  -4.48270E+2
   2.01364E+3  -5.57644E+2
   1.44431E+3   1.01702E+3
  -5.83377E+2   6.79965E+2
  -1.76861E+3   4.39083E+2
  -8.05563E+2  -3.70358E+3
  -4.00975E+2  -1.74563E+3
   7.61753E+2  -5.25806E+2
   1.18071E+3   8.48477E+2
  -1.30122E+2  -7.36903E+2
  -8.12701E+2  -9.04504E+2
   2.08335E+3   1.70561E+2
   9.09977E+0   1.49287E+3
  -6.19770E+2  -1.79633E+3
  -3.18370E+2  -2.84842E+3
   2.26132E+2  -2.44236E+3
   1.50510E+3   2.34328E+2
   3.59886E+2   2.68756E+3
  -8.78914E+2   3.35240E+2
   4.01579E+2   1.10601E+3
  -4.03326E+2   1.07956E+3
   7.33724E+2  -9.14679E+2
  -1.38324E+2  -1.76426E+3
  -1.80991E+3   2.17902E+2
   8.97843E+2  -2.62972E+3
  -1.91509E+3  -7.31285E+2
  -1.20993E+3  -1.29264E+3
   4.15014E+1  -2.23656E+3
   1.53631E+3  -7.15083E+2
   1.03778E+3   6.04572E+2
  -1.02287E+3   1.14523E+3
   4.22704E+2   1.65431E+2
   2.81401E+2  -3.53098E+2
  -3.31633E+1   2.33374E+3
   1.52033E+2  -1.05759E+3
  -4.01176E+1  -1.80399E+2
  -8.08326E+1  -9.34968E+2
   4.83574E+2  -7.93265E+2
   2.77377E+3   1.20238E+3
   1.63447E+3   1.74446E+3
  -1.25628E+3  -1.01512E+3
   3.16223E+2  -2.23759E+3
   2.80287E+2   1.64957E+1
   2.35941E+2   5.67285E+1
  -2.94535E+2   2.74833E+2
   5.39188E+2  -1.82761E+2
   1.09624E+3   8.57388E+2
   3.94922E+0   1.04874E+3
  -9.64896E+2  -1.71452E+2
  -9.75239E+2  -2.89249E+2
  -9.92641E+2  -5.25576E+2
   9.71573E+2   1.44975E+3
   1.91203E+2  -1.12711E+2
  -7.96800E+2   2.65787E+3
  -2.55702E+3   9.47050E+2
  -1.20776E+3  -3.92291E+2
  -1.21634E+3  -1.26171E+3
  -8.56468E+2  -7.57932E+2
   1.20140E+3  -1.75428E+2
   1.38959E+3  -5.43091E+2
   9.05464E+2  -1.03041E+2
  -9.31737E+2   2.63514E+3
  -7.93791E+2   9.53034E+2
   8.97020E+0   1.02195E+3
   1.85462E+3   1.75334E+3
   1.93540E+3  -7.35345E+1
   1.47959E+3   8.69755E+1
  -3.58722E+2  -9.45394E+2
   1.24321E+3   6.70716E+2
  -5.22983E+2   1.23784E+3
   1.19038E+2  -6.52948E+1
  -2.13886E+3  -2.42884E+1
   1.66898E+2  -8.75565E+2
   5.63411E+2  -1.20260E+2
   2.44233E+3   6.66346E+1
  -3.55099E+2  -2.14783E+2
  -6.22729E+2   1.13301E+3
  -8.27537E+2   5.63949E+2
   7.06248E+2  -7.21421E+2
   4.20909E+2  -5.71787E+2
   1.14213E+3   1.76334E+2
  -5.46279E+2  -1.00060E+3
  -1.64310E+2  -2.37228E+2
   6.65853E+2   1.14740E+2
  -1.12472E+2   1.77493E+3
  -1.44115E+3   7.16885E+2
   2.92922E+1  -6.23372E+2
  -1.00318E+3  -8.17544E+2
   2.62409E+2  -9.58246E+2
  -1.41384E+2   2.26296E+2
   1.42196E+3  -6.43513E+2
   6.48155E+2  -1.19370E+3
   1.48931E+3  -8.56183E+2
   6.89655E+2  -2.04675E+3
  -1.08532E+3  -1.34754E+3
  -3.43413E+2  -5.40201E+2
  -8.33425E+2   4.99164E+0
  -1.57941E+2   1.72165E+3
  -7.04339E+2   5.94233E+2
   1.97093E-1  -1.28893E+3
   2.24650E+3  -1.22056E+3
   2.20028E+3   8.41493E+1
   1.46999E+3   3.16631E+2
   2.91842E+2   6.64767E+2
  -7.27264E+2  -3.11248E+2
  -6.82219E+2   7.03777E+2
   1.39979E+3  -4.76776E+2
  -2.20222E+2  -1.54340E+3
   2.15974E+2  -9.79381E+2
   1.40786E+3  -1.85276E+3
   4.40950E+2  -2.04026E+2
   1.54030E+3   2.09974E+3
  -1.84704E+3   5.85949E+2
  -2.00597E+3   7.44800E+2
  -1.70415E+3   3.13614E+1
   9.05808E+2   3.48738E+2
   1.94458E+3   1.41007E+3
  -2.48789E+2  -3.58578E+2
   2.05467E+3   1.13985E+3
  -8.95692E+2   1.13341E+3
  -1.27063E+3   4.56849E+2
  -1.38012E+3  -8.95069E+2
  -2.51427E+2  -8.32532E+2
   5.64205E+2  -6.01853E+2
   7.80590E+2   8.67678E+2
  -1.52266E+3  -4.98343E+2
   1.13068E+2  -1.40436E+3
   1.30275E+3   1.26823E+3
   1.63352E+3   6.95483E+2
  -5.65325E+2  -6.53535E+2
  -8.15109E+2  -1.06504E+3
   5.09849E+2  -1.32066E+3
   2.39875E+3  -1.85912E+2
   9.67271E+2   1.28485E+3
  -2.89908E+2   2.23519E+3
  -1.51658E+3   1.88324E+3
   1.40561E+3   9.94994E+2
  -1.59567E+3  -9.05714E+2
  -1.65589E+3   5.77095E+2
   1.22856E+3   8.90694E+2
   1.18102E+3  -1.65780E+3
   3.18784E+2   2.38136E+2
   1.04718E+3   3.00089E+2
  -9.05853E+2  -1.20317E+3
  -8.66867E+2  -1.19187E+3
   1.29964E+3  -1.58789E+3
   1.75080E+3  -1.00690E+3
   6.78672E+1   9.41948E+1
  -1.63880E+3   1.45755E+3
   8.69353E+1  -2.82183E+1
   8.53298E+2   5.76320E+2
   3.98185E+2   9.71322E+2
  -1.46481E+3  -1.62425E+2
   8.69305E+1   1.08446E+2
  -1.19954E+3   2.18426E+2
   3.45214E+2   1.27938E+3
  -2.93418E+2   1.10729E+3
  -2.40257E+3  -3.06601E+1
   9.33432E+1  -1.01710E+3
   2.13223E+3  -1.44455E+3
  -2.31379E+2  -2.66556E+2
  -9.56142E+2   1.28054E+3
   1.79274E+2  -5.99522E+2
  -6.38473E+2  -3.71724E+2
  -1.62871E+3   7.38054E+2
   4.94408E+2   9.64427E+2
   9.17948E+2  -1.16538E+3
   1.32702E+3  -5.90304E+2
   2.41462E+3  -1.47898E+3
   6.50358E+2   1.47052E+3
