 
 $NMID
 ID=''
 FMTDAT='(2E13.5)'
 TRAMP=   1.00000E+0
 VOLUME=   1.00000E+0
 $END
  -1.20756E+4  -1.17914E+4
  -2.14980E+4  -3.78027E+4
  -2.80878E+4  -3.32746E+4
  -2.63580E+4  -3.04559E+4
  -2.66880E+4  -3.23209E+4
  -2.83724E+4  -3.09577E+4
  -2.72628E+4  -2.97155E+4
  -2.72340E+4  -3.06759E+4
  -2.82877E+4  -2.99001E+4
  -2.74777E+4  -2.91761E+4
  -2.73825E+4  -2.96188E+4
  -2.82241E+4  -2.89887E+4
  -2.78601E+4  -2.85045E+4
  -2.76557E+4  -2.90517E+4
  -2.79282E+4  -2.88034E+4
  -2.74100E+4  -2.83639E+4
  -2.73023E+4  -2.86826E+4
  -2.74372E+4  -2.83954E+4
  -2.71138E+4  -2.78687E+4
  -2.67987E+4  -2.81139E+4
  -2.69466E+4  -2.76033E+4
  -2.67009E+4  -2.70987E+4
  -2.65904E+4  -2.70809E+4
  -2.66265E+4  -2.66535E+4
  -2.61333E+4  -2.61161E+4
  -2.61100E+4  -2.59015E+4
  -2.60981E+4  -2.56083E+4
  -2.56788E+4  -2.52700E+4
  -2.54432E+4  -2.51657E+4
  -2.52972E+4  -2.47349E+4
  -2.52578E+4  -2.43153E+4
  -2.51101E+4  -2.41416E+4
  -2.50060E+4  -2.40160E+4
  -2.46833E+4  -2.35491E+4
  -2.45823E+4  -2.31886E+4
  -2.44892E+4  -2.29426E+4
  -2.42277E+4  -2.25027E+4
  -2.41527E+4  -2.22187E+4
  -2.40847E+4  -2.18422E+4
  -2.38714E+4  -2.15948E+4
  -2.36182E+4  -2.13788E+4
  -2.33590E+4  -2.12529E+4
  -2.30320E+4  -2.07943E+4
  -2.27951E+4  -2.04388E+4
  -2.26512E+4  -2.01913E+4
  -2.23997E+4  -1.98655E+4
  -2.21714E+4  -1.97479E+4
  -2.20346E+4  -1.93034E+4
  -2.19143E+4  -1.89743E+4
  -2.17246E+4  -1.86605E+4
  -2.15411E+4  -1.83262E+4
  -2.14371E+4  -1.79176E+4
  -2.13017E+4  -1.76202E+4
  -2.12016E+4  -1.73326E+4
  -2.09441E+4  -1.71276E+4
  -2.08617E+4  -1.68292E+4
  -2.07056E+4  -1.65970E+4
  -2.04868E+4  -1.63935E+4
  -2.02732E+4  -1.61636E+4
  -2.01309E+4  -1.59038E+4
  -1.99528E+4  -1.55922E+4
  -1.97785E+4  -1.53447E+4
  -1.96669E+4  -1.51906E+4
  -1.95104E+4  -1.49815E+4
  -1.93093E+4  -1.47348E+4
  -1.91908E+4  -1.45487E+4
  -1.90135E+4  -1.42813E+4
  -1.88068E+4  -1.41867E+4
  -1.85985E+4  -1.39607E+4
  -1.84152E+4  -1.37807E+4
  -1.82265E+4  -1.35520E+4
  -1.80569E+4  -1.34286E+4
  -1.79011E+4  -1.32367E+4
  -1.76982E+4  -1.30111E+4
  -1.75173E+4  -1.27046E+4
  -1.73406E+4  -1.25853E+4
  -1.72642E+4  -1.24098E+4
  -1.69626E+4  -1.22022E+4
  -1.68308E+4  -1.19941E+4
  -1.66339E+4  -1.17493E+4
  -1.65354E+4  -1.15896E+4
  -1.64149E+4  -1.14448E+4
  -1.61852E+4  -1.12623E+4
  -1.60439E+4  -1.11220E+4
  -1.58804E+4  -1.10469E+4
  -1.56963E+4  -1.08045E+4
  -1.55241E+4  -1.06571E+4
  -1.52756E+4  -1.05118E+4
  -1.51597E+4  -1.03772E+4
  -1.49238E+4  -1.02259E+4
  -1.47477E+4  -1.02181E+4
  -1.45474E+4  -9.99755E+3
  -1.44644E+4  -9.86153E+3
  -1.42505E+4  -9.75374E+3
  -1.40469E+4  -9.72348E+3
  -1.38741E+4  -9.57609E+3
  -1.37304E+4  -9.39881E+3
  -1.35773E+4  -9.29809E+3
  -1.33564E+4  -9.31727E+3
  -1.30794E+4  -9.16697E+3
  -1.29035E+4  -9.07106E+3
  -1.27146E+4  -8.96649E+3
  -1.26121E+4  -8.80734E+3
  -1.22824E+4  -8.80711E+3
  -1.21436E+4  -8.77912E+3
  -1.17992E+4  -8.67516E+3
  -1.16881E+4  -8.55237E+3
  -1.14546E+4  -8.50434E+3
  -1.12455E+4  -8.40481E+3
  -1.09777E+4  -8.29524E+3
  -1.07430E+4  -8.16918E+3
  -1.05844E+4  -8.08146E+3
  -1.02959E+4  -8.02470E+3
  -1.00988E+4  -7.97213E+3
  -9.89683E+3  -7.86398E+3
  -9.64296E+3  -7.77847E+3
  -9.30278E+3  -7.64259E+3
  -9.15234E+3  -7.59356E+3
  -8.95928E+3  -7.43950E+3
  -8.69666E+3  -7.31929E+3
  -8.54216E+3  -7.28703E+3
  -8.30459E+3  -7.13093E+3
  -8.02459E+3  -7.08734E+3
  -7.89387E+3  -6.95191E+3
  -7.61842E+3  -6.86812E+3
  -7.44750E+3  -6.76647E+3
  -7.27544E+3  -6.71922E+3
  -7.09258E+3  -6.52494E+3
  -6.84388E+3  -6.50788E+3
  -6.70838E+3  -6.41871E+3
  -6.54001E+3  -6.28230E+3
  -6.36329E+3  -6.20278E+3
  -6.19293E+3  -6.15143E+3
  -6.07518E+3  -6.02491E+3
  -5.83605E+3  -5.97697E+3
  -5.64772E+3  -5.89084E+3
  -5.50022E+3  -5.79361E+3
  -5.40153E+3  -5.69685E+3
  -5.18730E+3  -5.53543E+3
  -5.06819E+3  -5.48561E+3
  -4.93133E+3  -5.40801E+3
  -4.79750E+3  -5.36862E+3
  -4.64666E+3  -5.21015E+3
  -4.57895E+3  -5.15141E+3
  -4.42012E+3  -5.10711E+3
  -4.25292E+3  -4.97469E+3
  -4.18379E+3  -4.95175E+3
  -4.04551E+3  -4.90162E+3
  -3.94660E+3  -4.81793E+3
  -3.78422E+3  -4.74843E+3
  -3.59934E+3  -4.67624E+3
  -3.52048E+3  -4.60068E+3
  -3.49087E+3  -4.50147E+3
  -3.28662E+3  -4.44876E+3
  -3.23800E+3  -4.37207E+3
  -3.11662E+3  -4.37202E+3
  -3.08689E+3  -4.23950E+3
  -2.97839E+3  -4.21797E+3
  -2.93621E+3  -4.18954E+3
  -2.73861E+3  -4.15947E+3
  -2.67819E+3  -4.08614E+3
  -2.59553E+3  -3.99383E+3
  -2.47343E+3  -3.90489E+3
  -2.35363E+3  -3.89876E+3
  -2.30153E+3  -3.83149E+3
  -2.19471E+3  -3.78037E+3
  -2.15948E+3  -3.77285E+3
  -2.09209E+3  -3.70087E+3
  -1.98902E+3  -3.59871E+3
  -1.85660E+3  -3.54194E+3
  -1.76310E+3  -3.55414E+3
  -1.73812E+3  -3.40063E+3
  -1.62328E+3  -3.44411E+3
  -1.63314E+3  -3.35059E+3
  -1.60718E+3  -3.28131E+3
  -1.47647E+3  -3.22106E+3
  -1.45030E+3  -3.17101E+3
  -1.43466E+3  -3.07211E+3
  -1.33418E+3  -3.09519E+3
  -1.23028E+3  -3.05752E+3
  -1.15125E+3  -2.94851E+3
  -1.20859E+3  -2.91049E+3
  -1.11795E+3  -2.89978E+3
  -9.93794E+2  -2.87092E+3
  -1.00223E+3  -2.81374E+3
  -9.45711E+2  -2.77424E+3
  -9.37535E+2  -2.72062E+3
  -8.47596E+2  -2.65312E+3
  -8.61591E+2  -2.60495E+3
  -7.69940E+2  -2.61238E+3
  -7.65281E+2  -2.49963E+3
  -6.42487E+2  -2.44794E+3
  -6.59985E+2  -2.45225E+3
  -5.86907E+2  -2.38012E+3
  -6.15597E+2  -2.38230E+3
  -5.48474E+2  -2.37945E+3
  -5.18794E+2  -2.29867E+3
  -4.95748E+2  -2.28518E+3
  -4.83292E+2  -2.18987E+3
  -4.33207E+2  -2.21466E+3
  -3.84281E+2  -2.15610E+3
  -4.17669E+2  -2.14477E+3
  -4.17215E+2  -2.13776E+3
  -3.27967E+2  -2.05895E+3
  -4.00710E+2  -1.97954E+3
  -3.32349E+2  -2.01693E+3
  -2.71408E+2  -2.01621E+3
  -3.24989E+2  -1.99163E+3
  -2.05185E+2  -1.97544E+3
  -2.55120E+2  -1.86655E+3
  -2.11415E+2  -1.82328E+3
  -1.82066E+2  -1.82079E+3
  -1.50365E+2  -1.80614E+3
  -8.75314E+1  -1.77508E+3
  -1.56831E+2  -1.77581E+3
  -9.08087E+1  -1.73104E+3
  -8.73543E+1  -1.79533E+3
  -1.05881E+2  -1.67374E+3
  -1.13499E+1  -1.69680E+3
  -8.80989E+1  -1.64981E+3
  -6.40612E+1  -1.55433E+3
  -3.39966E+1  -1.55645E+3
   5.47759E+1  -1.52309E+3
   1.17786E+1  -1.50980E+3
   1.11429E+2  -1.47747E+3
   3.83839E+1  -1.46018E+3
   8.90851E+1  -1.43568E+3
   1.32313E+2  -1.39671E+3
   1.21393E+2  -1.32057E+3
   1.02736E+2  -1.42053E+3
   1.46505E+2  -1.34796E+3
   1.29349E+2  -1.29669E+3
   1.20866E+2  -1.33387E+3
   2.66481E+2  -1.28403E+3
   1.29424E+2  -1.25398E+3
   2.01136E+2  -1.23234E+3
   2.05127E+2  -1.17430E+3
   2.31824E+2  -1.13348E+3
   1.96925E+2  -1.07250E+3
   2.50570E+2  -1.08794E+3
   2.03502E+2  -1.11046E+3
   2.63335E+2  -1.10184E+3
   2.42034E+2  -9.96423E+2
   2.97278E+2  -1.00488E+3
   2.34709E+2  -1.01714E+3
   3.10823E+2  -9.04091E+2
   3.52112E+2  -9.36939E+2
   2.77120E+2  -8.82131E+2
   2.78634E+2  -8.86281E+2
   3.41509E+2  -8.50278E+2
   3.21198E+2  -8.87890E+2
   2.80989E+2  -8.01542E+2
   3.77193E+2  -8.10018E+2
   3.53722E+2  -7.82244E+2
   3.80199E+2  -6.85705E+2
   3.40265E+2  -7.48482E+2
   3.96733E+2  -7.40892E+2
   3.80146E+2  -7.13718E+2
   3.91957E+2  -6.78503E+2
   3.82719E+2  -6.74943E+2
   4.25857E+2  -7.18006E+2
   4.31185E+2  -6.41441E+2
   3.93439E+2  -6.45681E+2
   3.88929E+2  -6.52333E+2
   3.71002E+2  -5.83415E+2
   4.03660E+2  -5.57842E+2
   4.02401E+2  -5.68872E+2
   3.71024E+2  -5.90845E+2
   3.85033E+2  -5.46064E+2
   4.11762E+2  -5.53807E+2
   4.88010E+2  -5.26157E+2
   4.68154E+2  -5.41294E+2
   4.09091E+2  -5.31949E+2
   4.19712E+2  -5.40174E+2
   5.03511E+2  -5.15657E+2
   4.14030E+2  -5.48543E+2
   4.26877E+2  -4.67667E+2
   4.58414E+2  -4.92055E+2
   4.27829E+2  -4.72320E+2
   4.14657E+2  -5.61192E+2
   3.88644E+2  -4.88300E+2
   4.51446E+2  -5.27348E+2
   4.73644E+2  -4.27118E+2
   4.27192E+2  -4.56864E+2
   4.27927E+2  -4.58530E+2
   4.25838E+2  -4.20082E+2
   4.65633E+2  -4.52309E+2
   4.50622E+2  -3.90192E+2
   4.00854E+2  -4.25894E+2
   4.71459E+2  -4.14923E+2
   4.82309E+2  -3.67622E+2
   4.27985E+2  -3.32096E+2
   3.67294E+2  -3.52467E+2
   4.43945E+2  -3.63389E+2
   4.56570E+2  -4.02952E+2
   3.88347E+2  -3.78364E+2
   4.61374E+2  -3.82296E+2
   4.68990E+2  -3.32088E+2
   4.19933E+2  -2.88855E+2
   4.77304E+2  -3.72914E+2
   4.04625E+2  -3.64119E+2
   4.82377E+2  -3.13281E+2
   4.12277E+2  -3.79255E+2
   3.90335E+2  -3.43884E+2
   4.48178E+2  -3.83304E+2
   3.84754E+2  -3.09066E+2
   3.62189E+2  -3.44535E+2
   4.51212E+2  -2.88920E+2
   4.10915E+2  -4.06167E+2
   4.49316E+2  -2.97391E+2
   4.28490E+2  -3.50442E+2
   4.04125E+2  -3.48380E+2
   3.72443E+2  -2.96707E+2
   4.61600E+2  -3.33923E+2
   4.13167E+2  -3.04096E+2
   4.19904E+2  -3.01028E+2
   4.13254E+2  -3.71733E+2
   4.38666E+2  -2.66136E+2
   3.76867E+2  -3.21471E+2
   3.51242E+2  -2.64800E+2
   4.34070E+2  -2.80846E+2
   4.36041E+2  -2.90073E+2
   4.07032E+2  -2.86562E+2
   4.28792E+2  -2.92733E+2
   4.49578E+2  -2.80952E+2
   4.42228E+2  -3.07992E+2
   4.20339E+2  -2.44055E+2
   3.80607E+2  -2.26012E+2
   4.23829E+2  -3.14052E+2
   4.05069E+2  -2.89277E+2
   4.32532E+2  -2.98756E+2
   3.58540E+2  -3.10998E+2
   3.56218E+2  -2.17235E+2
   4.09410E+2  -2.95709E+2
   3.79189E+2  -2.74733E+2
   3.67966E+2  -2.12969E+2
   3.03567E+2  -2.20725E+2
   3.77046E+2  -2.58746E+2
   3.84269E+2  -2.67156E+2
   3.85843E+2  -2.85850E+2
   4.18734E+2  -2.42505E+2
   4.37515E+2  -1.70884E+2
   3.33527E+2  -2.05914E+2
   4.39409E+2  -2.74791E+2
   3.59383E+2  -2.65698E+2
   4.31138E+2  -2.22808E+2
   3.57628E+2  -2.26522E+2
   3.72520E+2  -2.58102E+2
   4.10098E+2  -1.83903E+2
   3.57803E+2  -2.34905E+2
   3.84059E+2  -2.21641E+2
   3.82991E+2  -2.53324E+2
   3.58972E+2  -2.29993E+2
   3.75894E+2  -2.14461E+2
   3.65557E+2  -1.95508E+2
   3.63248E+2  -2.10305E+2
   4.23487E+2  -2.40487E+2
   3.58533E+2  -2.23839E+2
   3.44894E+2  -2.18603E+2
   4.02064E+2  -2.14853E+2
   3.71972E+2  -2.57704E+2
   3.79265E+2  -2.29691E+2
   3.84384E+2  -1.99384E+2
   4.06557E+2  -2.19058E+2
   4.25055E+2  -2.47676E+2
   3.74779E+2  -2.02001E+2
   4.13171E+2  -1.19409E+2
