 
 $NMID
 ID=''
 FMTDAT='(2E13.5)'
 TRAMP=   1.00000E+0
 VOLUME=   1.00000E+0
 $END
  -3.78628E+2  -3.49933E+1
  -4.16908E+2  -7.22884E+2
   2.98711E+3   1.32215E+3
   3.90031E+2  -1.23987E+3
   4.44383E+1  -1.16013E+2
  -1.52791E+3   9.97921E+2
  -4.23025E+3  -1.12570E+3
  -6.94789E+2  -3.15327E+2
  -1.41975E+3  -1.24946E+3
   2.94466E+3  -6.76860E+2
   2.53964E+3   5.23237E+3
  -2.46790E+3   5.70945E+3
  -7.43967E+2   1.94450E+3
   3.16677E+2   2.36298E+2
   8.99658E+2  -3.23388E+2
   2.16189E+3   8.98819E+2
   8.56893E+1  -1.15520E+2
   2.49178E+3  -1.66146E+3
   2.60857E+3   2.46818E+2
   1.69757E+3  -3.11966E+2
   4.87819E+2   4.57151E+2
  -7.88282E+1   1.19156E+1
  -1.35744E+3   1.22524E+2
  -8.73924E+2  -8.03678E+2
  -1.68044E+3   3.50181E+2
  -1.71532E+3  -4.33928E+3
   7.20169E+2  -1.37867E+3
   1.33129E+3  -1.40182E+3
  -1.30852E+2   2.07692E+3
  -1.20950E+3   1.43290E+3
  -2.94334E+3  -1.53030E+3
   3.73883E+3  -1.29769E+3
   4.43347E+2   4.70190E+3
  -3.81697E+3  -2.39690E+2
  -1.31831E+3  -4.81839E+2
  -1.52651E+3   5.84699E+1
  -1.72494E+3  -3.33126E+3
   1.64647E+3  -4.57833E+3
   4.28447E+3  -5.69567E+2
   4.48265E+3   5.01396E+2
   2.55572E+3   1.97158E+3
   1.53659E+3   2.89461E+3
  -2.74358E+3   4.03433E+3
  -5.22234E+3   7.98865E+2
  -2.09627E+3  -3.62360E+3
   8.86109E+0  -1.61527E+3
  -1.15354E+3  -1.10847E+3
   9.46083E+2  -1.53397E+3
   9.01785E+2   2.96960E+2
   2.41874E+2   8.53677E+2
  -2.20259E+3  -8.95783E+2
   7.05288E+2   1.05092E+2
   1.92681E+3  -6.86805E+2
   3.69455E+2   2.01451E+3
   6.34936E+2   4.37243E+2
  -1.59990E+3   3.33019E+3
  -1.66458E+3   5.08481E+3
  -2.61032E+3  -9.71670E+2
  -4.97494E+2  -2.78954E+3
   1.41820E+3  -2.15872E+3
   1.86356E+3  -4.69191E+2
   2.10848E+3   1.10280E+3
   1.55480E+2   7.38202E+2
  -2.08973E+2   1.59072E+3
  -1.09021E+3  -1.51072E+3
   1.36858E+2  -4.52651E+2
  -2.43665E+3  -4.23539E+2
  -4.69444E+2  -2.03540E+3
   2.72655E+3  -1.88349E+3
   1.49907E+3  -4.72232E+2
   2.93733E+3   1.08997E+3
   2.81431E+3  -1.87277E+2
   2.83894E+3  -3.02741E+2
   1.64434E+2   2.88400E+3
   1.79770E+2  -4.35345E+2
  -1.10854E+3  -1.14915E+3
  -1.14946E+3   9.04637E+2
  -1.79844E+3   4.08876E+2
   1.04523E+3  -1.90700E+2
  -2.51844E+2  -2.48649E+2
  -8.63684E+2  -8.92692E+2
  -1.30343E+1  -1.95877E+3
   1.71915E+3  -1.10769E+3
   1.43191E+3  -1.76493E+3
  -8.68728E+2  -6.34278E+1
   3.26961E+3   5.10868E+1
   6.05270E+2   2.20121E+3
  -1.84106E+3   3.09886E+3
   3.54448E+2   1.06940E+2
  -1.06494E+3  -5.50835E+2
  -1.14338E+3   1.42028E+3
  -1.24749E+3  -2.36826E+2
   2.06799E+3  -2.95251E+2
  -1.09950E+3   7.00221E+2
  -9.54119E+2   5.20983E+2
  -1.87400E+3   8.15908E+2
  -1.26398E+3   1.19565E+3
  -1.09747E+3  -3.64270E+3
   1.48554E+3   4.45198E+2
   1.84287E+3   9.60546E+2
  -7.19139E+2   1.10904E+3
   2.12445E+2  -3.02253E+3
   8.15055E+2  -1.77658E+3
   2.34655E+3  -5.95052E+2
  -6.60669E+2  -9.53402E+0
   4.46118E+2   9.68159E+1
   8.10407E+2  -5.30508E+2
   3.28021E+3   1.00205E+3
   1.89678E+2  -1.48137E+2
   6.07455E+2   3.27033E+2
   1.58715E+3   1.10904E+3
   1.52039E+3   2.29075E+3
   1.97452E+2   1.52698E+3
  -5.25756E+2   2.78771E+3
  -1.03465E+3   1.24645E+2
  -3.55820E+2   1.81954E+3
  -2.19085E+3  -1.12343E+3
  -4.20459E+2  -1.25764E+2
  -1.90905E+3  -1.13302E+3
  -1.41978E+3   4.97359E+2
  -7.05265E+2   1.10026E+3
  -1.51943E+3   9.47354E+1
   4.66707E+2   7.78399E+2
   1.14967E+3   2.11607E+3
  -1.48598E+3  -1.00662E+3
  -2.72721E+2   6.27355E+2
  -1.74743E+3  -4.80247E+2
  -2.26990E+2   6.84008E+2
   3.68696E+2  -8.54473E+2
  -6.47574E+2  -1.11630E+3
   4.72868E+2   9.68429E+2
  -3.46005E+2   1.51815E+3
  -1.50632E+3   3.34142E+2
  -1.33311E+2  -1.90032E+2
   1.50843E+3  -1.56060E+3
  -3.97351E+0  -7.54423E+2
  -1.72639E+3  -9.57713E+2
  -1.38223E+3   9.12851E+2
   4.19495E+2   4.94666E+2
   6.01187E+2   1.11276E+3
  -5.62497E+2  -1.62415E+3
  -5.43095E+2   2.94633E+2
  -1.20537E+3  -3.09580E+1
  -5.22484E+2  -6.03757E+2
  -2.22504E+3   8.50556E+1
  -6.53506E+2   4.87156E+2
   1.74724E+2   1.08267E+3
  -6.37463E+2  -2.79072E+2
  -8.57168E+2   6.87971E+2
   1.21819E+3   5.55425E+2
   8.59876E+2  -6.81647E+2
  -1.66945E+3   1.22274E+3
  -2.10511E+3   8.03608E+2
  -2.18907E+3  -1.72412E+2
  -7.99165E+2   1.33019E+3
  -1.70296E+3   7.20799E+2
   6.22890E+1   5.33458E+2
   3.61555E+2   1.70166E+3
   3.73908E+2  -7.50723E+2
  -5.51764E+2  -2.95490E+3
  -1.60831E+3   2.06740E+3
  -3.83051E+2   6.52077E+2
  -1.25926E+3  -3.58608E+2
  -6.44806E+2  -1.30887E+3
   3.40708E+2  -9.46250E+2
   1.37306E+3  -1.02063E+3
  -1.27343E+3   5.82545E+2
  -1.85193E+2  -3.69779E+2
  -9.84622E+2   1.33123E+3
  -1.00357E+3   1.79679E+3
   1.03169E+3  -1.76186E+3
   3.95907E+2  -6.77417E+0
  -1.48210E+3  -3.20016E+2
   2.86960E+2   5.47462E+1
  -3.19050E+3  -3.03829E+3
   6.46914E+1  -7.55375E+2
  -2.83973E+2   9.44660E+2
  -1.59475E+2  -1.21804E+3
  -7.83817E+2  -1.57266E+3
  -1.46768E+3   7.29938E+2
  -6.73695E+2  -2.45127E+3
  -2.95940E+2  -1.92317E+3
   9.99043E+2  -1.53541E+3
   1.53087E+3  -1.81189E+3
  -1.03289E+3  -1.97536E+3
   4.70614E+2   6.30785E+2
   1.38300E+3   1.60206E+3
   7.76303E+2  -8.28909E+2
  -1.20369E+3  -1.01118E+3
   7.33365E+2  -8.67344E+2
  -2.91445E+2  -1.11270E+3
   1.20074E+3  -1.22315E+3
   3.76506E+2  -1.32017E+3
   1.61083E+3  -8.36793E+2
   7.40092E+2  -3.49666E+2
  -1.77719E+3  -1.06679E+3
   4.61759E+2   8.94439E+0
   7.29933E+2  -1.33817E+2
   6.13775E+2  -8.30160E+2
  -1.33820E+2  -1.12174E+3
  -1.10720E+3   2.89309E+3
  -4.56339E+2  -1.23700E+3
   3.30313E+2  -4.86282E+2
  -7.27743E-2   7.32218E+2
  -2.31734E+2  -1.55471E+3
  -4.12717E+2   1.03695E+3
   1.05240E+3  -1.83803E+3
   1.67505E+3  -2.44400E+2
  -1.45332E+2   1.13166E+3
  -1.45273E+2  -1.59861E+3
  -4.16445E+2  -1.35576E+3
   1.97712E+3  -2.28093E+3
   8.37500E+2  -1.34004E+3
   6.33712E+2   6.99600E+2
   2.05283E+3  -3.88790E+2
   1.03349E+3   1.32496E+3
   7.30267E+2   6.10679E+1
   8.10146E+2  -2.36697E+2
   2.55038E+3   7.11613E+2
  -8.70554E+2  -1.12076E+3
  -1.23115E+3  -3.46289E+1
   3.22954E+2  -9.65911E+2
  -9.49874E+2   5.72221E+2
   4.34247E+2  -2.57479E+2
  -1.61703E+3   3.95567E+2
   7.24605E+2   3.94526E+2
   6.19179E+2   9.67750E+2
  -3.03163E+2  -2.00936E+0
   1.62585E+3  -1.64256E+3
  -1.96355E+2   1.18929E+3
   8.20906E+2  -1.23561E+3
  -1.67959E+2  -2.01846E+2
   8.16202E+2  -1.14396E+3
  -5.89795E+2  -2.18904E+2
   1.84550E+3   1.18787E+3
   1.72752E+3  -1.20460E+3
   2.13261E+3   1.07623E+3
  -1.73699E+3   3.45971E+2
   1.06875E+3   3.79395E+1
  -5.44294E+2  -6.31407E+2
   1.38492E+3   3.87398E+3
  -4.24358E+2  -1.00010E+3
   9.73989E+2  -1.40502E+3
   8.18251E+2   5.17755E+2
   3.06267E+2  -1.14967E+3
   5.45284E+2   1.05412E+2
  -1.34476E+3   1.25253E+2
  -6.64582E+1  -9.33865E+2
   1.08616E+3  -4.38448E+2
   1.69742E+2  -9.49671E+1
  -1.66453E+3   5.78560E+2
  -5.11357E+2   9.75819E+2
  -9.80423E+2   3.38878E+2
  -1.03482E+3  -4.75901E+2
   1.33107E+3  -3.77060E+2
  -1.55482E+3   3.44487E+2
   2.03046E+3  -7.01381E+2
   4.68824E+2  -2.28130E+3
  -1.31475E+3   1.09353E+3
  -3.92675E+2  -1.28208E+3
   1.01189E+3  -6.21915E+2
   1.07848E+2  -6.39285E+2
   1.15066E+3  -9.62124E+2
  -1.12140E+2  -5.71353E+2
   1.69010E+3   1.34066E+2
  -1.20780E+3  -9.44957E+2
  -1.17188E+2   3.41142E+3
   2.02771E+3   1.85886E+3
   4.62947E+2  -4.44157E+2
  -3.51966E+2   5.17108E+2
   6.02622E+2  -1.99623E+1
   6.06306E+2   1.26669E+3
  -2.17881E+2   4.30471E+2
   1.94349E+2   5.88087E+2
   5.47598E+2   4.60391E+2
  -2.28625E+2   1.52994E+2
  -1.25909E+3   9.10176E+2
  -1.78188E+3  -7.67541E+2
   1.86085E+3   1.32410E+3
   1.17614E+3   9.89820E+1
  -1.06297E+3  -8.77271E+2
   5.66522E+2   7.44947E+2
  -3.92105E+2  -1.70479E+2
   4.48386E+2   2.51842E+2
   7.75607E+2   7.71043E+2
   4.76954E+2   5.22528E+2
   2.00337E+2   9.00688E+2
   6.71160E+2   1.24531E+3
  -1.25004E+3   1.92522E+2
   7.12912E+2   5.22551E+2
   2.06524E+2   1.11627E+3
   2.01201E+3   4.45246E+2
  -9.13087E+2   1.51091E+3
  -2.26427E+2   3.38227E+2
   1.42555E+3   1.99891E+3
  -5.32453E+2   3.80328E+2
   9.66664E+2   1.35025E+3
  -2.74125E+3   6.87461E+2
  -6.52850E+2   1.31665E+3
  -3.51261E+2   1.99387E+3
  -4.47300E+2  -6.95745E+1
   1.09453E+3   2.29384E+3
   5.59130E+2  -3.60705E+2
  -4.65168E+2   1.54454E+3
  -4.26531E+2   8.41401E+2
  -1.81635E+2   3.87548E+2
   4.85203E+2  -7.07362E+2
  -2.00482E+3   2.83676E+3
  -6.09186E+2  -1.13337E+3
   4.38599E+2  -2.59005E+2
   8.26930E+2  -4.40081E+1
   8.08971E+2  -1.70899E+3
  -3.46998E+2   1.83427E+3
  -2.26638E+2   7.41554E+2
   1.74431E+3  -2.04065E+3
   4.25429E+2   4.16293E+0
   1.09219E+3  -6.85351E+2
  -9.73645E+2   3.47765E+3
   1.27374E+3  -1.51695E+3
   2.10264E+3   6.47712E+2
   6.94648E+2  -9.05878E+1
   3.18747E+2  -5.69021E+2
  -4.20863E+2   7.67703E+2
   6.90990E+2  -1.73895E+3
   8.66306E+2  -3.41145E+2
  -4.99445E+2  -1.38550E+2
   1.01557E+3   1.97549E+3
   7.18038E+2   3.47189E+3
   8.15520E+2   6.73218E+2
   1.97172E+3  -5.39853E+2
  -1.15752E+3  -1.24984E+3
   8.67918E+1   7.30890E+2
  -4.61689E+1   8.32052E+2
   1.73286E+3   4.54736E+1
  -7.56964E+2   6.99744E+2
  -1.08595E+2  -6.41222E+2
  -3.61473E+2   2.25138E+2
   5.33635E+2  -3.65821E+2
   4.04122E+2   5.61774E+2
   5.58750E+2  -6.58533E+2
   1.42574E+3  -1.60375E+3
   1.00032E+3  -3.67587E+2
   1.43414E+3   9.68103E+2
   1.97435E+3   1.27127E+3
   7.44204E+1  -2.60223E+2
  -2.39163E+2   4.43559E+2
   3.45195E+2  -4.12151E+2
   6.15701E+2   1.39804E+2
   2.23832E+3   1.08908E+3
   4.09848E+2  -3.25299E+2
  -6.87121E+2   6.82202E+2
  -1.26100E+3  -2.31730E+2
   5.19437E+2   5.77882E+1
   7.13738E+2   1.67098E+1
  -5.71281E+2   5.94545E+2
   1.31632E+3  -9.56033E+2
   4.05623E+2   3.66858E+1
  -2.06350E+2  -1.05953E+3
  -4.95575E+2   1.24571E+3
   5.38304E+2   7.20211E+2
  -1.38507E+3  -2.01010E+2
   9.15181E+2   1.12747E+3
   7.38958E+2   3.08956E+2
  -8.22442E+2   9.61605E+1
  -9.64654E+1   5.13256E+2
  -5.01454E+2   3.84689E+2
   2.27275E+2  -1.72245E+2
