 LCModel (Version 6.3-1N) Copyright: S.W. Provencher.          Ref.: Magn. Reson. Med. 30:672-679 (1993).                
 Slice_N1@19_21  02-Jun-2023 14:36:42
 27 lines in following concentration table = NCONC+1
    Conc.  %SD /Cr+PCr  Metabolite                                         
 1.69E-06  20% 2.1E-04 Mac                                                 
 4.26E-02  23%   5.358 Cr                                                  
 2.10E-02  48%   2.642 PCr                                                 
 6.79E-02  12%   8.529 Ins                                                 
 8.19E-02   9%  10.288 NAA                                                 
 6.62E-02  12%   8.318 Tau                                                 
 8.77E-03  44%   1.102 PCho                                                
 5.16E-03  81%   0.648 GPC                                                 
 6.63E-02  14%   8.326 Glu                                                 
 2.55E-02  28%   3.201 Gln                                                 
    0.000 999%   0.000 Ala                                                 
 1.45E-02  91%   1.825 Asc                                                 
 6.45E-03 111%   0.811 Asp                                                 
 1.17E-02  33%   1.472 GABA                                                
 6.39E-03  73%   0.803 Glc                                                 
 1.29E-02  32%   1.623 GSH                                                 
    0.000 999%   0.000 Lac                                                 
    0.000 999%   0.000 NAAG                                                
    0.000 999%   0.000 PE                                                  
 1.39E-02  16%   1.750 GPC+PCho                                            
 8.19E-02   9%  10.288 NAA+NAAG                                            
 9.17E-02  12%  11.526 Glu+Gln                                             
 6.37E-02  10%   8.000 Cr+PCr                                              
 8.19E-02   9%  10.288 NAA+NAAG                                            
 6.37E-02  10%   8.000 Cr+PCr                                              
 9.17E-02  12%  11.526 Glu+Gln                                             
   6 lines in following misc. output table
  FWHM = 0.023 ppm    S/N =   6                                            
  Data shift = 0.006 ppm                                                   
  Ph:  18 deg      -8.4 deg/ppm                                            
  alphaB,S = 2.2E+01,   1.2E+01                                            
   18 spline knots.   Ns = 5(1)                                            
   3 inflections.     1 extrema                                            
  654 points on ppm-axis = NY
      4.000000     3.994181     3.988363     3.982544     3.976726     3.970907     3.965088     3.959270     3.953451     3.947633
      3.941814     3.935995     3.930177     3.924358     3.918540     3.912721     3.906902     3.901084     3.895265     3.889446
      3.883628     3.877809     3.871991     3.866172     3.860353     3.854535     3.848716     3.842898     3.837079     3.831260
      3.825442     3.819623     3.813805     3.807986     3.802167     3.796349     3.790530     3.784712     3.778893     3.773074
      3.767256     3.761437     3.755619     3.749800     3.743981     3.738163     3.732344     3.726526     3.720707     3.714888
      3.709070     3.703251     3.697433     3.691614     3.685795     3.679977     3.674158     3.668339     3.662521     3.656702
      3.650884     3.645065     3.639246     3.633428     3.627609     3.621791     3.615972     3.610153     3.604335     3.598516
      3.592698     3.586879     3.581060     3.575242     3.569423     3.563605     3.557786     3.551967     3.546149     3.540330
      3.534512     3.528693     3.522874     3.517056     3.511237     3.505419     3.499600     3.493781     3.487963     3.482144
      3.476326     3.470507     3.464688     3.458870     3.453051     3.447232     3.441414     3.435595     3.429777     3.423958
      3.418139     3.412321     3.406502     3.400684     3.394865     3.389046     3.383228     3.377409     3.371591     3.365772
      3.359953     3.354135     3.348316     3.342498     3.336679     3.330860     3.325042     3.319223     3.313405     3.307586
      3.301767     3.295949     3.290130     3.284312     3.278493     3.272674     3.266856     3.261037     3.255219     3.249400
      3.243581     3.237763     3.231944     3.226125     3.220307     3.214488     3.208670     3.202851     3.197032     3.191214
      3.185395     3.179577     3.173758     3.167939     3.162121     3.156302     3.150484     3.144665     3.138846     3.133028
      3.127209     3.121391     3.115572     3.109753     3.103935     3.098116     3.092298     3.086479     3.080660     3.074842
      3.069023     3.063205     3.057386     3.051567     3.045749     3.039930     3.034111     3.028293     3.022474     3.016656
      3.010837     3.005018     2.999200     2.993381     2.987563     2.981744     2.975925     2.970107     2.964288     2.958470
      2.952651     2.946832     2.941014     2.935195     2.929377     2.923558     2.917739     2.911921     2.906102     2.900284
      2.894465     2.888646     2.882828     2.877009     2.871191     2.865372     2.859553     2.853735     2.847916     2.842098
      2.836279     2.830460     2.824642     2.818823     2.813004     2.807186     2.801367     2.795549     2.789730     2.783911
      2.778093     2.772274     2.766456     2.760637     2.754818     2.749000     2.743181     2.737363     2.731544     2.725725
      2.719907     2.714088     2.708270     2.702451     2.696632     2.690814     2.684995     2.679177     2.673358     2.667539
      2.661721     2.655902     2.650084     2.644265     2.638446     2.632628     2.626809     2.620991     2.615172     2.609353
      2.603535     2.597716     2.591897     2.586079     2.580260     2.574442     2.568623     2.562804     2.556986     2.551167
      2.545349     2.539530     2.533711     2.527893     2.522074     2.516256     2.510437     2.504618     2.498800     2.492981
      2.487163     2.481344     2.475525     2.469707     2.463888     2.458070     2.452251     2.446432     2.440614     2.434795
      2.428977     2.423158     2.417339     2.411521     2.405702     2.399884     2.394065     2.388246     2.382428     2.376609
      2.370790     2.364972     2.359153     2.353335     2.347516     2.341697     2.335879     2.330060     2.324242     2.318423
      2.312604     2.306786     2.300967     2.295149     2.289330     2.283511     2.277693     2.271874     2.266056     2.260237
      2.254418     2.248600     2.242781     2.236963     2.231144     2.225325     2.219507     2.213688     2.207870     2.202051
      2.196232     2.190414     2.184595     2.178777     2.172958     2.167139     2.161321     2.155502     2.149683     2.143865
      2.138046     2.132228     2.126409     2.120590     2.114772     2.108953     2.103135     2.097316     2.091497     2.085679
      2.079860     2.074042     2.068223     2.062404     2.056586     2.050767     2.044949     2.039130     2.033311     2.027493
      2.021674     2.015856     2.010037     2.004218     1.998400     1.992581     1.986763     1.980944     1.975126     1.969307
      1.963489     1.957670     1.951852     1.946033     1.940215     1.934397     1.928578     1.922760     1.916941     1.911123
      1.905304     1.899486     1.893667     1.887849     1.882030     1.876212     1.870393     1.864575     1.858756     1.852938
      1.847119     1.841301     1.835482     1.829664     1.823845     1.818027     1.812208     1.806390     1.800571     1.794753
      1.788934     1.783116     1.777297     1.771479     1.765660     1.759842     1.754023     1.748205     1.742386     1.736568
      1.730749     1.724931     1.719113     1.713294     1.707476     1.701657     1.695839     1.690020     1.684202     1.678383
      1.672565     1.666746     1.660928     1.655109     1.649291     1.643472     1.637654     1.631835     1.626017     1.620198
      1.614380     1.608561     1.602743     1.596924     1.591106     1.585287     1.579469     1.573650     1.567832     1.562013
      1.556195     1.550376     1.544558     1.538739     1.532921     1.527102     1.521284     1.515465     1.509647     1.503829
      1.498010     1.492192     1.486373     1.480555     1.474736     1.468918     1.463099     1.457281     1.451462     1.445644
      1.439825     1.434007     1.428188     1.422370     1.416551     1.410733     1.404914     1.399096     1.393277     1.387459
      1.381640     1.375822     1.370003     1.364185     1.358366     1.352548     1.346729     1.340911     1.335092     1.329274
      1.323455     1.317637     1.311818     1.306000     1.300182     1.294363     1.288545     1.282726     1.276908     1.271089
      1.265271     1.259452     1.253634     1.247815     1.241997     1.236178     1.230360     1.224541     1.218723     1.212904
      1.207086     1.201267     1.195449     1.189630     1.183812     1.177993     1.172175     1.166356     1.160538     1.154719
      1.148901     1.143082     1.137264     1.131445     1.125627     1.119808     1.113990     1.108171     1.102353     1.096534
      1.090716     1.084898     1.079079     1.073261     1.067442     1.061624     1.055805     1.049987     1.044168     1.038350
      1.032531     1.026713     1.020894     1.015076     1.009257     1.003439     0.997620     0.991802     0.985983     0.980165
      0.974346     0.968528     0.962709     0.956891     0.951072     0.945254     0.939435     0.933617     0.927798     0.921980
      0.916161     0.910343     0.904524     0.898706     0.892887     0.887069     0.881251     0.875432     0.869614     0.863795
      0.857977     0.852158     0.846340     0.840521     0.834703     0.828884     0.823066     0.817247     0.811429     0.805610
      0.799792     0.793973     0.788155     0.782336     0.776518     0.770699     0.764881     0.759062     0.753244     0.747425
      0.741607     0.735788     0.729970     0.724151     0.718333     0.712514     0.706696     0.700877     0.695059     0.689240
      0.683422     0.677603     0.671785     0.665967     0.660148     0.654330     0.648511     0.642693     0.636874     0.631056
      0.625237     0.619419     0.613600     0.607782     0.601963     0.596145     0.590326     0.584508     0.578689     0.572871
      0.567052     0.561234     0.555415     0.549597     0.543778     0.537960     0.532141     0.526323     0.520504     0.514686
      0.508867     0.503049     0.497230     0.491412     0.485593     0.479775     0.473956     0.468138     0.462319     0.456501
      0.450682     0.444864     0.439045     0.433227     0.427408     0.421590     0.415771     0.409953     0.404134     0.398316
      0.392497     0.386679     0.380860     0.375042     0.369223     0.363405     0.357586     0.351767     0.345949     0.340130
      0.334312     0.328493     0.322675     0.316856     0.311038     0.305219     0.299401     0.293582     0.287764     0.281945
      0.276127     0.270308     0.264490     0.258671     0.252853     0.247034     0.241216     0.235397     0.229579     0.223760
      0.217942     0.212123     0.206305     0.200486
 NY phased data points follow
  -2.59099E-03  8.14659E-02  6.39419E-02 -9.27487E-02  1.06044E-01 -1.15787E-01  1.01496E-01  1.26766E-01 -2.98008E-01  1.82620E-01
   3.62339E-02  1.50660E-01  5.61287E-02  1.52144E-01  2.95983E-01  3.81465E-01  6.16019E-01  7.61516E-02 -1.85670E-01 -1.51633E-01
   9.41433E-02  9.14535E-02  1.66908E-01 -7.91513E-02 -1.11148E-01  1.67901E-01  1.11828E-03 -8.40069E-02 -1.24176E-01 -1.21727E-01
  -1.45913E-02  3.77144E-02 -2.40485E-01 -6.78221E-02 -1.56433E-01 -4.49387E-01 -4.46282E-01 -5.88276E-01 -3.03957E-01 -3.33871E-02
   1.99051E-01  3.57991E-01  3.51980E-01  5.17622E-01  3.02233E-01  1.74025E-01  9.92411E-02 -9.30531E-02 -3.70911E-02  1.41328E-01
   2.41533E-01  1.29723E-01  2.46423E-01  1.37667E-02 -2.68490E-02  6.21761E-02 -1.69711E-01 -3.06297E-01 -2.39223E-01 -1.54409E-01
  -1.97576E-01 -2.38960E-01 -3.49459E-01  1.12898E-02 -1.68453E-01 -1.85860E-01  1.07091E-01  3.68996E-01  3.00036E-01 -1.45240E-01
   3.56963E-01  1.50217E-01 -2.36037E-01  1.21121E-01  2.89922E-02 -2.85460E-01  2.79634E-02 -2.33478E-01 -3.73940E-01  4.90191E-02
  -5.15542E-01 -2.13025E-01  3.64963E-01  4.07929E-02  7.67975E-02  2.28129E-01  1.57912E-01  3.55874E-01  6.87094E-01  3.86373E-01
   6.02064E-02 -7.24804E-03 -9.03405E-02  2.12990E-01  5.46487E-02 -9.88293E-04  7.18264E-02 -1.03275E-01 -3.78435E-02 -3.06155E-01
  -4.90879E-01 -3.26966E-01  8.10400E-02  2.69553E-01  4.68551E-01  3.61526E-01  1.79388E-01  2.56324E-01  2.93130E-01  3.38828E-01
   3.93620E-01  4.77964E-01  1.89832E-01  1.86491E-01  6.21218E-02  2.51310E-01  1.89637E-01  8.22366E-02  5.04902E-01  3.99156E-01
   5.42514E-01  4.62173E-01 -1.13775E-01 -2.65507E-01  1.43582E-01 -5.08827E-02 -1.42707E-01 -8.07614E-02 -4.57964E-01 -3.44666E-01
  -5.50717E-01 -7.46162E-01 -5.89389E-01 -5.23479E-01 -7.84900E-02 -4.76660E-01 -8.87824E-01 -6.24355E-01 -6.52149E-01 -2.76812E-01
  -2.18102E-01 -3.05540E-01 -4.27962E-01 -1.57440E-01 -8.12668E-02 -2.19323E-02  1.48877E-01 -1.02095E-01  1.15091E-01  3.48859E-02
   2.91212E-01 -1.74056E-01 -2.05558E-01  1.35625E-02  3.95413E-02  3.42192E-01  3.01679E-01  6.83178E-01  8.19471E-02  4.56714E-01
   7.27870E-01  2.53804E-01  6.39047E-01  9.54146E-01  6.16823E-01  5.09589E-01  1.04646E+00  6.47460E-01 -2.25465E-01 -1.17156E+00
  -8.73493E-01 -3.97482E-01 -4.93056E-01 -4.50223E-01 -6.60506E-01 -4.02178E-01 -8.79479E-02 -1.31402E-01 -2.66783E-01 -3.03156E-01
  -4.63343E-01 -2.92591E-01 -3.23476E-01 -1.76415E-01 -1.64345E-01 -3.66353E-01 -2.27927E-01 -3.12263E-01 -1.63909E-01 -4.81909E-01
  -1.20530E-02 -1.12307E-01 -5.31840E-01 -9.00986E-02 -2.02398E-01  3.27820E-01 -2.12202E-02 -2.84782E-01 -1.50780E-01 -4.05673E-01
  -2.03868E-02 -1.38426E-01 -2.92336E-01 -7.47362E-02  2.89024E-02 -1.13726E-01 -1.93194E-01 -3.58268E-01 -4.58787E-02  4.24336E-01
   3.19028E-02 -2.29513E-01  2.63254E-04  4.09139E-01  2.97839E-01 -1.04225E-01 -1.82656E-01 -1.99662E-01 -2.38310E-01  1.16373E-01
   2.06760E-01 -1.58647E-01  5.90162E-02  2.12874E-01  1.98200E-01  2.96622E-01  4.06904E-01  3.85251E-01  6.76406E-02  1.51258E-01
   4.65185E-01  1.76296E-01  8.79354E-02  1.65127E-01 -4.75187E-02  7.56139E-02 -9.75377E-02 -2.56766E-01 -6.25193E-02  2.69634E-01
   1.42165E-01  1.38089E-02 -1.39033E-02 -3.82741E-01 -7.26352E-02 -1.61586E-01 -9.73458E-02 -2.31340E-02 -2.17186E-01 -2.03666E-02
  -5.62413E-02 -1.61045E-01 -9.30030E-02  9.77194E-02 -1.66128E-01 -1.83339E-01 -2.17506E-01 -1.69286E-01 -1.59170E-02  8.91265E-02
   2.63374E-01  4.50230E-01  3.06156E-01 -5.50384E-03  3.77296E-01  6.91838E-02  9.65704E-02  5.49064E-02  1.65880E-01  3.45637E-01
  -1.98419E-01  1.13436E-01 -1.47300E-01 -7.96030E-02  4.70504E-01  1.82925E-01 -2.95395E-03 -6.70800E-02 -2.56282E-01 -2.38073E-01
  -5.10155E-01 -4.76389E-01 -1.18368E-01 -2.11036E-01 -1.37023E-01 -3.84179E-02  4.59325E-01  5.70763E-01  3.32442E-01  3.17687E-01
  -9.05427E-02  1.26557E-02  2.97368E-01 -7.49130E-03 -2.10896E-02  9.04059E-02  5.10707E-02  2.33356E-01  1.78016E-01  9.60498E-02
   3.13947E-01  3.71351E-01  3.89439E-01  2.08987E-01  2.44588E-01  6.11006E-01  3.68452E-01  3.08252E-01 -3.75772E-02  7.35841E-02
   5.32526E-01  2.07328E-01  4.14172E-01  4.40119E-01  2.23710E-01  7.26722E-02  8.71448E-02 -1.82626E-01 -2.69324E-01 -1.01289E-01
  -3.90259E-01 -3.34511E-01 -3.70310E-01 -1.90054E-01 -3.48904E-01 -4.27032E-01 -1.33812E-02 -6.49075E-02  8.17388E-02  2.64594E-02
   3.97939E-01  4.51940E-01  4.17656E-02  7.17644E-02 -3.03713E-01 -6.38698E-02 -3.08757E-01 -4.38468E-01 -2.05773E-01 -4.67086E-01
  -3.60878E-01 -1.24828E-01 -1.15540E+00 -2.67595E+00 -1.01834E+00  1.28887E-02 -3.56631E-01 -1.25860E-01 -3.45079E-01 -2.67038E-01
   2.96815E-03  3.41731E-01  2.11503E-01  4.01489E-01  5.10678E-01  2.23408E-01  3.04582E-01  3.69909E-01  1.52446E-01  2.16647E-01
   3.08380E-01  4.01423E-01  1.55761E-01  1.65306E-01  2.65871E-01  1.86823E-02  6.16899E-02 -3.66171E-01  1.44625E-01  1.23280E-01
   1.69580E-02  1.00162E-01  4.75249E-02  4.05709E-01  5.26145E-02  6.55025E-02  2.61775E-01  2.44935E-01  5.95616E-02  9.87227E-02
   3.67606E-02  1.71117E-01  1.37572E-01  2.58118E-01  2.36507E-01  1.41735E-01  5.03501E-03 -2.25822E-02  3.32172E-01  1.51999E-01
   2.59945E-01 -8.14265E-02  1.46970E-01  1.68833E-01  3.17685E-01  2.43537E-01  1.18743E-02  1.86326E-01 -7.35073E-03  5.16042E-02
  -1.40774E-01  1.15978E-01 -1.15465E-01 -1.40038E-01 -2.26308E-01  7.28600E-03 -1.45190E-01 -4.71574E-01 -2.84124E-01 -3.47232E-01
  -1.05200E-02 -8.53485E-02 -1.24773E-01 -2.08684E-01  1.48424E-02 -2.07907E-01 -1.14942E-01 -2.18461E-01 -2.79399E-01 -1.99022E-02
  -6.81796E-02 -2.70353E-02 -2.70863E-01  1.08773E-01 -1.74517E-01 -1.04671E-01  7.14634E-02 -2.84154E-01 -4.50050E-01 -1.87788E-01
  -4.28000E-02 -6.75851E-03  3.67085E-01  1.03980E-03 -3.65218E-02  5.93278E-02 -1.96862E-01 -4.25551E-01 -9.13884E-02  1.11364E-01
   7.12522E-02  2.07684E-01  2.68145E-02  1.80606E-01  1.48506E-01  9.90218E-02  9.04635E-02 -5.07081E-02  1.31533E-01  2.93800E-02
   1.96368E-01  2.23049E-01  9.36234E-02 -7.62164E-04 -2.48979E-01  9.52548E-02  6.52019E-02  2.13166E-01  1.64514E-01 -1.77150E-01
   6.31525E-02  2.82968E-01  1.76306E-01 -2.26657E-01 -1.09104E-01  2.06842E-01 -1.48843E-01 -1.95500E-01  1.91643E-01 -2.71937E-01
  -1.93811E-01  2.96800E-01  1.97635E-01 -1.55996E-01  9.41374E-03 -2.42084E-02 -3.88532E-01 -1.81541E-03  8.42688E-02  1.26782E-01
  -2.82059E-01 -1.09057E-01  1.33802E-01 -1.00084E-01  3.64773E-01  3.81837E-02 -1.31727E-01  2.54098E-01  8.65864E-02 -5.89180E-02
   7.70859E-03  9.37186E-02 -1.64767E-01 -2.17874E-01  1.96855E-01 -1.07972E-01 -2.65802E-01  1.62623E-01  3.08675E-01 -9.31624E-02
  -1.60251E-01 -6.00654E-02  1.73127E-01  3.87940E-01  1.07087E-01  9.16910E-02  7.42506E-02  2.66714E-01  7.14694E-02  1.15899E-01
  -1.06630E-02  6.72947E-02  2.83076E-01  2.97399E-02  2.82575E-01  1.49918E-01  2.04271E-01 -8.72689E-02 -3.84834E-02  2.25749E-02
  -1.35391E-01 -1.68817E-01 -3.42290E-01  1.33737E-01 -1.42957E-01 -4.16642E-01 -2.54700E-01 -3.95066E-01 -2.87497E-01 -5.81957E-02
  -9.64668E-02 -3.09885E-01 -3.90316E-01 -1.18143E-01  4.65293E-02 -3.24120E-02 -1.12142E-01 -1.67509E-01 -2.74068E-01 -2.96338E-01
  -6.73159E-02 -1.42538E-01 -2.56260E-01 -3.42572E-01 -1.42822E-01  8.09557E-02 -4.06381E-02  1.32274E-01 -9.77382E-02  5.66793E-02
   3.37039E-01 -2.51307E-02  2.31211E-01  3.42141E-01  3.71680E-01  1.54533E-01  1.88903E-01  3.18073E-01  1.39971E-01  2.81026E-01
  -2.66058E-01  1.32216E-01  1.24544E-01 -1.06145E-01  3.62622E-01 -1.36747E-02  1.06629E-02  4.21041E-02  6.79055E-02  4.40306E-02
   1.35654E-01 -7.60500E-03 -1.37240E-01  2.61802E-01 -1.31394E-01 -2.04807E-01  1.82280E-01  1.12267E-01  5.98113E-02  2.86534E-01
   2.23440E-01 -9.22758E-02  1.08182E-01  1.82635E-01  3.20958E-01  3.34218E-01 -3.21178E-02 -1.63517E-01  6.14215E-02  2.52595E-01
  -9.68957E-02  2.99748E-01  3.42759E-01  1.31692E-01  1.45893E-01 -1.22728E-01  3.07086E-01  3.01170E-01  1.13871E-01 -1.82127E-01
  -2.42632E-01  1.29666E-01 -1.16792E-01 -1.13798E-01  4.29511E-02 -9.60856E-02  2.54959E-01  2.19633E-01  1.43605E-01  3.03492E-01
  -1.78896E-01 -6.18196E-02  1.66369E-02 -1.64732E-01  6.29051E-02  1.97689E-01 -1.30723E-02 -9.58572E-02  2.21642E-01  2.46295E-01
   1.89291E-01  1.81809E-01 -9.69893E-02  1.02855E-01  4.60578E-02 -4.50836E-02  2.67151E-01 -6.52365E-02  3.49049E-01  2.08523E-01
  -1.44718E-02  3.86605E-02 -2.65018E-01 -5.24853E-03 -2.21366E-01 -2.24521E-02 -5.09080E-03  2.62197E-01  2.04547E-01 -1.38894E-01
   3.11992E-01 -1.57355E-01 -1.70569E-01  1.45760E-01  7.60979E-02  2.65587E-01  1.52394E-01  5.43642E-02 -7.07042E-02 -1.57012E-01
   1.52562E-01 -5.89286E-02 -9.50775E-02  2.37001E-01
 NY points of the fit to the data follow
   4.94215E-02  4.67735E-02  3.51976E-02  2.27153E-02  9.87083E-03  4.90392E-03  1.32250E-02  3.50418E-02  5.07813E-02  6.69109E-02
   1.28841E-01  1.95660E-01  3.25659E-01  3.96195E-01  4.26783E-01  5.95033E-01  6.91546E-01  3.79043E-01  1.04860E-01  9.89535E-02
   9.47816E-02  3.73895E-02  6.31431E-03 -2.13308E-02 -4.71550E-02 -6.60971E-02 -8.21965E-02 -9.84794E-02 -1.11148E-01 -1.21670E-01
  -1.35617E-01 -1.49398E-01 -1.62841E-01 -1.82331E-01 -2.07853E-01 -2.17767E-01 -2.16326E-01 -2.12171E-01 -2.01234E-01 -1.55692E-01
   1.10107E-02  2.14080E-01  3.00722E-01  2.99103E-01  3.24819E-01  3.17088E-01  2.68220E-01  2.13121E-01  1.74458E-01  1.34185E-01
   9.79114E-02  6.77702E-02  3.19065E-02 -1.88422E-03 -2.69835E-02 -6.68712E-02 -1.16157E-01 -1.61299E-01 -1.73204E-01 -1.86790E-01
  -2.18297E-01 -2.50226E-01 -2.70780E-01 -1.82149E-01 -1.06104E-01 -1.46574E-01 -1.20611E-02  2.52788E-01  2.55712E-01  2.29596E-01
   3.45654E-01  3.21878E-01  1.97921E-01  1.34030E-01  6.93694E-02 -1.14655E-02 -6.76250E-02 -1.23755E-01 -2.01415E-01 -3.33850E-01
  -3.79067E-01 -1.67329E-01  6.01968E-02  8.88274E-02  1.89083E-01  3.85917E-01  4.05422E-01  3.17582E-01  2.81129E-01  2.59669E-01
   2.24013E-01  1.91162E-01  1.54139E-01  1.04628E-01  3.99982E-02 -1.59079E-02 -8.81234E-02 -1.79261E-01 -2.84640E-01 -3.59110E-01
  -3.43613E-01 -2.01140E-01 -4.19588E-03  1.70102E-01  2.63570E-01  2.75194E-01  2.69249E-01  2.74832E-01  2.75706E-01  2.71967E-01
   2.70048E-01  2.68322E-01  2.65814E-01  2.62814E-01  2.60073E-01  2.58043E-01  2.56082E-01  2.45554E-01  2.37598E-01  2.26973E-01
   2.04124E-01  1.72442E-01  9.20610E-02  2.28328E-02  8.34577E-03 -1.30606E-01 -2.18291E-01 -2.03691E-01 -2.91663E-01 -4.96280E-01
  -5.98629E-01 -6.42126E-01 -5.61363E-01 -4.15893E-01 -3.22643E-01 -4.39533E-01 -7.54586E-01 -8.72045E-01 -6.33484E-01 -3.26814E-01
  -1.81858E-01 -1.33891E-01 -7.77363E-02 -2.13612E-02  1.35562E-02  4.09796E-02  6.50749E-02  8.59651E-02  1.04341E-01  1.21094E-01
   1.36384E-01  1.51605E-01  1.67836E-01  1.83820E-01  2.00472E-01  2.19577E-01  2.41615E-01  2.67025E-01  2.97906E-01  3.35119E-01
   3.83598E-01  4.58997E-01  5.42013E-01  5.22851E-01  5.09043E-01  5.19991E-01  7.01745E-01  6.32944E-01 -1.69137E-01 -1.02516E+00
  -8.90086E-01 -4.67172E-01 -4.31868E-01 -4.72086E-01 -4.15947E-01 -3.82750E-01 -3.46524E-01 -2.96194E-01 -2.67463E-01 -2.72850E-01
  -2.73777E-01 -2.43279E-01 -2.13087E-01 -2.06816E-01 -2.08648E-01 -2.05228E-01 -2.01842E-01 -1.93053E-01 -1.81838E-01 -1.75399E-01
  -1.71644E-01 -1.62644E-01 -1.50709E-01 -1.41058E-01 -1.32718E-01 -1.24067E-01 -1.16276E-01 -1.08741E-01 -1.00599E-01 -9.31272E-02
  -8.77119E-02 -8.22985E-02 -7.39591E-02 -6.45209E-02 -6.17469E-02 -6.72990E-02 -7.13107E-02 -6.49113E-02 -5.37688E-02 -5.28903E-02
  -6.43317E-02 -7.39326E-02 -7.24927E-02 -6.79154E-02 -6.65651E-02 -6.56834E-02 -6.40006E-02 -6.37992E-02 -6.38221E-02 -5.96496E-02
  -4.06140E-02 -1.57396E-02  1.91985E-03  1.15240E-02  5.39117E-02  1.87220E-01  3.20292E-01  2.65984E-01  1.28814E-01  1.52727E-01
   2.78872E-01  2.85533E-01  1.59347E-01  3.61080E-02 -9.59001E-03 -2.55585E-02 -4.83011E-02 -6.58607E-02 -7.55178E-02 -8.45208E-02
  -9.24511E-02 -1.00982E-01 -1.05516E-01 -1.08321E-01 -1.07907E-01 -1.09240E-01 -1.10773E-01 -1.12390E-01 -1.12664E-01 -1.15045E-01
  -1.19570E-01 -1.31372E-01 -1.34394E-01 -1.44088E-01 -1.51380E-01 -1.64674E-01 -1.26732E-01 -3.14176E-02  2.71717E-02 -1.95580E-03
   2.92807E-02  1.29889E-01  1.40647E-01  5.26525E-02  6.39404E-02  1.47132E-01  1.28804E-01  7.97101E-02  1.03515E-01  1.22583E-01
   1.23407E-01  1.16328E-01  8.40141E-02  4.50208E-02  7.06016E-03 -3.46469E-02 -8.02664E-02 -1.22350E-01 -1.69640E-01 -2.08112E-01
  -2.44987E-01 -2.88275E-01 -2.89613E-01 -2.30802E-01 -1.07110E-01  8.05158E-02  2.40022E-01  3.15818E-01  3.54031E-01  3.23109E-01
   2.57192E-01  2.19294E-01  1.91126E-01  1.65909E-01  1.54358E-01  1.54652E-01  1.76548E-01  1.98677E-01  2.07168E-01  2.13901E-01
   2.10399E-01  1.99052E-01  1.92113E-01  1.85640E-01  1.78835E-01  1.73164E-01  1.65668E-01  1.57105E-01  1.48379E-01  1.35741E-01
   1.19427E-01  9.73677E-02  7.11885E-02  3.67468E-02 -6.10853E-03 -5.07762E-02 -1.09722E-01 -1.68240E-01 -2.24328E-01 -2.57294E-01
  -2.83332E-01 -2.98338E-01 -3.04127E-01 -2.73614E-01 -2.34366E-01 -1.74752E-01 -9.67844E-02 -2.71135E-02  2.93221E-02  5.23407E-02
   3.81147E-02  8.92685E-03 -2.37830E-02 -5.22626E-02 -6.35758E-02 -6.09897E-02 -6.25646E-02 -2.10611E-01 -3.07459E-01 -4.00441E-01
  -3.28682E-01 -5.78554E-01 -1.57379E+00 -2.20359E+00 -1.26655E+00 -3.11743E-01 -2.54312E-01 -2.78896E-01 -1.34141E-01 -6.78060E-02
  -3.37133E-02 -1.19838E-02  4.82887E-03  1.81003E-02  2.76049E-02  3.40752E-02  3.95500E-02  4.38216E-02  4.02756E-02  3.62789E-02
   2.51907E-02  1.12609E-02 -4.92485E-03 -1.91309E-02 -3.27164E-02 -3.19275E-02 -2.61725E-02 -1.33793E-02  1.35546E-03  1.25804E-02
   2.21380E-02  3.07665E-02  3.69095E-02  4.38082E-02  4.93433E-02  5.24794E-02  5.53264E-02  5.93346E-02  6.30998E-02  6.68687E-02
   6.96053E-02  7.15202E-02  7.37834E-02  7.67317E-02  7.96831E-02  8.22911E-02  8.42248E-02  8.50065E-02  8.63817E-02  8.89657E-02
   9.19870E-02  9.43568E-02  9.66489E-02  9.76451E-02  9.69376E-02  9.50404E-02  9.29526E-02  9.13352E-02  8.98571E-02  8.71444E-02
   8.33142E-02  7.87136E-02  7.44229E-02  6.99795E-02  6.43766E-02  5.84208E-02  5.42793E-02  5.10762E-02  4.66155E-02  4.16417E-02
   3.78550E-02  3.46703E-02  3.14603E-02  2.90634E-02  2.65464E-02  2.39623E-02  2.18357E-02  1.95494E-02  1.72993E-02  1.58561E-02
   1.49347E-02  1.41382E-02  1.29674E-02  1.27660E-02  1.44187E-02  1.63076E-02  1.78555E-02  2.04672E-02  2.35490E-02  2.68611E-02
   3.11299E-02  3.47574E-02  3.58669E-02  3.68337E-02  4.05791E-02  4.63748E-02  5.26496E-02  5.84049E-02  6.35887E-02  6.90043E-02
   7.58107E-02  8.42027E-02  9.29181E-02  1.01311E-01  1.09908E-01  1.18113E-01  1.26141E-01  1.34499E-01  1.41571E-01  1.46273E-01
   1.49510E-01  1.51080E-01  1.51606E-01  1.51336E-01  1.50152E-01  1.47864E-01  1.44802E-01  1.39658E-01  1.32175E-01  1.23723E-01
   1.16338E-01  1.09970E-01  1.03197E-01  9.60422E-02  8.85857E-02  8.13277E-02  7.56860E-02  7.14026E-02  6.60334E-02  6.06233E-02
   5.68543E-02  5.40761E-02  5.12707E-02  4.86435E-02  4.66208E-02  4.66048E-02  4.85270E-02  5.02849E-02  5.18504E-02  5.48087E-02
   5.82515E-02  6.13150E-02  6.52368E-02  6.96980E-02  7.32176E-02  7.57411E-02  7.80370E-02  7.97622E-02  8.06567E-02  8.21935E-02
   8.52311E-02  8.70557E-02  8.65496E-02  8.52713E-02  8.41562E-02  8.30870E-02  8.14882E-02  7.83242E-02  7.53914E-02  7.39720E-02
   7.22989E-02  6.95563E-02  6.65814E-02  6.41091E-02  6.18356E-02  5.93651E-02  5.63780E-02  5.29888E-02  5.05186E-02  4.93703E-02
   4.76868E-02  4.44398E-02  4.10662E-02  3.82174E-02  3.42597E-02  2.83905E-02  2.20283E-02  1.58415E-02  9.53291E-03  1.77139E-03
  -8.06243E-03 -2.00451E-02 -3.30596E-02 -4.57773E-02 -5.72865E-02 -6.93872E-02 -8.15696E-02 -9.17167E-02 -9.99911E-02 -1.08174E-01
  -1.15965E-01 -1.20903E-01 -1.21475E-01 -1.20504E-01 -1.20704E-01 -1.19536E-01 -1.14977E-01 -1.09252E-01 -1.04319E-01 -9.97743E-02
  -9.52711E-02 -9.07413E-02 -8.50281E-02 -7.79271E-02 -7.09902E-02 -6.40895E-02 -5.60734E-02 -4.77366E-02 -4.02012E-02 -3.26860E-02
  -2.53828E-02 -1.89111E-02 -1.22684E-02 -4.43221E-03  1.79978E-03  5.82816E-03  1.02255E-02  1.62114E-02  2.23100E-02  2.56022E-02
   2.70440E-02  3.05779E-02  3.47906E-02  3.69835E-02  3.86173E-02  4.01339E-02  4.13945E-02  4.32364E-02  4.47960E-02  4.50196E-02
   4.53658E-02  4.73302E-02  4.94955E-02  5.06241E-02  5.22052E-02  5.41863E-02  5.45987E-02  5.41673E-02  5.46600E-02  5.50511E-02
   5.46080E-02  5.48890E-02  5.51283E-02  5.44768E-02  5.47992E-02  5.54844E-02  5.49280E-02  5.46753E-02  5.57362E-02  5.70720E-02
   5.64276E-02  5.29186E-02  5.08763E-02  5.26477E-02  5.41118E-02  5.28178E-02  5.19642E-02  5.30325E-02  5.33029E-02  5.12979E-02
   4.99749E-02  5.12831E-02  5.30749E-02  5.35983E-02  5.34129E-02  5.38602E-02  5.48758E-02  5.60895E-02  5.64211E-02  5.62473E-02
   5.66252E-02  5.77847E-02  5.76102E-02  5.60149E-02  5.50287E-02  5.58951E-02  5.67101E-02  5.72620E-02  5.83273E-02  5.93953E-02
   5.97685E-02  5.93731E-02  5.97835E-02  6.20314E-02  6.41623E-02  6.46947E-02  6.38436E-02  6.20256E-02  6.10111E-02  6.18712E-02
   6.33210E-02  6.36461E-02  6.23271E-02  6.11186E-02  6.12419E-02  6.18835E-02  6.25631E-02  6.22288E-02  6.07504E-02  6.11027E-02
   6.35735E-02  6.40068E-02  6.27042E-02  6.28408E-02  6.41204E-02  6.48602E-02  6.50881E-02  6.54373E-02  6.76577E-02  7.08679E-02
   7.28611E-02  7.33135E-02  7.41976E-02  7.51900E-02
 NY background values follow
     3.625E-02    3.619E-02    3.614E-02    3.608E-02    3.602E-02    3.596E-02    3.590E-02    3.584E-02    3.578E-02    3.572E-02
     3.566E-02    3.560E-02    3.555E-02    3.549E-02    3.543E-02    3.537E-02    3.531E-02    3.525E-02    3.519E-02    3.513E-02
     3.507E-02    3.501E-02    3.495E-02    3.490E-02    3.484E-02    3.478E-02    3.472E-02    3.466E-02    3.460E-02    3.454E-02
     3.448E-02    3.442E-02    3.436E-02    3.430E-02    3.424E-02    3.418E-02    3.413E-02    3.407E-02    3.401E-02    3.395E-02
     3.389E-02    3.383E-02    3.377E-02    3.371E-02    3.365E-02    3.359E-02    3.353E-02    3.347E-02    3.341E-02    3.335E-02
     3.330E-02    3.324E-02    3.318E-02    3.312E-02    3.306E-02    3.300E-02    3.294E-02    3.288E-02    3.282E-02    3.276E-02
     3.270E-02    3.264E-02    3.258E-02    3.252E-02    3.246E-02    3.240E-02    3.234E-02    3.229E-02    3.223E-02    3.217E-02
