 LCModel (Version 6.3-1N) Copyright: S.W. Provencher.          Ref.: Magn. Reson. Med. 30:672-679 (1993).                
 Slice_N1@19_12  02-Jun-2023 14:36:38
 27 lines in following concentration table = NCONC+1
    Conc.  %SD /Cr+PCr  Metabolite                                         
 2.13E-06  15% 2.7E-04 Mac                                                 
 3.71E-02  17%   4.616 Cr                                                  
 2.72E-02  22%   3.384 PCr                                                 
 6.61E-02  11%   8.234 Ins                                                 
 7.02E-02   7%   8.740 NAA                                                 
 5.64E-02  11%   7.029 Tau                                                 
 6.92E-03  34%   0.861 PCho                                                
 8.56E-03  32%   1.065 GPC                                                 
 5.71E-02  14%   7.112 Glu                                                 
 1.96E-02  30%   2.439 Gln                                                 
 5.86E-03  95%   0.730 Ala                                                 
 3.49E-02  31%   4.350 Asc                                                 
 2.07E-03 340%   0.258 Asp                                                 
 8.93E-03  41%   1.112 GABA                                                
 6.44E-03  73%   0.802 Glc                                                 
 9.10E-03  36%   1.134 GSH                                                 
 1.51E-02  41%   1.882 Lac                                                 
 1.19E-02  32%   1.486 NAAG                                                
 1.67E-03 563%   0.208 PE                                                  
 1.55E-02  15%   1.927 GPC+PCho                                            
 8.21E-02   8%  10.226 NAA+NAAG                                            
 7.67E-02  12%   9.551 Glu+Gln                                             
 6.42E-02   8%   8.000 Cr+PCr                                              
 8.21E-02   8%  10.226 NAA+NAAG                                            
 6.42E-02   8%   8.000 Cr+PCr                                              
 7.67E-02  12%   9.551 Glu+Gln                                             
   6 lines in following misc. output table
  FWHM = 0.023 ppm    S/N =   6                                            
  Data shift = 0.012 ppm                                                   
  Ph: -52 deg     -12.1 deg/ppm                                            
  alphaB,S = 3.4E-01,   8.5E+00                                            
   18 spline knots.   Ns = 5(1)                                            
  ( 4) 2 infls.   ( 2) 1 extrs.                                            
  654 points on ppm-axis = NY
      4.000000     3.994181     3.988363     3.982544     3.976726     3.970907     3.965088     3.959270     3.953451     3.947633
      3.941814     3.935995     3.930177     3.924358     3.918540     3.912721     3.906902     3.901084     3.895265     3.889446
      3.883628     3.877809     3.871991     3.866172     3.860353     3.854535     3.848716     3.842898     3.837079     3.831260
      3.825442     3.819623     3.813805     3.807986     3.802167     3.796349     3.790530     3.784712     3.778893     3.773074
      3.767256     3.761437     3.755619     3.749800     3.743981     3.738163     3.732344     3.726526     3.720707     3.714888
      3.709070     3.703251     3.697433     3.691614     3.685795     3.679977     3.674158     3.668339     3.662521     3.656702
      3.650884     3.645065     3.639246     3.633428     3.627609     3.621791     3.615972     3.610153     3.604335     3.598516
      3.592698     3.586879     3.581060     3.575242     3.569423     3.563605     3.557786     3.551967     3.546149     3.540330
      3.534512     3.528693     3.522874     3.517056     3.511237     3.505419     3.499600     3.493781     3.487963     3.482144
      3.476326     3.470507     3.464688     3.458870     3.453051     3.447232     3.441414     3.435595     3.429777     3.423958
      3.418139     3.412321     3.406502     3.400684     3.394865     3.389046     3.383228     3.377409     3.371591     3.365772
      3.359953     3.354135     3.348316     3.342498     3.336679     3.330860     3.325042     3.319223     3.313405     3.307586
      3.301767     3.295949     3.290130     3.284312     3.278493     3.272674     3.266856     3.261037     3.255219     3.249400
      3.243581     3.237763     3.231944     3.226125     3.220307     3.214488     3.208670     3.202851     3.197032     3.191214
      3.185395     3.179577     3.173758     3.167939     3.162121     3.156302     3.150484     3.144665     3.138846     3.133028
      3.127209     3.121391     3.115572     3.109753     3.103935     3.098116     3.092298     3.086479     3.080660     3.074842
      3.069023     3.063205     3.057386     3.051567     3.045749     3.039930     3.034111     3.028293     3.022474     3.016656
      3.010837     3.005018     2.999200     2.993381     2.987563     2.981744     2.975925     2.970107     2.964288     2.958470
      2.952651     2.946832     2.941014     2.935195     2.929377     2.923558     2.917739     2.911921     2.906102     2.900284
      2.894465     2.888646     2.882828     2.877009     2.871191     2.865372     2.859553     2.853735     2.847916     2.842098
      2.836279     2.830460     2.824642     2.818823     2.813004     2.807186     2.801367     2.795549     2.789730     2.783911
      2.778093     2.772274     2.766456     2.760637     2.754818     2.749000     2.743181     2.737363     2.731544     2.725725
      2.719907     2.714088     2.708270     2.702451     2.696632     2.690814     2.684995     2.679177     2.673358     2.667539
      2.661721     2.655902     2.650084     2.644265     2.638446     2.632628     2.626809     2.620991     2.615172     2.609353
      2.603535     2.597716     2.591897     2.586079     2.580260     2.574442     2.568623     2.562804     2.556986     2.551167
      2.545349     2.539530     2.533711     2.527893     2.522074     2.516256     2.510437     2.504618     2.498800     2.492981
      2.487163     2.481344     2.475525     2.469707     2.463888     2.458070     2.452251     2.446432     2.440614     2.434795
      2.428977     2.423158     2.417339     2.411521     2.405702     2.399884     2.394065     2.388246     2.382428     2.376609
      2.370790     2.364972     2.359153     2.353335     2.347516     2.341697     2.335879     2.330060     2.324242     2.318423
      2.312604     2.306786     2.300967     2.295149     2.289330     2.283511     2.277693     2.271874     2.266056     2.260237
      2.254418     2.248600     2.242781     2.236963     2.231144     2.225325     2.219507     2.213688     2.207870     2.202051
      2.196232     2.190414     2.184595     2.178777     2.172958     2.167139     2.161321     2.155502     2.149683     2.143865
      2.138046     2.132228     2.126409     2.120590     2.114772     2.108953     2.103135     2.097316     2.091497     2.085679
      2.079860     2.074042     2.068223     2.062404     2.056586     2.050767     2.044949     2.039130     2.033311     2.027493
      2.021674     2.015856     2.010037     2.004218     1.998400     1.992581     1.986763     1.980944     1.975126     1.969307
      1.963489     1.957670     1.951852     1.946033     1.940215     1.934397     1.928578     1.922760     1.916941     1.911123
      1.905304     1.899486     1.893667     1.887849     1.882030     1.876212     1.870393     1.864575     1.858756     1.852938
      1.847119     1.841301     1.835482     1.829664     1.823845     1.818027     1.812208     1.806390     1.800571     1.794753
      1.788934     1.783116     1.777297     1.771479     1.765660     1.759842     1.754023     1.748205     1.742386     1.736568
      1.730749     1.724931     1.719113     1.713294     1.707476     1.701657     1.695839     1.690020     1.684202     1.678383
      1.672565     1.666746     1.660928     1.655109     1.649291     1.643472     1.637654     1.631835     1.626017     1.620198
      1.614380     1.608561     1.602743     1.596924     1.591106     1.585287     1.579469     1.573650     1.567832     1.562013
      1.556195     1.550376     1.544558     1.538739     1.532921     1.527102     1.521284     1.515465     1.509647     1.503829
      1.498010     1.492192     1.486373     1.480555     1.474736     1.468918     1.463099     1.457281     1.451462     1.445644
      1.439825     1.434007     1.428188     1.422370     1.416551     1.410733     1.404914     1.399096     1.393277     1.387459
      1.381640     1.375822     1.370003     1.364185     1.358366     1.352548     1.346729     1.340911     1.335092     1.329274
      1.323455     1.317637     1.311818     1.306000     1.300182     1.294363     1.288545     1.282726     1.276908     1.271089
      1.265271     1.259452     1.253634     1.247815     1.241997     1.236178     1.230360     1.224541     1.218723     1.212904
      1.207086     1.201267     1.195449     1.189630     1.183812     1.177993     1.172175     1.166356     1.160538     1.154719
      1.148901     1.143082     1.137264     1.131445     1.125627     1.119808     1.113990     1.108171     1.102353     1.096534
      1.090716     1.084898     1.079079     1.073261     1.067442     1.061624     1.055805     1.049987     1.044168     1.038350
      1.032531     1.026713     1.020894     1.015076     1.009257     1.003439     0.997620     0.991802     0.985983     0.980165
      0.974346     0.968528     0.962709     0.956891     0.951072     0.945254     0.939435     0.933617     0.927798     0.921980
      0.916161     0.910343     0.904524     0.898706     0.892887     0.887069     0.881251     0.875432     0.869614     0.863795
      0.857977     0.852158     0.846340     0.840521     0.834703     0.828884     0.823066     0.817247     0.811429     0.805610
      0.799792     0.793973     0.788155     0.782336     0.776518     0.770699     0.764881     0.759062     0.753244     0.747425
      0.741607     0.735788     0.729970     0.724151     0.718333     0.712514     0.706696     0.700877     0.695059     0.689240
      0.683422     0.677603     0.671785     0.665967     0.660148     0.654330     0.648511     0.642693     0.636874     0.631056
      0.625237     0.619419     0.613600     0.607782     0.601963     0.596145     0.590326     0.584508     0.578689     0.572871
      0.567052     0.561234     0.555415     0.549597     0.543778     0.537960     0.532141     0.526323     0.520504     0.514686
      0.508867     0.503049     0.497230     0.491412     0.485593     0.479775     0.473956     0.468138     0.462319     0.456501
      0.450682     0.444864     0.439045     0.433227     0.427408     0.421590     0.415771     0.409953     0.404134     0.398316
      0.392497     0.386679     0.380860     0.375042     0.369223     0.363405     0.357586     0.351767     0.345949     0.340130
      0.334312     0.328493     0.322675     0.316856     0.311038     0.305219     0.299401     0.293582     0.287764     0.281945
      0.276127     0.270308     0.264490     0.258671     0.252853     0.247034     0.241216     0.235397     0.229579     0.223760
      0.217942     0.212123     0.206305     0.200486
 NY phased data points follow
   4.10669E-02 -1.73875E-01  2.99467E-02  3.87665E-02 -1.37497E-01  3.63016E-02  2.61624E-02  1.79117E-01 -1.32639E-01 -6.84314E-02
   1.43644E-01  1.92030E-01  5.58621E-01  3.12286E-01  4.63778E-01  5.36567E-01  6.59010E-01  4.31634E-01 -2.18965E-01  7.21076E-02
  -3.30078E-02  1.48643E-01 -1.48585E-01 -2.11597E-01  3.30645E-02 -1.63689E-01 -1.36308E-01 -3.24288E-01 -2.11783E-01 -2.20296E-01
   1.79192E-01  2.29064E-02 -7.41199E-02  9.72065E-02 -3.05846E-01 -4.14444E-01 -3.25346E-01 -5.63875E-01 -4.34181E-01  8.47716E-02
  -2.46713E-01  4.65467E-02  2.55707E-01  3.00358E-01  2.69812E-01  2.42199E-01  5.33202E-01  2.84402E-01  4.00867E-01  3.81746E-01
   1.14309E-01  7.40014E-02 -4.74823E-02 -1.09236E-01 -2.41999E-01 -4.37113E-01 -8.60303E-02 -1.79245E-01 -1.33706E-01  3.33587E-02
  -3.90659E-01 -3.40859E-01 -2.97204E-01 -1.69671E-01  1.12612E-01 -5.99270E-02 -1.35697E-01  2.12626E-01  5.57625E-02  3.77798E-01
   4.30856E-01  1.18962E-01  3.18682E-01 -9.13698E-02 -1.22262E-02  8.78832E-02 -7.42169E-02 -1.74100E-01 -6.51518E-01 -4.38612E-01
  -5.66150E-02 -5.29640E-02  2.47433E-01  2.87366E-01  3.80785E-01  5.58489E-01  3.66643E-01  4.51862E-01  3.40049E-01  3.38701E-02
   1.89292E-01  1.14149E-01  2.26338E-02  7.29847E-02  2.29154E-02  1.61839E-01  8.44863E-02 -9.42818E-02 -2.50506E-01 -8.44313E-02
  -1.44890E-01 -2.26823E-01 -1.07244E-01  2.00692E-01  3.03567E-01  2.68429E-01  4.02484E-01  1.83080E-01  4.95964E-01  3.16083E-01
   3.67537E-01  3.04866E-01  1.88038E-01  2.62209E-01  6.42542E-02  2.32270E-01 -1.74887E-02  2.27226E-01  3.04970E-01  2.08076E-01
   1.25894E-02  5.82075E-02  1.85643E-02 -7.09307E-03 -2.44860E-02 -3.21443E-01 -2.18101E-01 -5.07062E-01 -4.64192E-01 -6.97330E-01
  -7.78035E-01 -5.09585E-01 -4.75345E-01 -3.56747E-01 -6.08755E-01 -8.76288E-01 -9.59614E-01 -1.05694E+00 -4.79898E-01 -8.87878E-02
  -6.67802E-02  6.15438E-02 -2.42743E-01 -3.73298E-02 -2.62120E-02  3.43434E-02 -6.82607E-02 -8.67723E-02  2.23837E-01  8.46275E-02
   3.22043E-03  1.12702E-01  1.81263E-01  8.28047E-02  1.61489E-01 -1.06603E-01  9.54435E-02  3.72267E-01  1.43486E-01  1.85896E-01
   3.52289E-01  2.02696E-01  5.40266E-01  7.48585E-01  7.34022E-01  1.23212E+00  6.78304E-01  3.65356E-01 -3.79381E-01 -1.12096E+00
  -6.97304E-01 -7.97566E-01 -7.01171E-01 -4.20979E-01 -4.20213E-01 -6.94693E-01 -7.64035E-01 -3.55199E-01 -4.26317E-01 -2.23208E-01
  -7.90020E-02 -3.48651E-01 -2.47250E-01 -4.48442E-01 -4.23817E-01 -2.96062E-01 -3.12672E-01 -2.35981E-01 -1.78349E-01 -1.79249E-01
  -2.66763E-01 -3.37580E-01 -1.37111E-01 -3.33756E-01 -3.29265E-01 -3.09450E-02 -3.50295E-01 -5.78260E-02 -2.79406E-01 -2.41479E-01
  -4.61934E-03 -9.32676E-02 -2.37857E-01 -1.91901E-01  1.42826E-01 -1.01066E-01 -2.20143E-02 -3.53902E-02  4.76827E-02 -1.45617E-01
   5.59489E-02 -1.67407E-01 -1.72375E-01  2.25572E-01 -3.37177E-01 -2.32029E-01  1.98152E-01  2.10683E-01 -2.82936E-01  4.33058E-02
   1.93163E-01  3.74860E-02 -1.02285E-01 -1.26429E-01  1.39858E-01  2.78923E-01  3.73995E-01  2.10357E-01  1.23473E-01 -1.91038E-02
   3.28552E-01  3.13162E-01  1.94076E-01  1.76678E-01  1.72656E-01 -1.12992E-01 -3.07124E-01  1.30800E-02 -7.60037E-02  1.54762E-04
   3.39044E-03 -1.05361E-01 -6.24489E-02 -2.24652E-02 -6.05086E-02  1.12232E-01  1.63136E-02  1.17938E-01  3.45498E-01  1.63393E-01
   1.38613E-01  3.94002E-01  1.44575E-01 -2.33494E-02  1.55445E-01 -3.27073E-02  3.70939E-01  2.13411E-01 -1.02521E-02 -7.16466E-02
   1.35957E-01  3.45326E-01 -8.90298E-03 -1.86711E-02  1.41771E-01  4.34919E-01  9.08544E-02  4.28967E-02  6.07775E-02  1.83758E-01
   4.70345E-01  3.23691E-01  1.24195E-01  2.09046E-02  8.48142E-02  1.12508E-01  2.32153E-01 -2.55496E-02 -1.06734E-01  6.16318E-03
  -3.44088E-02 -9.22920E-02 -3.77006E-01 -2.97862E-01 -1.07559E-03  1.37475E-02  5.26070E-01  6.69728E-01  4.11388E-01  4.83696E-01
   4.65121E-01  4.13624E-01  3.25191E-01  2.86879E-01 -1.16027E-01  2.16233E-01  4.03354E-01  2.22634E-01  2.26947E-01  1.91948E-02
   2.99576E-01  1.27105E-01  1.77028E-01  4.59010E-01  3.21372E-01  2.05699E-01  1.32421E-01  2.97217E-01  1.06632E-01  1.39760E-02
   4.37348E-01 -8.73784E-03  1.05230E-01  5.46153E-01  1.48324E-01  1.56833E-01 -1.98318E-01 -4.38883E-02  1.74947E-01 -1.36402E-01
  -2.03333E-02 -1.13927E-01 -3.31899E-01 -2.73024E-01 -5.93938E-02 -4.17058E-02  3.40478E-03  2.52935E-01  1.13758E-01  4.67364E-02
   1.34791E-01 -2.72322E-01 -6.48800E-02 -1.37097E-01 -3.17570E-01 -1.76434E-01 -5.05403E-01 -3.51071E-01 -9.62629E-02 -7.01462E-02
  -2.84973E-01 -6.01341E-01 -1.75895E+00 -2.24213E+00 -7.31071E-01 -8.06819E-02 -7.12737E-01 -2.42166E-01  3.65372E-01  1.52572E-01
   3.33240E-01  1.23618E-01  2.01181E-01  1.14279E-02 -1.90688E-01  7.97090E-03 -6.70499E-02 -5.61233E-02 -2.35174E-01  2.99292E-01
   1.38994E-01 -7.85595E-02 -3.57472E-02 -2.26914E-01 -2.21338E-01 -1.12846E-01  3.95112E-01 -1.47287E-01 -1.36119E-01  7.65713E-02
  -1.01865E-01  1.93162E-01  3.62554E-02  1.32679E-01 -3.88308E-02 -2.02262E-01  1.22069E-02  2.09179E-02  3.31037E-01  4.54273E-01
   1.01982E-01  3.78847E-02  1.21572E-01 -4.58998E-04  8.73921E-02  1.53110E-01  3.46176E-02  9.90544E-02  7.03455E-03  1.04228E-01
   2.19953E-01 -2.10367E-02  1.17116E-01  1.00536E-01  1.50033E-01  4.20488E-01  3.35696E-01  1.62839E-01  8.12298E-02  2.39591E-01
   1.98810E-01  8.71077E-02  2.59655E-02  3.82048E-02  5.96640E-02 -1.85257E-01 -2.56376E-01 -6.80758E-02 -1.16675E-01 -4.98038E-01
  -1.37784E-01  9.70529E-02 -3.06634E-01 -4.46824E-02  1.00794E-01 -8.85976E-02 -3.13312E-02 -1.64654E-01 -4.13631E-01 -2.51850E-01
  -1.10176E-01 -2.05003E-01 -1.97002E-01  4.96680E-02  7.51695E-04 -2.71187E-01 -4.93244E-02  2.53326E-02  4.37131E-02  9.86983E-02
  -1.71783E-01 -2.29733E-01  5.53340E-02  2.63421E-01  2.64242E-01  6.04074E-02  8.59905E-02  1.74662E-02 -3.50187E-01 -1.22428E-01
   8.30491E-02  1.31485E-01  1.12058E-02 -1.60829E-02  3.57677E-01  1.94814E-01 -9.67610E-02 -1.39884E-01 -1.17126E-01  3.43722E-01
   4.83719E-01  1.86330E-01  2.17817E-01 -2.01287E-02 -7.06047E-03 -4.42481E-02 -1.99708E-01 -1.69562E-01 -3.25567E-01 -8.20902E-02
   1.71256E-01  5.91289E-01  5.87038E-01 -5.63807E-03 -2.13438E-01 -5.16374E-02  4.41166E-02 -4.15921E-02 -1.33206E-01 -1.42327E-02
   1.27924E-01 -2.53620E-01 -3.33980E-01 -1.42964E-01 -6.14015E-02 -4.06210E-02 -2.18852E-01 -3.37478E-01 -7.80508E-02  4.21232E-01
   1.14068E-01 -2.04550E-01  1.85399E-01  3.01789E-01  2.69238E-01  2.22072E-01  2.09023E-01  2.36787E-02 -1.18392E-01  3.63214E-01
   1.32435E-01 -1.00565E-01  3.17912E-01  1.22963E-01  2.91237E-02  1.36199E-01  9.31597E-02 -4.99712E-02 -1.70986E-01 -9.72376E-03
  -1.45293E-01 -2.39605E-02  7.03244E-02 -2.83306E-01  2.29085E-01  1.74032E-01 -1.09493E-01  2.01986E-01 -1.90677E-01  1.36064E-01
   3.42794E-01  2.32947E-02  4.91185E-02  1.16744E-02  4.32039E-01  2.90787E-01 -1.10785E-01 -1.48810E-01 -1.68649E-01 -9.08320E-02
  -9.66001E-02 -2.84457E-02 -2.27714E-01 -3.88551E-01 -1.95736E-01 -1.79189E-01 -4.23042E-01 -3.41548E-01 -3.95838E-01 -6.18486E-01
  -4.35705E-01 -2.56532E-01 -1.53325E-02  4.20515E-02 -1.80739E-01 -2.08126E-01 -1.80615E-02 -1.03340E-01  4.85756E-02  3.26651E-01
  -6.20737E-02 -3.21792E-01  2.22142E-01  1.66599E-01 -1.89572E-01  1.95376E-01 -4.95135E-02 -3.66727E-02 -1.02221E-01 -1.72525E-01
   2.24196E-01  5.09585E-02 -3.26660E-02  1.51559E-01  3.19095E-01  1.95188E-01  3.05614E-01 -2.21409E-02 -1.52174E-01  3.54642E-01
   2.41450E-01  2.88211E-01  3.08633E-01  1.85232E-02  9.61717E-02  1.04390E-02  4.47101E-02  1.92100E-01  1.68672E-01  3.73220E-01
   2.56385E-02  1.39388E-01  1.96862E-01  1.43931E-02  1.83228E-01  3.06469E-02  1.00254E-01 -3.48290E-02 -1.66908E-02  1.96630E-01
   2.25325E-01  1.10324E-01  4.36817E-02 -2.06254E-01 -3.11240E-01 -1.24630E-01 -2.23316E-01 -1.89325E-01 -1.15510E-01 -1.73713E-02
   6.19514E-02  1.80678E-01  1.43268E-01  8.77535E-02  1.70275E-01 -1.37177E-02 -1.77727E-01 -9.45283E-02  6.03809E-02  3.99808E-02
  -6.11051E-02  1.10737E-01  1.00879E-01  7.42268E-02  7.85327E-02  5.39483E-02  3.26651E-01  1.21073E-01  3.00248E-01  4.12221E-01
   6.67951E-02  1.31267E-01  8.76499E-02 -5.23279E-02 -1.31360E-01 -8.45412E-02 -4.72338E-03 -3.57838E-02 -8.90094E-02  1.37164E-01
   9.02931E-02 -3.55581E-02 -7.94688E-02 -1.07743E-01  1.49141E-01  1.00045E-01 -1.70243E-01 -7.39210E-02  6.29169E-02  8.62033E-02
   1.52583E-01  7.37078E-02  1.14458E-01 -2.21041E-02  1.12269E-01 -4.99546E-03  1.00241E-01  1.46140E-01 -1.67042E-01  3.25924E-01
   2.36475E-03  9.65115E-02  1.58341E-01 -2.31188E-01  1.18263E-01  1.03335E-01 -3.16475E-02 -7.79068E-02 -1.73107E-02  1.43330E-01
   2.54034E-01  1.35061E-01 -4.36714E-02 -9.96687E-02
 NY points of the fit to the data follow
   9.21984E-02  5.14871E-02  1.50859E-02 -1.27898E-02 -2.08249E-02 -1.51261E-02 -1.66321E-02 -1.60513E-02 -1.21797E-02  2.28446E-02
   1.22213E-01  2.73213E-01  3.66678E-01  3.61931E-01  3.71204E-01  5.69065E-01  6.45618E-01  3.23502E-01  8.89968E-02  1.07559E-01
   2.56756E-02 -8.05438E-02 -7.18329E-02 -8.27589E-02 -9.98519E-02 -1.19363E-01 -1.38604E-01 -1.53527E-01 -1.63428E-01 -1.75657E-01
  -1.85453E-01 -1.95527E-01 -2.15257E-01 -2.42393E-01 -2.70798E-01 -2.97824E-01 -3.22242E-01 -3.16737E-01 -2.60771E-01 -1.53839E-01
  -4.96240E-02  1.97484E-02  9.51613E-02  1.91037E-01  2.65579E-01  2.93743E-01  3.06275E-01  2.75752E-01  2.16744E-01  1.91969E-01
   1.45903E-01  6.27188E-02  3.15089E-02 -3.52666E-03 -7.48825E-02 -1.27260E-01 -1.66540E-01 -1.82057E-01 -1.63865E-01 -1.86050E-01
  -2.49128E-01 -2.76597E-01 -2.63624E-01 -2.18922E-01 -2.09680E-01 -6.34696E-02  2.23669E-01  2.54809E-01  2.43595E-01  4.17042E-01
   3.72661E-01  2.08823E-01  1.90745E-01  1.30561E-01  3.29544E-02 -3.36185E-02 -1.27549E-01 -2.79359E-01 -4.25287E-01 -4.49381E-01
  -2.66623E-01 -4.29993E-02  3.68292E-02  1.99839E-01  4.37906E-01  4.32331E-01  3.31452E-01  3.26446E-01  2.86956E-01  2.25628E-01
   2.00200E-01  1.81538E-01  1.54274E-01  1.18321E-01  7.59358E-02 -4.38636E-03 -1.21043E-01 -2.70836E-01 -3.79141E-01 -3.90555E-01
  -2.87166E-01 -8.59610E-02  9.72422E-02  2.08160E-01  2.66401E-01  2.74118E-01  2.62433E-01  2.57534E-01  2.39187E-01  2.38761E-01
   2.38541E-01  2.36054E-01  2.33263E-01  2.30997E-01  2.30094E-01  2.30098E-01  2.29473E-01  2.26211E-01  2.24769E-01  2.07829E-01
   1.60642E-01  1.00068E-01  3.45470E-02 -5.38744E-03 -7.63882E-02 -1.73829E-01 -1.40155E-01 -2.59124E-01 -4.93533E-01 -5.51480E-01
  -5.46710E-01 -4.47223E-01 -3.04368E-01 -3.07898E-01 -5.41642E-01 -8.87085E-01 -1.02233E+00 -8.21519E-01 -5.36843E-01 -3.09430E-01
  -1.89864E-01 -7.76058E-02  7.44339E-03  6.61105E-03  2.80032E-02  5.17640E-02  7.28561E-02  9.11823E-02  1.08490E-01  1.23758E-01
   1.38418E-01  1.53968E-01  1.68711E-01  1.84409E-01  2.02716E-01  2.22855E-01  2.44804E-01  2.68126E-01  2.92700E-01  3.22714E-01
   3.64423E-01  4.22170E-01  4.99473E-01  5.95354E-01  7.54779E-01  9.36199E-01  8.77006E-01  3.10163E-01 -6.13775E-01 -1.08722E+00
  -8.52487E-01 -6.78163E-01 -7.06494E-01 -5.36818E-01 -3.75399E-01 -3.59513E-01 -3.30659E-01 -3.10546E-01 -2.97913E-01 -2.75368E-01
  -2.49130E-01 -2.31492E-01 -2.26864E-01 -2.19206E-01 -2.09088E-01 -2.02966E-01 -1.91104E-01 -1.79465E-01 -1.72160E-01 -1.62420E-01
  -1.51111E-01 -1.39434E-01 -1.29836E-01 -1.19479E-01 -1.09701E-01 -1.01717E-01 -9.37536E-02 -8.51642E-02 -7.85641E-02 -7.29298E-02
  -6.58264E-02 -5.86218E-02 -5.42477E-02 -5.39467E-02 -5.37075E-02 -5.00654E-02 -4.45568E-02 -4.07853E-02 -4.15027E-02 -4.32014E-02
  -4.03531E-02 -3.47597E-02 -2.95276E-02 -2.33632E-02 -1.35061E-02  1.06257E-03  1.41999E-02  1.73644E-02  1.06490E-02  6.56653E-03
   2.08692E-02  3.58230E-02  3.02471E-02  3.92559E-02  1.06654E-01  2.06396E-01  2.52468E-01  2.05236E-01  1.70398E-01  2.64825E-01
   3.58750E-01  2.70538E-01  1.15000E-01  5.22922E-02  1.92400E-02 -3.04795E-02 -5.01081E-02 -4.75977E-02 -4.95559E-02 -5.58218E-02
  -6.28009E-02 -6.67716E-02 -6.83485E-02 -7.13410E-02 -7.32572E-02 -7.63682E-02 -7.44302E-02 -7.19214E-02 -6.95514E-02 -6.20972E-02
  -5.87865E-02 -5.99069E-02 -7.36902E-02 -8.78628E-02 -8.58331E-02 -7.61812E-02 -4.36659E-02  2.73828E-02  4.54842E-02  5.75069E-02
   1.27096E-01  1.53467E-01  1.32695E-01  1.01887E-01  1.20557E-01  1.74419E-01  1.43800E-01  1.10504E-01  1.47768E-01  1.50497E-01
   1.38447E-01  1.26230E-01  9.37921E-02  6.75963E-02  3.21125E-02 -3.17178E-03 -3.51434E-02 -7.31528E-02 -1.10819E-01 -1.64696E-01
  -2.24318E-01 -2.85410E-01 -3.06227E-01 -2.43805E-01 -1.08018E-01  9.44697E-02  2.70933E-01  3.57376E-01  3.97553E-01  3.59531E-01
   2.73908E-01  2.26098E-01  1.88368E-01  1.62459E-01  1.68855E-01  1.86794E-01  2.07536E-01  2.16228E-01  2.21975E-01  2.21481E-01
   2.08946E-01  2.01544E-01  1.93029E-01  1.83244E-01  1.75032E-01  1.63292E-01  1.44687E-01  1.20922E-01  8.94470E-02  5.83937E-02
   4.04242E-02  1.72888E-02  1.02760E-02  1.35118E-02  1.94009E-03 -1.12025E-02 -3.65348E-02 -8.70158E-02 -1.32608E-01 -1.69335E-01
  -2.03407E-01 -2.32164E-01 -2.31405E-01 -2.00254E-01 -1.54447E-01 -8.49828E-02 -1.45122E-02  4.59651E-02  8.31180E-02  9.08371E-02
   5.73899E-02  3.96876E-03 -5.35907E-02 -1.22469E-01 -2.12542E-01 -3.22470E-01 -3.71848E-01 -2.57541E-01 -1.37034E-01 -5.73109E-02
  -2.68955E-01 -8.47325E-01 -1.75395E+00 -2.04982E+00 -1.05235E+00 -3.36070E-01 -4.28484E-01 -1.58396E-01  1.52350E-01  2.62346E-02
   1.89955E-02  2.92701E-02  4.00358E-02  4.80888E-02  5.62261E-02  6.38292E-02  6.89037E-02  7.02113E-02  6.39656E-02  5.33446E-02
   3.27573E-02  9.21143E-03 -1.34719E-02 -3.32130E-02 -3.84504E-02 -3.47950E-02 -2.68120E-02 -1.08149E-02  5.54914E-03  1.81656E-02
   3.17343E-02  4.17718E-02  5.18541E-02  5.72990E-02  6.02047E-02  6.46723E-02  6.96624E-02  7.37577E-02  7.73972E-02  7.99416E-02
   8.16779E-02  8.48566E-02  8.85664E-02  9.15421E-02  9.35458E-02  9.43659E-02  9.49126E-02  9.62087E-02  9.95944E-02  1.03305E-01
   1.06170E-01  1.08480E-01  1.08755E-01  1.06281E-01  1.03409E-01  1.00727E-01  9.77155E-02  9.43845E-02  9.02608E-02  8.49028E-02
   7.86993E-02  7.24933E-02  6.52872E-02  5.69954E-02  4.99422E-02  4.48047E-02  3.89858E-02  3.22873E-02  2.64191E-02  2.17872E-02
   1.71083E-02  1.32220E-02  1.06467E-02  7.27105E-03  3.39017E-03  6.21660E-04 -2.64980E-03 -5.74888E-03 -7.14885E-03 -8.63525E-03
  -1.02052E-02 -1.10822E-02 -1.05553E-02 -8.45059E-03 -6.33872E-03 -3.87596E-03  8.14146E-04  6.25233E-03  1.27152E-02  2.12582E-02
   2.67135E-02  4.04503E-02  6.54953E-02  1.04204E-01  1.28956E-01  1.20513E-01  1.04914E-01  8.09586E-02  5.57184E-02  5.69821E-02
   6.65639E-02  7.07448E-02  8.50825E-02  9.69880E-02  1.07869E-01  1.17931E-01  1.27390E-01  1.34640E-01  1.38343E-01  1.39479E-01
   1.38554E-01  1.36201E-01  1.32856E-01  1.27837E-01  1.21243E-01  1.12170E-01  1.00571E-01  8.57513E-02  9.45780E-02  1.37027E-01
   2.24947E-01  2.95016E-01  2.99752E-01  2.74044E-01  2.06960E-01  1.32803E-01  1.06309E-01  8.38955E-02  5.57587E-02  5.58876E-02
   5.01235E-02  4.37545E-02  3.83799E-02  3.51573E-02  3.44871E-02  3.58041E-02  3.71337E-02  3.82840E-02  4.16396E-02  4.58171E-02
   4.98436E-02  5.54433E-02  6.05818E-02  6.35868E-02  6.59587E-02  6.77687E-02  6.84297E-02  6.95089E-02  7.21366E-02  7.47794E-02
   7.53527E-02  7.40621E-02  7.26203E-02  7.06702E-02  6.77060E-02  6.37610E-02  5.93974E-02  5.61680E-02  5.35973E-02  5.00827E-02
   4.63989E-02  4.31524E-02  3.96891E-02  3.58814E-02  3.15918E-02  2.75207E-02  2.35269E-02  2.08069E-02  1.93307E-02  1.62037E-02
   1.21955E-02  9.20297E-03  5.00568E-03 -1.89513E-03 -9.96991E-03 -1.72787E-02 -2.40663E-02 -3.24400E-02 -4.30783E-02 -5.71212E-02
  -7.38660E-02 -9.04085E-02 -1.05831E-01 -1.21321E-01 -1.37037E-01 -1.51375E-01 -1.63239E-01 -1.74060E-01 -1.84632E-01 -1.92455E-01
  -1.95184E-01 -1.94296E-01 -1.93608E-01 -1.91959E-01 -1.86064E-01 -1.77249E-01 -1.69749E-01 -1.63177E-01 -1.56057E-01 -1.49540E-01
  -1.43245E-01 -1.34802E-01 -1.25245E-01 -1.16526E-01 -1.06474E-01 -9.48632E-02 -8.42136E-02 -7.47080E-02 -6.47624E-02 -5.51830E-02
  -4.68017E-02 -3.78908E-02 -2.81094E-02 -2.15592E-02 -1.68659E-02 -9.58418E-03 -1.82836E-03  3.55470E-03  6.55555E-03  9.39171E-03
   1.46946E-02  1.89537E-02  1.99832E-02  2.21511E-02  2.45212E-02  2.57979E-02  2.79050E-02  2.85346E-02  2.74636E-02  2.86426E-02
   3.17800E-02  3.38266E-02  3.55622E-02  3.86721E-02  4.05689E-02  4.00184E-02  3.99706E-02  4.06829E-02  4.03160E-02  3.95902E-02
   3.99528E-02  3.99922E-02  3.88984E-02  3.88535E-02  3.94267E-02  3.97250E-02  4.09374E-02  4.24389E-02  4.24498E-02  3.97669E-02
   3.57956E-02  3.56769E-02  3.85756E-02  3.81979E-02  3.64756E-02  3.72077E-02  3.80503E-02  3.63350E-02  3.39920E-02  3.44348E-02
   3.72660E-02  3.90788E-02  3.90048E-02  3.94135E-02  4.10938E-02  4.26483E-02  4.35378E-02  4.46707E-02  4.56367E-02  4.70018E-02
   4.75930E-02  4.59531E-02  4.40428E-02  4.43224E-02  4.58055E-02  4.65817E-02  4.81038E-02  5.01817E-02  5.07646E-02  5.07008E-02
   5.19791E-02  5.54354E-02  5.91193E-02  6.02505E-02  6.01144E-02  5.87830E-02  5.70180E-02  5.80549E-02  6.02741E-02  6.14660E-02
   6.19673E-02  6.13430E-02  6.12628E-02  6.27010E-02  6.36207E-02  6.42957E-02  6.46375E-02  6.51019E-02  6.77594E-02  7.08168E-02
   7.11996E-02  7.14756E-02  7.40012E-02  7.59245E-02  7.70599E-02  7.93666E-02  8.29110E-02  8.81620E-02  9.32190E-02  9.60533E-02
   9.87865E-02  1.01818E-01  1.04655E-01  1.08081E-01
 NY background values follow
    -6.658E-03   -6.434E-03   -6.210E-03   -5.987E-03   -5.763E-03   -5.540E-03   -5.316E-03   -5.093E-03   -4.870E-03   -4.647E-03
    -4.423E-03   -4.200E-03   -3.977E-03   -3.755E-03   -3.532E-03   -3.309E-03   -3.086E-03   -2.864E-03   -2.641E-03   -2.419E-03
    -2.196E-03   -1.974E-03   -1.752E-03   -1.530E-03   -1.308E-03   -1.086E-03   -8.639E-04   -6.421E-04   -4.204E-04   -1.988E-04
     2.280E-05    2.443E-04    4.657E-04    6.870E-04    9.082E-04    1.129E-03    1.350E-03    1.571E-03    1.792E-03    2.013E-03
     2.234E-03    2.454E-03    2.675E-03    2.895E-03    3.115E-03    3.336E-03    3.556E-03    3.776E-03    3.996E-03    4.216E-03
     4.435E-03    4.655E-03    4.875E-03    5.095E-03    5.314E-03    5.534E-03    5.754E-03    5.973E-03    6.193E-03    6.413E-03
     6.632E-03    6.852E-03    7.071E-03    7.291E-03    7.511E-03    7.731E-03    7.950E-03    8.170E-03    8.390E-03    8.610E-03
