 LCModel (Version 6.3-1N) Copyright: S.W. Provencher.          Ref.: Magn. Reson. Med. 30:672-679 (1993).                
 Slice_N1@12_10  02-Jun-2023 14:36:35
 27 lines in following concentration table = NCONC+1
    Conc.  %SD /Cr+PCr  Metabolite                                         
 4.37E-06  15% 3.4E-04 Mac                                                 
    0.103  11%   8.000 Cr                                                  
    0.000 999%   0.000 PCr                                                 
    0.133  13%  10.276 Ins                                                 
    0.160   8%  12.398 NAA                                                 
    0.112  14%   8.670 Tau                                                 
    0.000 999%   0.000 PCho                                                
 3.11E-02  14%   2.408 GPC                                                 
 9.59E-02  20%   7.434 Glu                                                 
 6.32E-04 970% 4.9E-02 Gln                                                 
    0.000 999%   0.000 Ala                                                 
 6.75E-02  38%   5.227 Asc                                                 
 3.25E-02  46%   2.518 Asp                                                 
 1.85E-02  44%   1.436 GABA                                                
 1.60E-02  61%   1.236 Glc                                                 
    0.000 999%   0.000 GSH                                                 
    0.000 999%   0.000 Lac                                                 
    0.000 999%   0.000 NAAG                                                
    0.000 999%   0.000 PE                                                  
 3.11E-02  14%   2.408 GPC+PCho                                            
    0.160   8%  12.398 NAA+NAAG                                            
 9.66E-02  21%   7.483 Glu+Gln                                             
    0.103  11%   8.000 Cr+PCr                                              
    0.160   8%  12.398 NAA+NAAG                                            
    0.103  11%   8.000 Cr+PCr                                              
 9.66E-02  21%   7.483 Glu+Gln                                             
   6 lines in following misc. output table
  FWHM = 0.029 ppm    S/N =   3                                            
  Data shift = 0.017 ppm                                                   
  Ph: -99 deg     -11.7 deg/ppm                                            
  alphaB,S = 3.1E+01,   3.5E+01                                            
   18 spline knots.   Ns = 6(1)                                            
   4 inflections.     1 extrema                                            
  654 points on ppm-axis = NY
      4.000000     3.994181     3.988363     3.982544     3.976726     3.970907     3.965088     3.959270     3.953451     3.947633
      3.941814     3.935995     3.930177     3.924358     3.918540     3.912721     3.906902     3.901084     3.895265     3.889446
      3.883628     3.877809     3.871991     3.866172     3.860353     3.854535     3.848716     3.842898     3.837079     3.831260
      3.825442     3.819623     3.813805     3.807986     3.802167     3.796349     3.790530     3.784712     3.778893     3.773074
      3.767256     3.761437     3.755619     3.749800     3.743981     3.738163     3.732344     3.726526     3.720707     3.714888
      3.709070     3.703251     3.697433     3.691614     3.685795     3.679977     3.674158     3.668339     3.662521     3.656702
      3.650884     3.645065     3.639246     3.633428     3.627609     3.621791     3.615972     3.610153     3.604335     3.598516
      3.592698     3.586879     3.581060     3.575242     3.569423     3.563605     3.557786     3.551967     3.546149     3.540330
      3.534512     3.528693     3.522874     3.517056     3.511237     3.505419     3.499600     3.493781     3.487963     3.482144
      3.476326     3.470507     3.464688     3.458870     3.453051     3.447232     3.441414     3.435595     3.429777     3.423958
      3.418139     3.412321     3.406502     3.400684     3.394865     3.389046     3.383228     3.377409     3.371591     3.365772
      3.359953     3.354135     3.348316     3.342498     3.336679     3.330860     3.325042     3.319223     3.313405     3.307586
      3.301767     3.295949     3.290130     3.284312     3.278493     3.272674     3.266856     3.261037     3.255219     3.249400
      3.243581     3.237763     3.231944     3.226125     3.220307     3.214488     3.208670     3.202851     3.197032     3.191214
      3.185395     3.179577     3.173758     3.167939     3.162121     3.156302     3.150484     3.144665     3.138846     3.133028
      3.127209     3.121391     3.115572     3.109753     3.103935     3.098116     3.092298     3.086479     3.080660     3.074842
      3.069023     3.063205     3.057386     3.051567     3.045749     3.039930     3.034111     3.028293     3.022474     3.016656
      3.010837     3.005018     2.999200     2.993381     2.987563     2.981744     2.975925     2.970107     2.964288     2.958470
      2.952651     2.946832     2.941014     2.935195     2.929377     2.923558     2.917739     2.911921     2.906102     2.900284
      2.894465     2.888646     2.882828     2.877009     2.871191     2.865372     2.859553     2.853735     2.847916     2.842098
      2.836279     2.830460     2.824642     2.818823     2.813004     2.807186     2.801367     2.795549     2.789730     2.783911
      2.778093     2.772274     2.766456     2.760637     2.754818     2.749000     2.743181     2.737363     2.731544     2.725725
      2.719907     2.714088     2.708270     2.702451     2.696632     2.690814     2.684995     2.679177     2.673358     2.667539
      2.661721     2.655902     2.650084     2.644265     2.638446     2.632628     2.626809     2.620991     2.615172     2.609353
      2.603535     2.597716     2.591897     2.586079     2.580260     2.574442     2.568623     2.562804     2.556986     2.551167
      2.545349     2.539530     2.533711     2.527893     2.522074     2.516256     2.510437     2.504618     2.498800     2.492981
      2.487163     2.481344     2.475525     2.469707     2.463888     2.458070     2.452251     2.446432     2.440614     2.434795
      2.428977     2.423158     2.417339     2.411521     2.405702     2.399884     2.394065     2.388246     2.382428     2.376609
      2.370790     2.364972     2.359153     2.353335     2.347516     2.341697     2.335879     2.330060     2.324242     2.318423
      2.312604     2.306786     2.300967     2.295149     2.289330     2.283511     2.277693     2.271874     2.266056     2.260237
      2.254418     2.248600     2.242781     2.236963     2.231144     2.225325     2.219507     2.213688     2.207870     2.202051
      2.196232     2.190414     2.184595     2.178777     2.172958     2.167139     2.161321     2.155502     2.149683     2.143865
      2.138046     2.132228     2.126409     2.120590     2.114772     2.108953     2.103135     2.097316     2.091497     2.085679
      2.079860     2.074042     2.068223     2.062404     2.056586     2.050767     2.044949     2.039130     2.033311     2.027493
      2.021674     2.015856     2.010037     2.004218     1.998400     1.992581     1.986763     1.980944     1.975126     1.969307
      1.963489     1.957670     1.951852     1.946033     1.940215     1.934397     1.928578     1.922760     1.916941     1.911123
      1.905304     1.899486     1.893667     1.887849     1.882030     1.876212     1.870393     1.864575     1.858756     1.852938
      1.847119     1.841301     1.835482     1.829664     1.823845     1.818027     1.812208     1.806390     1.800571     1.794753
      1.788934     1.783116     1.777297     1.771479     1.765660     1.759842     1.754023     1.748205     1.742386     1.736568
      1.730749     1.724931     1.719113     1.713294     1.707476     1.701657     1.695839     1.690020     1.684202     1.678383
      1.672565     1.666746     1.660928     1.655109     1.649291     1.643472     1.637654     1.631835     1.626017     1.620198
      1.614380     1.608561     1.602743     1.596924     1.591106     1.585287     1.579469     1.573650     1.567832     1.562013
      1.556195     1.550376     1.544558     1.538739     1.532921     1.527102     1.521284     1.515465     1.509647     1.503829
      1.498010     1.492192     1.486373     1.480555     1.474736     1.468918     1.463099     1.457281     1.451462     1.445644
      1.439825     1.434007     1.428188     1.422370     1.416551     1.410733     1.404914     1.399096     1.393277     1.387459
      1.381640     1.375822     1.370003     1.364185     1.358366     1.352548     1.346729     1.340911     1.335092     1.329274
      1.323455     1.317637     1.311818     1.306000     1.300182     1.294363     1.288545     1.282726     1.276908     1.271089
      1.265271     1.259452     1.253634     1.247815     1.241997     1.236178     1.230360     1.224541     1.218723     1.212904
      1.207086     1.201267     1.195449     1.189630     1.183812     1.177993     1.172175     1.166356     1.160538     1.154719
      1.148901     1.143082     1.137264     1.131445     1.125627     1.119808     1.113990     1.108171     1.102353     1.096534
      1.090716     1.084898     1.079079     1.073261     1.067442     1.061624     1.055805     1.049987     1.044168     1.038350
      1.032531     1.026713     1.020894     1.015076     1.009257     1.003439     0.997620     0.991802     0.985983     0.980165
      0.974346     0.968528     0.962709     0.956891     0.951072     0.945254     0.939435     0.933617     0.927798     0.921980
      0.916161     0.910343     0.904524     0.898706     0.892887     0.887069     0.881251     0.875432     0.869614     0.863795
      0.857977     0.852158     0.846340     0.840521     0.834703     0.828884     0.823066     0.817247     0.811429     0.805610
      0.799792     0.793973     0.788155     0.782336     0.776518     0.770699     0.764881     0.759062     0.753244     0.747425
      0.741607     0.735788     0.729970     0.724151     0.718333     0.712514     0.706696     0.700877     0.695059     0.689240
      0.683422     0.677603     0.671785     0.665967     0.660148     0.654330     0.648511     0.642693     0.636874     0.631056
      0.625237     0.619419     0.613600     0.607782     0.601963     0.596145     0.590326     0.584508     0.578689     0.572871
      0.567052     0.561234     0.555415     0.549597     0.543778     0.537960     0.532141     0.526323     0.520504     0.514686
      0.508867     0.503049     0.497230     0.491412     0.485593     0.479775     0.473956     0.468138     0.462319     0.456501
      0.450682     0.444864     0.439045     0.433227     0.427408     0.421590     0.415771     0.409953     0.404134     0.398316
      0.392497     0.386679     0.380860     0.375042     0.369223     0.363405     0.357586     0.351767     0.345949     0.340130
      0.334312     0.328493     0.322675     0.316856     0.311038     0.305219     0.299401     0.293582     0.287764     0.281945
      0.276127     0.270308     0.264490     0.258671     0.252853     0.247034     0.241216     0.235397     0.229579     0.223760
      0.217942     0.212123     0.206305     0.200486
 NY phased data points follow
  -5.96998E-02 -1.88294E-02 -5.60113E-01 -1.03545E-01 -4.69207E-01 -5.02251E-01 -6.00141E-01 -7.69996E-01 -2.31383E-01 -7.10511E-02
  -1.42493E-01 -1.43381E-01  5.77939E-01  7.15635E-01  8.99455E-01  9.46781E-01  7.41708E-01  8.69661E-01  7.37922E-01  2.07904E-01
   2.23078E-01  1.51477E-01  6.64160E-01  7.07033E-01 -2.68677E-01  5.30631E-01  1.33642E-01 -4.13310E-01 -2.06004E-01 -5.22073E-01
  -1.91653E-01 -1.24288E-01 -1.29742E-01  2.06931E-02 -2.61830E-01 -4.92841E-01 -4.18609E-01 -5.73766E-01 -4.12057E-01 -5.01513E-01
  -3.04673E-01 -2.10730E-01 -5.69837E-01  1.64323E-01  3.22423E-01 -2.79254E-01  2.18424E-01  6.40645E-01  2.97899E-01  3.74574E-02
   8.74689E-02  3.96142E-01 -7.10889E-01 -5.21741E-01  2.75954E-01 -3.26381E-01 -3.61984E-01 -2.21496E-01  8.40296E-02 -6.62797E-01
  -1.98896E-01  1.79023E-01  1.30155E-01  1.22374E-01 -4.46040E-01  6.38612E-02  1.59942E-01  6.87574E-01  2.16754E-01  6.43456E-01
   1.02522E+00  5.46085E-01  8.13451E-01  1.60173E-01  6.00186E-01 -2.71584E-02 -2.37993E-01  6.38350E-01 -1.60018E-01 -2.39841E-01
  -4.90981E-01 -5.11266E-01 -1.02348E-01 -1.75232E-01  4.99699E-01  1.22673E-01  1.82581E-01  1.46537E-01  1.96556E-01  6.49310E-01
  -1.43670E-02  2.50237E-01  3.14812E-02  1.51759E-01  5.30538E-02  3.88439E-01  4.95852E-01 -3.53148E-01 -9.90783E-02 -6.07302E-01
  -2.65102E-01 -1.56449E-01 -5.02754E-01  3.28246E-01  4.76084E-01  4.39200E-01  5.36652E-01  7.52897E-01  4.94795E-01 -8.98116E-02
   5.87301E-01  1.13756E-01  5.23332E-01  9.27649E-01  5.08951E-01  1.16992E+00  5.94985E-01  1.05799E+00  4.90602E-01  4.46401E-01
   2.83062E-01 -5.40781E-01  9.33837E-03 -8.11083E-01 -6.08562E-01 -7.20492E-01 -1.04357E+00 -1.05388E+00 -1.01789E+00 -6.33254E-01
  -7.84795E-01 -8.61355E-01 -1.17705E+00 -1.20446E+00 -8.39101E-01 -7.65307E-01 -7.48488E-01 -1.45609E+00 -1.58469E+00 -5.10739E-01
  -6.65709E-01 -6.09666E-01 -6.90791E-01 -3.96585E-01 -2.34417E-01 -3.59444E-01  5.75634E-01  4.72335E-02 -2.81959E-01  6.31252E-01
   7.99770E-01  8.60847E-02  4.71174E-01  3.02762E-01  2.67809E-01  9.22694E-01 -1.23088E-02  5.33835E-01  8.45698E-01  2.62338E-01
   5.96684E-01  2.13177E-01  6.32155E-01  9.19909E-01  3.95354E-01  8.16383E-01  9.61260E-01  8.56493E-01 -3.78556E-01 -1.80348E+00
  -1.62289E+00 -1.17114E+00 -6.06422E-01 -6.46274E-01 -7.20623E-01 -1.82342E-01 -3.58623E-01 -9.91091E-01 -7.59454E-01 -5.29798E-01
  -8.88033E-01 -7.95924E-01 -1.24469E-01 -4.66320E-01 -1.18357E+00 -4.18637E-01 -8.08442E-01 -4.50771E-01  3.30881E-01 -9.65073E-01
  -6.83331E-01 -2.41076E-01 -2.56177E-01 -5.39778E-01 -1.02182E+00 -2.72107E-01  1.32637E-01  7.82596E-02 -2.11023E-01 -6.06033E-01
  -3.33255E-01 -3.80824E-02 -3.40668E-01  1.60137E-01 -9.85827E-02 -7.91419E-01  1.12036E-01  3.07264E-01  4.89377E-01  1.07717E+00
   4.84874E-01 -6.04105E-03  2.59571E-01  2.67686E-01  2.21454E-02 -1.65195E-01  2.51858E-01  1.64080E-01 -6.58133E-01 -3.94492E-01
   2.72387E-01  3.27187E-01  4.97915E-01  3.25199E-01  2.27476E-01  1.06668E+00  8.98881E-01  7.03164E-01  5.93107E-01  8.34448E-01
   1.18860E+00  4.46616E-01  5.73467E-01  1.99015E-01  5.72343E-02  4.98823E-01 -9.88742E-02 -3.24364E-02  1.89352E-01 -7.41884E-02
   1.91006E-01  3.51860E-01  1.34673E-01 -2.20494E-01 -4.23967E-01  3.13011E-03  8.85608E-02 -4.73248E-01 -4.99144E-02  2.54423E-02
  -2.69555E-01  8.55639E-02 -2.82401E-01  1.97634E-01 -8.60725E-03 -7.98885E-01 -3.11407E-01  2.04145E-01  7.26189E-02 -1.60287E-01
   1.66245E-01 -1.07602E-01 -1.59813E-01  4.45406E-01  3.42060E-01 -2.01488E-01  2.26572E-01  9.59880E-02  3.93219E-01  9.44083E-01
   9.07765E-02 -3.45917E-02  3.77602E-01 -3.01005E-02 -3.31543E-01 -1.40074E-01 -6.66201E-01 -2.19189E-01 -5.89885E-01 -5.23743E-01
  -5.14488E-01 -6.41821E-01  4.96154E-01 -5.74249E-01  4.68408E-02  8.88357E-01  4.42032E-01  5.79028E-01  7.67178E-01  3.11908E-01
   6.72381E-02  1.36716E-01 -3.26160E-01  5.44362E-03 -4.16812E-02  4.60957E-01  3.36506E-01  2.13770E-01  4.86279E-01  3.95985E-01
   1.06992E+00  3.58540E-01  6.36583E-02  6.89446E-01  3.94491E-01  5.78741E-01  4.22052E-01  2.83399E-01  1.04309E+00  6.81010E-01
   6.11990E-01  1.06385E+00  3.52661E-01  9.35194E-03  7.50146E-01  6.07706E-01  3.01013E-01  3.52168E-02 -4.35657E-03  4.27419E-01
  -3.62618E-01 -2.77550E-01 -2.65698E-01 -2.49306E-01 -1.72040E-01 -2.22275E-01  1.23423E-01 -4.38403E-01  1.30249E-02  3.66889E-01
   5.39254E-01  4.16355E-01  4.04280E-01 -3.53837E-03 -6.66146E-01 -5.41513E-02 -4.65031E-01 -3.56749E-01 -7.30700E-01 -8.87827E-01
  -8.69533E-01 -1.25020E+00 -1.53552E+00 -3.10081E+00 -2.14383E+00 -1.12643E+00 -8.15378E-01 -2.22587E-01 -3.70429E-01  3.58953E-02
   1.27462E-01  2.58739E-01  1.21722E-01  5.89101E-02  7.31484E-02 -8.30685E-02 -3.66523E-01 -1.97268E-01  2.16352E-01 -1.32870E-01
   4.04681E-01  7.30466E-01  2.02155E-01  2.21949E-01 -9.02801E-02  7.72467E-02  8.96438E-02 -5.12989E-01 -2.02282E-01 -6.85467E-02
   3.93408E-01  4.49894E-01 -1.94446E-01 -3.46854E-01 -3.23443E-01 -1.43597E-01 -1.33417E-02 -6.42948E-02  1.45580E-01  3.76745E-01
   3.52306E-02 -4.28386E-02  1.60673E-01  3.73392E-01  2.99526E-01  5.89083E-01  2.10086E-01 -2.49979E-01  3.06374E-01  1.81229E-01
   3.65538E-02  4.29413E-01  6.28590E-01  1.84299E-01  2.94876E-01  4.95017E-01  2.55976E-01  1.38732E-02  1.73166E-01 -8.76089E-02
  -2.31760E-01 -4.16312E-02  3.15569E-01  6.53022E-01  2.78791E-01  3.12027E-01 -2.63983E-01  2.15947E-01  6.87106E-02  1.19064E-01
   6.19516E-01 -8.42917E-02 -3.57742E-01 -2.85105E-01 -3.30260E-01 -8.26554E-01 -2.52064E-01 -4.08900E-01  4.40924E-01 -1.59467E-01
  -5.29345E-01  1.69655E-01 -3.56802E-01  2.55398E-01 -5.81699E-01  8.32632E-03  7.65574E-01  3.10674E-01 -6.93458E-01 -5.45455E-01
  -1.02204E-01 -3.97707E-01 -1.52782E-01 -2.77907E-01 -1.07088E-01 -5.99545E-01 -1.01045E-03  5.24053E-04 -1.30726E-01  1.36349E-02
   2.51010E-01  3.94869E-01 -1.41463E-01  5.39835E-01  3.99802E-01  4.19885E-02  2.18539E-01  3.15737E-02  2.70503E-01  6.33755E-01
  -1.30483E-01  2.48698E-01  5.85282E-01  1.02903E-01 -1.54903E-01  1.48988E-02  2.56636E-01 -5.11859E-01 -1.78239E-02 -8.34287E-02
  -6.11532E-02  2.87272E-01  8.15369E-02  1.53700E-02  2.53229E-01  2.20054E-01 -7.40271E-01 -2.42495E-01 -2.66386E-01 -4.25487E-01
   1.48563E-02 -1.88594E-01 -4.18304E-01 -2.02716E-01  1.16736E-01 -4.93959E-01 -3.82784E-01 -3.27723E-01 -5.51702E-01 -4.78971E-02
   2.06522E-01 -8.44538E-02 -3.65891E-01 -2.25206E-01  1.61951E-01  8.07195E-01  5.09037E-02  3.19300E-01  8.82911E-01 -4.47615E-02
   8.40649E-02 -2.16808E-01  2.56711E-01 -7.80997E-02 -3.85220E-02  3.36085E-01 -1.22150E-02  7.06854E-01 -4.56087E-01 -4.19675E-01
  -1.05125E-01  1.84772E-01  1.76513E-01 -3.91897E-01  3.32340E-01  3.51731E-01  6.80044E-01  1.79506E-01  2.87645E-01  3.39981E-01
  -1.27079E-01  2.06959E-01  1.08076E-01  6.63074E-01  9.17866E-01  4.04483E-01  3.75939E-01  5.66380E-01  2.01985E-02 -3.29271E-01
  -1.70374E-02 -1.69069E-01 -5.16006E-01  5.39709E-02 -2.45436E-02 -9.80575E-01 -8.99094E-01 -7.92351E-01 -1.38108E+00 -1.55398E+00
  -1.05152E+00 -5.23653E-01 -7.22839E-01 -8.16868E-01 -2.53914E-01 -4.80152E-01 -2.90810E-01 -1.02522E-01 -2.14810E-01  1.43949E-01
  -4.22683E-01 -6.13182E-01 -3.16998E-01  8.85425E-02  2.74676E-01 -7.16696E-01 -3.79810E-02  8.48924E-01 -6.69901E-02 -1.92747E-02
   3.67200E-01  3.33870E-01 -2.29537E-01  2.92991E-01  8.17147E-01  6.45700E-01  5.48903E-01 -8.99787E-02  3.17476E-01 -1.31473E-01
   3.08501E-01  5.77329E-01  6.57008E-02  2.92809E-01  3.65958E-02  8.96969E-01  3.72430E-01  4.50521E-02  8.88276E-01  6.60218E-01
   3.43234E-01 -1.48532E-02  3.59182E-01  1.09610E-02 -2.94635E-01  6.40655E-01 -2.55320E-01 -1.09693E-01  6.05061E-01 -3.97310E-02
   3.91745E-01  3.39001E-01  1.34704E-01 -2.67445E-01 -2.39720E-01  2.06115E-01 -3.68404E-01 -4.73342E-01  8.99847E-02  7.77417E-02
  -3.11115E-01  4.02725E-01  8.98720E-01  5.91602E-03 -3.48812E-01 -5.20574E-02 -2.85767E-02  1.78970E-02  4.98868E-02 -2.47547E-01
  -2.31411E-01  6.03376E-01  4.83482E-02  3.08862E-01  7.83169E-01 -5.10455E-02  3.51084E-01  3.37243E-01  4.03240E-01  5.21719E-01
   5.76109E-01  9.46674E-02  2.76224E-01  1.08831E-01 -5.92774E-02  4.52909E-01 -3.25358E-01  4.03430E-01  2.52013E-01  2.83138E-01
  -2.80803E-01 -1.80050E-01  7.54974E-01  1.25360E-02  6.34260E-01 -1.08769E-01  3.49304E-02 -4.39297E-01 -4.21776E-01  6.98443E-01
  -1.60908E-01  5.80917E-01  2.41657E-01 -3.25210E-02 -1.09006E-01 -4.13219E-01  4.40771E-01  1.34478E-01  1.57687E-01  3.30852E-01
  -1.48393E-01 -4.82602E-02  5.05720E-03 -4.03393E-01  2.40960E-01  5.87254E-01 -1.75200E-02  6.57625E-02  2.36911E-01  4.48518E-01
   4.89006E-01 -2.18388E-01 -5.44985E-01 -5.04677E-01
 NY points of the fit to the data follow
   2.18064E-01  1.84966E-01  1.38691E-01  9.32649E-02  6.09817E-02  4.88746E-02  5.51343E-02  7.00448E-02  8.58422E-02  1.39773E-01
   2.39726E-01  3.46396E-01  4.39319E-01  5.48938E-01  7.18486E-01  9.17508E-01  1.00842E+00  9.00797E-01  6.71714E-01  4.57512E-01
   3.20213E-01  2.35454E-01  1.55004E-01  7.05698E-02 -4.10948E-03 -6.04373E-02 -9.99450E-02 -1.32358E-01 -1.62999E-01 -1.91576E-01
  -2.16637E-01 -2.38866E-01 -2.62466E-01 -2.92118E-01 -3.30265E-01 -3.68316E-01 -4.00318E-01 -4.17492E-01 -4.22023E-01 -4.03318E-01
  -3.56623E-01 -2.66885E-01 -1.47863E-01 -1.05421E-02  1.21899E-01  2.27081E-01  2.88687E-01  3.02879E-01  2.77882E-01  2.29505E-01
   1.67551E-01  8.76470E-02 -5.32386E-03 -9.58909E-02 -1.68782E-01 -2.24864E-01 -2.84134E-01 -3.42949E-01 -3.75287E-01 -3.77959E-01
  -3.39253E-01 -2.92949E-01 -2.80837E-01 -2.70765E-01 -2.26716E-01 -1.19956E-01  5.49270E-02  2.53505E-01  4.17120E-01  5.38547E-01
   5.91067E-01  5.55409E-01  4.51745E-01  3.06179E-01  1.38408E-01 -1.92790E-02 -1.49450E-01 -2.70966E-01 -3.92327E-01 -4.83092E-01
  -4.77252E-01 -3.29940E-01 -8.85461E-02  1.55177E-01  3.65861E-01  5.27548E-01  6.11943E-01  6.12442E-01  5.54245E-01  4.81150E-01
   4.13888E-01  3.45070E-01  2.61338E-01  1.63285E-01  4.56961E-02 -7.30496E-02 -1.94567E-01 -3.09692E-01 -4.06025E-01 -4.44884E-01
  -3.92090E-01 -2.34160E-01 -1.23155E-02  2.02759E-01  3.59306E-01  4.39891E-01  4.67333E-01  4.70026E-01  4.65476E-01  4.61594E-01
   4.57463E-01  4.53001E-01  4.47517E-01  4.40971E-01  4.34334E-01  4.28073E-01  4.18336E-01  3.95849E-01  3.68614E-01  3.27623E-01
   2.70449E-01  1.98575E-01  8.47265E-02 -4.86685E-02 -2.07309E-01 -3.52482E-01 -4.87831E-01 -6.07574E-01 -7.33845E-01 -8.35007E-01
  -9.15668E-01 -9.80802E-01 -9.68513E-01 -8.89679E-01 -8.28923E-01 -9.30922E-01 -1.19966E+00 -1.42737E+00 -1.37367E+00 -1.04983E+00
  -6.69343E-01 -3.85763E-01 -2.19014E-01 -1.11263E-01 -3.02650E-02  2.99814E-02  7.93235E-02  1.21217E-01  1.57386E-01  1.89428E-01
   2.18883E-01  2.47350E-01  2.75699E-01  3.04419E-01  3.34347E-01  3.67079E-01  4.04293E-01  4.47241E-01  4.97983E-01  5.62082E-01
   6.52710E-01  7.95556E-01  8.47369E-01  7.99627E-01  7.22588E-01  6.80648E-01  5.61375E-01  1.86246E-01 -4.69155E-01 -1.07365E+00
  -1.31501E+00 -1.23740E+00 -1.04808E+00 -9.07085E-01 -8.20261E-01 -7.45105E-01 -6.78986E-01 -6.19089E-01 -5.65614E-01 -5.20059E-01
  -4.82510E-01 -4.50130E-01 -4.20594E-01 -3.92051E-01 -3.64474E-01 -3.38726E-01 -3.15271E-01 -2.93581E-01 -2.73074E-01 -2.53947E-01
  -2.36522E-01 -2.20213E-01 -2.04205E-01 -1.88137E-01 -1.72101E-01 -1.56062E-01 -1.38814E-01 -1.19511E-01 -9.98173E-02 -8.26729E-02
  -6.69978E-02 -4.85767E-02 -2.62892E-02 -8.73518E-03 -6.33408E-03 -1.53010E-02 -2.08504E-02 -1.54414E-02 -9.44690E-03 -1.80150E-02
  -4.22405E-02 -6.70744E-02 -7.98944E-02 -8.06768E-02 -7.60097E-02 -7.10730E-02 -6.69722E-02 -6.31246E-02 -5.67875E-02 -3.39994E-02
   8.75483E-03  5.75842E-02  1.04441E-01  1.62901E-01  2.66516E-01  4.08630E-01  5.14691E-01  5.36625E-01  5.10579E-01  5.08977E-01
   5.43990E-01  5.46103E-01  4.52661E-01  2.96345E-01  1.49683E-01  5.03181E-02 -6.05576E-03 -4.09647E-02 -6.44572E-02 -8.13318E-02
  -9.60206E-02 -1.08941E-01 -1.19902E-01 -1.29291E-01 -1.37966E-01 -1.46969E-01 -1.56995E-01 -1.68654E-01 -1.82746E-01 -2.00602E-01
  -2.23695E-01 -2.32815E-01 -2.34994E-01 -2.42876E-01 -2.40547E-01 -2.09264E-01 -1.32421E-01 -3.30138E-02  5.60990E-02  1.28892E-01
   2.05614E-01  2.70239E-01  3.01322E-01  3.00199E-01  2.85897E-01  2.69678E-01  2.34312E-01  1.78384E-01  1.17737E-01  6.43193E-02
   2.03103E-02 -1.94441E-02 -5.71507E-02 -9.46088E-02 -1.34090E-01 -1.81273E-01 -2.31904E-01 -2.83236E-01 -3.31420E-01 -3.67059E-01
  -3.87124E-01 -3.79316E-01 -3.28074E-01 -2.29134E-01 -8.96834E-02  7.20751E-02  2.21383E-01  3.32051E-01  3.84975E-01  3.82361E-01
   3.43856E-01  2.95563E-01  2.55817E-01  2.36367E-01  2.37193E-01  2.57533E-01  2.87428E-01  3.13654E-01  3.30376E-01  3.35574E-01
   3.33365E-01  3.28251E-01  3.22368E-01  3.17385E-01  3.12744E-01  3.07598E-01  3.01075E-01  2.92628E-01  2.81949E-01  2.68530E-01
   2.51283E-01  2.28758E-01  2.01783E-01  1.70740E-01  1.37009E-01  9.79335E-02  5.28339E-02  1.75001E-03 -5.05744E-02 -9.93922E-02
  -1.39622E-01 -1.68346E-01 -1.83950E-01 -1.84341E-01 -1.68324E-01 -1.33502E-01 -8.45060E-02 -3.58549E-02  5.75101E-04  1.01510E-02
  -2.68633E-03 -3.57893E-02 -7.40645E-02 -1.09893E-01 -1.30243E-01 -1.39843E-01 -2.15823E-01 -4.28924E-01 -6.66762E-01 -8.61363E-01
  -1.08778E+00 -1.49580E+00 -2.04468E+00 -2.39574E+00 -2.21348E+00 -1.61195E+00 -9.80367E-01 -5.58947E-01 -3.46855E-01 -2.28099E-01
  -1.47463E-01 -9.67341E-02 -6.09160E-02 -3.43366E-02 -1.57555E-02 -2.95567E-03  4.50767E-03  5.47204E-03  4.30088E-04 -1.05121E-02
  -2.46663E-02 -3.97843E-02 -5.28863E-02 -6.20539E-02 -6.35630E-02 -5.68017E-02 -4.26024E-02 -2.35484E-02 -3.85165E-03  1.46644E-02
   3.10258E-02  4.54687E-02  5.87056E-02  7.04324E-02  8.03611E-02  8.85466E-02  9.62988E-02  1.04218E-01  1.12375E-01  1.19926E-01
   1.26421E-01  1.32196E-01  1.37907E-01  1.44103E-01  1.50203E-01  1.55770E-01  1.60408E-01  1.64715E-01  1.69362E-01  1.74716E-01
   1.80166E-01  1.84905E-01  1.87935E-01  1.88450E-01  1.86302E-01  1.82108E-01  1.76890E-01  1.71198E-01  1.64415E-01  1.56061E-01
   1.46086E-01  1.35042E-01  1.23122E-01  1.10404E-01  9.73873E-02  8.48906E-02  7.36012E-02  6.30825E-02  5.27865E-02  4.27999E-02
   3.36925E-02  2.55881E-02  1.85243E-02  1.21253E-02  6.14388E-03  5.25092E-04 -4.90714E-03 -9.84053E-03 -1.37789E-02 -1.67056E-02
  -1.86683E-02 -1.97568E-02 -1.96575E-02 -1.76741E-02 -1.36417E-02 -8.20084E-03 -1.95063E-03  5.05968E-03  1.31360E-02  2.21817E-02
   3.12448E-02  3.91872E-02  4.62755E-02  5.43164E-02  6.50553E-02  7.86531E-02  9.38037E-02  1.09303E-01  1.25159E-01  1.42128E-01
   1.61045E-01  1.81978E-01  2.03917E-01  2.25942E-01  2.47371E-01  2.67918E-01  2.87267E-01  3.04674E-01  3.18843E-01  3.29142E-01
   3.35378E-01  3.38108E-01  3.37675E-01  3.34465E-01  3.28664E-01  3.20228E-01  3.08476E-01  2.93169E-01  2.74832E-01  2.55161E-01
   2.36027E-01  2.17832E-01  2.00042E-01  1.82218E-01  1.64870E-01  1.48847E-01  1.34654E-01  1.21760E-01  1.09727E-01  9.90138E-02
   9.01993E-02  8.30787E-02  7.73605E-02  7.33642E-02  7.18264E-02  7.32748E-02  7.72555E-02  8.28933E-02  8.96995E-02  9.75795E-02
   1.06334E-01  1.15703E-01  1.25188E-01  1.34205E-01  1.42336E-01  1.49102E-01  1.54429E-01  1.58675E-01  1.62452E-01  1.66462E-01
   1.69932E-01  1.71567E-01  1.70802E-01  1.68284E-01  1.64703E-01  1.60215E-01  1.54693E-01  1.48479E-01  1.42418E-01  1.36669E-01
   1.30818E-01  1.24367E-01  1.17593E-01  1.10977E-01  1.04430E-01  9.76507E-02  9.06580E-02  8.40531E-02  7.81708E-02  7.24307E-02
   6.59554E-02  5.83446E-02  4.96542E-02  3.95226E-02  2.71439E-02  1.24092E-02 -4.28250E-03 -2.23860E-02 -4.25065E-02 -6.57931E-02
  -9.29777E-02 -1.23073E-01 -1.54433E-01 -1.85613E-01 -2.16146E-01 -2.45460E-01 -2.72267E-01 -2.95857E-01 -3.16368E-01 -3.33603E-01
  -3.46297E-01 -3.53258E-01 -3.54769E-01 -3.52501E-01 -3.47382E-01 -3.39268E-01 -3.28096E-01 -3.14994E-01 -3.01470E-01 -2.88119E-01
  -2.74506E-01 -2.59801E-01 -2.43519E-01 -2.25744E-01 -2.06870E-01 -1.87265E-01 -1.66990E-01 -1.46491E-01 -1.26439E-01 -1.07356E-01
  -8.92380E-02 -7.15677E-02 -5.39526E-02 -3.74450E-02 -2.29966E-02 -9.88553E-03  2.82048E-03  1.53406E-02  2.65555E-02  3.55490E-02
   4.32933E-02  5.08651E-02  5.79209E-02  6.36851E-02  6.81298E-02  7.19618E-02  7.56884E-02  7.90825E-02  8.19014E-02  8.45186E-02
   8.75133E-02  9.12244E-02  9.53402E-02  9.93059E-02  1.02762E-01  1.05338E-01  1.06760E-01  1.07314E-01  1.07580E-01  1.07708E-01
   1.07761E-01  1.07803E-01  1.07829E-01  1.08179E-01  1.08689E-01  1.08764E-01  1.08761E-01  1.09313E-01  1.10094E-01  1.09790E-01
   1.07489E-01  1.04620E-01  1.03070E-01  1.02966E-01  1.03006E-01  1.02766E-01  1.02595E-01  1.02434E-01  1.01698E-01  1.00642E-01
   1.00642E-01  1.02212E-01  1.04447E-01  1.06213E-01  1.07703E-01  1.09454E-01  1.11513E-01  1.13149E-01  1.14233E-01  1.15020E-01
   1.15760E-01  1.16005E-01  1.15407E-01  1.14450E-01  1.14100E-01  1.14784E-01  1.16382E-01  1.18664E-01  1.21088E-01  1.23201E-01
   1.24720E-01  1.26182E-01  1.28404E-01  1.31254E-01  1.33662E-01  1.34422E-01  1.33308E-01  1.31660E-01  1.30968E-01  1.31574E-01
   1.32621E-01  1.32704E-01  1.31581E-01  1.30556E-01  1.30562E-01  1.31182E-01  1.31545E-01  1.31381E-01  1.31504E-01  1.32727E-01
   1.34231E-01  1.35108E-01  1.35665E-01  1.36790E-01  1.38564E-01  1.40630E-01  1.42969E-01  1.46293E-01  1.50649E-01  1.55426E-01
   1.59563E-01  1.62681E-01  1.65200E-01  1.67729E-01
 NY background values follow
     6.965E-02    6.953E-02    6.942E-02    6.930E-02    6.918E-02    6.906E-02    6.894E-02    6.882E-02    6.870E-02    6.859E-02
     6.847E-02    6.835E-02    6.823E-02    6.811E-02    6.799E-02    6.787E-02    6.776E-02    6.764E-02    6.752E-02    6.740E-02
     6.728E-02    6.716E-02    6.704E-02    6.692E-02    6.681E-02    6.669E-02    6.657E-02    6.645E-02    6.633E-02    6.621E-02
     6.609E-02    6.597E-02    6.585E-02    6.573E-02    6.562E-02    6.550E-02    6.538E-02    6.526E-02    6.514E-02    6.502E-02
     6.490E-02    6.478E-02    6.466E-02    6.454E-02    6.442E-02    6.430E-02    6.418E-02    6.407E-02    6.395E-02    6.383E-02
     6.371E-02    6.359E-02    6.347E-02    6.335E-02    6.323E-02    6.311E-02    6.299E-02    6.287E-02    6.275E-02    6.263E-02
     6.251E-02    6.239E-02    6.227E-02    6.215E-02    6.203E-02    6.191E-02    6.179E-02    6.167E-02    6.155E-02    6.144E-02
