 
 $NMID
 ID=''
 FMTDAT='(2E13.5)'
 TRAMP=   1.00000E+0
 VOLUME=   1.00000E+0
 $END
   3.98417E+1   2.12383E+2
  -4.13970E+2   1.73958E+3
   4.00850E+3  -1.23607E+3
   1.64197E+3  -1.46129E+3
   3.16604E+2  -3.77179E+3
  -1.47276E+3  -4.92002E+2
  -2.33050E+3   7.88100E+2
  -2.61797E+3   1.01911E+3
  -9.77825E+2   9.53236E+2
  -5.24479E+1  -5.42307E+2
   2.89036E+3  -2.55822E+2
   5.56692E+3   3.74018E+2
   1.72965E+3   2.79023E+3
  -1.38161E+3   2.31365E+3
  -1.11744E+3   5.40872E+2
  -5.75446E+2  -3.89776E+3
   2.45817E+3  -2.18551E+3
   2.18444E+3   1.89111E+3
   2.08773E+2   1.40120E+3
   5.28832E+2  -7.69594E+2
   1.92458E+3  -3.92523E+3
   1.81668E+3   1.32093E+2
  -1.57854E+3   2.02407E+3
  -5.51713E+3  -1.51817E+2
  -2.39083E+3  -2.64206E+3
   8.89313E+2   3.24914E+2
  -1.39473E+3   3.59580E+3
  -3.93721E+3   1.05147E+2
  -4.45473E+3  -2.51904E+3
   1.84353E+3  -2.75369E+3
   4.15779E+3   3.10058E+3
   1.90231E+3   8.99995E+3
  -4.86910E+3   5.12667E+3
  -2.49672E+3  -1.16404E+3
  -7.84999E+2   1.30431E+3
  -3.64193E+3  -8.03091E+2
  -6.48592E+2  -3.70510E+3
   3.53771E+3  -1.42208E+3
   1.79628E+3  -4.99893E+2
   2.20895E+3   2.21208E+3
  -2.13802E+3   2.46292E+3
  -3.55130E+3   3.49962E+3
  -4.53608E+3  -2.51112E+3
  -1.14183E+3  -3.74809E+3
   4.92101E+2  -2.44567E+3
   4.82604E+2   5.86966E+2
   2.80877E+2   5.10329E+2
  -9.39699E+2   9.92931E+2
  -1.92882E+3   2.40481E+3
  -2.98769E+3   2.18558E+3
  -2.60104E+3   3.87674E+2
  -3.54423E+3  -2.06956E+3
  -4.68558E+2  -1.84178E+3
   1.28036E+3  -1.93854E+3
  -6.66825E+2   1.36467E+3
  -1.03491E+3  -1.64178E+2
  -3.18261E+3   2.16587E+3
  -4.44278E+3  -9.86670E+2
  -3.27240E+3  -3.91419E+3
  -6.26064E+2  -6.87376E+3
   3.76039E+3  -3.93194E+3
   3.40124E+3  -3.10524E+3
   4.23592E+3   1.07311E+3
   1.45141E+3   1.05112E+1
   3.01569E+3  -1.80899E+3
   3.93428E+3  -1.37196E+3
   5.33276E+3   4.70579E+3
   1.56617E+3   3.93029E+3
  -2.79879E+2  -2.67533E+1
  -1.30664E+3   6.51431E+2
  -5.53055E+2   3.48221E+2
  -7.44699E+2   2.36934E+3
   6.07929E+2  -2.54457E+2
   1.85210E+3   6.23946E+1
   1.40827E+3  -1.23033E+3
  -9.22305E+1  -9.21950E+2
   4.19351E+2  -1.09630E+3
  -1.54722E+3  -1.45126E+3
   1.21663E+3  -1.63364E+3
  -5.04961E+2  -8.21567E+2
  -5.03577E+2   1.44550E+3
  -1.52130E+2   8.35172E+2
   2.61901E+2  -8.12903E+2
  -1.04774E+3   4.90019E+2
   6.03254E+2   1.10290E+3
  -2.56225E+3  -1.14114E+3
   2.53824E+2  -2.29067E+3
   2.79605E+3  -3.52233E+3
   2.94105E+3  -2.05918E+3
   1.12393E+3   1.13135E+3
  -5.95973E+2  -1.64195E+3
   2.74032E+3   7.58786E+2
   4.83853E+2   1.53417E+3
  -2.56857E+3   1.20123E+3
  -3.95583E+3  -3.00388E+3
  -2.08638E+3  -4.26380E+3
   1.01693E+3  -2.24037E+3
   1.97009E+3   2.28911E+3
  -4.32626E+2   3.59637E+2
  -1.89004E+3  -8.53268E+2
   1.41706E+3  -2.01597E+3
   2.45350E+3  -4.55093E+2
   3.14574E+3   3.68619E+3
  -1.30419E+3   2.35244E+3
  -2.61269E+3   1.17242E+3
  -7.01658E+2  -1.20056E+2
   1.34660E+3   7.85224E+2
  -1.10668E+3  -6.34234E+2
  -1.61257E+3  -1.91506E+3
   2.89221E+2  -4.22706E+3
   2.81589E+3  -1.61656E+3
   2.00056E+3   6.09455E+2
   2.92447E+3   3.74028E+2
  -3.53141E+2   1.24612E+3
  -2.37165E+3   5.25809E+2
  -7.39093E+2   1.61113E+3
  -1.77963E+3  -7.69419E+2
   3.93666E+1  -1.93263E+3
  -1.13419E+3   5.78318E+2
   1.92482E+3   3.73280E+2
   2.14852E+2   5.65252E+2
   4.52691E+2  -5.31124E+2
  -9.81023E+2  -1.08741E+3
   6.37902E+2  -3.04045E+3
  -4.87954E+2  -5.28866E+2
  -1.42412E+3  -1.67083E+3
   7.53901E+2  -1.46330E+3
  -1.92797E+2   1.06884E+3
   2.52071E+3   1.08804E+3
   3.12671E+2   9.67314E+2
  -1.35323E+2  -1.73770E+3
   8.98125E+2  -1.09949E+3
   2.76175E+3   1.38238E+3
   6.74648E+2   2.30922E+3
  -1.59244E+3   7.86293E+2
  -2.74570E+3  -1.73808E+3
  -1.60136E+3   2.62118E+2
  -3.76698E+2   5.68211E+2
   2.83381E+2  -8.52647E+0
  -3.87466E+2   2.85204E+2
  -4.33369E+2  -4.79541E+2
  -1.80024E+2   2.14780E+3
   1.36543E+3   2.48649E+3
  -9.83365E+2   1.18176E+3
  -1.33816E+3   1.02723E+3
  -5.24743E+2   1.75843E+3
  -3.78573E+2   2.83713E+3
  -6.19515E+2  -1.18311E+3
  -8.04094E+0   1.35453E+2
   2.79926E+2  -1.35985E+2
  -2.57411E+3   6.40243E+2
  -8.11473E+2  -1.94592E+3
   1.16457E+1  -5.40901E+1
   4.87994E+2  -1.42156E+3
   2.76253E+2   9.16136E+1
   5.71939E+1   3.86943E+2
  -1.24506E+3   3.71898E+2
  -8.21268E+2   1.92957E+3
   8.84436E+2  -1.03141E+3
   1.68443E+1   2.59545E+3
   7.30237E+1  -1.18363E+2
  -1.04080E+3   1.29930E+3
   5.18571E+2   7.53472E+1
   2.67203E+3   2.87878E+3
   2.21089E+2   1.45224E+3
  -9.52007E+2   3.96256E+2
  -9.02215E+2  -9.65682E+2
   1.87528E+3  -8.85478E+2
   7.34805E+2   8.61844E+2
  -1.32795E+3   8.01329E+1
  -1.18407E+3   3.89048E+2
  -3.57640E+3   1.69156E+3
  -3.15021E+2   1.32218E+3
   1.29060E+3   1.60530E+3
   2.93474E+3   1.93643E+2
   1.21963E+3  -1.02453E+3
   1.09971E+3  -2.18382E+1
   2.16403E+3   2.62221E+3
  -9.00435E+2  -4.07411E+2
  -2.73491E+3   2.26259E+3
  -8.20459E+2  -1.55428E+3
   1.00113E+3  -3.36896E+1
   1.45317E+3   2.11286E+3
   4.91634E+2   1.09596E+3
   6.18910E+2  -6.88055E+2
   1.15094E+3   2.49991E+2
  -1.02085E+3   2.07240E+3
  -3.53257E+3   1.02317E+3
  -2.90039E+2  -6.60023E+2
   5.84450E+2  -1.68337E+3
   1.66175E+3   6.30974E+1
   1.15255E+2   6.40086E+2
   1.61245E+3  -1.48196E+2
   1.24008E+3  -8.65298E+2
   1.17868E+3  -2.31617E+3
  -1.36438E+2   2.96261E+1
  -1.66429E+3   9.81541E+1
   6.26402E+2   3.41797E+2
   9.53027E+2   9.91925E+2
   1.22234E+3   2.01818E+3
  -2.35886E+3   1.43834E+3
  -5.46205E+2  -7.58137E+1
   1.48577E+3  -2.77113E+2
   3.40027E+3   5.24426E+2
   9.00555E+2   1.49698E+3
   1.43867E+3   2.12053E+3
  -4.86198E+2  -7.78095E+2
   2.53284E+3   9.18171E+2
   5.83724E+2  -1.54572E+2
  -6.94319E+2   1.44761E+3
   1.30764E+2   8.24775E+1
   2.13937E+3  -1.83820E+3
  -5.60144E+2  -3.90186E+2
  -6.79131E+1  -1.45380E+3
   1.06795E+2   7.61637E+2
   2.25993E+3  -3.52823E+2
   1.63334E+1  -3.99709E+2
   1.53509E+3  -3.10533E+3
   1.02240E+3  -7.45700E+2
   9.40961E+2   3.35547E+2
   2.18100E+3   1.61285E+3
   2.26982E+3  -8.66978E+2
  -6.69515E+2   1.05941E+3
   1.23243E+3  -6.69122E+2
   2.17659E+3   9.32227E+1
  -1.87147E+2   4.12181E+2
   9.45111E+2  -7.79222E+2
  -4.84397E+2   9.35266E+2
  -1.18899E+3   4.58532E+2
  -1.11230E+3  -7.72527E+2
   1.23435E+3   8.08233E+2
  -5.49276E+2  -5.22431E+2
  -4.29341E+2  -2.57452E+3
   4.92749E+2  -3.90409E+2
   9.94354E+2  -1.68140E+3
   9.33185E+2   5.59974E+2
  -1.33471E+3   1.74329E+3
  -9.34503E+2  -2.42251E+3
   4.87592E+2  -1.00373E+3
   2.50733E+3  -4.71592E+2
   2.20470E+2   8.01573E+2
  -1.57574E+3   1.02509E+2
   1.20985E+3  -1.65514E+3
  -2.74474E+2  -1.49692E+3
   2.04601E+2   9.35352E+2
  -1.03125E+2  -6.47195E+2
  -1.06281E+3  -8.99105E+2
   1.17778E+2  -1.51606E+3
  -4.47164E+2  -2.91084E+1
  -4.24323E+2  -1.23360E+3
  -1.99027E+3   2.92411E+2
  -7.35748E+2   7.44729E+2
  -1.59093E+2  -6.64814E+2
   4.56744E+2   2.39860E+2
   1.08071E+2   4.02124E+2
   1.43634E+3  -1.35386E+3
   1.12275E+1   9.71621E+2
   4.96484E+2   1.90535E+3
  -1.35144E+3   3.95366E+2
  -3.68122E+1  -4.41475E+2
  -4.14129E+2  -3.98168E+2
   1.08883E+3  -8.34974E+2
  -1.48366E+3   1.18751E+3
  -1.02328E+3   5.33682E+2
   4.57134E+2   7.57638E+2
  -2.10941E+2   8.50239E+1
   3.64872E+2  -2.14315E+3
   5.58463E+2  -2.98212E+2
  -1.43540E+3  -6.49184E+2
   1.05070E+3  -2.39299E+2
  -7.95887E+2  -5.76869E+1
   1.84216E+3   9.33472E+2
   1.67697E+2   1.71978E+3
  -2.39617E+3   1.72097E+3
  -1.37791E+1  -3.11543E+2
   1.07625E+2   5.85190E+2
   1.81262E+3   2.02220E+3
   7.51270E+1   1.04313E+3
  -1.90412E+2   7.07509E+2
   5.06835E+2  -9.94859E+1
  -7.17576E+2   6.44916E+2
  -2.17268E+3   8.11028E+1
  -5.14440E+2  -3.37995E+2
  -3.03480E+2  -5.35905E+2
   2.24808E+2   6.62586E+2
  -1.21856E+3  -1.26061E+3
  -1.66004E+2   8.32089E+2
   1.13306E+3  -2.26847E+2
   1.78466E+3  -4.90294E+2
  -7.34736E+2  -6.26647E+2
  -7.31237E+2   1.61688E+3
   2.09328E+3  -1.19809E+3
   1.95952E+2   2.76608E+2
   9.51626E+2   7.33647E+1
   2.46218E+2   8.33754E+2
  -1.90461E+1  -1.81768E+3
   5.55269E+2  -1.35999E+2
   1.17800E+3   6.43323E+2
  -5.50676E+2   7.07473E+2
  -2.22762E+2   1.14066E+3
   1.34297E+3   2.92309E+2
  -8.94756E+2  -6.89716E+2
  -7.00483E+2  -9.04125E+2
  -2.49475E+1  -8.84249E+2
  -7.84659E+2  -5.70890E+2
   9.62227E+2  -8.02541E+2
   1.47836E+2   1.53338E+1
   9.80080E+2   1.36022E+3
  -4.25679E+1   5.47223E+2
  -9.81059E+2  -2.32301E+2
   1.53473E+3  -2.83858E+1
   2.74578E+2  -4.72042E+2
   3.86981E+2   1.23318E+3
  -1.81558E+3  -5.43820E+2
   1.92371E+2  -9.98977E+2
   9.64567E+2   2.85326E+2
   1.47714E+2   2.12914E+3
   1.02168E+2   2.09459E+3
  -1.64819E+3  -3.87684E+2
   3.32380E+2   1.28511E+2
  -2.67094E+2   2.67392E+2
  -2.58263E+3  -9.16237E+2
  -2.82092E+3   1.44067E+3
   8.90473E+2  -4.95025E+2
  -1.61817E+3  -6.07718E+2
   6.79219E+2  -1.54791E+3
   1.91179E+3  -8.86712E+2
  -9.84270E+2   2.78763E+2
  -1.23571E+3  -3.45743E+2
  -5.65219E+1   1.04137E+3
  -1.40439E+3   9.51396E+2
   1.91942E+3  -2.12415E+2
   3.76504E+2   4.29264E+1
   3.10867E+2  -1.46405E+3
  -8.31929E+2  -4.52705E+2
  -1.97377E+2  -1.91696E+3
   1.38265E+3   1.55238E+3
   7.35995E+2  -1.20308E+3
  -1.64806E+3  -9.62949E+2
  -1.57797E+3   7.33597E+2
  -9.15273E+2  -2.10129E+3
  -6.35809E+2  -4.17355E+2
  -6.08711E+2  -5.06578E+2
  -2.87503E+2  -1.70846E+3
   3.61384E+2   1.16486E+3
  -1.42124E+2   1.77033E+3
   2.38890E+2  -4.07715E+2
  -3.00715E+2   1.85984E+2
  -8.91141E+2  -4.42877E+2
   6.15405E+2  -8.13402E+2
  -6.47632E+2   9.16956E+2
  -9.74415E+2   4.72130E+2
  -1.46741E+3   1.45886E+3
  -2.84328E+3   8.23740E+1
  -1.02448E+3   5.07625E+2
  -2.49300E+2  -2.79166E+2
  -3.39516E+2  -1.54176E+2
   1.06911E+3   5.70861E+2
  -2.33624E+2   3.62086E+2
   7.08503E+2  -1.12931E+3
   8.66489E+2  -1.15469E+2
   1.89145E+3  -9.44234E+2
  -1.10679E+3   2.27427E+3
  -6.71932E+2  -5.44346E+2
  -1.94926E+2  -8.93650E+2
  -1.67832E+3   1.43524E+3
  -2.81649E+3  -6.80002E+1
