 LCModel (Version 6.3-1N) Copyright: S.W. Provencher.          Ref.: Magn. Reson. Med. 30:672-679 (1993).                
 Slice_N1@17_25  02-Jun-2023 14:37:10
 27 lines in following concentration table = NCONC+1
    Conc.  %SD /Cr+PCr  Metabolite                                         
 2.36E-08 999% 6.5E-06 Mac                                                 
 1.29E-02  77%   3.535 Cr                                                  
 1.63E-02  60%   4.465 PCr                                                 
 5.57E-02  22%  15.294 Ins                                                 
 5.63E-02  16%  15.459 NAA                                                 
 8.28E-02  15%  22.743 Tau                                                 
 7.94E-03  33%   2.180 PCho                                                
    0.000 999%   0.000 GPC                                                 
 4.18E-02  33%  11.486 Glu                                                 
 1.39E-02  65%   3.820 Gln                                                 
    0.000 999%   0.000 Ala                                                 
 2.58E-03 715%   0.708 Asc                                                 
 5.53E-03  76%   1.518 Asp                                                 
 2.63E-03  93%   0.723 GABA                                                
 3.05E-03  83%   0.838 Glc                                                 
 4.37E-03  93%   1.201 GSH                                                 
 1.75E-02  61%   4.805 Lac                                                 
 4.82E-03 149%   1.322 NAAG                                                
    0.000 999%   0.000 PE                                                  
 7.94E-03  33%   2.180 GPC+PCho                                            
 6.11E-02  18%  16.781 NAA+NAAG                                            
 5.57E-02  28%  15.306 Glu+Gln                                             
 2.91E-02  27%   8.000 Cr+PCr                                              
 6.11E-02  18%  16.781 NAA+NAAG                                            
 2.91E-02  27%   8.000 Cr+PCr                                              
 5.57E-02  28%  15.306 Glu+Gln                                             
   6 lines in following misc. output table
  FWHM = 0.023 ppm    S/N =   2                                            
  Data shift =-0.047 ppm                                                   
  Ph:  44 deg     -24.0 deg/ppm                                            
  alphaB,S = 3.1E+01,   6.4E+00                                            
   18 spline knots.   Ns = 5(1)                                            
   2 inflections.     1 extrema                                            
  654 points on ppm-axis = NY
      4.000000     3.994181     3.988363     3.982544     3.976726     3.970907     3.965088     3.959270     3.953451     3.947633
      3.941814     3.935995     3.930177     3.924358     3.918540     3.912721     3.906902     3.901084     3.895265     3.889446
      3.883628     3.877809     3.871991     3.866172     3.860353     3.854535     3.848716     3.842898     3.837079     3.831260
      3.825442     3.819623     3.813805     3.807986     3.802167     3.796349     3.790530     3.784712     3.778893     3.773074
      3.767256     3.761437     3.755619     3.749800     3.743981     3.738163     3.732344     3.726526     3.720707     3.714888
      3.709070     3.703251     3.697433     3.691614     3.685795     3.679977     3.674158     3.668339     3.662521     3.656702
      3.650884     3.645065     3.639246     3.633428     3.627609     3.621791     3.615972     3.610153     3.604335     3.598516
      3.592698     3.586879     3.581060     3.575242     3.569423     3.563605     3.557786     3.551967     3.546149     3.540330
      3.534512     3.528693     3.522874     3.517056     3.511237     3.505419     3.499600     3.493781     3.487963     3.482144
      3.476326     3.470507     3.464688     3.458870     3.453051     3.447232     3.441414     3.435595     3.429777     3.423958
      3.418139     3.412321     3.406502     3.400684     3.394865     3.389046     3.383228     3.377409     3.371591     3.365772
      3.359953     3.354135     3.348316     3.342498     3.336679     3.330860     3.325042     3.319223     3.313405     3.307586
      3.301767     3.295949     3.290130     3.284312     3.278493     3.272674     3.266856     3.261037     3.255219     3.249400
      3.243581     3.237763     3.231944     3.226125     3.220307     3.214488     3.208670     3.202851     3.197032     3.191214
      3.185395     3.179577     3.173758     3.167939     3.162121     3.156302     3.150484     3.144665     3.138846     3.133028
      3.127209     3.121391     3.115572     3.109753     3.103935     3.098116     3.092298     3.086479     3.080660     3.074842
      3.069023     3.063205     3.057386     3.051567     3.045749     3.039930     3.034111     3.028293     3.022474     3.016656
      3.010837     3.005018     2.999200     2.993381     2.987563     2.981744     2.975925     2.970107     2.964288     2.958470
      2.952651     2.946832     2.941014     2.935195     2.929377     2.923558     2.917739     2.911921     2.906102     2.900284
      2.894465     2.888646     2.882828     2.877009     2.871191     2.865372     2.859553     2.853735     2.847916     2.842098
      2.836279     2.830460     2.824642     2.818823     2.813004     2.807186     2.801367     2.795549     2.789730     2.783911
      2.778093     2.772274     2.766456     2.760637     2.754818     2.749000     2.743181     2.737363     2.731544     2.725725
      2.719907     2.714088     2.708270     2.702451     2.696632     2.690814     2.684995     2.679177     2.673358     2.667539
      2.661721     2.655902     2.650084     2.644265     2.638446     2.632628     2.626809     2.620991     2.615172     2.609353
      2.603535     2.597716     2.591897     2.586079     2.580260     2.574442     2.568623     2.562804     2.556986     2.551167
      2.545349     2.539530     2.533711     2.527893     2.522074     2.516256     2.510437     2.504618     2.498800     2.492981
      2.487163     2.481344     2.475525     2.469707     2.463888     2.458070     2.452251     2.446432     2.440614     2.434795
      2.428977     2.423158     2.417339     2.411521     2.405702     2.399884     2.394065     2.388246     2.382428     2.376609
      2.370790     2.364972     2.359153     2.353335     2.347516     2.341697     2.335879     2.330060     2.324242     2.318423
      2.312604     2.306786     2.300967     2.295149     2.289330     2.283511     2.277693     2.271874     2.266056     2.260237
      2.254418     2.248600     2.242781     2.236963     2.231144     2.225325     2.219507     2.213688     2.207870     2.202051
      2.196232     2.190414     2.184595     2.178777     2.172958     2.167139     2.161321     2.155502     2.149683     2.143865
      2.138046     2.132228     2.126409     2.120590     2.114772     2.108953     2.103135     2.097316     2.091497     2.085679
      2.079860     2.074042     2.068223     2.062404     2.056586     2.050767     2.044949     2.039130     2.033311     2.027493
      2.021674     2.015856     2.010037     2.004218     1.998400     1.992581     1.986763     1.980944     1.975126     1.969307
      1.963489     1.957670     1.951852     1.946033     1.940215     1.934397     1.928578     1.922760     1.916941     1.911123
      1.905304     1.899486     1.893667     1.887849     1.882030     1.876212     1.870393     1.864575     1.858756     1.852938
      1.847119     1.841301     1.835482     1.829664     1.823845     1.818027     1.812208     1.806390     1.800571     1.794753
      1.788934     1.783116     1.777297     1.771479     1.765660     1.759842     1.754023     1.748205     1.742386     1.736568
      1.730749     1.724931     1.719113     1.713294     1.707476     1.701657     1.695839     1.690020     1.684202     1.678383
      1.672565     1.666746     1.660928     1.655109     1.649291     1.643472     1.637654     1.631835     1.626017     1.620198
      1.614380     1.608561     1.602743     1.596924     1.591106     1.585287     1.579469     1.573650     1.567832     1.562013
      1.556195     1.550376     1.544558     1.538739     1.532921     1.527102     1.521284     1.515465     1.509647     1.503829
      1.498010     1.492192     1.486373     1.480555     1.474736     1.468918     1.463099     1.457281     1.451462     1.445644
      1.439825     1.434007     1.428188     1.422370     1.416551     1.410733     1.404914     1.399096     1.393277     1.387459
      1.381640     1.375822     1.370003     1.364185     1.358366     1.352548     1.346729     1.340911     1.335092     1.329274
      1.323455     1.317637     1.311818     1.306000     1.300182     1.294363     1.288545     1.282726     1.276908     1.271089
      1.265271     1.259452     1.253634     1.247815     1.241997     1.236178     1.230360     1.224541     1.218723     1.212904
      1.207086     1.201267     1.195449     1.189630     1.183812     1.177993     1.172175     1.166356     1.160538     1.154719
      1.148901     1.143082     1.137264     1.131445     1.125627     1.119808     1.113990     1.108171     1.102353     1.096534
      1.090716     1.084898     1.079079     1.073261     1.067442     1.061624     1.055805     1.049987     1.044168     1.038350
      1.032531     1.026713     1.020894     1.015076     1.009257     1.003439     0.997620     0.991802     0.985983     0.980165
      0.974346     0.968528     0.962709     0.956891     0.951072     0.945254     0.939435     0.933617     0.927798     0.921980
      0.916161     0.910343     0.904524     0.898706     0.892887     0.887069     0.881251     0.875432     0.869614     0.863795
      0.857977     0.852158     0.846340     0.840521     0.834703     0.828884     0.823066     0.817247     0.811429     0.805610
      0.799792     0.793973     0.788155     0.782336     0.776518     0.770699     0.764881     0.759062     0.753244     0.747425
      0.741607     0.735788     0.729970     0.724151     0.718333     0.712514     0.706696     0.700877     0.695059     0.689240
      0.683422     0.677603     0.671785     0.665967     0.660148     0.654330     0.648511     0.642693     0.636874     0.631056
      0.625237     0.619419     0.613600     0.607782     0.601963     0.596145     0.590326     0.584508     0.578689     0.572871
      0.567052     0.561234     0.555415     0.549597     0.543778     0.537960     0.532141     0.526323     0.520504     0.514686
      0.508867     0.503049     0.497230     0.491412     0.485593     0.479775     0.473956     0.468138     0.462319     0.456501
      0.450682     0.444864     0.439045     0.433227     0.427408     0.421590     0.415771     0.409953     0.404134     0.398316
      0.392497     0.386679     0.380860     0.375042     0.369223     0.363405     0.357586     0.351767     0.345949     0.340130
      0.334312     0.328493     0.322675     0.316856     0.311038     0.305219     0.299401     0.293582     0.287764     0.281945
      0.276127     0.270308     0.264490     0.258671     0.252853     0.247034     0.241216     0.235397     0.229579     0.223760
      0.217942     0.212123     0.206305     0.200486
 NY phased data points follow
   3.51282E-02  2.16678E-01 -3.61672E-01 -4.34030E-01 -3.90077E-01 -3.80256E-01 -9.54875E-01 -6.41944E-01  3.36624E-01 -4.00411E-01
   9.48618E-02  9.59575E-03 -1.75024E-01  5.91596E-02 -6.80040E-02 -2.31591E-01 -7.76767E-02  1.36497E-01  1.19904E-01  4.44945E-01
   4.67653E-01  1.10158E-01  2.50517E-01  5.85375E-01  6.79797E-02  3.00360E-02 -1.47452E-01  6.08582E-02  4.16964E-01 -8.78366E-02
  -3.79588E-01 -1.44846E-01  1.73482E-01  2.12975E-01 -3.37154E-01 -3.15647E-01  5.18294E-01 -2.72517E-01  1.37935E-02  2.74455E-02
  -3.93687E-01  4.08859E-01  7.87878E-02 -1.02489E-01  1.86572E-01  1.11848E-01  1.08302E-01  3.35198E-01 -2.18937E-02  1.47234E-02
  -4.49854E-01 -4.32188E-01  4.52990E-01 -7.50981E-02  1.34440E-01  7.70519E-01  2.37519E-02 -5.05472E-01 -1.83550E-01 -7.90237E-01
  -4.84977E-01  2.95036E-01  1.33613E-01 -1.82695E-01 -1.85394E-01  2.44518E-01 -6.25909E-01 -2.39428E-01  5.60819E-01  2.43095E-01
   6.88180E-01  4.38853E-02 -2.98943E-01  4.38915E-01  2.89428E-02 -2.64187E-01 -1.33419E-01 -7.83738E-01 -2.76377E-01 -1.38950E-01
  -3.63414E-01  3.47902E-01 -3.36194E-01  1.60380E-01  5.83831E-03 -1.53574E-01  8.68748E-01 -2.47027E-01  4.33331E-03  1.36524E-01
   7.23877E-03  2.86773E-01  1.12047E-01  4.50203E-01  2.97150E-01  3.26851E-01 -2.13900E-01 -1.80963E-01 -3.53739E-02 -6.29190E-01
  -1.11621E+00 -6.37960E-01  4.47285E-01  1.64086E-01  5.38718E-01  5.49712E-01  4.55615E-01  5.19854E-01  1.66503E-01  5.18159E-01
   3.54248E-01  6.54325E-01  4.48462E-01  3.96235E-01  1.80030E-01 -2.96327E-01  5.32207E-01  2.11859E-01  3.82754E-01  6.19245E-01
   3.28055E-01  6.95414E-01  2.69187E-01 -8.03035E-02  4.87918E-01  3.19766E-01 -4.06386E-01 -2.28399E-01 -4.78851E-01 -6.93663E-01
  -3.44234E-01 -6.98669E-01 -8.96575E-01 -8.31638E-01 -5.34021E-01  5.31064E-02 -6.70980E-01 -5.03140E-01 -8.90694E-02 -6.52565E-01
   9.78245E-03 -1.94868E-02  7.70521E-02  2.37847E-01 -2.37320E-01 -3.26413E-01  4.24500E-01  3.41653E-01 -2.02064E-01 -1.64208E-02
  -2.49330E-01  5.00188E-01  3.54690E-01  1.35994E-01 -2.39393E-01 -3.29075E-01  1.01315E-01 -2.43412E-01  4.12961E-01  3.06682E-01
   2.50246E-01 -2.25712E-01 -3.81195E-01  7.07359E-01  4.96578E-01  2.93525E-01  8.14656E-01 -4.21397E-02 -6.52868E-01 -4.74977E-01
  -2.44516E-01  5.17060E-02 -3.91334E-01 -1.40917E-01 -4.29335E-01 -3.24964E-01 -3.32755E-02 -5.91223E-02  1.82052E-02 -3.41778E-01
   1.34059E-02 -1.89273E-01 -2.84301E-01 -1.12957E-02 -1.55644E-01 -6.95174E-01 -7.67313E-01 -2.72672E-01 -4.19458E-01 -5.43712E-01
   7.77561E-01  2.29594E-01 -8.97888E-01  2.39485E-01  1.06781E-01  1.48942E-01 -4.96024E-02 -7.23191E-01 -4.02382E-01 -1.17151E-01
   1.61834E-02  2.24543E-01  2.74014E-01  1.73733E-01  3.81702E-02  2.92990E-02  3.70828E-01  1.57998E-01  6.28869E-01  6.96417E-01
   2.04603E-01  1.88235E-01  1.18813E-01  2.70101E-02 -1.64991E-02 -2.49732E-01 -1.91800E-01  1.73943E-01 -6.90269E-01 -4.20854E-01
   3.92108E-01  2.55493E-01  2.47491E-01  4.30773E-01  4.66443E-01  1.88936E-01 -2.72100E-01 -7.84803E-01 -4.45559E-01  3.53603E-01
   4.43818E-01  1.04189E-02  5.02755E-03  1.68861E-01  1.94927E-01 -6.55131E-01 -8.86845E-02 -2.48244E-01 -4.06100E-01  8.30070E-01
   3.70355E-01  9.93203E-01  1.58778E-01  2.19857E-01  5.07547E-01 -9.99933E-02 -5.37014E-02 -8.61334E-01 -1.39815E-01 -1.33990E-01
   3.25751E-01 -4.80026E-02 -4.07689E-01 -9.26659E-02 -2.69616E-01  2.68465E-01 -2.15999E-01 -4.85003E-01 -5.90070E-01  9.03785E-02
   3.99157E-01  3.73195E-02 -2.82062E-01  2.68631E-02  6.83075E-01  1.92653E-02  1.91762E-01  1.36266E-01 -1.42590E-01  1.18519E-01
   1.90476E-01  1.32938E-01 -7.94044E-02  9.50309E-02 -8.46725E-02  3.93064E-01  1.74493E-01 -4.56459E-01  2.29499E-04 -8.76826E-02
   2.03627E-01 -1.34495E-02  9.73911E-02 -4.79440E-01 -3.28146E-01  7.90549E-01  1.24977E-02  4.90469E-01  2.86993E-01  1.87928E-01
   4.68809E-01 -1.59265E-01  3.80978E-01  9.01278E-01  8.60447E-02 -2.91183E-01 -2.05090E-02  2.11133E-01  1.56004E-01 -6.75493E-01
   7.62056E-02  8.26197E-02  7.96203E-02  1.50321E-01  1.67052E-01  3.38346E-01  1.39410E-01  4.80171E-01 -3.55990E-01  4.28350E-02
  -4.76164E-02  1.62264E-02 -1.63903E-01 -2.27465E-02  5.02708E-01 -5.10481E-01 -6.96040E-02  1.36752E-01  1.01323E-01 -2.08841E-01
  -2.09712E-01 -2.10702E-01 -3.09150E-01 -2.73331E-01 -1.99894E-01  5.74300E-02 -3.06072E-01 -1.94037E-01  2.97290E-01  2.25765E-01
  -1.58614E-01  3.13748E-01 -2.43599E-01 -4.27222E-01  1.45684E-01 -2.92485E-01 -2.37651E-01  4.39034E-02 -1.33661E-01 -5.84614E-01
  -2.48705E-02 -1.20107E-01 -1.67108E+00 -1.70809E+00 -8.33527E-01 -7.46147E-02 -4.35207E-02 -1.42248E-01  2.28211E-01 -3.47108E-01
   4.88337E-02 -2.68016E-03  1.68717E-01  9.48792E-01  1.94090E-01 -2.89034E-01  1.38120E-02 -9.50817E-02 -3.99785E-01  4.61047E-01
   2.05768E-01  1.32713E-01  1.90333E-01 -2.00413E-01 -5.80627E-02  1.04857E-02 -8.70075E-02 -4.97575E-01 -2.92929E-02  2.17096E-01
  -2.10240E-02 -8.82345E-02  3.90329E-01 -3.69769E-02  3.30904E-02  1.86162E-01  1.73624E-01  7.43026E-01  2.91335E-01 -2.63684E-01
  -4.03832E-01  3.27766E-01  2.65622E-01  2.17763E-01 -2.30077E-01  1.48444E-01  5.52002E-01 -6.54146E-02  1.09002E-01  1.12761E-01
   4.48083E-01  1.06711E-01  1.94906E-01  1.70011E-01  3.16050E-01  4.96683E-01  4.82726E-01  5.58659E-02 -1.21427E-01  6.60299E-01
  -2.16590E-01  9.38416E-02  3.71732E-01 -3.08064E-01 -2.01849E-02  2.59977E-02 -2.08566E-01 -4.81036E-01 -4.53923E-02  1.12242E-01
  -2.89776E-01 -8.23175E-03  2.50146E-01  1.02207E-01 -1.52127E-01  3.36065E-01  3.26010E-01 -2.88909E-01  1.60941E-01  7.40495E-02
   2.55494E-02  2.83272E-01  1.26390E-01 -3.03686E-01 -4.74122E-01 -2.87450E-01 -8.17007E-02  6.39274E-02 -1.61879E-02 -1.45136E-01
  -3.65920E-01  1.26547E-02 -3.38456E-01 -5.05361E-01  1.05477E-01 -1.09155E-01 -4.96403E-02  5.39184E-02 -3.83599E-01 -1.05074E-01
   7.61081E-02 -3.05578E-01 -4.26318E-02  2.85160E-01  8.70677E-02 -1.62511E-02  4.85739E-01 -5.08813E-03  2.24980E-01  1.99087E-01
  -3.35041E-01  1.34210E-01 -7.86655E-01 -2.13658E-01  3.05925E-01 -2.23647E-01 -1.12479E-01 -4.64595E-02  3.13263E-02  1.22178E-03
  -1.08624E-01 -3.99123E-01  4.99447E-01  5.51369E-01  3.20143E-01  6.23748E-02 -3.89130E-01  2.36768E-01 -3.00075E-02  1.84849E-01
   4.97314E-01 -4.44401E-01 -3.03632E-01  1.72796E-01 -9.90203E-02  2.58972E-01 -3.18028E-01 -4.33274E-01 -3.25244E-01 -4.90534E-01
   9.67778E-02 -1.53431E-01 -1.67714E-01 -3.34116E-01  2.97505E-01  2.86042E-01 -1.05724E-01  4.05623E-01  4.50411E-01 -8.86873E-02
   2.85845E-03  3.00917E-01 -5.22980E-01 -2.51321E-01 -5.78142E-01  3.12317E-01  4.82226E-01 -3.49892E-01  3.92464E-01 -9.84591E-02
  -1.12015E-01  3.54018E-02 -2.64681E-03  1.07332E-01  4.25471E-01  4.37884E-01  2.34390E-02 -3.07464E-01  2.26794E-01  1.59990E-03
  -1.52132E-01  5.15909E-01 -2.99667E-01 -1.73500E-01 -1.64805E-01 -2.65095E-01  9.22634E-02 -1.11095E-01  1.66754E-01  1.57931E-01
   8.71145E-02  4.42510E-01 -4.39846E-01 -2.75931E-01 -6.44185E-02 -1.52190E-01  1.69317E-01 -5.04048E-01  2.63026E-01 -1.02113E-01
  -3.07009E-01  7.55349E-02  5.24318E-01  2.75587E-01 -6.13898E-01 -2.64367E-01 -3.84262E-01 -6.29166E-02  3.14451E-01  2.47817E-01
  -3.01723E-01  2.47611E-01 -5.40362E-02 -5.43515E-02  4.42110E-01  6.09085E-02  8.49669E-02 -1.02344E-01  1.96455E-01 -2.49336E-01
   1.01229E-01  1.66200E-01 -4.33774E-02  3.60461E-02 -1.28147E-01  7.71436E-02  5.89250E-02 -9.23835E-02 -2.84328E-01  6.62125E-02
  -7.62220E-02  1.51365E-01  4.57137E-01 -2.48465E-01 -2.09245E-01 -2.85745E-01 -3.37304E-02  5.31145E-01 -1.79726E-01  1.87008E-01
   1.42396E-01 -1.31764E-01  2.86620E-02  3.55617E-01  4.06237E-01 -3.38052E-01 -1.88295E-01  5.48568E-03  1.55415E-01 -3.97512E-01
   1.19249E-01  1.71892E-01  1.16957E-01 -2.64773E-01 -6.79671E-01  1.18880E-01 -4.42021E-01 -1.05654E-01  1.47523E-02  8.17669E-02
   1.35877E-01  1.98436E-01  1.04887E-01 -1.48357E-01 -3.19178E-01 -1.95441E-01  2.11971E-01 -1.06513E-01  2.18004E-01 -1.59045E-01
  -4.50729E-01  1.95991E-02  6.00900E-01  2.25886E-02 -4.02143E-01 -2.66021E-01 -8.18549E-01 -1.68597E-01  5.56928E-01 -1.88331E-01
  -1.00044E-01  4.11908E-01 -2.20335E-01  1.30252E-01  7.65890E-02 -1.23518E-01  7.26826E-02 -2.30854E-01  2.43278E-02  2.86202E-01
  -3.67729E-01 -1.59540E-01  2.96153E-01 -2.44320E-01 -4.97172E-02  8.27299E-02 -1.65880E-01 -9.53441E-02  2.74731E-01  5.95269E-02
   3.38624E-03  1.91493E-02  1.25170E-01  2.37974E-02  5.09872E-02  5.27648E-01  2.46301E-01  1.48221E-01 -1.00299E-01  1.58677E-01
   2.68690E-01  2.20543E-01  2.50949E-02 -3.00405E-01 -2.31770E-01 -2.74347E-02  2.45775E-01 -2.37369E-01 -5.26811E-02 -3.91853E-03
   8.32488E-02  4.90795E-01  2.79748E-01  9.34396E-01
 NY points of the fit to the data follow
  -9.84869E-03 -9.65347E-03 -1.11355E-02 -1.31066E-02 -1.44361E-02 -1.47776E-02 -1.91293E-02 -2.08886E-02  7.54102E-03  3.34947E-02
   5.20536E-02  1.35512E-01  2.35793E-01  2.13475E-01  1.40822E-01  1.51718E-01  1.80327E-01  1.45660E-01  8.16590E-02  3.94569E-02
   1.92653E-02  1.10373E-02  2.66941E-03 -8.72609E-03 -1.97954E-02 -2.77497E-02 -3.37029E-02 -3.75328E-02 -3.93714E-02 -4.18527E-02
  -4.58617E-02 -4.97341E-02 -5.43428E-02 -6.35229E-02 -7.62241E-02 -9.64866E-02 -1.05511E-01 -1.10155E-01 -1.09824E-01 -7.29963E-02
  -2.40624E-03  6.13675E-02  1.13725E-01  1.67492E-01  2.06348E-01  2.20170E-01  1.89779E-01  1.33705E-01  8.27515E-02  4.89825E-02
   2.69370E-02  7.24871E-03 -8.87972E-03 -2.35113E-02 -4.04416E-02 -6.19110E-02 -8.62304E-02 -1.11051E-01 -1.40462E-01 -1.87333E-01
  -2.01252E-01 -1.96214E-01 -2.57768E-01 -2.47877E-01 -1.55958E-01 -1.70501E-01 -1.55022E-01  3.93306E-02  1.72064E-01  2.03905E-01
   2.71467E-01  2.88381E-01  2.34365E-01  1.64510E-01  1.04431E-01  6.15612E-02 -6.31473E-03 -1.05682E-01 -1.62854E-01 -2.55417E-01
  -4.09775E-01 -3.76815E-01 -1.49253E-01 -7.42004E-03  7.79222E-02  2.32689E-01  3.30315E-01  3.19397E-01  2.65846E-01  2.10866E-01
   1.69097E-01  1.37105E-01  1.08520E-01  8.62220E-02  2.70438E-02 -1.97325E-02 -1.41474E-01 -3.10147E-01 -4.88986E-01 -6.57579E-01
  -7.21364E-01 -5.62841E-01 -2.73992E-01  2.18576E-02  2.84672E-01  3.65725E-01  3.63143E-01  3.33102E-01  3.10028E-01  2.94258E-01
   2.81967E-01  2.71191E-01  2.61858E-01  2.53942E-01  2.47373E-01  2.41982E-01  2.37686E-01  2.35000E-01  2.39790E-01  2.26652E-01
   2.09659E-01  2.17859E-01  1.60697E-01  7.85958E-02  8.00354E-02  3.51741E-02 -8.53245E-02 -1.69937E-01 -2.98453E-01 -5.40267E-01
  -7.42365E-01 -7.76426E-01 -7.28704E-01 -5.82505E-01 -3.51185E-01 -3.35488E-01 -5.96080E-01 -6.37398E-01 -3.85437E-01 -1.74072E-01
  -5.71285E-02 -1.32629E-02  1.04875E-02  2.81184E-02  4.15994E-02  5.23727E-02  6.13483E-02  6.90936E-02  7.60039E-02  8.23722E-02
   8.84176E-02  9.43411E-02  1.00305E-01  1.06463E-01  1.13004E-01  1.20131E-01  1.28056E-01  1.37068E-01  1.47508E-01  1.59713E-01
   1.73918E-01  1.94278E-01  2.66856E-01  3.31275E-01  3.33006E-01  3.64943E-01  3.46156E-01  5.84972E-02 -3.28486E-01 -4.70563E-01
  -3.91270E-01 -2.68509E-01 -1.87491E-01 -1.44964E-01 -1.20252E-01 -1.03011E-01 -8.45440E-02 -6.75899E-02 -5.92552E-02 -5.83813E-02
  -5.36070E-02 -4.32875E-02 -3.64483E-02 -3.43121E-02 -3.47296E-02 -3.59628E-02 -3.51148E-02 -3.24353E-02 -3.01996E-02 -2.89960E-02
  -2.72469E-02 -2.42982E-02 -2.12279E-02 -1.85049E-02 -1.61982E-02 -1.41492E-02 -1.23081E-02 -1.07846E-02 -8.00408E-03 -3.97838E-03
  -1.06765E-03  2.76282E-03  8.06351E-03  9.78911E-03  5.68000E-03  7.52155E-04  2.77269E-03  1.13161E-02  1.27940E-02  1.48672E-03
  -1.04227E-02 -1.52539E-02 -1.49981E-02 -1.24553E-02 -8.83164E-03 -5.40491E-03 -1.52838E-03  5.02220E-03  8.75602E-03  4.40158E-03
  -3.87935E-03  9.89124E-03  4.36313E-02  6.24972E-02  9.39371E-02  1.79785E-01  2.38656E-01  1.97942E-01  1.48349E-01  1.79925E-01
   2.33166E-01  2.09431E-01  1.18754E-01  3.77780E-02 -4.25026E-03 -2.28782E-02 -3.06476E-02 -3.55427E-02 -3.91334E-02 -4.22006E-02
  -4.53141E-02 -4.78716E-02 -5.04583E-02 -5.21379E-02 -5.41494E-02 -5.60452E-02 -5.83866E-02 -5.96819E-02 -5.99172E-02 -6.29730E-02
  -6.52094E-02 -6.97677E-02 -8.31759E-02 -8.32509E-02 -8.41985E-02 -8.81777E-02 -5.02275E-02  2.16544E-02  5.38879E-02  5.11888E-02
   9.22442E-02  1.43540E-01  1.26260E-01  9.03470E-02  1.07956E-01  1.23729E-01  1.07021E-01  9.48519E-02  9.18389E-02  1.01904E-01
   1.04125E-01  8.95134E-02  6.98065E-02  4.23834E-02  1.93751E-02 -2.89860E-03 -2.26493E-02 -4.63120E-02 -7.44664E-02 -1.01261E-01
  -1.41237E-01 -1.80980E-01 -1.92508E-01 -1.81863E-01 -1.30651E-01 -1.77868E-02  1.07246E-01  2.06326E-01  2.70149E-01  2.71582E-01
   2.28055E-01  1.84354E-01  1.53481E-01  1.34908E-01  1.22775E-01  1.18108E-01  1.16473E-01  1.12784E-01  1.08428E-01  1.00180E-01
   9.07910E-02  8.18327E-02  7.38782E-02  6.66229E-02  6.00454E-02  5.15247E-02  4.31030E-02  3.44011E-02  1.97779E-02  6.65519E-03
  -4.00912E-03 -1.43200E-02 -2.06512E-02 -2.09545E-02 -2.76920E-02 -3.67184E-02 -5.09647E-02 -7.98184E-02 -1.17415E-01 -1.53186E-01
  -1.80998E-01 -1.95888E-01 -1.92988E-01 -1.74154E-01 -1.40233E-01 -9.32677E-02 -3.94316E-02  4.45654E-03  3.64164E-02  4.47521E-02
   3.72797E-02  1.26555E-02 -2.90563E-02 -8.25942E-02 -1.15157E-01 -1.41037E-01 -1.71052E-01 -8.39377E-02 -1.59195E-01 -2.97211E-01
  -3.03437E-01 -6.66783E-01 -1.39057E+00 -1.45450E+00 -8.18975E-01 -3.24475E-01 -8.95332E-02 -3.06717E-02 -1.19136E-02  9.94386E-04
   9.79540E-03  1.58566E-02  2.02590E-02  2.38082E-02  2.64429E-02  2.90356E-02  3.08160E-02  3.12859E-02  3.03920E-02  2.65385E-02
   1.97862E-02  1.18108E-02  3.54110E-03 -3.71932E-03 -7.58979E-03 -9.03514E-03 -8.42218E-03 -5.75193E-03 -1.74470E-03  2.62066E-03
   5.85401E-03  8.41521E-03  1.06181E-02  1.21529E-02  1.31345E-02  1.37065E-02  1.40629E-02  1.42862E-02  1.44183E-02  1.44783E-02
   1.44709E-02  1.44140E-02  1.43220E-02  1.42090E-02  1.40751E-02  1.39151E-02  1.37200E-02  1.35029E-02  1.32793E-02  1.30624E-02
   1.28495E-02  1.26279E-02  1.23923E-02  1.21354E-02  1.18522E-02  1.15387E-02  1.12174E-02  1.08966E-02  1.05671E-02  1.02258E-02
   9.86351E-03  9.48479E-03  9.10846E-03  8.73626E-03  8.35210E-03  7.96536E-03  7.59876E-03  7.24038E-03  6.86547E-03  6.48484E-03
   6.11540E-03  5.74580E-03  5.38101E-03  5.02849E-03  4.68011E-03  4.33279E-03  3.98383E-03  3.62762E-03  3.26303E-03  2.90093E-03
   2.55407E-03  2.20573E-03  1.84298E-03  1.48848E-03  1.15210E-03  8.12656E-04  4.81454E-04  1.64609E-04 -1.63236E-04 -5.00247E-04
  -8.35360E-04 -1.19164E-03 -1.59042E-03 -2.00293E-03 -2.40253E-03 -2.78175E-03 -3.16289E-03 -3.57120E-03 -4.02000E-03 -4.49478E-03
  -4.97086E-03 -5.45665E-03 -5.96517E-03 -6.50913E-03 -7.10462E-03 -7.76529E-03 -8.48612E-03 -9.28481E-03 -1.01885E-02 -1.12200E-02
  -1.24174E-02 -1.38088E-02 -1.54211E-02 -1.73264E-02 -1.97664E-02 -2.47885E-02 -4.11856E-02 -3.17214E-02 -2.43795E-02 -7.67399E-03
   6.83838E-02  1.75190E-01  2.48202E-01  2.82872E-01  2.50932E-01  1.55647E-01  9.01041E-02  5.50504E-02  4.11847E-02  3.34463E-02
   2.77992E-02  2.35821E-02  2.03180E-02  1.77029E-02  1.55604E-02  1.37893E-02  1.23014E-02  1.10154E-02  9.89222E-03  8.91448E-03
   8.05024E-03  7.28081E-03  6.59992E-03  5.98754E-03  5.41200E-03  4.86586E-03  4.35104E-03  3.85919E-03  3.39131E-03  2.96570E-03
   2.57596E-03  2.19710E-03  1.82163E-03  1.44438E-03  1.07874E-03  7.36082E-04  3.94471E-04  4.56880E-05 -2.84255E-04 -5.88120E-04
  -8.75958E-04 -1.15809E-03 -1.43445E-03 -1.70035E-03 -1.96402E-03 -2.22359E-03 -2.47578E-03 -2.72235E-03 -2.95068E-03 -3.14981E-03
  -3.34468E-03 -3.55606E-03 -3.77017E-03 -3.97450E-03 -4.18019E-03 -4.39561E-03 -4.60956E-03 -4.81843E-03 -5.03651E-03 -5.26242E-03
  -5.50134E-03 -5.77683E-03 -6.07319E-03 -6.34673E-03 -6.59622E-03 -6.84055E-03 -7.07640E-03 -7.29298E-03 -7.47617E-03 -7.63370E-03
  -7.78092E-03 -7.88820E-03 -7.92784E-03 -7.93664E-03 -7.94612E-03 -7.92799E-03 -7.86303E-03 -7.78213E-03 -7.71188E-03 -7.63862E-03
  -7.56344E-03 -7.49002E-03 -7.40109E-03 -7.29393E-03 -7.17879E-03 -7.05325E-03 -6.90642E-03 -6.75357E-03 -6.60785E-03 -6.46397E-03
  -6.31180E-03 -6.16668E-03 -6.02034E-03 -5.86233E-03 -5.70763E-03 -5.56531E-03 -5.42899E-03 -5.27427E-03 -5.10934E-03 -4.96713E-03
  -4.83716E-03 -4.68743E-03 -4.53296E-03 -4.38182E-03 -4.22632E-03 -4.07554E-03 -3.92768E-03 -3.75864E-03 -3.57480E-03 -3.40605E-03
  -3.23131E-03 -3.02062E-03 -2.79487E-03 -2.56964E-03 -2.32826E-03 -2.08094E-03 -1.84537E-03 -1.60254E-03 -1.34284E-03 -1.08264E-03
  -8.14743E-04 -5.32280E-04 -2.48913E-04  4.63512E-05  3.64120E-04  6.98574E-04  1.05385E-03  1.42259E-03  1.80128E-03  2.20473E-03
   2.60327E-03  2.97855E-03  3.38490E-03  3.85249E-03  4.33736E-03  4.80644E-03  5.28684E-03  5.79896E-03  6.33002E-03  6.86556E-03
   7.42479E-03  8.02874E-03  8.66955E-03  9.31968E-03  9.97438E-03  1.06551E-02  1.13709E-02  1.21160E-02  1.28816E-02  1.36658E-02
   1.44833E-02  1.53392E-02  1.62097E-02  1.70848E-02  1.79984E-02  1.89702E-02  1.99882E-02  2.10428E-02  2.21373E-02  2.32830E-02
   2.44570E-02  2.56604E-02  2.69350E-02  2.82770E-02  2.96543E-02  3.10672E-02  3.25163E-02  3.40141E-02  3.55949E-02  3.72658E-02
   3.90147E-02  4.08161E-02  4.26709E-02  4.46126E-02  4.66477E-02  4.87826E-02  5.10229E-02  5.33543E-02  5.57833E-02  5.83533E-02
   6.10606E-02  6.38797E-02  6.68301E-02  6.99330E-02  7.32031E-02  7.66529E-02  8.02844E-02  8.41218E-02  8.81989E-02  9.25140E-02
   9.70566E-02  1.01855E-01  1.06947E-01  1.12369E-01
 NY background values follow
     4.875E-02    4.851E-02    4.826E-02    4.802E-02    4.778E-02    4.754E-02    4.730E-02    4.705E-02    4.681E-02    4.657E-02
     4.633E-02    4.609E-02    4.585E-02    4.560E-02    4.536E-02    4.512E-02    4.488E-02    4.464E-02    4.439E-02    4.415E-02
     4.391E-02    4.367E-02    4.343E-02    4.318E-02    4.294E-02    4.270E-02    4.246E-02    4.222E-02    4.198E-02    4.173E-02
     4.149E-02    4.125E-02    4.101E-02    4.076E-02    4.052E-02    4.028E-02    4.004E-02    3.980E-02    3.955E-02    3.931E-02
     3.907E-02    3.883E-02    3.859E-02    3.834E-02    3.810E-02    3.786E-02    3.762E-02    3.738E-02    3.713E-02    3.689E-02
     3.665E-02    3.641E-02    3.616E-02    3.592E-02    3.568E-02    3.544E-02    3.520E-02    3.495E-02    3.471E-02    3.447E-02
     3.423E-02    3.398E-02    3.374E-02    3.350E-02    3.326E-02    3.301E-02    3.277E-02    3.253E-02    3.229E-02    3.204E-02
