 LCModel (Version 6.3-1N) Copyright: S.W. Provencher.          Ref.: Magn. Reson. Med. 30:672-679 (1993).                
 Slice_N1@15_17  02-Jun-2023 14:37:25
 27 lines in following concentration table = NCONC+1
    Conc.  %SD /Cr+PCr  Metabolite                                         
 1.99E-06  15% 2.9E-04 Mac                                                 
 2.09E-02  34%   3.053 Cr                                                  
 3.38E-02  19%   4.947 PCr                                                 
 5.08E-02  13%   7.433 Ins                                                 
 6.87E-02   9%  10.045 NAA                                                 
 3.51E-02  17%   5.134 Tau                                                 
 1.11E-02  48%   1.631 PCho                                                
 3.82E-03 138%   0.559 GPC                                                 
 5.06E-02  15%   7.404 Glu                                                 
 2.05E-02  29%   2.998 Gln                                                 
    0.000 999%   0.000 Ala                                                 
 4.12E-03 261%   0.602 Asc                                                 
 8.88E-03  74%   1.299 Asp                                                 
 8.42E-03  42%   1.231 GABA                                                
 3.31E-03 134%   0.485 Glc                                                 
 1.04E-02  32%   1.515 GSH                                                 
 3.77E-03 156%   0.552 Lac                                                 
 1.24E-02  29%   1.807 NAAG                                                
    0.000 999%   0.000 PE                                                  
 1.50E-02  13%   2.190 GPC+PCho                                            
 8.10E-02   9%  11.852 NAA+NAAG                                            
 7.11E-02  13%  10.402 Glu+Gln                                             
 5.47E-02  11%   8.000 Cr+PCr                                              
 8.10E-02   9%  11.852 NAA+NAAG                                            
 5.47E-02  11%   8.000 Cr+PCr                                              
 7.11E-02  13%  10.402 Glu+Gln                                             
   6 lines in following misc. output table
  FWHM = 0.017 ppm    S/N =   6                                            
  Data shift = 0.017 ppm                                                   
  Ph: -70 deg     -22.7 deg/ppm                                            
  alphaB,S = 5.2E-01,   5.0E+00                                            
   18 spline knots.   Ns = 5(1)                                            
  ( 4) 3 infls.   ( 2) 1 extrs.                                            
  654 points on ppm-axis = NY
      4.000000     3.994181     3.988363     3.982544     3.976726     3.970907     3.965088     3.959270     3.953451     3.947633
      3.941814     3.935995     3.930177     3.924358     3.918540     3.912721     3.906902     3.901084     3.895265     3.889446
      3.883628     3.877809     3.871991     3.866172     3.860353     3.854535     3.848716     3.842898     3.837079     3.831260
      3.825442     3.819623     3.813805     3.807986     3.802167     3.796349     3.790530     3.784712     3.778893     3.773074
      3.767256     3.761437     3.755619     3.749800     3.743981     3.738163     3.732344     3.726526     3.720707     3.714888
      3.709070     3.703251     3.697433     3.691614     3.685795     3.679977     3.674158     3.668339     3.662521     3.656702
      3.650884     3.645065     3.639246     3.633428     3.627609     3.621791     3.615972     3.610153     3.604335     3.598516
      3.592698     3.586879     3.581060     3.575242     3.569423     3.563605     3.557786     3.551967     3.546149     3.540330
      3.534512     3.528693     3.522874     3.517056     3.511237     3.505419     3.499600     3.493781     3.487963     3.482144
      3.476326     3.470507     3.464688     3.458870     3.453051     3.447232     3.441414     3.435595     3.429777     3.423958
      3.418139     3.412321     3.406502     3.400684     3.394865     3.389046     3.383228     3.377409     3.371591     3.365772
      3.359953     3.354135     3.348316     3.342498     3.336679     3.330860     3.325042     3.319223     3.313405     3.307586
      3.301767     3.295949     3.290130     3.284312     3.278493     3.272674     3.266856     3.261037     3.255219     3.249400
      3.243581     3.237763     3.231944     3.226125     3.220307     3.214488     3.208670     3.202851     3.197032     3.191214
      3.185395     3.179577     3.173758     3.167939     3.162121     3.156302     3.150484     3.144665     3.138846     3.133028
      3.127209     3.121391     3.115572     3.109753     3.103935     3.098116     3.092298     3.086479     3.080660     3.074842
      3.069023     3.063205     3.057386     3.051567     3.045749     3.039930     3.034111     3.028293     3.022474     3.016656
      3.010837     3.005018     2.999200     2.993381     2.987563     2.981744     2.975925     2.970107     2.964288     2.958470
      2.952651     2.946832     2.941014     2.935195     2.929377     2.923558     2.917739     2.911921     2.906102     2.900284
      2.894465     2.888646     2.882828     2.877009     2.871191     2.865372     2.859553     2.853735     2.847916     2.842098
      2.836279     2.830460     2.824642     2.818823     2.813004     2.807186     2.801367     2.795549     2.789730     2.783911
      2.778093     2.772274     2.766456     2.760637     2.754818     2.749000     2.743181     2.737363     2.731544     2.725725
      2.719907     2.714088     2.708270     2.702451     2.696632     2.690814     2.684995     2.679177     2.673358     2.667539
      2.661721     2.655902     2.650084     2.644265     2.638446     2.632628     2.626809     2.620991     2.615172     2.609353
      2.603535     2.597716     2.591897     2.586079     2.580260     2.574442     2.568623     2.562804     2.556986     2.551167
      2.545349     2.539530     2.533711     2.527893     2.522074     2.516256     2.510437     2.504618     2.498800     2.492981
      2.487163     2.481344     2.475525     2.469707     2.463888     2.458070     2.452251     2.446432     2.440614     2.434795
      2.428977     2.423158     2.417339     2.411521     2.405702     2.399884     2.394065     2.388246     2.382428     2.376609
      2.370790     2.364972     2.359153     2.353335     2.347516     2.341697     2.335879     2.330060     2.324242     2.318423
      2.312604     2.306786     2.300967     2.295149     2.289330     2.283511     2.277693     2.271874     2.266056     2.260237
      2.254418     2.248600     2.242781     2.236963     2.231144     2.225325     2.219507     2.213688     2.207870     2.202051
      2.196232     2.190414     2.184595     2.178777     2.172958     2.167139     2.161321     2.155502     2.149683     2.143865
      2.138046     2.132228     2.126409     2.120590     2.114772     2.108953     2.103135     2.097316     2.091497     2.085679
      2.079860     2.074042     2.068223     2.062404     2.056586     2.050767     2.044949     2.039130     2.033311     2.027493
      2.021674     2.015856     2.010037     2.004218     1.998400     1.992581     1.986763     1.980944     1.975126     1.969307
      1.963489     1.957670     1.951852     1.946033     1.940215     1.934397     1.928578     1.922760     1.916941     1.911123
      1.905304     1.899486     1.893667     1.887849     1.882030     1.876212     1.870393     1.864575     1.858756     1.852938
      1.847119     1.841301     1.835482     1.829664     1.823845     1.818027     1.812208     1.806390     1.800571     1.794753
      1.788934     1.783116     1.777297     1.771479     1.765660     1.759842     1.754023     1.748205     1.742386     1.736568
      1.730749     1.724931     1.719113     1.713294     1.707476     1.701657     1.695839     1.690020     1.684202     1.678383
      1.672565     1.666746     1.660928     1.655109     1.649291     1.643472     1.637654     1.631835     1.626017     1.620198
      1.614380     1.608561     1.602743     1.596924     1.591106     1.585287     1.579469     1.573650     1.567832     1.562013
      1.556195     1.550376     1.544558     1.538739     1.532921     1.527102     1.521284     1.515465     1.509647     1.503829
      1.498010     1.492192     1.486373     1.480555     1.474736     1.468918     1.463099     1.457281     1.451462     1.445644
      1.439825     1.434007     1.428188     1.422370     1.416551     1.410733     1.404914     1.399096     1.393277     1.387459
      1.381640     1.375822     1.370003     1.364185     1.358366     1.352548     1.346729     1.340911     1.335092     1.329274
      1.323455     1.317637     1.311818     1.306000     1.300182     1.294363     1.288545     1.282726     1.276908     1.271089
      1.265271     1.259452     1.253634     1.247815     1.241997     1.236178     1.230360     1.224541     1.218723     1.212904
      1.207086     1.201267     1.195449     1.189630     1.183812     1.177993     1.172175     1.166356     1.160538     1.154719
      1.148901     1.143082     1.137264     1.131445     1.125627     1.119808     1.113990     1.108171     1.102353     1.096534
      1.090716     1.084898     1.079079     1.073261     1.067442     1.061624     1.055805     1.049987     1.044168     1.038350
      1.032531     1.026713     1.020894     1.015076     1.009257     1.003439     0.997620     0.991802     0.985983     0.980165
      0.974346     0.968528     0.962709     0.956891     0.951072     0.945254     0.939435     0.933617     0.927798     0.921980
      0.916161     0.910343     0.904524     0.898706     0.892887     0.887069     0.881251     0.875432     0.869614     0.863795
      0.857977     0.852158     0.846340     0.840521     0.834703     0.828884     0.823066     0.817247     0.811429     0.805610
      0.799792     0.793973     0.788155     0.782336     0.776518     0.770699     0.764881     0.759062     0.753244     0.747425
      0.741607     0.735788     0.729970     0.724151     0.718333     0.712514     0.706696     0.700877     0.695059     0.689240
      0.683422     0.677603     0.671785     0.665967     0.660148     0.654330     0.648511     0.642693     0.636874     0.631056
      0.625237     0.619419     0.613600     0.607782     0.601963     0.596145     0.590326     0.584508     0.578689     0.572871
      0.567052     0.561234     0.555415     0.549597     0.543778     0.537960     0.532141     0.526323     0.520504     0.514686
      0.508867     0.503049     0.497230     0.491412     0.485593     0.479775     0.473956     0.468138     0.462319     0.456501
      0.450682     0.444864     0.439045     0.433227     0.427408     0.421590     0.415771     0.409953     0.404134     0.398316
      0.392497     0.386679     0.380860     0.375042     0.369223     0.363405     0.357586     0.351767     0.345949     0.340130
      0.334312     0.328493     0.322675     0.316856     0.311038     0.305219     0.299401     0.293582     0.287764     0.281945
      0.276127     0.270308     0.264490     0.258671     0.252853     0.247034     0.241216     0.235397     0.229579     0.223760
      0.217942     0.212123     0.206305     0.200486
 NY phased data points follow
  -8.62379E-02 -1.83851E-01 -1.35294E-01  2.00729E-02 -1.31176E-01 -3.95719E-01 -2.27181E-01 -1.54875E-01 -1.28282E-01 -1.90652E-01
   9.17076E-02  6.58356E-01  4.12413E-01  5.70520E-01  3.63605E-01  1.61237E-01  3.86191E-01 -1.19942E-01  8.30328E-02  1.45668E-01
   1.78220E-01  1.27210E-01 -2.59621E-01 -6.47854E-02 -1.43811E-01  1.55113E-02 -1.27257E-01  7.97887E-02 -6.27863E-02 -3.57372E-01
  -1.01105E-01 -4.53486E-01  1.10980E-02 -1.26062E-01 -2.75096E-01 -1.59656E-01 -1.17404E-02  5.06083E-02 -3.17131E-01  8.74284E-02
   1.95024E-01  3.24524E-01  1.54774E-01  2.11768E-01  4.75349E-01  2.08821E-01  1.20791E-01  1.74093E-01  1.20908E-01 -1.06991E-01
  -5.83813E-02  1.33731E-01 -5.69961E-02 -1.56611E-01 -1.33139E-01 -3.54034E-01 -1.33500E-01 -1.55662E-01 -2.47457E-01 -1.45829E-01
  -1.72840E-01 -1.93561E-01 -3.95883E-01 -2.41787E-01  1.96697E-02 -1.27639E-01  1.69271E-01  2.64784E-01  1.46217E-01  3.17521E-01
   6.07393E-03  1.72401E-01  2.35375E-02  2.16742E-01  1.72742E-01 -1.68662E-01 -2.37985E-04 -2.90912E-01  2.65391E-02 -1.80311E-01
  -1.78993E-01  1.51412E-01 -9.09970E-02  5.28695E-02  3.22344E-01  3.14984E-01  3.57801E-01  9.57065E-02  3.57805E-01  3.93079E-01
   9.36351E-02  4.02291E-01 -1.46500E-01  2.61245E-02 -8.32558E-02 -8.39781E-02  3.26105E-01 -1.25261E-01 -1.60277E-01  5.18565E-02
  -8.90414E-03 -7.89527E-02  2.48078E-01  2.23114E-01  3.54502E-01  3.90417E-01  3.22427E-01  3.77733E-01  2.27214E-01  6.55346E-02
   2.41956E-01  1.25422E-01  1.52718E-01  3.53980E-01 -4.66789E-03  1.71748E-01 -3.34498E-03  2.14070E-01  4.16378E-01  2.29238E-01
   3.35554E-01  7.05547E-02 -1.36293E-02 -3.00580E-02 -3.03922E-01 -2.08818E-01 -2.38980E-01 -4.61886E-01 -1.32899E-01 -3.12625E-01
  -4.27510E-01 -3.57421E-01 -3.97526E-01 -2.67815E-01 -3.72905E-01 -8.75107E-01 -1.02768E+00 -6.98186E-01 -4.00935E-01 -3.61681E-01
  -3.49722E-01  1.95757E-01  1.18268E-01  2.00560E-02  2.58625E-01  1.16377E-01  9.15839E-02  3.04195E-01  1.75335E-01  1.21456E-01
  -1.67153E-01 -2.11920E-02  1.93886E-01 -1.42725E-02  5.12457E-01  1.35208E-01  2.23744E-01  3.30314E-01  1.31409E-01  2.64184E-01
   3.56223E-01  4.44589E-01  4.03904E-01  7.45275E-01  4.35371E-01  6.00209E-01  3.94331E-01 -2.39817E-01 -7.47468E-01 -1.07525E+00
  -6.24883E-01 -7.21147E-01 -4.60629E-01 -2.63192E-01 -5.22642E-01 -1.42882E-01 -3.25984E-01 -1.54343E-01 -1.02687E-01 -4.11697E-01
  -2.64067E-02 -6.15297E-01 -2.73149E-01  1.45457E-02 -2.47622E-01 -1.63211E-01 -4.06863E-01 -2.39818E-01 -8.95871E-02 -3.99258E-02
  -2.72913E-01 -2.86251E-01 -1.84831E-01 -4.82681E-02 -3.55157E-01 -2.39797E-01 -1.51842E-01 -6.63066E-02 -8.18923E-02 -5.18931E-01
  -1.51551E-01 -2.31450E-01  1.67783E-01  2.80716E-01 -6.25548E-03 -1.47347E-01  3.96052E-02  2.16276E-01  8.71612E-02  1.33924E-01
  -1.04481E-01 -4.27144E-02 -1.25177E-01  7.95670E-02  9.17491E-02  1.01607E-01  5.26376E-02 -8.02099E-02  1.05795E-01  6.68304E-02
  -3.56755E-01 -4.02686E-01  8.78486E-02 -3.09075E-02  1.34362E-01  1.31266E-01  2.12835E-01  2.23216E-01  3.11871E-02  2.26992E-01
   2.59830E-01  1.79059E-01  5.64549E-02  1.95591E-01 -4.32944E-02  3.25608E-03 -2.29753E-02 -3.44418E-01  8.31541E-03  1.23241E-01
   1.75618E-02 -8.23878E-02 -4.18791E-02 -4.74659E-02 -1.65230E-01  7.16678E-03 -4.83972E-02 -1.21143E-02 -2.77250E-02  5.86823E-03
   1.04914E-01 -4.40926E-02 -7.76628E-02 -7.23447E-02  2.01100E-01  7.89843E-02 -3.07385E-02 -8.36580E-02  5.17901E-03  2.05500E-01
  -8.30978E-02  1.33386E-01  1.63966E-01  1.13715E-01  1.03640E-01  3.36002E-03  3.11934E-01  1.87042E-01  1.02874E-01  3.06445E-01
   3.69662E-01  1.41413E-01 -1.70638E-01  6.16694E-02 -8.89727E-02 -1.52494E-01 -3.81841E-02  3.62861E-02 -5.91387E-02 -4.84212E-01
  -5.94072E-02 -2.32151E-01 -3.72883E-01 -1.16105E-01 -8.45920E-02  1.41044E-01  3.77443E-01  3.98409E-01  1.20889E-01  2.70991E-01
   1.10864E-01  1.57563E-01  8.54357E-02  9.64238E-02  3.50172E-01  2.90745E-02  2.12345E-01  3.28354E-01  1.03795E-01  3.09850E-02
   8.44065E-02  2.75035E-01  1.86034E-01  7.50513E-02  4.39273E-01  4.42983E-01  4.09689E-01  3.87823E-01  2.09055E-01  2.71643E-01
   1.51052E-01 -3.56460E-02 -1.02584E-01 -1.26519E-01 -1.01080E-01  1.05342E-01  3.07255E-02 -8.72571E-02 -8.32813E-02 -1.37325E-01
  -2.31673E-01 -2.58329E-01 -2.77828E-02 -3.14778E-03 -1.07845E-01  1.24338E-01  9.34407E-02  1.84132E-01  4.21902E-01  2.32510E-01
   2.13483E-01 -1.12924E-01 -1.43092E-01 -2.11457E-01 -1.06390E-01 -9.86170E-02 -5.76776E-01 -5.42279E-01 -4.24749E-01 -3.57334E-01
  -4.90882E-01 -8.64383E-01 -2.14041E+00 -1.55029E+00 -3.27706E-01 -4.16214E-01  4.37689E-02 -1.44458E-02 -2.99442E-02 -1.73468E-02
  -1.03474E-01  1.05509E-01  2.60866E-01  1.51480E-01  3.21992E-01  1.87843E-01  1.04458E-02  1.40305E-01  1.90582E-02  2.31144E-01
   8.24343E-02  3.11858E-02  9.09287E-02 -1.79015E-02 -6.78816E-02 -1.95525E-01 -1.34499E-01 -1.22322E-01  2.32197E-02  1.44775E-01
  -2.38670E-02  2.04535E-01  1.18839E-01  2.36600E-01  4.06747E-01  1.34688E-01  4.01121E-01  2.72256E-01  1.43784E-01  1.39088E-01
   1.39963E-01  1.93242E-01  3.12653E-01  5.05822E-02 -2.67936E-03  1.80024E-01  2.97992E-01  5.80060E-01  2.03569E-01  3.62707E-01
   2.41937E-01  3.10694E-01  3.36011E-01  8.73424E-02  2.61615E-01  1.95218E-01  1.45695E-01  1.44860E-01  1.00995E-01 -7.46568E-02
   9.35719E-02 -9.34276E-02 -1.20207E-01 -2.28173E-01  1.03300E-01  8.93262E-02 -1.82869E-01  1.99801E-01 -4.86733E-02  7.26309E-02
  -5.40779E-02 -9.81297E-02 -3.13916E-01 -4.18061E-01 -1.73863E-01 -1.05280E-01 -3.83860E-02 -2.44314E-01 -9.40144E-02 -2.69685E-02
  -9.25745E-02 -1.70453E-01 -4.23617E-01 -3.65184E-01 -9.83544E-03 -1.03321E-01  3.34218E-02 -2.11195E-01 -5.69301E-01 -6.90720E-02
   4.24403E-02 -2.16242E-01 -2.92075E-01 -7.98829E-02 -2.49397E-01 -4.17677E-01 -2.90845E-03 -8.22391E-02 -2.56181E-01  2.79092E-01
   1.29401E-01 -2.74223E-01  2.83157E-02  1.38522E-01 -1.64926E-01 -5.40148E-02  1.19258E-01  1.24845E-01  1.46069E-01  6.87397E-02
   1.79204E-01 -3.09295E-01 -5.34451E-02  3.01089E-02 -1.19542E-01  1.59729E-02 -4.81971E-01 -4.93236E-02  1.10896E-02  7.22805E-03
  -4.60213E-02 -5.16537E-02  1.87229E-01  5.53755E-02  1.22791E-01 -1.57303E-01  8.64901E-02  1.39146E-01  1.43097E-02  1.85271E-01
   1.08957E-01  1.86063E-01  7.38837E-02 -1.22870E-01  1.48876E-02 -3.95368E-02 -1.88602E-01  3.14816E-02 -7.09088E-02  9.36230E-04
  -1.11407E-01 -1.55223E-01  1.30481E-01 -6.31480E-02  1.14145E-01  8.09034E-02 -1.34335E-02  1.03566E-01  2.37493E-02  1.92116E-02
  -5.91488E-02  8.34868E-02  2.25678E-01  1.09344E-01  2.19762E-01  1.84521E-01  1.32066E-01  1.59892E-01 -7.99692E-02 -1.78419E-01
  -9.37560E-03  8.05762E-02 -7.20846E-03  2.50232E-01 -8.04449E-02 -5.05515E-02  1.71045E-01 -1.29366E-02  3.24158E-01  2.47361E-01
   1.81786E-01 -7.70423E-02  1.10799E-02  2.96247E-01  3.08664E-01 -1.03793E-02 -1.58459E-01  1.99834E-02  8.81686E-02  1.58412E-01
  -1.82135E-01 -1.32879E-01 -1.42144E-01 -3.19200E-02 -1.25425E-01 -2.42935E-01 -2.34279E-01 -3.39628E-01 -4.22690E-01 -3.30095E-01
  -4.71889E-01 -5.31378E-01 -1.46688E-01 -4.63425E-01 -2.81289E-01 -4.60964E-01 -2.00228E-01 -5.89770E-02 -1.62135E-01 -2.09772E-01
  -2.60736E-01  1.38638E-01 -2.55587E-01  1.11294E-01 -2.20261E-01  4.09821E-03  2.28754E-01 -8.42060E-02  4.56154E-01  2.81973E-01
   2.31645E-01  1.05548E-01 -1.42083E-01  2.76977E-01  3.97450E-01 -9.07158E-02  1.73377E-01  3.05047E-02  1.53474E-01  3.42327E-01
  -1.77466E-01  5.84774E-02  4.40147E-02  1.49141E-01  3.75084E-01 -3.10956E-02  3.75206E-02  3.12961E-01  2.25764E-01  7.21317E-02
   1.76614E-01  2.90259E-01  3.55991E-03  3.06845E-01  1.74224E-02 -4.29253E-02  2.35105E-01 -1.84306E-02  1.65638E-01 -6.84160E-02
   6.45616E-02  1.76094E-01  1.69093E-01  7.53525E-02 -8.34017E-02  5.99224E-02 -1.26682E-01 -1.36441E-01  1.21075E-01  1.30728E-01
   2.04366E-02 -4.74746E-02 -1.39884E-01 -3.99245E-03  1.43300E-01  7.68227E-02  1.33938E-01  8.09719E-02 -1.61891E-01 -3.08549E-02
  -1.25428E-01 -9.11603E-02 -1.55267E-01 -1.07259E-01 -6.28934E-02 -3.53610E-01 -2.12050E-02  1.44524E-01  3.41990E-01  7.51058E-02
  -2.36600E-01  8.01089E-02  8.43982E-02  1.10072E-02  2.02589E-01 -2.03823E-02 -1.01813E-01  1.29821E-01  1.86868E-01  2.87530E-01
  -1.35214E-03 -5.49281E-02  1.16088E-01 -6.11311E-02 -2.20494E-01 -2.65273E-02 -1.25834E-01 -1.14638E-01  1.17577E-02 -8.95020E-02
  -1.16975E-01  9.27930E-02  1.20784E-01  2.59059E-01  7.06852E-02 -2.23254E-01  1.62596E-01 -2.39541E-01  1.75806E-01 -1.92175E-02
  -1.56794E-02  1.52806E-01 -5.77419E-02  8.86308E-02 -3.37472E-01  1.23454E-01 -1.34784E-01  2.49640E-01 -3.97907E-03 -1.77609E-02
   3.45738E-01  1.07080E-01  4.46965E-01  9.32702E-02
 NY points of the fit to the data follow
  -8.91076E-03 -8.63321E-03 -9.99108E-03 -1.20092E-02 -1.04845E-02 -4.20121E-03  4.74764E-03  4.25866E-02  9.23454E-02  1.23703E-01
   1.98148E-01  4.27243E-01  5.42570E-01  3.84538E-01  2.82334E-01  4.01148E-01  3.22444E-01  1.37059E-01  7.53986E-02  4.29241E-02
   1.29677E-02 -3.21047E-02 -4.20365E-02 -5.81938E-02 -7.35421E-02 -8.80799E-02 -9.96445E-02 -1.09600E-01 -1.19547E-01 -1.30604E-01
  -1.40352E-01 -1.52436E-01 -1.70811E-01 -1.93037E-01 -2.15286E-01 -2.08300E-01 -2.08338E-01 -1.79180E-01 -1.10944E-01  7.00711E-02
   1.55860E-01  1.88764E-01  2.26222E-01  2.41433E-01  2.43489E-01  1.97848E-01  1.59952E-01  9.20629E-02  5.16462E-02  2.00528E-02
  -7.29836E-03 -3.28033E-02 -5.53826E-02 -7.90092E-02 -1.04019E-01 -1.38548E-01 -1.70953E-01 -1.86735E-01 -1.98613E-01 -2.01114E-01
  -2.07154E-01 -2.26786E-01 -2.01747E-01 -1.07032E-01 -1.09371E-01 -1.28257E-01  1.08994E-01  2.04162E-01  1.73493E-01  2.68560E-01
   2.79370E-01  2.10617E-01  1.33070E-01  8.51536E-02  2.67437E-02 -5.79470E-02 -1.23369E-01 -1.62784E-01 -2.45138E-01 -3.58410E-01
  -3.03865E-01 -5.70526E-02  3.97023E-02  9.36918E-02  2.78935E-01  3.54460E-01  3.15994E-01  2.64495E-01  2.33754E-01  1.97983E-01
   1.65110E-01  1.47050E-01  1.16895E-01  8.27239E-02  3.39106E-02 -2.47400E-02 -9.77423E-02 -1.56565E-01 -1.84705E-01 -1.48688E-01
  -4.91709E-02  6.71129E-02  1.68675E-01  2.12086E-01  2.17875E-01  2.08817E-01  1.96963E-01  1.85810E-01  1.80048E-01  1.79956E-01
   1.80248E-01  1.80928E-01  1.80207E-01  1.79197E-01  1.78484E-01  1.79537E-01  1.81414E-01  1.81271E-01  1.66015E-01  1.58903E-01
   1.50403E-01  9.77131E-02  2.33786E-02 -7.79618E-03 -2.63954E-02 -1.86843E-01 -2.02171E-01 -2.49662E-01 -3.03736E-01 -3.52824E-01
  -2.77118E-01 -2.48573E-01 -2.69121E-01 -2.14876E-01 -3.89967E-01 -8.86783E-01 -1.06520E+00 -6.97491E-01 -4.03174E-01 -2.24709E-01
  -1.02629E-01 -3.83984E-03  1.29734E-02  1.16208E-02  2.77817E-02  4.66763E-02  6.46255E-02  8.09196E-02  9.60011E-02  1.09194E-01
   1.23146E-01  1.36923E-01  1.50988E-01  1.66311E-01  1.84408E-01  2.03180E-01  2.25578E-01  2.52528E-01  2.82212E-01  3.18189E-01
   3.72007E-01  4.57400E-01  5.68411E-01  5.65841E-01  5.50137E-01  5.99526E-01  5.07154E-01 -2.28042E-01 -8.74003E-01 -8.54687E-01
  -6.82636E-01 -5.64680E-01 -4.55249E-01 -3.35562E-01 -3.04921E-01 -2.83482E-01 -2.60041E-01 -2.45532E-01 -2.52648E-01 -2.40231E-01
  -2.15086E-01 -2.02306E-01 -1.98842E-01 -1.93217E-01 -1.89855E-01 -1.85896E-01 -1.76905E-01 -1.67197E-01 -1.59699E-01 -1.52911E-01
  -1.41990E-01 -1.32321E-01 -1.22963E-01 -1.14252E-01 -1.04332E-01 -9.69718E-02 -8.95849E-02 -8.05691E-02 -7.11126E-02 -6.36092E-02
  -5.74391E-02 -4.71170E-02 -3.68229E-02 -3.51815E-02 -4.34863E-02 -4.63793E-02 -3.68839E-02 -2.56027E-02 -2.93324E-02 -4.75388E-02
  -5.56652E-02 -5.29848E-02 -4.49479E-02 -3.74644E-02 -2.90170E-02 -1.69178E-02  6.57600E-04  7.26280E-03 -5.29659E-03 -1.27677E-02
   5.81545E-03  4.33470E-02  7.13788E-02  7.98569E-02  1.33441E-01  2.37341E-01  2.68041E-01  2.00838E-01  1.72540E-01  2.78162E-01
   3.25716E-01  1.93943E-01  6.94006E-02  7.38056E-03 -3.80216E-02 -6.73312E-02 -7.42592E-02 -6.85637E-02 -7.17627E-02 -7.76145E-02
  -8.34976E-02 -8.85613E-02 -8.91897E-02 -9.13437E-02 -8.97713E-02 -9.38135E-02 -9.00597E-02 -8.92424E-02 -8.94843E-02 -8.93486E-02
  -9.25674E-02 -8.94875E-02 -9.23627E-02 -8.97990E-02 -9.15253E-02 -6.74416E-02  1.66253E-02  5.76499E-02  3.36720E-02  1.00649E-01
   1.28692E-01  1.40258E-01  1.13248E-01  6.79500E-02  1.40801E-01  1.36334E-01  1.46290E-01  1.37912E-01  1.62170E-01  1.60059E-01
   1.20424E-01  1.01142E-01  5.18263E-02  2.50320E-02 -1.27281E-02 -3.78130E-02 -7.45668E-02 -1.13375E-01 -1.52669E-01 -1.95759E-01
  -2.32102E-01 -2.52746E-01 -2.22235E-01 -1.50118E-01 -5.48092E-03  1.72128E-01  2.66588E-01  3.37134E-01  3.32470E-01  2.57459E-01
   2.03014E-01  1.49697E-01  1.37310E-01  1.23432E-01  1.48736E-01  1.74510E-01  1.81523E-01  1.94181E-01  1.84081E-01  1.77358E-01
   1.66343E-01  1.59652E-01  1.49780E-01  1.42102E-01  1.31502E-01  1.16059E-01  9.94629E-02  7.35147E-02  4.39879E-02  1.23699E-02
  -5.00738E-03 -3.40792E-02 -2.85999E-02 -4.14218E-02 -5.42068E-02 -7.23285E-02 -1.13089E-01 -1.63577E-01 -2.02100E-01 -2.18606E-01
  -2.26363E-01 -2.10131E-01 -1.74065E-01 -1.28560E-01 -6.78501E-02 -1.37188E-02  3.42403E-02  7.10656E-02  7.99823E-02  7.49259E-02
   2.68204E-02 -1.49339E-02 -1.18167E-01 -1.55333E-01 -1.89259E-01 -2.66810E-01 -3.92524E-01 -3.34323E-01 -3.91785E-01 -4.31703E-01
  -4.96294E-01 -9.37047E-01 -1.89732E+00 -1.56068E+00 -6.37681E-01 -3.50247E-01 -1.08847E-01 -2.93582E-03  1.10102E-01  1.82678E-02
   1.37621E-02  2.16382E-02  3.10761E-02  3.66677E-02  4.37303E-02  4.73964E-02  4.84262E-02  4.31237E-02  3.46338E-02  1.44810E-02
  -5.64429E-03 -2.00214E-02 -3.97890E-02 -4.48626E-02 -4.76858E-02 -3.97966E-02 -2.51852E-02 -1.21820E-02  1.69494E-03  1.21860E-02
   2.34339E-02  3.29284E-02  4.18245E-02  4.79454E-02  5.12006E-02  5.50254E-02  5.83305E-02  6.22384E-02  6.61381E-02  6.92831E-02
   7.14434E-02  7.40625E-02  7.68469E-02  7.96627E-02  8.27243E-02  8.35730E-02  8.51207E-02  8.61037E-02  8.94969E-02  9.24208E-02
   9.52110E-02  9.74232E-02  9.73622E-02  9.59481E-02  9.23194E-02  8.96059E-02  8.71391E-02  8.40280E-02  8.01175E-02  7.49429E-02
   6.87407E-02  6.27927E-02  5.72095E-02  4.95056E-02  4.27240E-02  3.80849E-02  3.36233E-02  2.77243E-02  2.20593E-02  1.84970E-02
   1.40588E-02  1.04567E-02  8.01483E-03  5.28132E-03  2.53633E-03  1.05914E-04 -2.59833E-03 -5.26816E-03 -7.14047E-03 -8.09880E-03
  -8.93782E-03 -1.01316E-02 -9.39745E-03 -6.85994E-03 -5.00319E-03 -1.77274E-03  2.34107E-03  6.24377E-03  9.76314E-03  1.48170E-02
   1.82736E-02  1.88472E-02  2.12099E-02  2.54521E-02  3.25814E-02  3.97874E-02  4.70105E-02  5.31593E-02  5.99268E-02  6.82520E-02
   7.76391E-02  8.76260E-02  9.79614E-02  1.08270E-01  1.17079E-01  1.26872E-01  1.35238E-01  1.41666E-01  1.45844E-01  1.47558E-01
   1.47051E-01  1.45222E-01  1.43063E-01  1.38373E-01  1.33448E-01  1.27596E-01  1.23748E-01  1.16080E-01  1.12983E-01  1.16279E-01
   1.33416E-01  1.32236E-01  1.29644E-01  1.12669E-01  8.07258E-02  6.57895E-02  5.16631E-02  4.37786E-02  3.57738E-02  3.26947E-02
   2.94927E-02  2.60197E-02  2.32109E-02  2.14736E-02  2.20593E-02  2.44143E-02  2.65727E-02  2.95966E-02  3.35860E-02  3.74187E-02
   4.13263E-02  4.64427E-02  5.19772E-02  5.49760E-02  5.74820E-02  5.96668E-02  6.08451E-02  6.11596E-02  6.30376E-02  6.59618E-02
   6.64592E-02  6.52114E-02  6.31775E-02  6.04312E-02  5.84943E-02  5.51791E-02  5.02807E-02  4.73461E-02  4.48582E-02  4.19820E-02
   3.81380E-02  3.46474E-02  3.14978E-02  2.79512E-02  2.43618E-02  2.04285E-02  1.65505E-02  1.34785E-02  1.22065E-02  9.67297E-03
   5.30566E-03  1.15982E-03 -2.86678E-03 -8.54018E-03 -1.60718E-02 -2.38741E-02 -3.15005E-02 -4.03653E-02 -5.06357E-02 -6.30762E-02
  -7.81265E-02 -9.52881E-02 -1.10408E-01 -1.24121E-01 -1.38297E-01 -1.51392E-01 -1.62249E-01 -1.70904E-01 -1.78829E-01 -1.85884E-01
  -1.89009E-01 -1.86618E-01 -1.83629E-01 -1.81462E-01 -1.76548E-01 -1.68504E-01 -1.60438E-01 -1.53756E-01 -1.46980E-01 -1.40562E-01
  -1.34483E-01 -1.26984E-01 -1.17223E-01 -1.08538E-01 -9.92368E-02 -8.85972E-02 -7.89205E-02 -6.93476E-02 -6.08817E-02 -5.15250E-02
  -4.43723E-02 -3.66927E-02 -2.80772E-02 -2.13540E-02 -1.65302E-02 -1.15608E-02 -5.10992E-03  1.02002E-03  3.78593E-03  5.51416E-03
   1.00032E-02  1.29989E-02  1.50669E-02  1.69820E-02  1.81198E-02  1.88579E-02  2.04054E-02  2.20430E-02  2.17484E-02  2.19542E-02
   2.45888E-02  2.65247E-02  2.74496E-02  2.99503E-02  3.17271E-02  3.13667E-02  3.08293E-02  3.13510E-02  3.08701E-02  3.02651E-02
   3.07476E-02  3.01168E-02  2.96070E-02  3.04256E-02  3.03179E-02  2.99927E-02  3.05252E-02  3.10931E-02  3.20714E-02  3.05964E-02
   2.63244E-02  2.49231E-02  2.74820E-02  2.84459E-02  2.74041E-02  2.72334E-02  2.80549E-02  2.73337E-02  2.48020E-02  2.47227E-02
   2.60099E-02  2.82815E-02  2.94185E-02  2.97251E-02  3.06355E-02  3.18123E-02  3.32531E-02  3.38294E-02  3.37711E-02  3.48831E-02
   3.57612E-02  3.54050E-02  3.32778E-02  3.31320E-02  3.47803E-02  3.56957E-02  3.68159E-02  3.84058E-02  4.00937E-02  4.07339E-02
   4.04111E-02  4.21956E-02  4.62534E-02  4.75995E-02  4.84084E-02  4.75607E-02  4.50455E-02  4.49953E-02  4.62125E-02  4.82736E-02
   4.87732E-02  4.82703E-02  4.83340E-02  4.86685E-02  4.99307E-02  5.14475E-02  5.18375E-02  5.11669E-02  5.39141E-02  5.70268E-02
   5.75819E-02  5.78595E-02  5.95437E-02  6.16920E-02  6.36438E-02  6.57287E-02  6.84016E-02  7.34377E-02  7.87587E-02  8.14204E-02
   8.41531E-02  8.66227E-02  8.95147E-02  9.23013E-02
 NY background values follow
    -4.718E-03   -4.414E-03   -4.110E-03   -3.806E-03   -3.502E-03   -3.198E-03   -2.894E-03   -2.590E-03   -2.286E-03   -1.983E-03
    -1.679E-03   -1.375E-03   -1.072E-03   -7.683E-04   -4.650E-04   -1.619E-04    1.411E-04    4.438E-04    7.464E-04    1.049E-03
     1.351E-03    1.653E-03    1.954E-03    2.256E-03    2.557E-03    2.857E-03    3.158E-03    3.458E-03    3.757E-03    4.057E-03
     4.356E-03    4.654E-03    4.952E-03    5.250E-03    5.547E-03    5.844E-03    6.140E-03    6.436E-03    6.732E-03    7.026E-03
     7.321E-03    7.614E-03    7.907E-03    8.200E-03    8.492E-03    8.783E-03    9.074E-03    9.364E-03    9.653E-03    9.942E-03
     1.023E-02    1.052E-02    1.080E-02    1.109E-02    1.138E-02    1.166E-02    1.194E-02    1.223E-02    1.251E-02    1.279E-02
     1.307E-02    1.335E-02    1.363E-02    1.391E-02    1.418E-02    1.446E-02    1.474E-02    1.501E-02    1.528E-02    1.556E-02
