 
 $NMID
 ID=''
 FMTDAT='(2E13.5)'
 TRAMP=   1.00000E+0
 VOLUME=   1.00000E+0
 $END
   3.79469E+2   7.36623E+1
  -1.14034E+2   2.22789E+3
   2.94648E+3  -4.87441E+3
  -1.32049E+3  -1.08950E+3
  -2.81732E+3   1.74366E+3
   2.34061E+3   3.06699E+3
   5.77515E+2   2.32207E+3
   6.03005E+2   6.34308E+2
   2.17379E+3  -4.78289E+3
   2.66505E+3  -4.62461E+3
   1.77393E+3  -3.54184E+3
   2.35243E+3   1.55804E+3
  -3.60542E+3   4.54687E+3
  -5.74091E+3   1.07036E+3
  -3.29624E+2  -2.26285E+3
   5.71952E+3  -2.05674E+3
   4.24283E+3   1.01935E+3
  -1.00295E+3   5.78171E+2
  -3.89229E+2  -2.77166E+3
  -1.23982E+2  -5.16730E+3
   2.94359E+3  -1.38861E+3
  -1.18034E+3   5.14904E+3
  -5.20812E+3   2.25367E+3
  -2.09619E+3  -4.99740E+3
   4.37122E+3  -1.32563E+3
  -9.99121E+2   4.41286E+3
  -4.08311E+3   3.72542E+2
  -1.91557E+3  -2.01216E+3
   2.11467E+3  -4.04930E+3
   6.43302E+3   2.56060E+3
   6.21858E+3   7.26163E+3
  -2.81866E+3   4.64587E+3
  -4.65616E+3  -1.70538E+3
   1.47745E+3  -2.45848E+3
   1.04444E+3   1.23976E+3
  -1.96136E+3  -3.67564E+3
   3.72385E+3  -5.18480E+3
   7.46334E+3   1.35289E+3
   1.63848E+3   4.22425E+3
  -2.00285E+3   2.56852E+3
  -1.80779E+3   4.23928E+3
  -3.87613E+3   4.11488E+2
  -1.00376E+3  -4.79514E+3
   7.56131E+3  -3.45937E+3
   5.97273E+3  -1.01721E+3
   2.75598E+3   5.27782E+2
   1.77529E+3   3.48173E+2
  -1.51398E+3   2.00562E+3
  -3.70468E+3   8.66408E+2
  -3.05622E+3   2.57380E+2
  -4.80941E+3  -3.01598E+3
  -1.54950E+3  -4.09904E+3
   2.41729E+3   8.17486E+2
   3.34810E+2   3.75636E+3
  -1.23466E+3   2.94056E+3
  -2.42571E+3   4.04057E+3
  -4.51808E+3   7.03685E+2
  -5.82248E+3  -2.97593E+3
  -5.07770E+2  -4.50542E+3
   3.97936E+3  -6.44579E+3
   3.13270E+3  -6.42419E+2
   3.36006E+3   2.75565E+3
  -1.61817E+3   5.69351E+3
  -3.02797E+3   3.46769E+3
  -1.97843E+3   6.36616E+2
  -2.73774E+2   4.31090E+3
  -1.05958E+3   4.73367E+3
  -4.88596E+3   2.95376E+3
  -1.22766E+3   4.37914E+2
   2.30481E+3   1.53089E+3
  -1.64475E+2   3.53856E+3
  -1.88614E+3   2.28512E+3
   1.59283E+3   8.42533E+1
   1.78537E+3  -4.41397E+2
   1.41489E+3  -1.36673E+2
   1.74087E+3   7.51225E+2
  -2.27550E+3  -1.24364E+3
  -1.93031E+2  -3.45794E+3
  -3.48148E+2  -4.81665E+2
  -8.58717E+2   1.08124E+3
  -2.38214E+3   1.57100E+3
  -3.84621E+3   5.08412E+2
  -1.41326E+3  -5.50174E+2
  -7.83339E+2   2.04099E+3
  -4.66469E+3   1.24788E+3
  -4.33965E+3  -4.29537E+3
  -2.20606E+3  -3.79708E+3
   2.11711E+3  -4.85648E+3
   4.75168E+3  -2.41506E+3
   1.48078E+3   1.72964E+3
   3.08339E+3  -2.52187E+3
   2.55617E+3  -7.53779E+2
  -6.78953E+2   2.05861E+3
  -2.24918E+3   2.24173E+3
  -2.43368E+3  -3.80920E+3
   6.80603E+2  -3.68250E+3
   4.05444E+3  -1.12346E+3
   6.32323E+2   2.87625E+3
  -2.42979E+3   1.19191E+3
  -1.05875E+3  -1.58025E+3
  -5.98546E+2  -4.74629E+3
   4.86079E+3  -3.11719E+2
   1.91186E+3   4.48048E+3
  -3.25055E+3   3.80649E+3
  -3.53629E+3  -1.97274E+2
  -2.14138E+3  -6.97546E+2
  -2.61399E+3   1.54484E+3
  -2.15845E+3  -2.37143E+2
  -2.73180E+3  -3.24289E+3
   1.66503E+3  -4.24224E+3
   1.46631E+3  -1.11201E+3
   1.98410E+3   2.62790E+3
  -6.04891E+2   3.67368E+3
  -1.35180E+3   2.35111E+3
  -1.83669E+3   9.06233E+2
  -1.17251E+3   1.46245E+2
  -1.18831E+3  -8.78018E+1
   1.45236E+3  -1.05922E+3
   1.15885E+3  -1.52632E+3
   5.14137E+2   6.58972E+2
   1.09655E+2   6.32167E+2
  -1.22250E+3   2.16538E+3
  -2.53074E+3  -2.57081E+3
   2.12237E+3  -2.58929E+3
  -1.42439E+2   2.09278E+2
  -3.49709E+1  -8.27269E+2
   1.06973E+3   1.52464E+2
   3.14837E+3  -3.01899E+1
   1.00460E+3   2.75261E+3
  -9.08104E+2   1.18000E+3
  -7.55119E+2  -3.87866E+2
   2.00066E+3  -1.80622E+3
   3.27731E+3   7.07469E+2
   1.37900E+3   2.38339E+3
  -1.79233E+3   3.69989E+3
  -1.83871E+3  -1.00247E+3
  -1.98787E+3  -1.10732E+3
   8.62933E+2  -3.31811E+3
   2.24560E+3  -2.40949E+3
   1.68938E+3   3.65919E+2
   2.23233E+2  -2.32676E+2
   1.40102E+3  -2.23974E+3
   1.22901E+3   2.81214E+2
   6.55896E+2   3.06429E+3
  -4.71079E+2  -1.66065E+3
  -2.16361E+3  -2.82621E+3
   3.37100E+2  -1.50038E+3
   7.04565E+2   2.70315E+1
   2.14508E+2  -2.33971E+2
   2.22261E+2   7.78216E+1
  -2.75337E+3   3.92549E+2
  -1.50771E+3  -1.28000E+3
  -9.34664E+2  -2.24235E+3
   1.58418E+3  -3.09938E+3
   2.23501E+3  -1.33625E+3
   9.01128E+2   9.57608E+2
   2.30083E+3   1.03216E+3
   1.51152E+1   1.22534E+3
   1.67913E+3  -1.02452E+3
   1.13521E+3  -1.44770E+3
  -5.26358E+2   2.09869E+2
  -2.23869E+3  -2.79799E+2
  -1.53963E+3  -1.17126E+3
   8.62243E+2  -1.42822E+3
  -1.46607E+3  -3.33397E+1
  -1.66664E+3   1.48160E+3
  -1.74328E+3  -2.15215E+3
   2.97412E+3  -6.17376E+2
   1.94424E+3  -1.88336E+3
  -1.07233E+3   1.79195E+3
  -2.09749E+2   1.15054E+3
   2.16175E+2   2.52555E+2
  -1.13217E+3  -9.53854E+2
   3.85201E+2  -1.98540E+3
   5.59599E+2  -2.74453E+2
   1.11782E+3  -2.16568E+2
   1.25258E+3  -2.44857E+3
   2.33453E+2   1.23672E+3
  -8.32667E+2   2.53239E+3
  -1.49600E+3   2.43880E+3
  -2.20795E+3   4.39690E+2
  -9.39658E+2  -1.92581E+3
   9.36337E+2  -1.89044E+2
   1.68422E+1  -3.18768E+2
   1.69996E+3  -5.74070E+1
   1.02728E+3  -1.54066E+2
  -2.09710E+1   3.94066E+3
  -1.85370E+3  -6.89014E+0
   4.54158E+2   1.02953E+3
   1.04502E+3  -6.19395E+2
   1.86009E+3   5.67395E+2
   1.36100E+3   1.78956E+3
  -8.25421E+2   8.68941E+2
  -9.00215E+1   1.81320E+2
  -5.32050E+2   1.28412E+3
  -1.64990E+2   6.60260E+2
  -6.53854E+2   6.87499E+2
  -1.90806E+3   9.53435E+2
   1.59714E+3  -2.30276E+3
  -2.13458E+2   2.62346E+3
  -2.77684E+3   2.55021E+3
  -1.62371E+3   1.50268E+3
  -3.68450E+3  -1.09751E+3
   3.33477E+2  -1.00776E+3
   2.43794E+3   6.79763E+2
   2.66187E+2   4.24700E+2
   7.42184E+2   8.07625E+2
   1.87838E+3   3.67059E+2
   1.14903E+3   1.26324E+3
  -6.47400E+2   1.68935E+3
  -3.39187E+3  -5.57427E+2
  -2.31016E+1  -1.69969E+3
   2.86672E+3  -1.06308E+3
   1.08393E+3   7.66263E+2
   1.54547E+3   2.93720E+3
  -1.63587E+3   1.71272E+3
  -2.39617E+3  -1.27713E+3
  -2.38066E+2  -5.47176E+2
  -9.20053E+2   1.95730E+3
   7.53485E+2   1.71848E+3
  -8.01924E+2  -2.77443E+1
  -1.16414E+3   8.79206E+2
  -3.79814E+2   1.02704E+2
  -3.17343E+2   9.13916E+2
  -1.60530E+3  -1.15090E+3
   1.38793E+3  -1.08851E+3
   1.94790E+3   1.08240E+3
   2.15169E+3   1.64039E+3
  -1.25988E+3   3.14328E+3
  -5.53556E+1  -3.37964E+2
  -8.17986E+2  -2.77943E+1
  -4.16830E+2   1.45518E+3
   2.28205E+2  -8.47148E+2
  -1.72671E+3  -1.66612E+3
   3.20986E+3  -1.42472E+3
   8.69086E+2  -1.13745E+3
   1.16092E+3   3.10545E+3
  -5.97343E+2   3.29041E+3
  -1.16748E+3  -6.66468E+2
   1.28940E+3  -1.77534E+3
   1.10358E+3   1.96408E+3
  -2.63717E+2   1.05168E+3
   1.12800E+2   1.60784E+3
   1.80590E+3   7.57706E+2
  -1.16011E+3  -7.71270E+2
   1.14216E+3  -1.00733E+3
  -2.78781E+3   6.50425E+2
   4.48078E+1   3.88723E+2
   2.65140E+3  -2.85997E+3
   2.53856E+3   2.49253E+3
   3.58794E+1   1.28213E+3
  -1.19656E+3   1.23317E+3
   5.86779E+2  -1.13960E+3
  -3.58374E+2  -5.12723E+2
   6.50843E+2  -9.43204E+2
   4.81428E+2  -2.52987E+2
   2.06524E+3  -2.89144E+2
   1.17119E+3   1.17928E+3
   2.47641E+3   7.05387E+1
  -3.61934E+2   1.36823E+3
  -6.65391E+2   2.50743E+2
  -1.53191E+3  -2.01389E+2
   1.88582E+3   1.25839E+3
   2.88859E+2   5.84126E+2
   6.48371E+2   1.03319E+3
  -1.75542E+2  -7.92723E+1
   2.12036E+3   3.80688E+2
   2.27352E+2   3.42664E+3
   3.32874E+2   1.21758E+3
  -1.57935E+3  -4.35798E+2
   1.54862E+3  -1.86963E+3
   4.06117E+2  -6.52289E+2
  -2.72534E+2   8.51128E+2
   7.21357E+1  -2.75442E+2
   3.35532E+2  -4.06930E+2
   1.34218E+2   2.78869E+2
  -2.15543E+2  -1.50520E+3
   1.76986E+3  -1.45363E+3
  -2.72213E+2  -3.37568E+3
   1.69655E+2  -3.43912E+3
   1.29765E+3   8.95626E+2
   2.27457E+3  -7.82053E+1
   4.94378E+2  -3.91317E+2
   7.22883E+2  -6.33697E+2
   3.88871E+2  -1.62383E+3
   1.64378E+3   1.50454E+3
   4.60921E+2   7.34883E+2
  -7.71994E+2  -5.13507E+2
  -3.77016E+2  -1.26109E+3
   4.01586E+2  -4.26541E+2
   1.32542E+3  -4.66338E+2
  -1.39090E+2  -5.94897E+2
   1.60119E+3   7.72668E+2
   5.67403E+1  -8.35394E+2
   8.55221E+2   1.89527E+3
  -1.19005E+3   2.79601E+2
  -1.12772E+1   5.85539E+2
   1.23200E+3  -5.68592E+2
   1.84903E+3  -3.33511E+3
   3.60395E+2   1.95790E+3
   4.78411E+1   2.98587E+3
  -2.17332E+2  -1.14605E+3
   2.88087E+3  -1.21386E+3
  -1.17839E+3   8.95228E+2
  -2.38379E+3   1.37114E+3
  -4.85769E+2  -9.53467E+2
   6.86755E+2  -5.46376E+2
   2.18270E+3  -1.99845E+3
  -2.73647E+2   1.20006E+3
  -2.81126E+2   1.68051E+2
  -1.57241E+3  -6.44274E+2
   1.24453E+3  -2.62309E+2
   1.39110E+3  -6.20964E+2
   8.40884E+2   2.85659E+2
   3.64430E+2   9.72734E+2
   1.54232E+3  -1.35057E+3
  -3.45156E+2  -5.48493E+2
  -2.33761E+2  -7.09096E+2
  -1.71358E+3  -3.54078E+2
  -1.17443E+3   5.11118E+2
   6.84020E+2   1.96146E+2
   1.50760E+3  -1.31953E+2
   1.27807E+3   7.96142E+2
   1.12503E+3   1.10840E+3
  -2.09967E+3  -5.76115E+2
   1.44324E+3  -4.46044E+2
  -1.43759E+3   2.03732E+3
  -1.26000E+3   4.71833E+2
  -1.11930E+3  -1.79486E+3
   2.55952E+2  -3.10896E+2
   2.29259E+2   1.18269E+3
  -7.24022E+2   1.29859E+3
   3.00721E+2   1.41756E+3
   3.07410E+2  -1.43911E+3
   1.02998E+2   1.72379E+3
   4.13755E+2   3.45884E+2
  -7.09281E+2  -1.56315E+2
   1.24843E+3  -8.46823E+2
   1.71636E+3   1.15727E+3
  -6.11384E+2   1.91826E+3
   1.89576E+2  -5.32508E+1
   9.73129E+2  -1.20306E+3
   4.66900E+2  -1.14373E+3
  -1.63669E+3  -2.27357E+3
   1.10158E+3  -1.03248E+2
  -7.22098E+2   5.08653E+2
   4.90442E+2   6.46561E+2
   2.61274E+2  -1.57488E+2
  -3.79891E+2   8.38135E+2
  -9.49350E+2   9.69012E+2
  -7.70139E+2   1.45987E+3
   9.82765E+2  -6.07650E+2
   1.06979E+0  -7.42139E+2
  -1.03083E+3   1.68786E+3
  -1.42804E+3  -1.22295E+3
  -4.02024E+2  -6.14304E+2
  -6.76579E+2  -1.69424E+3
   2.16570E+3  -1.28857E+3
  -1.44533E+3   1.19446E+3
  -2.70481E+3  -2.21692E+3
  -2.11510E+3   5.45817E+2
   1.09873E+3   1.66229E+3
  -6.91328E+2  -9.92142E+2
  -1.52775E+2  -1.16374E+3
  -1.20463E+3  -7.84039E+2
  -6.20855E+2  -2.82820E+2
   6.63194E+2   2.12876E+3
