 
 $NMID
 ID=''
 FMTDAT='(2E13.5)'
 TRAMP=   1.00000E+0
 VOLUME=   1.00000E+0
 $END
  -1.96564E+4   8.19985E+3
  -5.48950E+4   5.98385E+3
  -5.29451E+4   1.52333E+4
  -4.88473E+4   1.38988E+4
  -5.11405E+4   1.29168E+4
  -5.05675E+4   1.50269E+4
  -4.87967E+4   1.36976E+4
  -4.98058E+4   1.25307E+4
  -4.93294E+4   1.36651E+4
  -4.82769E+4   1.26529E+4
  -4.88970E+4   1.17120E+4
  -4.85556E+4   1.24278E+4
  -4.78025E+4   1.18646E+4
  -4.83522E+4   1.10477E+4
  -4.80870E+4   1.12268E+4
  -4.73640E+4   1.07313E+4
  -4.76063E+4   1.01348E+4
  -4.73070E+4   1.01546E+4
  -4.66452E+4   9.74494E+3
  -4.67263E+4   9.22762E+3
  -4.63331E+4   9.27186E+3
  -4.56872E+4   8.99639E+3
  -4.57399E+4   8.56420E+3
  -4.54967E+4   8.48403E+3
  -4.48482E+4   8.03941E+3
  -4.46555E+4   7.64644E+3
  -4.44663E+4   7.56285E+3
  -4.38814E+4   7.02168E+3
  -4.38002E+4   6.59463E+3
  -4.34122E+4   6.44447E+3
  -4.30351E+4   6.15430E+3
  -4.27884E+4   5.84983E+3
  -4.26273E+4   5.51395E+3
  -4.21205E+4   5.22743E+3
  -4.19829E+4   4.93257E+3
  -4.16762E+4   4.77350E+3
  -4.12830E+4   4.48592E+3
  -4.10526E+4   4.14149E+3
  -4.07659E+4   4.10214E+3
  -4.03611E+4   3.87124E+3
  -4.01868E+4   3.54348E+3
  -3.99508E+4   3.26214E+3
  -3.95170E+4   2.82324E+3
  -3.92153E+4   2.59399E+3
  -3.88616E+4   2.43101E+3
  -3.84689E+4   2.22269E+3
  -3.81359E+4   1.78426E+3
  -3.78785E+4   1.61741E+3
  -3.76146E+4   1.43438E+3
  -3.72005E+4   1.21334E+3
  -3.68822E+4   9.84499E+2
  -3.64837E+4   7.82525E+2
  -3.60423E+4   6.38253E+2
  -3.57818E+4   4.92932E+2
  -3.53846E+4   3.09672E+2
  -3.50502E+4   1.38938E+2
  -3.47073E+4   6.87461E+0
  -3.43589E+4  -1.93074E+2
  -3.39873E+4  -3.60215E+2
  -3.35968E+4  -4.80272E+2
  -3.32471E+4  -6.26718E+2
  -3.28606E+4  -7.66468E+2
  -3.25313E+4  -8.74396E+2
  -3.22522E+4  -1.08217E+3
  -3.18942E+4  -1.23831E+3
  -3.15396E+4  -1.20317E+3
  -3.12325E+4  -1.33857E+3
  -3.08965E+4  -1.54420E+3
  -3.05757E+4  -1.70571E+3
  -3.02187E+4  -1.78038E+3
  -2.99645E+4  -1.92139E+3
  -2.95970E+4  -2.00262E+3
  -2.92283E+4  -2.17525E+3
  -2.89414E+4  -2.18331E+3
  -2.85400E+4  -2.28524E+3
  -2.82407E+4  -2.39038E+3
  -2.79262E+4  -2.48197E+3
  -2.76187E+4  -2.46716E+3
  -2.72905E+4  -2.60236E+3
  -2.69603E+4  -2.66415E+3
  -2.66612E+4  -2.77590E+3
  -2.63983E+4  -2.81661E+3
  -2.60544E+4  -2.82158E+3
  -2.58504E+4  -2.91280E+3
  -2.56007E+4  -3.08894E+3
  -2.52585E+4  -3.20005E+3
  -2.49551E+4  -3.29692E+3
  -2.46339E+4  -3.39113E+3
  -2.43426E+4  -3.45086E+3
  -2.41298E+4  -3.48294E+3
  -2.38757E+4  -3.55709E+3
  -2.35722E+4  -3.67777E+3
  -2.32281E+4  -3.67928E+3
  -2.30187E+4  -3.82949E+3
  -2.27166E+4  -3.89281E+3
  -2.24406E+4  -3.96076E+3
  -2.21398E+4  -4.03408E+3
  -2.19118E+4  -4.05585E+3
  -2.17048E+4  -4.23698E+3
  -2.13843E+4  -4.30463E+3
  -2.10867E+4  -4.32984E+3
  -2.07968E+4  -4.42763E+3
  -2.05152E+4  -4.46194E+3
  -2.02221E+4  -4.52488E+3
  -2.00267E+4  -4.61626E+3
  -1.97326E+4  -4.69505E+3
  -1.95196E+4  -4.76905E+3
  -1.91969E+4  -4.81331E+3
  -1.89915E+4  -4.94405E+3
  -1.86954E+4  -4.92205E+3
  -1.84674E+4  -5.03092E+3
  -1.81811E+4  -5.03485E+3
  -1.79760E+4  -5.10177E+3
  -1.76931E+4  -5.11833E+3
  -1.74434E+4  -5.22935E+3
  -1.72030E+4  -5.31070E+3
  -1.69499E+4  -5.36952E+3
  -1.66029E+4  -5.38934E+3
  -1.64929E+4  -5.40899E+3
  -1.61584E+4  -5.50117E+3
  -1.59220E+4  -5.51024E+3
  -1.56372E+4  -5.55309E+3
  -1.55103E+4  -5.59865E+3
  -1.52426E+4  -5.61295E+3
  -1.49904E+4  -5.68310E+3
  -1.47954E+4  -5.67085E+3
  -1.46301E+4  -5.72178E+3
  -1.43211E+4  -5.76533E+3
  -1.41777E+4  -5.72181E+3
  -1.39415E+4  -5.75508E+3
  -1.37542E+4  -5.81997E+3
  -1.35189E+4  -5.86385E+3
  -1.32921E+4  -5.82558E+3
  -1.30602E+4  -5.84603E+3
  -1.29374E+4  -5.86488E+3
  -1.26899E+4  -5.87321E+3
  -1.25442E+4  -5.80650E+3
  -1.22472E+4  -5.82573E+3
  -1.21837E+4  -5.81918E+3
  -1.19850E+4  -5.82957E+3
  -1.17695E+4  -5.78982E+3
  -1.15940E+4  -5.76464E+3
  -1.14361E+4  -5.79349E+3
  -1.12886E+4  -5.77407E+3
  -1.10891E+4  -5.80863E+3
  -1.09005E+4  -5.77742E+3
  -1.08067E+4  -5.70004E+3
  -1.06565E+4  -5.74337E+3
  -1.04568E+4  -5.74344E+3
  -1.02832E+4  -5.69124E+3
  -1.01357E+4  -5.66317E+3
  -1.00494E+4  -5.71846E+3
  -9.82699E+3  -5.68039E+3
  -9.66875E+3  -5.65063E+3
  -9.50796E+3  -5.72509E+3
  -9.37522E+3  -5.65913E+3
  -9.28238E+3  -5.58115E+3
  -9.08348E+3  -5.64719E+3
  -8.97143E+3  -5.62932E+3
  -8.79529E+3  -5.61597E+3
  -8.71011E+3  -5.53675E+3
  -8.49631E+3  -5.58322E+3
  -8.41738E+3  -5.57299E+3
  -8.28581E+3  -5.56791E+3
  -8.19356E+3  -5.56401E+3
  -7.99737E+3  -5.53872E+3
  -7.85189E+3  -5.56155E+3
  -7.78301E+3  -5.49124E+3
  -7.58479E+3  -5.43148E+3
  -7.49548E+3  -5.39281E+3
  -7.37324E+3  -5.43445E+3
  -7.28230E+3  -5.38045E+3
  -7.06847E+3  -5.32649E+3
  -6.91292E+3  -5.32836E+3
  -6.88199E+3  -5.41586E+3
  -6.71268E+3  -5.27570E+3
  -6.63200E+3  -5.23548E+3
  -6.51730E+3  -5.23926E+3
  -6.47455E+3  -5.18993E+3
  -6.27403E+3  -5.21779E+3
  -6.18749E+3  -5.19032E+3
  -6.08290E+3  -5.12054E+3
  -5.98408E+3  -5.08753E+3
  -5.90774E+3  -5.03458E+3
  -5.72549E+3  -4.94049E+3
  -5.63489E+3  -4.91737E+3
  -5.54679E+3  -4.94999E+3
  -5.51248E+3  -4.97039E+3
  -5.40614E+3  -4.89834E+3
  -5.24628E+3  -4.82597E+3
  -5.17681E+3  -4.76413E+3
  -5.12784E+3  -4.75342E+3
  -4.98457E+3  -4.68040E+3
  -4.87827E+3  -4.69045E+3
  -4.78327E+3  -4.68790E+3
  -4.73517E+3  -4.57080E+3
  -4.66619E+3  -4.57183E+3
  -4.49259E+3  -4.57057E+3
  -4.50421E+3  -4.46761E+3
  -4.34642E+3  -4.50673E+3
  -4.25769E+3  -4.48355E+3
  -4.20145E+3  -4.43011E+3
  -4.13474E+3  -4.37447E+3
  -4.02036E+3  -4.34374E+3
  -4.01808E+3  -4.32571E+3
  -3.90968E+3  -4.24213E+3
  -3.88768E+3  -4.19314E+3
  -3.77146E+3  -4.23506E+3
  -3.73597E+3  -4.13253E+3
  -3.64853E+3  -4.10872E+3
  -3.56323E+3  -4.00711E+3
  -3.44128E+3  -3.93583E+3
  -3.33994E+3  -3.85739E+3
  -3.34020E+3  -3.84537E+3
  -3.28572E+3  -3.83798E+3
  -3.20818E+3  -3.75551E+3
  -3.22086E+3  -3.75826E+3
  -3.16828E+3  -3.72314E+3
  -3.06324E+3  -3.67018E+3
  -2.95321E+3  -3.67772E+3
  -2.89240E+3  -3.55814E+3
  -2.87263E+3  -3.51173E+3
  -2.82816E+3  -3.45535E+3
  -2.81820E+3  -3.37992E+3
  -2.75513E+3  -3.38500E+3
  -2.58903E+3  -3.32221E+3
  -2.69999E+3  -3.24617E+3
  -2.58539E+3  -3.17693E+3
  -2.51688E+3  -3.20222E+3
  -2.47454E+3  -3.16535E+3
  -2.39885E+3  -3.03888E+3
  -2.43404E+3  -3.03389E+3
  -2.34459E+3  -3.05108E+3
  -2.28668E+3  -2.97715E+3
  -2.23626E+3  -2.94273E+3
  -2.24495E+3  -2.88287E+3
  -2.22549E+3  -2.77722E+3
  -2.20671E+3  -2.81362E+3
  -2.13750E+3  -2.70233E+3
  -2.12217E+3  -2.62193E+3
  -2.07700E+3  -2.57997E+3
  -2.01990E+3  -2.53456E+3
  -1.98383E+3  -2.52443E+3
  -1.99105E+3  -2.48786E+3
  -1.96905E+3  -2.43297E+3
  -1.94823E+3  -2.36390E+3
  -1.87936E+3  -2.34850E+3
  -1.84415E+3  -2.28309E+3
  -1.80716E+3  -2.24561E+3
  -1.88257E+3  -2.21258E+3
  -1.81428E+3  -2.19820E+3
  -1.82338E+3  -2.13988E+3
  -1.78167E+3  -2.08115E+3
  -1.74354E+3  -2.05048E+3
  -1.71101E+3  -2.00439E+3
  -1.69582E+3  -1.94577E+3
  -1.73753E+3  -1.93732E+3
  -1.69921E+3  -1.89315E+3
  -1.73417E+3  -1.86075E+3
  -1.69738E+3  -1.79124E+3
  -1.62844E+3  -1.79037E+3
  -1.63504E+3  -1.74533E+3
  -1.58723E+3  -1.68433E+3
  -1.58276E+3  -1.65260E+3
  -1.53694E+3  -1.70892E+3
  -1.49245E+3  -1.61208E+3
  -1.56856E+3  -1.61372E+3
  -1.56738E+3  -1.48203E+3
  -1.53872E+3  -1.46694E+3
  -1.47838E+3  -1.53755E+3
  -1.48455E+3  -1.40854E+3
  -1.53651E+3  -1.34045E+3
  -1.41451E+3  -1.39233E+3
  -1.48058E+3  -1.39244E+3
  -1.48786E+3  -1.25054E+3
  -1.53539E+3  -1.29017E+3
  -1.39240E+3  -1.28189E+3
  -1.41395E+3  -1.18700E+3
  -1.44889E+3  -1.26658E+3
  -1.48105E+3  -1.17926E+3
  -1.44170E+3  -1.08919E+3
  -1.39358E+3  -1.05795E+3
  -1.36505E+3  -1.03179E+3
  -1.38987E+3  -1.06045E+3
  -1.34083E+3  -1.01348E+3
  -1.38890E+3  -1.04354E+3
  -1.32755E+3  -1.00756E+3
  -1.35733E+3  -9.19901E+2
  -1.36529E+3  -1.00861E+3
  -1.40449E+3  -9.72553E+2
  -1.36915E+3  -8.89103E+2
  -1.33558E+3  -8.44661E+2
  -1.31163E+3  -8.28826E+2
  -1.31683E+3  -8.30073E+2
  -1.29937E+3  -8.64037E+2
  -1.27372E+3  -7.84581E+2
  -1.33325E+3  -7.89391E+2
  -1.28176E+3  -7.76929E+2
  -1.31067E+3  -6.47409E+2
  -1.35858E+3  -7.10847E+2
  -1.36301E+3  -6.47823E+2
  -1.27802E+3  -7.54750E+2
  -1.30108E+3  -7.28433E+2
  -1.30323E+3  -6.77561E+2
  -1.26357E+3  -6.74499E+2
  -1.21347E+3  -5.78332E+2
  -1.24047E+3  -6.05978E+2
  -1.30422E+3  -6.33529E+2
  -1.31969E+3  -5.57682E+2
  -1.22048E+3  -6.04923E+2
  -1.25182E+3  -5.43469E+2
  -1.30894E+3  -5.90282E+2
  -1.23683E+3  -5.47397E+2
  -1.19158E+3  -4.46987E+2
  -1.25549E+3  -5.08857E+2
  -1.20557E+3  -4.51077E+2
  -1.28118E+3  -4.98152E+2
  -1.23282E+3  -4.85684E+2
  -1.18812E+3  -4.38921E+2
  -1.21069E+3  -4.77957E+2
  -1.18538E+3  -4.33264E+2
  -1.14965E+3  -4.58546E+2
  -1.21651E+3  -3.99959E+2
  -1.21492E+3  -4.42943E+2
  -1.21324E+3  -4.16637E+2
  -1.17633E+3  -4.28602E+2
  -1.16253E+3  -4.49751E+2
  -1.18676E+3  -3.81288E+2
  -1.20955E+3  -4.26684E+2
  -1.16977E+3  -4.13920E+2
  -1.19457E+3  -4.26449E+2
  -1.18918E+3  -3.93604E+2
  -1.15747E+3  -3.44948E+2
  -1.15879E+3  -4.09622E+2
  -1.18646E+3  -4.05256E+2
  -1.18285E+3  -4.36819E+2
  -1.16152E+3  -3.46983E+2
  -1.16099E+3  -3.30622E+2
  -1.11090E+3  -3.79405E+2
  -1.10040E+3  -3.35007E+2
  -1.13401E+3  -3.70005E+2
  -1.15854E+3  -3.08333E+2
  -1.10822E+3  -3.51567E+2
  -1.12282E+3  -3.41932E+2
  -1.16839E+3  -4.03004E+2
  -1.03114E+3  -3.30130E+2
  -1.12491E+3  -3.34981E+2
  -1.08215E+3  -3.57783E+2
  -1.17364E+3  -3.60975E+2
  -1.11599E+3  -3.16749E+2
  -1.13752E+3  -3.86227E+2
  -1.05778E+3  -3.32108E+2
  -1.07646E+3  -3.66555E+2
  -1.11457E+3  -3.31937E+2
  -1.00437E+3  -3.14894E+2
  -1.06190E+3  -2.95314E+2
  -9.95081E+2  -3.33702E+2
  -1.04006E+3  -4.17602E+2
  -1.00332E+3  -4.28205E+2
  -9.80557E+2  -4.32846E+2
  -1.06781E+3  -3.95985E+2
  -9.68363E+2  -4.00261E+2
  -9.69134E+2  -3.98627E+2
  -9.11354E+2  -3.34256E+2
  -9.46350E+2  -4.08952E+2
  -9.78083E+2  -3.25622E+2
  -9.21361E+2  -3.33604E+2
