 
 $NMID
 ID=''
 FMTDAT='(2E13.5)'
 TRAMP=   1.00000E+0
 VOLUME=   1.00000E+0
 $END
   7.16723E+2   1.78912E+2
   5.39521E+1   7.43594E+2
   2.24620E+3  -1.43930E+3
   3.10140E+2  -1.85406E+3
  -3.29398E+3  -6.44680E+2
  -1.93317E+3  -7.08304E+2
  -1.66103E+2   4.22941E+3
  -9.45813E+2  -2.25569E+2
   5.70691E+2  -1.13226E+2
  -8.72633E+2   1.49379E+3
   8.41726E+2   1.76281E+3
   2.84312E+3   1.23308E+3
   1.92059E+3   1.98245E+3
  -9.97667E+2   6.20981E+2
  -1.61386E+2  -4.84145E+2
   1.72194E+3  -1.22680E+3
   1.00323E+3   9.68413E+1
   2.57249E+3   7.13849E+2
  -2.48266E+3   1.28110E+3
   7.22043E+1  -2.44308E+3
   4.50282E+3   1.05257E+3
   5.96774E+1   4.01971E+3
  -3.51626E+3  -2.82407E+3
  -1.57125E+2  -3.62285E+3
   3.36778E+3   1.44309E+3
   3.62130E-1   3.85924E+3
  -5.21167E+3  -2.97842E+3
   2.90428E+2  -2.20567E+3
   3.75666E+3  -1.38757E+3
   1.71890E+3   5.02828E+3
  -4.88682E+3   4.14899E+3
  -2.49244E+3  -2.42980E+3
   3.16216E+3  -3.24253E+3
   2.89473E+3   2.18923E+3
  -2.44513E+3   2.31002E+3
  -1.56660E+2  -1.17655E+3
   9.11897E+2   1.65439E+3
  -4.44067E+3  -4.17208E+2
  -3.26887E+3  -3.10103E+3
   7.37888E+2  -1.45807E+3
   2.00287E+3  -2.31427E+3
   2.40491E+3  -3.65237E+3
   6.52442E+3   1.67637E+3
   9.61560E+2   3.32590E+3
  -3.58958E+3   7.73700E+2
  -2.41989E+3   8.05769E+2
  -3.09361E+3  -9.82640E+1
  -2.89576E+3  -1.87828E+3
  -2.26404E+3  -9.40804E+2
  -1.55149E+3  -1.60369E+3
   1.55480E+3  -1.00374E+2
  -1.72394E+3   2.63751E+2
  -7.45667E+2  -2.83800E+3
   2.80160E+2  -1.69294E+3
   2.44796E+3   1.19495E+2
   1.59872E+3  -2.49823E+3
   4.82360E+3  -1.33644E+3
   1.74607E+3   1.53371E+3
   1.57818E+3   1.32183E+3
  -1.68382E+3   9.08079E+2
  -3.43206E+3   2.00438E+2
   1.79180E+2   1.73217E+1
   7.14236E+2  -4.70371E+2
  -1.50104E+3   7.12688E+2
  -1.25890E+3  -3.19390E+2
   1.15034E+3   5.73974E+2
   3.63987E+3   1.61981E+3
  -2.43209E+2   3.44704E+3
  -1.95380E+3   1.27157E+3
  -3.55221E+1   7.03126E+2
   5.28899E+2  -1.64937E+2
  -8.36242E+2   5.82585E+2
   6.83589E+2  -8.41193E+1
  -1.38519E+3   1.65397E+3
   1.15185E+2   1.90689E+3
  -1.83891E+3   9.54451E+2
  -1.22371E+3  -1.93815E+2
  -2.07839E+3   9.85739E+2
  -1.22050E+3  -9.00330E+2
  -1.11485E+3  -1.18735E+3
  -7.08986E+1   6.83320E+2
  -1.62822E+3  -1.48526E+3
  -1.03992E+3  -1.09968E+3
   1.50839E+2   1.06969E+2
   8.73217E+2  -7.49886E+2
   1.71040E+3  -1.86675E+2
  -1.55610E+2  -2.53530E+3
  -9.73046E+2  -1.41652E+3
  -5.67884E+2  -2.62484E+2
  -3.22587E+2  -3.69410E+2
  -1.35129E+3  -2.41390E+2
   1.53266E+3   9.35247E+2
  -7.68364E+2  -5.13632E+1
  -3.06646E+3  -4.06288E+2
  -6.34475E+2  -7.57767E+2
   7.61551E+2   1.01940E+3
   1.07737E+3   2.05103E+2
  -8.91863E+2   1.87379E+3
   1.03147E+3  -1.93671E+3
   1.31685E+3  -4.87251E+2
   7.05333E+2   5.04980E+2
   5.79822E+2  -3.55670E+2
  -3.53300E+2  -1.63470E+2
  -3.71954E+2   2.18252E+2
  -9.81642E+2  -1.47574E+3
  -1.14231E+3   9.52946E+2
  -8.55924E+2   6.57885E+2
  -1.66178E+2  -1.15341E+3
  -6.39085E+2   1.04892E+3
   3.23322E+3  -3.07557E+2
   9.29940E+2   2.48357E+3
   8.70378E+1   1.06311E+3
   1.58813E+2   1.10093E+3
  -1.98455E+3   1.87560E+2
   9.94383E+2   4.89761E+2
   6.22840E+2   2.81648E+2
  -7.88214E+1   1.10741E+3
   4.79228E+2  -1.91575E+3
   1.18508E+3  -1.75604E+3
   4.36782E+2  -5.54777E+1
   2.80078E+1   8.06871E+2
  -2.85240E+2   3.75177E+2
   2.32096E+3   2.47929E+3
  -7.42725E+2   8.52715E+2
  -1.58622E+3   9.76314E+2
  -2.69828E+2   1.84758E+3
   3.88125E+1   3.65995E+2
  -1.39150E+3  -4.24963E+2
  -1.30909E+3   1.67509E+3
   1.60092E+3  -9.66491E+2
   1.59803E+3   9.64886E+2
  -7.16936E+2   1.56773E+3
   2.20968E+3   8.17589E+2
  -3.03245E+2  -3.72394E+2
   3.17154E+2  -4.60891E+2
  -4.09174E+2  -1.18191E+3
  -3.18520E+2  -1.40683E+2
   1.66362E+3   8.82261E+2
   1.72069E+3   1.05580E+2
   2.36219E+2   1.79756E+3
   7.11672E+2   1.10957E+3
   3.22024E+1  -1.55470E+3
   1.58406E+3   8.92963E+2
   1.24216E+3   8.92858E+2
  -4.14750E+2   7.68130E+2
   1.64047E+3   1.34767E+3
  -2.63781E+2   2.82247E+2
  -4.74095E+2   5.81202E+2
   1.39460E+3  -1.18416E+3
   6.29701E+2  -2.17843E+3
   3.88969E+2  -5.70227E+2
  -3.41725E+2  -2.02098E+3
   7.07538E+2  -7.01457E+2
   1.29433E+3  -2.37770E+3
   3.35615E+2  -8.89118E+2
   1.58984E+3  -7.22413E+1
   2.21755E+3  -1.54026E+3
   2.07083E+3   5.58681E+2
   1.21748E+3   1.16285E+3
   9.26644E+2  -6.14070E+1
   9.39136E+2  -1.80033E+3
   7.71842E+2   8.26104E+2
  -4.91430E+2  -2.76824E+2
  -2.69985E+2   8.03990E+2
  -2.33820E+3  -9.35069E+2
   1.12205E+3  -1.03493E+3
  -1.82290E+2  -1.58273E+3
   1.34570E+3  -1.24258E+3
  -1.04575E+3  -2.74466E+2
  -3.13953E+2   2.30652E+3
   1.47233E+3   5.20092E+1
  -6.39559E+2   2.92976E+1
  -6.19720E+2   1.76326E+3
  -4.57176E+2  -4.80652E+2
  -8.24784E+2   4.47379E+2
   4.94841E+2  -1.34121E+3
   3.94410E+2   8.19213E+1
   3.67704E+2  -6.55355E+2
   1.22159E+3  -9.36312E+2
   1.89735E+3  -1.51531E+3
   1.47438E+3  -7.86280E+2
   2.33694E+3   5.02824E+2
   2.10772E+2  -1.07309E+3
  -2.54844E+2  -1.01054E+3
   3.21449E+3  -1.49645E+3
  -9.07339E+2  -3.00684E+2
  -1.87567E+1   2.40914E+2
   1.37739E+3  -2.36456E+2
   9.87549E+2   2.67124E+2
   6.64234E+2  -6.32010E+2
   4.73875E+2   3.05736E+2
   6.54875E+2   4.70245E+2
  -1.96153E+2  -8.28519E+2
   3.07145E+2   4.14378E+2
  -1.42936E+2  -7.68240E+2
  -1.42236E+3  -3.23859E+3
   5.42568E+2  -1.70852E+3
  -2.74423E+2  -8.51338E+2
  -1.38856E+2   3.50176E+2
  -5.07984E+2   6.38264E+2
  -2.57610E+3   1.81757E+3
  -5.48385E+0  -1.66990E+3
   1.15965E+3  -1.34058E+3
   2.93720E+2   1.18747E+2
   1.62902E+3  -1.96657E+2
   2.73512E+2  -1.38832E+3
  -9.40178E+2   1.57301E+2
  -1.23053E+3  -8.64711E+2
   7.06785E+2   1.67481E+3
   4.72982E+2  -1.38297E+2
   9.38328E+2   8.03438E+2
   4.16007E+2   1.83449E+3
  -5.79804E+1  -8.60976E+2
   8.76952E+2   1.51708E+2
   1.05497E+3  -9.78806E+2
   2.67653E+2  -2.04144E+2
  -1.89086E+3   5.36010E+2
   1.76469E+3  -6.81642E+2
   1.24392E+3  -7.26159E+1
   1.08297E+3  -1.45948E+2
   2.16415E+3  -1.13446E+3
   2.49549E+3  -1.95692E+3
   6.54297E+2   9.59040E+1
   2.30439E+3   8.86545E+2
   1.86314E+2   7.62773E+2
   7.53043E+2   1.03721E+2
   7.41472E+2  -1.56045E+3
   1.22627E+3  -1.28612E+3
  -5.72476E+2  -1.20685E+3
   4.66389E+2   2.49853E+2
   1.95612E+3   2.47822E+2
  -1.37975E+3   6.62689E+2
  -2.06130E+3   8.41398E+2
   1.26812E+3   6.62104E+2
  -1.09567E+1   4.27260E+2
   7.99600E+2  -7.73684E+2
   9.82184E+2  -7.73738E+2
   1.09011E+3  -8.53709E+2
  -1.28134E+3   1.10566E+3
   1.65500E+3   1.47700E+3
  -1.45720E+3   6.53660E+2
  -1.61128E+2  -6.68141E+2
  -9.96852E+2   1.94447E+3
   5.80613E+2   5.81078E+2
  -1.17752E+3   1.62580E+3
  -1.44949E+2  -5.98783E+2
  -1.15372E+3   5.94220E+2
  -6.79246E+2   2.10449E+3
  -6.94757E+2  -1.30790E+3
   5.11980E+2  -1.52351E+2
  -3.89723E+2   1.58330E+3
  -1.08980E+3   5.10209E+2
  -1.24979E+3   1.51453E+3
  -6.02261E+2  -7.65106E+2
  -1.73156E+3   7.39850E+2
  -4.40430E+1   1.31182E+3
  -1.47834E+3  -5.16588E+2
  -1.23027E+3   8.39154E+2
   1.57855E+3  -6.44210E+2
  -2.51671E+2   1.22895E+3
   7.69251E+2   1.05961E+3
  -8.92991E+1  -1.41725E+2
  -1.17454E+3   3.71119E+2
  -4.70260E+2   3.96178E+2
  -9.77411E+2   1.29120E+3
  -9.66179E+2  -1.02474E+3
   8.73374E+2   3.22836E+2
   1.34873E+2   1.45413E+3
  -7.16136E+2  -1.43953E+3
  -6.95398E+2  -6.69165E+2
  -1.40840E+3  -2.09870E+1
  -1.68037E+3   9.45871E+2
  -6.24950E+2   6.48493E+2
  -9.64148E+2  -1.26317E+3
  -5.28230E+2   6.50235E+2
   1.72303E+2   8.65967E+2
  -1.39481E+3   6.46389E+2
   7.43402E+2  -6.49617E+2
  -2.00287E+2  -4.19222E+2
  -8.87746E+2   1.95217E+2
  -7.92708E+2  -2.60503E+2
   8.55490E+2  -3.33438E+2
   8.37040E+2  -3.12387E+2
   1.09800E+3  -1.55314E+3
  -5.72134E+2  -9.56934E+2
  -1.27794E+3  -6.74650E+2
  -1.39966E+3   1.72345E+2
  -3.75763E+2  -2.77746E+2
  -4.80710E+2  -9.85983E+2
  -1.07466E+3   8.10711E+2
  -1.91897E+2   8.26855E+1
   5.09851E+2   5.96631E+2
   5.33390E+2  -4.42936E+2
   9.47552E+2  -3.52618E+2
  -3.46522E+2   1.53455E+2
  -6.64770E+2  -7.46682E+1
  -6.75639E+2   1.72515E+3
  -6.59147E+2   1.19242E+3
  -9.97826E+2   4.92398E+2
   1.31199E+3  -1.49609E+2
  -6.70583E+2   2.29690E+2
   1.07859E+3  -9.76111E+2
   4.58155E+2  -3.34283E+2
  -1.15118E+2  -4.92027E+2
   1.55451E+3   2.93710E+1
   6.26987E+1  -1.90217E+3
  -8.26161E+2  -4.38628E+2
  -1.44222E+3  -1.27464E+3
  -9.99663E+1  -1.87108E+3
  -5.14710E+2   1.83826E+3
   9.36426E+2   1.44368E+3
  -8.72776E+2   5.40521E+2
  -9.72852E+1   1.10198E+3
  -9.95292E+2  -7.88274E+2
  -1.19376E+3   1.23081E+3
  -8.47690E+2  -4.29152E+2
   1.46742E+2  -3.64097E+2
   3.18263E+1  -7.98551E+2
  -2.21088E+2  -1.20351E+3
   8.20666E+2   6.42513E+2
   3.28333E+2   1.88155E+3
  -1.67962E+3  -8.93130E+2
  -6.57221E+2  -1.92986E+2
   1.29364E+3   1.66152E+3
   6.38106E+2  -1.22051E+3
  -1.05695E+3   1.13009E+3
  -7.86302E+2   1.26188E+2
   3.28781E+2   9.72385E+2
  -1.66040E+3   2.17467E+2
   2.29202E+3  -1.02939E+3
  -2.54630E+3   9.47595E+2
  -1.04623E+3  -5.15243E+2
  -4.67267E+2  -3.62523E+2
  -1.33326E+3   2.46487E+2
   1.02593E+3   5.49821E+2
  -1.56309E+3   6.08256E+2
  -6.53436E+2  -1.91921E+3
   1.63373E+2   2.16621E+3
  -1.00930E+3  -3.17864E+2
  -1.03372E+2  -3.03784E+2
  -1.23375E+3  -9.85440E+2
  -2.86108E+2   1.95585E+3
  -1.53919E+3  -1.49436E+3
  -5.84351E+2  -4.89146E+2
  -1.57270E+3   3.95100E+2
  -6.57638E+2   2.67724E+1
  -9.55732E+2  -2.38387E+3
   2.69882E+2   3.98060E+2
  -1.52818E+3  -3.59588E+2
  -7.79783E+2  -1.17312E+3
  -1.04686E+3  -1.05513E+3
  -2.34343E+2   4.19039E+2
  -7.86739E+1   1.62882E+2
  -7.83886E+2   1.05147E+3
  -1.14008E+2  -1.69473E+3
   7.89236E+2   1.84392E+2
  -7.63656E+2  -1.23854E+3
  -1.21538E+3  -5.36490E+2
  -8.87252E+2  -1.55881E+3
   1.76689E+2   9.93012E+2
  -6.86616E+2   7.95860E+2
   1.60212E+3  -1.23856E+3
   6.89843E+1   6.94608E+2
   1.95586E+3   1.27779E+3
  -8.31848E+2  -8.36662E+2
   3.70737E+2  -1.78725E+2
  -1.34511E+3  -6.15962E+2
