 LCModel (Version 6.3-1N) Copyright: S.W. Provencher.          Ref.: Magn. Reson. Med. 30:672-679 (1993).                
 Slice_N1@15_14  02-Jun-2023 14:36:44
 27 lines in following concentration table = NCONC+1
    Conc.  %SD /Cr+PCr  Metabolite                                         
 2.36E-06  14% 3.5E-04 Mac                                                 
 3.15E-02  24%   4.698 Cr                                                  
 2.21E-02  35%   3.302 PCr                                                 
 7.54E-02  11%  11.263 Ins                                                 
 7.15E-02   9%  10.670 NAA                                                 
 4.26E-02  15%   6.366 Tau                                                 
 5.53E-03 110%   0.826 PCho                                                
 9.80E-03  61%   1.463 GPC                                                 
 5.66E-02  14%   8.455 Glu                                                 
 1.81E-02  32%   2.706 Gln                                                 
 2.75E-03 203%   0.411 Ala                                                 
    0.000 999%   0.000 Asc                                                 
 1.21E-02  57%   1.811 Asp                                                 
 1.58E-02  23%   2.353 GABA                                                
 9.25E-03  51%   1.381 Glc                                                 
 8.14E-03  40%   1.215 GSH                                                 
    0.000 999%   0.000 Lac                                                 
 1.44E-02  27%   2.148 NAAG                                                
    0.000 999%   0.000 PE                                                  
 1.53E-02  13%   2.289 GPC+PCho                                            
 8.58E-02   9%  12.818 NAA+NAAG                                            
 7.47E-02  14%  11.160 Glu+Gln                                             
 5.36E-02  11%   8.000 Cr+PCr                                              
 8.58E-02   9%  12.818 NAA+NAAG                                            
 5.36E-02  11%   8.000 Cr+PCr                                              
 7.47E-02  14%  11.160 Glu+Gln                                             
   6 lines in following misc. output table
  FWHM = 0.017 ppm    S/N =   5                                            
  Data shift = 0.017 ppm                                                   
  Ph: -63 deg      -6.0 deg/ppm                                            
  alphaB,S = 9.5E-01,   3.5E-01                                            
   18 spline knots.   Ns = 5(1)                                            
   3 inflections.     2 extrema                                            
  654 points on ppm-axis = NY
      4.000000     3.994181     3.988363     3.982544     3.976726     3.970907     3.965088     3.959270     3.953451     3.947633
      3.941814     3.935995     3.930177     3.924358     3.918540     3.912721     3.906902     3.901084     3.895265     3.889446
      3.883628     3.877809     3.871991     3.866172     3.860353     3.854535     3.848716     3.842898     3.837079     3.831260
      3.825442     3.819623     3.813805     3.807986     3.802167     3.796349     3.790530     3.784712     3.778893     3.773074
      3.767256     3.761437     3.755619     3.749800     3.743981     3.738163     3.732344     3.726526     3.720707     3.714888
      3.709070     3.703251     3.697433     3.691614     3.685795     3.679977     3.674158     3.668339     3.662521     3.656702
      3.650884     3.645065     3.639246     3.633428     3.627609     3.621791     3.615972     3.610153     3.604335     3.598516
      3.592698     3.586879     3.581060     3.575242     3.569423     3.563605     3.557786     3.551967     3.546149     3.540330
      3.534512     3.528693     3.522874     3.517056     3.511237     3.505419     3.499600     3.493781     3.487963     3.482144
      3.476326     3.470507     3.464688     3.458870     3.453051     3.447232     3.441414     3.435595     3.429777     3.423958
      3.418139     3.412321     3.406502     3.400684     3.394865     3.389046     3.383228     3.377409     3.371591     3.365772
      3.359953     3.354135     3.348316     3.342498     3.336679     3.330860     3.325042     3.319223     3.313405     3.307586
      3.301767     3.295949     3.290130     3.284312     3.278493     3.272674     3.266856     3.261037     3.255219     3.249400
      3.243581     3.237763     3.231944     3.226125     3.220307     3.214488     3.208670     3.202851     3.197032     3.191214
      3.185395     3.179577     3.173758     3.167939     3.162121     3.156302     3.150484     3.144665     3.138846     3.133028
      3.127209     3.121391     3.115572     3.109753     3.103935     3.098116     3.092298     3.086479     3.080660     3.074842
      3.069023     3.063205     3.057386     3.051567     3.045749     3.039930     3.034111     3.028293     3.022474     3.016656
      3.010837     3.005018     2.999200     2.993381     2.987563     2.981744     2.975925     2.970107     2.964288     2.958470
      2.952651     2.946832     2.941014     2.935195     2.929377     2.923558     2.917739     2.911921     2.906102     2.900284
      2.894465     2.888646     2.882828     2.877009     2.871191     2.865372     2.859553     2.853735     2.847916     2.842098
      2.836279     2.830460     2.824642     2.818823     2.813004     2.807186     2.801367     2.795549     2.789730     2.783911
      2.778093     2.772274     2.766456     2.760637     2.754818     2.749000     2.743181     2.737363     2.731544     2.725725
      2.719907     2.714088     2.708270     2.702451     2.696632     2.690814     2.684995     2.679177     2.673358     2.667539
      2.661721     2.655902     2.650084     2.644265     2.638446     2.632628     2.626809     2.620991     2.615172     2.609353
      2.603535     2.597716     2.591897     2.586079     2.580260     2.574442     2.568623     2.562804     2.556986     2.551167
      2.545349     2.539530     2.533711     2.527893     2.522074     2.516256     2.510437     2.504618     2.498800     2.492981
      2.487163     2.481344     2.475525     2.469707     2.463888     2.458070     2.452251     2.446432     2.440614     2.434795
      2.428977     2.423158     2.417339     2.411521     2.405702     2.399884     2.394065     2.388246     2.382428     2.376609
      2.370790     2.364972     2.359153     2.353335     2.347516     2.341697     2.335879     2.330060     2.324242     2.318423
      2.312604     2.306786     2.300967     2.295149     2.289330     2.283511     2.277693     2.271874     2.266056     2.260237
      2.254418     2.248600     2.242781     2.236963     2.231144     2.225325     2.219507     2.213688     2.207870     2.202051
      2.196232     2.190414     2.184595     2.178777     2.172958     2.167139     2.161321     2.155502     2.149683     2.143865
      2.138046     2.132228     2.126409     2.120590     2.114772     2.108953     2.103135     2.097316     2.091497     2.085679
      2.079860     2.074042     2.068223     2.062404     2.056586     2.050767     2.044949     2.039130     2.033311     2.027493
      2.021674     2.015856     2.010037     2.004218     1.998400     1.992581     1.986763     1.980944     1.975126     1.969307
      1.963489     1.957670     1.951852     1.946033     1.940215     1.934397     1.928578     1.922760     1.916941     1.911123
      1.905304     1.899486     1.893667     1.887849     1.882030     1.876212     1.870393     1.864575     1.858756     1.852938
      1.847119     1.841301     1.835482     1.829664     1.823845     1.818027     1.812208     1.806390     1.800571     1.794753
      1.788934     1.783116     1.777297     1.771479     1.765660     1.759842     1.754023     1.748205     1.742386     1.736568
      1.730749     1.724931     1.719113     1.713294     1.707476     1.701657     1.695839     1.690020     1.684202     1.678383
      1.672565     1.666746     1.660928     1.655109     1.649291     1.643472     1.637654     1.631835     1.626017     1.620198
      1.614380     1.608561     1.602743     1.596924     1.591106     1.585287     1.579469     1.573650     1.567832     1.562013
      1.556195     1.550376     1.544558     1.538739     1.532921     1.527102     1.521284     1.515465     1.509647     1.503829
      1.498010     1.492192     1.486373     1.480555     1.474736     1.468918     1.463099     1.457281     1.451462     1.445644
      1.439825     1.434007     1.428188     1.422370     1.416551     1.410733     1.404914     1.399096     1.393277     1.387459
      1.381640     1.375822     1.370003     1.364185     1.358366     1.352548     1.346729     1.340911     1.335092     1.329274
      1.323455     1.317637     1.311818     1.306000     1.300182     1.294363     1.288545     1.282726     1.276908     1.271089
      1.265271     1.259452     1.253634     1.247815     1.241997     1.236178     1.230360     1.224541     1.218723     1.212904
      1.207086     1.201267     1.195449     1.189630     1.183812     1.177993     1.172175     1.166356     1.160538     1.154719
      1.148901     1.143082     1.137264     1.131445     1.125627     1.119808     1.113990     1.108171     1.102353     1.096534
      1.090716     1.084898     1.079079     1.073261     1.067442     1.061624     1.055805     1.049987     1.044168     1.038350
      1.032531     1.026713     1.020894     1.015076     1.009257     1.003439     0.997620     0.991802     0.985983     0.980165
      0.974346     0.968528     0.962709     0.956891     0.951072     0.945254     0.939435     0.933617     0.927798     0.921980
      0.916161     0.910343     0.904524     0.898706     0.892887     0.887069     0.881251     0.875432     0.869614     0.863795
      0.857977     0.852158     0.846340     0.840521     0.834703     0.828884     0.823066     0.817247     0.811429     0.805610
      0.799792     0.793973     0.788155     0.782336     0.776518     0.770699     0.764881     0.759062     0.753244     0.747425
      0.741607     0.735788     0.729970     0.724151     0.718333     0.712514     0.706696     0.700877     0.695059     0.689240
      0.683422     0.677603     0.671785     0.665967     0.660148     0.654330     0.648511     0.642693     0.636874     0.631056
      0.625237     0.619419     0.613600     0.607782     0.601963     0.596145     0.590326     0.584508     0.578689     0.572871
      0.567052     0.561234     0.555415     0.549597     0.543778     0.537960     0.532141     0.526323     0.520504     0.514686
      0.508867     0.503049     0.497230     0.491412     0.485593     0.479775     0.473956     0.468138     0.462319     0.456501
      0.450682     0.444864     0.439045     0.433227     0.427408     0.421590     0.415771     0.409953     0.404134     0.398316
      0.392497     0.386679     0.380860     0.375042     0.369223     0.363405     0.357586     0.351767     0.345949     0.340130
      0.334312     0.328493     0.322675     0.316856     0.311038     0.305219     0.299401     0.293582     0.287764     0.281945
      0.276127     0.270308     0.264490     0.258671     0.252853     0.247034     0.241216     0.235397     0.229579     0.223760
      0.217942     0.212123     0.206305     0.200486
 NY phased data points follow
  -2.27740E-02 -2.22584E-01 -1.62985E-01 -2.31373E-01 -8.24118E-02 -9.96072E-02 -3.96438E-01 -2.41418E-01 -1.42255E-01 -3.89367E-01
  -1.11555E-01  4.23715E-01  3.50744E-01  1.38903E-01 -6.45869E-02  5.25745E-02  5.75538E-01  2.56092E-01  3.89771E-02  9.57060E-02
   4.74996E-03  9.22791E-02 -8.52539E-02 -5.42984E-03  8.00190E-02 -1.31299E-01  2.85505E-02 -5.82957E-02 -9.05563E-02 -2.01724E-01
   8.95889E-02  4.51996E-01 -8.24204E-02 -1.32056E-01 -1.53266E-01 -9.21457E-02 -3.11712E-01 -1.43146E-01 -5.95824E-03  1.36171E-01
   1.81851E-01  1.25276E-02  5.25928E-01  1.31259E-01  3.78361E-01  4.75745E-01  3.58508E-01  3.54824E-02 -8.08084E-03  5.03063E-03
  -1.99617E-01 -8.19665E-03 -1.33838E-01  2.12631E-01 -4.62229E-02 -3.98387E-02 -5.04205E-01 -4.44567E-01 -4.64331E-01 -4.42893E-01
   4.08699E-02 -5.60800E-01 -4.26315E-01 -3.13630E-01 -3.82812E-01 -2.73824E-01  4.97263E-02  5.75370E-03  3.39946E-01  2.84385E-01
   3.59814E-01  5.21461E-01  2.00913E-01  3.16581E-01 -6.52338E-02  4.13287E-02 -5.42584E-02 -3.70231E-01 -2.78680E-01 -4.69240E-01
  -5.52697E-01  5.53712E-02 -6.28702E-02  2.84355E-01  6.25872E-01  5.20761E-01  7.02148E-01  2.20561E-01  2.44258E-01  1.87484E-01
   4.42936E-01  1.00916E-01  7.09070E-02  6.52667E-03 -2.85403E-02  1.64090E-01 -9.16878E-02  4.29134E-01 -5.67684E-02  1.95072E-02
  -3.81803E-01 -4.50864E-01  1.77584E-01 -1.94271E-01  2.64917E-01  3.53354E-01  2.21531E-01  4.15371E-01  6.21392E-01  4.79347E-01
   5.21302E-01  5.76653E-01  2.58556E-01  1.99441E-01  1.94564E-01  8.50933E-02  1.66640E-01  5.41310E-01  2.05130E-01  1.03960E-02
   2.08239E-01  2.82871E-02 -1.79045E-01  4.97566E-02  3.37724E-02  5.71060E-02 -9.70083E-02 -5.63643E-01  3.88521E-02 -3.94095E-01
  -4.45432E-01 -1.29681E-01 -3.35076E-01 -3.78540E-01 -6.50657E-01 -5.50393E-01 -1.05737E+00 -1.18916E+00 -1.04214E+00 -3.16097E-01
  -2.26785E-01 -3.85554E-01  5.88803E-03 -1.64201E-01  5.06619E-02  2.71913E-01  3.81245E-01  1.38001E-01  4.12989E-03 -1.97517E-01
   3.12222E-01  1.70232E-01 -1.02119E-01  1.47865E-01  2.07211E-02  4.49304E-01  2.25114E-01  3.62279E-01  3.15765E-01  2.41777E-01
   5.31897E-01  6.17999E-01  4.20078E-01  4.47844E-01  8.59516E-01  9.06816E-01  8.42662E-01 -2.15929E-01 -6.13174E-01 -8.68391E-01
  -1.19076E+00 -4.99974E-01 -5.86893E-01 -6.32143E-01 -6.03509E-01 -4.35364E-01 -4.16107E-02 -4.84501E-01 -3.23103E-01 -2.83780E-01
  -4.43312E-01 -2.52564E-01 -5.31568E-01 -2.97986E-01 -7.37337E-02 -1.53494E-01 -2.95514E-01 -3.61821E-01 -1.50424E-01 -3.98666E-01
  -4.33346E-01 -6.98809E-02 -2.28713E-01 -2.05346E-01 -1.64544E-01 -2.17246E-01  8.75892E-02 -2.18818E-01 -2.85566E-01  9.99813E-03
  -3.17935E-01  1.87723E-02  9.82455E-02 -1.76292E-01  1.86764E-01 -1.94016E-01 -2.92955E-02  1.74584E-01  5.16842E-02  2.00609E-01
   3.02883E-03 -3.38076E-02 -4.85665E-02  3.45160E-02  4.81432E-02  9.94690E-02  1.80986E-01  2.67257E-01  2.53232E-02  1.87232E-01
   8.66542E-02 -3.42267E-01  1.37520E-01  1.86703E-01  2.04457E-01  3.11048E-01  3.66268E-01  4.84789E-01  4.12649E-01  3.28846E-01
   3.17513E-01  3.02924E-01 -1.13698E-02 -1.39550E-01 -1.59500E-01 -1.16465E-01  2.50451E-01 -1.20761E-01 -3.89927E-02  8.97493E-03
  -1.78064E-01  1.36578E-01 -2.89149E-01 -8.63773E-02 -1.73676E-01 -6.76059E-02  2.03210E-01  1.96199E-02  1.32000E-01  1.21542E-01
   5.07433E-02 -2.77531E-01 -2.06581E-01  8.01820E-02  7.03826E-02 -4.24879E-01 -4.00381E-02  2.99087E-01  7.40523E-02  9.09526E-02
   2.54095E-01  6.93678E-02 -6.04830E-02  3.39522E-01  8.84104E-02  2.01231E-01  2.33343E-01  2.97944E-01  5.63181E-01  2.54445E-01
   8.30588E-02  2.93760E-01  1.04165E-01 -1.32743E-02  1.77016E-02  7.53915E-02 -2.95161E-01 -6.12110E-01 -2.49695E-01 -4.62965E-01
  -2.19084E-01 -3.45778E-01 -2.53776E-01 -2.03510E-01 -2.43753E-01  5.15308E-02  2.02877E-01  2.96645E-01  1.38480E-01  3.68870E-01
   1.46956E-01  8.52472E-02 -4.22882E-02 -6.93798E-02 -4.97732E-02  2.49825E-01  1.16280E-01 -5.33954E-02  1.85195E-01  1.45774E-01
   2.60713E-01  2.27809E-01  3.18571E-01  8.13743E-02  6.33757E-01  5.53149E-01  3.52356E-01  3.15648E-01  1.52112E-01  4.59921E-01
   3.01293E-01  3.94157E-01  2.09088E-01 -5.11540E-02  2.17917E-01  1.78932E-01 -1.51873E-01  1.63968E-01 -2.38292E-01 -1.37769E-01
   9.89362E-02 -2.25727E-01 -1.08927E-01  2.95388E-02  1.94409E-01 -1.17927E-01 -1.17703E-01  1.37164E-01  5.08508E-01  2.85234E-01
   1.52738E-01  1.32339E-01  2.26348E-02  5.05482E-02 -3.68185E-01 -6.33812E-01 -4.48312E-01 -4.63211E-01 -5.00923E-01 -4.70781E-01
  -7.69856E-01 -7.90108E-01 -1.96821E+00 -1.84067E+00 -5.28439E-01 -3.97120E-01  6.01941E-03  1.01010E-01  8.11927E-02  1.48670E-01
   1.32717E-01  3.18828E-01  2.96847E-01  1.55075E-01  1.37408E-01 -1.97751E-02  2.81550E-01  1.75460E-01  1.85094E-01  3.36019E-01
  -1.78719E-01 -1.72309E-02  6.15132E-02 -2.29613E-01 -1.88798E-02 -1.05655E-01 -4.09831E-01 -1.30342E-01  3.18018E-03  3.02736E-01
   1.35208E-01 -8.87525E-02 -1.03089E-01 -1.18895E-01  2.32061E-01  9.22346E-02 -1.41412E-01 -1.93256E-01  2.45730E-01  3.19108E-01
   1.33932E-01  2.02237E-01  5.27577E-01  3.82685E-01  6.94789E-03  2.47785E-01  1.04295E-01  1.53961E-01  2.68179E-01  4.73772E-02
   9.76788E-02  2.53422E-01 -7.63296E-02 -3.69634E-02  1.60619E-01  1.24937E-01  2.21909E-01  2.35184E-01  1.68479E-01  4.87823E-03
   1.62823E-01 -1.62958E-01 -2.98652E-01  5.47791E-03  8.25253E-02  2.00834E-01  7.88240E-03 -2.31891E-01 -1.68296E-01 -2.02067E-01
  -2.76598E-01 -2.59745E-02 -1.63581E-01 -3.43754E-01 -2.14139E-01  3.03836E-02 -4.84179E-02 -2.74544E-01 -3.75151E-02  3.64144E-02
  -2.15363E-01 -2.10295E-01  1.42962E-01 -4.93928E-02 -1.56491E-01 -1.16292E-01 -6.97403E-03 -1.74667E-01 -2.81336E-01  1.52995E-02
  -3.07968E-01 -7.12328E-02  5.55566E-02  2.06939E-01  9.27015E-02 -1.56594E-01  9.34125E-03  2.87481E-04  2.82092E-01 -9.08019E-02
   5.81741E-02  1.83652E-01  5.95745E-02  1.96143E-01 -7.74559E-02  2.24028E-01  4.67999E-01  2.18045E-01  3.78630E-01  4.22214E-01
   2.01741E-01  2.26901E-01  1.53994E-01  3.91360E-01  2.26129E-02  8.41924E-02  1.81015E-01 -2.74286E-01  1.87173E-01  9.31254E-02
   2.66477E-01  1.90211E-01  1.89616E-01  4.44115E-02 -5.12580E-01 -3.69682E-02 -3.58739E-01 -3.11647E-01 -3.06292E-01 -4.86293E-01
  -1.37426E-01 -1.60089E-01 -1.95768E-01 -3.79401E-01 -1.44002E-01 -2.91766E-01 -2.17702E-01 -2.17808E-01 -2.07585E-01  2.55571E-01
  -7.43103E-02 -5.53180E-02  1.40520E-01  1.27438E-01 -7.01590E-02  1.10135E-01  1.33146E-01 -8.10855E-02  1.17729E-01 -1.33706E-01
   4.54926E-02  2.18071E-01 -1.69529E-01 -1.59985E-02  9.23428E-02  6.01958E-02  4.05831E-02 -6.01670E-02  3.25421E-01  1.05862E-01
   1.04531E-01  2.60138E-01  1.90976E-02  1.92459E-01  2.34146E-01  1.57025E-01 -6.39791E-02  1.94682E-01  4.13053E-01  2.63964E-01
   6.27074E-02  1.60109E-02  1.07884E-01  8.38922E-02  6.97599E-02 -4.30892E-02  7.46799E-02  7.80672E-02 -3.05776E-02  8.67878E-02
  -1.52981E-02 -3.49341E-01 -8.93527E-02  9.28810E-02 -4.31278E-01 -5.90591E-01 -4.65590E-01 -3.79745E-01 -2.49204E-01 -4.67275E-01
  -2.48584E-01 -2.37953E-01 -1.87654E-01  1.44556E-02 -4.21807E-01 -2.31105E-01 -2.80952E-01 -1.50486E-01 -9.56958E-02 -1.57997E-01
  -5.57995E-02 -3.43880E-01 -2.07914E-02 -1.34643E-02 -1.50271E-01  2.01603E-01  9.54030E-02  7.20954E-02  4.33537E-01  3.60018E-01
   5.91146E-02 -6.45988E-02  2.87781E-01  1.92542E-01  2.20724E-01  2.15079E-01  1.12776E-01  1.54160E-01  1.97508E-01  4.40030E-01
  -1.28791E-02  3.65362E-01  2.69787E-01 -2.29854E-01 -1.38203E-01  7.19472E-02  7.41596E-02 -1.18748E-01 -5.76209E-02  1.03708E-01
   3.82741E-01 -7.54478E-02 -1.59316E-01 -1.59090E-01 -1.87304E-01 -1.64193E-01  1.07412E-01  1.03125E-01 -1.73112E-01  1.77582E-01
   1.92720E-01  6.09403E-02 -9.45503E-02  1.38925E-01  1.48370E-01 -5.40587E-02  2.04575E-02 -1.16801E-03  8.89890E-02  1.07210E-01
   1.30642E-01  3.14637E-01 -1.54787E-01 -9.76855E-02  2.44829E-01  6.26562E-02  1.82582E-02 -2.94502E-02 -5.75131E-03 -8.99529E-02
   5.43988E-02 -1.87743E-01 -1.11054E-01 -1.04430E-01  1.81064E-02  1.21409E-01  6.42350E-02  2.21812E-01 -7.32318E-02 -1.09639E-01
  -1.43315E-02  2.28807E-01 -1.18021E-01 -1.06767E-01 -2.43042E-01 -3.23318E-01 -1.78342E-01 -7.26735E-03  1.90655E-01 -2.96925E-01
   1.19175E-01  1.27581E-01 -1.09573E-01  1.07933E-01 -1.01042E-01 -4.35946E-02  8.87415E-02  1.26365E-03  1.62263E-01  4.25011E-02
  -4.26967E-02  4.16837E-02  2.71740E-01  1.61110E-01  8.89197E-02  1.63942E-02 -1.88760E-02  3.44221E-01  1.42915E-01  1.07388E-01
  -6.06738E-02  3.02247E-02 -3.83251E-01 -2.37530E-01 -1.19974E-01 -1.13393E-01 -6.02364E-03 -3.21471E-01  1.44268E-02  4.70082E-02
   2.51228E-01 -3.07670E-02  3.37435E-01 -2.51150E-01
 NY points of the fit to the data follow
  -1.59297E-02 -1.30066E-02 -1.11433E-02 -1.00449E-02 -8.97358E-03 -7.08529E-03 -5.66667E-03  2.74431E-02  7.81592E-03  1.30538E-01
   1.07681E-01  3.39866E-01  4.68737E-01  4.04754E-01  3.45992E-01  4.79836E-01  6.15570E-01  2.96730E-01  2.83774E-01  6.13385E-02
   1.54528E-01  3.88176E-02  4.88756E-02  1.37181E-02 -2.80628E-02 -3.21083E-02 -5.97548E-02 -6.66546E-02 -8.17267E-02 -8.83358E-02
  -1.02111E-01 -1.14093E-01 -1.30333E-01 -1.59735E-01 -2.08096E-01 -2.01427E-01 -2.75480E-01 -1.58306E-01 -1.97400E-01 -2.75700E-02
   1.06704E-01  7.83379E-02  1.77019E-01  1.24468E-01  2.67898E-01  2.04091E-01  2.56064E-01  1.05628E-01  7.71517E-02 -1.89804E-02
  -2.04636E-02 -7.40783E-02 -7.64655E-02 -1.20797E-01 -1.46947E-01 -1.96711E-01 -2.38169E-01 -3.02628E-01 -3.17015E-01 -3.39522E-01
  -2.97317E-01 -3.11465E-01 -4.57482E-01 -1.73360E-01 -3.69102E-01 -2.38948E-01  3.03156E-01  1.05904E-01  4.30478E-01  4.38342E-01
   4.34257E-01  3.98120E-01  1.32431E-01  1.74452E-01  4.15386E-03 -8.43326E-02 -1.81734E-01 -3.72822E-01 -4.31572E-01 -6.34780E-01
  -5.78763E-01 -1.12620E-01 -3.64561E-02  2.45634E-01  4.21025E-01  5.04893E-01  5.06914E-01  3.35475E-01  3.26237E-01  2.50952E-01
   2.11345E-01  2.14282E-01  1.85883E-01  1.79284E-01  1.44445E-01  1.26684E-01  2.49756E-02  3.59052E-02 -2.15676E-01 -1.74670E-01
  -3.57439E-01 -3.07276E-01 -5.36317E-02 -7.30377E-02  3.40863E-01  2.02953E-01  3.86857E-01  2.51170E-01  2.86799E-01  2.58807E-01
   2.51289E-01  2.57447E-01  2.53985E-01  2.56179E-01  2.57542E-01  2.63582E-01  2.68709E-01  2.67218E-01  2.66267E-01  2.47317E-01
   1.90457E-01  1.83126E-01 -2.19195E-02  1.07508E-02 -6.56778E-02 -2.23836E-01  4.70116E-03 -1.22301E-01 -3.67892E-02 -1.82030E-01
  -2.33062E-01 -2.97614E-01 -3.69235E-01 -3.35576E-01 -4.66587E-01 -5.09787E-01 -1.22697E+00 -1.17342E+00 -7.60789E-01 -4.16910E-01
  -7.04729E-02 -9.59177E-02  7.18234E-02  8.26393E-03  8.63428E-03  2.65183E-02  4.20535E-02  6.08148E-02  7.65936E-02  9.09621E-02
   1.06822E-01  1.22732E-01  1.38323E-01  1.58050E-01  1.76833E-01  2.00788E-01  2.25181E-01  2.53868E-01  2.84119E-01  3.21801E-01
   3.79481E-01  4.70152E-01  5.69070E-01  6.58891E-01  8.00219E-01  6.53537E-01  6.97811E-01  5.16460E-03 -7.70844E-01 -8.83192E-01
  -8.72021E-01 -4.68118E-01 -5.18137E-01 -3.15550E-01 -3.41913E-01 -3.15271E-01 -3.08360E-01 -2.76149E-01 -2.52672E-01 -2.66057E-01
  -2.32497E-01 -2.22114E-01 -2.11311E-01 -2.04103E-01 -2.03647E-01 -1.96342E-01 -1.91887E-01 -1.82169E-01 -1.69459E-01 -1.69795E-01
  -1.56332E-01 -1.49839E-01 -1.38139E-01 -1.29349E-01 -1.19357E-01 -1.11850E-01 -1.03982E-01 -9.45539E-02 -8.51798E-02 -7.58584E-02
  -6.47354E-02 -5.26188E-02 -3.88423E-02 -3.70658E-02 -4.67322E-02 -5.44551E-02 -4.54617E-02 -3.16252E-02 -2.51612E-02 -4.91420E-02
  -7.29791E-02 -7.58633E-02 -7.18389E-02 -6.09463E-02 -4.50396E-02 -3.18227E-02 -1.42953E-02 -3.27114E-04 -6.83819E-03 -2.85189E-02
  -8.98320E-03  5.74326E-03  6.17895E-02  8.31642E-02  1.34990E-01  2.66730E-01  2.33859E-01  2.34687E-01  1.90934E-01  2.35958E-01
   3.97588E-01  2.95985E-01  1.52278E-01  3.69277E-02 -5.59336E-02 -4.79502E-02 -9.16510E-02 -6.22607E-02 -6.59196E-02 -7.28079E-02
  -7.92254E-02 -8.73303E-02 -8.91774E-02 -9.55341E-02 -9.40517E-02 -1.05664E-01 -9.95319E-02 -1.08259E-01 -1.07229E-01 -1.02263E-01
  -1.26340E-01 -9.80128E-02 -1.34426E-01 -1.54231E-01 -9.50375E-02 -1.44696E-01 -3.68389E-02  9.42987E-02 -1.67501E-02  1.34986E-01
   8.91645E-02  1.71253E-01  1.24801E-01  7.71582E-02  1.71981E-01  1.38921E-01  2.03677E-01  1.25810E-01  1.98548E-01  1.09404E-01
   1.32700E-01  5.23824E-02  4.33351E-02  4.91970E-03 -2.54505E-02 -4.30688E-02 -8.62685E-02 -1.27643E-01 -1.63464E-01 -2.43915E-01
  -2.66146E-01 -3.40014E-01 -3.61430E-01 -2.34804E-01 -1.99959E-01  6.62126E-02  1.99027E-01  2.92642E-01  3.94483E-01  2.83780E-01
   2.55646E-01  1.26316E-01  5.55873E-02  9.03552E-02  3.46354E-02  1.39653E-01  1.84338E-01  2.11385E-01  2.88500E-01  2.30967E-01
   2.67360E-01  2.07821E-01  2.13501E-01  1.96490E-01  1.83640E-01  1.77028E-01  1.47879E-01  1.29477E-01  9.09568E-02  3.38238E-02
   5.10424E-02 -2.80932E-02  1.85355E-02  7.13863E-03 -4.04703E-04  1.71421E-02 -5.20203E-02 -8.42022E-02 -1.54450E-01 -1.82552E-01
  -2.01286E-01 -1.75419E-01 -1.88731E-01 -1.06388E-01 -1.12083E-01 -2.10293E-02  7.26890E-03  9.55563E-02  1.20959E-01  1.44964E-01
   1.14359E-01  4.04090E-02 -8.75625E-03 -1.49267E-01 -2.25271E-01 -2.97974E-01 -4.69643E-01 -4.68108E-01 -3.20917E-01 -3.83166E-01
  -6.77139E-01 -9.25245E-01 -1.92664E+00 -1.73723E+00 -9.31597E-01 -4.23669E-01  1.02154E-01 -4.17620E-02  1.84879E-01  2.57043E-02
   3.65173E-03  6.83184E-03  1.48551E-02  2.41252E-02  3.55992E-02  4.56199E-02  5.05922E-02  6.19010E-02  2.83906E-02  4.05039E-02
  -4.23449E-02 -5.58978E-02 -1.10103E-01 -1.64709E-01 -1.25438E-01 -1.75313E-01 -8.55495E-02 -1.03661E-01 -3.77076E-02 -3.20193E-02
  -8.64944E-03  5.85713E-03  1.50919E-02  2.47145E-02  2.62450E-02  3.33666E-02  3.66543E-02  4.42651E-02  4.92554E-02  5.34143E-02
   5.72977E-02  6.10354E-02  6.58368E-02  7.19021E-02  7.38051E-02  7.78590E-02  7.90455E-02  8.16293E-02  8.87062E-02  9.22048E-02
   9.95411E-02  1.00698E-01  1.02886E-01  1.00145E-01  9.69531E-02  9.53523E-02  9.23415E-02  8.95982E-02  8.53205E-02  8.01728E-02
   7.24766E-02  6.67901E-02  5.87209E-02  5.09215E-02  4.30735E-02  3.79994E-02  3.28515E-02  2.54999E-02  1.97926E-02  1.56559E-02
   1.01339E-02  6.91057E-03  4.87067E-03  6.98262E-04 -1.99208E-03 -6.15232E-03 -9.72333E-03 -1.27549E-02 -1.53017E-02 -1.66566E-02
  -1.70978E-02 -1.92543E-02 -1.70535E-02 -1.49140E-02 -1.16051E-02 -8.55624E-03 -2.16228E-03  1.64094E-03  8.21007E-03  1.78265E-02
   1.90389E-02  3.71254E-02  3.45210E-02  6.95028E-02  8.14337E-02  8.14513E-02  9.13051E-02  6.40636E-02  7.30350E-02  6.48292E-02
   8.57037E-02  9.79101E-02  1.15288E-01  1.28878E-01  1.44386E-01  1.55319E-01  1.68865E-01  1.76525E-01  1.82458E-01  1.85848E-01
   1.83235E-01  1.85980E-01  1.81523E-01  1.80469E-01  1.76706E-01  1.68473E-01  1.60274E-01  1.46167E-01  1.34372E-01  1.22134E-01
   1.12724E-01  1.02322E-01  9.27682E-02  8.31819E-02  7.21692E-02  6.82740E-02  5.77261E-02  5.44644E-02  4.54557E-02  4.28605E-02
   3.78896E-02  3.40950E-02  3.17753E-02  3.01622E-02  3.19965E-02  3.58566E-02  4.01406E-02  4.31547E-02  4.91563E-02  5.42471E-02
   5.99904E-02  6.87746E-02  7.33766E-02  7.93011E-02  8.01749E-02  8.35002E-02  8.46525E-02  8.54949E-02  9.03205E-02  9.23350E-02
   9.43010E-02  9.21592E-02  9.06374E-02  8.68813E-02  8.53382E-02  8.00859E-02  7.56923E-02  7.32008E-02  6.93881E-02  6.77082E-02
   6.26566E-02  5.99743E-02  5.63998E-02  5.23005E-02  4.75677E-02  4.47221E-02  3.96125E-02  3.80132E-02  3.70985E-02  3.35560E-02
   3.01786E-02  2.49308E-02  2.06384E-02  1.33206E-02  3.27461E-03 -5.29927E-03 -1.45336E-02 -2.55737E-02 -3.82659E-02 -5.63430E-02
  -7.66633E-02 -9.90553E-02 -1.17255E-01 -1.35371E-01 -1.53160E-01 -1.69137E-01 -1.84073E-01 -1.95287E-01 -2.06183E-01 -2.14777E-01
  -2.17357E-01 -2.14861E-01 -2.12438E-01 -2.09374E-01 -2.03805E-01 -1.93410E-01 -1.85501E-01 -1.78766E-01 -1.72240E-01 -1.65742E-01
  -1.60332E-01 -1.50944E-01 -1.39916E-01 -1.31247E-01 -1.17983E-01 -1.09112E-01 -9.38436E-02 -8.68242E-02 -7.50474E-02 -6.46194E-02
  -5.74880E-02 -4.69842E-02 -3.79324E-02 -3.06099E-02 -2.46915E-02 -1.87093E-02 -1.19932E-02 -3.40087E-03 -2.86096E-03  1.13205E-03
   5.40595E-03  9.59198E-03  1.11053E-02  1.39219E-02  1.43978E-02  1.59449E-02  1.80037E-02  1.90734E-02  1.87471E-02  1.83403E-02
   2.34200E-02  2.49438E-02  2.78733E-02  3.09425E-02  3.24151E-02  3.22751E-02  3.06454E-02  3.20828E-02  3.06068E-02  3.02675E-02
   3.08442E-02  2.95709E-02  2.98558E-02  2.99066E-02  2.88904E-02  3.10704E-02  3.13693E-02  3.19642E-02  3.21637E-02  2.91235E-02
   2.35581E-02  2.35280E-02  2.64533E-02  2.69475E-02  2.67721E-02  2.39067E-02  2.58550E-02  2.21121E-02  2.08261E-02  2.06449E-02
   2.21683E-02  2.72241E-02  2.51398E-02  2.75696E-02  2.65444E-02  2.87721E-02  2.96375E-02  3.01418E-02  3.08609E-02  3.09876E-02
   3.14048E-02  2.93731E-02  2.57273E-02  2.63967E-02  2.74373E-02  2.81200E-02  3.06591E-02  3.04194E-02  3.22153E-02  3.23984E-02
   2.98240E-02  3.73883E-02  3.79508E-02  3.93547E-02  3.95709E-02  3.31408E-02  3.27477E-02  3.10781E-02  3.29802E-02  3.51414E-02
   3.37360E-02  3.26625E-02  3.08663E-02  3.17681E-02  3.00770E-02  3.27049E-02  2.97355E-02  3.01566E-02  3.15851E-02  3.30467E-02
   3.29969E-02  3.04997E-02  3.29588E-02  3.08060E-02  3.38796E-02  3.37152E-02  3.55686E-02  4.20539E-02  4.22369E-02  4.58554E-02
   4.38390E-02  4.41058E-02  4.59309E-02  4.47024E-02
 NY background values follow
     1.667E-02    1.688E-02    1.708E-02    1.728E-02    1.749E-02    1.769E-02    1.789E-02    1.810E-02    1.830E-02    1.851E-02
     1.871E-02    1.891E-02    1.912E-02    1.932E-02    1.952E-02    1.973E-02    1.993E-02    2.013E-02    2.034E-02    2.054E-02
     2.074E-02    2.095E-02    2.115E-02    2.135E-02    2.155E-02    2.176E-02    2.196E-02    2.216E-02    2.236E-02    2.256E-02
     2.276E-02    2.297E-02    2.317E-02    2.337E-02    2.357E-02    2.377E-02    2.397E-02    2.417E-02    2.437E-02    2.457E-02
     2.477E-02    2.496E-02    2.516E-02    2.536E-02    2.556E-02    2.576E-02    2.595E-02    2.615E-02    2.635E-02    2.654E-02
     2.674E-02    2.693E-02    2.713E-02    2.732E-02    2.752E-02    2.771E-02    2.790E-02    2.810E-02    2.829E-02    2.848E-02
     2.867E-02    2.887E-02    2.906E-02    2.925E-02    2.944E-02    2.963E-02    2.981E-02    3.000E-02    3.019E-02    3.038E-02
