 LCModel (Version 6.3-1N) Copyright: S.W. Provencher.          Ref.: Magn. Reson. Med. 30:672-679 (1993).                
 Slice_N1@13_22  02-Jun-2023 14:36:51
 27 lines in following concentration table = NCONC+1
    Conc.  %SD /Cr+PCr  Metabolite                                         
 2.48E-06  16% 3.4E-04 Mac                                                 
 5.20E-02  19%   7.211 Cr                                                  
 5.69E-03 186%   0.789 PCr                                                 
 6.03E-02  16%   8.354 Ins                                                 
 7.60E-02   9%  10.537 NAA                                                 
 5.78E-02  15%   8.014 Tau                                                 
    0.000 999%   0.000 PCho                                                
 1.01E-02  19%   1.407 GPC                                                 
 5.97E-02  18%   8.274 Glu                                                 
 1.25E-02  56%   1.735 Gln                                                 
    0.000 999%   0.000 Ala                                                 
 3.12E-02  48%   4.322 Asc                                                 
 3.12E-03 242%   0.432 Asp                                                 
 2.00E-03 205%   0.277 GABA                                                
 7.48E-03  65%   1.036 Glc                                                 
 6.35E-03  53%   0.879 GSH                                                 
    0.000 999%   0.000 Lac                                                 
 4.11E-03 123%   0.569 NAAG                                                
    0.000 999%   0.000 PE                                                  
 1.01E-02  19%   1.407 GPC+PCho                                            
 8.01E-02  11%  11.106 NAA+NAAG                                            
 7.22E-02  17%  10.009 Glu+Gln                                             
 5.77E-02  12%   8.000 Cr+PCr                                              
 8.01E-02  11%  11.106 NAA+NAAG                                            
 5.77E-02  12%   8.000 Cr+PCr                                              
 7.22E-02  17%  10.009 Glu+Gln                                             
   6 lines in following misc. output table
  FWHM = 0.017 ppm    S/N =   4                                            
  Data shift = 0.017 ppm                                                   
  Ph:   3 deg      -5.6 deg/ppm                                            
  alphaB,S = 3.1E+01,   1.2E+01                                            
   18 spline knots.   Ns = 5(1)                                            
   2 inflections.     1 extrema                                            
  654 points on ppm-axis = NY
      4.000000     3.994181     3.988363     3.982544     3.976726     3.970907     3.965088     3.959270     3.953451     3.947633
      3.941814     3.935995     3.930177     3.924358     3.918540     3.912721     3.906902     3.901084     3.895265     3.889446
      3.883628     3.877809     3.871991     3.866172     3.860353     3.854535     3.848716     3.842898     3.837079     3.831260
      3.825442     3.819623     3.813805     3.807986     3.802167     3.796349     3.790530     3.784712     3.778893     3.773074
      3.767256     3.761437     3.755619     3.749800     3.743981     3.738163     3.732344     3.726526     3.720707     3.714888
      3.709070     3.703251     3.697433     3.691614     3.685795     3.679977     3.674158     3.668339     3.662521     3.656702
      3.650884     3.645065     3.639246     3.633428     3.627609     3.621791     3.615972     3.610153     3.604335     3.598516
      3.592698     3.586879     3.581060     3.575242     3.569423     3.563605     3.557786     3.551967     3.546149     3.540330
      3.534512     3.528693     3.522874     3.517056     3.511237     3.505419     3.499600     3.493781     3.487963     3.482144
      3.476326     3.470507     3.464688     3.458870     3.453051     3.447232     3.441414     3.435595     3.429777     3.423958
      3.418139     3.412321     3.406502     3.400684     3.394865     3.389046     3.383228     3.377409     3.371591     3.365772
      3.359953     3.354135     3.348316     3.342498     3.336679     3.330860     3.325042     3.319223     3.313405     3.307586
      3.301767     3.295949     3.290130     3.284312     3.278493     3.272674     3.266856     3.261037     3.255219     3.249400
      3.243581     3.237763     3.231944     3.226125     3.220307     3.214488     3.208670     3.202851     3.197032     3.191214
      3.185395     3.179577     3.173758     3.167939     3.162121     3.156302     3.150484     3.144665     3.138846     3.133028
      3.127209     3.121391     3.115572     3.109753     3.103935     3.098116     3.092298     3.086479     3.080660     3.074842
      3.069023     3.063205     3.057386     3.051567     3.045749     3.039930     3.034111     3.028293     3.022474     3.016656
      3.010837     3.005018     2.999200     2.993381     2.987563     2.981744     2.975925     2.970107     2.964288     2.958470
      2.952651     2.946832     2.941014     2.935195     2.929377     2.923558     2.917739     2.911921     2.906102     2.900284
      2.894465     2.888646     2.882828     2.877009     2.871191     2.865372     2.859553     2.853735     2.847916     2.842098
      2.836279     2.830460     2.824642     2.818823     2.813004     2.807186     2.801367     2.795549     2.789730     2.783911
      2.778093     2.772274     2.766456     2.760637     2.754818     2.749000     2.743181     2.737363     2.731544     2.725725
      2.719907     2.714088     2.708270     2.702451     2.696632     2.690814     2.684995     2.679177     2.673358     2.667539
      2.661721     2.655902     2.650084     2.644265     2.638446     2.632628     2.626809     2.620991     2.615172     2.609353
      2.603535     2.597716     2.591897     2.586079     2.580260     2.574442     2.568623     2.562804     2.556986     2.551167
      2.545349     2.539530     2.533711     2.527893     2.522074     2.516256     2.510437     2.504618     2.498800     2.492981
      2.487163     2.481344     2.475525     2.469707     2.463888     2.458070     2.452251     2.446432     2.440614     2.434795
      2.428977     2.423158     2.417339     2.411521     2.405702     2.399884     2.394065     2.388246     2.382428     2.376609
      2.370790     2.364972     2.359153     2.353335     2.347516     2.341697     2.335879     2.330060     2.324242     2.318423
      2.312604     2.306786     2.300967     2.295149     2.289330     2.283511     2.277693     2.271874     2.266056     2.260237
      2.254418     2.248600     2.242781     2.236963     2.231144     2.225325     2.219507     2.213688     2.207870     2.202051
      2.196232     2.190414     2.184595     2.178777     2.172958     2.167139     2.161321     2.155502     2.149683     2.143865
      2.138046     2.132228     2.126409     2.120590     2.114772     2.108953     2.103135     2.097316     2.091497     2.085679
      2.079860     2.074042     2.068223     2.062404     2.056586     2.050767     2.044949     2.039130     2.033311     2.027493
      2.021674     2.015856     2.010037     2.004218     1.998400     1.992581     1.986763     1.980944     1.975126     1.969307
      1.963489     1.957670     1.951852     1.946033     1.940215     1.934397     1.928578     1.922760     1.916941     1.911123
      1.905304     1.899486     1.893667     1.887849     1.882030     1.876212     1.870393     1.864575     1.858756     1.852938
      1.847119     1.841301     1.835482     1.829664     1.823845     1.818027     1.812208     1.806390     1.800571     1.794753
      1.788934     1.783116     1.777297     1.771479     1.765660     1.759842     1.754023     1.748205     1.742386     1.736568
      1.730749     1.724931     1.719113     1.713294     1.707476     1.701657     1.695839     1.690020     1.684202     1.678383
      1.672565     1.666746     1.660928     1.655109     1.649291     1.643472     1.637654     1.631835     1.626017     1.620198
      1.614380     1.608561     1.602743     1.596924     1.591106     1.585287     1.579469     1.573650     1.567832     1.562013
      1.556195     1.550376     1.544558     1.538739     1.532921     1.527102     1.521284     1.515465     1.509647     1.503829
      1.498010     1.492192     1.486373     1.480555     1.474736     1.468918     1.463099     1.457281     1.451462     1.445644
      1.439825     1.434007     1.428188     1.422370     1.416551     1.410733     1.404914     1.399096     1.393277     1.387459
      1.381640     1.375822     1.370003     1.364185     1.358366     1.352548     1.346729     1.340911     1.335092     1.329274
      1.323455     1.317637     1.311818     1.306000     1.300182     1.294363     1.288545     1.282726     1.276908     1.271089
      1.265271     1.259452     1.253634     1.247815     1.241997     1.236178     1.230360     1.224541     1.218723     1.212904
      1.207086     1.201267     1.195449     1.189630     1.183812     1.177993     1.172175     1.166356     1.160538     1.154719
      1.148901     1.143082     1.137264     1.131445     1.125627     1.119808     1.113990     1.108171     1.102353     1.096534
      1.090716     1.084898     1.079079     1.073261     1.067442     1.061624     1.055805     1.049987     1.044168     1.038350
      1.032531     1.026713     1.020894     1.015076     1.009257     1.003439     0.997620     0.991802     0.985983     0.980165
      0.974346     0.968528     0.962709     0.956891     0.951072     0.945254     0.939435     0.933617     0.927798     0.921980
      0.916161     0.910343     0.904524     0.898706     0.892887     0.887069     0.881251     0.875432     0.869614     0.863795
      0.857977     0.852158     0.846340     0.840521     0.834703     0.828884     0.823066     0.817247     0.811429     0.805610
      0.799792     0.793973     0.788155     0.782336     0.776518     0.770699     0.764881     0.759062     0.753244     0.747425
      0.741607     0.735788     0.729970     0.724151     0.718333     0.712514     0.706696     0.700877     0.695059     0.689240
      0.683422     0.677603     0.671785     0.665967     0.660148     0.654330     0.648511     0.642693     0.636874     0.631056
      0.625237     0.619419     0.613600     0.607782     0.601963     0.596145     0.590326     0.584508     0.578689     0.572871
      0.567052     0.561234     0.555415     0.549597     0.543778     0.537960     0.532141     0.526323     0.520504     0.514686
      0.508867     0.503049     0.497230     0.491412     0.485593     0.479775     0.473956     0.468138     0.462319     0.456501
      0.450682     0.444864     0.439045     0.433227     0.427408     0.421590     0.415771     0.409953     0.404134     0.398316
      0.392497     0.386679     0.380860     0.375042     0.369223     0.363405     0.357586     0.351767     0.345949     0.340130
      0.334312     0.328493     0.322675     0.316856     0.311038     0.305219     0.299401     0.293582     0.287764     0.281945
      0.276127     0.270308     0.264490     0.258671     0.252853     0.247034     0.241216     0.235397     0.229579     0.223760
      0.217942     0.212123     0.206305     0.200486
 NY phased data points follow
  -1.70384E-01 -2.85333E-01 -1.08730E-01 -5.83363E-02  1.84576E-01 -1.34333E-01 -8.41220E-02  2.71298E-02 -2.27137E-01  7.04824E-02
  -2.52610E-01  7.13512E-01  3.18545E-01  3.81438E-02  9.27793E-01  6.11653E-01  5.88260E-01  3.08223E-01  1.76818E-01 -3.48664E-01
   1.62744E-01  4.43005E-01 -2.80315E-02  1.53122E-01 -2.13976E-01 -1.41722E-01 -2.64029E-01 -4.30527E-02  1.19525E-01  1.99433E-02
   7.95983E-02 -2.39462E-01 -3.26588E-02 -3.24600E-01 -3.33952E-01 -3.82476E-01 -8.38627E-01 -3.41807E-01 -6.58329E-01 -1.66340E-01
   3.57290E-01 -1.42581E-01  1.49689E-01  1.67079E-01  2.35843E-01  1.29730E-01  1.64596E-01  1.15542E-01 -5.73870E-02 -3.53235E-02
   2.15390E-01  4.82031E-01  2.50985E-01  1.92895E-01 -4.15895E-02 -1.25780E-01  1.38392E-01 -1.64992E-01 -2.72546E-01  1.56130E-01
  -1.58731E-01 -1.18385E-01 -4.81490E-02 -7.99623E-03 -4.31893E-01 -3.21461E-01  2.24214E-01  2.38918E-01  8.68250E-01  3.45520E-01
   2.72598E-01  1.88014E-01  4.63065E-02  1.05008E-02  3.18273E-03 -7.77643E-02 -4.65406E-02 -8.44433E-02 -7.36465E-01 -3.27554E-01
  -2.52467E-01  2.49497E-01 -1.16225E-01 -3.74223E-03  2.02048E-01 -1.54592E-01  1.76773E-01  2.57498E-01  6.95952E-01  1.39556E-01
   8.72645E-02  3.88160E-01  7.24590E-02 -1.53161E-01 -7.32817E-02 -2.88347E-01 -3.39023E-01 -1.79432E-01 -4.18234E-01 -6.86736E-01
  -3.38840E-01  3.36777E-03  6.37356E-02  2.67121E-01  3.08346E-01  4.66260E-01  3.19060E-01  6.12806E-01  5.16939E-02 -4.04054E-02
   4.02602E-01  4.12093E-01  2.61821E-01  1.20549E-01  4.08677E-01  3.00993E-01  3.44208E-01  3.24885E-01  6.73995E-01  4.27712E-02
   2.23588E-01  5.13486E-01 -3.25690E-01 -2.79462E-01 -1.70091E-01 -2.21947E-01 -1.63639E-01 -4.44481E-01 -5.53364E-01 -3.89958E-01
  -4.59189E-01 -1.14561E-01 -4.72080E-01 -7.77696E-02 -4.37481E-01 -9.89238E-01 -4.90754E-01 -4.75966E-01 -1.95836E-01 -2.81193E-02
  -2.41701E-01 -5.27771E-01  1.65411E-03  4.52943E-03 -2.04815E-02  1.99054E-02 -8.20955E-02 -1.23710E-01  3.40945E-01  5.19042E-02
   8.26176E-02  6.96573E-01  1.38820E-01  1.04085E-02 -2.26088E-01  2.60533E-01  3.39801E-01  2.23936E-01  7.63339E-02  6.13316E-01
   4.86392E-01  1.62470E-01  5.08192E-01 -4.49755E-02  5.82867E-01  7.09041E-01  4.11808E-01 -7.41932E-01 -1.07111E+00 -1.09409E+00
  -8.97861E-01 -5.06336E-01 -7.43046E-01 -5.80944E-02 -3.60671E-01 -3.51922E-02 -2.36950E-01 -3.24698E-01 -1.06181E-01 -1.44090E-01
  -8.57943E-02 -6.30144E-01 -1.75450E-02 -2.95242E-01 -3.69145E-01  7.46676E-02 -4.19952E-01 -2.47704E-01 -1.91858E-01 -2.50664E-01
  -8.65968E-03 -1.81764E-01 -4.02193E-01 -1.22697E-01 -2.90775E-01 -4.34533E-01 -1.92964E-01 -1.69822E-01  2.04026E-01 -1.93265E-01
  -2.98820E-01  2.66285E-01  2.26332E-01 -1.35821E-01 -8.89867E-02 -3.30054E-01 -5.61097E-01  3.05839E-01  5.02323E-02  1.02792E-01
  -3.54119E-02  8.12743E-02  4.58188E-01 -2.95185E-01  2.87717E-01  2.12077E-01  1.00108E-01 -5.10063E-02 -2.36448E-01  1.73420E-01
  -7.79799E-02 -1.39945E-01 -2.70383E-01 -1.64238E-01 -3.14560E-02  3.09402E-01  1.01670E-01 -9.42994E-02  1.21846E-01  1.93110E-01
   4.63084E-01  1.13049E-01  4.90850E-02  1.29221E-01  2.12516E-01 -3.83619E-02 -1.91119E-01 -6.09039E-03  4.57907E-02 -1.56491E-01
  -2.53395E-01  8.40152E-02 -1.34572E-01 -5.48550E-02  1.69740E-01  2.63103E-01 -5.81344E-02 -1.79890E-01 -1.05011E-01  2.41216E-01
   4.27492E-01  2.12325E-01  1.58767E-01 -1.69789E-01 -9.75303E-02 -3.55743E-01  8.05547E-02  7.77352E-02  1.67758E-01  2.89002E-01
  -3.97331E-01  1.96785E-02  3.69015E-01  7.15708E-02  1.03616E-01  5.45701E-01  1.69966E-02 -9.09420E-02  6.61758E-01  3.23887E-01
  -4.15189E-01 -5.69152E-02 -1.97733E-01  1.74180E-01  9.67294E-03 -1.87639E-01  9.47390E-02 -6.17528E-01  6.70702E-02 -1.76965E-01
  -6.56012E-02 -2.13666E-01 -4.29009E-01  8.74033E-02  2.94195E-01  4.72699E-01  2.97964E-01  4.09390E-01  3.22523E-01  3.57869E-01
   2.55088E-02  2.54702E-01  2.32432E-01  5.60383E-01  4.11669E-01  3.05753E-01  3.42527E-01  1.89953E-01  5.85610E-01  2.60354E-01
   4.47017E-01 -9.70527E-03  1.43493E-01  4.63795E-01  4.61405E-02  2.73203E-01  6.12927E-01  2.99770E-01  5.98945E-01  3.99875E-01
   1.08128E-01  4.77536E-01  1.65694E-01  2.38731E-01  1.06681E-01 -3.12472E-02 -2.49974E-01 -9.29098E-02 -4.11031E-01  8.22470E-02
   2.03568E-01 -5.81474E-01 -6.82595E-02  5.40573E-02 -1.76228E-01 -3.80797E-02 -9.20040E-02 -2.84809E-01 -6.93076E-02 -4.47935E-02
   5.11763E-01  1.62455E-01  3.78987E-02  1.15617E-02 -2.50293E-01 -3.42743E-01 -4.29132E-01 -3.74611E-01 -4.52313E-01  8.87356E-02
  -3.95114E-01 -1.19666E+00 -2.40687E+00 -1.61843E+00 -6.76322E-01 -6.26497E-01 -1.30238E-01 -1.48103E-02  1.20625E-01 -8.41258E-02
   1.61913E-01  2.19654E-02 -1.64521E-01 -1.59452E-01  1.22149E-01 -2.44517E-01  2.45742E-01  3.67709E-01  2.04552E-01  2.67716E-01
  -7.45708E-03  2.03761E-01 -3.51049E-02  4.90218E-01  1.69528E-01  6.50716E-02 -1.63711E-01 -6.45806E-02  2.33276E-01 -3.80027E-01
  -8.41070E-02  3.75133E-01 -6.52622E-02 -1.16912E-01  6.73402E-02 -9.24218E-02  6.74876E-01  3.78584E-01  3.60252E-01  2.14678E-01
   7.44863E-03  2.51912E-01  5.25604E-02  3.90741E-01  2.82697E-01  1.15279E-01 -6.13161E-02  1.72526E-01  2.35872E-01 -9.19956E-02
  -1.30475E-01  1.68720E-01  3.95150E-01 -1.82508E-01 -1.05535E-01  3.70479E-01 -1.32355E-01 -2.23847E-02  2.09826E-01  9.71058E-02
   3.04187E-01 -3.45409E-02 -7.13800E-02 -2.15481E-03 -2.31560E-01 -2.33333E-02 -2.56890E-01 -3.07486E-01  1.11269E-01 -1.27122E-01
  -8.77734E-02 -1.89494E-01 -1.83587E-01 -2.74874E-01 -3.44437E-01 -1.56703E-01 -3.56686E-01 -2.45795E-01 -7.48335E-02  1.23595E-02
  -2.91400E-01 -1.40795E-01 -1.51549E-02 -2.79131E-01 -2.78201E-01 -4.51389E-01 -4.42963E-01 -2.27891E-02 -3.50073E-01 -8.11157E-02
   3.72468E-01  1.92530E-01 -2.37089E-02 -3.41470E-01  3.89764E-01  8.15903E-03 -1.05939E-01 -4.31342E-03 -1.58174E-01 -3.01196E-01
  -1.75361E-01  1.55192E-01 -3.78630E-01  3.51458E-01  4.02452E-01  2.65751E-01  6.32928E-01  1.91253E-01 -9.17685E-05  5.71769E-01
   3.28244E-01  2.47796E-01  2.95679E-01  2.32580E-01  4.11684E-01  2.89716E-01  4.61709E-01  2.14402E-01  3.21702E-01  1.38043E-01
   5.02993E-01  2.04708E-01 -6.77647E-02  1.73368E-01  5.93729E-02 -1.11960E-01 -4.67156E-01 -5.93718E-02 -9.84915E-03 -1.06554E-01
  -3.66227E-01  2.38443E-01 -1.84599E-01 -1.40811E-01  1.02430E-01 -3.83110E-01  3.34141E-03 -4.59824E-01 -1.57959E-01  1.17595E-01
  -1.09366E-01  4.59978E-02  1.39060E-02 -2.03418E-01  5.73311E-02 -9.11441E-02  3.39929E-02  2.36146E-01  1.95374E-01  1.77887E-01
   6.08682E-03 -1.05136E-01  1.10047E-01  4.96496E-01  9.79743E-03  2.05276E-01 -4.03739E-01 -3.90929E-01 -8.61143E-05 -3.26304E-01
  -2.67735E-01 -2.38581E-01  2.51951E-01  3.62636E-01  2.42571E-01  2.62431E-01  1.35136E-01 -8.68546E-02  5.41246E-01 -6.28770E-02
   9.22180E-02  2.40324E-01 -3.31682E-01  1.77972E-01  1.73700E-01  2.84116E-01 -1.98449E-01  1.99025E-01  4.23400E-02  1.18863E-02
   9.72671E-02 -2.17835E-01  2.12783E-01 -2.05977E-01 -2.40519E-01 -2.66898E-01 -3.24284E-01 -3.02426E-01 -2.73152E-01 -6.00869E-01
  -2.72783E-01 -2.90702E-01 -6.15260E-01 -1.13814E-01 -3.64375E-01  2.06850E-01  1.70393E-01  1.11100E-01  7.70057E-02 -3.61803E-01
   2.08191E-01  1.46901E-01 -4.14672E-02 -2.55967E-01 -9.58739E-02 -3.80218E-02 -5.30993E-02 -1.16539E-01 -2.12995E-01  1.73999E-01
   8.81836E-02  2.67810E-01  1.53365E-01 -1.99111E-03 -2.77974E-02  3.34439E-01  3.65676E-01  1.70071E-01  5.38376E-01 -2.16312E-02
  -9.59330E-02 -2.14452E-01 -2.94343E-01  3.88148E-02 -1.60761E-01  4.79414E-02  1.18332E-01  4.27146E-02  3.18150E-01  4.29245E-02
  -7.68017E-02  3.38761E-01  2.52557E-02  4.34455E-03  2.13698E-01  4.80875E-02  8.02652E-02  5.60575E-02  2.87809E-01  4.74566E-01
   1.96539E-02 -1.20807E-01  2.07033E-01  9.66331E-02  2.54977E-01  4.08605E-01  2.19546E-01  7.31053E-02 -1.61147E-01 -9.56304E-02
  -2.57670E-01  1.86392E-01  8.11188E-02 -1.95643E-01  4.98754E-01  2.22294E-01  2.08770E-01 -2.95838E-02 -2.93285E-02  1.41733E-01
   2.70161E-01  1.44864E-01 -2.10102E-01  4.78592E-01  2.63931E-01  1.11777E-01 -1.36294E-01 -6.08120E-02  1.88425E-01  1.13605E-01
   1.73217E-01  3.35024E-02  3.00945E-01  3.97923E-01  2.42857E-01  7.31462E-02  3.80475E-01 -2.88187E-01 -4.39829E-01  1.17012E-01
   1.14780E-01  2.92782E-01  4.41873E-01  2.41656E-01 -1.84621E-01  4.22009E-02  2.93807E-01  1.78528E-01 -2.05434E-01  4.43189E-01
   2.15372E-01 -3.50581E-02  1.06835E-01 -2.34837E-01  3.97161E-02 -2.95448E-01  7.67554E-02  6.20265E-02  5.26711E-02 -1.39853E-01
  -7.58427E-02 -7.38514E-02 -4.70874E-01  2.62172E-01  4.90905E-01  2.37586E-01 -3.53659E-01  3.60645E-01  2.76026E-01  5.48389E-03
   4.32254E-01  1.20605E-01 -3.02343E-02 -2.74157E-01
 NY points of the fit to the data follow
   1.36900E-01  1.03095E-01  6.56402E-02  3.66703E-02  3.02404E-02  3.47687E-02  4.42064E-02  5.12521E-02  4.80247E-02  6.63757E-02
   1.40874E-01  2.03714E-01  2.32865E-01  3.96623E-01  6.55704E-01  7.28466E-01  5.31725E-01  3.03182E-01  1.52727E-01  7.13265E-02
   4.03087E-02  1.77079E-02 -5.76736E-03 -3.03637E-02 -5.02700E-02 -6.82541E-02 -8.42089E-02 -9.84433E-02 -1.10672E-01 -1.20964E-01
  -1.28083E-01 -1.39396E-01 -1.58234E-01 -1.82113E-01 -2.10940E-01 -2.23947E-01 -2.47406E-01 -2.33681E-01 -1.90902E-01 -1.07665E-01
  -4.71473E-02  7.94489E-03  7.96002E-02  1.52783E-01  2.32575E-01  2.83658E-01  3.01243E-01  2.58370E-01  2.08581E-01  1.72520E-01
   1.27528E-01  8.39371E-02  4.68794E-02  1.17509E-02 -3.14247E-02 -8.24581E-02 -1.15719E-01 -1.11179E-01 -8.70326E-02 -8.29669E-02
  -1.44393E-01 -1.90373E-01 -2.13894E-01 -2.35485E-01 -1.75633E-01 -2.32140E-02  1.15348E-01  1.99672E-01  3.14148E-01  3.51938E-01
   3.03555E-01  2.40330E-01  1.66125E-01  1.02717E-01  3.54427E-02 -4.59464E-02 -1.10555E-01 -2.15332E-01 -3.81709E-01 -4.29006E-01
  -2.76500E-01 -9.20836E-02  2.72306E-02  1.85600E-01  3.22241E-01  3.53054E-01  3.28096E-01  2.77719E-01  2.31138E-01  1.96915E-01
   1.72560E-01  1.47607E-01  1.14175E-01  6.73853E-02  1.74086E-02 -8.90526E-02 -1.97512E-01 -3.36916E-01 -4.07594E-01 -3.94857E-01
  -2.45133E-01 -5.18373E-02  1.14301E-01  2.26824E-01  2.46759E-01  2.48521E-01  2.31212E-01  2.23343E-01  2.18387E-01  2.17639E-01
   2.16314E-01  2.13695E-01  2.09779E-01  2.06230E-01  2.03302E-01  2.02179E-01  2.01182E-01  1.96763E-01  1.82308E-01  1.79351E-01
   1.40391E-01  6.98377E-02  1.39528E-02 -5.17582E-02 -1.02001E-01 -1.97224E-01 -2.57278E-01 -4.16317E-01 -5.44346E-01 -6.22082E-01
  -5.77391E-01 -5.03005E-01 -3.26370E-01 -2.75131E-01 -5.40513E-01 -8.27281E-01 -7.49819E-01 -4.76584E-01 -2.78962E-01 -1.23686E-01
  -6.20153E-02 -2.07880E-02 -1.77818E-03  2.16119E-02  4.41280E-02  6.46160E-02  8.31290E-02  9.93204E-02  1.13275E-01  1.26078E-01
   1.39444E-01  1.51845E-01  1.64768E-01  1.79166E-01  1.95243E-01  2.13323E-01  2.34188E-01  2.56597E-01  2.80564E-01  3.11873E-01
   3.58127E-01  4.27574E-01  5.30794E-01  5.20061E-01  6.79808E-01  7.51604E-01  3.25879E-01 -5.29369E-01 -9.89881E-01 -9.32322E-01
  -7.57408E-01 -5.36989E-01 -4.19262E-01 -3.52424E-01 -3.29683E-01 -3.04450E-01 -2.82643E-01 -2.70974E-01 -2.65429E-01 -2.51578E-01
  -2.33962E-01 -2.19016E-01 -2.08660E-01 -1.99880E-01 -1.93839E-01 -1.86488E-01 -1.75960E-01 -1.66222E-01 -1.58240E-01 -1.50745E-01
  -1.41450E-01 -1.32499E-01 -1.23078E-01 -1.14119E-01 -1.05800E-01 -9.83423E-02 -9.05642E-02 -8.27354E-02 -7.64545E-02 -7.05062E-02
  -6.42003E-02 -5.80588E-02 -5.48986E-02 -5.53345E-02 -5.59536E-02 -5.29147E-02 -4.71546E-02 -4.51674E-02 -4.79258E-02 -5.07704E-02
  -4.94315E-02 -4.53037E-02 -4.02240E-02 -3.56485E-02 -3.10037E-02 -2.59181E-02 -2.20608E-02 -2.22130E-02 -2.54571E-02 -2.48486E-02
  -1.42142E-02  2.14862E-03  2.01255E-02  5.70812E-02  1.44311E-01  2.41891E-01  2.48004E-01  1.93175E-01  2.15689E-01  3.09285E-01
   3.24525E-01  2.25625E-01  1.05283E-01  1.75314E-02 -2.87641E-02 -4.55779E-02 -5.11258E-02 -5.49703E-02 -6.16260E-02 -6.99851E-02
  -7.69243E-02 -8.20767E-02 -8.41028E-02 -8.63991E-02 -8.84076E-02 -9.10280E-02 -9.23370E-02 -9.37655E-02 -9.59003E-02 -9.79385E-02
  -1.04907E-01 -1.18992E-01 -1.27198E-01 -1.41923E-01 -1.53556E-01 -1.11063E-01 -5.16575E-02 -3.98144E-03  1.23988E-02  6.44676E-02
   1.16607E-01  1.31502E-01  1.12284E-01  1.05867E-01  1.48924E-01  1.45872E-01  1.29317E-01  1.12640E-01  9.99168E-02  8.18274E-02
   5.82451E-02  3.37119E-02  3.99820E-03 -2.05809E-02 -4.77346E-02 -7.56071E-02 -1.08175E-01 -1.47538E-01 -1.85005E-01 -2.39414E-01
  -2.95418E-01 -3.26380E-01 -3.10670E-01 -2.12682E-01 -4.83408E-02  1.35801E-01  2.72439E-01  3.58529E-01  3.69522E-01  3.20711E-01
   2.72926E-01  2.27423E-01  2.02030E-01  1.87489E-01  1.80801E-01  1.77572E-01  1.73762E-01  1.70524E-01  1.66900E-01  1.66270E-01
   1.65326E-01  1.63194E-01  1.61321E-01  1.59538E-01  1.55196E-01  1.49906E-01  1.42304E-01  1.29749E-01  1.15388E-01  9.71872E-02
   7.92727E-02  5.99465E-02  4.41032E-02  2.27896E-02  1.58462E-03 -3.40466E-02 -7.82093E-02 -1.27195E-01 -1.61695E-01 -1.89113E-01
  -2.01886E-01 -2.06275E-01 -1.95169E-01 -1.75778E-01 -1.43853E-01 -9.66872E-02 -4.35936E-02  1.17874E-02  4.04668E-02  4.47729E-02
   1.82729E-02 -2.59425E-02 -7.61563E-02 -1.13633E-01 -1.45018E-01 -1.84232E-01 -1.78050E-01 -1.51882E-01 -2.66432E-01 -1.99304E-01
  -5.12459E-01 -1.34435E+00 -2.04503E+00 -1.69759E+00 -9.55171E-01 -4.85063E-01 -1.63926E-01 -8.81936E-02 -4.96898E-02 -5.51199E-02
  -3.97829E-02 -2.50057E-02 -1.35134E-02 -5.48732E-03  2.06767E-03  7.90477E-03  1.19888E-02  1.43501E-02  1.49246E-02  1.48240E-02
   1.47443E-02  1.45931E-02  1.34758E-02  1.36438E-02  1.55313E-02  1.92196E-02  2.37893E-02  2.84274E-02  3.35344E-02  3.89360E-02
   4.51585E-02  5.25492E-02  5.90429E-02  6.33664E-02  6.65493E-02  7.04097E-02  7.44024E-02  7.93273E-02  8.30047E-02  8.58735E-02
   8.86147E-02  9.19895E-02  9.58789E-02  9.95064E-02  1.02555E-01  1.03337E-01  1.04816E-01  1.07176E-01  1.11423E-01  1.15793E-01
   1.20155E-01  1.22865E-01  1.22904E-01  1.20884E-01  1.17561E-01  1.14726E-01  1.12269E-01  1.09324E-01  1.04939E-01  9.86957E-02
   9.21066E-02  8.51213E-02  7.71377E-02  6.83180E-02  6.11905E-02  5.55422E-02  4.92144E-02  4.27039E-02  3.63857E-02  3.09880E-02
   2.61221E-02  2.24877E-02  1.88867E-02  1.53527E-02  1.21272E-02  8.81858E-03  5.56426E-03  2.83832E-03  1.07534E-03 -3.65514E-04
  -2.14261E-03 -3.03261E-03 -1.92859E-03  1.16573E-04  2.61497E-03  6.69568E-03  1.13638E-02  1.66956E-02  2.31312E-02  2.86811E-02
   3.14310E-02  3.27562E-02  3.61986E-02  4.26773E-02  5.14342E-02  6.05783E-02  6.88718E-02  7.64970E-02  8.53875E-02  9.63529E-02
   1.08617E-01  1.21526E-01  1.34623E-01  1.47410E-01  1.60150E-01  1.73288E-01  1.85202E-01  1.94354E-01  2.00772E-01  2.03936E-01
   2.05393E-01  2.05545E-01  2.04794E-01  2.02593E-01  1.99121E-01  1.92781E-01  1.82886E-01  1.70595E-01  1.58522E-01  1.47688E-01
   1.37220E-01  1.27176E-01  1.16132E-01  1.05160E-01  9.56052E-02  8.82282E-02  8.06350E-02  7.32066E-02  6.68726E-02  6.14907E-02
   5.70703E-02  5.28564E-02  4.91392E-02  4.78222E-02  4.93290E-02  5.17840E-02  5.45542E-02  5.85520E-02  6.33078E-02  6.81402E-02
   7.42888E-02  8.11117E-02  8.72958E-02  9.19413E-02  9.56190E-02  9.83190E-02  9.97708E-02  1.02047E-01  1.05919E-01  1.09380E-01
   1.10923E-01  1.10082E-01  1.08356E-01  1.06253E-01  1.03871E-01  9.98623E-02  9.54525E-02  9.24915E-02  8.95840E-02  8.64352E-02
   8.26156E-02  7.87986E-02  7.50077E-02  7.12239E-02  6.70379E-02  6.20848E-02  5.79330E-02  5.55346E-02  5.35992E-02  5.03847E-02
   4.64231E-02  4.22560E-02  3.69097E-02  2.96758E-02  2.12714E-02  1.27817E-02  4.34358E-03 -5.57567E-03 -1.78401E-02 -3.39118E-02
  -5.25877E-02 -7.21943E-02 -9.05102E-02 -1.08698E-01 -1.26736E-01 -1.43077E-01 -1.57251E-01 -1.69980E-01 -1.82147E-01 -1.91269E-01
  -1.94974E-01 -1.94834E-01 -1.94105E-01 -1.91678E-01 -1.85900E-01 -1.77718E-01 -1.69223E-01 -1.61050E-01 -1.53914E-01 -1.47502E-01
  -1.39799E-01 -1.30349E-01 -1.20012E-01 -1.09300E-01 -9.72567E-02 -8.47491E-02 -7.30437E-02 -6.10929E-02 -4.98996E-02 -3.95990E-02
  -2.95151E-02 -1.84927E-02 -8.42822E-03 -7.01948E-04  5.99326E-03  1.39323E-02  2.28073E-02  2.90764E-02  3.30441E-02  3.75093E-02
   4.26736E-02  4.67305E-02  5.02354E-02  5.27915E-02  5.44726E-02  5.69004E-02  5.90167E-02  5.96960E-02  6.01620E-02  6.20696E-02
   6.49410E-02  6.73303E-02  7.02747E-02  7.33968E-02  7.46368E-02  7.48788E-02  7.52768E-02  7.53437E-02  7.50477E-02  7.54075E-02
   7.55414E-02  7.48946E-02  7.49193E-02  7.54574E-02  7.56679E-02  7.59176E-02  7.69688E-02  7.88985E-02  7.90447E-02  7.53667E-02
   7.16046E-02  7.15442E-02  7.33272E-02  7.34782E-02  7.33074E-02  7.39024E-02  7.40983E-02  7.22782E-02  7.02271E-02  7.06693E-02
   7.24434E-02  7.42614E-02  7.51263E-02  7.57804E-02  7.68184E-02  7.85541E-02  7.98814E-02  8.05500E-02  8.11021E-02  8.25946E-02
   8.26861E-02  8.11325E-02  7.94048E-02  7.93005E-02  8.03501E-02  8.16953E-02  8.34894E-02  8.50639E-02  8.59724E-02  8.58339E-02
   8.66187E-02  8.92512E-02  9.27190E-02  9.48459E-02  9.48114E-02  9.27002E-02  9.05012E-02  9.05246E-02  9.21970E-02  9.36197E-02
   9.31770E-02  9.19789E-02  9.12614E-02  9.13479E-02  9.25905E-02  9.29050E-02  9.15878E-02  9.16686E-02  9.40629E-02  9.56066E-02
   9.55902E-02  9.54547E-02  9.60718E-02  9.69576E-02  9.77061E-02  9.84011E-02  1.01123E-01  1.05662E-01  1.09610E-01  1.11663E-01
   1.13296E-01  1.14091E-01  1.14908E-01  1.16973E-01
 NY background values follow
     4.233E-02    4.228E-02    4.223E-02    4.218E-02    4.213E-02    4.209E-02    4.204E-02    4.199E-02    4.194E-02    4.189E-02
     4.184E-02    4.179E-02    4.175E-02    4.170E-02    4.165E-02    4.160E-02    4.155E-02    4.150E-02    4.145E-02    4.141E-02
     4.136E-02    4.131E-02    4.126E-02    4.121E-02    4.116E-02    4.111E-02    4.106E-02    4.102E-02    4.097E-02    4.092E-02
     4.087E-02    4.082E-02    4.077E-02    4.072E-02    4.068E-02    4.063E-02    4.058E-02    4.053E-02    4.048E-02    4.043E-02
     4.038E-02    4.033E-02    4.029E-02    4.024E-02    4.019E-02    4.014E-02    4.009E-02    4.004E-02    3.999E-02    3.994E-02
     3.990E-02    3.985E-02    3.980E-02    3.975E-02    3.970E-02    3.965E-02    3.960E-02    3.955E-02    3.950E-02    3.946E-02
     3.941E-02    3.936E-02    3.931E-02    3.926E-02    3.921E-02    3.916E-02    3.911E-02    3.907E-02    3.902E-02    3.897E-02
