 
 $NMID
 ID=''
 FMTDAT='(2E13.5)'
 TRAMP=   1.00000E+0
 VOLUME=   1.00000E+0
 $END
   1.82983E+2  -5.12925E+2
  -5.42315E+2   1.22758E+3
   2.85543E+2  -3.00622E+3
  -5.10826E+2   1.94770E+3
   3.35316E+2   2.67944E+3
   3.51994E+3  -9.82874E+2
  -2.24300E+3   2.33018E+3
  -6.39030E+2  -3.25973E+2
   1.28051E+2  -6.81309E+2
   1.55937E+3  -3.20112E+3
   2.99479E+3  -1.85031E+3
   3.62811E+3   1.71095E+3
   1.03182E+3   2.97276E+3
  -3.40498E+3   2.72492E+3
  -3.00656E+3  -2.29686E+3
   2.39572E+3  -3.59445E+3
   2.71577E+3  -3.57686E+3
   2.48104E+3  -1.74194E+3
  -1.23664E+3  -3.66357E+2
  -1.82739E+3  -1.83604E+3
  -1.64114E+2  -4.85611E+3
  -1.91162E+2   1.47863E+3
  -6.43434E+3   2.54177E+3
  -4.37407E+3  -2.85403E+3
  -1.01902E+2  -2.14673E+3
  -5.67285E+1   1.00766E+3
  -2.50391E+3   3.57070E+3
  -2.30400E+3   2.73899E+2
  -6.64460E+2  -4.05759E+3
   7.12452E+3  -2.70314E+3
   4.98921E+3   4.56639E+3
  -1.45828E+3   7.43700E+3
  -3.96191E+3   4.26551E+2
  -3.49195E+2  -5.14536E+3
   7.19032E+2  -1.38201E+3
  -3.11552E+3  -3.52558E+3
   3.38786E+3  -2.56921E+3
   4.44956E+3   1.08424E+3
   3.34562E+3   2.46521E+3
  -6.20529E+2   2.80507E+3
  -5.10371E+2   1.55609E+3
  -4.79446E+3  -4.78212E+2
  -8.86889E+2  -4.35386E+3
   4.66066E+3  -4.03545E+3
   4.15855E+3   1.11397E+3
   1.86118E+3   2.84278E+3
   1.88855E+3   2.57525E+3
  -8.15737E+2   4.03848E+3
  -1.46216E+3   1.78155E+3
  -2.19208E+3  -1.84735E+3
  -1.59523E+3  -3.49168E+3
  -1.10283E+3  -3.34827E+3
   1.36244E+3  -1.22054E+3
   2.75493E+3   1.30256E+3
  -2.91179E+3   2.24215E+3
  -2.29725E+3   1.28908E+3
  -3.13483E+3  -1.70205E+2
  -5.64229E+3  -3.07632E+3
  -1.96213E+3  -6.49974E+3
   9.39277E+2  -4.75222E+3
   4.63703E+3  -2.19914E+3
   3.83858E+3   1.54720E+3
   2.42678E+3   4.10933E+3
  -1.51746E+3  -1.62652E+3
   1.27052E+3  -1.23781E+3
   2.17685E+3   2.73878E+3
  -1.87290E+3   2.79195E+3
  -5.34283E+3   1.17181E+3
   2.19751E+1  -1.56882E+3
  -1.29848E+3  -1.10628E+3
  -2.06299E+3  -1.47550E+3
  -2.09068E+3   1.31657E+2
   7.16049E+2  -2.66520E+2
   1.18482E+3  -2.03001E+3
  -4.01183E+2  -3.01198E+0
   1.13969E+2   1.73871E+3
  -1.11550E+3  -1.30178E+3
   4.18663E+3  -1.18992E+3
   2.51537E+3  -2.09186E+2
   2.17860E+3   2.48461E+1
  -5.13102E+2   7.04059E+2
  -4.10633E+2  -4.14314E+2
   1.23444E+3   4.09346E+2
  -4.47861E+2   2.16755E+3
  -3.35430E+2   2.58012E+3
   1.67120E+3  -9.56734E+2
   1.57321E+3  -3.38378E+3
   3.52503E+3   8.43720E+2
   1.58773E+3   2.21560E+3
  -7.82640E+2   1.69938E+2
  -9.54185E+2  -4.89514E+1
   1.86559E+3   1.83345E+3
   5.85379E+2   3.92333E+3
  -5.29567E+3   2.58667E+3
  -3.40478E+3  -2.98857E+3
   8.59266E+2  -2.68149E+3
   2.45815E+3   8.06471E+2
  -1.94571E+3   2.30985E+3
  -2.55606E+3   1.20961E+3
  -1.55797E+3  -3.49177E+3
   1.47417E+3  -2.46748E+3
   3.49106E+3   1.96080E+3
   3.46452E+2   2.76734E+3
  -3.06217E+3   3.10162E+3
  -3.06426E+3   3.34397E+2
  -8.36946E+2  -7.68553E+2
   7.93800E+2  -2.98487E+2
  -1.94427E+3  -2.40731E+3
   1.16426E+3  -1.73173E+3
   2.61990E+3  -1.03261E+3
   2.44172E+3   1.50218E+3
   5.55336E+2   3.18895E+3
   1.88263E+2   3.97193E+3
  -6.23353E+2   1.14453E+3
  -1.59113E+3   2.56843E+2
  -1.23665E+3   1.28934E+2
  -2.01921E+3  -1.01093E+2
   4.44371E+2   7.20773E+2
   3.84923E+2   3.53387E+2
   4.88285E+1   1.86324E+2
  -1.02620E+3   1.55471E+3
  -3.42268E+3   3.74299E+2
   3.60815E+2  -2.21913E+3
   1.02656E+3  -2.30733E+3
   3.47936E+2   4.36759E+2
  -7.83117E+1   2.26014E+2
   1.50540E+3  -1.46658E+3
   1.59730E+3  -1.12573E+3
  -1.30187E+3   3.50296E+3
  -1.08104E+3   2.39868E+3
  -1.53801E+2  -2.12943E+3
   1.01203E+3  -1.42039E+3
   9.94901E+2   8.24645E+2
  -1.08773E+2   2.11172E+3
  -1.17166E+3  -2.58545E+3
  -2.08925E+3   5.05210E+2
  -2.39437E+2  -1.41533E+2
   1.06891E+3  -5.95723E+2
   8.35035E+2   3.27894E+2
  -1.83280E+3   1.55237E+3
   4.19546E+2   7.24576E+2
   6.17053E+2   1.21521E+3
   7.15928E+2   4.47325E+2
  -1.38791E+3   1.84228E+3
  -5.07844E+2  -1.41882E+3
   8.76529E+2   3.88204E+2
   1.09072E+3   1.45777E+3
  -2.02736E+3  -2.05266E+3
   3.25572E+2   1.64112E+2
  -1.06273E+3   3.00527E+2
  -3.21931E+2  -5.50925E+2
  -2.83528E+2  -5.96026E+2
   6.55595E+2   8.56510E+2
  -6.47653E+2   1.24959E+3
   1.09826E+3   9.18222E+2
   8.61430E+0   1.91568E+3
  -1.10034E+3   2.32542E+3
  -1.28450E+3   5.24819E+2
   1.81748E+2   6.51718E+2
  -1.25282E+3   1.51202E+3
   9.25504E+2   5.12050E+2
  -1.55173E+3  -9.46821E+2
   2.08018E+3  -2.71483E+3
   1.58965E+3  -1.22692E+3
   1.16304E+3  -2.12728E+3
   2.12397E+2  -2.29994E+3
   1.06949E+3  -2.09273E+3
   1.63224E+3   9.94155E+2
  -1.32270E+3   1.79985E+3
  -2.41837E+3   2.89026E+3
   6.27850E+2  -1.09970E+3
   1.06264E+3  -4.22336E+2
   1.05351E+3  -2.59943E+3
  -2.91954E+2  -1.50009E+2
   8.03923E+2   7.11790E+2
  -8.55506E+2  -1.33377E+3
   1.08454E+3   2.04378E+3
   1.34417E+3   1.47824E+3
  -1.55588E+3  -1.14648E+3
  -8.70559E+2  -2.00641E+3
   4.01586E+2   8.93343E+2
  -5.93932E+1  -1.17568E+3
  -9.98312E+2   6.64248E+2
  -2.01993E+3  -7.68535E+2
   3.77270E+2  -1.40048E+3
   6.52191E+1   1.69054E+3
  -1.27634E+3  -1.52296E+3
  -1.36252E+3  -9.46149E+2
   1.57277E+2  -2.09795E+3
   1.01048E+3  -1.24764E+3
  -3.11214E+2   5.74803E+2
  -4.71617E+2   1.38490E+2
   4.92721E+2  -7.77957E+2
   7.12744E+2   7.12873E+2
   8.97010E+2  -1.36163E+3
   2.97694E+2   2.30187E+3
   8.05976E+2  -9.45797E+2
   1.21994E+3  -2.06219E+3
   3.77166E+2  -1.78325E+3
  -5.31126E+2  -5.92690E+2
  -2.01848E+3   1.22371E+3
  -4.71340E+2   4.04416E+2
   1.26548E+3  -8.35811E+2
   4.41938E+2   1.15755E+3
  -1.88585E+2   6.54134E+2
   1.37562E+3   5.12403E+2
   2.86817E+2  -1.18967E+2
  -1.22206E+3  -9.81942E+2
   8.74096E+2   2.10934E+2
  -8.95039E+2   3.14462E+2
  -3.06226E+2  -1.06156E+3
   2.52386E+3  -7.67343E+1
   2.54171E+3   2.37324E+3
   1.47917E+2   4.35294E+2
  -1.45470E+3  -6.81456E+1
   1.75283E+3  -1.90957E+3
  -1.49919E+3  -1.47181E+2
   8.20125E+2  -1.33690E+3
   1.62739E+3  -9.71402E+2
   4.41464E+2  -1.28306E+3
   6.09823E+2   1.17225E+3
   1.27653E+3  -3.41701E+2
  -1.21922E+3   1.53531E+3
   5.71378E+2   5.43807E+2
  -1.14085E+3   1.79956E+2
  -2.35474E+3  -1.02147E+3
   4.29551E+2   1.04157E+3
  -1.56165E+3   2.38146E+3
  -9.41280E+2   9.49801E+2
  -1.57039E+2  -6.33696E+2
  -6.48327E+2   1.36184E+3
   1.02389E+3  -7.33398E+2
   8.18556E+2  -2.03692E+2
   1.29315E+3  -6.71913E+2
  -3.47615E+1   2.00430E+3
  -3.53921E+2   6.75102E+2
  -2.29871E+3   1.44246E+2
   2.67581E+2   6.66361E+1
  -6.43362E+1  -1.36725E+3
   7.44847E+2   5.02147E+2
  -8.18058E+1   7.11025E+2
  -1.89551E+3  -1.58580E+2
  -2.03643E+3   5.62579E+2
  -3.33603E+3  -8.96352E+2
   7.19358E+2  -5.92538E+2
  -1.85841E+3   2.47485E+2
   1.19267E+3   8.23151E+2
   3.42171E+2  -8.76968E+2
  -1.59430E+2   2.75288E+3
  -4.46322E+2   4.90196E+2
   6.94006E+2  -4.92375E+2
   5.47220E+2   1.83198E+3
  -2.89849E+2  -1.03054E+3
  -2.24585E+2   1.68426E+3
  -6.23400E+1  -2.50191E+2
  -2.84660E+2   8.42700E+2
  -1.83808E+3   5.64155E+1
  -1.14523E+3   2.89807E+3
   1.09115E+3   5.70104E+2
   5.57212E+2   2.24612E+3
   1.57676E+3   1.00609E+3
   1.42156E+3  -1.84976E+2
   2.89841E+2  -7.55079E+2
   3.99738E+2  -6.22298E+2
  -2.50824E+2  -2.57876E+3
  -1.33265E+3  -1.26014E+3
   1.80523E+2   9.08441E+2
  -1.98283E+2   2.32635E+2
   1.89057E+3  -4.38433E+2
   4.46186E+2  -2.46753E+2
  -1.81010E+2   6.77048E+2
  -1.59344E+3  -1.30953E+3
  -3.71795E+2   2.94092E+2
   1.05081E+3  -4.60433E+2
   1.15435E+3   4.96466E+2
   6.47520E+2  -7.35979E+2
   1.53121E+2   1.03704E+3
   8.98965E+2   7.38502E+2
   1.07439E+3   1.51523E+3
   1.06319E+3  -8.75134E+2
   6.33802E+2  -6.35978E+2
  -9.81025E+2  -1.60366E+3
   1.14702E+2   2.15714E+2
   1.39526E+2  -1.15997E+2
   1.09111E+3  -2.34203E+3
   1.28972E+3  -1.28004E+2
   1.27874E+3   6.37844E+2
   7.66711E+2  -5.98932E+2
  -3.09706E+2  -8.54003E+1
  -5.04853E+2   4.41766E+2
   4.52240E+2   1.66908E+1
  -4.60636E+2  -1.17039E+3
  -1.40175E+3   1.32420E+3
   6.04708E+2   1.64186E+3
   9.84414E+2  -6.85339E+2
   2.12796E+3   5.79486E+2
  -5.09430E+2   1.34651E+3
  -8.84131E+2   6.55785E+2
  -1.06275E+3   3.28868E+2
  -1.15862E+3   6.20711E+1
  -1.06246E+3  -5.26420E+2
   1.10521E+3   5.36895E+2
   1.67023E+3  -2.12839E+3
   1.61045E+3  -7.61245E+2
   2.72658E+2  -4.06654E+2
   1.67862E+3   7.07060E+2
  -1.05249E+3  -1.80885E+2
  -8.41133E+2   1.41977E+3
  -1.02011E+3   6.51539E+2
  -1.02693E+3   7.41138E+2
   1.38114E+3   5.59972E+2
  -1.30195E+3  -2.68734E+2
   1.80218E+3   2.43504E+2
   4.50546E+2  -8.01408E+2
  -6.43258E+2  -2.87996E+2
  -7.72872E+2   1.01169E+3
  -2.55293E+2  -2.08437E+3
  -3.40916E+1   4.02886E+2
   1.13503E+3  -2.84985E+2
  -7.19065E+2   5.13415E+1
   2.03454E+3   2.40790E+3
   9.87008E+1  -9.65951E+2
   1.05399E+3   8.52512E+1
  -2.79249E+2  -1.43050E+3
   1.69773E+3   8.31141E+1
   2.94053E+2  -1.40919E+1
   9.76069E+1   1.07767E+3
  -3.68319E+2   1.57999E+3
  -4.59036E+2  -7.77013E+2
   9.01283E+2   4.42477E+2
   4.60306E+2   1.04123E+2
  -1.00972E+2  -8.81108E+2
   2.09437E+1   8.63924E+2
  -1.38379E+3   4.69812E+2
   3.76519E+2  -1.52899E+2
   2.61680E+2  -1.04102E+3
   1.33943E+3  -2.06229E+2
   1.41840E+3  -9.67101E+2
   4.06724E+2  -3.75245E+2
   1.08640E+3  -3.02757E+2
   3.49807E+3   5.98441E+1
   1.08378E+2  -9.38052E+2
  -1.00130E+2  -1.17072E+3
   1.49906E+2   1.69930E+3
   7.09414E+2   2.01847E+3
   6.84398E+2   2.36207E+2
   1.26545E+3  -1.05588E+3
  -4.27608E+2  -2.77063E+2
   1.76419E+3  -2.67628E+2
  -2.02680E+2   1.07291E+3
  -6.91016E+2  -1.09931E+2
   5.86586E+2   3.88244E+0
  -4.28356E+2  -8.01942E+2
  -2.15388E+3  -1.29391E+3
   2.83168E+2   4.53855E+2
  -1.53883E+3  -6.01139E+2
   3.70017E+2  -8.07795E+1
  -1.27602E+3  -7.40697E+2
  -3.30421E+0  -5.16504E+2
  -2.97355E+2  -3.33625E+2
  -2.33149E+2   2.82800E+2
  -1.22102E+3  -4.06426E+2
   3.54073E+2   2.69154E+3
  -6.34157E+2  -5.71966E+2
  -5.20838E+1   9.46463E+2
   1.13671E+3  -3.24605E+2
  -2.39788E+2  -1.95607E+2
