 LCModel (Version 6.3-1N) Copyright: S.W. Provencher.          Ref.: Magn. Reson. Med. 30:672-679 (1993).                
 Slice_N1@16_17  02-Jun-2023 14:36:51
 27 lines in following concentration table = NCONC+1
    Conc.  %SD /Cr+PCr  Metabolite                                         
 8.53E-07  33% 1.6E-04 Mac                                                 
 1.16E-02  55%   2.177 Cr                                                  
 3.11E-02  21%   5.823 PCr                                                 
 5.23E-02  13%   9.794 Ins                                                 
 5.54E-02   9%  10.374 NAA                                                 
 3.46E-02  17%   6.487 Tau                                                 
 1.17E-02  14%   2.189 PCho                                                
    0.000 999%   0.000 GPC                                                 
 4.35E-02  17%   8.137 Glu                                                 
 2.24E-02  25%   4.203 Gln                                                 
    0.000 999%   0.000 Ala                                                 
 1.47E-02  68%   2.746 Asc                                                 
 3.67E-03 136%   0.688 Asp                                                 
 7.23E-03  38%   1.353 GABA                                                
 4.02E-03  79%   0.753 Glc                                                 
 7.18E-03  46%   1.344 GSH                                                 
    0.000 999%   0.000 Lac                                                 
 8.10E-03  47%   1.517 NAAG                                                
    0.000 999%   0.000 PE                                                  
 1.17E-02  14%   2.189 GPC+PCho                                            
 6.35E-02   9%  11.891 NAA+NAAG                                            
 6.59E-02  14%  12.340 Glu+Gln                                             
 4.27E-02  11%   8.000 Cr+PCr                                              
 6.35E-02   9%  11.891 NAA+NAAG                                            
 4.27E-02  11%   8.000 Cr+PCr                                              
 6.59E-02  14%  12.340 Glu+Gln                                             
   6 lines in following misc. output table
  FWHM = 0.017 ppm    S/N =   4                                            
  Data shift = 0.017 ppm                                                   
  Ph: -35 deg      -7.3 deg/ppm                                            
  alphaB,S = 3.1E+01,   2.7E+00                                            
   18 spline knots.   Ns = 5(1)                                            
   2 inflections.     1 extrema                                            
  654 points on ppm-axis = NY
      4.000000     3.994181     3.988363     3.982544     3.976726     3.970907     3.965088     3.959270     3.953451     3.947633
      3.941814     3.935995     3.930177     3.924358     3.918540     3.912721     3.906902     3.901084     3.895265     3.889446
      3.883628     3.877809     3.871991     3.866172     3.860353     3.854535     3.848716     3.842898     3.837079     3.831260
      3.825442     3.819623     3.813805     3.807986     3.802167     3.796349     3.790530     3.784712     3.778893     3.773074
      3.767256     3.761437     3.755619     3.749800     3.743981     3.738163     3.732344     3.726526     3.720707     3.714888
      3.709070     3.703251     3.697433     3.691614     3.685795     3.679977     3.674158     3.668339     3.662521     3.656702
      3.650884     3.645065     3.639246     3.633428     3.627609     3.621791     3.615972     3.610153     3.604335     3.598516
      3.592698     3.586879     3.581060     3.575242     3.569423     3.563605     3.557786     3.551967     3.546149     3.540330
      3.534512     3.528693     3.522874     3.517056     3.511237     3.505419     3.499600     3.493781     3.487963     3.482144
      3.476326     3.470507     3.464688     3.458870     3.453051     3.447232     3.441414     3.435595     3.429777     3.423958
      3.418139     3.412321     3.406502     3.400684     3.394865     3.389046     3.383228     3.377409     3.371591     3.365772
      3.359953     3.354135     3.348316     3.342498     3.336679     3.330860     3.325042     3.319223     3.313405     3.307586
      3.301767     3.295949     3.290130     3.284312     3.278493     3.272674     3.266856     3.261037     3.255219     3.249400
      3.243581     3.237763     3.231944     3.226125     3.220307     3.214488     3.208670     3.202851     3.197032     3.191214
      3.185395     3.179577     3.173758     3.167939     3.162121     3.156302     3.150484     3.144665     3.138846     3.133028
      3.127209     3.121391     3.115572     3.109753     3.103935     3.098116     3.092298     3.086479     3.080660     3.074842
      3.069023     3.063205     3.057386     3.051567     3.045749     3.039930     3.034111     3.028293     3.022474     3.016656
      3.010837     3.005018     2.999200     2.993381     2.987563     2.981744     2.975925     2.970107     2.964288     2.958470
      2.952651     2.946832     2.941014     2.935195     2.929377     2.923558     2.917739     2.911921     2.906102     2.900284
      2.894465     2.888646     2.882828     2.877009     2.871191     2.865372     2.859553     2.853735     2.847916     2.842098
      2.836279     2.830460     2.824642     2.818823     2.813004     2.807186     2.801367     2.795549     2.789730     2.783911
      2.778093     2.772274     2.766456     2.760637     2.754818     2.749000     2.743181     2.737363     2.731544     2.725725
      2.719907     2.714088     2.708270     2.702451     2.696632     2.690814     2.684995     2.679177     2.673358     2.667539
      2.661721     2.655902     2.650084     2.644265     2.638446     2.632628     2.626809     2.620991     2.615172     2.609353
      2.603535     2.597716     2.591897     2.586079     2.580260     2.574442     2.568623     2.562804     2.556986     2.551167
      2.545349     2.539530     2.533711     2.527893     2.522074     2.516256     2.510437     2.504618     2.498800     2.492981
      2.487163     2.481344     2.475525     2.469707     2.463888     2.458070     2.452251     2.446432     2.440614     2.434795
      2.428977     2.423158     2.417339     2.411521     2.405702     2.399884     2.394065     2.388246     2.382428     2.376609
      2.370790     2.364972     2.359153     2.353335     2.347516     2.341697     2.335879     2.330060     2.324242     2.318423
      2.312604     2.306786     2.300967     2.295149     2.289330     2.283511     2.277693     2.271874     2.266056     2.260237
      2.254418     2.248600     2.242781     2.236963     2.231144     2.225325     2.219507     2.213688     2.207870     2.202051
      2.196232     2.190414     2.184595     2.178777     2.172958     2.167139     2.161321     2.155502     2.149683     2.143865
      2.138046     2.132228     2.126409     2.120590     2.114772     2.108953     2.103135     2.097316     2.091497     2.085679
      2.079860     2.074042     2.068223     2.062404     2.056586     2.050767     2.044949     2.039130     2.033311     2.027493
      2.021674     2.015856     2.010037     2.004218     1.998400     1.992581     1.986763     1.980944     1.975126     1.969307
      1.963489     1.957670     1.951852     1.946033     1.940215     1.934397     1.928578     1.922760     1.916941     1.911123
      1.905304     1.899486     1.893667     1.887849     1.882030     1.876212     1.870393     1.864575     1.858756     1.852938
      1.847119     1.841301     1.835482     1.829664     1.823845     1.818027     1.812208     1.806390     1.800571     1.794753
      1.788934     1.783116     1.777297     1.771479     1.765660     1.759842     1.754023     1.748205     1.742386     1.736568
      1.730749     1.724931     1.719113     1.713294     1.707476     1.701657     1.695839     1.690020     1.684202     1.678383
      1.672565     1.666746     1.660928     1.655109     1.649291     1.643472     1.637654     1.631835     1.626017     1.620198
      1.614380     1.608561     1.602743     1.596924     1.591106     1.585287     1.579469     1.573650     1.567832     1.562013
      1.556195     1.550376     1.544558     1.538739     1.532921     1.527102     1.521284     1.515465     1.509647     1.503829
      1.498010     1.492192     1.486373     1.480555     1.474736     1.468918     1.463099     1.457281     1.451462     1.445644
      1.439825     1.434007     1.428188     1.422370     1.416551     1.410733     1.404914     1.399096     1.393277     1.387459
      1.381640     1.375822     1.370003     1.364185     1.358366     1.352548     1.346729     1.340911     1.335092     1.329274
      1.323455     1.317637     1.311818     1.306000     1.300182     1.294363     1.288545     1.282726     1.276908     1.271089
      1.265271     1.259452     1.253634     1.247815     1.241997     1.236178     1.230360     1.224541     1.218723     1.212904
      1.207086     1.201267     1.195449     1.189630     1.183812     1.177993     1.172175     1.166356     1.160538     1.154719
      1.148901     1.143082     1.137264     1.131445     1.125627     1.119808     1.113990     1.108171     1.102353     1.096534
      1.090716     1.084898     1.079079     1.073261     1.067442     1.061624     1.055805     1.049987     1.044168     1.038350
      1.032531     1.026713     1.020894     1.015076     1.009257     1.003439     0.997620     0.991802     0.985983     0.980165
      0.974346     0.968528     0.962709     0.956891     0.951072     0.945254     0.939435     0.933617     0.927798     0.921980
      0.916161     0.910343     0.904524     0.898706     0.892887     0.887069     0.881251     0.875432     0.869614     0.863795
      0.857977     0.852158     0.846340     0.840521     0.834703     0.828884     0.823066     0.817247     0.811429     0.805610
      0.799792     0.793973     0.788155     0.782336     0.776518     0.770699     0.764881     0.759062     0.753244     0.747425
      0.741607     0.735788     0.729970     0.724151     0.718333     0.712514     0.706696     0.700877     0.695059     0.689240
      0.683422     0.677603     0.671785     0.665967     0.660148     0.654330     0.648511     0.642693     0.636874     0.631056
      0.625237     0.619419     0.613600     0.607782     0.601963     0.596145     0.590326     0.584508     0.578689     0.572871
      0.567052     0.561234     0.555415     0.549597     0.543778     0.537960     0.532141     0.526323     0.520504     0.514686
      0.508867     0.503049     0.497230     0.491412     0.485593     0.479775     0.473956     0.468138     0.462319     0.456501
      0.450682     0.444864     0.439045     0.433227     0.427408     0.421590     0.415771     0.409953     0.404134     0.398316
      0.392497     0.386679     0.380860     0.375042     0.369223     0.363405     0.357586     0.351767     0.345949     0.340130
      0.334312     0.328493     0.322675     0.316856     0.311038     0.305219     0.299401     0.293582     0.287764     0.281945
      0.276127     0.270308     0.264490     0.258671     0.252853     0.247034     0.241216     0.235397     0.229579     0.223760
      0.217942     0.212123     0.206305     0.200486
 NY phased data points follow
  -3.61284E-01  1.76529E-04  2.20679E-03 -3.19736E-01 -9.00824E-02  1.61850E-01 -1.87445E-02  9.66019E-02 -7.45741E-02  1.18453E-01
   1.57620E-01  7.54098E-02  3.66353E-01  2.67916E-01  2.64464E-01 -8.13067E-02  2.51817E-01 -5.32066E-03 -6.52272E-02  9.47523E-02
  -1.43039E-01  7.71382E-02 -7.01281E-02 -4.49130E-03 -2.44893E-01 -2.05505E-01 -1.94805E-01 -4.45378E-02 -6.69764E-02 -5.70768E-02
   1.59723E-01  1.52598E-01  1.89574E-01 -5.27600E-02 -9.52861E-02 -2.38602E-01 -5.71058E-02 -1.63676E-01 -1.28664E-01  9.91388E-03
  -2.14720E-01 -1.33607E-01  1.50098E-01  2.72961E-01  1.13831E-01  1.39023E-01  2.69785E-01  3.31469E-01  2.37846E-01  2.83024E-01
   5.52804E-01  3.17420E-01 -2.25862E-01 -2.87629E-02 -1.52914E-01 -1.62641E-01 -3.28733E-02 -2.69639E-01 -3.02838E-01  1.71212E-02
  -4.86856E-02 -4.04987E-01 -2.46997E-01 -4.93395E-01 -1.90521E-01 -6.73916E-02  5.09093E-02  4.36771E-02  1.65125E-01  9.20572E-02
  -1.88869E-01  2.45834E-01 -3.39313E-02 -1.11681E-01 -1.29094E-01  1.70619E-01 -2.20387E-01 -8.09215E-02 -5.18581E-02 -4.59705E-01
  -9.24833E-02 -3.73011E-01 -1.10674E-01  8.55066E-02  2.25285E-01  1.24988E-01  2.05001E-01  2.50926E-01  1.64708E-01  1.14472E-01
   6.99430E-02  1.29761E-01 -3.93874E-02  4.36683E-02  7.73968E-02  2.89078E-01  4.08347E-01  1.67573E-01 -2.45299E-01 -1.93373E-02
  -1.63516E-02  2.97951E-02 -3.69750E-02 -1.19205E-01  3.44454E-01  3.72349E-01  2.80490E-01  4.81240E-01  4.59534E-01  1.25008E-01
   5.88410E-01  7.06232E-02 -9.94025E-02  3.53136E-01  1.41698E-01  1.52272E-01  3.79168E-01  2.71465E-01  2.68009E-02  4.13206E-01
   4.15239E-01  4.15039E-01  1.25773E-01  2.93688E-01  2.24361E-01 -5.26485E-02  4.86858E-02 -1.49392E-01 -1.57991E-01 -1.14451E-01
  -2.46920E-01 -4.35177E-01 -1.39767E-01 -3.55587E-01 -2.88818E-01 -5.73160E-01 -9.01647E-01 -5.66078E-01 -3.88129E-01 -1.55967E-01
  -6.29359E-02 -1.63951E-01 -4.36227E-02  1.45931E-01 -2.36774E-01  6.44002E-02  2.15791E-01  2.95719E-02 -6.82544E-02  1.13855E-02
   7.49417E-03  2.53407E-02  8.53707E-02  1.86708E-01  3.73553E-01 -8.34303E-03  2.78871E-01  1.08306E-01 -3.29382E-02  7.99690E-02
  -1.39811E-02  1.35497E-01  4.08214E-01  6.33956E-01  5.66135E-01  5.08815E-01  5.60604E-01  5.00051E-01 -2.13304E-01 -4.66267E-01
  -4.91007E-01 -3.13560E-01 -4.31679E-01 -4.99350E-01 -2.69013E-01 -4.68143E-01 -4.36560E-01 -3.45073E-01 -2.55288E-01 -1.63515E-01
  -1.17169E-01 -2.44857E-01 -2.31802E-02 -2.15048E-01 -2.22131E-01 -1.64131E-01 -2.69579E-01 -1.00138E-01 -2.42117E-01 -3.19998E-01
  -3.57189E-01 -9.50370E-02 -3.14076E-01 -1.02212E-01  1.02979E-01 -4.72601E-01 -2.06152E-01  8.23269E-04 -3.74613E-01 -8.61960E-02
  -4.82946E-02 -1.32512E-01  8.86996E-02 -9.34136E-02  1.84581E-02 -7.11100E-02 -1.48335E-01 -1.01227E-01  4.40296E-02  1.16847E-01
   3.29675E-02 -3.34878E-02 -1.23869E-01 -1.60122E-01 -7.52397E-03  1.25771E-01 -9.92938E-02  6.15541E-03  7.49614E-03  6.45839E-02
   4.28688E-02  1.39671E-01  3.47159E-02  8.18745E-02  4.64830E-02 -6.52350E-02  3.81521E-01  1.75721E-02  3.16755E-01  2.50155E-01
  -1.07026E-01  2.11683E-01  1.74508E-01  6.70302E-02 -3.93284E-02 -7.45041E-03 -1.34976E-01 -1.63273E-02  4.35952E-02 -2.46185E-01
  -1.16577E-01  6.53471E-02 -4.78124E-02 -9.44885E-02 -2.56731E-01 -1.04728E-01 -1.18389E-01  6.69777E-02  4.65190E-02 -9.39044E-02
   2.16285E-01 -1.56224E-01  3.30840E-02 -4.06585E-02  1.09808E-01  3.11446E-01  5.58372E-05  3.67667E-01  1.39463E-01 -1.75843E-01
   4.97077E-02 -8.54534E-02 -1.40009E-01  1.44343E-01  1.19330E-01  1.88744E-01  3.00869E-02  9.29262E-02  1.23738E-01  1.00718E-01
   1.15396E-01  1.57212E-01  4.38848E-01  5.13927E-02  1.01502E-01  1.41585E-01  2.22754E-01  1.02262E-01 -1.84787E-01 -2.49250E-01
  -3.02509E-01 -1.41232E-01 -4.48445E-01 -1.38094E-01 -1.88486E-02 -4.27949E-02  2.89309E-01  2.21034E-01  2.79605E-01  4.10481E-01
   2.12101E-01 -1.62109E-01  2.35205E-02  1.39789E-01  1.05705E-01  2.54336E-01  9.21466E-02  8.36869E-02  7.84787E-02  8.04490E-02
   2.18545E-01  1.37813E-01  7.46422E-02 -4.92609E-03  2.26192E-01  3.78595E-01  2.41647E-01  1.00849E-01  2.11555E-01  3.25126E-01
   1.92699E-01  2.87832E-01 -4.29120E-02 -5.71084E-02 -2.12318E-02 -2.95277E-02  2.68576E-01 -3.39537E-02 -2.27444E-01 -1.11531E-01
  -1.50650E-01 -4.98129E-01 -1.62786E-01 -4.08487E-02 -3.68748E-01 -6.89683E-02 -8.99873E-02  2.65209E-01  2.48310E-01  5.16919E-02
   2.54094E-01 -5.94599E-02  1.78239E-01  9.71765E-02 -1.75492E-01 -2.39802E-01 -2.70596E-01 -1.41124E-01 -2.51743E-01 -1.83070E-01
  -3.12775E-01 -7.51264E-01 -1.43047E+00 -1.07921E+00 -7.83568E-01 -6.66564E-01  4.01543E-02 -9.01422E-03  1.51731E-01 -2.20629E-02
   7.02137E-02  1.93138E-01 -6.11948E-02  2.27683E-01  9.45718E-02  9.68925E-02  1.19445E-01  4.04309E-02  1.04725E-01 -3.11909E-02
   9.69945E-03  2.37320E-03 -2.94803E-02 -1.96037E-01 -1.29241E-01  3.57661E-01 -5.99537E-02 -1.40929E-01  1.89757E-02 -9.04376E-02
   1.37056E-01  9.68329E-02  2.64650E-01  4.43072E-02  1.77242E-01  4.15721E-01  4.19904E-02 -1.34521E-01 -8.71766E-02  2.15594E-01
  -8.41459E-02 -1.95568E-04  2.01062E-01  2.91858E-02  6.70136E-02  3.25774E-02  3.48428E-01  1.82043E-01  2.28639E-01  1.53550E-01
  -5.80594E-02  2.89043E-01  1.39874E-02  2.51068E-01  4.50828E-01  9.80728E-02  7.51369E-02  1.62865E-01  1.72092E-01  2.54334E-01
   1.10660E-01  4.57856E-02  3.55299E-01  7.56728E-02 -4.77426E-02 -1.04467E-01 -3.43307E-02  3.40166E-01  9.27219E-02 -6.43459E-02
   1.51134E-01  1.42256E-02  1.63996E-01  1.04846E-01 -5.61470E-02  2.32834E-01 -1.16382E-01 -1.17978E-03 -5.86131E-02 -1.13266E-01
  -8.90620E-02 -2.05727E-01  4.97885E-02 -4.44843E-02  1.80544E-01 -1.18410E-01 -1.48457E-01 -1.75627E-01 -3.94290E-01 -1.04575E-01
  -2.72198E-01 -1.97015E-01 -2.18856E-01 -1.62396E-01  5.91619E-04 -1.42050E-01 -1.44946E-01 -7.54344E-02 -1.21922E-01 -2.71308E-01
  -5.69654E-02  1.15004E-02 -1.64039E-01 -2.17659E-01 -3.37430E-02  3.13114E-02 -1.83902E-01 -7.98079E-02 -1.05648E-01  1.00764E-01
  -3.98590E-02  5.02623E-03  1.35559E-01 -2.77914E-01 -4.64651E-02 -2.87217E-01 -1.17763E-01  1.48833E-01 -1.79009E-01  1.02897E-01
  -7.68863E-02 -3.26050E-01  2.27289E-01 -1.30549E-02  8.18457E-02  1.17632E-01 -4.05628E-01  7.07555E-02 -1.60742E-01 -1.34912E-01
  -1.72849E-02  2.44080E-01  8.68606E-02 -1.44181E-01  1.90552E-01 -2.95505E-01  1.74834E-01  1.11119E-01 -1.06264E-01  2.84784E-02
  -3.68598E-02  2.26940E-01  2.39033E-01  7.22825E-02  1.79248E-01  2.69417E-01  6.42723E-02  4.90780E-02 -1.53121E-01 -1.03671E-01
  -1.91974E-01  2.17283E-03 -2.31909E-02 -7.33912E-02  2.35385E-01  7.62388E-02  2.62799E-01  1.97861E-02 -1.55724E-01  1.11046E-02
  -6.92087E-02 -7.80039E-03  1.61629E-01  1.30035E-01  1.13327E-01 -3.71027E-02 -8.61282E-02  3.04494E-01 -4.79988E-02 -1.08744E-01
   1.88844E-01  2.57781E-03  3.16754E-01  4.07591E-02 -8.08588E-02  9.05233E-02 -2.54666E-01 -3.34715E-02 -6.68197E-02  1.37477E-02
  -2.22019E-02 -3.43991E-02 -7.26678E-02 -2.11883E-01 -7.17288E-04 -1.26894E-01 -9.57080E-02 -2.15542E-01 -7.53571E-02 -4.04402E-01
  -4.79617E-01 -9.58167E-02 -2.78001E-01 -1.07134E-01 -5.32336E-02  1.87917E-02 -4.86750E-02 -5.75376E-02 -2.33011E-01 -2.35910E-01
  -6.83996E-02 -1.64178E-01  6.13614E-02 -7.26748E-02 -1.81624E-01 -1.06581E-01  1.72062E-01  1.10246E-01  1.62041E-02  3.56189E-01
   2.07313E-01  2.02776E-01  3.44695E-01  2.65959E-01  7.22263E-02  3.98275E-01  3.02329E-01 -7.47437E-03  2.94488E-01 -7.62803E-02
  -2.39947E-02  2.69178E-01  2.61780E-01  1.95981E-01 -1.33505E-01 -2.09274E-01 -1.47679E-01 -7.53145E-02  1.48954E-02  1.64113E-01
  -3.25628E-03 -3.76622E-01 -1.23845E-01 -4.68300E-02 -9.39239E-02  2.13173E-01 -8.05143E-02  6.01672E-02  9.04109E-02 -9.83329E-02
  -1.80180E-01 -3.05228E-01  1.99301E-01  7.50982E-02  1.85219E-02  1.79222E-01  1.31875E-01  5.96070E-02  5.19652E-02  7.29742E-02
   1.08601E-01  2.29155E-01  1.26485E-01  3.54966E-02  6.11073E-02  2.33304E-01  7.07064E-02  1.53663E-02 -1.28802E-01 -3.07656E-02
   3.37744E-02 -2.59082E-01 -3.33981E-02  5.63053E-02  1.29897E-01  2.03870E-01  1.69436E-01  1.39570E-01  1.01593E-01  2.11817E-01
   2.83786E-01  5.51590E-02 -1.82762E-03  2.15373E-02  5.07715E-02 -5.89984E-02 -1.01890E-01 -3.38262E-02 -1.23520E-01  2.93142E-01
   1.09887E-01  3.14683E-03  1.21338E-01 -1.77141E-01 -6.26395E-02 -1.06109E-01  2.98583E-02  2.71603E-01  2.60442E-02  3.87966E-02
   8.27884E-02 -4.05115E-02  1.34832E-01  9.93297E-02  5.44931E-02  6.04908E-02  2.81164E-02  1.59330E-01  1.61971E-01 -7.46188E-02
  -3.25619E-01 -1.79818E-01  1.88036E-01  1.15514E-01  5.71932E-02  3.25240E-02 -1.09690E-01  1.43148E-01 -5.57826E-02 -4.04056E-02
   6.39883E-03 -1.67838E-01  3.45636E-02 -1.75123E-02
 NY points of the fit to the data follow
   4.25378E-02  2.82799E-02  1.30700E-02 -6.06481E-03 -1.41945E-02 -1.86289E-02 -2.08032E-02 -3.30733E-02  3.03391E-03  4.06003E-02
   8.65357E-02  1.78953E-01  3.60901E-01  3.82447E-01  2.98354E-01  2.43278E-01  2.19825E-01  1.35107E-01  1.05002E-01  6.10342E-02
   5.85307E-03  5.61417E-03 -7.42260E-03 -2.29599E-02 -3.63117E-02 -4.91882E-02 -5.92434E-02 -6.64973E-02 -7.18485E-02 -7.91813E-02
  -8.63837E-02 -9.37601E-02 -1.04125E-01 -1.19340E-01 -1.42811E-01 -1.64914E-01 -1.92242E-01 -1.94589E-01 -1.90099E-01 -1.39713E-01
  -5.32582E-02  5.28258E-02  1.29826E-01  1.77995E-01  2.17347E-01  2.22012E-01  2.28538E-01  2.12398E-01  1.63612E-01  1.45647E-01
   1.12837E-01  7.80714E-02  6.17648E-02  2.96207E-02 -8.11920E-04 -3.58688E-02 -7.10648E-02 -1.10070E-01 -1.51531E-01 -1.83826E-01
  -1.68966E-01 -2.00320E-01 -1.79136E-01 -1.49654E-01 -1.49458E-01 -1.23110E-01 -5.21908E-03  1.11751E-01  1.26123E-01  2.73494E-01
   2.76618E-01  2.38819E-01  2.21839E-01  1.40625E-01  9.72620E-02  5.64565E-02 -3.43697E-02 -9.73663E-02 -1.75376E-01 -3.00225E-01
  -3.60932E-01 -2.44808E-01 -8.62837E-02 -1.09003E-02  1.57240E-01  2.54087E-01  2.66431E-01  2.90643E-01  2.50192E-01  2.10007E-01
   1.91232E-01  1.77536E-01  1.61945E-01  1.47818E-01  1.20170E-01  1.01805E-01  2.88882E-02 -8.00883E-03 -1.17868E-01 -1.47656E-01
  -2.03665E-01 -1.22534E-01 -4.70712E-02  6.77145E-02  1.69336E-01  1.87209E-01  2.10405E-01  1.98034E-01  1.93513E-01  1.93983E-01
   1.94077E-01  1.93608E-01  1.93975E-01  1.93412E-01  1.93592E-01  1.94513E-01  1.96491E-01  2.00621E-01  2.06582E-01  1.88255E-01
   1.97096E-01  1.62189E-01  1.12648E-01  6.14205E-02  4.36524E-02 -1.82776E-02 -3.63827E-02 -5.01052E-02 -9.97078E-02 -1.88450E-01
  -1.45601E-01 -2.72723E-01 -2.56205E-01 -2.55650E-01 -3.63753E-01 -6.07055E-01 -7.79105E-01 -5.97880E-01 -4.38948E-01 -2.29283E-01
  -9.44396E-02 -8.47215E-02 -5.30041E-02 -2.84971E-02 -7.92216E-03  9.60988E-03  2.53066E-02  3.92623E-02  5.19758E-02  6.35761E-02
   7.41453E-02  8.48855E-02  9.53549E-02  1.06294E-01  1.18078E-01  1.31290E-01  1.45307E-01  1.62076E-01  1.80922E-01  2.02772E-01
   2.29153E-01  2.64043E-01  3.28586E-01  4.75395E-01  4.65686E-01  5.60479E-01  5.35849E-01  3.62353E-01 -2.23881E-01 -4.81082E-01
  -5.41810E-01 -5.08464E-01 -3.28795E-01 -2.67666E-01 -2.61084E-01 -2.39096E-01 -2.08718E-01 -1.89125E-01 -1.71767E-01 -1.68181E-01
  -1.56968E-01 -1.49473E-01 -1.29979E-01 -1.32114E-01 -1.22447E-01 -1.28955E-01 -1.27230E-01 -1.21734E-01 -1.18333E-01 -1.13238E-01
  -1.10450E-01 -1.04261E-01 -9.96440E-02 -9.30666E-02 -8.78387E-02 -8.26630E-02 -7.86250E-02 -7.43832E-02 -6.96699E-02 -6.51609E-02
  -6.08508E-02 -5.66135E-02 -5.20069E-02 -4.93888E-02 -4.93318E-02 -4.98942E-02 -4.86396E-02 -4.46154E-02 -4.30360E-02 -4.58923E-02
  -5.08755E-02 -5.36043E-02 -5.34540E-02 -4.93275E-02 -4.36000E-02 -3.89342E-02 -3.13570E-02 -2.30428E-02 -2.15631E-02 -2.73753E-02
  -3.34291E-02 -9.15049E-03  1.11268E-02  3.31530E-02  7.25882E-02  1.44335E-01  1.68678E-01  1.35827E-01  1.26922E-01  1.52923E-01
   1.78264E-01  1.72205E-01  1.02255E-01  3.87327E-02 -9.68925E-03 -3.36924E-02 -3.68830E-02 -4.60218E-02 -5.23791E-02 -5.81517E-02
  -6.51277E-02 -6.99743E-02 -7.58068E-02 -7.89481E-02 -8.21195E-02 -8.71863E-02 -9.00013E-02 -9.46879E-02 -9.32650E-02 -9.88034E-02
  -9.20779E-02 -9.66915E-02 -1.11236E-01 -1.01122E-01 -1.20275E-01 -1.03114E-01 -7.43414E-02 -1.99974E-04 -2.97740E-03  1.53841E-02
   6.51758E-02  7.01700E-02  5.66247E-02  4.93685E-02  5.67171E-02  7.27858E-02  5.81573E-02  1.11110E-01  9.77546E-02  1.33610E-01
   1.47985E-01  1.22312E-01  1.14011E-01  7.02980E-02  4.95088E-02  1.93281E-02 -2.77554E-03 -3.02931E-02 -6.85833E-02 -1.02371E-01
  -1.58171E-01 -2.00725E-01 -2.33139E-01 -2.23698E-01 -1.62840E-01 -4.77858E-02  9.46374E-02  1.75912E-01  2.51013E-01  2.46373E-01
   1.93900E-01  1.72875E-01  1.18868E-01  1.19309E-01  1.08991E-01  1.29331E-01  1.41213E-01  1.48041E-01  1.58738E-01  1.47124E-01
   1.43109E-01  1.34084E-01  1.26561E-01  1.20492E-01  1.15101E-01  1.04693E-01  9.77584E-02  8.31219E-02  6.40750E-02  4.77173E-02
   2.91440E-02  1.77526E-02  6.11834E-03  1.24526E-02 -2.79833E-03 -1.14517E-02 -2.88349E-02 -8.47057E-02 -1.22969E-01 -1.78195E-01
  -2.10966E-01 -2.27236E-01 -2.29417E-01 -1.95173E-01 -1.69335E-01 -1.00711E-01 -5.68763E-02  1.27000E-03  4.54599E-02  5.95017E-02
   7.21287E-02  4.22151E-02  1.33379E-02 -5.01470E-02 -7.98037E-02 -1.29586E-01 -1.88089E-01 -1.08780E-01 -2.84083E-01 -2.17213E-01
  -4.29634E-01 -7.14751E-01 -1.35166E+00 -1.13401E+00 -7.72431E-01 -4.88035E-01 -9.37269E-02 -9.46517E-02 -7.72919E-02 -5.17788E-02
  -3.35011E-02 -1.86501E-02 -6.69323E-03  3.79665E-03  1.12156E-02  2.08131E-02  2.46519E-02  2.92921E-02  2.69170E-02  2.02077E-02
   7.38183E-03 -9.58845E-03 -2.24689E-02 -4.10791E-02 -4.29755E-02 -4.95968E-02 -4.38115E-02 -3.49793E-02 -2.68215E-02 -1.49315E-02
  -8.36548E-03 -5.61968E-04  5.41472E-03  1.06021E-02  1.50100E-02  1.77824E-02  2.06746E-02  2.29681E-02  2.56726E-02  2.81427E-02
   3.02142E-02  3.18802E-02  3.36601E-02  3.54440E-02  3.72022E-02  3.90674E-02  3.98544E-02  4.11978E-02  4.19025E-02  4.38462E-02
   4.55869E-02  4.73936E-02  4.89657E-02  4.95486E-02  4.96575E-02  4.89780E-02  4.85920E-02  4.79697E-02  4.71880E-02  4.62523E-02
   4.45274E-02  4.24592E-02  4.03276E-02  3.81882E-02  3.52453E-02  3.28854E-02  3.07617E-02  2.86647E-02  2.63412E-02  2.41902E-02
   2.22745E-02  2.02641E-02  1.88570E-02  1.77119E-02  1.63337E-02  1.51802E-02  1.40047E-02  1.26644E-02  1.14303E-02  1.04780E-02
   9.73594E-03  9.10547E-03  8.51167E-03  8.49195E-03  9.06292E-03  9.41175E-03  1.08205E-02  1.20802E-02  1.36376E-02  1.51781E-02
   1.71328E-02  1.82320E-02  1.86973E-02  1.98941E-02  2.11374E-02  2.40957E-02  2.67938E-02  2.98772E-02  3.22308E-02  3.51716E-02
   3.84852E-02  4.24210E-02  4.68672E-02  5.13917E-02  5.60322E-02  6.03564E-02  6.53233E-02  6.94058E-02  7.34298E-02  7.63218E-02
   7.82009E-02  7.92893E-02  7.98415E-02  8.01995E-02  7.96994E-02  7.92275E-02  7.76242E-02  7.49184E-02  7.17689E-02  6.75720E-02
   6.40967E-02  6.00857E-02  5.69275E-02  5.30205E-02  4.96126E-02  4.57569E-02  4.31199E-02  4.02351E-02  3.74610E-02  3.52115E-02
   3.28142E-02  3.10695E-02  2.94060E-02  2.79476E-02  2.69776E-02  2.67105E-02  2.73268E-02  2.79547E-02  2.90979E-02  3.03990E-02
   3.19051E-02  3.37001E-02  3.60498E-02  3.84523E-02  3.99732E-02  4.16243E-02  4.26025E-02  4.34480E-02  4.41934E-02  4.54656E-02
   4.67017E-02  4.74370E-02  4.77274E-02  4.72751E-02  4.66516E-02  4.61120E-02  4.50856E-02  4.35694E-02  4.26713E-02  4.14981E-02
   4.05273E-02  3.93440E-02  3.80891E-02  3.68626E-02  3.54368E-02  3.41130E-02  3.26096E-02  3.11492E-02  2.99709E-02  2.95068E-02
   2.85163E-02  2.72574E-02  2.59452E-02  2.43663E-02  2.23228E-02  1.98311E-02  1.70288E-02  1.42534E-02  1.08942E-02  7.22610E-03
   2.33901E-03 -3.83315E-03 -1.07480E-02 -1.72827E-02 -2.37020E-02 -3.00076E-02 -3.60999E-02 -4.18780E-02 -4.69471E-02 -5.14879E-02
  -5.56620E-02 -5.83195E-02 -5.92484E-02 -5.96206E-02 -5.96188E-02 -5.84788E-02 -5.65480E-02 -5.40852E-02 -5.18421E-02 -4.93695E-02
  -4.75828E-02 -4.53684E-02 -4.27354E-02 -3.92347E-02 -3.60912E-02 -3.23597E-02 -2.81970E-02 -2.45633E-02 -2.03972E-02 -1.68993E-02
  -1.28323E-02 -9.76418E-03 -6.12687E-03 -2.60972E-03  5.29444E-04  3.05900E-03  5.65732E-03  8.30312E-03  1.10669E-02  1.28092E-02
   1.42209E-02  1.61729E-02  1.74352E-02  1.88921E-02  2.01184E-02  2.07375E-02  2.12498E-02  2.22533E-02  2.28784E-02  2.29111E-02
   2.33155E-02  2.41673E-02  2.49564E-02  2.57502E-02  2.70747E-02  2.76329E-02  2.78691E-02  2.81116E-02  2.82287E-02  2.81163E-02
   2.82422E-02  2.83224E-02  2.80967E-02  2.80643E-02  2.81674E-02  2.80122E-02  2.83071E-02  2.86166E-02  2.87071E-02  2.91585E-02
   2.85260E-02  2.71264E-02  2.66189E-02  2.71066E-02  2.73533E-02  2.73841E-02  2.73432E-02  2.68712E-02  2.66570E-02  2.57578E-02
   2.57202E-02  2.57386E-02  2.65645E-02  2.69911E-02  2.71178E-02  2.73646E-02  2.75965E-02  2.80940E-02  2.85589E-02  2.85707E-02
   2.90431E-02  2.91521E-02  2.89650E-02  2.81438E-02  2.79798E-02  2.80642E-02  2.84348E-02  2.87575E-02  2.92316E-02  2.94672E-02
   2.95179E-02  2.95290E-02  3.03110E-02  3.15868E-02  3.20232E-02  3.25262E-02  3.18884E-02  3.06895E-02  3.08114E-02  3.07151E-02
   3.13693E-02  3.14119E-02  3.10728E-02  3.08058E-02  3.05026E-02  3.06630E-02  3.08136E-02  3.07388E-02  3.02141E-02  3.09376E-02
   3.12668E-02  3.13737E-02  3.14263E-02  3.12778E-02  3.14302E-02  3.17039E-02  3.21248E-02  3.26786E-02  3.39862E-02  3.54836E-02
   3.59786E-02  3.68663E-02  3.68757E-02  3.74409E-02
 NY background values follow
     2.489E-02    2.485E-02    2.480E-02    2.475E-02    2.471E-02    2.466E-02    2.461E-02    2.457E-02    2.452E-02    2.447E-02
     2.443E-02    2.438E-02    2.433E-02    2.429E-02    2.424E-02    2.419E-02    2.415E-02    2.410E-02    2.405E-02    2.400E-02
     2.396E-02    2.391E-02    2.386E-02    2.382E-02    2.377E-02    2.372E-02    2.368E-02    2.363E-02    2.358E-02    2.354E-02
     2.349E-02    2.344E-02    2.340E-02    2.335E-02    2.330E-02    2.325E-02    2.321E-02    2.316E-02    2.311E-02    2.307E-02
     2.302E-02    2.297E-02    2.293E-02    2.288E-02    2.283E-02    2.279E-02    2.274E-02    2.269E-02    2.265E-02    2.260E-02
     2.255E-02    2.251E-02    2.246E-02    2.241E-02    2.236E-02    2.232E-02    2.227E-02    2.222E-02    2.218E-02    2.213E-02
     2.208E-02    2.204E-02    2.199E-02    2.194E-02    2.190E-02    2.185E-02    2.180E-02    2.176E-02    2.171E-02    2.166E-02
