 
 $NMID
 ID=''
 FMTDAT='(2E13.5)'
 TRAMP=   1.00000E+0
 VOLUME=   1.00000E+0
 $END
   4.06232E+2  -4.00746E+2
   3.99656E+2   2.05765E+3
   8.61058E+2  -4.87347E+3
  -9.34203E+2  -7.26690E+2
  -2.23566E+3   2.19721E+3
   2.60665E+3   3.89717E+2
   2.59392E+3   1.28919E+3
  -2.64301E+3  -1.82789E+3
  -1.68899E+3  -2.70303E+3
  -2.88825E+3  -9.45558E+2
   3.89578E+2  -2.31221E+3
   4.32383E+3   1.39128E+3
   3.19509E+3   3.81327E+3
  -3.47749E+3   3.16396E+3
  -2.11508E+3   4.99703E+2
  -8.20646E+1  -2.92177E+3
   2.03891E+3  -2.19969E+3
   2.65837E+3   1.39476E+3
   2.54093E+3   2.32534E+3
   6.42786E+2  -1.56403E+3
   8.98428E+2  -1.68047E+3
   3.16755E+3   3.31922E+3
  -3.78782E+3   2.66266E+3
  -4.09950E+2  -2.40521E+3
   2.94360E+3  -2.72341E+3
   5.01488E+3   1.76184E+3
  -1.57394E+3   3.41600E+3
  -3.00792E+3  -1.32824E+3
   2.39869E+2  -5.76626E+3
   4.56307E+3  -3.92161E+3
   5.34511E+3   5.13492E+3
  -1.87851E+3   5.72075E+3
  -4.14884E+3   1.25430E+3
   1.00457E+3  -2.83021E+3
   3.49192E+2   7.76788E+2
  -3.60099E+3  -2.05901E+3
   2.42786E+3  -6.24840E+3
   6.40286E+3  -1.24238E+3
   3.14598E+3  -4.59414E+2
  -3.46999E+2   2.35129E+2
  -3.54933E+3   3.86982E+1
  -8.63270E+3  -3.66129E+3
  -4.63504E+3  -7.97793E+3
   8.71439E+1  -6.38972E+3
  -8.95022E+2  -1.70913E+1
  -2.25833E+3   5.28914E+2
  -6.69255E+2   1.32130E+3
  -9.60402E+2   3.76961E+3
  -2.73862E+3   4.10436E+3
  -2.71481E+3   3.00756E+3
  -1.98995E+3  -5.32244E+2
   1.53358E+2  -3.74103E+3
   1.28555E+3  -2.73469E+2
   5.30115E+3   1.91217E+3
  -3.02985E+2   4.57188E+3
   8.91905E+2   2.49586E+3
  -2.67141E+3   2.58058E+3
  -4.24002E+3  -1.06341E+3
  -2.99146E+3  -5.21478E+3
   1.71636E+3  -5.33257E+3
   4.35277E+3  -4.95069E+3
   5.47751E+3   9.38944E+2
   1.51807E+3   2.59101E+3
  -1.45380E+3   2.92314E+3
   3.60166E+3   7.46677E+2
   2.89278E+3   1.24213E+3
  -4.29327E+2   3.67312E+3
  -3.10700E+3   2.73413E+3
  -9.78672E+2  -1.11149E+3
  -8.03341E+2  -1.43486E+2
  -2.37174E+3   3.65386E+3
  -3.58266E+3   9.62442E+2
  -5.17671E+2  -3.65736E+2
  -1.95033E+3  -6.87850E+1
   1.95586E+3   1.10063E+2
   6.17272E+2   3.17349E+3
  -3.31733E+2   5.06104E+2
   3.27079E+3  -1.54704E+3
   9.18157E+2   6.13534E+2
   3.53701E+3   9.67708E+2
   1.53438E+3   2.43938E+3
   1.37214E+3   1.43192E+3
   1.55336E+2   1.37866E+3
   1.84952E+3   1.71933E+3
  -2.52662E+3   5.12982E+2
  -3.30121E+3  -2.54388E+2
  -7.21741E+1  -1.96426E+3
   2.74113E+3  -1.15147E+3
   2.82290E+3   2.17130E+3
  -4.51924E+2   1.12396E+3
   2.05044E+2   1.01701E+3
  -7.07096E+2   2.28023E+2
   4.68470E+2   4.78521E+3
  -4.09550E+3   2.46846E+3
  -3.92818E+3  -1.99664E+3
   2.03799E+3  -3.56903E+3
   3.52752E+3  -1.16765E+3
   1.37785E+3   3.01946E+3
  -1.18594E+3   3.04482E+3
  -1.87218E+3  -1.28822E+3
  -1.21285E+3  -3.75921E+3
   2.69550E+3  -2.02215E+3
   2.14276E+3   1.72503E+3
  -8.82202E+2   9.43036E+2
  -1.74818E+3   1.98147E+1
   2.20580E+3  -2.16359E+3
  -7.03132E+2   9.53692E+2
  -2.05323E+3  -1.37217E+3
  -1.28898E+3  -3.00334E+3
   1.59362E+3  -4.71757E+3
   3.39958E+3   2.96793E+2
   3.07914E+3  -8.31981E+2
   2.59253E+3   1.37441E+3
   1.78413E+2   1.78701E+3
  -2.36708E+3   2.39687E+3
  -2.11595E+3   1.48285E+2
  -9.40040E+2  -1.21300E+3
   1.35173E+3  -2.39826E+3
   2.12451E+3  -3.55134E+3
   1.42688E+3  -4.06269E+2
   6.78194E+2   1.59351E+3
  -1.75741E+3   4.99205E+2
  -6.37825E+1  -3.25857E+3
   1.91058E+3  -3.37700E+2
   1.23059E+3   2.05531E+3
  -7.23071E+2   2.40021E+3
  -1.52385E+2  -1.24864E+3
   7.55873E+2   1.25794E+3
  -3.98278E+2   9.26329E+2
  -6.75681E+2  -9.75207E+2
  -1.45526E+3  -2.76769E+3
  -6.85781E+2  -2.31346E+3
   6.87056E+2   2.87683E+3
  -1.81463E+3   2.66758E+3
  -2.57384E+3   2.20039E+3
  -3.21607E+3  -1.79955E+2
  -1.18020E+2  -2.10232E+3
   8.94151E+2  -1.40345E+3
   1.77724E+2  -1.94605E+3
  -8.05624E+2  -1.22787E+3
   1.00053E+3  -2.94295E+3
   2.33120E+3  -1.18091E+3
   3.91778E+2   1.82871E+3
  -1.56857E+3   1.21662E+3
  -3.04482E+3  -3.06427E+2
   3.50039E+2  -1.93388E+3
   4.52365E+2   8.25497E+2
  -1.63104E+3   1.00455E+3
  -1.42298E+2  -4.15595E+2
  -1.63163E+3  -2.99064E+2
  -3.29423E+3  -2.12392E+1
  -1.70847E+2  -7.28435E+2
  -9.12208E+2  -2.22375E+3
  -5.33080E+2  -2.92225E+3
   5.05927E+2  -1.35053E+3
   3.84520E+2  -6.05264E+2
  -2.82112E+2  -1.02168E+3
  -1.52645E+3   3.71970E+1
   3.06358E+2  -1.60815E+3
  -1.00305E+3   1.55566E+3
   1.17064E+3   4.04234E+2
   1.24621E+1   7.22925E+2
   2.63843E+2   7.23886E+1
   2.06460E+3   1.50089E+3
  -2.23388E+2   5.50328E+2
  -2.13103E+3   1.50818E+3
   8.61275E+2  -3.15596E+3
   2.02482E+3  -2.34270E+3
   2.03242E+3   1.64620E+3
  -2.15996E+3   9.49464E+2
  -9.78819E+2  -3.01743E+2
  -1.83720E+3  -1.50845E+3
  -1.08930E+3  -2.59521E+3
   1.29803E+3   8.93665E+2
   1.05367E+3   1.74238E+2
   5.36376E+2  -3.96640E+2
   2.70336E+3  -1.45043E+3
   1.19673E+3   1.96515E+3
  -7.76704E+2   1.53824E+3
  -2.56379E+3   1.15518E+3
  -1.70732E+3  -5.50073E+2
   2.53704E+3   6.81015E+1
  -6.35787E+1   1.60768E+2
   1.67138E+3   9.59300E+2
  -2.39631E+2  -1.96208E+1
   5.67732E+2   8.56417E+2
   1.58555E+3   2.67968E+3
  -2.19045E+3   7.96177E+2
  -1.14356E+3  -2.03840E+3
   1.11965E+3  -2.31606E+3
   2.73040E+2   2.70257E+3
   1.73935E+3   1.88887E+3
  -3.20442E+2   2.37188E+3
  -1.58249E+3  -1.00453E+2
  -1.57595E+3   6.76589E+2
   7.22105E+2   4.05441E+2
  -3.02197E+2   1.57097E+3
   1.54113E+3  -9.74190E+1
   1.70133E+3   1.42942E+2
   2.09702E+3   8.18878E+2
  -1.79536E+3   3.52954E+3
  -1.59647E+3  -2.89887E+2
  -1.01907E+3  -3.78464E+3
   8.67662E+2  -1.52337E+3
   1.86964E+3   2.25491E+3
   1.49507E+3   2.52856E+3
   5.42333E+2   9.36268E+2
   2.36268E+2  -8.12443E+2
   2.59172E+2   6.81260E+2
   1.95108E+1   2.40411E+3
  -1.72160E+3   1.67051E+3
   4.06032E+2  -1.00309E+3
   1.87576E+3   9.23398E+1
   2.17951E+2   2.29478E+3
  -6.15205E+2   1.80984E+3
  -1.15586E+3  -7.31531E+2
  -2.81657E+2  -9.28140E+2
  -1.31582E+2   1.67923E+3
  -2.11916E+2   5.05050E+1
   2.76842E+2  -4.74895E+2
   3.03868E+2   2.73687E+2
   1.92945E+3   2.75551E+3
   1.24494E+3   2.37654E+3
   1.00581E+3  -7.40545E+2
  -3.52582E+2   8.53080E+2
  -2.26675E+2  -3.54005E+2
   1.55235E+3   2.99159E+3
  -4.95873E+2   2.69169E+3
  -1.53669E+3   1.72133E+3
  -1.11807E+3  -3.97537E+2
   5.51679E+2  -1.77729E+2
  -9.60456E+1   8.69848E+2
  -1.19738E+3  -5.61827E+2
   8.95620E+2  -9.21286E+2
   1.34606E+3   1.73374E+3
   1.95284E+3   1.89750E+3
   5.21867E+2   2.82570E+3
  -2.98319E+3  -1.66470E+2
   8.60614E+2   2.03689E+3
  -6.33703E+2   3.40497E+2
   2.37054E+1  -3.62311E+2
  -5.18011E+2   1.04443E+3
  -5.28786E+2   9.63957E+2
  -1.29599E+3   2.18769E+3
  -3.36359E+2   1.97965E+3
  -1.14295E+2   1.87214E+3
  -1.52349E+3   1.42439E+3
  -1.47082E+2   4.91444E+1
   1.62144E+3  -3.37018E+1
  -5.09118E+2   3.19713E+3
  -1.24251E+3  -7.27774E+0
   5.13053E+2   7.86421E+2
  -9.27274E+2  -6.96447E+2
   8.05648E+2  -1.18451E+2
   1.57016E+2  -5.19458E+2
  -1.44875E+3  -1.10504E+3
   1.66278E+3   1.03316E+3
   1.17733E+3   2.65207E+3
   2.07964E+2   2.82695E+3
  -2.00896E+3  -1.05202E+2
  -1.71767E+3  -1.57822E+3
   7.72257E+2  -1.67542E+2
   2.10715E+3   3.56789E+3
   1.06299E+3   1.62639E+3
  -9.42220E+1  -2.10421E+2
  -6.86642E+2  -1.13362E+3
  -1.67068E+3   5.51815E+2
   5.51878E+2  -6.05051E+2
  -1.51970E+3  -6.33908E+2
   6.45874E+2   2.72150E+2
   1.71207E+3   4.68930E+2
   8.38330E+2   5.39638E+2
   6.37283E+1   2.45155E+3
  -1.81528E+3  -7.60728E+2
   1.52572E+3  -1.30771E+3
   5.17864E+2  -2.53846E+3
  -1.31214E+3   6.78062E+2
   1.83033E+3   6.54211E+2
   8.95308E+1  -1.39174E+3
   2.11620E+2  -6.40598E+2
  -1.41586E+3   9.04615E+2
  -1.14876E+3   2.47918E+3
  -1.00128E+3   8.88772E+2
  -8.59763E+2  -2.55803E+3
   1.34526E+3  -7.25720E+2
  -1.64167E+3   1.28787E+3
  -9.67575E+2  -8.03956E+2
   1.34744E+3  -1.28810E+3
   1.44113E+3  -1.23116E+3
   6.75064E+2  -6.98912E+2
  -7.29949E+2   1.42996E+3
   2.55769E+2  -1.23839E+3
  -8.18805E+2   1.43319E+2
  -8.32109E+1   3.08262E+2
  -9.14681E+2   1.64402E+3
   1.12913E+3  -1.87092E+3
  -1.71011E+3  -3.69569E+2
   1.80570E+3  -4.15009E+2
   1.75842E+3   1.85537E+3
   1.02674E+3   1.61718E+3
  -1.20937E+3  -2.79903E+1
   7.23649E+2  -1.17939E+3
  -6.93340E+2  -5.92432E+2
  -1.41115E+3  -3.21897E+2
  -1.06490E+3  -9.29722E+2
   1.38908E+3  -2.51174E+3
   5.56734E+2   1.87452E+2
  -4.25722E+2   7.26612E+1
  -2.25610E+3   6.59566E+2
  -8.15020E+2   1.00695E+3
   1.70492E+2  -2.80009E+3
  -9.18461E+2   3.12586E+2
  -4.07793E+2  -8.14117E+2
  -5.02820E+1   1.08195E+3
  -2.89632E+2   1.41094E+3
   1.84944E+3   9.29933E+2
  -1.14999E+3   2.57305E+3
  -2.51621E+3   2.03579E+2
  -1.02148E+2  -1.38985E+3
   1.66431E+2  -6.50523E+2
   2.02261E+3   9.95345E+2
  -1.21106E+3   3.37070E+2
  -1.49544E+3   9.98166E+2
  -9.10514E+2  -1.04217E+3
   1.70116E+3   2.91248E+2
   4.64366E+2   4.09200E+1
  -1.16066E+3  -1.70853E+3
  -1.38508E+2  -6.45308E+2
   1.94359E+3   4.52146E+2
   1.06494E+3   1.93690E+3
  -2.11049E+2  -1.57120E+1
  -1.30233E+3  -3.24888E+2
   3.33794E+2  -8.82169E+2
  -6.22327E+2  -1.77853E+3
  -9.39577E+2  -3.27273E+2
   1.56412E+3   7.85383E+2
  -6.41440E+2  -2.29223E+3
   2.16378E+3  -1.28597E+3
   5.65891E+2   1.13419E+3
  -8.76741E+2   1.45708E+3
  -9.04251E+1  -1.96289E+3
   1.35938E+2  -2.28560E+3
  -9.89904E+2   7.56783E+1
   1.82231E+3   2.93448E+2
  -1.23282E+3   3.05079E+2
  -4.44351E+2  -1.87762E+3
  -8.21977E+2  -4.72954E+2
   1.62509E+1   9.90671E+2
   9.77481E+2  -1.22484E+3
  -1.46232E+3  -1.24216E+3
  -4.76978E+1  -7.80438E+2
  -3.72377E+1  -9.99083E+2
  -3.73839E+2  -9.58029E+2
  -1.66158E+3  -1.92010E+3
   3.02005E+3  -5.78182E+2
   2.64651E+2   8.63154E+2
   3.29737E+2   6.30626E+2
  -1.74400E+3   6.68063E+2
  -1.83124E+3   1.01420E+3
   1.75777E+3  -2.01026E+2
   1.16330E+3  -7.51430E+2
  -1.11469E+3  -1.09710E+3
  -1.13420E+3  -6.05370E+1
  -5.41546E+1  -5.41044E+2
  -6.96168E+0   1.30583E+3
   6.69435E+2  -2.75720E+2
   1.17231E+1   1.15871E+3
