 
 $NMID
 ID=''
 FMTDAT='(2E13.5)'
 TRAMP=   1.00000E+0
 VOLUME=   1.00000E+0
 $END
  -2.02631E+4   6.00507E+3
  -5.44274E+4   2.20681E+2
  -5.32651E+4   9.74704E+3
  -4.90721E+4   8.98747E+3
  -5.12365E+4   7.68563E+3
  -5.08740E+4   1.00427E+4
  -4.89708E+4   9.14274E+3
  -4.98410E+4   8.13654E+3
  -4.95268E+4   9.42800E+3
  -4.83741E+4   8.87217E+3
  -4.86944E+4   8.17192E+3
  -4.84101E+4   9.18380E+3
  -4.74801E+4   8.97397E+3
  -4.78683E+4   8.24922E+3
  -4.74775E+4   8.80344E+3
  -4.66609E+4   8.58454E+3
  -4.68081E+4   8.11924E+3
  -4.65247E+4   8.52211E+3
  -4.57254E+4   8.46408E+3
  -4.57589E+4   8.07467E+3
  -4.53651E+4   8.40596E+3
  -4.47174E+4   8.49251E+3
  -4.47909E+4   8.31660E+3
  -4.45050E+4   8.52317E+3
  -4.37696E+4   8.50923E+3
  -4.37237E+4   8.46077E+3
  -4.35216E+4   8.51975E+3
  -4.30456E+4   8.40639E+3
  -4.29047E+4   8.12855E+3
  -4.26301E+4   8.22710E+3
  -4.22325E+4   8.25042E+3
  -4.20697E+4   8.21918E+3
  -4.19411E+4   8.19083E+3
  -4.15779E+4   8.08077E+3
  -4.13862E+4   8.01674E+3
  -4.11242E+4   8.16289E+3
  -4.06725E+4   8.10015E+3
  -4.04581E+4   8.09582E+3
  -4.02720E+4   8.31148E+3
  -3.99941E+4   8.20364E+3
  -3.97707E+4   8.15064E+3
  -3.95830E+4   8.18934E+3
  -3.92282E+4   7.92510E+3
  -3.89732E+4   7.93115E+3
  -3.87076E+4   7.93465E+3
  -3.85155E+4   7.97772E+3
  -3.82837E+4   7.84750E+3
  -3.81157E+4   7.86107E+3
  -3.79026E+4   7.91808E+3
  -3.77449E+4   7.83945E+3
  -3.74455E+4   7.73915E+3
  -3.72306E+4   7.65119E+3
  -3.69774E+4   7.66094E+3
  -3.68018E+4   7.67650E+3
  -3.66711E+4   7.62919E+3
  -3.64102E+4   7.54219E+3
  -3.62875E+4   7.41641E+3
  -3.60586E+4   7.27680E+3
  -3.58472E+4   7.21830E+3
  -3.55251E+4   7.08039E+3
  -3.53483E+4   7.07114E+3
  -3.50695E+4   7.06273E+3
  -3.49522E+4   7.04708E+3
  -3.48119E+4   6.90451E+3
  -3.45548E+4   6.85342E+3
  -3.42825E+4   6.84252E+3
  -3.41133E+4   6.87595E+3
  -3.39135E+4   6.71147E+3
  -3.37953E+4   6.65662E+3
  -3.34716E+4   6.58321E+3
  -3.32719E+4   6.54592E+3
  -3.30759E+4   6.58767E+3
  -3.28448E+4   6.49228E+3
  -3.26282E+4   6.44051E+3
  -3.23267E+4   6.47643E+3
  -3.21170E+4   6.48170E+3
  -3.19358E+4   6.45539E+3
  -3.17371E+4   6.47774E+3
  -3.14808E+4   6.42843E+3
  -3.13120E+4   6.55218E+3
  -3.10385E+4   6.54677E+3
  -3.08438E+4   6.61380E+3
  -3.06290E+4   6.55132E+3
  -3.04357E+4   6.49695E+3
  -3.02851E+4   6.53990E+3
  -3.01275E+4   6.48964E+3
  -2.98728E+4   6.52027E+3
  -2.96632E+4   6.43492E+3
  -2.94697E+4   6.56788E+3
  -2.93043E+4   6.57961E+3
  -2.92101E+4   6.58804E+3
  -2.89542E+4   6.71179E+3
  -2.87334E+4   6.62762E+3
  -2.86335E+4   6.71922E+3
  -2.84169E+4   6.74816E+3
  -2.82409E+4   6.73777E+3
  -2.79960E+4   6.74864E+3
  -2.78466E+4   6.83345E+3
  -2.77378E+4   6.79620E+3
  -2.75596E+4   6.78252E+3
  -2.73922E+4   6.72733E+3
  -2.71413E+4   6.84874E+3
  -2.69590E+4   6.86298E+3
  -2.69467E+4   6.89463E+3
  -2.67138E+4   6.83146E+3
  -2.65592E+4   6.91267E+3
  -2.64359E+4   6.86498E+3
  -2.62712E+4   6.79706E+3
  -2.60955E+4   6.90069E+3
  -2.59330E+4   6.82962E+3
  -2.56840E+4   6.90429E+3
  -2.56107E+4   6.89237E+3
  -2.55281E+4   6.95638E+3
  -2.53867E+4   6.94032E+3
  -2.51462E+4   6.86348E+3
  -2.50760E+4   6.93412E+3
  -2.48787E+4   6.77260E+3
  -2.47092E+4   6.84617E+3
  -2.46002E+4   6.78168E+3
  -2.43979E+4   6.79549E+3
  -2.42348E+4   6.87889E+3
  -2.41109E+4   6.82859E+3
  -2.39204E+4   6.77218E+3
  -2.37444E+4   6.68525E+3
  -2.35642E+4   6.77856E+3
  -2.33658E+4   6.68074E+3
  -2.32211E+4   6.67762E+3
  -2.30917E+4   6.64213E+3
  -2.29465E+4   6.61175E+3
  -2.27757E+4   6.61837E+3
  -2.26205E+4   6.58693E+3
  -2.25219E+4   6.53595E+3
  -2.22946E+4   6.55127E+3
  -2.21424E+4   6.57313E+3
  -2.20052E+4   6.56525E+3
  -2.19152E+4   6.50404E+3
  -2.16982E+4   6.47345E+3
  -2.15584E+4   6.43995E+3
  -2.13965E+4   6.48073E+3
  -2.11903E+4   6.43884E+3
  -2.11003E+4   6.32188E+3
  -2.09763E+4   6.32221E+3
  -2.07767E+4   6.35670E+3
  -2.06887E+4   6.26759E+3
  -2.05587E+4   6.26698E+3
  -2.04067E+4   6.18966E+3
  -2.02371E+4   6.18829E+3
  -2.01642E+4   6.21371E+3
  -1.99258E+4   6.13243E+3
  -1.98348E+4   6.13315E+3
  -1.97039E+4   6.08177E+3
  -1.95365E+4   6.03340E+3
  -1.94777E+4   5.96707E+3
  -1.92697E+4   6.00831E+3
  -1.91157E+4   6.00907E+3
  -1.90271E+4   5.98914E+3
  -1.89402E+4   5.94318E+3
  -1.87978E+4   5.91679E+3
  -1.86338E+4   5.87346E+3
  -1.85305E+4   5.88039E+3
  -1.84407E+4   5.81956E+3
  -1.83147E+4   5.81509E+3
  -1.81859E+4   5.72429E+3
  -1.80443E+4   5.69459E+3
  -1.79335E+4   5.73427E+3
  -1.78185E+4   5.67159E+3
  -1.77582E+4   5.62339E+3
  -1.75438E+4   5.58201E+3
  -1.74463E+4   5.59316E+3
  -1.74151E+4   5.57870E+3
  -1.72920E+4   5.59086E+3
  -1.71791E+4   5.57704E+3
  -1.69952E+4   5.53905E+3
  -1.69573E+4   5.51505E+3
  -1.68086E+4   5.49073E+3
  -1.66985E+4   5.41377E+3
  -1.65868E+4   5.44135E+3
  -1.64983E+4   5.38789E+3
  -1.63388E+4   5.36067E+3
  -1.62521E+4   5.32758E+3
  -1.61516E+4   5.33079E+3
  -1.60513E+4   5.29334E+3
  -1.59887E+4   5.25294E+3
  -1.58714E+4   5.23142E+3
  -1.57414E+4   5.20956E+3
  -1.56248E+4   5.26579E+3
  -1.55841E+4   5.26723E+3
  -1.54939E+4   5.04611E+3
  -1.53391E+4   5.06136E+3
  -1.52505E+4   5.06997E+3
  -1.51907E+4   5.00372E+3
  -1.50119E+4   5.07364E+3
  -1.49258E+4   5.05486E+3
  -1.48677E+4   4.92016E+3
  -1.47780E+4   4.89240E+3
  -1.46572E+4   4.90758E+3
  -1.44984E+4   4.89038E+3
  -1.45027E+4   4.81999E+3
  -1.44021E+4   4.81052E+3
  -1.43063E+4   4.84251E+3
  -1.42800E+4   4.81688E+3
  -1.41096E+4   4.69996E+3
  -1.40780E+4   4.70184E+3
  -1.39542E+4   4.69466E+3
  -1.38268E+4   4.72167E+3
  -1.37718E+4   4.70099E+3
  -1.36130E+4   4.68752E+3
  -1.36538E+4   4.62218E+3
  -1.35373E+4   4.63149E+3
  -1.34607E+4   4.58789E+3
  -1.33695E+4   4.58973E+3
  -1.33160E+4   4.56200E+3
  -1.31851E+4   4.57273E+3
  -1.31447E+4   4.52086E+3
  -1.30173E+4   4.47379E+3
  -1.30018E+4   4.50793E+3
  -1.28715E+4   4.48468E+3
  -1.27778E+4   4.44568E+3
  -1.26972E+4   4.46024E+3
  -1.26530E+4   4.40573E+3
  -1.25593E+4   4.41048E+3
  -1.25459E+4   4.41912E+3
  -1.24306E+4   4.37913E+3
  -1.24121E+4   4.38055E+3
  -1.22732E+4   4.39713E+3
  -1.23046E+4   4.33310E+3
  -1.21829E+4   4.32829E+3
  -1.21144E+4   4.32751E+3
  -1.20369E+4   4.22254E+3
  -1.19572E+4   4.25749E+3
  -1.19058E+4   4.24803E+3
  -1.17827E+4   4.24246E+3
  -1.17731E+4   4.24821E+3
  -1.16907E+4   4.24493E+3
  -1.16368E+4   4.19866E+3
  -1.15277E+4   4.19784E+3
  -1.15033E+4   4.17704E+3
  -1.14451E+4   4.13479E+3
  -1.13565E+4   4.10953E+3
  -1.12698E+4   4.14209E+3
  -1.11925E+4   4.09198E+3
  -1.11870E+4   4.15485E+3
  -1.11222E+4   4.10632E+3
  -1.10893E+4   4.11840E+3
  -1.09293E+4   4.07297E+3
  -1.09544E+4   4.06114E+3
  -1.08921E+4   4.09814E+3
  -1.08516E+4   4.06872E+3
  -1.07454E+4   4.05988E+3
  -1.07247E+4   4.06245E+3
  -1.06764E+4   4.01936E+3
  -1.06140E+4   4.01920E+3
  -1.05672E+4   3.93778E+3
  -1.04776E+4   3.98632E+3
  -1.04446E+4   3.99694E+3
  -1.03174E+4   4.04146E+3
  -1.02353E+4   3.97686E+3
  -1.02270E+4   3.88242E+3
  -1.01508E+4   3.95777E+3
  -1.01137E+4   3.99330E+3
  -1.00306E+4   3.95829E+3
  -1.00145E+4   3.98475E+3
  -9.94011E+3   3.92086E+3
  -9.87323E+3   3.94026E+3
  -9.87090E+3   3.89495E+3
  -9.82694E+3   3.91545E+3
  -9.71162E+3   3.83288E+3
  -9.68164E+3   3.93708E+3
  -9.68494E+3   3.83859E+3
  -9.54341E+3   3.87671E+3
  -9.46877E+3   3.88050E+3
  -9.42289E+3   3.91968E+3
  -9.36516E+3   3.91675E+3
  -9.39935E+3   3.90015E+3
  -9.26376E+3   3.91272E+3
  -9.24121E+3   3.87794E+3
  -9.15269E+3   3.83549E+3
  -9.18156E+3   3.94951E+3
  -9.03417E+3   3.90985E+3
  -9.01941E+3   3.87713E+3
  -8.94454E+3   3.82196E+3
  -8.86632E+3   3.81219E+3
  -8.90736E+3   3.88679E+3
  -8.78197E+3   3.79382E+3
  -8.72693E+3   3.85192E+3
  -8.71335E+3   3.84440E+3
  -8.62347E+3   3.78642E+3
  -8.59289E+3   3.77345E+3
  -8.62985E+3   3.81023E+3
  -8.51401E+3   3.79511E+3
  -8.48805E+3   3.83387E+3
  -8.42604E+3   3.80001E+3
  -8.36329E+3   3.78178E+3
  -8.32335E+3   3.77244E+3
  -8.21899E+3   3.76757E+3
  -8.27199E+3   3.75718E+3
  -8.15200E+3   3.73742E+3
  -8.09471E+3   3.70638E+3
  -8.08941E+3   3.74289E+3
  -8.04394E+3   3.72734E+3
  -7.95499E+3   3.73951E+3
  -7.99350E+3   3.69038E+3
  -7.86109E+3   3.70206E+3
  -7.78528E+3   3.71535E+3
  -7.78357E+3   3.74026E+3
  -7.67825E+3   3.66431E+3
  -7.66107E+3   3.65555E+3
  -7.57244E+3   3.68547E+3
  -7.62147E+3   3.68055E+3
  -7.49776E+3   3.67782E+3
  -7.48926E+3   3.58724E+3
  -7.44767E+3   3.66997E+3
  -7.38777E+3   3.63394E+3
  -7.33485E+3   3.63540E+3
  -7.27934E+3   3.65461E+3
  -7.28784E+3   3.54988E+3
  -7.20646E+3   3.60188E+3
  -7.15203E+3   3.54480E+3
  -7.11469E+3   3.54309E+3
  -7.03227E+3   3.50342E+3
  -6.95234E+3   3.54582E+3
  -6.97474E+3   3.54488E+3
  -6.96253E+3   3.53556E+3
  -6.93169E+3   3.61598E+3
  -6.80039E+3   3.50034E+3
  -6.79952E+3   3.54112E+3
  -6.70022E+3   3.48295E+3
  -6.64806E+3   3.50948E+3
  -6.67440E+3   3.46223E+3
  -6.60264E+3   3.49329E+3
  -6.52297E+3   3.50718E+3
  -6.49568E+3   3.50859E+3
  -6.44213E+3   3.45613E+3
  -6.42264E+3   3.44198E+3
  -6.39311E+3   3.39067E+3
  -6.34717E+3   3.40479E+3
  -6.35528E+3   3.38673E+3
  -6.19618E+3   3.40802E+3
  -6.15039E+3   3.38814E+3
  -6.14433E+3   3.39595E+3
  -6.16248E+3   3.32922E+3
  -6.08159E+3   3.31019E+3
  -6.04943E+3   3.31066E+3
  -5.96572E+3   3.39005E+3
  -5.95333E+3   3.27928E+3
  -5.90306E+3   3.26308E+3
  -5.89470E+3   3.26253E+3
  -5.79916E+3   3.24608E+3
  -5.78930E+3   3.25359E+3
  -5.77625E+3   3.25628E+3
  -5.71346E+3   3.18661E+3
  -5.63725E+3   3.16163E+3
  -5.58532E+3   3.15419E+3
  -5.60792E+3   3.21083E+3
  -5.54924E+3   3.19871E+3
  -5.44031E+3   3.15133E+3
  -5.38173E+3   3.16352E+3
  -5.48554E+3   3.17034E+3
  -5.31520E+3   3.11181E+3
  -5.38324E+3   3.06868E+3
  -5.29407E+3   3.15246E+3
  -5.22179E+3   3.11377E+3
  -5.19816E+3   3.02318E+3
  -5.17333E+3   3.06302E+3
  -5.15196E+3   2.99257E+3
  -5.11037E+3   3.00643E+3
  -4.99669E+3   3.03685E+3
