 
 $NMID
 ID=''
 FMTDAT='(2E13.5)'
 TRAMP=   1.00000E+0
 VOLUME=   1.00000E+0
 $END
   2.57535E+2   2.94179E+2
  -9.55601E+2   1.80882E+3
   3.94536E+3   2.01758E+3
   3.47717E+3  -1.05396E+2
   3.01443E+3  -3.25816E+3
   5.99349E+2  -3.21690E+3
  -3.04662E+3  -1.54776E+3
  -1.14692E+3  -8.10549E+1
  -5.50233E+2   6.86679E+1
   1.63093E+3   9.37842E+2
   4.71671E+3   1.08612E+1
   5.34759E+3   1.40604E+3
   2.06694E+3   1.00085E+3
  -4.10120E+3  -5.39345E+2
  -1.26521E+3  -4.69224E+3
   2.89928E+2  -3.31416E+3
   1.41405E+3  -1.04689E+3
  -2.06096E+3   4.43009E+3
  -2.69020E+3   4.49163E+3
   4.09033E+3   7.37773E+2
   4.11459E+3   2.83064E+3
   3.28839E+3   4.91297E+3
  -2.07908E+3   2.55421E+3
  -1.77577E+3  -5.47290E+3
   2.01745E+3  -3.37660E+3
   2.47717E+3   4.11122E+2
  -2.67381E+3   1.66774E+3
  -2.98322E+3  -2.83500E+3
  -4.31741E+3  -4.24334E+3
   3.32915E+3  -5.47084E+2
   2.32574E+3   7.52055E+3
  -4.19754E+3   8.84249E+3
  -5.24978E+3   3.08091E+2
  -8.69377E+2  -3.26018E+3
  -1.50834E+3  -2.62118E+2
  -2.45946E+3  -4.97846E+3
   3.71687E+3  -9.70882E+3
   4.97089E+3  -1.96862E+3
   1.64843E+3   1.13296E+3
  -1.83874E+1   3.13899E+2
  -1.50594E+3   2.66245E+3
  -6.10914E+3   2.65543E+3
  -2.93259E+3  -3.91369E+3
   5.61886E+3  -6.06872E+3
   5.57937E+3   1.89557E+3
   2.64677E+3  -6.31581E+2
   5.30884E+3  -2.50697E+3
   2.66716E+3   1.18104E+3
  -2.41403E+3  -9.31072E+2
  -1.99711E+3  -2.32851E+2
  -2.64430E+3  -3.12592E+3
  -2.81421E+3  -2.57688E+3
   4.73563E+3  -2.48357E+3
   4.15652E+3   2.51020E+3
  -3.37607E+2   4.38644E+3
  -3.12188E+3   1.94562E+3
  -3.11793E+3   4.90698E+3
  -1.13879E+3   3.04477E+3
  -2.08623E+3  -2.78145E+3
  -5.43221E+2  -3.28469E+3
   5.06084E+3  -1.53874E+3
   3.06050E+3   1.23034E+3
   1.54524E+3   1.84085E+3
  -2.23228E+3   3.60822E+3
  -1.32636E+3  -5.60391E+2
   7.51323E+2   2.59609E+2
  -2.63786E+3   3.49436E+3
  -5.27182E+3   2.72381E+3
  -3.13159E+3   7.14199E+2
  -2.04939E+3  -1.26133E+3
   3.67053E+2   6.18439E+2
   1.02453E+3   5.00263E+2
  -2.96742E+2  -1.01869E+3
   1.41164E+3  -2.62558E+3
   1.73889E+3  -4.15522E+2
   3.29899E+3   1.32968E+3
   1.49371E+3  -1.10058E+3
   1.79471E+3  -1.99898E+3
   2.95917E+3  -2.24292E+3
   2.18650E+3   3.70391E+3
  -1.87961E+2   1.25508E+3
  -5.16999E+2  -4.21297E+2
   1.72694E+3   3.08023E+3
   5.32998E+2   1.61552E+3
  -2.01158E+3   1.07352E+3
  -2.00417E+3   3.16501E+2
  -1.62694E+3  -2.52832E+3
   2.68324E+2  -5.23356E+3
   3.17237E+3  -2.52966E+2
   2.45027E+3   1.54979E+3
   2.36930E+3   9.43386E+2
   1.85842E+3  -1.31911E+2
   2.68062E+3   2.10243E+3
  -1.66980E+3   4.82079E+3
  -3.01841E+3   2.51809E+3
  -2.38856E+3  -1.78205E+3
   2.66747E+3  -8.32128E+2
   3.47113E+3   1.18844E+3
  -8.27252E+2   3.36826E+3
  -3.32884E+3  -6.86648E+2
  -1.06956E+3  -3.19612E+3
   3.01922E+3  -4.05099E+3
   2.36958E+3   1.77764E+3
   1.78977E+3   5.22594E+3
  -1.59822E+2   1.24888E+3
  -8.83020E+2   4.51097E+2
  -2.38488E+3   1.80126E+3
  -5.11138E+3   1.78906E+3
  -4.24882E+3   1.17438E+2
  -2.07770E+3  -3.59324E+3
   1.65482E+3  -3.51028E+3
   1.47262E+3  -1.10497E+3
  -8.64335E+2   6.81188E+2
  -1.01809E+3   1.36956E+3
  -5.65568E+2   1.36552E+3
  -2.65957E+3   6.91751E+2
  -3.02150E+3  -1.29787E+2
  -1.10268E+3  -2.73806E+3
  -1.19267E+3   4.14177E+1
   4.47274E+2  -2.11272E+3
   1.91865E+2   9.04124E+2
  -9.98351E+2   2.08266E+3
  -1.82374E+3  -3.21929E+2
  -1.24007E+3  -3.89323E+3
  -4.10442E+1  -1.15475E+3
  -1.64387E+3  -5.62179E+2
  -2.23670E+3   8.04777E+2
   1.39134E+3  -1.35995E+3
  -9.86749E+1   2.31632E+3
   2.87649E+1   8.97925E+2
  -1.28960E+3   1.58300E+3
   7.75096E+2  -2.28143E+3
   1.02112E+3  -2.59273E+3
   2.37537E+3  -6.64612E+2
   1.53552E+2   2.69717E+3
  -2.47950E+3   2.21902E+3
  -1.69686E+3  -1.20150E+3
   4.71222E+2  -1.97702E+3
  -1.13499E+3  -1.72115E+3
   9.38491E+1  -1.42678E+3
  -2.65568E+3  -1.15969E+3
   1.34915E+3  -2.08324E+3
   2.90004E+3  -1.11175E+3
   4.49996E+3   8.77589E+2
  -4.72436E+2   7.87583E+2
   3.79429E+1  -1.65745E+2
   2.24290E+3  -6.92073E+2
   2.44620E+3   6.35258E+2
  -8.95188E+2   8.84418E+2
   1.26950E+3   2.36343E+3
   6.39222E+2   2.30107E+3
  -7.90097E+2   9.32320E+2
  -2.82243E+3  -6.50790E+2
  -1.11578E+3  -1.98656E+2
  -4.30665E+2  -1.33033E+3
   4.13286E+2  -1.28234E+3
   9.09011E+2   1.74248E+3
   1.43041E+3   8.18652E+2
  -1.29208E+3  -8.79991E+2
   1.39188E+2  -6.26577E+2
   2.36289E+3   9.24897E+2
   7.92233E+2   3.68247E+2
  -1.15153E+3  -1.30085E+3
   3.27319E+2  -1.26189E+3
   3.68841E+2  -5.94204E+1
  -3.45229E+2   5.13065E+2
  -2.26172E+3  -6.01220E+2
  -1.76315E+3  -1.47474E+3
   1.37892E+3  -2.01243E+3
   2.66579E+3  -4.44153E+2
   1.12660E+2   1.00882E+3
  -2.38674E+3   1.24558E+3
  -2.57957E+3   1.00081E+3
  -3.46990E+2   3.12027E+2
  -1.27960E+3  -6.03948E+1
  -8.49385E+0   6.58073E+2
   7.33927E+2  -1.32287E+3
   2.91226E+3  -2.50232E+3
   2.87673E+3   1.01162E+3
  -3.11749E+2  -6.01895E+2
  -1.01867E+3   2.50965E+2
  -1.74135E+3   2.29111E+2
  -2.17066E+2  -6.06876E+2
  -7.92229E+2   7.41399E+2
   8.69907E+2  -1.09158E+3
  -1.17523E+3   1.78348E+3
   2.15124E+3  -7.48354E+2
   1.01308E+3   1.10248E+3
  -1.04137E+3   1.53166E+3
  -1.62177E+3   1.89546E+2
   1.63989E+2  -8.18992E+2
  -3.07113E+2  -1.36975E+3
  -2.41272E+2  -2.62281E+3
   6.67506E+2   1.99507E+3
  -4.44798E+2  -1.60252E+2
   1.16673E+3  -1.83340E+3
   1.05042E+3  -1.21641E+3
  -4.55086E+2   1.00718E+3
   1.94057E+3  -1.23090E+3
   9.37762E+2  -8.58356E+2
   6.41390E+2   3.08823E+3
   3.32811E+1   2.57485E+3
  -1.37287E+3  -2.85945E+2
  -1.39521E+3  -2.90146E+2
  -2.38861E+2  -1.68836E+3
   1.41711E+1  -3.13498E+3
  -7.06784E+2   3.81961E+2
   1.26095E+3  -3.01282E+2
   3.47303E+2   2.00590E+2
   1.73516E+3   1.84417E+3
   1.96510E+3   1.26902E+2
   4.31052E+2  -4.72821E+2
  -1.09527E+3  -9.21726E+2
  -3.45453E+2  -1.40345E+3
   1.63765E+3   1.54521E+3
   1.97711E+3   1.21126E+3
   3.67613E+2   1.84794E+3
   1.15907E+3   9.09962E+2
  -3.07430E+2  -9.90500E+2
   6.09109E+2  -4.11652E+2
  -9.22128E+2   3.50343E+2
  -1.02761E+2   1.40504E+3
  -6.67504E+2  -5.80008E+1
   2.73140E+2   1.06955E+3
  -1.05206E+3   7.97327E+1
   1.89284E+2   5.31779E+2
  -5.16560E+2  -2.88816E+2
   6.45435E+2  -1.23408E+3
  -1.78663E+2   5.47486E+2
   1.57347E+3   6.59033E+2
   9.74757E+2   3.86322E+2
   7.67403E+2   6.80619E+2
   3.85241E+1  -1.67123E+2
   1.08075E+3   1.51991E+3
  -5.91138E+2  -2.40539E+2
   6.10829E+1  -1.24921E+3
   1.15658E+3   1.00685E+3
  -4.10766E+2   2.66057E+3
  -1.82771E+3   1.57806E+2
  -7.48138E+2  -2.65355E+2
  -1.25038E+3   2.03070E+3
  -1.77671E+1   1.29165E+3
  -2.33080E+2   1.76608E+3
  -6.43324E+2  -2.24808E+2
  -1.75098E+3   8.21972E+2
  -1.05418E+3  -1.24886E+3
  -1.78949E+2  -2.28541E+2
  -2.55687E+2   1.94771E+2
   7.81627E+2  -1.34869E+3
   8.21148E+2   6.24516E+1
   1.72519E+2   8.17124E+2
   2.18293E+3   8.06632E+2
   9.27114E+2   2.48022E+2
  -9.41850E+2   2.88207E+2
   3.27478E+2  -2.17864E+2
   2.47268E+2   5.04411E+2
   8.39629E+2   8.67694E+2
   5.97687E+2   1.29250E+2
   1.49832E+3   4.00751E+2
   1.17886E+2  -2.68304E+3
  -1.38043E+3   5.20071E+2
  -1.19322E+3   1.12665E+3
   6.73887E+2   8.11158E+2
   5.68876E+2   6.39180E+2
   1.92849E+3   8.31857E+2
   8.74103E+2   9.58554E+2
   1.77368E+3   8.39538E+2
  -9.39785E+2  -1.66128E+3
   1.90409E+3   2.27733E+2
   3.73030E+2   2.42238E+3
  -2.34485E+3  -6.72621E+2
  -1.24209E+3  -2.35714E+3
  -2.73377E+2  -4.60357E+2
  -1.38992E+2   1.06950E+3
  -1.73493E+3   8.85297E+2
  -9.53846E+2   5.68089E+1
   1.43534E+3   5.20156E+2
  -1.08196E+3   2.20592E+3
  -1.80853E+3   1.61580E+2
  -4.27259E+1   2.12601E+2
  -1.76416E+3   3.80581E+2
   1.12888E+3  -3.14660E+1
   3.52312E+2  -6.00502E+2
   7.42700E+2  -1.44399E+3
  -5.10426E+2   2.23092E+3
  -5.15600E+2  -1.31302E+3
  -1.80131E+3   9.38395E+2
  -7.12350E+2   7.17381E+2
  -1.88876E+3  -6.57541E+2
   2.59400E+2   3.89332E+2
   3.43303E+2   1.21346E+3
  -1.21568E+3   8.22132E+2
  -2.13569E+2  -1.11930E+3
   1.86331E+3  -7.48580E+2
   1.03007E+3   1.30773E+1
   1.52083E+2  -1.20641E+3
   8.91735E+2   4.55987E+2
  -4.70504E+2   5.86102E+2
  -1.80670E+3  -1.16426E+3
   1.36592E+2  -1.16761E+3
  -2.95533E+2  -5.73432E+0
   9.47803E+2   1.47501E+3
   1.26166E+3   2.58779E+2
   9.67963E+2   2.08701E+2
   1.13732E+2   4.53980E+2
  -4.97665E+2  -8.54656E+1
  -2.95195E+2   1.85555E+3
   4.30246E+2  -1.18381E+3
   5.13462E+2  -1.37220E+3
   3.41976E+2   6.82680E+2
  -2.55973E+3  -2.08076E+2
  -1.19176E+3   1.86428E+2
   4.53477E+1   1.34751E+1
  -4.61360E+2  -7.66050E+2
  -1.57973E+0   3.25320E+2
   4.96697E+2   1.62875E+2
  -1.62522E+3  -1.19664E+3
  -2.66129E+2  -2.28310E+3
   1.44757E+3   1.27506E+2
  -1.62695E+3   9.83596E+2
   5.42887E+2   4.88612E+2
   1.24593E+3   1.37341E+3
  -1.21451E+3  -4.35974E+2
  -2.14973E+1  -4.75879E+2
  -4.96195E+2  -9.65776E+2
   1.09248E+3   1.26229E+3
   3.99668E+2   7.74876E+2
  -2.21846E+1   1.28492E+3
  -1.14776E+3  -4.56173E+2
  -1.58531E+3   4.01241E+2
  -2.27275E+2   6.09585E+1
  -1.63120E+3  -5.84912E+2
   1.77726E+3   1.39820E+3
  -5.87903E+2   2.83302E+2
   9.99196E+2  -9.01664E+1
   1.53410E+3  -1.09509E+3
   6.33422E+2  -5.48903E+2
  -5.51203E+2   7.11284E+2
  -5.44566E+2  -1.95040E+3
   9.40484E+2  -1.23668E+3
   1.06254E+3   1.92030E+3
   8.86359E+2   1.70695E+3
  -2.81761E+2   3.51165E+2
  -1.08201E+3  -9.48880E+1
   1.66009E+3  -2.58469E+3
   5.44124E+2   3.09782E+2
   4.69720E+2   7.71877E+2
  -1.33456E+3   7.34143E+2
   3.37077E+2  -2.34263E+2
   3.30981E+1  -9.71245E+2
  -2.45849E+3  -3.30035E+2
  -2.55953E+1  -5.30751E+2
   1.78824E+3  -1.08614E+3
   2.11369E+3   1.03108E+3
  -2.85654E+3   5.33311E+2
  -1.10733E+3   9.01810E+2
  -1.23130E+3   1.30561E+2
  -3.17982E+2  -1.24895E+3
   2.21691E+3  -4.33876E+2
  -1.24520E+2   1.75402E+3
  -6.56969E+2  -5.04784E+2
  -2.42288E+2  -6.33694E+2
  -1.01119E+2   5.11232E+2
  -7.98667E+2   1.53935E+3
  -1.30080E+3  -1.10515E+2
  -1.07586E+3   2.41149E+3
  -8.87698E+2  -2.22217E+2
