 
 $NMID
 ID=''
 FMTDAT='(2E13.5)'
 TRAMP=   1.00000E+0
 VOLUME=   1.00000E+0
 $END
   1.01603E+3  -5.43215E+2
   6.82066E+2   2.27106E+3
   8.39603E+2  -4.85853E+3
   7.46035E+2  -4.92069E+2
  -9.10957E+2  -4.01307E+3
  -1.87589E+3  -4.60645E+3
  -2.16736E+3   5.96593E+2
  -4.12394E+3  -2.09287E+2
  -3.92456E+3  -9.96310E+1
  -4.84537E+3   1.94741E+3
  -2.00799E+3  -9.95758E+0
   1.89489E+3  -1.75954E+3
   9.78148E+2   3.78523E+3
  -2.93498E+3   5.35849E+3
  -1.67151E+3  -3.94426E+2
   3.12766E+3  -1.86292E+3
   1.68134E+3  -3.24613E+2
   1.50904E+3   5.64763E+2
  -2.55785E+3   2.29581E+3
  -1.23907E+3  -2.30298E+3
   3.93600E+3  -2.85321E+3
   3.12238E+3   2.32205E+3
  -2.84017E+3  -7.55636E+1
  -9.58034E+0  -5.01715E+3
   4.51797E+3  -1.84115E+3
   8.14106E+2   2.81872E+3
  -3.19687E+3   1.95854E+3
  -3.46143E+3  -1.57044E+3
  -7.68219E+2  -4.73246E+3
   4.95853E+3  -2.09364E+3
   5.31069E+3   3.13035E+3
  -5.05943E+3   5.66185E+3
  -2.37818E+3  -2.57164E+3
   1.66132E+3  -1.55830E+3
   6.54284E+2   3.94732E+3
  -1.77433E+3  -1.72436E+3
   3.40967E+3  -6.16052E+1
   4.23223E+3   3.86910E+3
   1.24626E+1   4.37379E+3
  -9.96324E+2   4.32660E+2
  -3.27575E+3   1.49358E+3
  -4.35739E+3  -4.40382E+3
   2.17358E+3  -6.32566E+3
   4.70190E+3  -1.82429E+3
   1.21447E+3   1.25748E+3
  -1.21959E+3   1.37255E+3
   2.34422E+3  -4.52733E+2
  -1.20533E+3   4.66014E+3
  -4.15765E+3   1.56807E+3
  -7.50153E+2   3.89003E+2
   1.16258E+3  -2.05006E+3
   1.36720E+3  -7.17426E+2
   2.48057E+3   6.76237E+2
  -1.50005E+3   2.95148E+3
  -2.99341E+3  -2.47949E+2
  -3.32966E+3   7.35577E+2
  -4.36576E+3  -3.88804E+3
   1.53823E+3  -5.69611E+3
   6.80912E+3  -2.46143E+3
   2.56111E+3   1.59198E+2
   2.27233E+3   2.30262E+3
  -1.63213E+3   3.76348E+3
   4.58985E+2   3.67505E+2
   2.43785E+3  -8.56435E+2
   4.05971E+3   2.36298E+3
  -1.27263E+3   3.33678E+3
  -3.71731E+3  -1.42210E+3
  -4.40917E+2  -2.96295E+3
   1.34535E+3  -1.81480E+3
   4.45069E+2  -4.93130E+2
  -8.90938E+2  -3.47657E+2
  -6.28824E+2  -2.03622E+3
   2.06034E+3  -1.31755E+3
   8.27030E+2  -2.22054E+2
  -1.89443E+2   1.32680E+3
  -7.46596E+2   6.93169E+2
  -5.25703E+2  -5.49235E+2
   5.86775E+2   1.13608E+3
   1.76414E+3   1.46646E+3
  -3.82336E+3  -2.87811E+2
  -7.56923E+2  -2.73252E+3
  -1.09294E+3  -9.82842E+2
  -3.55742E+3  -6.58031E+2
  -2.18810E+3  -1.33629E+3
  -1.64067E+3  -3.32594E+3
   1.70562E+3  -1.59695E+3
  -2.60389E+1  -9.02856E+2
   2.73223E+2   4.19909E+3
  -1.48897E+3  -1.56575E+2
   1.30775E+3  -2.65581E+3
   1.33898E+3   5.86821E+2
  -7.55690E+2   1.14836E+3
  -1.25970E+3  -1.24495E+2
   1.48651E+3  -1.99739E+3
   1.27227E+3   9.44102E+2
  -1.22468E+3   2.09752E+3
  -1.12118E+3   2.85238E+3
  -2.11046E+3  -1.44940E+3
   6.38074E+1  -1.82757E+3
   8.99948E+2   7.82144E+2
  -2.08174E+3   3.87175E+3
  -1.14240E+3   1.22499E+3
  -3.99529E+3  -8.73372E+2
   1.16074E+3   5.59008E+2
   2.05932E+2   7.01398E+2
  -1.32314E+3  -4.40665E+2
  -2.53544E+3  -1.96605E+3
   1.16839E+3   1.01537E+3
  -8.27946E+2   2.22631E+3
  -8.02539E+2   3.99617E+1
  -7.29079E+2  -1.45728E+2
  -3.56435E+2   3.52867E+2
   4.66726E+2  -7.30729E+2
  -7.26268E+2   5.79666E+2
   1.51838E+3  -1.13118E+3
   1.84375E+3   6.77241E+2
   4.68408E+2   3.61341E+2
   4.04653E+2  -2.33953E+3
   3.86956E+1   9.23423E+2
   4.16477E+2   5.87469E+2
   6.21357E+2  -7.15978E+2
  -2.22554E+2   1.62497E+3
   1.61517E+2   2.89365E+3
  -3.72026E+2  -3.73377E+2
   1.32383E+3   1.82607E+3
  -1.28759E+3   1.53592E+3
  -1.11270E+2   1.63675E+3
   1.92553E+3  -2.86789E+3
   6.20608E+2  -3.03786E+2
  -5.23149E+2  -4.99991E+2
   2.05937E+3   1.27393E+3
   1.13556E+2  -1.59538E+3
   8.32138E+2  -1.87251E+3
   5.14221E+2  -4.48235E+2
   8.93320E+2   2.78049E+3
   8.41454E+1   8.48000E+2
  -8.83089E+2   1.09215E+1
   1.31546E+3   1.13107E+3
   2.97925E+3  -7.15238E+2
  -1.48110E+2   7.68912E+2
   4.01975E+2   1.01209E+3
   4.60529E+2   2.82138E+2
   7.01518E+2  -5.57840E+2
   2.07046E+2   5.96782E+2
  -2.39290E+2   1.42183E+3
   1.91853E+3  -6.00754E+2
   7.69407E+1   1.44064E+3
   3.65665E+2   4.38794E+2
  -8.01414E+2   9.92861E+2
   2.18585E+3   3.59120E+3
  -1.72071E+3  -2.49764E+2
   1.75718E+3   2.31541E+2
   4.04028E+2   1.55281E+3
   4.56091E+2  -3.27826E+3
   7.96181E+2  -5.61512E+2
   2.26785E+3   1.31081E+3
  -1.19625E+3   5.10520E+1
   6.39479E+2   1.08456E+3
  -5.33898E+2   5.92410E+2
   3.70789E+2   8.30178E+2
  -5.18589E+2   4.47881E+2
  -4.15019E+1   2.66555E+3
   1.54286E+3   5.44632E+2
   1.70005E+3  -2.60555E+2
   5.62389E+2   7.88583E+2
   8.36008E+2  -6.49403E+2
  -2.44514E+3   7.41686E+2
   5.29683E+0  -1.15944E+3
  -1.57625E+2   1.14058E+3
  -2.26584E+2  -3.64088E+2
   4.43068E+2  -1.57748E+2
  -1.03075E+3  -1.00198E+3
   7.52429E+2   2.08343E+2
  -1.16993E+3   6.07292E+1
  -1.84115E+3  -1.60166E+3
  -3.22043E+2  -4.51124E+2
  -1.79995E+3  -1.64273E+3
   1.77181E+3   8.40113E+2
   2.05241E+3  -1.35964E+3
   1.53334E+1  -1.65314E+3
  -1.45545E+3  -7.07636E+2
  -1.21838E+3  -9.27665E+2
   1.58820E+3  -3.07700E+2
   1.48782E+3   3.48078E+2
   1.57301E+3  -1.52445E+3
   1.45391E+3  -3.75407E+2
  -1.27931E+3   1.56501E+3
  -4.00388E+2   3.42360E+2
  -3.17524E+3   9.31399E+2
  -2.29361E+2   3.18270E+2
  -3.58501E+2  -2.31482E+3
   9.69892E+2   1.73118E+2
  -1.87089E+3  -1.67243E+2
   7.59263E+2   1.01705E+2
  -1.40764E+2   1.72241E+2
  -8.31087E+2   4.20975E+2
   5.39843E+2  -4.06855E+1
   3.77076E+2  -6.50112E+2
  -3.11234E+2  -4.09595E+2
   8.41373E+2  -3.05327E+2
   1.07349E+3   5.39033E+2
  -4.27180E+2  -6.74032E+2
  -2.01081E+2  -2.18922E+3
  -3.84231E+2  -1.63507E+3
   1.92945E+3  -4.17505E+2
   1.67428E+3   6.58877E+2
  -1.99753E+2  -1.37079E+3
  -6.41079E+2  -1.75746E+2
   1.04676E+3   1.08367E+3
  -7.78982E+2   1.15878E+3
   9.95173E+2  -2.13600E+3
  -9.50941E+2  -3.11410E+3
  -1.11390E+3  -1.36846E+3
   2.32510E+3   2.05796E+3
   1.22302E+2   9.05218E+2
  -6.70095E+2   2.30689E+2
  -1.48829E+3   1.08011E+2
   1.21420E+3  -7.62931E+2
  -3.17240E+2  -1.45900E+3
  -1.17789E+3  -1.05650E+3
  -9.33655E+2  -1.24075E+3
   3.98076E+2  -2.05777E+3
   2.00483E+2   1.44521E+2
   1.50151E+2  -1.35953E+3
   9.29632E+2  -3.97534E+2
   4.72004E+1  -1.09436E+3
  -3.74197E+2  -1.20864E+3
   1.31094E+3  -1.52199E+3
  -1.00908E+3   6.32341E+2
  -1.64672E+3  -1.23421E+3
  -1.42739E+2  -8.87917E+2
  -3.03591E+3  -2.02501E+2
   2.87367E+2  -3.49226E+2
   1.05136E+3  -1.18185E+3
   6.67453E+2   8.63732E+2
  -6.32627E+2   7.15829E+2
  -3.44271E+2   6.27017E+2
   1.83029E+2  -1.20447E+3
  -5.60777E+2  -2.67781E+3
  -1.14219E+3  -1.32345E+2
   6.06752E+2   9.82729E+2
   8.18123E+2   1.04493E+3
   3.80684E+2  -6.15996E+2
   4.20325E+2  -5.72115E+2
   3.36653E+2  -1.87136E+3
   8.13543E+1   1.13108E+3
  -1.06932E+3  -4.83623E+2
   2.25441E+2   7.44694E+2
  -1.38283E+3   2.82191E+2
  -5.33834E+2  -1.65854E+2
  -4.13015E+2   3.76772E+1
  -1.14280E+3   3.45458E+2
  -7.50581E+2  -2.46351E+3
  -5.46562E+2  -2.68345E+3
   7.54626E+2  -8.54315E+2
   2.92699E+2   4.56663E+2
   4.96529E+2   1.64181E+3
  -1.99090E+3   8.36927E+2
  -5.62946E+2   4.34777E+2
  -6.35507E+2  -1.07748E+3
  -8.08095E+2   5.94921E+2
  -3.58832E+2  -1.46036E+3
   4.83266E+2  -2.60582E+3
   8.31838E+2   1.79702E+2
   4.93009E+1  -5.93168E+2
  -2.18213E+2   1.33874E+3
  -1.20782E+3  -9.25165E+2
  -1.32541E+3   3.20611E+2
   6.30511E+1  -3.27997E+2
   5.10984E+2   2.83387E+3
   8.47654E+2   3.19259E+2
   4.29376E+2   2.49945E+3
   6.05825E+2   3.13095E+2
   6.52988E+2  -7.70216E+2
   1.30445E+3   4.92058E+2
  -9.11509E+1  -1.28730E+3
  -5.82378E+2   1.38318E+3
  -1.20604E+3  -1.16674E+2
   5.12500E+2  -1.55060E+3
  -5.47651E+2  -4.68195E+2
   1.15691E+3  -2.16431E+3
   1.64713E+3  -6.64848E+2
  -1.62145E+2   2.84338E+2
  -4.69700E+2   3.44429E+2
   1.86175E+2  -1.92782E+3
   9.37512E+2   2.13958E+1
  -1.90066E+3   3.70481E+2
   1.56206E+3  -1.57117E+3
  -5.47981E+2   8.53313E+2
   7.42474E+2  -6.21220E+2
  -1.45548E+3   9.13609E+2
   1.79828E+3  -4.63067E+2
  -2.33718E+2   6.82366E+0
   9.41928E+2  -1.11282E+3
  -3.60559E+2   1.07396E+3
   7.43260E+2   3.47892E+2
   1.65778E+3  -3.71076E+2
   1.05612E+2  -7.93347E+2
   6.51873E+2   3.20996E+2
   3.29049E+2   1.89272E+3
  -2.74481E+2  -1.48493E+3
  -8.63398E+2  -9.83474E+2
   3.89323E+2   4.03118E+2
   4.06939E+1   5.30510E+2
  -6.48264E+1   1.56661E+3
   2.75719E+3   1.33053E+3
   1.44732E+3  -5.03657E+2
  -2.89657E+1   3.07167E+3
   9.13789E+2  -3.15615E+2
  -1.28453E+3   5.72844E+2
   8.09450E+1  -9.53201E+2
  -6.96828E+2   1.39772E+3
   6.15425E+2   6.81780E+2
  -4.05570E+2   2.15249E+2
  -5.11004E+2   8.63078E+2
   5.29241E+2   5.33712E+2
  -2.70828E+2  -8.27169E+2
   1.76262E+3  -1.24903E+1
   2.47783E+2   5.19950E+1
  -6.70576E+2   7.76123E+2
  -1.53753E+3  -6.61599E+2
   2.17412E+2  -1.29335E+3
  -6.89792E+2   8.82468E+2
  -2.65224E+3  -9.96112E+2
   1.51273E+1   2.39351E+2
   1.23583E+2  -8.98156E+2
  -1.60894E+3  -5.85349E+1
  -1.81965E+3   7.81040E+2
   1.59158E+3  -5.19438E+2
  -9.33006E+2   1.34746E+3
   1.75444E+2  -4.84119E+2
   6.90005E+1   4.93723E+2
  -2.38889E+2   1.30197E+2
  -1.50247E+3   1.33896E+3
   4.31410E+2  -1.07787E+3
   8.25084E+2   3.46095E+2
  -5.93364E+2   6.08929E+2
   9.22319E+2  -4.77388E+1
  -6.23606E+2  -6.37376E+2
  -6.15748E+2  -4.77579E+2
   1.56093E+3  -1.80394E+3
  -3.94401E+2  -1.85716E+3
   1.86385E+3   6.76411E+2
   1.47439E+3  -8.58911E+2
   8.26130E+0  -7.78436E+1
  -2.07245E+3   1.20062E+3
  -2.04346E+3  -9.67436E+2
   1.58988E+3   2.53474E+3
   4.40680E+2  -2.57940E+2
   6.20959E+2   5.27763E+2
  -7.53451E+2   7.57943E+2
   7.09208E+2   7.96239E+2
  -2.79838E+2   1.20036E+3
   6.09479E+2   3.52142E+2
  -8.90256E+2   8.04032E+2
  -6.09922E+2  -1.87907E+3
  -4.53258E+1   1.63403E+3
  -7.61005E+2  -5.66919E+2
   1.84263E+3   7.82932E+2
   2.11009E+2  -1.16606E+3
  -5.78589E+2   1.74799E+3
  -1.31787E+2  -1.41440E+3
  -1.25761E+3  -1.22541E+3
   2.74953E+2  -6.49753E+2
  -2.26470E+1  -4.71671E+1
   1.00634E+3  -1.85297E+3
  -2.11443E+2  -2.29629E+1
