 
 $NMID
 ID=''
 FMTDAT='(2E13.5)'
 TRAMP=   1.00000E+0
 VOLUME=   1.00000E+0
 $END
   2.06852E+2   4.42037E+2
   7.29382E+2   1.43076E+3
   4.83770E+3   5.07182E+2
   4.41662E+3  -4.68027E+3
  -6.43312E+2  -5.81359E+3
  -3.06297E+3  -5.24257E+3
  -5.12964E+3   3.88830E+2
  -4.55759E+3   1.48802E+3
  -1.96511E+2   3.64160E+3
   7.51323E+2   1.86513E+3
   3.35214E+3  -2.51609E+3
   4.88284E+3  -6.41674E+2
   4.09099E+3  -1.71301E+3
   8.39484E+2   8.57671E+2
  -3.86642E+3  -4.96226E+2
  -1.24324E+3  -3.66924E+3
   2.60947E+3  -2.59966E+3
  -1.74698E+1   1.52907E+3
  -3.23586E+2   8.71624E+2
  -6.05232E+2   1.12854E+3
   5.06854E+3  -2.86050E+3
   4.36988E+3   2.70566E+3
   2.20314E+3   4.82966E+3
  -1.98194E+3  -2.21515E+3
   4.80357E+2  -5.32351E+3
   1.69107E+3  -1.28562E+3
  -7.17340E+2   2.41409E+2
  -2.72926E+3   2.26537E+3
  -3.14047E+3  -3.46892E+3
  -3.42609E+2  -5.28043E+3
   5.02602E+3   4.57942E+2
   7.78405E+2   6.83612E+3
  -6.50098E+3   5.39743E+3
  -3.11489E+3   1.79403E+3
  -2.07959E+3   2.18385E+3
  -5.12081E+3   1.41774E+3
  -4.28191E+3  -3.89568E+3
   4.04579E+3  -1.34179E+3
   3.68040E+3   1.96717E+3
   1.35971E+3   1.44524E+3
   2.71482E+3   2.38335E+3
   2.74000E+3   5.93050E+3
  -2.97364E+3  -5.25849E+2
   1.37070E+3  -6.92258E+3
   4.63502E+3  -5.16363E+3
   4.52833E+3  -2.93071E+3
   4.66712E+2  -3.21668E+3
   1.82817E+3  -1.70074E+3
   4.32759E+2   1.76790E+3
  -1.34928E+3  -6.85906E+2
  -4.38801E+3  -1.65887E+3
  -5.00839E+3  -1.30468E+3
   7.79814E+2  -5.25987E+3
   1.70638E+3  -2.21749E+3
   4.14446E+2   1.75811E+3
   8.61617E+2   3.71456E+3
   6.55983E+2   3.85265E+3
  -3.87778E+3   5.53103E+3
  -4.59576E+3  -1.14239E+3
  -1.25407E+3  -3.00356E+3
   1.71231E+3  -4.00348E+3
   2.03075E+3  -2.52767E+3
   4.02785E+3   7.28153E+2
   2.17909E+3   3.78685E+3
   6.90964E+2   7.74466E+2
   1.20473E+3  -2.21282E+3
   9.28677E+1   4.85744E+3
  -3.43495E+2   3.04104E+3
  -3.04912E+3   2.39174E+3
  -2.42151E+3   1.22266E+3
  -1.19915E+3   9.19420E+2
  -6.05963E+2   2.29652E+2
  -1.51399E+3  -2.69272E+3
   1.84714E+2  -4.88071E+2
  -9.51954E+2  -1.39965E+3
   3.14472E+2  -1.18243E+3
  -8.32698E+2  -1.63252E+2
  -3.02098E+3  -1.92978E+3
  -1.51244E+2  -1.90341E+2
   1.18982E+3  -9.21460E+2
   2.25164E+3   3.34619E+3
  -5.22027E+2   2.53248E+3
   1.53259E+3   9.03404E+2
   4.50817E+3   1.79086E+3
   2.92287E+3   3.88605E+3
  -2.91762E+3   5.27505E+3
  -3.09114E+3   4.32243E+1
  -1.78438E+2  -1.32548E+3
   1.39316E+3  -8.31557E+2
   8.69410E+2   1.02387E+3
  -6.53829E+2   3.94790E+2
  -1.05210E+3  -2.59047E+2
   1.80264E+3  -9.33123E+2
   1.06390E+3   2.00232E+3
  -3.62090E+3   2.50380E+3
  -4.96523E+3  -1.96779E+3
  -8.27607E+2  -2.20660E+3
  -3.44798E+1  -1.38358E+3
   6.64478E+2   1.66775E+3
  -2.62753E+3   2.85382E+3
  -1.39512E+3  -3.94376E+2
   7.81117E+2  -3.91188E+3
   3.96200E+3   6.63626E+2
   1.54882E+3   9.81458E+2
  -1.18605E+3   2.13786E+3
  -1.68997E+3  -1.10664E+2
   4.37585E+2   1.43422E+3
  -4.88755E+2   2.39452E+3
  -3.44239E+3   2.15984E+3
  -2.35120E+3  -2.79953E+3
  -4.02560E+3  -5.86550E+3
   6.12334E+2  -3.69871E+3
   1.34090E+3  -1.22466E+3
   1.61558E+3   3.04952E+3
   1.70924E+3   1.68177E+3
  -5.66563E+2   1.33716E+3
  -1.28821E+2   1.94589E+3
   3.70613E+2   1.03243E+2
  -6.72429E+2  -4.02361E+2
   4.08011E+2   1.39644E+2
   2.59671E+2  -1.61573E+2
   2.81073E+2   8.98816E+2
   2.02854E+2   7.60004E+2
  -4.40207E+3   4.81469E+1
   1.53287E+3  -1.96503E+3
   9.54213E+2  -9.01799E+2
  -1.20752E+3   5.07387E+2
  -1.12065E+3   8.21843E+2
   2.04472E+2   2.73961E+3
   9.57658E+1   1.43254E+3
  -7.18738E+2   3.04061E+3
  -8.15092E+2   4.34868E+2
   1.74587E+3  -3.43645E+3
   2.76238E+3  -4.10537E+2
   1.63634E+3   2.28187E+3
  -1.43657E+3  -8.73647E+2
   3.33760E+2   5.26723E+2
  -1.68520E+3  -2.04368E+3
   1.35898E+3  -4.88545E+2
  -1.78019E+3   1.89000E+2
   2.78641E+1   8.75782E+2
  -9.15757E+2  -1.55623E+3
   2.01712E+3  -8.25320E+2
   6.09042E+2  -3.59732E+2
  -9.52215E+2   6.28170E+2
  -2.10337E+2  -8.51093E+2
  -6.44655E+2  -1.61354E+3
   1.09360E+3  -4.98900E+2
  -1.36471E+3   1.74173E+3
   1.61904E+3  -1.89954E+2
   2.00241E+3   2.77374E+3
   1.57059E+3   2.42644E+3
  -1.64026E+3   1.59423E+2
  -4.60451E+2  -1.10392E+3
   4.33296E+2  -3.59532E+3
  -2.24281E+2  -3.49314E+2
   3.02829E+3  -7.69411E+2
   2.10174E+3  -4.09128E+2
  -1.04481E+3   8.74965E+2
   1.34350E+3   4.67094E+2
   2.34457E+3  -2.37661E+2
  -3.35031E+2   4.04361E+2
  -6.77051E+2  -4.18643E+2
   4.73354E+2  -2.07925E+3
   2.78084E+2  -1.03504E+2
   2.31407E+3   7.21044E+2
  -1.07150E+3   9.92338E+2
  -4.22354E+2  -1.52757E+2
   5.63135E+2  -1.26949E+3
   2.70004E+3  -4.74120E+1
  -5.10062E+2   5.43565E+2
  -1.78064E+3   2.15046E+3
  -1.07428E+1   1.05686E+3
   3.46685E+2   1.54143E+3
   1.06331E+3  -1.68207E+3
  -9.36021E+2  -1.87517E+3
  -2.54276E+3  -1.32974E+3
  -5.35218E+2  -2.06961E+3
   3.27982E+3  -6.53582E+2
   1.00137E+3   4.19443E+2
  -1.39983E+3   1.93867E+3
  -2.01599E+2   8.37671E+2
  -4.67432E+2  -4.15958E+2
  -3.02272E+3  -1.85616E+3
  -6.03749E+2  -6.17252E+2
  -7.82908E+2  -9.63578E+2
   3.43997E+2  -7.86312E+2
  -1.05497E+3   1.74342E+3
   3.86509E+2   1.85232E+3
  -1.77204E+3  -9.20296E+2
   1.09882E+3  -1.90023E+3
   7.09164E+2   5.29102E+2
  -6.44235E+2   6.28861E+2
  -8.82853E+2  -4.63691E+2
  -2.85107E+3   2.10483E+3
  -3.53710E+0   1.71008E+2
   1.46839E+2  -4.93246E+2
   1.02999E+3  -8.93984E+1
  -9.99585E+2   9.61406E+2
   2.39266E+2  -2.41311E+3
   2.43394E+3   3.15436E+2
   7.30541E+2   2.79551E+3
  -8.62738E+2  -9.94022E+2
  -1.11834E+3   8.79297E+2
  -5.48321E+2  -2.06054E+3
   3.56894E+2   3.31063E+2
  -1.02142E+3   3.49207E+2
  -5.39663E+1  -3.81479E+2
   3.98525E+2   6.75301E+1
  -1.76969E+2   6.59822E+2
  -1.27574E+2  -4.29561E+2
  -5.79889E+2  -2.28825E+2
  -2.20903E+3   9.67146E+2
   3.62347E+2  -2.24457E+3
   2.94722E+3  -6.62332E+2
   1.25122E+3   8.62880E+2
   1.18216E+3   1.64653E+1
   1.72620E+3   1.90128E+3
  -4.56925E+2   2.10379E+2
  -1.29729E+3   1.37654E+2
  -1.31724E+3  -2.36025E+2
   3.92449E+2   2.16445E+3
  -6.75643E+2  -1.08881E+3
   4.71637E+2   1.12506E+3
   8.25557E+2   4.63436E+1
  -1.23721E+3  -4.60724E+2
   6.30644E+2  -1.31564E+3
   1.14410E+3   2.85049E+2
   1.53371E+3  -1.51849E+3
  -4.29060E+2   9.91274E+2
   7.44139E+1   2.87007E+3
   3.79028E+1  -2.91858E+2
   1.65253E+3   2.13964E+2
  -2.77997E+2   7.37478E+2
  -2.28900E+3  -2.91321E+3
   1.96500E+3  -1.22415E+3
   2.21235E+3  -1.71604E+3
   1.41692E+3   5.23122E+2
   9.21869E+2   1.73163E+3
  -1.19835E+3  -9.87756E+2
  -3.92309E+2  -1.26385E+3
   4.33288E+2  -1.24244E+3
   3.78149E+2   9.97744E+2
   4.83356E+2   1.75645E+2
  -7.72598E+1  -6.22197E+2
  -1.94362E+2  -7.32306E+2
  -1.39290E+3  -1.52159E+3
  -1.23002E+3   1.03897E+3
  -2.15225E+3  -3.07190E+2
   2.27063E+3  -3.05280E+3
   3.26358E+3  -2.75973E+2
   1.62464E+3   1.59344E+3
   1.31047E+3   2.02506E+3
  -7.47637E+1  -8.13273E+2
  -1.12048E+3   1.07619E+3
  -5.02018E+2   2.70414E+2
   1.76238E+3  -4.33074E+2
  -8.47910E+2  -1.97328E+3
   1.87442E+3   1.18263E+3
  -2.69635E+2   1.49864E+3
   6.89635E+2  -8.16549E+2
  -5.13311E+2  -1.46202E+2
  -1.15541E+3   2.22572E+2
   6.74643E+2  -1.30368E+3
   9.37624E+2  -5.53931E+2
  -1.55746E+3  -8.54462E+2
   1.33698E+3  -4.43230E+0
   6.36923E+2  -6.96547E+2
   1.26406E+3   8.30699E+2
  -1.89165E+2   1.44986E+3
  -2.26393E+3   1.07288E+3
  -2.74520E+2   2.92731E+2
   6.62407E+2  -2.82623E+3
   4.91359E+2  -1.00913E+3
  -7.10667E+2   1.59648E+3
  -3.24137E+2   1.12366E+3
  -5.65534E+2   4.21514E+2
  -1.58525E+2   4.98466E+2
   6.49806E+2  -7.01391E+2
  -7.50547E+2   6.79126E+2
  -2.00520E+3  -4.83706E+2
   2.54182E+3   3.21883E+2
   7.49307E+2   1.47921E+3
  -1.68819E+3   2.17820E+2
  -1.70789E+3   3.40248E+2
   7.32063E+2   5.79037E+2
   2.79322E+2  -5.02200E+2
  -1.01696E+2   5.40797E+2
  -4.55951E+2   9.68296E+1
   8.19061E+2  -1.07586E+3
  -2.03152E+3   4.96359E+2
  -1.22367E+3  -5.46629E+2
   1.51496E+3  -1.83805E+3
   7.99805E+2  -6.40236E+2
   1.37057E+3  -8.84782E+2
   1.38008E+3  -2.04584E+3
   3.89364E+2   8.12433E+2
  -1.63370E+3  -5.13217E+2
  -8.05193E+2  -1.48580E+3
   1.85084E+2  -3.64021E+2
   1.22042E+3   2.73057E+2
   1.65247E+3   1.98348E+2
   4.70697E+2  -3.51793E+2
   7.38587E+2   4.29471E+2
   5.48724E+2  -3.73444E+2
  -5.78497E+2   1.70868E+3
  -1.60346E+3  -9.93977E+2
  -1.29665E+3  -3.05191E+3
  -5.98474E+2  -1.66441E+3
   1.79149E+3  -8.29989E+2
   3.91430E+2   3.02866E+3
  -4.32360E+2  -1.59194E+3
  -2.38377E+3  -5.61674E+2
  -7.35491E+2  -1.29188E+3
   1.85747E+2  -1.06348E+3
  -7.85779E+2  -2.37605E+3
   1.07954E+3  -2.16098E+3
   1.88314E+3  -1.09298E+3
   5.14686E+2   2.62056E+3
  -2.47652E+3   5.73116E+2
  -3.64294E+2  -4.68314E+2
  -6.40111E+2  -1.75627E+3
  -6.74360E+2  -2.22452E+3
  -9.94951E+2  -2.21390E+2
   5.08026E+1  -2.52905E+1
   1.64347E+3   1.09713E+3
   1.27844E+3  -2.04409E+3
  -4.06138E+2   8.13317E+2
  -3.25428E+3   2.21183E+1
  -1.16960E+3   4.23504E+2
  -4.84215E+2  -2.22295E+3
   5.66191E+1  -3.74808E+2
   3.05320E+2  -5.24691E+1
  -1.11959E+3  -1.27611E+3
  -3.83870E+2   1.85319E+3
  -3.43397E+2  -3.82983E+2
  -1.08890E+3   1.43233E+3
  -1.41693E+3  -3.09372E+2
   5.17304E+2  -2.42901E+3
   1.26864E+3   8.52582E+2
   2.02480E+3   3.72553E+2
   1.09660E+3   3.97136E+2
  -3.94482E+3   6.92859E+2
  -3.17446E+2  -2.62228E+3
   1.00337E+3  -1.66537E+3
   1.30876E+2   1.64126E+3
   1.67775E+1  -1.30577E+3
  -5.95807E+2  -8.37542E+2
   9.79046E+2   5.86678E+2
  -7.54997E-1   5.51337E+2
  -1.91913E+3   4.94497E+2
  -9.00261E+2   1.46903E+2
  -1.25969E+3   4.78804E+2
   1.68253E+2  -8.70748E+2
   2.57362E+3   3.50546E+3
  -1.42937E+3  -3.48995E+2
  -2.06359E+3  -1.96609E+3
   3.41215E+2  -2.16788E+2
  -2.69391E+2   1.80108E+2
  -2.41467E+2   1.39628E+3
   4.18881E+2   6.90293E+2
   1.18673E+3  -4.80192E+2
   1.54076E+3   8.96548E+2
  -3.85899E+2   7.95941E+2
  -1.36222E+3   1.86526E+3
  -5.01643E+2   1.20712E+3
   5.00793E+2  -2.78076E+3
