 
 $NMID
 ID=''
 FMTDAT='(2E13.5)'
 TRAMP=   1.00000E+0
 VOLUME=   1.00000E+0
 $END
   8.47328E+2   1.76285E+2
  -1.44849E+3   1.72942E+3
   3.85709E+3  -1.74772E+3
  -2.15538E+2   3.40410E+2
   6.89906E+2  -1.08285E+3
   2.67311E+3  -1.15107E+3
  -1.91837E+3   3.15865E+2
  -5.05098E+2   9.73162E+2
   1.46243E+3  -1.01287E+3
  -5.00004E+2  -2.17708E+3
   1.57166E+3  -3.96642E+3
   3.02631E+3   4.96222E+2
   1.09965E+3   2.76177E+3
  -2.86778E+3   4.05264E+3
  -4.07552E+3  -6.37202E+2
   9.72743E+2  -1.10994E+3
   3.26019E+3  -1.88124E+3
   2.87648E+3   2.07001E+3
  -3.53784E+3   1.35111E+3
  -7.27752E+2   2.39648E+2
   1.57025E+3  -1.28699E+2
   2.15050E+3   5.23642E+3
  -3.06460E+3   2.70311E+3
  -2.22880E+3  -1.27861E+3
   1.13034E+3  -1.05503E+3
   5.90836E+1   5.70534E+3
  -3.28577E+3   3.21612E+3
  -2.32606E+3  -4.97175E+2
   2.50940E+3  -9.19299E+2
   7.38988E+3  -1.48732E+3
   3.68004E+3   7.03841E+3
  -1.98640E+3   4.17152E+3
  -6.67543E+3  -2.45476E+3
  -1.41933E+3  -2.77406E+3
  -3.10781E+3   9.52550E+2
  -2.88146E+3  -3.91850E+3
   3.58979E+3  -3.92374E+3
   3.49947E+3   6.13758E+2
   1.73058E+3   2.30705E+3
   8.52248E+2   1.70097E+3
  -3.49258E+3  -7.50105E+1
  -6.98814E+3  -2.07968E+3
  -4.16030E+3  -8.04720E+3
   1.66800E+3  -4.40896E+3
  -5.67571E+2   6.64008E+2
  -1.55759E+3   2.16465E+3
   8.39066E+2   2.44027E+3
   1.27075E+2   4.56521E+3
  -3.69329E+3   3.80662E+3
  -3.44926E+3  -8.07005E+1
  -9.99680E+2  -1.03041E+3
   2.79409E+2  -2.22055E+3
   1.16568E+3   2.34030E+2
   1.86308E+3   1.44649E+3
  -2.11325E+3   1.34891E+3
  -2.88340E+3   2.78819E+3
  -6.04623E+3   7.14324E+2
  -5.48708E+3  -2.15530E+3
  -1.69413E+3  -7.69702E+3
   2.95625E+3  -4.35575E+3
   7.55343E+3  -3.49616E+2
   5.40631E+3   3.27392E+2
   2.32591E+3   1.36296E+3
  -1.04093E+3   1.82494E+3
   2.06762E+3  -2.63709E+3
   1.37728E+3   5.57783E+2
  -7.63588E+2   1.13788E+3
  -5.12225E+3  -2.99125E+3
  -1.01851E+3  -6.23427E+3
   6.31342E+2  -8.57429E+2
  -2.04883E+3  -3.76425E+2
   1.41903E+3  -3.19762E+3
  -5.11759E+2  -2.61071E+3
   6.19215E+2  -6.25143E+2
   2.39567E+3  -3.12064E+3
   2.00283E+3  -1.39105E+3
  -1.13327E+2  -7.31578E+2
   3.39800E+3  -4.46266E+2
   3.40228E+3  -2.51658E+3
   2.23698E+3   3.03936E+3
   4.67754E+2   1.70299E+3
  -4.30865E+1   1.35329E+3
   6.29927E+2   1.21879E+3
  -1.83904E+3   2.00250E+3
  -2.08148E+3  -4.96707E+2
  -2.10348E+3  -2.38447E+3
  -3.91402E+2  -4.00106E+3
   3.66054E+3  -1.14444E+3
   2.42197E+3   2.80228E+2
   9.71611E+2   2.77309E+3
  -8.81177E+2   8.81520E+2
   5.52019E+2   5.11057E+2
   3.40059E+0   1.80609E+3
  -2.28579E+3   1.82635E+3
  -1.52282E+3  -1.44334E+3
   1.85431E+3  -3.60785E+3
   4.76485E+3   1.36243E+2
   2.94987E+3   3.61430E+3
  -1.45482E+3   2.20204E+3
  -9.09964E+2  -4.19346E+3
   4.45164E+3  -3.16373E+3
   3.37831E+3   1.50839E+3
   1.12202E+3   3.04014E+3
  -2.51607E+3   2.65461E+3
  -2.02490E+3   1.44681E+3
  -6.32171E+2  -3.41673E+2
  -4.89111E+1   2.15339E+3
  -2.71286E+3   3.48920E+2
  -2.52725E+3  -4.11582E+3
   3.34143E+3  -3.78765E+3
   3.55041E+3  -3.28356E+2
   1.63790E+3   1.36621E+3
   8.93226E+2   2.84893E+3
  -5.71194E+2   2.87474E+3
  -1.68429E+3  -1.31380E+3
  -1.74635E+3  -2.48162E+2
   8.73274E+2  -1.38716E+3
   7.52308E+2  -1.33046E+3
   3.92441E+2  -9.93074E+1
   1.60477E+3  -2.50700E+2
  -1.42579E+1   1.54974E+3
  -4.63853E+2   9.97296E+2
  -1.36022E+3  -1.56602E+3
   2.61461E+3  -3.02008E+2
   7.11154E+2   3.10052E+3
  -8.22225E+2   9.57836E+2
   2.55584E+2   2.30178E+1
   1.03706E+3   1.11935E+3
   5.49853E+2   2.73733E+2
  -2.44578E+3   1.67557E+2
  -1.15469E+3  -2.45294E+2
  -3.41440E+2   7.34854E+2
   3.30985E+3   2.32658E+3
  -3.09611E+2   3.97979E+3
  -2.91825E+3  -2.90841E+2
  -1.20272E+3  -6.60952E+2
   1.44690E+2  -8.24332E+2
  -9.96727E+1   1.72993E+3
  -9.84743E+2   1.24107E+2
   5.87938E+2  -4.53959E+2
  -4.83852E+2   2.17259E+2
   1.50621E+3   1.75086E+3
   1.81283E+3   2.16394E+3
   4.06682E+2   2.25980E+3
  -7.49432E+2  -1.09661E+3
  -5.64771E+2  -3.10587E+1
  -6.29989E+2   2.27519E+3
  -1.77613E+3   2.33991E+3
   1.25470E+2  -1.01730E+3
  -1.93273E+3   1.85089E+2
  -2.31972E+3  -2.29296E+3
   8.77178E+2  -6.53113E+2
   4.30727E+3  -1.32677E+3
   1.70684E+3  -1.57590E+3
   2.63515E+3  -9.05098E+2
   1.54869E+3  -3.03415E+2
   1.16365E+3  -5.23471E+2
  -2.17294E+2   8.26751E+2
  -2.01607E+2   1.31883E+3
   5.12034E+2   6.73414E+2
  -2.40090E+3  -9.83182E+2
   1.31839E+3   9.26522E+2
   1.05680E+3  -1.90735E+3
   5.54234E+2   4.89703E+2
  -1.84234E+3  -1.39730E+3
  -6.89426E+2   6.79697E+1
   4.66793E+2  -1.39905E+3
   1.35865E+3   4.30013E+2
   9.51457E+2   3.56459E+3
  -6.31618E+2   2.40397E+3
  -1.57918E+3  -5.86812E+2
   4.93701E+2  -6.68910E+2
   4.85600E+2  -1.89656E+3
   1.83311E+3   1.56017E+2
   2.53308E+2   3.54891E+2
   1.26613E+3   8.62770E+2
   1.30939E+3   1.65246E+3
  -7.54886E+1   2.32196E+3
  -1.99369E+3   1.61901E+3
  -2.10707E+3  -5.98936E+2
  -1.56807E+3  -3.58456E+3
   1.60248E+2   6.66379E+2
   5.38183E+2  -1.13347E+3
   2.44919E+1  -3.25033E+2
  -1.10198E+2   1.06017E+3
   5.26140E+2   5.36335E+2
  -1.90136E+3   2.20747E+2
  -2.48001E+3  -6.43315E+2
   1.39906E+2  -2.58452E+3
   1.67712E+3  -1.68142E+3
   3.57842E+3   1.51277E+2
   1.24307E+3   1.08365E+3
   1.84628E+3   1.17233E+3
  -8.91210E+2   6.43498E+0
   2.19471E+3   7.40992E+2
  -8.65120E+2   3.58333E+2
  -9.07406E+2   1.02757E+3
   1.81766E+2  -8.29506E+2
   1.60831E+2   2.08962E+3
  -1.16007E+3  -1.52351E+3
  -3.63753E+3   1.55103E+2
  -2.37321E+3  -2.87222E+3
   3.14550E+3   4.27125E+2
   1.10776E+3  -1.29047E+3
   5.64823E+2   5.21994E+2
   1.04882E+3  -5.55241E+2
  -6.18559E+2  -1.11125E+3
  -1.78143E+3   1.00213E+2
  -1.41871E+3   1.16706E+3
   5.92854E+1  -4.02843E+2
  -2.72920E+2   1.09726E+3
  -2.93527E+2  -1.38732E+3
   5.13820E+2  -1.89996E+1
   7.95630E+2   2.71967E+3
  -1.97192E+3   1.14318E+3
  -1.72487E+3   4.82136E+2
   4.58029E+2  -1.59126E+3
  -5.40530E+1   2.82703E+2
  -1.25231E+3   1.12145E+3
   2.07115E+3  -7.48328E+1
   2.41564E+2  -2.02392E+3
   1.29706E+3   2.41932E+2
  -6.41941E+1   8.83792E+2
   2.15650E+3  -1.67012E+2
   2.78619E+2   3.26844E+2
   3.03406E+2   7.95807E+2
  -2.49897E+2   6.11581E+2
  -1.31447E+3   1.25692E+3
  -2.28035E+3   6.81670E+2
  -4.13148E+2  -3.49112E+2
   6.23357E+1   1.18202E+3
   7.10297E+2  -8.16796E+1
   1.34203E+3  -4.48971E+2
   1.47658E+3  -1.83069E+3
   2.54000E+3   9.20355E+2
   1.52335E+3   1.77345E+3
  -3.26780E+3   1.15290E+3
  -4.26513E+2  -1.14337E+3
  -1.98921E+3  -4.49516E+2
   2.36998E+2  -2.11187E+3
  -1.02556E+3   5.93357E+2
   7.85455E+1   1.12217E+3
  -5.77684E+2  -3.63983E+2
   8.70589E+1  -1.74177E+3
   4.17484E+2  -2.96100E+2
  -1.31348E+3  -2.72881E+2
  -9.16727E+2  -1.03813E+2
   1.21783E+3  -7.80790E+2
   1.29356E+3   1.56335E+2
   1.01594E+3   7.89060E+2
  -1.18185E+3   2.44248E+3
  -2.58097E+3  -2.45160E+2
   6.32253E+1  -9.34194E+2
  -6.12554E+2   6.26631E+2
  -2.03114E+2  -2.00757E+2
  -1.73291E+3  -7.59491E+1
   6.38190E+1   6.77816E+2
  -4.39388E+2   3.80671E+2
  -2.22532E+3  -3.45312E+2
  -6.44113E+2  -2.08966E+3
   1.26391E+3  -2.05513E+3
  -1.18010E+3  -1.48320E+3
   9.86207E+2  -1.32293E+3
  -6.35248E+1   7.27664E+2
   5.03130E+2  -2.04078E+3
  -3.99132E+2  -1.56766E+3
   3.10350E+1  -1.21451E+3
   1.08722E+2  -8.20268E+0
  -1.16441E+3   9.25520E+2
   2.60445E+3  -2.07567E+3
   1.64123E+3   1.27569E+3
  -4.54771E+2   2.19201E+3
  -1.15216E+3   1.89753E+2
  -2.46599E+3  -7.82436E+2
  -2.04290E+2  -1.29614E+3
   2.30912E+2   1.16711E+3
  -8.29621E+2  -3.24640E+3
  -2.50129E+2   5.21137E+2
   9.61956E+2   2.41877E+2
   7.09749E+2   1.81361E+2
  -7.11648E+2  -1.14409E+3
   1.33058E+3   1.12507E+3
  -8.62605E+2  -9.90710E+2
   8.04367E+2  -1.34090E+3
   7.78465E+2   2.39247E+3
   8.43840E+2   8.95852E+2
   5.71797E+2   7.03400E+2
   1.72359E+2  -9.62403E+2
   7.32752E+2   3.27392E+2
  -5.45904E+2   1.78468E+3
   4.31066E+2   8.15556E+2
  -1.23534E+2   4.50797E+2
  -7.39444E+1   8.85901E+2
   7.22581E+2   1.05155E+3
  -1.91471E+3  -3.96388E+2
   1.38359E+3  -2.44827E+2
  -3.94993E+2  -1.43743E+3
   1.54109E+3   7.18155E+2
   4.29449E+2  -7.34680E+2
  -3.47328E+2  -4.87537E+2
  -1.20663E+3   2.20513E+3
   2.09881E+2  -1.23916E+3
   1.10570E+2  -1.21509E+3
  -2.24124E+2   1.04272E+3
  -1.04770E+3  -1.07280E+3
  -2.14634E+2   4.64098E+2
  -1.24225E+3   1.32879E+3
   7.24561E+2  -1.39739E+2
  -1.54444E+3   1.44726E+2
  -1.27224E+3  -8.21883E+2
   2.38033E+2  -1.25861E+3
   1.86843E+3  -1.89921E+2
   1.60182E+3   9.12992E+2
   1.56294E+3   1.55242E+3
   7.54072E+1   7.64832E+2
   3.78873E+2   9.09990E+2
  -1.08355E+3   1.89643E+3
   8.40571E+0  -8.08954E+2
   2.82467E+3  -1.77780E+3
   2.15002E+3  -5.40315E+2
  -1.29131E+2  -2.09958E+3
  -1.04802E+3  -5.54531E+2
  -7.04668E+2  -1.07151E+3
  -1.39568E+3   6.98939E+1
   1.30361E+3  -7.07651E+1
  -2.35595E+2  -2.04934E+3
  -3.42368E+2  -3.11406E+3
   3.37108E+2   2.68228E+2
   2.16511E+3   6.55647E+2
   7.84531E+2  -1.03956E+3
  -2.28943E+2   4.63383E+2
  -3.94031E+2  -1.50402E+3
   5.13553E+2   3.17835E+2
  -8.73473E+2  -1.11899E+3
  -1.36582E+3  -1.02907E+3
  -3.17877E+2  -2.22385E+2
   1.45523E+3   3.62973E+2
   5.27797E+2   1.05128E+3
  -7.18230E+1  -1.65896E+3
   1.63376E+2  -2.21644E+3
   1.90372E+2  -8.96369E+2
   1.83385E+2   5.30674E+2
   1.98668E+3  -1.38163E+3
  -1.90004E+3   8.85954E+2
  -6.27881E+2   1.40601E+3
  -1.22082E+3  -6.92888E+2
   9.02219E+1  -1.80656E+3
   3.22140E+2  -6.29442E+2
  -9.68314E+2   2.29321E+2
  -4.53843E+2  -6.15851E+2
   2.87777E+2   1.48660E+3
  -8.87749E+2   8.61678E+2
   1.06788E+2  -2.97891E+2
   6.90208E+2  -1.84662E+3
   8.16385E+2  -1.69167E+2
  -2.49302E+2  -1.95064E+3
  -1.47146E+3   1.95804E+3
  -4.37828E+2  -5.08352E+2
  -1.78848E+3  -1.04442E+3
  -2.22587E+3   1.23050E+3
   6.54999E+2   4.18403E+2
  -2.62520E+1   1.60258E+3
  -1.25806E+2   2.20835E+3
  -9.16034E+2  -1.30765E+3
   1.91355E+3  -3.83914E+2
   5.02839E+2   8.02667E+1
   3.76857E+2   1.47171E+2
