 LCModel (Version 6.3-1N) Copyright: S.W. Provencher.          Ref.: Magn. Reson. Med. 30:672-679 (1993).                
 Slice_N1@13_21  02-Jun-2023 14:36:56
 27 lines in following concentration table = NCONC+1
    Conc.  %SD /Cr+PCr  Metabolite                                         
 2.48E-06  16% 3.6E-04 Mac                                                 
 2.46E-02  38%   3.544 Cr                                                  
 3.09E-02  30%   4.456 PCr                                                 
 6.62E-02  13%   9.548 Ins                                                 
 7.15E-02  11%  10.321 NAA                                                 
 5.42E-02  14%   7.826 Tau                                                 
 5.29E-03  97%   0.763 PCho                                                
 2.16E-03 230%   0.312 GPC                                                 
 6.75E-02  15%   9.736 Glu                                                 
 1.20E-02  52%   1.725 Gln                                                 
    0.000 999%   0.000 Ala                                                 
 2.85E-02  49%   4.116 Asc                                                 
 1.04E-02  59%   1.501 Asp                                                 
 7.69E-03  44%   1.110 GABA                                                
 7.54E-03  52%   1.087 Glc                                                 
 4.35E-03  70%   0.627 GSH                                                 
 6.76E-03  98%   0.975 Lac                                                 
 5.51E-03  82%   0.796 NAAG                                                
 1.70E-02  61%   2.447 PE                                                  
 7.45E-03  36%   1.075 GPC+PCho                                            
 7.71E-02  11%  11.116 NAA+NAAG                                            
 7.94E-02  14%  11.461 Glu+Gln                                             
 5.55E-02  12%   8.000 Cr+PCr                                              
 7.71E-02  11%  11.116 NAA+NAAG                                            
 5.55E-02  12%   8.000 Cr+PCr                                              
 7.94E-02  14%  11.461 Glu+Gln                                             
   6 lines in following misc. output table
  FWHM = 0.017 ppm    S/N =   5                                            
  Data shift = 0.017 ppm                                                   
  Ph:  -2 deg      -5.5 deg/ppm                                            
  alphaB,S = 3.1E+01,   8.2E+00                                            
   18 spline knots.   Ns = 5(1)                                            
   2 inflections.     2 extrema                                            
  654 points on ppm-axis = NY
      4.000000     3.994181     3.988363     3.982544     3.976726     3.970907     3.965088     3.959270     3.953451     3.947633
      3.941814     3.935995     3.930177     3.924358     3.918540     3.912721     3.906902     3.901084     3.895265     3.889446
      3.883628     3.877809     3.871991     3.866172     3.860353     3.854535     3.848716     3.842898     3.837079     3.831260
      3.825442     3.819623     3.813805     3.807986     3.802167     3.796349     3.790530     3.784712     3.778893     3.773074
      3.767256     3.761437     3.755619     3.749800     3.743981     3.738163     3.732344     3.726526     3.720707     3.714888
      3.709070     3.703251     3.697433     3.691614     3.685795     3.679977     3.674158     3.668339     3.662521     3.656702
      3.650884     3.645065     3.639246     3.633428     3.627609     3.621791     3.615972     3.610153     3.604335     3.598516
      3.592698     3.586879     3.581060     3.575242     3.569423     3.563605     3.557786     3.551967     3.546149     3.540330
      3.534512     3.528693     3.522874     3.517056     3.511237     3.505419     3.499600     3.493781     3.487963     3.482144
      3.476326     3.470507     3.464688     3.458870     3.453051     3.447232     3.441414     3.435595     3.429777     3.423958
      3.418139     3.412321     3.406502     3.400684     3.394865     3.389046     3.383228     3.377409     3.371591     3.365772
      3.359953     3.354135     3.348316     3.342498     3.336679     3.330860     3.325042     3.319223     3.313405     3.307586
      3.301767     3.295949     3.290130     3.284312     3.278493     3.272674     3.266856     3.261037     3.255219     3.249400
      3.243581     3.237763     3.231944     3.226125     3.220307     3.214488     3.208670     3.202851     3.197032     3.191214
      3.185395     3.179577     3.173758     3.167939     3.162121     3.156302     3.150484     3.144665     3.138846     3.133028
      3.127209     3.121391     3.115572     3.109753     3.103935     3.098116     3.092298     3.086479     3.080660     3.074842
      3.069023     3.063205     3.057386     3.051567     3.045749     3.039930     3.034111     3.028293     3.022474     3.016656
      3.010837     3.005018     2.999200     2.993381     2.987563     2.981744     2.975925     2.970107     2.964288     2.958470
      2.952651     2.946832     2.941014     2.935195     2.929377     2.923558     2.917739     2.911921     2.906102     2.900284
      2.894465     2.888646     2.882828     2.877009     2.871191     2.865372     2.859553     2.853735     2.847916     2.842098
      2.836279     2.830460     2.824642     2.818823     2.813004     2.807186     2.801367     2.795549     2.789730     2.783911
      2.778093     2.772274     2.766456     2.760637     2.754818     2.749000     2.743181     2.737363     2.731544     2.725725
      2.719907     2.714088     2.708270     2.702451     2.696632     2.690814     2.684995     2.679177     2.673358     2.667539
      2.661721     2.655902     2.650084     2.644265     2.638446     2.632628     2.626809     2.620991     2.615172     2.609353
      2.603535     2.597716     2.591897     2.586079     2.580260     2.574442     2.568623     2.562804     2.556986     2.551167
      2.545349     2.539530     2.533711     2.527893     2.522074     2.516256     2.510437     2.504618     2.498800     2.492981
      2.487163     2.481344     2.475525     2.469707     2.463888     2.458070     2.452251     2.446432     2.440614     2.434795
      2.428977     2.423158     2.417339     2.411521     2.405702     2.399884     2.394065     2.388246     2.382428     2.376609
      2.370790     2.364972     2.359153     2.353335     2.347516     2.341697     2.335879     2.330060     2.324242     2.318423
      2.312604     2.306786     2.300967     2.295149     2.289330     2.283511     2.277693     2.271874     2.266056     2.260237
      2.254418     2.248600     2.242781     2.236963     2.231144     2.225325     2.219507     2.213688     2.207870     2.202051
      2.196232     2.190414     2.184595     2.178777     2.172958     2.167139     2.161321     2.155502     2.149683     2.143865
      2.138046     2.132228     2.126409     2.120590     2.114772     2.108953     2.103135     2.097316     2.091497     2.085679
      2.079860     2.074042     2.068223     2.062404     2.056586     2.050767     2.044949     2.039130     2.033311     2.027493
      2.021674     2.015856     2.010037     2.004218     1.998400     1.992581     1.986763     1.980944     1.975126     1.969307
      1.963489     1.957670     1.951852     1.946033     1.940215     1.934397     1.928578     1.922760     1.916941     1.911123
      1.905304     1.899486     1.893667     1.887849     1.882030     1.876212     1.870393     1.864575     1.858756     1.852938
      1.847119     1.841301     1.835482     1.829664     1.823845     1.818027     1.812208     1.806390     1.800571     1.794753
      1.788934     1.783116     1.777297     1.771479     1.765660     1.759842     1.754023     1.748205     1.742386     1.736568
      1.730749     1.724931     1.719113     1.713294     1.707476     1.701657     1.695839     1.690020     1.684202     1.678383
      1.672565     1.666746     1.660928     1.655109     1.649291     1.643472     1.637654     1.631835     1.626017     1.620198
      1.614380     1.608561     1.602743     1.596924     1.591106     1.585287     1.579469     1.573650     1.567832     1.562013
      1.556195     1.550376     1.544558     1.538739     1.532921     1.527102     1.521284     1.515465     1.509647     1.503829
      1.498010     1.492192     1.486373     1.480555     1.474736     1.468918     1.463099     1.457281     1.451462     1.445644
      1.439825     1.434007     1.428188     1.422370     1.416551     1.410733     1.404914     1.399096     1.393277     1.387459
      1.381640     1.375822     1.370003     1.364185     1.358366     1.352548     1.346729     1.340911     1.335092     1.329274
      1.323455     1.317637     1.311818     1.306000     1.300182     1.294363     1.288545     1.282726     1.276908     1.271089
      1.265271     1.259452     1.253634     1.247815     1.241997     1.236178     1.230360     1.224541     1.218723     1.212904
      1.207086     1.201267     1.195449     1.189630     1.183812     1.177993     1.172175     1.166356     1.160538     1.154719
      1.148901     1.143082     1.137264     1.131445     1.125627     1.119808     1.113990     1.108171     1.102353     1.096534
      1.090716     1.084898     1.079079     1.073261     1.067442     1.061624     1.055805     1.049987     1.044168     1.038350
      1.032531     1.026713     1.020894     1.015076     1.009257     1.003439     0.997620     0.991802     0.985983     0.980165
      0.974346     0.968528     0.962709     0.956891     0.951072     0.945254     0.939435     0.933617     0.927798     0.921980
      0.916161     0.910343     0.904524     0.898706     0.892887     0.887069     0.881251     0.875432     0.869614     0.863795
      0.857977     0.852158     0.846340     0.840521     0.834703     0.828884     0.823066     0.817247     0.811429     0.805610
      0.799792     0.793973     0.788155     0.782336     0.776518     0.770699     0.764881     0.759062     0.753244     0.747425
      0.741607     0.735788     0.729970     0.724151     0.718333     0.712514     0.706696     0.700877     0.695059     0.689240
      0.683422     0.677603     0.671785     0.665967     0.660148     0.654330     0.648511     0.642693     0.636874     0.631056
      0.625237     0.619419     0.613600     0.607782     0.601963     0.596145     0.590326     0.584508     0.578689     0.572871
      0.567052     0.561234     0.555415     0.549597     0.543778     0.537960     0.532141     0.526323     0.520504     0.514686
      0.508867     0.503049     0.497230     0.491412     0.485593     0.479775     0.473956     0.468138     0.462319     0.456501
      0.450682     0.444864     0.439045     0.433227     0.427408     0.421590     0.415771     0.409953     0.404134     0.398316
      0.392497     0.386679     0.380860     0.375042     0.369223     0.363405     0.357586     0.351767     0.345949     0.340130
      0.334312     0.328493     0.322675     0.316856     0.311038     0.305219     0.299401     0.293582     0.287764     0.281945
      0.276127     0.270308     0.264490     0.258671     0.252853     0.247034     0.241216     0.235397     0.229579     0.223760
      0.217942     0.212123     0.206305     0.200486
 NY phased data points follow
   1.33746E-01  1.64230E-01 -2.11978E-02  3.22441E-01  2.04630E-01  2.01575E-01  1.44456E-01 -2.09541E-01 -2.08244E-01 -3.41359E-01
  -7.38728E-02  1.24255E-01  5.41687E-01  5.23159E-01  5.46608E-01  3.74692E-01  2.95111E-01  2.94117E-01  1.42897E-01  7.84424E-02
  -4.11811E-01 -8.94076E-02 -6.64116E-02 -2.90004E-01  4.95426E-02  1.62506E-02 -4.33513E-01 -3.83330E-01 -1.26006E-01  9.74814E-02
  -4.00219E-02 -3.54250E-01 -1.83326E-02  4.24562E-03  7.76383E-02 -2.11020E-01 -6.43519E-01  6.15700E-02 -5.01549E-01 -6.41677E-01
   2.97946E-01 -2.09586E-01  2.56413E-01  4.54064E-01  1.85095E-01  6.00131E-01  7.53427E-01  1.59633E-01 -3.91521E-02  4.23934E-01
  -3.56131E-02  1.35617E-01  7.80406E-02  7.59813E-02  1.44031E-01 -1.41056E-01 -1.62507E-01  3.73680E-02 -4.29074E-02 -2.40280E-01
   2.75363E-02 -2.73392E-01 -4.16561E-01 -3.70086E-01 -4.12064E-01 -5.16968E-01  4.53622E-01  4.28163E-01  3.42524E-02  5.72979E-01
   3.94460E-01  2.25914E-01 -5.67343E-02  2.14552E-01  1.82238E-01  5.52145E-02 -3.14784E-01 -1.50282E-01 -1.77599E-01 -6.74501E-01
  -6.61918E-01 -4.43285E-01  8.03742E-02 -2.61802E-01  2.47215E-01  6.24569E-01  3.33256E-01  1.41059E-01  4.04366E-02  1.97274E-02
   2.06642E-01 -3.57818E-02 -2.69931E-01  2.95665E-01  1.35916E-01  2.90112E-01 -9.69721E-02 -2.75906E-02  3.99393E-02 -6.13569E-01
  -2.40611E-01 -3.96742E-01 -3.91076E-01  9.39624E-02  1.71715E-01  2.39478E-01  1.62098E-01  3.33455E-01  3.98997E-01  7.55866E-02
   5.36366E-01  5.38504E-01  3.26154E-03  2.12024E-01  4.03091E-01  3.04258E-01  3.68857E-01  2.62645E-01  2.74533E-01  3.09333E-01
   3.84790E-01  4.60524E-01 -2.31433E-01 -3.49648E-02 -1.74283E-01 -4.16678E-01  1.87653E-01 -5.20903E-02 -1.78898E-01 -4.91022E-01
  -8.57164E-01 -3.99532E-01 -3.78618E-01 -5.78282E-01 -5.11675E-01 -7.66921E-01 -7.19720E-01 -6.30373E-01 -6.82051E-01 -6.62110E-01
  -8.02576E-02  2.27070E-01 -1.33226E-01  1.43833E-01  1.13717E-01 -7.25459E-02  1.02562E-01 -3.43755E-02 -1.71862E-01  2.47265E-01
   2.97128E-01  4.98074E-02 -3.28898E-02  1.87362E-01  1.24432E-01  1.56829E-02  5.38531E-01  2.47539E-01  3.63184E-01  3.66886E-01
  -1.36528E-01  4.55098E-01  6.06302E-01  6.72508E-01  1.36194E+00  1.05174E+00  9.01826E-01  4.77230E-01 -8.41872E-01 -1.07614E+00
  -8.91249E-01 -7.97304E-01 -7.12483E-01 -1.98917E-01 -2.75560E-01 -5.79424E-01 -3.57937E-01 -2.85387E-01 -1.20658E-01 -3.30568E-01
  -2.40542E-01 -4.23065E-01 -3.37507E-01  4.05170E-02 -2.42482E-01 -1.39699E-01 -2.63169E-01 -3.05879E-01 -1.45965E-01 -2.72057E-01
   1.05050E-01 -1.26272E-01 -3.68139E-01 -1.61377E-01 -3.60751E-01 -1.44570E-01 -3.54524E-01 -3.73074E-01  1.06149E-02  9.80216E-02
   1.71165E-01  8.84212E-02 -5.86417E-02 -2.19378E-01  8.58897E-02  7.40841E-02 -2.61191E-01  2.79007E-01  6.22207E-01  8.43294E-02
  -1.46857E-01 -3.04223E-02  1.80215E-02  1.72688E-01 -7.91577E-02 -3.78414E-01  3.31227E-01  2.47063E-01 -3.17617E-01  2.81158E-02
   2.55455E-01  3.81090E-01  2.87811E-01  1.27766E-01  9.79548E-02  4.43789E-01  6.29717E-01  5.12010E-01  2.02925E-01  4.29853E-01
   6.36290E-01  4.20761E-01  4.60839E-01 -1.64989E-01 -1.83755E-01 -1.96276E-01 -1.71194E-01  7.67724E-02 -2.17046E-02 -1.23857E-01
   3.07886E-01  1.44439E-01 -3.47057E-01  4.77173E-01 -9.82312E-02 -6.64933E-02  1.15080E-02 -5.91265E-01 -3.01968E-01 -6.29220E-02
   1.92661E-01 -1.73126E-02  3.45467E-01 -7.99647E-02 -1.83417E-01  1.01155E-01 -2.69649E-01  7.42973E-02 -9.79845E-02 -1.39450E-01
  -1.20364E-01  6.59823E-02  4.75585E-01  3.27511E-01  3.03962E-01  2.29612E-02  9.27521E-02  3.97573E-01 -7.73234E-02 -2.94866E-01
   3.59624E-01  4.31403E-01 -2.32464E-01 -2.14999E-01 -2.23087E-01 -2.36227E-01  6.56016E-02 -1.14172E-01 -3.72483E-01 -1.23383E-01
  -2.42195E-01 -5.87353E-01 -6.10303E-01 -4.67613E-01  5.81301E-02  2.05393E-01  5.18096E-01  3.46023E-01  1.27114E-01  5.94943E-01
   4.01965E-01  2.84474E-01  2.24538E-01  1.65434E-01 -1.87108E-01 -1.28347E-01  2.19648E-01 -1.72657E-01  9.06799E-02  4.16401E-01
   2.44590E-01  1.07942E-03 -4.55458E-02  1.09517E-01  2.18153E-01  6.65045E-01  5.69697E-01  5.75927E-01  4.18944E-01  3.92999E-02
   5.10381E-01  1.38569E-01  8.81453E-02  5.57496E-01  2.48653E-01  2.97832E-01  4.65474E-01 -2.62459E-02 -2.05270E-03 -1.62432E-02
  -5.31701E-01 -3.75730E-01 -5.21353E-01 -3.40833E-01 -2.97802E-01 -2.34462E-01  2.50366E-02 -1.60307E-01 -6.12086E-02 -7.52680E-02
   2.64297E-01  2.05231E-01  3.47790E-01  1.63730E-01 -2.21008E-01  8.59235E-02 -1.74282E-01 -4.78266E-02 -1.65537E-01 -3.95997E-01
  -3.72002E-01 -9.26643E-01 -2.10537E+00 -2.34144E+00 -9.73638E-01 -1.49814E-01 -3.10706E-02  4.44960E-02  1.76797E-01  2.87585E-01
   4.41027E-01  4.09789E-01  3.25853E-01  1.62255E-02 -2.21442E-01  9.92657E-02  1.33156E-01  2.11018E-01  2.58093E-01  9.90630E-02
  -3.69275E-01 -9.61899E-02  4.83348E-01  7.76232E-02 -1.77874E-01  1.69614E-01  1.04686E-01 -2.99541E-01 -9.98729E-02  8.32632E-02
   2.24382E-01 -4.68689E-01 -3.10436E-01  2.43075E-01 -2.24822E-01 -8.24276E-02 -9.39444E-02  1.17665E-01  1.85141E-01  3.36039E-01
   4.81156E-01  4.10450E-01  7.53444E-02 -5.65984E-02  1.08885E-01 -1.99351E-01  4.86241E-02  5.51289E-01  6.83861E-01  1.61170E-01
   2.05356E-01  3.41036E-01  3.24230E-01  1.19398E-01  2.24110E-01  2.48787E-01 -1.86751E-01  3.14082E-01  7.71999E-02  3.99710E-01
   4.58667E-01  3.30707E-01  2.83086E-01 -1.21519E-01  4.31723E-01 -1.15891E-01 -2.32879E-01  8.24375E-02 -2.39662E-01  5.35169E-02
   2.22473E-02 -1.62338E-01 -1.59697E-02 -4.11255E-01 -3.89572E-01 -2.57593E-01 -4.03917E-01 -3.23814E-01 -4.39671E-02 -1.69775E-01
  -6.73708E-01  2.34661E-02 -2.51770E-01 -6.12852E-01 -4.74475E-01 -1.53099E-01  1.39649E-01 -4.17765E-01 -7.86736E-02 -2.25327E-01
  -2.53336E-01 -2.27537E-01 -7.80663E-02 -2.24671E-01 -1.19828E-01  2.76161E-01 -3.62631E-01  1.93362E-01 -1.94430E-02 -4.69467E-01
  -7.57081E-03  2.65102E-01  1.82215E-01  6.75543E-02  2.41325E-01  4.36989E-01  2.55755E-01  1.92208E-01  6.28239E-01  3.21348E-01
   2.44943E-01  6.41813E-02  3.39825E-01  2.11651E-01 -1.02892E-01  4.50555E-01  2.38775E-01  1.14460E-01 -2.76676E-01 -2.43589E-01
   4.22017E-01  2.05749E-01  1.18452E-01  4.72505E-01  1.69022E-01  5.34363E-02 -2.29740E-01  5.00825E-02  1.38181E-01 -3.36136E-01
  -1.13118E-02 -1.46080E-01 -1.68209E-01 -1.90584E-01 -1.67138E-01 -3.65325E-01  6.20614E-02 -1.37312E-02 -3.32915E-01 -1.73324E-01
  -4.06993E-01 -8.13022E-02 -2.16266E-01  4.50185E-02  5.99948E-02  1.10343E-01  1.54705E-01  3.96062E-03 -1.94958E-01 -3.32401E-02
   2.08688E-01 -6.47875E-02  1.91742E-01 -1.05471E-01  1.81191E-01  7.68917E-02 -1.29913E-01  2.79652E-01  1.12911E-01 -1.25571E-02
   2.64205E-01  1.27157E-01  8.57817E-02  2.45844E-01 -1.25362E-01  3.18708E-01  4.47939E-02  2.68967E-02  3.51546E-01 -1.62395E-02
   1.30907E-02  2.71571E-01  1.63099E-01 -3.35942E-02  1.55137E-01 -6.33204E-02  1.61815E-01  5.16322E-02  1.74376E-01  1.09807E-01
  -3.51639E-01 -8.17621E-02 -3.03419E-01 -3.58563E-01 -3.97511E-01 -2.34772E-01 -4.84781E-01 -4.57105E-01 -2.88109E-01 -6.60810E-01
   5.44422E-02 -1.50775E-01 -1.91827E-01  1.82987E-01 -2.56214E-02  3.90498E-01 -2.18824E-01 -4.42551E-01 -3.46013E-02 -4.83167E-01
  -4.15468E-01 -2.12633E-01 -2.23659E-01  1.57802E-01  6.24844E-01  2.09109E-01  7.47068E-02  2.91424E-01 -5.33803E-02  5.27138E-01
  -5.98391E-02 -1.97412E-01  3.20027E-01 -1.74264E-01  3.53005E-01 -1.60609E-01  5.03578E-03  3.36577E-01  1.02467E-01  1.96646E-01
   6.13878E-02  6.22970E-01  1.70080E-01 -7.76857E-02  5.37604E-01  4.46195E-01  3.24874E-01  4.33301E-01  3.11850E-02  1.06406E-01
   1.84640E-01  2.85181E-01  6.13430E-02 -2.75882E-01 -9.42627E-02 -1.08572E-01  3.49606E-01  1.96345E-01  1.04303E-01  3.14402E-02
   3.44734E-01  2.79059E-01  1.17525E-01  1.46450E-01 -1.84327E-01  4.79987E-02 -1.45259E-01  3.72103E-02  2.76594E-02  1.62502E-01
   5.80039E-03  4.44765E-02  2.32526E-01 -1.08063E-01 -1.87982E-01 -5.20694E-02  1.82036E-01  2.67653E-01  5.71224E-01  1.00725E-01
   8.95288E-02  4.19050E-01  1.07940E-01 -5.54242E-03  2.33328E-01  6.44785E-02 -2.02819E-02  1.81021E-01  2.12857E-01  2.07897E-03
  -1.45053E-01 -2.40859E-01 -1.85255E-01  4.38370E-01  2.38999E-01  2.26936E-01  8.82158E-02  2.02952E-01  2.61738E-01 -3.40927E-03
  -6.50130E-02 -2.01048E-01 -1.41440E-01  1.04333E-01  4.05548E-02 -3.28120E-01  2.80470E-01 -6.34046E-03  4.24974E-01  2.62724E-01
  -2.97095E-01  2.09779E-02 -3.09757E-02 -1.63564E-01 -2.77330E-01  6.75019E-02 -1.80763E-01  3.17656E-01 -5.66386E-02  7.77966E-02
   2.43505E-01  5.33304E-03  1.80819E-01  1.15460E-01  3.95449E-01  4.32756E-02  1.17844E-01 -6.35891E-02  5.14513E-02  2.56600E-01
   1.18323E-01 -1.26403E-01  7.91361E-02 -2.54956E-01
 NY points of the fit to the data follow
   2.04910E-01  2.05795E-01  2.11292E-01  2.20569E-01  2.14687E-01  1.88762E-01  1.30233E-01  2.97659E-02 -1.71390E-02  4.12083E-02
   7.82860E-02  2.63779E-01  5.39530E-01  6.22781E-01  5.97936E-01  5.69094E-01  4.21149E-01  1.99967E-01  7.90545E-02  2.88837E-02
  -1.11909E-02 -2.69691E-04 -2.00416E-02 -4.94239E-02 -7.59873E-02 -9.58264E-02 -1.10096E-01 -1.19561E-01 -1.22663E-01 -1.24637E-01
  -1.26541E-01 -1.27510E-01 -1.31850E-01 -1.47978E-01 -1.72381E-01 -2.15864E-01 -2.68461E-01 -2.95770E-01 -3.16494E-01 -2.92546E-01
  -1.86592E-01 -5.31637E-02  9.01456E-02  2.40522E-01  3.46331E-01  3.98392E-01  4.04483E-01  3.34030E-01  2.37753E-01  1.93207E-01
   1.56172E-01  1.14460E-01  8.89952E-02  5.49988E-02  6.12512E-03 -3.45676E-02 -7.35471E-02 -1.07795E-01 -1.65953E-01 -2.12786E-01
  -2.14505E-01 -3.47970E-01 -4.03107E-01 -2.83118E-01 -3.06343E-01 -2.53137E-01  4.84192E-02  2.42348E-01  2.86004E-01  4.03921E-01
   4.65074E-01  3.53787E-01  2.63917E-01  1.83572E-01  1.12776E-01  8.08817E-02 -5.91772E-02 -2.15382E-01 -3.48451E-01 -5.44262E-01
  -5.72455E-01 -3.19761E-01 -5.49394E-02  1.37070E-01  3.46769E-01  4.84259E-01  4.58267E-01  3.87946E-01  3.12411E-01  2.37800E-01
   2.06870E-01  1.92623E-01  1.76907E-01  1.70086E-01  1.46071E-01  1.23202E-01  2.93538E-02 -1.13911E-01 -2.85179E-01 -4.52192E-01
  -5.03007E-01 -3.87429E-01 -1.67935E-01  8.21367E-02  2.62306E-01  3.35270E-01  3.06977E-01  2.79340E-01  2.45387E-01  2.34086E-01
   2.31004E-01  2.27220E-01  2.20616E-01  2.13234E-01  2.06804E-01  2.02385E-01  2.00022E-01  2.11471E-01  2.14595E-01  1.90937E-01
   2.00948E-01  1.42333E-01  1.59245E-02 -2.96865E-02 -6.05682E-02 -1.53750E-01 -1.13019E-01 -9.35506E-02 -2.32809E-01 -4.17595E-01
  -5.46292E-01 -5.93119E-01 -5.34203E-01 -4.86302E-01 -4.87561E-01 -6.03753E-01 -7.81450E-01 -8.23703E-01 -5.81251E-01 -2.97997E-01
  -1.01774E-01 -2.10124E-03  2.76462E-02  3.19571E-02  5.15387E-02  7.30897E-02  9.22524E-02  1.09044E-01  1.23898E-01  1.35889E-01
   1.46091E-01  1.56780E-01  1.67305E-01  1.77458E-01  1.90230E-01  2.05014E-01  2.19746E-01  2.35005E-01  2.49234E-01  2.60541E-01
   2.69323E-01  2.73398E-01  3.41243E-01  7.06461E-01  9.30610E-01  9.57559E-01  9.25062E-01  3.46651E-01 -6.79242E-01 -1.22005E+00
  -1.07695E+00 -7.60767E-01 -5.25126E-01 -3.49632E-01 -3.70468E-01 -3.59454E-01 -3.33885E-01 -2.98773E-01 -2.76343E-01 -2.63279E-01
  -2.49355E-01 -2.29454E-01 -2.11208E-01 -1.98035E-01 -1.86432E-01 -1.77681E-01 -1.70257E-01 -1.59567E-01 -1.46998E-01 -1.39128E-01
  -1.31297E-01 -1.22380E-01 -1.12550E-01 -1.03241E-01 -9.28802E-02 -8.42821E-02 -7.69435E-02 -7.09211E-02 -6.13997E-02 -4.72561E-02
  -3.37250E-02 -1.96375E-02 -1.10862E-02 -1.32029E-02 -1.99361E-02 -2.29015E-02 -1.22924E-02  4.82357E-03  4.58862E-03 -1.90413E-02
  -4.33611E-02 -5.05571E-02 -4.66029E-02 -3.63364E-02 -2.43474E-02 -1.55775E-02 -9.21445E-03 -4.47297E-03 -5.34143E-03 -1.45409E-02
  -4.65828E-02 -4.83540E-02  1.06126E-02  7.64650E-02  1.57634E-01  2.63761E-01  2.98640E-01  2.43089E-01  2.05126E-01  2.63479E-01
   3.37021E-01  3.16838E-01  1.96048E-01  6.44339E-02 -1.82454E-02 -5.26562E-02 -5.61040E-02 -5.19027E-02 -5.73011E-02 -6.30806E-02
  -7.15750E-02 -7.87297E-02 -8.31515E-02 -8.55056E-02 -8.69577E-02 -9.01913E-02 -9.42447E-02 -9.71887E-02 -9.69927E-02 -9.61440E-02
  -9.64621E-02 -1.04760E-01 -1.46290E-01 -1.62594E-01 -1.67600E-01 -1.76296E-01 -1.22254E-01 -2.18807E-02  3.61453E-02  4.09981E-02
   9.48363E-02  1.55916E-01  1.21561E-01  1.02144E-01  1.20187E-01  1.27082E-01  9.94155E-02  7.97335E-02  7.68850E-02  7.10541E-02
   7.02920E-02  5.07552E-02  1.77498E-02 -1.27775E-02 -4.49415E-02 -6.83859E-02 -8.73751E-02 -1.31239E-01 -1.94501E-01 -2.74399E-01
  -3.99664E-01 -4.76580E-01 -4.66956E-01 -3.68881E-01 -1.48604E-01  1.13754E-01  3.20250E-01  4.43916E-01  4.76098E-01  4.11008E-01
   3.13918E-01  2.36684E-01  1.76083E-01  1.46886E-01  1.35827E-01  1.43555E-01  1.65549E-01  1.85022E-01  1.98648E-01  2.03105E-01
   1.97236E-01  1.88976E-01  1.81798E-01  1.74408E-01  1.72770E-01  1.69166E-01  1.61193E-01  1.54212E-01  1.36197E-01  1.13922E-01
   9.13702E-02  6.88673E-02  5.68971E-02  5.01592E-02  4.29671E-02  2.33300E-02 -1.10055E-02 -7.00650E-02 -1.32320E-01 -1.86615E-01
  -2.39001E-01 -2.80841E-01 -3.02932E-01 -3.01436E-01 -2.65670E-01 -1.88944E-01 -8.73992E-02  7.97563E-03  8.00602E-02  8.29595E-02
   5.51969E-02 -8.99165E-03 -6.13425E-02 -1.39032E-01 -2.10328E-01 -2.51812E-01 -2.76941E-01 -2.90624E-03  4.15821E-02 -2.09398E-01
  -4.73435E-01 -1.21830E+00 -2.11918E+00 -2.09584E+00 -1.22528E+00 -4.49598E-01 -5.61275E-02  1.28472E-01  3.50382E-02  1.10870E-02
   1.98538E-02  3.07748E-02  4.08960E-02  4.87207E-02  5.47268E-02  6.06074E-02  6.94085E-02  7.22558E-02  7.56634E-02  7.16782E-02
   5.82575E-02  4.05354E-02  1.84423E-02 -2.92621E-03 -1.54621E-02 -1.66875E-02 -7.40566E-03  5.72554E-03  2.10542E-02  3.18495E-02
   4.43087E-02  5.28652E-02  6.25994E-02  7.03449E-02  7.46395E-02  7.77863E-02  8.18891E-02  8.63105E-02  9.11217E-02  9.51041E-02
   9.71243E-02  9.94682E-02  1.03534E-01  1.07822E-01  1.11104E-01  1.13194E-01  1.13213E-01  1.12645E-01  1.15220E-01  1.20281E-01
   1.26131E-01  1.31452E-01  1.34430E-01  1.33916E-01  1.30750E-01  1.27344E-01  1.23904E-01  1.21368E-01  1.18541E-01  1.14865E-01
   1.08526E-01  1.00774E-01  9.28427E-02  8.42989E-02  7.49678E-02  6.69853E-02  6.12082E-02  5.47139E-02  4.73148E-02  4.10921E-02
   3.50925E-02  3.02067E-02  2.71801E-02  2.40212E-02  2.01682E-02  1.64382E-02  1.29084E-02  9.53948E-03  6.70759E-03  4.33058E-03
   2.98856E-03  1.04819E-03 -5.65597E-04  1.45864E-04  1.94337E-03  3.87129E-03  8.05706E-03  1.43143E-02  2.07822E-02  2.73228E-02
   3.25822E-02  3.38534E-02  3.37117E-02  3.63455E-02  4.31538E-02  5.23753E-02  6.11969E-02  6.87558E-02  7.54795E-02  8.31256E-02
   9.38767E-02  1.06414E-01  1.18987E-01  1.32070E-01  1.45319E-01  1.58878E-01  1.73027E-01  1.86130E-01  1.95682E-01  2.01200E-01
   2.03113E-01  2.03105E-01  2.02553E-01  2.02250E-01  2.00327E-01  1.94055E-01  1.71056E-01  1.56722E-01  1.39324E-01  1.36505E-01
   1.72071E-01  2.17237E-01  2.45259E-01  2.49129E-01  2.15701E-01  1.62034E-01  1.18577E-01  9.98014E-02  8.34327E-02  7.96399E-02
   7.29268E-02  6.58148E-02  6.01882E-02  5.50553E-02  5.18236E-02  5.28788E-02  5.55176E-02  5.73760E-02  6.03938E-02  6.50528E-02
   7.03319E-02  7.69321E-02  8.49466E-02  9.15946E-02  9.58230E-02  9.82537E-02  9.99530E-02  1.01507E-01  1.03601E-01  1.08079E-01
   1.12059E-01  1.13976E-01  1.13688E-01  1.11228E-01  1.08287E-01  1.05042E-01  1.00797E-01  9.58650E-02  9.21120E-02  8.94703E-02
   8.59735E-02  8.25088E-02  7.88347E-02  7.43480E-02  6.95093E-02  6.49697E-02  5.99648E-02  5.52516E-02  5.28719E-02  5.18302E-02
   4.98066E-02  4.64052E-02  4.25179E-02  3.69807E-02  2.94035E-02  2.15870E-02  1.42962E-02  7.60901E-03 -8.81731E-04 -1.30096E-02
  -2.95350E-02 -4.94771E-02 -7.03620E-02 -8.99275E-02 -1.08319E-01 -1.26647E-01 -1.44663E-01 -1.60876E-01 -1.75240E-01 -1.87824E-01
  -1.98252E-01 -2.03102E-01 -2.02928E-01 -2.01710E-01 -1.98981E-01 -1.91958E-01 -1.82190E-01 -1.72989E-01 -1.64632E-01 -1.57295E-01
  -1.51657E-01 -1.45084E-01 -1.35496E-01 -1.24860E-01 -1.13952E-01 -1.01588E-01 -8.77711E-02 -7.57937E-02 -6.44801E-02 -5.22475E-02
  -4.12846E-02 -3.10622E-02 -2.00764E-02 -9.99324E-03 -1.48922E-03  5.62184E-03  1.27335E-02  2.19076E-02  2.92727E-02  3.26329E-02
   3.69439E-02  4.22763E-02  4.61369E-02  4.96605E-02  5.28899E-02  5.43694E-02  5.57897E-02  5.81187E-02  5.80592E-02  5.70193E-02
   5.85787E-02  6.21628E-02  6.55609E-02  6.87128E-02  7.24677E-02  7.41483E-02  7.34193E-02  7.36574E-02  7.39233E-02  7.31000E-02
   7.30530E-02  7.34143E-02  7.24749E-02  7.13921E-02  7.12262E-02  7.22696E-02  7.44844E-02  7.59273E-02  7.68628E-02  7.70143E-02
   7.31197E-02  6.80183E-02  6.69601E-02  6.96053E-02  7.12255E-02  7.08537E-02  7.03853E-02  6.98393E-02  6.80752E-02  6.56832E-02
   6.57399E-02  6.83001E-02  7.01633E-02  7.11802E-02  7.17883E-02  7.23793E-02  7.39443E-02  7.62266E-02  7.80186E-02  7.87487E-02
   7.97833E-02  7.98445E-02  7.72609E-02  7.45024E-02  7.40563E-02  7.54106E-02  7.76491E-02  7.93314E-02  8.05258E-02  8.06071E-02
   8.04533E-02  8.22424E-02  8.63159E-02  9.04038E-02  9.24998E-02  9.14585E-02  8.84387E-02  8.64115E-02  8.65866E-02  8.88904E-02
   9.09542E-02  9.04015E-02  8.89347E-02  8.85202E-02  8.81136E-02  8.85416E-02  8.97940E-02  8.90018E-02  8.83456E-02  9.10866E-02
   9.33219E-02  9.37159E-02  9.36142E-02  9.32124E-02  9.33376E-02  9.42341E-02  9.55636E-02  9.85278E-02  1.03869E-01  1.09305E-01
   1.11286E-01  1.12130E-01  1.13225E-01  1.13913E-01
 NY background values follow
     5.684E-02    5.674E-02    5.664E-02    5.654E-02    5.644E-02    5.634E-02    5.624E-02    5.614E-02    5.604E-02    5.594E-02
     5.583E-02    5.573E-02    5.563E-02    5.553E-02    5.543E-02    5.533E-02    5.523E-02    5.513E-02    5.503E-02    5.493E-02
     5.483E-02    5.473E-02    5.463E-02    5.452E-02    5.442E-02    5.432E-02    5.422E-02    5.412E-02    5.402E-02    5.392E-02
     5.382E-02    5.372E-02    5.361E-02    5.351E-02    5.341E-02    5.331E-02    5.321E-02    5.311E-02    5.301E-02    5.290E-02
     5.280E-02    5.270E-02    5.260E-02    5.250E-02    5.240E-02    5.230E-02    5.219E-02    5.209E-02    5.199E-02    5.189E-02
     5.179E-02    5.169E-02    5.158E-02    5.148E-02    5.138E-02    5.128E-02    5.118E-02    5.107E-02    5.097E-02    5.087E-02
     5.077E-02    5.067E-02    5.056E-02    5.046E-02    5.036E-02    5.026E-02    5.016E-02    5.005E-02    4.995E-02    4.985E-02
