 
 $NMID
 ID=''
 FMTDAT='(2E13.5)'
 TRAMP=   1.00000E+0
 VOLUME=   1.00000E+0
 $END
  -2.05945E+4   3.35612E+3
  -5.36781E+4  -8.20133E+3
  -5.39060E+4  -1.38427E+3
  -4.96081E+4  -4.21247E+3
  -5.15162E+4  -8.28574E+3
  -5.09046E+4  -8.61032E+3
  -4.83348E+4  -1.19845E+4
  -4.83445E+4  -1.55466E+4
  -4.73577E+4  -1.67449E+4
  -4.49283E+4  -1.97062E+4
  -4.41033E+4  -2.25763E+4
  -4.26965E+4  -2.37789E+4
  -4.04463E+4  -2.61684E+4
  -3.90894E+4  -2.87843E+4
  -3.71606E+4  -3.00228E+4
  -3.46353E+4  -3.20238E+4
  -3.28868E+4  -3.39450E+4
  -3.08167E+4  -3.49444E+4
  -2.83691E+4  -3.63587E+4
  -2.63475E+4  -3.78313E+4
  -2.41537E+4  -3.83851E+4
  -2.17526E+4  -3.93222E+4
  -1.95072E+4  -4.05064E+4
  -1.71446E+4  -4.09042E+4
  -1.45110E+4  -4.12948E+4
  -1.22983E+4  -4.18700E+4
  -9.87445E+3  -4.20030E+4
  -7.09551E+3  -4.19529E+4
  -4.68042E+3  -4.20430E+4
  -2.32031E+3  -4.16093E+4
   2.94768E+1  -4.11364E+4
   2.23089E+3  -4.08392E+4
   4.62899E+3  -4.00088E+4
   6.87106E+3  -3.91969E+4
   8.88059E+3  -3.82796E+4
   1.08284E+4  -3.72110E+4
   1.28952E+4  -3.60556E+4
   1.45928E+4  -3.48595E+4
   1.61933E+4  -3.33762E+4
   1.79738E+4  -3.20646E+4
   1.95396E+4  -3.05942E+4
   2.09296E+4  -2.88079E+4
   2.23208E+4  -2.71284E+4
   2.34914E+4  -2.53036E+4
   2.44791E+4  -2.35631E+4
   2.54435E+4  -2.16252E+4
   2.62637E+4  -1.98293E+4
   2.69442E+4  -1.79360E+4
   2.74893E+4  -1.60201E+4
   2.78734E+4  -1.41337E+4
   2.81855E+4  -1.21867E+4
   2.83589E+4  -1.02477E+4
   2.83418E+4  -8.38418E+3
   2.83213E+4  -6.60111E+3
   2.81108E+4  -4.74208E+3
   2.78355E+4  -2.88363E+3
   2.74321E+4  -1.21116E+3
   2.69109E+4   6.67372E+2
   2.62539E+4   2.37533E+3
   2.54677E+4   3.94296E+3
   2.46647E+4   5.33248E+3
   2.37290E+4   6.83278E+3
   2.27163E+4   8.13021E+3
   2.17154E+4   9.40310E+3
   2.05343E+4   1.05656E+4
   1.93377E+4   1.17385E+4
   1.80720E+4   1.26918E+4
   1.67581E+4   1.36256E+4
   1.53448E+4   1.44211E+4
   1.41124E+4   1.50500E+4
   1.25770E+4   1.56715E+4
   1.12916E+4   1.61283E+4
   9.77468E+3   1.64619E+4
   8.44102E+3   1.67378E+4
   7.07645E+3   1.68996E+4
   5.68202E+3   1.70437E+4
   4.36548E+3   1.69861E+4
   3.05094E+3   1.67259E+4
   1.79754E+3   1.66490E+4
   5.16172E+2   1.63268E+4
  -6.76600E+2   1.60207E+4
  -1.77909E+3   1.55909E+4
  -2.84708E+3   1.50479E+4
  -3.90230E+3   1.44658E+4
  -4.86281E+3   1.37716E+4
  -5.80959E+3   1.31306E+4
  -6.60937E+3   1.24374E+4
  -7.31151E+3   1.16381E+4
  -7.95560E+3   1.08498E+4
  -8.60931E+3   1.00850E+4
  -9.10615E+3   9.14260E+3
  -9.52969E+3   8.32544E+3
  -9.98147E+3   7.40117E+3
  -1.01943E+4   6.58598E+3
  -1.04769E+4   5.68274E+3
  -1.05547E+4   4.75840E+3
  -1.06725E+4   3.98203E+3
  -1.06303E+4   3.14209E+3
  -1.06779E+4   2.31577E+3
  -1.04909E+4   1.49975E+3
  -1.03257E+4   7.77208E+2
  -1.01121E+4   7.39703E+1
  -9.93793E+3  -5.72859E+2
  -9.63008E+3  -1.24845E+3
  -9.28701E+3  -1.87833E+3
  -8.99720E+3  -2.41975E+3
  -8.59092E+3  -2.97015E+3
  -8.20255E+3  -3.42411E+3
  -7.69387E+3  -3.85783E+3
  -7.33925E+3  -4.28314E+3
  -6.77966E+3  -4.60175E+3
  -6.38289E+3  -4.84921E+3
  -5.87830E+3  -5.17029E+3
  -5.43366E+3  -5.39240E+3
  -4.98008E+3  -5.58996E+3
  -4.40372E+3  -5.76096E+3
  -3.99629E+3  -5.75479E+3
  -3.54045E+3  -5.97131E+3
  -3.11596E+3  -6.00038E+3
  -2.69038E+3  -5.94237E+3
  -2.31397E+3  -5.96703E+3
  -1.88629E+3  -5.95116E+3
  -1.50904E+3  -5.86711E+3
  -1.08683E+3  -5.76015E+3
  -7.99907E+2  -5.71612E+3
  -4.12311E+2  -5.53616E+3
  -1.38865E+2  -5.46829E+3
   1.07983E+2  -5.26617E+3
   4.54068E+2  -5.14247E+3
   6.79311E+2  -4.91495E+3
   8.62972E+2  -4.75385E+3
   1.05633E+3  -4.59782E+3
   1.26943E+3  -4.40672E+3
   1.35704E+3  -4.16199E+3
   1.54976E+3  -4.01647E+3
   1.67995E+3  -3.76860E+3
   1.76023E+3  -3.59674E+3
   1.87929E+3  -3.43413E+3
   1.94768E+3  -3.18056E+3
   2.08682E+3  -3.08582E+3
   2.11922E+3  -2.85749E+3
   2.14588E+3  -2.69369E+3
   2.09942E+3  -2.43928E+3
   2.13549E+3  -2.32758E+3
   2.24969E+3  -2.10834E+3
   2.20248E+3  -2.03111E+3
   2.18734E+3  -1.81414E+3
   2.10508E+3  -1.68815E+3
   2.12609E+3  -1.55005E+3
   2.08117E+3  -1.43998E+3
   2.03694E+3  -1.33293E+3
   2.08945E+3  -1.23512E+3
   1.99521E+3  -1.09095E+3
   1.81637E+3  -1.02962E+3
   1.90090E+3  -9.38420E+2
   1.80270E+3  -8.29131E+2
   1.76936E+3  -6.84070E+2
   1.70223E+3  -7.00255E+2
   1.55798E+3  -5.75907E+2
   1.58571E+3  -4.68300E+2
   1.49988E+3  -4.07711E+2
   1.43755E+3  -4.01434E+2
   1.31032E+3  -3.13837E+2
   1.30242E+3  -1.84075E+2
   1.26281E+3  -1.50049E+2
   1.16275E+3  -1.82890E+2
   1.10799E+3  -8.70781E+1
   9.70399E+2  -9.44917E+1
   9.43936E+2  -7.03348E+1
   8.34373E+2  -7.97963E+1
   8.06302E+2   2.35851E+0
   6.92905E+2  -6.73326E+1
   6.40323E+2   6.34785E+1
   5.70590E+2  -6.40974E+0
   4.68036E+2   6.18822E+0
   4.94027E+2   1.25823E+1
   3.57393E+2   1.41371E+1
   3.21754E+2   4.95037E+1
   2.26401E+2   8.26370E+1
   1.96207E+2  -3.97730E+1
   5.18866E+1  -1.04894E+1
   5.72594E+1  -2.96518E+1
  -6.97296E+1  -2.55072E+1
  -1.00017E+2  -4.51464E+1
  -2.19951E+2  -7.88403E+1
  -2.14592E+2  -1.39604E+2
  -2.80495E+2  -1.61809E+2
  -3.45389E+2  -2.25738E+2
  -4.18516E+2  -2.65798E+2
  -4.43086E+2  -2.98526E+2
  -4.43032E+2  -3.12246E+2
  -5.11933E+2  -3.42577E+2
  -4.59022E+2  -4.62207E+2
  -5.55803E+2  -4.78927E+2
  -5.49557E+2  -5.89234E+2
  -5.96742E+2  -6.23242E+2
  -6.75230E+2  -7.19067E+2
  -6.57077E+2  -6.90313E+2
  -6.54409E+2  -7.62760E+2
  -6.71903E+2  -8.00904E+2
  -6.70040E+2  -8.42675E+2
  -7.10403E+2  -8.93435E+2
  -7.08018E+2  -1.00621E+3
  -6.62329E+2  -1.04614E+3
  -7.46919E+2  -1.06721E+3
  -6.71695E+2  -1.15457E+3
  -6.64278E+2  -1.09819E+3
  -6.97647E+2  -1.08366E+3
  -6.64320E+2  -1.21349E+3
  -6.63542E+2  -1.23212E+3
  -6.47009E+2  -1.30756E+3
  -6.54581E+2  -1.29208E+3
  -6.00835E+2  -1.36371E+3
  -5.57481E+2  -1.35836E+3
  -4.91487E+2  -1.41975E+3
  -5.46110E+2  -1.48390E+3
  -5.19544E+2  -1.51622E+3
  -4.65066E+2  -1.48203E+3
  -4.67611E+2  -1.38917E+3
  -4.63008E+2  -1.53003E+3
  -3.81982E+2  -1.46362E+3
  -3.87079E+2  -1.46741E+3
  -4.68664E+2  -1.47183E+3
  -3.44144E+2  -1.49703E+3
  -3.26468E+2  -1.47907E+3
  -3.79792E+2  -1.49264E+3
  -3.49308E+2  -1.47849E+3
  -2.91970E+2  -1.48625E+3
  -3.52386E+2  -1.43992E+3
  -3.07342E+2  -1.42541E+3
  -3.02399E+2  -1.42252E+3
  -2.66648E+2  -1.42515E+3
  -3.10649E+2  -1.40871E+3
  -3.08672E+2  -1.47683E+3
  -2.84920E+2  -1.44809E+3
  -3.20058E+2  -1.39499E+3
  -3.05759E+2  -1.40250E+3
  -2.95445E+2  -1.38274E+3
  -3.10494E+2  -1.37997E+3
  -3.19836E+2  -1.35490E+3
  -3.52028E+2  -1.38282E+3
  -3.16468E+2  -1.38098E+3
  -3.23998E+2  -1.36223E+3
  -3.54068E+2  -1.30117E+3
  -3.88058E+2  -1.33938E+3
  -3.59311E+2  -1.33612E+3
  -4.29997E+2  -1.32317E+3
  -4.84375E+2  -1.29567E+3
  -4.49755E+2  -1.34835E+3
  -4.87562E+2  -1.22838E+3
  -4.87874E+2  -1.27924E+3
  -4.19679E+2  -1.23650E+3
  -4.54199E+2  -1.37389E+3
  -4.68701E+2  -1.35394E+3
  -5.20931E+2  -1.28544E+3
  -5.34431E+2  -1.35096E+3
  -4.76698E+2  -1.32228E+3
  -5.26373E+2  -1.34325E+3
  -5.24327E+2  -1.26725E+3
  -5.16912E+2  -1.33509E+3
  -5.44364E+2  -1.32098E+3
  -5.91093E+2  -1.27571E+3
  -6.16788E+2  -1.27914E+3
  -5.94896E+2  -1.35805E+3
  -5.88354E+2  -1.31048E+3
  -6.08498E+2  -1.42604E+3
  -6.13205E+2  -1.28493E+3
  -6.07413E+2  -1.32623E+3
  -6.21267E+2  -1.41021E+3
  -6.53143E+2  -1.38867E+3
  -5.69855E+2  -1.37746E+3
  -6.11250E+2  -1.36423E+3
  -5.94331E+2  -1.40919E+3
  -6.33610E+2  -1.38673E+3
  -6.03979E+2  -1.42234E+3
  -6.26193E+2  -1.43141E+3
  -5.85826E+2  -1.40346E+3
  -6.41400E+2  -1.41581E+3
  -6.21097E+2  -1.43616E+3
  -6.36489E+2  -1.42661E+3
  -6.43709E+2  -1.42361E+3
  -6.31613E+2  -1.49999E+3
  -6.28583E+2  -1.44597E+3
  -6.18922E+2  -1.39872E+3
  -5.97412E+2  -1.45225E+3
  -5.84950E+2  -1.43821E+3
  -5.96017E+2  -1.41803E+3
  -5.95086E+2  -1.40572E+3
  -5.77274E+2  -1.37792E+3
  -5.95866E+2  -1.43398E+3
  -5.73001E+2  -1.41600E+3
  -5.61548E+2  -1.44319E+3
  -5.45466E+2  -1.40663E+3
  -6.09651E+2  -1.46840E+3
  -5.55094E+2  -1.39229E+3
  -6.43414E+2  -1.42823E+3
  -5.51860E+2  -1.43698E+3
  -5.63192E+2  -1.38633E+3
  -5.72181E+2  -1.36713E+3
  -5.82664E+2  -1.46631E+3
  -6.10883E+2  -1.41574E+3
  -5.62711E+2  -1.39939E+3
  -5.29467E+2  -1.40499E+3
  -5.24879E+2  -1.42252E+3
  -5.07362E+2  -1.46038E+3
  -5.13770E+2  -1.44269E+3
  -4.61619E+2  -1.36169E+3
  -4.62811E+2  -1.46083E+3
  -5.45806E+2  -1.36810E+3
  -4.47227E+2  -1.39585E+3
  -5.01423E+2  -1.46692E+3
  -5.22111E+2  -1.40882E+3
  -4.42894E+2  -1.40293E+3
  -4.20006E+2  -1.40628E+3
  -4.91068E+2  -1.34868E+3
  -4.61913E+2  -1.34582E+3
  -4.31097E+2  -1.32627E+3
  -4.68397E+2  -1.33162E+3
  -5.36661E+2  -1.37803E+3
  -4.38637E+2  -1.31985E+3
  -4.39905E+2  -1.37008E+3
  -4.14908E+2  -1.32391E+3
  -4.70581E+2  -1.36620E+3
  -4.17244E+2  -1.24614E+3
  -3.70447E+2  -1.28386E+3
  -4.27142E+2  -1.26363E+3
  -4.19006E+2  -1.27796E+3
  -4.73706E+2  -1.25136E+3
  -4.25644E+2  -1.25165E+3
  -4.29423E+2  -1.24967E+3
  -4.21391E+2  -1.19608E+3
  -4.54325E+2  -1.23807E+3
  -4.30439E+2  -1.17828E+3
  -4.18958E+2  -1.21852E+3
  -3.28656E+2  -1.22500E+3
  -3.86364E+2  -1.22351E+3
  -3.91769E+2  -1.22256E+3
  -4.22307E+2  -1.16979E+3
  -4.52368E+2  -1.18688E+3
  -4.55433E+2  -1.20816E+3
  -3.76560E+2  -1.15187E+3
  -3.98739E+2  -1.18680E+3
  -3.95574E+2  -1.13361E+3
  -4.89601E+2  -1.11215E+3
  -3.17882E+2  -1.13004E+3
  -4.34511E+2  -1.23092E+3
  -3.89175E+2  -1.11079E+3
  -3.87147E+2  -1.09470E+3
  -3.80452E+2  -1.14527E+3
  -4.42057E+2  -1.12480E+3
  -3.91563E+2  -1.16138E+3
  -3.96942E+2  -1.10391E+3
  -3.67568E+2  -1.08489E+3
  -4.20315E+2  -1.10772E+3
  -4.01808E+2  -1.12272E+3
  -4.49907E+2  -1.06305E+3
  -3.99551E+2  -1.11343E+3
  -3.69954E+2  -1.12720E+3
  -3.54425E+2  -1.10488E+3
  -4.64774E+2  -1.11665E+3
  -4.57972E+2  -1.05306E+3
  -4.09263E+2  -1.06698E+3
  -3.79989E+2  -1.03515E+3
  -4.21610E+2  -1.10638E+3
  -3.73570E+2  -1.13501E+3
  -3.64957E+2  -1.08412E+3
  -3.69760E+2  -9.93971E+2
