 
 $NMID
 ID=''
 FMTDAT='(2E13.5)'
 TRAMP=   1.00000E+0
 VOLUME=   1.00000E+0
 $END
   2.32981E+2   1.93489E+2
  -1.40997E+3   1.47882E+3
   2.16716E+3  -2.88509E+2
   1.91935E+2   3.14460E+3
   2.76027E+3  -2.46180E+2
   3.68801E+3   1.79818E+3
   2.01656E+3  -2.17919E+3
   4.04766E+2  -2.09763E+3
   1.16674E+3  -3.90796E+3
   1.45546E+3  -2.73075E+3
   1.64598E+3  -2.57884E+3
   2.66367E+3   1.16295E+3
  -2.50906E+3   2.08087E+3
  -3.68730E+3   9.02871E+1
  -2.98328E+3  -2.53911E+3
   2.78090E+3  -2.28486E+3
   2.96809E+3   1.30238E+3
   1.91316E+2   1.41488E+3
  -3.84490E+2  -4.39165E+2
  -7.48976E+2  -5.89485E+2
   4.70258E+3   2.32255E+3
  -1.72982E+3   4.04486E+3
  -4.28379E+3   1.12336E+3
   6.16987E+2  -2.26371E+3
   4.37410E+3   9.72972E+2
   4.51437E+2   2.02334E+3
  -1.06945E+3   1.05074E+3
   8.48831E+2  -1.82543E+3
   4.73200E+3  -8.77413E+2
   2.74485E+3   1.18707E+3
   3.74742E+3   5.42261E+3
  -2.63891E+3   2.52705E+3
  -3.07431E+3  -3.56191E+3
  -4.39303E+2  -2.37326E+3
  -2.21670E+3  -2.27901E+3
  -2.78700E+3  -4.94022E+3
   3.12763E+3  -3.74252E+3
   1.57959E+3   1.18401E+3
  -2.08530E+3   1.77660E+3
  -2.00671E+3   1.76607E+3
  -3.56397E+3   4.26947E+3
  -5.34689E+3  -7.78944E+2
  -2.14328E+3  -4.66341E+3
   3.27088E+3  -3.92409E+2
  -4.27762E+2   4.77946E+3
  -8.70615E+2   1.39731E+3
  -1.85704E+2   6.67509E+2
   1.62827E+3   2.99445E+3
   4.45103E+1   1.22343E+2
  -6.26934E+2  -2.13553E+3
  -2.41285E+3  -2.46662E+3
   2.56645E+2  -2.15585E+3
   3.30290E+3   1.08354E+3
   1.10406E+3   2.00579E+3
   8.11325E+0   1.68084E+2
   1.88957E+3  -1.61530E+2
  -1.66256E+3  -1.78511E+3
  -2.05078E+3  -3.78135E+3
   9.71628E+2  -5.06968E+3
   1.95659E+3  -1.26321E+3
   2.85045E+3  -1.12641E+3
   5.10533E+2   4.33493E+3
  -9.67264E+2   3.76397E+3
  -2.18083E+3   4.09435E+2
   2.67030E+2  -8.52095E+1
   2.19110E+3   1.48160E+3
  -9.08698E+2   5.14384E+3
  -4.02119E+3   2.92241E+3
  -8.17789E+2  -8.61947E+2
   1.29808E+3   3.35213E+3
  -3.10745E+3   1.43371E+3
  -1.89158E+3   1.04566E+3
  -8.73758E+2  -1.11122E+3
  -9.01861E+2   2.69879E+2
   6.37814E+2  -3.82784E+2
  -2.60937E+1   2.08517E+3
  -6.81793E+2   6.57897E+2
   1.53615E+2  -4.37597E+2
   2.15456E+3   1.82704E+3
   9.15482E+2   3.79582E+3
   9.37381E+2   6.21793E+2
  -3.17320E+1   1.09275E+3
   2.81865E+3   2.33591E+3
   5.34976E+2   2.59309E+3
  -1.94729E+3   1.67099E+3
  -2.56836E+3  -2.13788E+3
   1.36108E+3  -4.38004E+3
   1.03216E+3  -1.99519E+3
   1.95527E+3  -4.79336E+2
  -3.00512E+2   5.19065E+2
   2.33099E+2  -1.21444E+3
   4.28601E+2  -1.79518E+3
  -9.80513E+1   1.41300E+3
  -3.56581E+3   9.27398E+2
  -3.36513E+3  -1.89285E+3
   1.28060E+3  -1.79514E+3
   3.10338E+3   2.26920E+2
   1.61161E+3   1.28644E+3
  -2.18433E+3  -1.24258E+3
  -6.85675E+2  -4.49079E+3
   3.10499E+3  -6.22287E+3
   5.31944E+3  -4.06234E+2
   1.35890E+3   1.53442E+3
  -7.06988E+2  -1.47063E+3
  -8.99951E+2   1.43195E+2
  -1.79728E+3  -2.93849E+3
  -2.14528E+3   1.08138E+3
  -2.56872E+3  -2.55911E+3
  -1.27610E+3  -1.72554E+3
   6.89778E+2  -2.32509E+3
   2.67703E+3   2.11033E+2
   1.06871E+3   3.37347E+3
  -1.09286E+3   1.45639E+3
  -1.47193E+3   1.24915E+3
   2.05956E+2   3.86046E+2
  -1.24042E+3  -6.64029E+2
  -1.03828E+3   1.43244E+3
   3.19255E+3  -1.09788E+3
   1.93692E+2  -6.09373E+2
   1.19637E+3  -8.02657E+2
   1.03673E+3   9.87911E+2
   3.44962E+2  -1.40757E+3
  -1.26720E+2  -5.93453E+2
   2.63073E+3   1.65973E+2
   2.66800E+3   9.01657E+2
  -1.71884E+2   1.15055E+3
   1.55456E+3   8.12002E+2
   1.35705E+3   2.14468E+3
  -1.56505E+2   7.55723E+1
  -1.38075E+3  -1.31963E+2
   7.53454E+2  -1.29654E+3
   1.86247E+3  -2.58845E+3
   1.72261E+3  -1.43157E+2
   1.09986E+3   1.30547E+3
  -2.09602E+2   5.98556E+2
  -3.26922E+3  -1.68076E+2
  -7.48130E+0  -9.86298E+2
   1.87405E+3  -9.05741E+2
   1.54192E+3   1.98645E+2
   1.39649E+3   3.17211E+2
   7.63170E+2  -1.26483E+3
   1.38072E+3   8.89889E+2
   2.37257E+3   1.88980E+3
   5.87617E+1   1.46859E+3
  -1.36263E+3   6.22131E+2
  -2.06321E+2   1.82080E+3
   5.10319E+2   1.99149E+3
  -1.74052E+3   2.56803E+3
  -1.48189E+3  -3.75314E+2
  -1.54013E+2  -1.10740E+3
   1.05870E+3  -6.79351E+2
  -5.37905E+2  -1.20018E+3
   3.82936E+2  -2.17025E+3
   1.52821E+3  -1.94346E+3
   1.43765E+3   9.19334E+1
  -6.15539E+2   1.50065E+3
  -7.01217E+2   2.09410E+3
  -8.71422E+2  -8.36814E+2
   2.76944E+2   2.00938E+2
  -2.48521E+2   8.96894E+2
  -1.53816E+3   4.10963E+2
  -2.30952E+3  -6.14080E+2
   3.82627E+2  -9.60455E+2
  -5.25230E+2   1.32431E+2
  -1.02148E+2   9.22790E+2
   2.36125E+2   9.15891E+2
  -2.36864E+3  -9.29924E+2
   7.04939E+2   2.91629E+2
   1.69109E+3   4.20981E+2
  -2.83741E+3  -1.30270E+3
  -1.22433E+3   1.17289E+3
  -1.48422E+3  -2.48518E+3
   2.90439E+2  -1.06099E+3
   3.92922E+2   1.33597E+2
   1.51373E+3  -3.52459E+2
  -2.50848E+1   1.02266E+2
  -7.84322E+2  -1.44339E+3
   1.63082E+3   2.09010E+3
   8.00607E+2   1.74123E+3
  -2.83438E+3   7.04660E+2
  -3.33358E+3  -1.11540E+3
   1.53480E+3  -2.24848E+3
   1.51811E+2   1.49540E+3
   2.40887E+2   9.82815E+2
  -5.53041E+2   2.67390E+2
  -7.52368E+2   1.06754E+3
  -4.89930E+2   2.50830E+3
  -2.95926E+3   1.69499E+3
  -9.48673E+2  -1.34048E+3
  -4.90156E+2   6.93681E+2
   1.66758E+3   2.00993E+3
   4.19450E+2   1.46288E+3
  -1.41374E+3   1.23942E+2
  -2.37117E+2   5.15052E+2
  -1.29683E+3  -6.81035E+2
   2.20592E+2   1.81070E+2
   2.62285E+2   2.16295E+3
   1.95091E+3   1.76857E+3
   9.01785E+2  -1.13873E+3
   1.29969E+3   5.18442E+2
  -3.29603E+3   4.65313E+2
  -1.26520E+3  -6.18438E+2
  -8.58563E+1  -7.96970E+2
   1.20239E+3   8.83305E+2
   1.06950E+2  -3.71032E+2
  -1.08590E+3  -2.03221E+2
  -1.41458E+2  -1.81052E+2
  -7.35959E+2  -1.83851E+3
  -2.69059E+2   1.35744E+3
   2.15149E+3   1.25981E+3
  -2.10434E+3   8.02867E+2
   1.61395E+2  -1.82883E+2
   6.25121E+2  -1.40611E+3
  -4.22362E+2   7.48550E+2
  -1.27923E+3   2.39166E+3
  -2.27715E+3   2.50883E+2
  -1.44222E+3   1.25607E+3
   6.94093E+2  -5.71776E+2
  -6.90412E+2   4.32855E+2
  -2.08494E+2   1.25043E+3
  -1.83245E+3  -1.74777E+3
   9.96777E+2   3.55905E+2
  -9.47995E+2  -1.62363E+3
  -2.83528E+2  -1.55620E+3
  -1.00512E+3  -4.62292E+2
  -4.73442E+1  -1.83103E+2
   7.05089E+2   2.90094E+2
   7.91125E+1  -1.75491E+1
  -7.91295E+2   2.11143E+3
   5.75926E+1  -1.15601E+3
  -3.51357E+2  -6.54158E+2
  -1.35258E+3   9.83946E+2
  -3.53435E+2  -9.22467E+1
   1.60125E+3  -1.75610E+3
   1.10796E+3   6.86813E+2
   7.36788E+2  -5.47866E+2
  -2.01655E+3   1.97516E+3
  -2.52026E+3  -2.13245E+2
   1.13338E+2  -4.59173E+2
   2.29092E+3   3.43630E+2
   1.29019E+3   1.21716E+3
   1.49418E+3   2.07772E+3
   8.74746E+1  -1.05785E+3
   3.17462E+2  -1.33664E+3
   4.78473E+1  -8.37616E+1
   2.04766E+3   9.95522E+2
   1.41115E+3  -1.88695E+3
  -4.18831E+1  -7.01931E+2
   3.26012E+3  -4.66710E+2
   2.13136E+3  -2.64875E+2
   1.29759E+2   7.10376E+2
  -1.41633E+3   1.10659E+3
  -2.09160E+2  -1.08006E+2
  -7.96128E+1   6.19562E+1
   4.51025E+2   1.07424E+3
   1.00342E+3   4.25744E+2
   2.60860E+3  -1.20597E+3
   6.85452E+2   2.08110E+2
  -3.51514E+2   8.60016E+2
  -7.76877E+2   1.12481E+3
  -4.83866E+2   1.77004E+1
  -2.88910E+2  -1.51021E+3
   8.98863E+1   1.12611E+3
  -5.86208E+2   2.27130E+3
  -2.66552E+3  -6.86884E+2
  -3.70550E+2  -6.42113E+2
  -1.52734E+3   1.56860E+3
   1.72936E+2  -1.62963E+3
   3.15266E+2  -9.83982E+2
   1.28743E+2  -2.15887E+3
   2.93018E+3  -2.13881E+2
   7.99714E+2   1.35665E+3
  -2.20239E+2   6.33660E+2
  -2.15075E+3  -3.63825E+2
  -6.64888E+1  -3.55779E+2
   1.07392E+3   1.29828E+1
   8.92973E+1   5.84992E+2
   2.25905E+2  -9.87565E+2
  -1.51800E+1  -2.23919E+3
  -5.14118E+2   2.91819E+2
   7.41208E+1   4.74927E+2
  -1.94762E+3   7.51622E+2
  -1.16611E+3   9.00439E+2
  -2.88526E+2   5.19938E+2
   7.89812E+2   8.99025E+2
   1.18480E+2  -1.21759E+3
  -9.44845E+2   7.65902E+1
  -1.10263E+3  -1.19406E+3
   9.30745E+2  -1.90627E+3
   7.49244E+2   1.38139E+2
   2.08393E+2  -4.03518E+2
  -1.28746E+2   4.05719E+2
   1.26731E+3   5.32057E+2
  -6.70932E+2   3.54372E+2
   6.71429E+2   2.17617E+3
  -1.23103E+3   5.58916E+1
  -1.40740E+3  -1.50293E+2
   2.10703E+3  -4.97104E+1
   8.61080E+2   7.93644E+2
   6.54349E+2   5.25160E+2
   1.29101E+3  -8.50116E+2
  -5.55869E+2   6.67230E+2
  -1.45369E+3  -5.99464E+2
  -2.87655E+2  -9.77300E+2
  -1.60799E+3  -1.36948E+3
   3.93608E+1  -9.71201E+2
   6.79284E+2  -6.70193E+2
   1.27251E+3   2.08841E+3
  -9.24916E+2   2.04636E+3
  -1.24019E+3  -8.47985E+2
   5.28091E+2  -4.56690E+2
   1.35048E+3   3.45329E+2
   1.36436E+3   1.82055E+3
  -1.54808E+3  -5.98941E+2
   1.89303E+3   3.10662E+2
   8.07303E+2  -5.25078E+2
  -1.60934E+3  -1.62043E+3
  -2.42737E+3   8.23918E+2
   1.54306E+2  -1.52706E+3
   7.04431E+2  -1.78874E+3
   8.90818E+2  -7.51495E+1
   1.26643E+3   4.56422E+2
  -2.63290E+2   1.65116E+3
   1.48189E+3  -1.23417E+2
   6.46456E+1   1.09167E+3
   7.94317E+2   2.23209E+3
   3.39650E+2  -2.15271E+3
  -7.10409E+2  -8.59105E+2
  -1.27349E+2   6.74037E+2
   1.80517E+3   1.97897E+3
   1.24929E+2  -1.49233E+3
  -2.08740E+3   1.21444E+3
  -9.48735E+2  -1.12150E+3
  -1.92042E+3  -1.61892E+3
   1.34536E+3  -3.16392E+2
  -8.12866E+2  -7.62481E+2
  -1.36487E+3   1.09902E+3
   9.70778E+2  -1.53947E+2
   1.02415E+2  -8.62220E+2
   2.40146E+2   2.51406E+3
  -5.34517E+2  -1.43778E+3
  -7.08956E+2  -2.63214E+2
  -4.59127E+1   3.07712E+2
   7.46208E+2   1.54984E+3
  -9.53348E+2   1.02293E+3
   6.59403E+2  -3.85628E+2
   4.46901E+2   1.96387E+3
  -1.18690E+3  -6.39698E+1
   6.71426E+1   1.61492E+3
  -1.78636E+3   5.94029E+2
  -2.79288E+3   1.19917E+3
  -1.06530E+3   2.59565E+1
  -4.03349E+3   1.50451E+3
   1.19958E+2   1.67356E+3
  -1.89687E+3   3.21849E+2
   8.40241E+1  -1.55935E+3
   2.05344E+3   6.61063E+2
   9.84623E+2   1.22127E+3
  -2.93842E+2   2.60182E+2
  -9.12445E+2   8.18541E+1
  -1.23373E+3  -3.86165E+2
   8.38282E+2   5.23835E+2
  -3.18244E+3  -6.35757E+2
   8.74546E+2   4.22849E+2
  -2.29447E+2  -1.08134E+3
  -4.62057E+2   1.12621E+3
  -1.22009E+3   1.60968E+2
