 
 $NMID
 ID=''
 FMTDAT='(2E13.5)'
 TRAMP=   1.00000E+0
 VOLUME=   1.00000E+0
 $END
  -1.52436E+4   7.27550E+3
  -4.31139E+4   7.21245E+3
  -4.12030E+4   1.49448E+4
  -3.78538E+4   1.40236E+4
  -3.96349E+4   1.34461E+4
  -3.90385E+4   1.52448E+4
  -3.76055E+4   1.41662E+4
  -3.83388E+4   1.35069E+4
  -3.79393E+4   1.45693E+4
  -3.70779E+4   1.39502E+4
  -3.75004E+4   1.35003E+4
  -3.71309E+4   1.41603E+4
  -3.63682E+4   1.39991E+4
  -3.68143E+4   1.34767E+4
  -3.65019E+4   1.39076E+4
  -3.58029E+4   1.36084E+4
  -3.60728E+4   1.33291E+4
  -3.56812E+4   1.36578E+4
  -3.50719E+4   1.35000E+4
  -3.52206E+4   1.31519E+4
  -3.47627E+4   1.33365E+4
  -3.41655E+4   1.33616E+4
  -3.42328E+4   1.33221E+4
  -3.40153E+4   1.33740E+4
  -3.34637E+4   1.33527E+4
  -3.33839E+4   1.33308E+4
  -3.31876E+4   1.35411E+4
  -3.27522E+4   1.33665E+4
  -3.26718E+4   1.32191E+4
  -3.24808E+4   1.33545E+4
  -3.21762E+4   1.34093E+4
  -3.20831E+4   1.34513E+4
  -3.20697E+4   1.34573E+4
  -3.17979E+4   1.33570E+4
  -3.16671E+4   1.34540E+4
  -3.15098E+4   1.34658E+4
  -3.12330E+4   1.33857E+4
  -3.10092E+4   1.34129E+4
  -3.09661E+4   1.34860E+4
  -3.06685E+4   1.34870E+4
  -3.05265E+4   1.34231E+4
  -3.04740E+4   1.33892E+4
  -3.01783E+4   1.32025E+4
  -2.99787E+4   1.32382E+4
  -2.97443E+4   1.33031E+4
  -2.94821E+4   1.32925E+4
  -2.93162E+4   1.33191E+4
  -2.90917E+4   1.33255E+4
  -2.89116E+4   1.34302E+4
  -2.87159E+4   1.33942E+4
  -2.85341E+4   1.33516E+4
  -2.82868E+4   1.33975E+4
  -2.80726E+4   1.34785E+4
  -2.78966E+4   1.35756E+4
  -2.78889E+4   1.35972E+4
  -2.76522E+4   1.35597E+4
  -2.75060E+4   1.35359E+4
  -2.73539E+4   1.34977E+4
  -2.72585E+4   1.35445E+4
  -2.70280E+4   1.34573E+4
  -2.68879E+4   1.34857E+4
  -2.66928E+4   1.35203E+4
  -2.64913E+4   1.35908E+4
  -2.63813E+4   1.34534E+4
  -2.61827E+4   1.34469E+4
  -2.59119E+4   1.34169E+4
  -2.58095E+4   1.34966E+4
  -2.56685E+4   1.34363E+4
  -2.54724E+4   1.34562E+4
  -2.52663E+4   1.34342E+4
  -2.51700E+4   1.33898E+4
  -2.49800E+4   1.34785E+4
  -2.48611E+4   1.34183E+4
  -2.46606E+4   1.34372E+4
  -2.45011E+4   1.34949E+4
  -2.42935E+4   1.34292E+4
  -2.41008E+4   1.34880E+4
  -2.40407E+4   1.34088E+4
  -2.38137E+4   1.33821E+4
  -2.36322E+4   1.34161E+4
  -2.34543E+4   1.34544E+4
  -2.32249E+4   1.34698E+4
  -2.30686E+4   1.34104E+4
  -2.29053E+4   1.34818E+4
  -2.28425E+4   1.34156E+4
  -2.26610E+4   1.33215E+4
  -2.24446E+4   1.33110E+4
  -2.22673E+4   1.32240E+4
  -2.20605E+4   1.32819E+4
  -2.19352E+4   1.33681E+4
  -2.17558E+4   1.33962E+4
  -2.15789E+4   1.33597E+4
  -2.14542E+4   1.33940E+4
  -2.12247E+4   1.33897E+4
  -2.10583E+4   1.34112E+4
  -2.07835E+4   1.33139E+4
  -2.07310E+4   1.32994E+4
  -2.04771E+4   1.33483E+4
  -2.03827E+4   1.33837E+4
  -2.01755E+4   1.33516E+4
  -2.00569E+4   1.32895E+4
  -1.98253E+4   1.33024E+4
  -1.96624E+4   1.33804E+4
  -1.96156E+4   1.33413E+4
  -1.93918E+4   1.33942E+4
  -1.92051E+4   1.33341E+4
  -1.90169E+4   1.33605E+4
  -1.89345E+4   1.32892E+4
  -1.87824E+4   1.32323E+4
  -1.85227E+4   1.32692E+4
  -1.83229E+4   1.32087E+4
  -1.81947E+4   1.32243E+4
  -1.80911E+4   1.32576E+4
  -1.79775E+4   1.31747E+4
  -1.78141E+4   1.32410E+4
  -1.77435E+4   1.32134E+4
  -1.75513E+4   1.31468E+4
  -1.73541E+4   1.30949E+4
  -1.71950E+4   1.31450E+4
  -1.70587E+4   1.30188E+4
  -1.69655E+4   1.30786E+4
  -1.68419E+4   1.30559E+4
  -1.66719E+4   1.29864E+4
  -1.65560E+4   1.29925E+4
  -1.63932E+4   1.29747E+4
  -1.62808E+4   1.29523E+4
  -1.61152E+4   1.29062E+4
  -1.60186E+4   1.28913E+4
  -1.59065E+4   1.28589E+4
  -1.57816E+4   1.28636E+4
  -1.56495E+4   1.28193E+4
  -1.55108E+4   1.28247E+4
  -1.52828E+4   1.26973E+4
  -1.52324E+4   1.26721E+4
  -1.51171E+4   1.26539E+4
  -1.50063E+4   1.26683E+4
  -1.47965E+4   1.26323E+4
  -1.46819E+4   1.25885E+4
  -1.45713E+4   1.25001E+4
  -1.44156E+4   1.25342E+4
  -1.42871E+4   1.24937E+4
  -1.42186E+4   1.24611E+4
  -1.41068E+4   1.23868E+4
  -1.38483E+4   1.23869E+4
  -1.37906E+4   1.24025E+4
  -1.36626E+4   1.23244E+4
  -1.36836E+4   1.23270E+4
  -1.34692E+4   1.23047E+4
  -1.34162E+4   1.21823E+4
  -1.32788E+4   1.22151E+4
  -1.31842E+4   1.21641E+4
  -1.30845E+4   1.21281E+4
  -1.29276E+4   1.20719E+4
  -1.28505E+4   1.20566E+4
  -1.26209E+4   1.19263E+4
  -1.25777E+4   1.18894E+4
  -1.24162E+4   1.18655E+4
  -1.23576E+4   1.18799E+4
  -1.22084E+4   1.17970E+4
  -1.21124E+4   1.18011E+4
  -1.20216E+4   1.17203E+4
  -1.18569E+4   1.16711E+4
  -1.18036E+4   1.16188E+4
  -1.16339E+4   1.15643E+4
  -1.15767E+4   1.15369E+4
  -1.14830E+4   1.15243E+4
  -1.14135E+4   1.14663E+4
  -1.11885E+4   1.14163E+4
  -1.11586E+4   1.13702E+4
  -1.10292E+4   1.13533E+4
  -1.09912E+4   1.13757E+4
  -1.08804E+4   1.12268E+4
  -1.07786E+4   1.11334E+4
  -1.06145E+4   1.10575E+4
  -1.05360E+4   1.10472E+4
  -1.04667E+4   1.10049E+4
  -1.03706E+4   1.09757E+4
  -1.02215E+4   1.09579E+4
  -1.01356E+4   1.09250E+4
  -1.01295E+4   1.08182E+4
  -9.99621E+3   1.07723E+4
  -9.90368E+3   1.07134E+4
  -9.76436E+3   1.06513E+4
  -9.72590E+3   1.06593E+4
  -9.61413E+3   1.06027E+4
  -9.49866E+3   1.05756E+4
  -9.36527E+3   1.04328E+4
  -9.41980E+3   1.04863E+4
  -9.23252E+3   1.04167E+4
  -9.19920E+3   1.02800E+4
  -9.10585E+3   1.02409E+4
  -9.01400E+3   1.03238E+4
  -8.86965E+3   1.02433E+4
  -8.84475E+3   1.01341E+4
  -8.71541E+3   1.01258E+4
  -8.60469E+3   1.00005E+4
  -8.56889E+3   1.00355E+4
  -8.54682E+3   9.91365E+3
  -8.38766E+3   9.90883E+3
  -8.24999E+3   9.90002E+3
  -8.21866E+3   9.75981E+3
  -8.20761E+3   9.76838E+3
  -8.08414E+3   9.62531E+3
  -7.94328E+3   9.60449E+3
  -7.84658E+3   9.61239E+3
  -7.81550E+3   9.56776E+3
  -7.76004E+3   9.48056E+3
  -7.68174E+3   9.49360E+3
  -7.61054E+3   9.37800E+3
  -7.49913E+3   9.39607E+3
  -7.41778E+3   9.23751E+3
  -7.36870E+3   9.26658E+3
  -7.24828E+3   9.20049E+3
  -7.20042E+3   9.12207E+3
  -7.09393E+3   9.15714E+3
  -7.04126E+3   9.06853E+3
  -7.06175E+3   9.00328E+3
  -6.90025E+3   8.95380E+3
  -6.80111E+3   8.96790E+3
  -6.77542E+3   8.84060E+3
  -6.67925E+3   8.85190E+3
  -6.56946E+3   8.78821E+3
  -6.54514E+3   8.73761E+3
  -6.51245E+3   8.72784E+3
  -6.40294E+3   8.62531E+3
  -6.27222E+3   8.60808E+3
  -6.20944E+3   8.50683E+3
  -6.14202E+3   8.51018E+3
  -6.14940E+3   8.41430E+3
  -6.03749E+3   8.32939E+3
  -5.98865E+3   8.38193E+3
  -5.95622E+3   8.33156E+3
  -5.85377E+3   8.25259E+3
  -5.78406E+3   8.21619E+3
  -5.71080E+3   8.19356E+3
  -5.62452E+3   8.09195E+3
  -5.58197E+3   8.11124E+3
  -5.60404E+3   8.02900E+3
  -5.48250E+3   7.97171E+3
  -5.43275E+3   7.94648E+3
  -5.37944E+3   7.95976E+3
  -5.22702E+3   7.90394E+3
  -5.26313E+3   7.91256E+3
  -5.15478E+3   7.78102E+3
  -5.08297E+3   7.81142E+3
  -5.07884E+3   7.81813E+3
  -5.05247E+3   7.71670E+3
  -4.88463E+3   7.70233E+3
  -4.84481E+3   7.64093E+3
  -4.77766E+3   7.56910E+3
  -4.80546E+3   7.62507E+3
  -4.65306E+3   7.53076E+3
  -4.63272E+3   7.54998E+3
  -4.58035E+3   7.43907E+3
  -4.53538E+3   7.38575E+3
  -4.47008E+3   7.38223E+3
  -4.40972E+3   7.30346E+3
  -4.38871E+3   7.30490E+3
  -4.25111E+3   7.29985E+3
  -4.22838E+3   7.26888E+3
  -4.22192E+3   7.26385E+3
  -4.17873E+3   7.19726E+3
  -4.05142E+3   7.12059E+3
  -3.96804E+3   7.16528E+3
  -3.96451E+3   7.01983E+3
  -3.95442E+3   7.03778E+3
  -3.85539E+3   7.06077E+3
  -3.75401E+3   6.97146E+3
  -3.77188E+3   6.91024E+3
  -3.77023E+3   6.86181E+3
  -3.55061E+3   6.88940E+3
  -3.54806E+3   6.84862E+3
  -3.52293E+3   6.83201E+3
  -3.49276E+3   6.79541E+3
  -3.48156E+3   6.75198E+3
  -3.34862E+3   6.70601E+3
  -3.28051E+3   6.64754E+3
  -3.24256E+3   6.67519E+3
  -3.19241E+3   6.62765E+3
  -3.19609E+3   6.56267E+3
  -3.15061E+3   6.55110E+3
  -3.05520E+3   6.56338E+3
  -3.02196E+3   6.50413E+3
  -2.91753E+3   6.41076E+3
  -2.92790E+3   6.47227E+3
  -2.81236E+3   6.46538E+3
  -2.82976E+3   6.40360E+3
  -2.75733E+3   6.35019E+3
  -2.81852E+3   6.28863E+3
  -2.72147E+3   6.30561E+3
  -2.68744E+3   6.24699E+3
  -2.68097E+3   6.28482E+3
  -2.53005E+3   6.20063E+3
  -2.50482E+3   6.22584E+3
  -2.45172E+3   6.17753E+3
  -2.44415E+3   6.12117E+3
  -2.41613E+3   6.02111E+3
  -2.31551E+3   6.05662E+3
  -2.29809E+3   6.09980E+3
  -2.24746E+3   6.00917E+3
  -2.19076E+3   5.94005E+3
  -2.18538E+3   5.98494E+3
  -2.15737E+3   5.87705E+3
  -2.05526E+3   5.91742E+3
  -2.06036E+3   5.82333E+3
  -1.98413E+3   5.85175E+3
  -1.95566E+3   5.78584E+3
  -1.88609E+3   5.75600E+3
  -1.91435E+3   5.73416E+3
  -1.82345E+3   5.75177E+3
  -1.80398E+3   5.66325E+3
  -1.71090E+3   5.61555E+3
  -1.70151E+3   5.63137E+3
  -1.69007E+3   5.61933E+3
  -1.64054E+3   5.62436E+3
  -1.62882E+3   5.49775E+3
  -1.58618E+3   5.53114E+3
  -1.52876E+3   5.49798E+3
  -1.54315E+3   5.50849E+3
  -1.51906E+3   5.43361E+3
  -1.37164E+3   5.39723E+3
  -1.47058E+3   5.33139E+3
  -1.29309E+3   5.37597E+3
  -1.34888E+3   5.27789E+3
  -1.30994E+3   5.28129E+3
  -1.27767E+3   5.18744E+3
  -1.23414E+3   5.18465E+3
  -1.22365E+3   5.22545E+3
  -1.14670E+3   5.14473E+3
  -1.17302E+3   5.13169E+3
  -1.04706E+3   5.09212E+3
  -1.01611E+3   5.12092E+3
  -9.65518E+2   5.06424E+3
  -1.00215E+3   5.05224E+3
  -9.16696E+2   5.01594E+3
  -8.96453E+2   5.04838E+3
  -8.60332E+2   4.92106E+3
  -8.44007E+2   4.93946E+3
  -7.69362E+2   4.88984E+3
  -7.69553E+2   4.91016E+3
  -7.99552E+2   4.86042E+3
  -7.69658E+2   4.79401E+3
  -7.51945E+2   4.75441E+3
  -6.62630E+2   4.78329E+3
  -6.06090E+2   4.77717E+3
  -6.37460E+2   4.71326E+3
  -5.96553E+2   4.64235E+3
  -6.22497E+2   4.65987E+3
  -5.55621E+2   4.63577E+3
  -5.39043E+2   4.58795E+3
  -4.65336E+2   4.52396E+3
  -4.73663E+2   4.49034E+3
  -4.26919E+2   4.53947E+3
  -3.77134E+2   4.46145E+3
  -3.44453E+2   4.48877E+3
  -4.12337E+2   4.46614E+3
  -3.46813E+2   4.34906E+3
  -3.21856E+2   4.40046E+3
  -2.85568E+2   4.37867E+3
  -2.74483E+2   4.33970E+3
  -2.40291E+2   4.33114E+3
  -1.67801E+2   4.29177E+3
  -2.13630E+2   4.22781E+3
  -1.88122E+2   4.19658E+3
  -1.07584E+2   4.21497E+3
  -1.41339E+2   4.13758E+3
  -1.99347E+2   4.14610E+3
