 
 $NMID
 ID=''
 FMTDAT='(2E13.5)'
 TRAMP=   1.00000E+0
 VOLUME=   1.00000E+0
 $END
  -6.55901E+3   1.94811E+4
  -3.01308E+4   4.34119E+4
  -2.14147E+4   4.81090E+4
  -1.89690E+4   4.43626E+4
  -2.04186E+4   4.56017E+4
  -1.77377E+4   4.67008E+4
  -1.66588E+4   4.48255E+4
  -1.71484E+4   4.51087E+4
  -1.52368E+4   4.56806E+4
  -1.43009E+4   4.44998E+4
  -1.43662E+4   4.44889E+4
  -1.26634E+4   4.47961E+4
  -1.15763E+4   4.39708E+4
  -1.15592E+4   4.39538E+4
  -1.02147E+4   4.40449E+4
  -9.21628E+3   4.32838E+4
  -8.87439E+3   4.32427E+4
  -7.69366E+3   4.32225E+4
  -6.64791E+3   4.25898E+4
  -6.26069E+3   4.23964E+4
  -5.16154E+3   4.21797E+4
  -4.13745E+3   4.16074E+4
  -3.68798E+3   4.15446E+4
  -2.89317E+3   4.11806E+4
  -1.99321E+3   4.05552E+4
  -1.47616E+3   4.02737E+4
  -7.22825E+2   4.00063E+4
  -8.42235E+1   3.93675E+4
   2.62412E+2   3.89923E+4
   9.32794E+2   3.85972E+4
   1.79014E+3   3.80060E+4
   2.20557E+3   3.77172E+4
   2.81775E+3   3.73361E+4
   3.33871E+3   3.66863E+4
   3.91869E+3   3.63006E+4
   4.50865E+3   3.58776E+4
   5.02969E+3   3.52671E+4
   5.54516E+3   3.47119E+4
   6.09061E+3   3.42503E+4
   6.59074E+3   3.37520E+4
   6.89803E+3   3.31925E+4
   7.26930E+3   3.28023E+4
   7.58240E+3   3.21217E+4
   7.85654E+3   3.15754E+4
   8.25880E+3   3.09287E+4
   8.67104E+3   3.04576E+4
   8.89445E+3   2.98567E+4
   9.19374E+3   2.92868E+4
   9.43573E+3   2.87723E+4
   9.67581E+3   2.81036E+4
   9.87093E+3   2.75979E+4
   1.00754E+4   2.69348E+4
   1.03356E+4   2.63625E+4
   1.05592E+4   2.56629E+4
   1.07846E+4   2.50617E+4
   1.08750E+4   2.44890E+4
   1.11254E+4   2.39859E+4
   1.11966E+4   2.33720E+4
   1.12535E+4   2.26993E+4
   1.14140E+4   2.20314E+4
   1.15177E+4   2.14031E+4
   1.16463E+4   2.07854E+4
   1.17612E+4   2.02250E+4
   1.18231E+4   1.95998E+4
   1.18879E+4   1.90874E+4
   1.19487E+4   1.85175E+4
   1.20422E+4   1.79953E+4
   1.21372E+4   1.74213E+4
   1.22096E+4   1.68522E+4
   1.21851E+4   1.63161E+4
   1.22851E+4   1.58584E+4
   1.22528E+4   1.53582E+4
   1.22565E+4   1.47862E+4
   1.23400E+4   1.43980E+4
   1.23019E+4   1.38850E+4
   1.22467E+4   1.34363E+4
   1.22458E+4   1.28846E+4
   1.22392E+4   1.25378E+4
   1.22160E+4   1.20348E+4
   1.21790E+4   1.16440E+4
   1.21143E+4   1.13567E+4
   1.20176E+4   1.09663E+4
   1.20079E+4   1.06432E+4
   1.18862E+4   1.02625E+4
   1.18099E+4   9.95251E+3
   1.16818E+4   9.59836E+3
   1.15158E+4   9.32161E+3
   1.14097E+4   9.00881E+3
   1.12322E+4   8.74691E+3
   1.11343E+4   8.48115E+3
   1.09261E+4   8.15357E+3
   1.07880E+4   7.98490E+3
   1.05801E+4   7.72388E+3
   1.04320E+4   7.47372E+3
   1.02605E+4   7.30257E+3
   9.96405E+3   7.08404E+3
   9.90412E+3   6.82290E+3
   9.66386E+3   6.59150E+3
   9.45901E+3   6.40519E+3
   9.27553E+3   6.25147E+3
   9.01172E+3   6.12575E+3
   8.84987E+3   5.89324E+3
   8.63457E+3   5.70386E+3
   8.42905E+3   5.56162E+3
   8.16370E+3   5.38576E+3
   8.03053E+3   5.32433E+3
   7.78487E+3   5.17139E+3
   7.56864E+3   5.07559E+3
   7.30406E+3   4.97304E+3
   7.15771E+3   4.79871E+3
   6.92534E+3   4.67700E+3
   6.69320E+3   4.53727E+3
   6.58465E+3   4.49342E+3
   6.31440E+3   4.41510E+3
   6.04025E+3   4.29516E+3
   5.86824E+3   4.24323E+3
   5.72312E+3   4.17710E+3
   5.51642E+3   4.08736E+3
   5.33333E+3   4.06214E+3
   5.15689E+3   3.94750E+3
   4.95889E+3   3.95410E+3
   4.80186E+3   3.86883E+3
   4.66742E+3   3.83481E+3
   4.46813E+3   3.80617E+3
   4.25932E+3   3.75380E+3
   4.20252E+3   3.71110E+3
   3.98176E+3   3.67424E+3
   3.83492E+3   3.71646E+3
   3.71042E+3   3.63030E+3
   3.58389E+3   3.65070E+3
   3.47113E+3   3.64496E+3
   3.27900E+3   3.57658E+3
   3.14492E+3   3.61851E+3
   3.09938E+3   3.54786E+3
   2.93094E+3   3.55941E+3
   2.86271E+3   3.60691E+3
   2.73485E+3   3.56908E+3
   2.56850E+3   3.60262E+3
   2.47168E+3   3.53094E+3
   2.36842E+3   3.46736E+3
   2.31903E+3   3.51195E+3
   2.20853E+3   3.57794E+3
   2.07335E+3   3.50369E+3
   2.03955E+3   3.57348E+3
   1.96000E+3   3.51658E+3
   1.82433E+3   3.51540E+3
   1.88511E+3   3.49388E+3
   1.72727E+3   3.53662E+3
   1.64546E+3   3.54863E+3
   1.60604E+3   3.50459E+3
   1.56165E+3   3.56643E+3
   1.41361E+3   3.54496E+3
   1.34266E+3   3.53847E+3
   1.37846E+3   3.52353E+3
   1.27310E+3   3.46838E+3
   1.20529E+3   3.50518E+3
   1.21313E+3   3.49139E+3
   1.12894E+3   3.52386E+3
   1.10094E+3   3.42664E+3
   1.04848E+3   3.46536E+3
   1.02673E+3   3.42135E+3
   1.01012E+3   3.42793E+3
   9.13765E+2   3.42789E+3
   9.27140E+2   3.36026E+3
   8.96776E+2   3.35323E+3
   8.35576E+2   3.38484E+3
   7.95301E+2   3.34805E+3
   8.44511E+2   3.31607E+3
   7.36544E+2   3.30399E+3
   7.37038E+2   3.30263E+3
   6.91663E+2   3.28316E+3
   6.01718E+2   3.23371E+3
   7.11577E+2   3.18450E+3
   6.19891E+2   3.13936E+3
   6.48937E+2   3.15678E+3
   6.56786E+2   3.12669E+3
   6.14838E+2   3.06552E+3
   5.36956E+2   3.04322E+3
   5.75129E+2   3.01617E+3
   5.68047E+2   2.96573E+3
   5.69589E+2   2.90674E+3
   5.13347E+2   2.88692E+3
   5.52026E+2   2.86762E+3
   5.43193E+2   2.80499E+3
   4.52487E+2   2.77899E+3
   4.46339E+2   2.76136E+3
   4.33850E+2   2.74668E+3
   4.15866E+2   2.68973E+3
   4.20418E+2   2.65914E+3
   4.96237E+2   2.64303E+3
   4.70988E+2   2.55942E+3
   4.75053E+2   2.56289E+3
   4.08588E+2   2.55217E+3
   4.44908E+2   2.43873E+3
   4.25137E+2   2.46836E+3
   4.75786E+2   2.41061E+3
   3.68778E+2   2.34960E+3
   3.82532E+2   2.40495E+3
   3.82699E+2   2.30971E+3
   3.72128E+2   2.28075E+3
   3.63154E+2   2.21868E+3
   3.50144E+2   2.22084E+3
   3.94506E+2   2.18966E+3
   4.19039E+2   2.13530E+3
   3.43857E+2   2.13541E+3
   3.94465E+2   2.04107E+3
   3.56134E+2   2.08533E+3
   2.99525E+2   2.02832E+3
   3.49001E+2   2.00686E+3
   2.60183E+2   1.91353E+3
   2.89122E+2   1.91301E+3
   3.35951E+2   1.85713E+3
   3.42384E+2   1.84820E+3
   2.84536E+2   1.79171E+3
   2.82158E+2   1.73157E+3
   1.88973E+2   1.76435E+3
   2.07456E+2   1.62361E+3
   2.13006E+2   1.67919E+3
   2.89041E+2   1.63488E+3
   2.15409E+2   1.64416E+3
   2.63399E+2   1.56357E+3
   2.58054E+2   1.54287E+3
   3.08842E+2   1.47715E+3
   2.73686E+2   1.46460E+3
   2.17383E+2   1.46051E+3
   1.83727E+2   1.48992E+3
   2.40793E+2   1.40595E+3
   2.64835E+2   1.33362E+3
   2.19551E+2   1.33093E+3
   2.45116E+2   1.35927E+3
   2.07864E+2   1.31293E+3
   2.26369E+2   1.30721E+3
   2.19462E+2   1.22781E+3
   2.55143E+2   1.31736E+3
   2.43977E+2   1.27630E+3
   2.68336E+2   1.27414E+3
   2.57195E+2   1.16931E+3
   3.12450E+2   1.17438E+3
   2.43691E+2   1.21090E+3
   2.46657E+2   1.19273E+3
   2.70069E+2   1.14009E+3
   2.26073E+2   1.14239E+3
   2.65741E+2   1.15493E+3
   2.37734E+2   1.12584E+3
   2.81955E+2   1.10471E+3
   2.04108E+2   1.13146E+3
   2.21833E+2   1.06993E+3
   2.75611E+2   1.01621E+3
   1.89610E+2   1.14260E+3
   1.96146E+2   1.00683E+3
   1.96479E+2   1.03215E+3
   1.80746E+2   1.05580E+3
   1.90301E+2   1.05681E+3
   2.42224E+2   1.02174E+3
   2.48070E+2   1.00717E+3
   1.94104E+2   9.83116E+2
   1.67349E+2   9.74169E+2
   2.35800E+2   9.31285E+2
   2.01838E+2   9.78019E+2
   2.40272E+2   9.95312E+2
   2.19441E+2   9.99108E+2
   2.08731E+2   1.03248E+3
   2.16053E+2   9.30228E+2
   2.15711E+2   9.19807E+2
   1.88384E+2   9.21355E+2
   2.08891E+2   9.43286E+2
   2.89639E+2   1.01236E+3
   1.72674E+2   9.19799E+2
   1.91067E+2   8.74755E+2
   9.09101E+1   1.02338E+3
   1.63329E+2   8.94336E+2
   1.66635E+2   9.57728E+2
   1.82225E+2   9.48887E+2
   1.77262E+2   8.91720E+2
   1.82610E+2   8.91123E+2
   1.88875E+2   9.33405E+2
   1.92138E+2   9.13827E+2
   1.39928E+2   9.35641E+2
   1.91431E+2   9.50472E+2
   1.65204E+2   9.45033E+2
   1.69254E+2   9.36950E+2
   1.78585E+2   8.91407E+2
   1.28327E+2   8.52371E+2
   1.50082E+2   8.85513E+2
   1.50121E+2   8.83697E+2
   1.76571E+2   8.83642E+2
   1.62343E+2   8.54395E+2
   1.50569E+2   9.04115E+2
   1.46763E+2   9.16093E+2
   1.97564E+2   9.37518E+2
   1.67130E+2   8.81437E+2
   9.85110E+1   8.95918E+2
   1.83790E+2   9.03230E+2
   1.98673E+2   8.69475E+2
   1.60129E+2   9.07060E+2
   1.20264E+2   9.19247E+2
   1.24429E+2   9.60764E+2
   1.54289E+2   8.75170E+2
   2.13081E+2   9.14644E+2
   1.94823E+2   9.41341E+2
   9.60070E+1   9.79348E+2
   1.38346E+2   9.15929E+2
   1.27229E+2   9.25632E+2
   1.27545E+2   9.12224E+2
   1.15344E+2   8.71578E+2
   1.35474E+2   8.93393E+2
   1.78194E+2   9.21354E+2
   1.25979E+2   9.10569E+2
   1.31998E+2   9.25577E+2
   1.31990E+2   8.99747E+2
   9.34731E+1   8.84065E+2
   7.94233E+1   8.98554E+2
   1.70903E+2   9.05845E+2
   6.22348E+1   9.10494E+2
   9.92208E+1   8.52516E+2
   1.53339E+2   8.29923E+2
   8.30415E+1   8.51075E+2
   1.14457E+2   8.57290E+2
   1.06707E+2   8.90115E+2
   7.60144E+1   8.88263E+2
   5.94716E+1   8.74808E+2
   9.08143E+1   9.15809E+2
   1.42449E+2   8.19851E+2
   7.36532E+1   8.60700E+2
   1.02242E+2   8.68403E+2
   7.17275E+1   8.50677E+2
   3.03616E+1   8.08652E+2
   9.73611E+1   8.24788E+2
   4.04034E+1   8.62166E+2
   8.91550E+1   7.87758E+2
   5.64758E+1   8.54445E+2
   4.28882E+1   8.55353E+2
   1.61609E+2   8.32928E+2
   9.11590E+1   7.83203E+2
   2.39865E+1   7.98058E+2
  -1.85418E+0   7.90714E+2
   2.96220E+1   7.58890E+2
   8.92743E+1   7.36415E+2
   8.20046E+1   7.84936E+2
   7.49524E+1   7.72558E+2
   4.90806E+1   7.94585E+2
   8.15420E+1   8.39574E+2
   1.25569E+1   7.56120E+2
   4.68680E+1   7.62158E+2
   9.01650E+1   7.56925E+2
   6.39848E+1   7.53287E+2
   3.35112E+1   7.57406E+2
   8.26123E+0   6.74041E+2
  -1.49929E+1   6.98388E+2
   7.20171E+1   7.58048E+2
   1.61117E+1   7.43231E+2
   3.86674E+1   8.33360E+2
   1.41759E+1   7.81955E+2
  -3.42918E+1   7.69349E+2
   6.65643E+1   7.06440E+2
   2.48761E+1   6.91143E+2
   2.01213E+1   7.28880E+2
  -2.75070E+1   6.39336E+2
   5.02049E+1   7.00321E+2
  -2.48664E+1   7.38125E+2
   2.46438E+1   7.03791E+2
  -3.87107E+1   6.70595E+2
  -1.91916E+1   7.37078E+2
  -2.94602E+1   6.33218E+2
   1.56469E+1   7.36245E+2
  -3.36733E+1   6.84044E+2
   2.02041E+1   6.36266E+2
