 
 $NMID
 ID=''
 FMTDAT='(2E13.5)'
 TRAMP=   1.00000E+0
 VOLUME=   1.00000E+0
 $END
  -1.82282E+4  -7.37628E+3
  -3.97939E+4  -3.12349E+4
  -4.47911E+4  -2.32835E+4
  -4.15206E+4  -2.10122E+4
  -4.25789E+4  -2.27912E+4
  -4.38299E+4  -2.06008E+4
  -4.21225E+4  -1.98961E+4
  -4.22920E+4  -2.08158E+4
  -4.30482E+4  -1.92471E+4
  -4.18847E+4  -1.87402E+4
  -4.19428E+4  -1.92650E+4
  -4.24019E+4  -1.79525E+4
  -4.17672E+4  -1.73568E+4
  -4.18514E+4  -1.77230E+4
  -4.20883E+4  -1.68907E+4
  -4.15518E+4  -1.62335E+4
  -4.16094E+4  -1.63543E+4
  -4.17139E+4  -1.55449E+4
  -4.12682E+4  -1.49253E+4
  -4.12678E+4  -1.49529E+4
  -4.12534E+4  -1.41964E+4
  -4.09401E+4  -1.35066E+4
  -4.09397E+4  -1.33448E+4
  -4.08401E+4  -1.28556E+4
  -4.03212E+4  -1.21759E+4
  -4.02828E+4  -1.19515E+4
  -4.02812E+4  -1.14203E+4
  -3.98598E+4  -1.10211E+4
  -3.97461E+4  -1.07288E+4
  -3.96469E+4  -1.02265E+4
  -3.94870E+4  -9.63222E+3
  -3.94203E+4  -9.33289E+3
  -3.94109E+4  -8.98834E+3
  -3.90491E+4  -8.43488E+3
  -3.90427E+4  -8.06245E+3
  -3.89741E+4  -7.58179E+3
  -3.87398E+4  -7.08266E+3
  -3.85922E+4  -6.72952E+3
  -3.85963E+4  -6.30954E+3
  -3.84981E+4  -5.84948E+3
  -3.83920E+4  -5.50014E+3
  -3.82955E+4  -5.22446E+3
  -3.80940E+4  -4.99082E+3
  -3.78300E+4  -4.60313E+3
  -3.77986E+4  -4.14980E+3
  -3.75889E+4  -3.88408E+3
  -3.74399E+4  -3.53510E+3
  -3.73060E+4  -3.31248E+3
  -3.71961E+4  -2.86119E+3
  -3.70166E+4  -2.57338E+3
  -3.68095E+4  -2.28935E+3
  -3.66184E+4  -1.94561E+3
  -3.63994E+4  -1.63627E+3
  -3.63056E+4  -1.21782E+3
  -3.61564E+4  -9.37350E+2
  -3.59951E+4  -6.75561E+2
  -3.58023E+4  -3.52834E+2
  -3.56390E+4  -6.56417E+1
  -3.54125E+4   2.08008E+2
  -3.52630E+4   4.96262E+2
  -3.50994E+4   7.54099E+2
  -3.49672E+4   1.16499E+3
  -3.47230E+4   1.45835E+3
  -3.46718E+4   1.67817E+3
  -3.44509E+4   1.87353E+3
  -3.42405E+4   2.13711E+3
  -3.41983E+4   2.52991E+3
  -3.39439E+4   2.65011E+3
  -3.38417E+4   2.86416E+3
  -3.36346E+4   3.09832E+3
  -3.34871E+4   3.36004E+3
  -3.32995E+4   3.52983E+3
  -3.31136E+4   3.69910E+3
  -3.28531E+4   3.92161E+3
  -3.27353E+4   4.05724E+3
  -3.25437E+4   4.32458E+3
  -3.23118E+4   4.57660E+3
  -3.21562E+4   4.68358E+3
  -3.19105E+4   4.96602E+3
  -3.17153E+4   5.22518E+3
  -3.15513E+4   5.40213E+3
  -3.12776E+4   5.57025E+3
  -3.10773E+4   5.77057E+3
  -3.08735E+4   5.92667E+3
  -3.07274E+4   6.06529E+3
  -3.05044E+4   6.14131E+3
  -3.03092E+4   6.28173E+3
  -3.00010E+4   6.44995E+3
  -2.98430E+4   6.65241E+3
  -2.96532E+4   6.81413E+3
  -2.94742E+4   6.94187E+3
  -2.92082E+4   7.13548E+3
  -2.90416E+4   7.34674E+3
  -2.88101E+4   7.44039E+3
  -2.86091E+4   7.57214E+3
  -2.83546E+4   7.73405E+3
  -2.80412E+4   7.80800E+3
  -2.78583E+4   8.01250E+3
  -2.77078E+4   8.19600E+3
  -2.75060E+4   8.22619E+3
  -2.72718E+4   8.32701E+3
  -2.70394E+4   8.46192E+3
  -2.67215E+4   8.57795E+3
  -2.66431E+4   8.78035E+3
  -2.64179E+4   8.89441E+3
  -2.61219E+4   8.95808E+3
  -2.58861E+4   9.10369E+3
  -2.57380E+4   9.20207E+3
  -2.55700E+4   9.30441E+3
  -2.52442E+4   9.36889E+3
  -2.51085E+4   9.51309E+3
  -2.47267E+4   9.65446E+3
  -2.45636E+4   9.77572E+3
  -2.43567E+4   9.90779E+3
  -2.41072E+4   1.00317E+4
  -2.39429E+4   1.00907E+4
  -2.36687E+4   1.01530E+4
  -2.34518E+4   1.02697E+4
  -2.32830E+4   1.03333E+4
  -2.30575E+4   1.04210E+4
  -2.28325E+4   1.06050E+4
  -2.26421E+4   1.06907E+4
  -2.24238E+4   1.07312E+4
  -2.22281E+4   1.08156E+4
  -2.19783E+4   1.09515E+4
  -2.17718E+4   1.09639E+4
  -2.15831E+4   1.10717E+4
  -2.13196E+4   1.11545E+4
  -2.11148E+4   1.12737E+4
  -2.09136E+4   1.13521E+4
  -2.06984E+4   1.12847E+4
  -2.05037E+4   1.14613E+4
  -2.02579E+4   1.14562E+4
  -2.00874E+4   1.15886E+4
  -1.98369E+4   1.16156E+4
  -1.96427E+4   1.16585E+4
  -1.94653E+4   1.17731E+4
  -1.92186E+4   1.18327E+4
  -1.89436E+4   1.19087E+4
  -1.87324E+4   1.19574E+4
  -1.85272E+4   1.20184E+4
  -1.82579E+4   1.21010E+4
  -1.80325E+4   1.21579E+4
  -1.78439E+4   1.22439E+4
  -1.77343E+4   1.22596E+4
  -1.74090E+4   1.22990E+4
  -1.71806E+4   1.23835E+4
  -1.70622E+4   1.24038E+4
  -1.68642E+4   1.24546E+4
  -1.66370E+4   1.25435E+4
  -1.64644E+4   1.25417E+4
  -1.62149E+4   1.26259E+4
  -1.60316E+4   1.26319E+4
  -1.57833E+4   1.26212E+4
  -1.55062E+4   1.26846E+4
  -1.53823E+4   1.27235E+4
  -1.51856E+4   1.26887E+4
  -1.49500E+4   1.26995E+4
  -1.47770E+4   1.27934E+4
  -1.45374E+4   1.28061E+4
  -1.43191E+4   1.27921E+4
  -1.41897E+4   1.28326E+4
  -1.39371E+4   1.28587E+4
  -1.38110E+4   1.28281E+4
  -1.35849E+4   1.27738E+4
  -1.33825E+4   1.28883E+4
  -1.32227E+4   1.27993E+4
  -1.29278E+4   1.28870E+4
  -1.27257E+4   1.28795E+4
  -1.25578E+4   1.28731E+4
  -1.24135E+4   1.28988E+4
  -1.22385E+4   1.28719E+4
  -1.19614E+4   1.28446E+4
  -1.18409E+4   1.28027E+4
  -1.16010E+4   1.28527E+4
  -1.14522E+4   1.28434E+4
  -1.11502E+4   1.27755E+4
  -1.09749E+4   1.28113E+4
  -1.07776E+4   1.28192E+4
  -1.06542E+4   1.26998E+4
  -1.04136E+4   1.26864E+4
  -1.02826E+4   1.27071E+4
  -1.00830E+4   1.27022E+4
  -9.90326E+3   1.26502E+4
  -9.67932E+3   1.26220E+4
  -9.43646E+3   1.25761E+4
  -9.34978E+3   1.25767E+4
  -9.15248E+3   1.25943E+4
  -8.99913E+3   1.24715E+4
  -8.75566E+3   1.24386E+4
  -8.60496E+3   1.23865E+4
  -8.44220E+3   1.23946E+4
  -8.26562E+3   1.23912E+4
  -8.05149E+3   1.22630E+4
  -7.87115E+3   1.22807E+4
  -7.72311E+3   1.22456E+4
  -7.57360E+3   1.22256E+4
  -7.41381E+3   1.21514E+4
  -7.27899E+3   1.21126E+4
  -7.04742E+3   1.20324E+4
  -6.88075E+3   1.21125E+4
  -6.79404E+3   1.19841E+4
  -6.59029E+3   1.19119E+4
  -6.45185E+3   1.18818E+4
  -6.27747E+3   1.17752E+4
  -6.14564E+3   1.18313E+4
  -5.99303E+3   1.17516E+4
  -5.86108E+3   1.16587E+4
  -5.69540E+3   1.16341E+4
  -5.61097E+3   1.15046E+4
  -5.42422E+3   1.14811E+4
  -5.29085E+3   1.13794E+4
  -5.15215E+3   1.13623E+4
  -4.92700E+3   1.13099E+4
  -4.88125E+3   1.12833E+4
  -4.73197E+3   1.12168E+4
  -4.61290E+3   1.11219E+4
  -4.42234E+3   1.09752E+4
  -4.27966E+3   1.09674E+4
  -4.18296E+3   1.08400E+4
  -4.08708E+3   1.08361E+4
  -3.95725E+3   1.07055E+4
  -3.81200E+3   1.06133E+4
  -3.70335E+3   1.06558E+4
  -3.55752E+3   1.04890E+4
  -3.45395E+3   1.04039E+4
  -3.30685E+3   1.03407E+4
  -3.17566E+3   1.03076E+4
  -3.14740E+3   1.02009E+4
  -3.05515E+3   1.00955E+4
  -2.93187E+3   1.00050E+4
  -2.74415E+3   9.96536E+3
  -2.67416E+3   9.87859E+3
  -2.59336E+3   9.80155E+3
  -2.48426E+3   9.68160E+3
  -2.31134E+3   9.65194E+3
  -2.22236E+3   9.58084E+3
  -2.11805E+3   9.51468E+3
  -2.06240E+3   9.40964E+3
  -1.91588E+3   9.29203E+3
  -1.82341E+3   9.26152E+3
  -1.71572E+3   9.25142E+3
  -1.67855E+3   9.15917E+3
  -1.50693E+3   9.06864E+3
  -1.47293E+3   8.91636E+3
  -1.38585E+3   8.86519E+3
  -1.34019E+3   8.83530E+3
  -1.19820E+3   8.69570E+3
  -1.12487E+3   8.60487E+3
  -1.00827E+3   8.54835E+3
  -9.10266E+2   8.54252E+3
  -8.85757E+2   8.45131E+3
  -8.04603E+2   8.32449E+3
  -7.80356E+2   8.20443E+3
  -7.04377E+2   8.16413E+3
  -6.20101E+2   8.11212E+3
  -5.32810E+2   7.95078E+3
  -4.31214E+2   7.91199E+3
  -4.19365E+2   7.89014E+3
  -3.20816E+2   7.77348E+3
  -2.11400E+2   7.77809E+3
  -1.46542E+2   7.69741E+3
  -6.12944E+1   7.52574E+3
  -7.55798E+1   7.52713E+3
   4.94038E+1   7.43306E+3
   5.22783E+1   7.31566E+3
   1.92404E+2   7.32270E+3
   1.64993E+2   7.24891E+3
   1.86550E+2   7.13969E+3
   2.63287E+2   7.06979E+3
   3.24548E+2   6.99785E+3
   4.46194E+2   6.94842E+3
   4.79265E+2   6.86636E+3
   5.72402E+2   6.83291E+3
   5.41488E+2   6.77869E+3
   5.90403E+2   6.64865E+3
   6.79054E+2   6.57852E+3
   7.31228E+2   6.45626E+3
   8.10757E+2   6.50049E+3
   8.82097E+2   6.40357E+3
   8.91556E+2   6.32164E+3
   9.75956E+2   6.24595E+3
   9.88305E+2   6.18141E+3
   1.01336E+3   6.13070E+3
   1.01340E+3   6.03752E+3
   1.08909E+3   5.97015E+3
   1.16111E+3   5.90953E+3
   1.11815E+3   5.83356E+3
   1.17017E+3   5.82874E+3
   1.24236E+3   5.73559E+3
   1.35384E+3   5.66239E+3
   1.28994E+3   5.57021E+3
   1.36018E+3   5.56612E+3
   1.41710E+3   5.43024E+3
   1.40144E+3   5.45395E+3
   1.52486E+3   5.40835E+3
   1.53579E+3   5.25774E+3
   1.59395E+3   5.19046E+3
   1.58942E+3   5.19002E+3
   1.60039E+3   5.05520E+3
   1.67370E+3   5.08559E+3
   1.63816E+3   5.03774E+3
   1.67263E+3   4.96400E+3
   1.73718E+3   4.94139E+3
   1.74220E+3   4.87489E+3
   1.79286E+3   4.72258E+3
   1.79541E+3   4.66830E+3
   1.80447E+3   4.62656E+3
   1.80035E+3   4.61202E+3
   1.86603E+3   4.57931E+3
   1.88524E+3   4.50427E+3
   1.90835E+3   4.41937E+3
   1.97763E+3   4.41814E+3
   1.96527E+3   4.36205E+3
   2.00887E+3   4.28677E+3
   1.99675E+3   4.18882E+3
   1.99323E+3   4.23508E+3
   2.08213E+3   4.21700E+3
   2.01113E+3   4.11476E+3
   2.09799E+3   3.97360E+3
   2.08065E+3   3.97263E+3
   2.15271E+3   3.90734E+3
   2.19000E+3   3.91985E+3
   2.16699E+3   3.91394E+3
   2.16486E+3   3.83825E+3
   2.13250E+3   3.74829E+3
   2.26106E+3   3.66069E+3
   2.18312E+3   3.64250E+3
   2.25339E+3   3.51484E+3
   2.31930E+3   3.52689E+3
   2.32635E+3   3.51499E+3
   2.32841E+3   3.47117E+3
   2.30450E+3   3.41643E+3
   2.32768E+3   3.38217E+3
   2.33445E+3   3.26756E+3
   2.41270E+3   3.29197E+3
   2.34169E+3   3.21355E+3
   2.44870E+3   3.18736E+3
   2.40196E+3   3.14505E+3
   2.44693E+3   3.08381E+3
   2.37640E+3   3.04319E+3
   2.40572E+3   2.93730E+3
   2.46259E+3   2.97483E+3
   2.47575E+3   2.92184E+3
   2.44622E+3   2.93798E+3
   2.49498E+3   2.81257E+3
   2.50549E+3   2.72137E+3
   2.47787E+3   2.72278E+3
   2.55374E+3   2.67604E+3
   2.51526E+3   2.61851E+3
   2.52329E+3   2.59148E+3
   2.52180E+3   2.50069E+3
   2.56373E+3   2.46195E+3
   2.54651E+3   2.41157E+3
   2.53968E+3   2.41701E+3
   2.53878E+3   2.36022E+3
   2.61596E+3   2.33699E+3
   2.57205E+3   2.26338E+3
   2.53043E+3   2.14664E+3
   2.54747E+3   2.21802E+3
   2.55369E+3   2.18620E+3
   2.60553E+3   2.06327E+3
   2.55134E+3   2.05067E+3
   2.59110E+3   2.04257E+3
   2.57231E+3   2.00570E+3
   2.53532E+3   1.97650E+3
   2.58787E+3   1.89102E+3
