 
 $NMID
 ID=''
 FMTDAT='(2E13.5)'
 TRAMP=   1.00000E+0
 VOLUME=   1.00000E+0
 $END
  -1.69339E+4   1.00234E+4
  -4.95157E+4   1.18389E+4
  -4.69211E+4   1.90966E+4
  -4.36111E+4   1.62882E+4
  -4.60603E+4   1.46013E+4
  -4.54775E+4   1.53201E+4
  -4.42108E+4   1.28080E+4
  -4.53335E+4   1.08828E+4
  -4.49743E+4   1.08280E+4
  -4.41366E+4   8.70322E+3
  -4.46140E+4   7.06470E+3
  -4.41491E+4   6.68680E+3
  -4.33443E+4   5.07074E+3
  -4.37300E+4   3.42117E+3
  -4.31401E+4   2.80047E+3
  -4.21744E+4   1.27473E+3
  -4.22110E+4  -6.39594E+1
  -4.16698E+4  -8.03062E+2
  -4.06993E+4  -1.93717E+3
  -4.06280E+4  -3.18136E+3
  -3.99014E+4  -3.81246E+3
  -3.90945E+4  -4.72050E+3
  -3.89586E+4  -5.80532E+3
  -3.82877E+4  -6.41611E+3
  -3.74570E+4  -7.45852E+3
  -3.70509E+4  -8.31201E+3
  -3.64362E+4  -9.05055E+3
  -3.55597E+4  -1.01022E+4
  -3.51167E+4  -1.10683E+4
  -3.43525E+4  -1.17033E+4
  -3.35875E+4  -1.24901E+4
  -3.31203E+4  -1.33055E+4
  -3.24176E+4  -1.40709E+4
  -3.15436E+4  -1.48338E+4
  -3.08925E+4  -1.55456E+4
  -3.01223E+4  -1.60710E+4
  -2.93114E+4  -1.67504E+4
  -2.86378E+4  -1.74048E+4
  -2.77499E+4  -1.79211E+4
  -2.68918E+4  -1.84181E+4
  -2.60907E+4  -1.91373E+4
  -2.51622E+4  -1.96344E+4
  -2.41088E+4  -2.02365E+4
  -2.31548E+4  -2.06375E+4
  -2.22832E+4  -2.09727E+4
  -2.12975E+4  -2.14049E+4
  -2.02779E+4  -2.18034E+4
  -1.93373E+4  -2.20388E+4
  -1.83542E+4  -2.23076E+4
  -1.73492E+4  -2.25317E+4
  -1.63650E+4  -2.27782E+4
  -1.53645E+4  -2.29129E+4
  -1.43915E+4  -2.29527E+4
  -1.33891E+4  -2.30183E+4
  -1.23601E+4  -2.31293E+4
  -1.14485E+4  -2.31257E+4
  -1.04240E+4  -2.31203E+4
  -9.35738E+3  -2.30253E+4
  -8.41611E+3  -2.29122E+4
  -7.43499E+3  -2.26703E+4
  -6.48295E+3  -2.25460E+4
  -5.52405E+3  -2.23341E+4
  -4.61959E+3  -2.21082E+4
  -3.67865E+3  -2.17533E+4
  -2.66342E+3  -2.14094E+4
  -1.85908E+3  -2.10856E+4
  -9.76434E+2  -2.07225E+4
  -9.84417E+0  -2.02614E+4
   8.10997E+2  -1.97170E+4
   1.64536E+3  -1.92555E+4
   2.43231E+3  -1.86351E+4
   3.16857E+3  -1.79597E+4
   3.93786E+3  -1.73902E+4
   4.58582E+3  -1.67328E+4
   5.23007E+3  -1.60095E+4
   5.80593E+3  -1.53072E+4
   6.35732E+3  -1.45745E+4
   6.84526E+3  -1.37764E+4
   7.30008E+3  -1.29558E+4
   7.78425E+3  -1.22276E+4
   8.15020E+3  -1.14245E+4
   8.39504E+3  -1.05438E+4
   8.80244E+3  -9.84472E+3
   8.95554E+3  -8.97291E+3
   9.22640E+3  -8.12229E+3
   9.34097E+3  -7.31085E+3
   9.39915E+3  -6.50847E+3
   9.42583E+3  -5.68440E+3
   9.52681E+3  -5.01935E+3
   9.38529E+3  -4.25897E+3
   9.40601E+3  -3.45225E+3
   9.24386E+3  -2.76136E+3
   9.06256E+3  -2.02937E+3
   8.97687E+3  -1.42594E+3
   8.64349E+3  -7.40941E+2
   8.41947E+3  -1.00888E+2
   8.06864E+3   4.69794E+2
   7.79994E+3   9.94632E+2
   7.39865E+3   1.49662E+3
   7.04955E+3   2.04252E+3
   6.64195E+3   2.41841E+3
   6.27536E+3   2.81140E+3
   5.70713E+3   3.17114E+3
   5.39109E+3   3.46847E+3
   4.99551E+3   3.85120E+3
   4.39343E+3   4.07651E+3
   3.99309E+3   4.21129E+3
   3.61602E+3   4.49334E+3
   3.08988E+3   4.55911E+3
   2.65607E+3   4.71713E+3
   2.21114E+3   4.79240E+3
   1.81087E+3   4.74828E+3
   1.38884E+3   4.72784E+3
   9.71841E+2   4.77414E+3
   5.44444E+2   4.65433E+3
   2.61152E+2   4.61567E+3
  -1.72416E+2   4.48070E+3
  -4.43462E+2   4.33950E+3
  -8.36870E+2   4.17441E+3
  -1.19091E+3   4.01477E+3
  -1.35345E+3   3.76569E+3
  -1.71630E+3   3.57219E+3
  -1.89493E+3   3.32191E+3
  -2.08749E+3   3.10245E+3
  -2.27110E+3   2.92819E+3
  -2.42149E+3   2.61992E+3
  -2.60512E+3   2.41580E+3
  -2.64503E+3   2.13300E+3
  -2.82630E+3   1.91087E+3
  -2.90373E+3   1.66578E+3
  -2.89121E+3   1.43135E+3
  -3.00250E+3   1.17310E+3
  -2.96278E+3   1.02293E+3
  -3.01217E+3   7.45129E+2
  -2.99700E+3   5.92686E+2
  -3.03516E+3   3.45523E+2
  -2.92132E+3   1.29100E+2
  -2.89386E+3  -1.31547E+1
  -2.79452E+3  -1.66187E+2
  -2.78187E+3  -4.05921E+2
  -2.68840E+3  -5.56325E+2
  -2.61362E+3  -6.93605E+2
  -2.54034E+3  -8.63470E+2
  -2.37013E+3  -1.01888E+3
  -2.34890E+3  -1.12268E+3
  -2.27746E+3  -1.24460E+3
  -2.21578E+3  -1.34237E+3
  -1.98641E+3  -1.39500E+3
  -1.97007E+3  -1.46671E+3
  -1.86193E+3  -1.58332E+3
  -1.72563E+3  -1.66149E+3
  -1.58053E+3  -1.70657E+3
  -1.45339E+3  -1.74485E+3
  -1.40908E+3  -1.73272E+3
  -1.30465E+3  -1.84616E+3
  -1.21062E+3  -1.90210E+3
  -1.06149E+3  -1.84459E+3
  -9.39711E+2  -1.86438E+3
  -9.07113E+2  -1.92138E+3
  -8.17142E+2  -1.93876E+3
  -6.65330E+2  -1.96039E+3
  -6.18959E+2  -1.97795E+3
  -5.80025E+2  -1.91510E+3
  -4.22507E+2  -1.85405E+3
  -3.35830E+2  -1.86778E+3
  -3.82519E+2  -1.90053E+3
  -2.85016E+2  -1.86084E+3
  -2.22010E+2  -1.83202E+3
  -1.39425E+2  -1.82833E+3
  -6.09408E+1  -1.83555E+3
  -4.56318E+1  -1.77100E+3
   9.57512E+0  -1.77518E+3
   7.42278E+1  -1.74748E+3
   1.11979E+2  -1.68903E+3
   1.08201E+2  -1.71920E+3
   1.68451E+2  -1.68723E+3
   1.54295E+2  -1.66009E+3
   2.42786E+2  -1.64076E+3
   2.88101E+2  -1.61281E+3
   2.63775E+2  -1.63367E+3
   3.87685E+2  -1.61115E+3
   3.62955E+2  -1.52161E+3
   3.92801E+2  -1.59576E+3
   3.57604E+2  -1.52717E+3
   4.44230E+2  -1.44978E+3
   4.53242E+2  -1.43440E+3
   5.02098E+2  -1.42563E+3
   4.59256E+2  -1.32776E+3
   4.97844E+2  -1.30406E+3
   5.06381E+2  -1.34379E+3
   4.80891E+2  -1.33185E+3
   4.53742E+2  -1.29641E+3
   4.71316E+2  -1.19735E+3
   4.72288E+2  -1.17972E+3
   4.75122E+2  -1.22110E+3
   5.02375E+2  -1.17472E+3
   4.85136E+2  -1.10973E+3
   4.58257E+2  -1.07971E+3
   5.00201E+2  -1.09962E+3
   5.09042E+2  -1.09337E+3
   4.53507E+2  -1.05694E+3
   4.86642E+2  -9.72512E+2
   4.50459E+2  -9.92445E+2
   3.99044E+2  -9.48619E+2
   4.39363E+2  -9.33842E+2
   3.89245E+2  -8.93649E+2
   3.44199E+2  -8.88762E+2
   3.49863E+2  -8.99649E+2
   3.27601E+2  -8.40813E+2
   3.46518E+2  -7.82652E+2
   2.78191E+2  -7.81738E+2
   2.31902E+2  -8.28152E+2
   1.78362E+2  -8.00814E+2
   1.92566E+2  -8.30231E+2
   1.66774E+2  -7.96576E+2
   1.68126E+2  -7.88632E+2
   2.04802E+2  -7.65104E+2
   1.46021E+2  -7.89182E+2
   1.73366E+2  -7.88018E+2
   1.18630E+2  -7.37626E+2
   6.35448E+1  -7.25039E+2
   9.02310E+1  -7.22267E+2
   8.96144E+0  -7.13362E+2
  -9.06265E+0  -6.99983E+2
   5.88159E-1  -6.90043E+2
   8.66389E-2  -7.41928E+2
  -5.26068E+0  -7.35926E+2
  -2.52438E+1  -7.04317E+2
  -3.27014E+0  -6.80396E+2
  -8.28439E+1  -6.77439E+2
  -4.34476E+1  -7.66763E+2
  -1.02915E+2  -6.79913E+2
  -1.22867E+2  -7.19457E+2
  -1.11315E+2  -6.78486E+2
  -9.71687E+1  -7.01518E+2
  -9.66835E+1  -6.30592E+2
  -8.30608E+1  -7.24514E+2
  -1.18167E+2  -7.54772E+2
  -1.28231E+2  -6.96933E+2
  -1.42656E+2  -7.19035E+2
  -1.00536E+2  -7.17196E+2
  -1.51354E+2  -6.68772E+2
  -1.06804E+2  -6.66380E+2
  -1.63293E+2  -6.66271E+2
  -1.72185E+2  -6.00011E+2
  -1.68343E+2  -6.69989E+2
  -1.17394E+2  -6.13366E+2
  -1.45356E+2  -6.92798E+2
  -1.69206E+2  -6.24364E+2
  -1.58725E+2  -6.19111E+2
  -1.53903E+2  -6.60764E+2
  -2.01605E+2  -6.00925E+2
  -1.51446E+2  -5.89757E+2
  -1.66424E+2  -5.48221E+2
  -1.59555E+2  -5.69107E+2
  -1.39976E+2  -4.57203E+2
  -2.52794E+2  -5.75505E+2
  -1.29457E+2  -4.46601E+2
  -1.60364E+2  -5.74435E+2
  -1.98457E+2  -4.93819E+2
  -2.27810E+2  -4.92726E+2
  -1.64685E+2  -4.31600E+2
  -2.56572E+2  -5.20532E+2
  -1.71101E+2  -4.80828E+2
  -2.16182E+2  -4.00703E+2
  -2.41278E+2  -4.37452E+2
  -2.33697E+2  -3.71175E+2
  -2.14410E+2  -4.11092E+2
  -2.58447E+2  -3.99203E+2
  -2.30117E+2  -4.85562E+2
  -2.02765E+2  -3.73896E+2
  -2.97276E+2  -3.49506E+2
  -2.01174E+2  -3.28472E+2
  -2.38102E+2  -2.75169E+2
  -1.52852E+2  -3.41131E+2
  -2.79502E+2  -3.29123E+2
  -2.47533E+2  -2.58043E+2
  -2.53251E+2  -2.83611E+2
  -2.93127E+2  -3.28976E+2
  -2.44690E+2  -3.72953E+2
  -2.20315E+2  -2.55134E+2
  -2.63451E+2  -3.11346E+2
  -2.53018E+2  -2.79298E+2
  -2.76678E+2  -2.26909E+2
  -2.68920E+2  -2.24390E+2
  -2.42703E+2  -2.60553E+2
  -2.77848E+2  -2.14134E+2
  -2.76345E+2  -2.47095E+2
  -1.55091E+2  -2.21589E+2
  -2.04102E+2  -2.09009E+2
  -2.32911E+2  -1.95925E+2
  -2.26678E+2  -1.99880E+2
  -2.42259E+2  -1.74625E+2
  -2.45564E+2  -1.98422E+2
  -2.55531E+2  -2.17547E+2
  -2.58222E+2  -1.51035E+2
  -2.62305E+2  -1.74655E+2
  -2.24005E+2  -1.17896E+2
  -2.54848E+2  -8.16696E+1
  -2.21445E+2  -1.27726E+2
  -2.46420E+2  -9.38127E+1
  -2.75237E+2  -1.34218E+2
  -2.89299E+2  -8.22758E+1
  -2.95525E+2  -8.73724E+1
  -3.18236E+2  -9.39359E+1
  -3.59382E+2  -1.00976E+2
  -3.06841E+2  -6.42617E+1
  -3.03315E+2  -4.19418E+0
  -3.14596E+2  -2.62906E+1
  -3.37990E+2  -3.73220E+1
  -3.13152E+2  -7.52942E+1
  -2.70978E+2  -6.27070E+1
  -2.72920E+2  -4.63414E+1
  -3.02310E+2  -7.50844E+1
  -3.05024E+2   2.41446E+1
  -3.34402E+2  -5.52713E+1
  -3.41311E+2  -1.45623E+1
  -3.36332E+2  -1.05288E+1
  -3.14349E+2  -1.97906E+1
  -3.37666E+2   2.77442E+1
  -3.39297E+2  -7.28029E+1
  -3.49968E+2  -8.55295E+0
  -2.88864E+2   3.99063E+0
  -3.10800E+2   3.74320E+1
  -3.40538E+2  -9.67724E+1
  -3.38330E+2  -2.30884E+1
  -3.64025E+2  -2.55458E+1
  -4.36760E+2  -1.63510E+1
  -3.35338E+2  -2.35182E+1
  -4.01394E+2  -7.41860E+1
  -3.26472E+2  -4.22483E+0
  -3.16641E+2  -6.67045E+0
  -3.46704E+2  -9.26893E+0
  -3.39303E+2  -2.25921E+1
  -3.11030E+2   4.19866E+1
  -3.53929E+2  -1.18731E+2
  -2.97658E+2   7.32679E-1
  -3.48556E+2  -5.64684E+1
  -3.77826E+2  -4.86111E+1
  -3.05855E+2  -3.92875E+1
  -3.78929E+2  -2.87152E+1
  -3.31424E+2  -7.41909E+1
  -2.85795E+2   9.51599E+0
  -3.34528E+2  -2.38850E+1
  -3.50844E+2  -2.48135E+1
  -3.52069E+2  -4.46782E+1
  -2.75817E+2   3.13690E+1
  -2.48251E+2   1.83813E+0
  -2.75682E+2  -6.39126E+1
  -3.26396E+2  -6.55781E+1
  -2.99153E+2  -7.93161E+1
  -2.99787E+2  -1.23775E+2
  -2.57814E+2  -2.31922E+1
  -3.15202E+2   1.98295E+1
  -3.15282E+2   1.41617E+1
  -2.75549E+2   3.78332E+1
  -3.27181E+2  -2.85381E+1
  -2.58821E+2  -8.59594E+1
  -3.12293E+2  -7.69378E+1
  -2.63630E+2  -6.61957E+0
  -2.12947E+2  -2.00513E+1
  -2.48017E+2  -1.37565E+1
  -1.96392E+2   9.41603E+1
  -2.44709E+2   2.18354E+1
  -2.98266E+2   2.59589E+1
  -2.82814E+2   1.44622E+1
  -2.51442E+2   4.82918E+1
