 
 $NMID
 ID=''
 FMTDAT='(2E13.5)'
 TRAMP=   1.00000E+0
 VOLUME=   1.00000E+0
 $END
  -1.99684E+4  -1.85455E+3
  -4.84569E+4  -2.01532E+4
  -5.09486E+4  -1.28767E+4
  -4.69918E+4  -1.35475E+4
  -4.81694E+4  -1.67492E+4
  -4.81603E+4  -1.60553E+4
  -4.57498E+4  -1.77269E+4
  -4.55060E+4  -2.02443E+4
  -4.52203E+4  -2.03318E+4
  -4.32782E+4  -2.20116E+4
  -4.26899E+4  -2.40709E+4
  -4.21604E+4  -2.42828E+4
  -4.07238E+4  -2.55058E+4
  -3.99896E+4  -2.74281E+4
  -3.91136E+4  -2.80045E+4
  -3.76376E+4  -2.90861E+4
  -3.67340E+4  -3.05810E+4
  -3.57181E+4  -3.11039E+4
  -3.42229E+4  -3.19721E+4
  -3.31368E+4  -3.33149E+4
  -3.19520E+4  -3.36876E+4
  -3.05686E+4  -3.42337E+4
  -2.93445E+4  -3.54697E+4
  -2.79158E+4  -3.58810E+4
  -2.63096E+4  -3.64259E+4
  -2.51340E+4  -3.72357E+4
  -2.37579E+4  -3.76686E+4
  -2.20161E+4  -3.80696E+4
  -2.06332E+4  -3.86387E+4
  -1.92161E+4  -3.88613E+4
  -1.78080E+4  -3.90197E+4
  -1.65460E+4  -3.94819E+4
  -1.50818E+4  -3.96607E+4
  -1.34898E+4  -3.96485E+4
  -1.22493E+4  -3.97899E+4
  -1.10279E+4  -3.97497E+4
  -9.59380E+3  -3.95813E+4
  -8.24623E+3  -3.95172E+4
  -7.00804E+3  -3.94847E+4
  -5.67567E+3  -3.92780E+4
  -4.38367E+3  -3.90466E+4
  -3.06528E+3  -3.89102E+4
  -1.53337E+3  -3.84887E+4
  -4.11614E+2  -3.80718E+4
   7.45536E+2  -3.76542E+4
   2.08363E+3  -3.71847E+4
   3.28471E+3  -3.67057E+4
   4.41921E+3  -3.61626E+4
   5.57994E+3  -3.56379E+4
   6.71593E+3  -3.50135E+4
   7.81300E+3  -3.43324E+4
   8.93111E+3  -3.35777E+4
   9.79223E+3  -3.28454E+4
   1.08023E+4  -3.21586E+4
   1.17801E+4  -3.15116E+4
   1.27124E+4  -3.06944E+4
   1.36801E+4  -2.98830E+4
   1.45561E+4  -2.89833E+4
   1.53352E+4  -2.80342E+4
   1.61362E+4  -2.71761E+4
   1.68244E+4  -2.63211E+4
   1.74251E+4  -2.53590E+4
   1.81452E+4  -2.45561E+4
   1.88425E+4  -2.35999E+4
   1.94300E+4  -2.26366E+4
   1.99052E+4  -2.16973E+4
   2.04233E+4  -2.07812E+4
   2.09560E+4  -1.97257E+4
   2.14280E+4  -1.88001E+4
   2.18428E+4  -1.78044E+4
   2.22819E+4  -1.68330E+4
   2.25515E+4  -1.58409E+4
   2.28774E+4  -1.47990E+4
   2.31261E+4  -1.38363E+4
   2.33387E+4  -1.28720E+4
   2.34876E+4  -1.18743E+4
   2.37188E+4  -1.09203E+4
   2.38166E+4  -9.97100E+3
   2.39258E+4  -8.96390E+3
   2.39736E+4  -8.06409E+3
   2.39456E+4  -7.01216E+3
   2.39480E+4  -6.13137E+3
   2.38312E+4  -5.05740E+3
   2.37015E+4  -4.20996E+3
   2.36810E+4  -3.21711E+3
   2.34305E+4  -2.28744E+3
   2.31413E+4  -1.43783E+3
   2.29318E+4  -5.41019E+2
   2.26234E+4   2.88126E+2
   2.23820E+4   1.04636E+3
   2.20313E+4   1.89397E+3
   2.16326E+4   2.58163E+3
   2.12630E+4   3.31888E+3
   2.08443E+4   4.03268E+3
   2.04079E+4   4.62426E+3
   1.99421E+4   5.30568E+3
   1.95501E+4   5.92740E+3
   1.90185E+4   6.44326E+3
   1.86373E+4   6.97629E+3
   1.81239E+4   7.48088E+3
   1.75277E+4   8.04350E+3
   1.70944E+4   8.44357E+3
   1.66054E+4   8.80065E+3
   1.61464E+4   9.26296E+3
   1.56268E+4   9.54957E+3
   1.50663E+4   9.80940E+3
   1.46884E+4   1.00935E+4
   1.40838E+4   1.04299E+4
   1.36493E+4   1.06269E+4
   1.31715E+4   1.07885E+4
   1.26758E+4   1.09281E+4
   1.22860E+4   1.10951E+4
   1.18406E+4   1.12765E+4
   1.14301E+4   1.13731E+4
   1.10356E+4   1.14693E+4
   1.06292E+4   1.15757E+4
   1.02178E+4   1.16872E+4
   9.87754E+3   1.17443E+4
   9.49121E+3   1.17411E+4
   9.20814E+3   1.17849E+4
   8.81334E+3   1.18251E+4
   8.49862E+3   1.18776E+4
   8.14988E+3   1.19153E+4
   7.87612E+3   1.18537E+4
   7.60119E+3   1.19311E+4
   7.30354E+3   1.19740E+4
   7.09740E+3   1.19216E+4
   6.74085E+3   1.18335E+4
   6.58690E+3   1.18498E+4
   6.30183E+3   1.18660E+4
   6.08368E+3   1.18875E+4
   5.90115E+3   1.18547E+4
   5.69783E+3   1.18493E+4
   5.48724E+3   1.18158E+4
   5.34908E+3   1.18779E+4
   5.13509E+3   1.18607E+4
   4.94547E+3   1.18178E+4
   4.80456E+3   1.17459E+4
   4.59751E+3   1.17842E+4
   4.50014E+3   1.18256E+4
   4.32227E+3   1.17727E+4
   4.07878E+3   1.18072E+4
   4.01635E+3   1.18046E+4
   3.82055E+3   1.17748E+4
   3.58113E+3   1.17675E+4
   3.49308E+3   1.17759E+4
   3.32936E+3   1.17909E+4
   3.18502E+3   1.17396E+4
   2.96245E+3   1.17599E+4
   2.90643E+3   1.17116E+4
   2.73609E+3   1.16825E+4
   2.53914E+3   1.16294E+4
   2.41603E+3   1.15807E+4
   2.27791E+3   1.15970E+4
   2.12320E+3   1.15351E+4
   1.99236E+3   1.15196E+4
   1.88592E+3   1.14721E+4
   1.68785E+3   1.13668E+4
   1.53046E+3   1.14494E+4
   1.36930E+3   1.13823E+4
   1.26806E+3   1.13058E+4
   1.17660E+3   1.12734E+4
   1.04683E+3   1.12159E+4
   9.10036E+2   1.10947E+4
   7.70190E+2   1.10855E+4
   6.20464E+2   1.09887E+4
   5.36705E+2   1.09064E+4
   4.28014E+2   1.08027E+4
   3.18758E+2   1.06847E+4
   1.41540E+2   1.06359E+4
   3.24201E+1   1.05807E+4
  -9.21802E+1   1.04647E+4
  -1.48077E+2   1.04077E+4
  -2.11803E+2   1.02625E+4
  -3.13684E+2   1.01727E+4
  -4.00272E+2   1.01066E+4
  -5.05073E+2   9.98321E+3
  -5.70288E+2   9.88306E+3
  -6.91274E+2   9.80057E+3
  -7.65633E+2   9.79380E+3
  -8.27189E+2   9.65046E+3
  -8.77523E+2   9.58237E+3
  -9.62779E+2   9.45553E+3
  -1.07710E+3   9.34311E+3
  -1.10677E+3   9.29189E+3
  -1.20577E+3   9.18963E+3
  -1.21851E+3   9.14224E+3
  -1.31899E+3   9.05943E+3
  -1.40273E+3   8.85330E+3
  -1.51346E+3   8.76102E+3
  -1.43298E+3   8.67643E+3
  -1.65682E+3   8.59504E+3
  -1.63182E+3   8.51188E+3
  -1.70153E+3   8.43367E+3
  -1.73709E+3   8.31479E+3
  -1.85849E+3   8.18224E+3
  -1.85474E+3   8.11776E+3
  -1.94787E+3   8.03359E+3
  -2.03726E+3   7.83077E+3
  -2.02397E+3   7.83834E+3
  -2.13159E+3   7.72331E+3
  -2.18364E+3   7.54645E+3
  -2.16095E+3   7.49528E+3
  -2.20788E+3   7.31161E+3
  -2.31860E+3   7.22735E+3
  -2.31263E+3   7.09699E+3
  -2.40264E+3   7.02732E+3
  -2.40897E+3   6.94735E+3
  -2.42084E+3   6.84179E+3
  -2.44663E+3   6.70368E+3
  -2.50211E+3   6.55395E+3
  -2.53995E+3   6.48831E+3
  -2.56009E+3   6.34526E+3
  -2.55081E+3   6.27538E+3
  -2.60435E+3   6.11609E+3
  -2.62124E+3   6.04433E+3
  -2.60158E+3   5.95890E+3
  -2.68101E+3   5.74724E+3
  -2.67011E+3   5.68641E+3
  -2.73226E+3   5.51141E+3
  -2.74611E+3   5.39620E+3
  -2.73995E+3   5.27523E+3
  -2.66921E+3   5.16686E+3
  -2.80699E+3   5.10048E+3
  -2.75785E+3   4.92894E+3
  -2.69077E+3   4.79482E+3
  -2.80884E+3   4.65524E+3
  -2.76897E+3   4.50647E+3
  -2.76515E+3   4.51300E+3
  -2.75987E+3   4.38547E+3
  -2.80922E+3   4.24565E+3
  -2.84563E+3   4.11794E+3
  -2.73890E+3   4.01072E+3
  -2.82889E+3   3.86046E+3
  -2.73601E+3   3.77776E+3
  -2.73849E+3   3.71293E+3
  -2.81000E+3   3.58887E+3
  -2.80085E+3   3.50409E+3
  -2.82339E+3   3.37128E+3
  -2.68836E+3   3.32295E+3
  -2.75267E+3   3.17924E+3
  -2.69797E+3   3.09223E+3
  -2.70891E+3   3.01396E+3
  -2.71712E+3   2.84438E+3
  -2.66151E+3   2.84576E+3
  -2.66289E+3   2.70298E+3
  -2.69225E+3   2.63562E+3
  -2.62508E+3   2.52921E+3
  -2.65130E+3   2.38513E+3
  -2.64237E+3   2.29379E+3
  -2.61104E+3   2.17455E+3
  -2.63317E+3   2.09537E+3
  -2.59545E+3   1.97351E+3
  -2.52101E+3   1.98788E+3
  -2.61163E+3   1.87846E+3
  -2.50484E+3   1.76263E+3
  -2.48438E+3   1.63419E+3
  -2.49826E+3   1.56547E+3
  -2.47025E+3   1.46223E+3
  -2.50390E+3   1.38919E+3
  -2.49952E+3   1.24968E+3
  -2.44166E+3   1.21264E+3
  -2.42888E+3   1.12959E+3
  -2.32041E+3   1.03926E+3
  -2.33531E+3   9.92677E+2
  -2.24440E+3   7.83557E+2
  -2.34407E+3   7.47122E+2
  -2.24059E+3   6.59902E+2
  -2.25174E+3   6.09166E+2
  -2.22338E+3   4.73679E+2
  -2.11064E+3   4.51598E+2
  -2.19481E+3   3.46723E+2
  -2.09781E+3   2.67382E+2
  -2.06013E+3   2.09908E+2
  -2.06042E+3   1.35152E+2
  -1.92344E+3   8.47082E+1
  -1.94544E+3  -3.06636E+1
  -1.95642E+3  -1.32020E+2
  -1.86888E+3  -1.90545E+2
  -1.89159E+3  -2.03591E+2
  -1.76647E+3  -2.63188E+2
  -1.78031E+3  -3.43868E+2
  -1.70600E+3  -3.96828E+2
  -1.75696E+3  -4.71113E+2
  -1.68537E+3  -5.31407E+2
  -1.69645E+3  -5.82840E+2
  -1.57181E+3  -6.57742E+2
  -1.53698E+3  -7.11741E+2
  -1.50192E+3  -7.62328E+2
  -1.40720E+3  -8.69905E+2
  -1.40098E+3  -8.70978E+2
  -1.34143E+3  -9.07631E+2
  -1.34013E+3  -9.68741E+2
  -1.33338E+3  -9.90006E+2
  -1.26116E+3  -1.08227E+3
  -1.22418E+3  -1.06627E+3
  -1.23657E+3  -1.10228E+3
  -1.20492E+3  -1.17537E+3
  -1.14402E+3  -1.23243E+3
  -1.08365E+3  -1.22470E+3
  -1.12393E+3  -1.23375E+3
  -1.06036E+3  -1.24255E+3
  -1.03930E+3  -1.34319E+3
  -9.62151E+2  -1.31005E+3
  -8.52238E+2  -1.40319E+3
  -8.57063E+2  -1.36647E+3
  -8.04303E+2  -1.35900E+3
  -8.30768E+2  -1.40893E+3
  -7.60276E+2  -1.47310E+3
  -7.49843E+2  -1.50978E+3
  -6.08531E+2  -1.49834E+3
  -6.09851E+2  -1.52404E+3
  -6.41408E+2  -1.61080E+3
  -5.50106E+2  -1.67062E+3
  -5.22808E+2  -1.62920E+3
  -4.45868E+2  -1.59331E+3
  -4.68502E+2  -1.63938E+3
  -4.26327E+2  -1.69611E+3
  -3.04818E+2  -1.70091E+3
  -3.27298E+2  -1.70106E+3
  -3.32064E+2  -1.68293E+3
  -2.10020E+2  -1.71205E+3
  -2.75599E+2  -1.74737E+3
  -2.49683E+2  -1.78563E+3
  -1.44669E+2  -1.73337E+3
  -8.31309E+1  -1.72889E+3
  -8.83246E+1  -1.68213E+3
   7.53255E+0  -1.72593E+3
   6.86909E+0  -1.75485E+3
   3.81570E+1  -1.74355E+3
   7.49508E+1  -1.77596E+3
   1.47295E+2  -1.75085E+3
   1.01075E+2  -1.73902E+3
   1.56985E+2  -1.73357E+3
   2.27848E+2  -1.75265E+3
   2.70970E+2  -1.68709E+3
   2.50432E+2  -1.77956E+3
   2.68470E+2  -1.69414E+3
   3.51990E+2  -1.78073E+3
   3.40126E+2  -1.71172E+3
   4.21019E+2  -1.69585E+3
   4.73839E+2  -1.65036E+3
   4.62203E+2  -1.63168E+3
   5.14946E+2  -1.60449E+3
   4.86003E+2  -1.62943E+3
   5.01165E+2  -1.56628E+3
   5.58514E+2  -1.53938E+3
   5.72242E+2  -1.59233E+3
   6.43503E+2  -1.56108E+3
   6.39354E+2  -1.53354E+3
   6.80458E+2  -1.49911E+3
   6.59777E+2  -1.47321E+3
   6.92641E+2  -1.45712E+3
   7.25184E+2  -1.42864E+3
   8.40121E+2  -1.42463E+3
   7.39256E+2  -1.39334E+3
   7.58575E+2  -1.42800E+3
   8.28504E+2  -1.36574E+3
   8.16851E+2  -1.29138E+3
   8.23200E+2  -1.31514E+3
   8.28308E+2  -1.29339E+3
   9.03481E+2  -1.27774E+3
   9.14883E+2  -1.16633E+3
   8.45069E+2  -1.24418E+3
   8.66118E+2  -1.19509E+3
   9.13684E+2  -1.06238E+3
   8.77665E+2  -1.16367E+3
