 LCModel (Version 6.3-1N) Copyright: S.W. Provencher.          Ref.: Magn. Reson. Med. 30:672-679 (1993).                
 Slice_N1@27_13  02-Jun-2023 14:38:05
 27 lines in following concentration table = NCONC+1
    Conc.  %SD /Cr+PCr  Metabolite                                         
    0.000 999%   0.000 Mac                                                 
    0.101  13%   8.000 Cr                                                  
    0.000 999%   0.000 PCr                                                 
 7.94E-02  24%   6.277 Ins                                                 
 3.68E-02  39%   2.909 NAA                                                 
 4.62E-02  39%   3.654 Tau                                                 
    0.000 999%   0.000 PCho                                                
 2.47E-02  19%   1.949 GPC                                                 
 3.25E-02  55%   2.571 Glu                                                 
 2.29E-02  53%   1.806 Gln                                                 
 2.15E-02  69%   1.695 Ala                                                 
    0.134  21%  10.591 Asc                                                 
 1.87E-02  50%   1.475 Asp                                                 
 2.11E-03 255%   0.167 GABA                                                
 7.20E-03  81%   0.569 Glc                                                 
 7.51E-03  77%   0.593 GSH                                                 
    0.000 999%   0.000 Lac                                                 
 5.91E-03 192%   0.467 NAAG                                                
    0.000 999%   0.000 PE                                                  
 2.47E-02  19%   1.949 GPC+PCho                                            
 4.27E-02  32%   3.376 NAA+NAAG                                            
 5.54E-02  39%   4.377 Glu+Gln                                             
    0.101  13%   8.000 Cr+PCr                                              
 4.27E-02  32%   3.376 NAA+NAAG                                            
    0.101  13%   8.000 Cr+PCr                                              
 5.54E-02  39%   4.377 Glu+Gln                                             
   6 lines in following misc. output table
  FWHM = 0.081 ppm    S/N =   1                                            
  Data shift = 0.099 ppm                                                   
  Ph:  40 deg      26.1 deg/ppm                                            
  alphaB,S = 3.1E+01,   4.7E+01                                            
   18 spline knots.   Ns = 7(2)                                            
   2 inflections.     1 extrema                                            
  654 points on ppm-axis = NY
      4.000000     3.994181     3.988363     3.982544     3.976726     3.970907     3.965088     3.959270     3.953451     3.947633
      3.941814     3.935995     3.930177     3.924358     3.918540     3.912721     3.906902     3.901084     3.895265     3.889446
      3.883628     3.877809     3.871991     3.866172     3.860353     3.854535     3.848716     3.842898     3.837079     3.831260
      3.825442     3.819623     3.813805     3.807986     3.802167     3.796349     3.790530     3.784712     3.778893     3.773074
      3.767256     3.761437     3.755619     3.749800     3.743981     3.738163     3.732344     3.726526     3.720707     3.714888
      3.709070     3.703251     3.697433     3.691614     3.685795     3.679977     3.674158     3.668339     3.662521     3.656702
      3.650884     3.645065     3.639246     3.633428     3.627609     3.621791     3.615972     3.610153     3.604335     3.598516
      3.592698     3.586879     3.581060     3.575242     3.569423     3.563605     3.557786     3.551967     3.546149     3.540330
      3.534512     3.528693     3.522874     3.517056     3.511237     3.505419     3.499600     3.493781     3.487963     3.482144
      3.476326     3.470507     3.464688     3.458870     3.453051     3.447232     3.441414     3.435595     3.429777     3.423958
      3.418139     3.412321     3.406502     3.400684     3.394865     3.389046     3.383228     3.377409     3.371591     3.365772
      3.359953     3.354135     3.348316     3.342498     3.336679     3.330860     3.325042     3.319223     3.313405     3.307586
      3.301767     3.295949     3.290130     3.284312     3.278493     3.272674     3.266856     3.261037     3.255219     3.249400
      3.243581     3.237763     3.231944     3.226125     3.220307     3.214488     3.208670     3.202851     3.197032     3.191214
      3.185395     3.179577     3.173758     3.167939     3.162121     3.156302     3.150484     3.144665     3.138846     3.133028
      3.127209     3.121391     3.115572     3.109753     3.103935     3.098116     3.092298     3.086479     3.080660     3.074842
      3.069023     3.063205     3.057386     3.051567     3.045749     3.039930     3.034111     3.028293     3.022474     3.016656
      3.010837     3.005018     2.999200     2.993381     2.987563     2.981744     2.975925     2.970107     2.964288     2.958470
      2.952651     2.946832     2.941014     2.935195     2.929377     2.923558     2.917739     2.911921     2.906102     2.900284
      2.894465     2.888646     2.882828     2.877009     2.871191     2.865372     2.859553     2.853735     2.847916     2.842098
      2.836279     2.830460     2.824642     2.818823     2.813004     2.807186     2.801367     2.795549     2.789730     2.783911
      2.778093     2.772274     2.766456     2.760637     2.754818     2.749000     2.743181     2.737363     2.731544     2.725725
      2.719907     2.714088     2.708270     2.702451     2.696632     2.690814     2.684995     2.679177     2.673358     2.667539
      2.661721     2.655902     2.650084     2.644265     2.638446     2.632628     2.626809     2.620991     2.615172     2.609353
      2.603535     2.597716     2.591897     2.586079     2.580260     2.574442     2.568623     2.562804     2.556986     2.551167
      2.545349     2.539530     2.533711     2.527893     2.522074     2.516256     2.510437     2.504618     2.498800     2.492981
      2.487163     2.481344     2.475525     2.469707     2.463888     2.458070     2.452251     2.446432     2.440614     2.434795
      2.428977     2.423158     2.417339     2.411521     2.405702     2.399884     2.394065     2.388246     2.382428     2.376609
      2.370790     2.364972     2.359153     2.353335     2.347516     2.341697     2.335879     2.330060     2.324242     2.318423
      2.312604     2.306786     2.300967     2.295149     2.289330     2.283511     2.277693     2.271874     2.266056     2.260237
      2.254418     2.248600     2.242781     2.236963     2.231144     2.225325     2.219507     2.213688     2.207870     2.202051
      2.196232     2.190414     2.184595     2.178777     2.172958     2.167139     2.161321     2.155502     2.149683     2.143865
      2.138046     2.132228     2.126409     2.120590     2.114772     2.108953     2.103135     2.097316     2.091497     2.085679
      2.079860     2.074042     2.068223     2.062404     2.056586     2.050767     2.044949     2.039130     2.033311     2.027493
      2.021674     2.015856     2.010037     2.004218     1.998400     1.992581     1.986763     1.980944     1.975126     1.969307
      1.963489     1.957670     1.951852     1.946033     1.940215     1.934397     1.928578     1.922760     1.916941     1.911123
      1.905304     1.899486     1.893667     1.887849     1.882030     1.876212     1.870393     1.864575     1.858756     1.852938
      1.847119     1.841301     1.835482     1.829664     1.823845     1.818027     1.812208     1.806390     1.800571     1.794753
      1.788934     1.783116     1.777297     1.771479     1.765660     1.759842     1.754023     1.748205     1.742386     1.736568
      1.730749     1.724931     1.719113     1.713294     1.707476     1.701657     1.695839     1.690020     1.684202     1.678383
      1.672565     1.666746     1.660928     1.655109     1.649291     1.643472     1.637654     1.631835     1.626017     1.620198
      1.614380     1.608561     1.602743     1.596924     1.591106     1.585287     1.579469     1.573650     1.567832     1.562013
      1.556195     1.550376     1.544558     1.538739     1.532921     1.527102     1.521284     1.515465     1.509647     1.503829
      1.498010     1.492192     1.486373     1.480555     1.474736     1.468918     1.463099     1.457281     1.451462     1.445644
      1.439825     1.434007     1.428188     1.422370     1.416551     1.410733     1.404914     1.399096     1.393277     1.387459
      1.381640     1.375822     1.370003     1.364185     1.358366     1.352548     1.346729     1.340911     1.335092     1.329274
      1.323455     1.317637     1.311818     1.306000     1.300182     1.294363     1.288545     1.282726     1.276908     1.271089
      1.265271     1.259452     1.253634     1.247815     1.241997     1.236178     1.230360     1.224541     1.218723     1.212904
      1.207086     1.201267     1.195449     1.189630     1.183812     1.177993     1.172175     1.166356     1.160538     1.154719
      1.148901     1.143082     1.137264     1.131445     1.125627     1.119808     1.113990     1.108171     1.102353     1.096534
      1.090716     1.084898     1.079079     1.073261     1.067442     1.061624     1.055805     1.049987     1.044168     1.038350
      1.032531     1.026713     1.020894     1.015076     1.009257     1.003439     0.997620     0.991802     0.985983     0.980165
      0.974346     0.968528     0.962709     0.956891     0.951072     0.945254     0.939435     0.933617     0.927798     0.921980
      0.916161     0.910343     0.904524     0.898706     0.892887     0.887069     0.881251     0.875432     0.869614     0.863795
      0.857977     0.852158     0.846340     0.840521     0.834703     0.828884     0.823066     0.817247     0.811429     0.805610
      0.799792     0.793973     0.788155     0.782336     0.776518     0.770699     0.764881     0.759062     0.753244     0.747425
      0.741607     0.735788     0.729970     0.724151     0.718333     0.712514     0.706696     0.700877     0.695059     0.689240
      0.683422     0.677603     0.671785     0.665967     0.660148     0.654330     0.648511     0.642693     0.636874     0.631056
      0.625237     0.619419     0.613600     0.607782     0.601963     0.596145     0.590326     0.584508     0.578689     0.572871
      0.567052     0.561234     0.555415     0.549597     0.543778     0.537960     0.532141     0.526323     0.520504     0.514686
      0.508867     0.503049     0.497230     0.491412     0.485593     0.479775     0.473956     0.468138     0.462319     0.456501
      0.450682     0.444864     0.439045     0.433227     0.427408     0.421590     0.415771     0.409953     0.404134     0.398316
      0.392497     0.386679     0.380860     0.375042     0.369223     0.363405     0.357586     0.351767     0.345949     0.340130
      0.334312     0.328493     0.322675     0.316856     0.311038     0.305219     0.299401     0.293582     0.287764     0.281945
      0.276127     0.270308     0.264490     0.258671     0.252853     0.247034     0.241216     0.235397     0.229579     0.223760
      0.217942     0.212123     0.206305     0.200486
 NY phased data points follow
  -4.42897E-01 -4.09869E-01 -2.46862E-01 -9.16842E-01 -2.07555E-01  1.90723E-01 -4.31756E-01  2.62425E-02  1.42320E-01 -4.65750E-01
   1.22031E-01  7.05584E-01  3.32929E-01  4.21063E-03  1.42953E-01  7.40274E-01  7.61429E-02  3.97746E-01  9.79540E-01  6.19086E-01
   1.27048E+00  9.28067E-01  5.20299E-01  1.12818E+00  1.15923E-01 -7.07803E-02  2.31399E-01 -3.57671E-01  1.74237E-02 -3.49472E-01
  -7.24502E-01 -4.70191E-01 -6.92857E-01 -8.38872E-01 -5.15358E-01 -9.11583E-01 -8.97750E-01 -5.62394E-01 -4.70444E-01 -1.63541E-01
  -6.08333E-01 -6.50764E-01 -8.80459E-02 -1.30851E-02 -9.37593E-02  3.75137E-01 -2.16100E-01 -3.49764E-01  2.05099E-01  1.77802E-01
   4.59712E-01  2.21208E-01 -8.88970E-03  4.68009E-01  2.89110E-01 -2.84079E-02  6.21713E-01  1.80546E-01  3.67672E-01  7.08430E-01
   8.74851E-02  2.31667E-01  1.47342E-01  4.75916E-01  2.78133E-01 -5.11734E-01  2.68558E-02  1.24103E-01  1.79484E-02  4.41386E-02
  -3.76178E-01 -1.64409E-02 -1.07732E-02 -9.02222E-02 -2.24555E-01  1.03778E-01 -4.82462E-02 -2.29004E-01  3.90624E-01  2.00420E-02
   3.91899E-01  2.75756E-01 -1.91922E-01 -2.26997E-01 -8.01418E-03  1.11230E-01 -2.12305E-02  1.26474E-01  4.43029E-02  2.56331E-01
   5.38380E-01  1.96456E-01 -1.56759E-01  5.24315E-01  4.14780E-01  2.49459E-01  2.41793E-01  1.08291E-02  5.52945E-01  5.83999E-02
  -6.40960E-01  5.78763E-01  5.69643E-01 -6.56817E-01 -2.25373E-01 -8.51488E-02  6.82850E-02  1.94807E-02 -4.05046E-02  2.44798E-01
   4.17519E-01  1.50051E-01  2.36610E-01  5.35407E-01  4.22788E-01  8.68358E-01  1.20100E-01  1.14834E-01  2.47915E-01  2.49567E-01
   2.53212E-01 -1.84461E-01  9.64701E-02  4.66637E-01  2.65501E-01 -5.99553E-01  2.13743E-01  3.35499E-01 -8.80687E-02  1.82027E-01
   9.70458E-02 -3.72306E-01 -5.45489E-01 -6.62855E-01 -7.85448E-01 -1.86876E-01 -7.68755E-01  6.68733E-02  3.85838E-01 -6.02390E-01
  -5.08897E-01 -7.70586E-01 -2.97693E-01 -3.26168E-01 -6.11134E-01 -3.08956E-01 -4.17813E-01 -3.05953E-03 -7.75374E-03 -3.34617E-02
   3.03767E-01  2.48340E-01  4.12305E-01 -2.62756E-01 -1.63373E-01  2.74383E-01  2.97275E-01  2.01016E-01 -2.91807E-01  2.03136E-01
   2.32462E-01  1.74251E-01  6.32732E-01  5.01174E-01  5.35649E-02  8.51356E-02  9.36554E-02  1.74114E-01  1.17172E-01  5.22263E-02
  -2.64030E-01 -6.87628E-01 -3.13563E-01 -1.73073E-01 -1.70317E-01 -5.46644E-01 -4.25268E-01 -5.11062E-01 -3.17928E-01 -4.76797E-01
  -7.73754E-01 -3.91394E-04 -2.90244E-01 -1.82381E-01 -3.83953E-02 -2.36788E-01 -7.34326E-01 -5.43855E-01 -1.18249E-02 -2.91749E-01
  -4.99166E-01 -4.01537E-01  8.30333E-03 -2.35482E-01 -1.35030E-01 -2.00070E-01 -3.28839E-01  1.06969E-01 -3.08822E-01 -7.09869E-01
   5.97799E-02  5.80687E-03 -5.56251E-02  1.23014E-01 -3.91927E-01  3.79382E-01  1.27543E-01 -2.85631E-01  3.10636E-01 -1.66029E-01
  -2.16822E-01  1.02979E-01 -1.05826E-01  2.40981E-02  1.07047E-01 -1.19656E-01 -3.25691E-01 -1.68986E-01 -3.56744E-02 -1.91634E-01
   1.97471E-01  1.73212E-01  3.85932E-01  1.54448E-01 -1.99415E-01  3.73093E-01  3.87970E-01  4.46224E-01  2.19788E-01  1.28413E-01
   6.69720E-02  1.43503E-01  4.76960E-01 -4.37257E-02 -3.61516E-01  5.65220E-02  1.68941E-01  5.97689E-02 -3.09397E-01 -3.16992E-01
   7.01964E-02 -1.96858E-01  4.07273E-02 -2.71045E-01 -3.80203E-01 -1.57032E-01 -1.48290E-01 -1.85001E-01 -1.41795E-01  4.11605E-01
  -1.55339E-01 -1.69833E-01 -3.07343E-01 -2.12875E-03  2.93918E-01 -1.77410E-01  1.49812E-01  2.97493E-02 -8.03028E-02  2.70961E-02
   3.43466E-01  6.97666E-02 -5.79214E-02 -7.95764E-02 -4.36117E-01 -2.43070E-01  3.30427E-01  5.18130E-01  2.25457E-01  6.29300E-02
   3.13823E-01  4.81645E-01 -2.60478E-01 -2.95486E-02  3.37421E-02 -2.04679E-01  1.46464E-01  1.72136E-01  2.45437E-01  1.64429E-01
   1.84727E-02 -1.24358E-01  2.94154E-01  8.15113E-02 -3.55645E-02  5.50387E-01 -1.29370E-03 -2.46169E-02  1.69271E-02  2.38996E-02
   4.79412E-01 -1.62473E-01  1.27098E-01  3.90859E-01  6.54956E-02  7.25714E-02  2.52665E-01  1.24574E-01 -3.64211E-02  3.34673E-01
  -3.29940E-01  3.43285E-01  5.37624E-01  6.90337E-02  3.41448E-02 -2.10296E-01  5.52635E-01  1.87186E-01 -1.47270E-01  4.69299E-01
   4.01725E-01 -9.92010E-02  2.06142E-01 -1.26401E-01  1.11621E-01  4.71607E-01 -2.16801E-01 -4.39563E-02 -1.14056E-01  1.51208E-01
  -1.76545E-01 -2.93080E-01  5.97925E-01  2.46459E-01 -2.21640E-01 -3.27297E-01 -5.90374E-01 -2.58377E-01  9.60632E-02 -2.52502E-01
  -3.40690E-01  1.52139E-01 -5.59301E-02 -5.78089E-01 -5.31448E-01  4.77808E-02  1.77747E-01 -6.46313E-01 -2.82503E-01  1.71399E-01
  -1.32273E-01 -1.47506E-01 -3.68049E-01 -2.78562E-01 -1.51748E-01 -5.10261E-01 -2.97428E-01 -1.09258E-01 -3.10009E-01 -4.07852E-01
  -3.33359E-02  3.28650E-01  8.07810E-02  1.98928E-01  3.64799E-02  2.74938E-01 -1.18969E-01 -4.41847E-02  5.51893E-01 -2.13423E-02
   1.71686E-01  3.66233E-02 -5.40400E-02 -2.47935E-01  3.37284E-02  3.01721E-01 -2.57260E-01 -1.66283E-01 -2.40067E-01  1.78387E-01
   6.18889E-01  2.24946E-01  1.31961E-01 -2.34425E-02  1.30898E-01  1.49485E-01 -1.87587E-01  3.28394E-02  3.62706E-01  5.93208E-01
  -1.98185E-01 -6.65739E-02 -2.52306E-02 -1.21193E-01  5.79630E-01  1.25756E-01 -6.89545E-02 -1.81307E-01 -2.93412E-01 -5.73782E-01
  -2.53192E-01 -4.97241E-02 -2.12774E-01  9.46177E-02 -7.26325E-03  3.71851E-02 -2.21810E-01 -1.88664E-01  3.31406E-01  1.67873E-01
  -1.32748E-01 -1.22098E-01 -1.39955E-01  7.93742E-02 -5.14409E-02  1.67719E-01 -5.97354E-03 -6.40724E-01 -3.19443E-01 -5.96295E-01
  -6.92396E-01 -3.35005E-01  9.53946E-02  2.03847E-01 -6.23866E-02  1.09299E-01  9.87662E-02  2.85830E-01  1.51442E-01  1.68572E-01
   1.03591E-01 -8.67558E-02  2.60229E-02 -2.43231E-01  2.69023E-02 -4.07081E-01  8.61870E-02  2.17940E-01 -2.18001E-01  3.70860E-01
  -5.59833E-01  8.20550E-02  4.05916E-01 -5.54675E-01  8.87116E-02  1.95601E-01 -9.44264E-04  4.18796E-01  2.54403E-01 -2.17416E-01
   1.00215E-01  6.10998E-01  3.92265E-01  1.38791E-01  1.02149E-01  1.47796E-01 -7.44835E-02 -3.57514E-01 -1.68569E-01 -9.59117E-02
   2.36214E-01 -9.78809E-02  2.91082E-01  4.46486E-01  5.58377E-02  1.86675E-01  5.17975E-02 -2.82316E-02 -3.11255E-01  2.75429E-01
   8.35767E-02  1.72263E-01  7.51182E-02 -2.50353E-01 -2.38122E-01 -2.61742E-01 -1.61143E-01 -4.53194E-02  3.49330E-01  1.46359E-01
   7.58757E-02 -3.57724E-01  3.60347E-01 -1.50230E-02 -1.04145E-01  1.60639E-01 -1.93172E-01  2.05707E-01  1.15838E-01  3.96300E-01
  -8.74849E-02  9.19589E-02  1.35573E-01  2.40536E-01  1.15393E-02 -1.20316E-01  1.14737E-01  8.13269E-02  1.59534E-01 -4.63763E-01
  -2.08962E-01 -2.53184E-01 -2.12069E-01  1.32935E-01 -8.41041E-03 -4.58942E-02 -1.13987E-01 -8.06391E-02  1.98771E-01 -2.42644E-01
   2.09521E-01  6.07316E-02 -6.12908E-01  1.07102E-02 -1.73948E-02  2.70734E-01 -2.46151E-01 -7.34012E-02  6.07040E-02 -1.95951E-02
   6.32630E-01  7.39351E-02  1.13996E-01  5.54113E-02 -1.61084E-01 -9.65593E-02 -1.89278E-01 -8.78358E-02 -1.89239E-02  3.02298E-01
  -1.45013E-01 -2.81363E-01 -1.07933E-01 -4.74679E-01  3.01362E-02 -2.25153E-01 -4.87941E-02  4.03828E-01 -9.24443E-02  1.52130E-01
   5.66734E-02 -2.50775E-01 -9.82911E-02 -6.45480E-01 -7.14716E-02  3.67399E-01 -1.08772E-01  6.61771E-01 -1.22316E-01 -2.38071E-01
   1.73669E-01  2.43377E-02 -5.88029E-02 -2.17869E-01  9.41697E-02 -7.11412E-02  1.50472E-01 -2.41542E-01  2.31569E-01  1.66263E-01
  -2.95355E-01  4.44934E-01  4.77693E-01  2.73099E-01  4.00021E-01  5.34605E-01 -2.59387E-02  1.21442E-01  3.96894E-01 -3.25176E-01
   9.83394E-03  3.76555E-01 -7.44517E-03  1.54381E-01 -2.80547E-01  1.81504E-01  5.98630E-01  1.69368E-01  2.33314E-01 -1.93494E-03
   2.75916E-01  4.27826E-01 -1.92992E-01 -1.56725E-01 -2.01036E-02 -2.10608E-01 -1.91826E-02 -2.68785E-01 -3.22797E-02  1.00220E-01
  -8.17623E-02 -2.79286E-01 -6.62023E-02  1.12000E-01  2.06208E-01  3.28783E-01 -2.18846E-01  8.02894E-02 -1.59580E-01 -1.36982E-01
  -4.47503E-02 -2.00254E-01  9.91502E-02  2.15815E-01 -1.69744E-01 -2.31377E-01 -1.40161E-01 -1.37033E-01  9.68631E-02 -1.10521E-01
  -2.17911E-01 -5.59055E-01 -9.27993E-02 -3.02398E-01 -4.13529E-01 -4.15424E-01 -1.42309E-01 -3.50017E-02 -2.46579E-01 -3.31680E-02
  -5.61159E-01  3.31606E-01  3.22302E-02 -2.27337E-01 -8.92456E-02 -1.69079E-01 -2.47798E-02 -2.89915E-01 -3.97871E-02  1.28358E-01
  -3.52041E-01 -2.39154E-01  4.75504E-01 -2.31015E-01 -1.28016E-02 -1.97950E-01 -1.36489E-01  1.81036E-01  7.20944E-02  2.99201E-01
   3.61439E-01  6.63715E-01 -3.02985E-01  2.13432E-01  6.10616E-01 -1.27394E-01  9.57830E-02 -6.33592E-02  5.12289E-01  3.13010E-01
  -3.31773E-01  5.04425E-01 -6.06229E-02 -1.80428E-01 -8.95832E-02 -2.91414E-01  6.80666E-02 -3.41131E-01 -1.28316E-01 -1.30899E-01
   2.14091E-02  9.58107E-02  3.35346E-01  9.39538E-02
 NY points of the fit to the data follow
   5.30035E-02  7.91062E-02 -1.44214E-04  2.43422E-02 -2.88319E-02  3.79510E-02 -3.63154E-02  6.16841E-02 -3.79001E-02  9.99652E-02
  -2.01490E-02  1.81315E-01  1.91458E-02  2.59196E-01  7.38431E-02  3.42164E-01  1.34710E-01  4.19333E-01  1.85478E-01  4.70285E-01
   2.09658E-01  4.46667E-01  1.91880E-01  3.38420E-01  1.25865E-01  1.55955E-01  2.35616E-02 -3.58459E-02 -8.74933E-02 -1.74626E-01
  -1.83905E-01 -2.37846E-01 -2.67547E-01 -3.07415E-01 -3.27417E-01 -3.57900E-01 -3.55698E-01 -3.58604E-01 -3.50627E-01 -3.19170E-01
  -2.99135E-01 -2.41127E-01 -2.09301E-01 -1.21073E-01 -1.00996E-01  5.47192E-03  1.32253E-02  1.18504E-01  1.25692E-01  2.27585E-01
   2.18807E-01  3.09150E-01  2.77782E-01  3.21913E-01  2.82667E-01  2.82932E-01  2.22362E-01  2.02831E-01  1.36559E-01  9.77354E-02
   6.19788E-02  3.07059E-02  1.83305E-02  2.92977E-02  2.30835E-02  5.91210E-02  7.19128E-02  1.05652E-01  1.08590E-01  1.43215E-01
   1.21456E-01  1.56092E-01  1.31286E-01  1.55117E-01  1.38739E-01  1.50108E-01  1.44968E-01  1.19731E-01  1.36673E-01  8.14018E-02
   1.06321E-01  5.59896E-02  7.50281E-02  5.58550E-02  7.37558E-02  7.93884E-02  1.07931E-01  1.26487E-01  1.58639E-01  1.74616E-01
   2.14886E-01  2.08086E-01  2.49072E-01  2.03689E-01  2.49090E-01  1.54250E-01  2.21955E-01  9.00409E-02  1.97869E-01  4.34675E-02
   1.80439E-01  2.24419E-02  1.82276E-01  2.63339E-02  2.00483E-01  6.40726E-02  2.32365E-01  1.33726E-01  2.69696E-01  2.20958E-01
   3.02138E-01  2.91168E-01  3.29359E-01  3.24984E-01  3.41331E-01  3.36460E-01  3.36348E-01  3.26771E-01  3.12986E-01  2.89622E-01
   2.63125E-01  2.65801E-01  2.40437E-01  2.31104E-01  1.98471E-01  1.43886E-01  9.00378E-02  3.13111E-02 -3.59746E-02 -9.39663E-02
  -1.81113E-01 -2.36024E-01 -3.37191E-01 -3.50699E-01 -4.33864E-01 -4.19245E-01 -4.74424E-01 -4.49670E-01 -4.86771E-01 -4.53814E-01
  -4.87555E-01 -4.18595E-01 -4.49048E-01 -3.43153E-01 -3.52970E-01 -2.25499E-01 -2.01467E-01 -8.83502E-02 -4.52049E-02  2.45783E-02
   6.28042E-02  7.95325E-02  8.89264E-02  1.50634E-01  1.94258E-01  2.63401E-01  3.35964E-01  3.55378E-01  4.15899E-01  4.03431E-01
   4.61857E-01  4.08256E-01  4.56016E-01  3.45479E-01  3.57380E-01  2.38955E-01  2.41874E-01  1.19868E-01  1.15382E-01 -1.85530E-02
  -4.22267E-02 -1.88466E-01 -2.46130E-01 -3.62174E-01 -4.33992E-01 -4.87498E-01 -5.47822E-01 -5.17195E-01 -5.31474E-01 -4.53422E-01
  -4.23609E-01 -3.51390E-01 -3.03161E-01 -2.81484E-01 -2.55737E-01 -2.46234E-01 -2.23176E-01 -2.22205E-01 -2.00957E-01 -2.04073E-01
  -1.83405E-01 -1.87199E-01 -1.68387E-01 -1.71333E-01 -1.56287E-01 -1.54308E-01 -1.41979E-01 -1.34677E-01 -1.24856E-01 -1.16841E-01
  -1.09871E-01 -1.01955E-01 -9.67827E-02 -8.98327E-02 -8.65192E-02 -8.23051E-02 -8.06403E-02 -7.84124E-02 -7.88077E-02 -7.82537E-02
  -8.05921E-02 -8.40873E-02 -8.65386E-02 -9.11888E-02 -9.16364E-02 -9.27694E-02 -9.50969E-02 -9.10608E-02 -9.19663E-02 -7.93141E-02
  -7.71379E-02 -5.51867E-02 -5.43126E-02 -2.85928E-02 -3.00647E-02 -4.64820E-03 -7.48472E-03  1.67180E-02  8.90291E-03  3.05749E-02
   1.84661E-02  3.36673E-02  1.99013E-02  2.58961E-02  1.20314E-02  7.42118E-03 -7.72425E-03 -1.88310E-02 -3.46344E-02 -4.68236E-02
  -6.25206E-02 -7.12886E-02 -8.42081E-02 -9.39207E-02 -9.91405E-02 -1.07195E-01 -1.07670E-01 -1.10472E-01 -1.12928E-01 -1.10361E-01
  -1.13474E-01 -1.07070E-01 -1.08558E-01 -1.02211E-01 -9.95138E-02 -9.60703E-02 -9.01108E-02 -8.36962E-02 -8.04915E-02 -6.38898E-02
  -6.76674E-02 -3.71797E-02 -5.04677E-02 -9.06816E-03 -2.84363E-02  1.67187E-02 -6.14109E-03  3.63020E-02  1.03121E-02  5.00491E-02
   1.58696E-02  5.49864E-02  7.92567E-03  4.81200E-02 -7.17737E-03  2.63099E-02 -2.06929E-02 -2.48782E-03 -3.36648E-02 -3.10057E-02
  -4.47644E-02 -4.91946E-02 -4.92660E-02 -5.24016E-02 -4.52987E-02 -4.21842E-02 -3.26847E-02 -2.24294E-02 -9.91560E-03  5.70127E-03
   2.25348E-02  3.89022E-02  5.72416E-02  6.90556E-02  8.19396E-02  8.69417E-02  8.78421E-02  8.82125E-02  7.69472E-02  7.57120E-02
   6.01220E-02  5.86812E-02  4.57103E-02  4.37311E-02  3.41130E-02  3.10836E-02  2.16841E-02  1.75840E-02  5.45759E-03 -1.64569E-04
  -1.56176E-02 -2.51884E-02 -4.19219E-02 -5.66783E-02 -7.29923E-02 -9.01305E-02 -1.04263E-01 -1.18645E-01 -1.29077E-01 -1.37256E-01
  -1.43217E-01 -1.46331E-01 -1.44921E-01 -1.44875E-01 -1.38810E-01 -1.38480E-01 -1.29387E-01 -1.26596E-01 -9.80759E-02 -9.09403E-02
  -7.14087E-02 -6.53161E-02 -7.58520E-02 -7.37406E-02 -9.78557E-02 -9.93407E-02 -1.40283E-01 -1.45342E-01 -2.02648E-01 -2.03818E-01
  -2.53736E-01 -2.43448E-01 -2.87395E-01 -2.63217E-01 -3.05384E-01 -2.69340E-01 -3.06791E-01 -2.62465E-01 -2.78953E-01 -2.32183E-01
  -2.22368E-01 -1.79629E-01 -1.45113E-01 -1.12653E-01 -7.32580E-02 -5.31919E-02 -3.00581E-02 -2.15624E-02 -2.22711E-02 -1.93703E-02
  -2.06694E-02 -1.88026E-02 -2.13897E-02 -2.00513E-02 -2.33560E-02 -2.22794E-02 -2.56495E-02 -2.47002E-02 -2.73169E-02 -2.62882E-02
  -2.75247E-02 -2.61172E-02 -2.58911E-02 -2.39495E-02 -2.28000E-02 -2.05070E-02 -1.91543E-02 -1.69916E-02 -1.58133E-02 -1.41881E-02
  -1.32474E-02 -1.22116E-02 -1.15013E-02 -1.08559E-02 -1.03174E-02 -9.87548E-03 -9.48295E-03 -9.13202E-03 -8.81454E-03 -8.52535E-03
  -8.25943E-03 -8.01366E-03 -7.78443E-03 -7.57035E-03 -7.36772E-03 -7.17609E-03 -6.99248E-03 -6.81561E-03 -6.64443E-03 -6.47780E-03
  -6.31493E-03 -6.15527E-03 -5.99764E-03 -5.84084E-03 -5.68368E-03 -5.52526E-03 -5.36436E-03 -5.19951E-03 -5.02955E-03 -4.85285E-03
  -4.66878E-03 -4.47616E-03 -4.27613E-03 -4.06594E-03 -3.84977E-03 -3.62651E-03 -3.40864E-03 -3.21399E-03 -3.11292E-03 -3.35715E-03
  -5.55936E-03 -8.10728E-03 -7.23176E-03 -1.19830E-02 -6.35490E-04 -3.37545E-07  1.33738E-02  2.47566E-02  3.12400E-02  5.41651E-02
   5.13836E-02  8.73095E-02  6.84978E-02  1.15222E-01  7.96679E-02  1.32150E-01  8.63982E-02  1.42970E-01  8.89928E-02  1.47472E-01
   8.34529E-02  1.38118E-01  6.68373E-02  1.09381E-01  4.11551E-02  6.62749E-02  1.45066E-02  2.29618E-02 -3.94237E-03 -4.61870E-03
  -1.04716E-02 -1.21226E-02 -1.08464E-02 -1.05795E-02 -1.03886E-02 -1.02024E-02 -1.00167E-02 -9.83597E-03 -9.65920E-03 -9.48962E-03
  -9.32604E-03 -9.16890E-03 -9.01715E-03 -8.87078E-03 -8.72854E-03 -8.59086E-03 -8.45725E-03 -8.32755E-03 -8.20106E-03 -8.07752E-03
  -7.95709E-03 -7.83805E-03 -7.72193E-03 -7.60606E-03 -7.49218E-03 -7.37768E-03 -7.26546E-03 -7.15153E-03 -7.04053E-03 -6.92682E-03
  -6.81651E-03 -6.70309E-03 -6.59307E-03 -6.47946E-03 -6.36851E-03 -6.25458E-03 -6.14282E-03 -6.02864E-03 -5.91581E-03 -5.80144E-03
  -5.68762E-03 -5.57260E-03 -5.45804E-03 -5.34322E-03 -5.22736E-03 -5.11189E-03 -4.99377E-03 -4.87626E-03 -4.75525E-03 -4.63507E-03
  -4.51158E-03 -4.38920E-03 -4.26443E-03 -4.13941E-03 -4.01180E-03 -3.88420E-03 -3.75311E-03 -3.62212E-03 -3.48814E-03 -3.35330E-03
  -3.21586E-03 -3.07686E-03 -2.93585E-03 -2.79225E-03 -2.64751E-03 -2.49939E-03 -2.34974E-03 -2.19706E-03 -2.04260E-03 -1.88484E-03
  -1.72621E-03 -1.56423E-03 -1.40154E-03 -1.23463E-03 -1.06779E-03 -8.96400E-04 -7.25399E-04 -5.49775E-04 -3.73671E-04 -1.92732E-04
  -1.04245E-05  1.76067E-04  3.64585E-04  5.56126E-04  7.50880E-04  9.49413E-04  1.15074E-03  1.35620E-03  1.56427E-03  1.77668E-03
   1.99197E-03  2.21147E-03  2.43445E-03  2.66152E-03  2.89254E-03  3.12708E-03  3.36586E-03  3.60844E-03  3.85525E-03  4.10675E-03
   4.36234E-03  4.62338E-03  4.88883E-03  5.15942E-03  5.43509E-03  5.71596E-03  6.00164E-03  6.29244E-03  6.58791E-03  6.88870E-03
   7.19469E-03  7.50660E-03  7.82390E-03  8.14752E-03  8.47684E-03  8.81265E-03  9.15545E-03  9.50518E-03  9.86207E-03  1.02264E-02
   1.05981E-02  1.09772E-02  1.13645E-02  1.17591E-02  1.21629E-02  1.25740E-02  1.29948E-02  1.34226E-02  1.38606E-02  1.43065E-02
   1.47630E-02  1.52288E-02  1.57050E-02  1.61916E-02  1.66882E-02  1.71965E-02  1.77150E-02  1.82464E-02  1.87893E-02  1.93459E-02
   1.99147E-02  2.04983E-02  2.10946E-02  2.17073E-02  2.23326E-02  2.29754E-02  2.36310E-02  2.43041E-02  2.49910E-02  2.56961E-02
   2.64176E-02  2.71581E-02  2.79168E-02  2.86952E-02  2.94934E-02  3.03133E-02  3.11545E-02  3.20191E-02  3.29066E-02  3.38195E-02
   3.47568E-02  3.57218E-02  3.67135E-02  3.77357E-02  3.87869E-02  3.98709E-02  4.09861E-02  4.21381E-02  4.33235E-02  4.45492E-02
   4.58114E-02  4.71180E-02  4.84647E-02  4.98603E-02  5.13001E-02  5.27931E-02  5.43357E-02  5.59354E-02  5.75902E-02  5.93078E-02
   6.10871E-02  6.29368E-02  6.48558E-02  6.68533E-02  6.89287E-02  7.10916E-02  7.33425E-02  7.56911E-02  7.81406E-02  8.06980E-02
   8.33709E-02  8.61661E-02  8.90927E-02  9.21607E-02  9.53788E-02  9.87594E-02  1.02314E-01  1.06055E-01  1.09998E-01  1.14160E-01
   1.18559E-01  1.23214E-01  1.28149E-01  1.33387E-01
 NY background values follow
    -6.579E-02   -6.583E-02   -6.588E-02   -6.592E-02   -6.596E-02   -6.601E-02   -6.605E-02   -6.609E-02   -6.614E-02   -6.618E-02
    -6.623E-02   -6.627E-02   -6.631E-02   -6.636E-02   -6.640E-02   -6.644E-02   -6.649E-02   -6.653E-02   -6.658E-02   -6.662E-02
    -6.666E-02   -6.671E-02   -6.675E-02   -6.679E-02   -6.684E-02   -6.688E-02   -6.692E-02   -6.697E-02   -6.701E-02   -6.706E-02
    -6.710E-02   -6.714E-02   -6.719E-02   -6.723E-02   -6.727E-02   -6.732E-02   -6.736E-02   -6.741E-02   -6.745E-02   -6.749E-02
    -6.754E-02   -6.758E-02   -6.762E-02   -6.767E-02   -6.771E-02   -6.775E-02   -6.780E-02   -6.784E-02   -6.789E-02   -6.793E-02
    -6.797E-02   -6.802E-02   -6.806E-02   -6.810E-02   -6.815E-02   -6.819E-02   -6.824E-02   -6.828E-02   -6.832E-02   -6.837E-02
    -6.841E-02   -6.845E-02   -6.850E-02   -6.854E-02   -6.859E-02   -6.863E-02   -6.867E-02   -6.872E-02   -6.876E-02   -6.880E-02
