 
 $NMID
 ID=''
 FMTDAT='(2E13.5)'
 TRAMP=   1.00000E+0
 VOLUME=   1.00000E+0
 $END
   2.63689E+2   8.14028E+1
  -8.10281E+2   2.62754E+3
   5.35028E+3  -2.28360E+3
   3.26364E+3  -1.01792E+3
   1.35734E+3  -1.10265E+3
   2.79407E+3  -2.51838E+3
   5.03756E+2  -2.04721E+3
  -3.08526E+3  -3.39498E+3
  -5.98609E+2  -6.41157E+3
   3.09495E+2  -3.36002E+3
   2.63551E+3  -3.32047E+3
   2.79481E+3   1.76465E+3
  -3.55022E+3   7.54205E+2
  -4.74240E+3   2.07200E+2
  -1.84474E+3   1.64522E+1
  -3.08246E+2  -3.75197E+2
   1.84750E+3   7.83044E+2
   2.36530E+3   2.01404E+3
   3.06371E+3   2.46023E+3
   3.09009E+3   1.11918E+2
   6.36096E+3   1.25608E+2
   5.68275E+3   1.89422E+3
  -3.22143E+3   1.70495E+3
   3.11364E+2  -5.56464E+3
   3.29499E+3  -5.23685E+3
  -1.67088E+2   1.99441E+3
  -2.68094E+3  -6.10835E+1
  -2.89730E+3  -4.64403E+3
   3.98362E+3  -4.75071E+3
   4.14358E+3   1.18592E+3
  -7.37402E+2   4.88301E+3
  -4.38878E+3   3.33686E+3
  -6.93423E+3  -2.46817E+3
  -1.94163E+3  -8.99519E+2
  -3.39012E+3   1.97003E+2
  -1.87422E+3  -4.12227E+3
   3.82232E+3  -1.30548E+3
   2.25861E+3   4.93761E+3
  -7.99628E+2   3.76026E+3
  -1.30791E+3   2.22576E+3
  -4.50815E+3   2.19003E+3
  -4.79179E+3  -4.89935E+3
   3.12773E+3  -5.25027E+3
   4.55873E+3  -3.52719E+3
   3.51918E+3   8.84218E+2
   2.93973E+3  -1.20681E+3
   3.22108E+3   2.85956E+3
  -9.10909E+1   4.84122E+3
  -1.17261E+3   1.67331E+3
   2.20029E+2  -4.30715E+2
  -2.16790E+3  -1.51517E+3
   4.55937E+2  -3.14810E+3
   4.51159E+3   3.25550E+3
   1.87380E+3   6.13548E+3
  -2.65605E+3   3.58465E+3
  -8.37051E+2   2.65024E+3
  -3.83525E+3   1.03062E+3
  -3.07247E+3  -3.17387E+3
   5.39094E+2  -3.07019E+3
   4.80615E+3  -2.11076E+3
   5.11212E+3   2.12347E+3
   3.90354E+3   4.11903E+3
   4.97526E+2   5.33543E+3
  -1.78865E+3   2.58289E+3
   2.67534E+3   3.07632E+2
   2.60779E+3   5.54621E+3
  -2.85523E+2   5.48401E+3
  -3.51159E+3   3.75639E+3
  -1.51458E+3  -5.20814E+1
  -1.23724E+3   1.79790E+3
  -7.44152E+2   3.04219E+3
  -4.21487E+3   8.85362E+2
  -1.32914E+3   1.49919E+3
   4.91553E+2  -5.70427E+2
  -1.51566E+2   1.04851E+3
   1.51129E+2   2.40139E+3
  -1.62790E+3  -1.57690E+3
   1.38174E+3  -1.88193E+3
  -6.11419E+2   6.07096E+2
  -1.27623E+3   9.42959E+2
  -4.65451E+3   1.15826E+2
  -2.90635E+3  -1.83661E+2
   1.21493E+3   5.56834E+1
  -1.39200E+3   1.82202E+3
  -3.18234E+3  -6.52807E+2
  -1.88820E+3  -4.14639E+3
   1.35476E+3  -5.45988E+3
   3.37286E+3  -2.09931E+2
   3.68878E+3   2.80198E+1
   8.12238E+2   1.71555E+2
  -2.59636E+3   2.53908E+3
   1.53945E+3  -3.11150E+1
   1.38310E+3   2.41010E+3
  -4.18186E+3   3.73651E+1
  -2.93778E+3  -4.10216E+3
   1.51663E+3  -5.18038E+3
   3.25264E+3  -2.62750E+2
  -7.61144E+2   6.54802E+2
  -1.24038E+3   6.69594E+2
  -1.35941E+3  -3.96530E+3
   2.99645E+3  -3.34931E+3
   1.41914E+3  -8.33336E+2
   2.45228E+2   3.13101E+3
  -2.31863E+3   3.10960E+3
  -9.50831E+2  -1.95142E+3
   6.04804E+1  -1.16000E+3
  -1.52309E+3   6.36529E+2
  -6.78776E+2  -1.90039E+3
   1.04038E+3  -5.79729E+3
   4.15392E+3  -5.25871E+3
   5.09967E+3  -1.01676E+3
   9.43136E+2   2.52464E+3
   8.65222E+2   9.50376E+2
  -2.40786E+3  -3.93924E+2
  -1.78838E+3   1.19253E+3
  -3.36647E+3  -1.45592E+3
   1.28816E+1  -3.77404E+3
   1.27696E+3  -8.20690E+1
   1.62817E+3  -1.91413E+3
   1.97121E+3   1.28214E+3
  -2.18050E+3   1.71716E+3
  -2.28065E+3  -1.90152E+3
  -5.67332E+2  -2.62189E+3
   4.06343E+3  -7.66859E+2
   8.53536E+2  -4.46441E+2
   1.27244E+1  -4.53454E+2
  -1.73874E+3  -2.07370E+3
  -9.08701E+1  -5.18454E+2
  -8.65748E+2  -4.90792E+2
  -9.92077E+2   7.86702E+2
  -2.91933E+3  -3.04035E+3
  -1.21109E+3  -4.51586E+2
   1.77817E+3   1.08250E+3
  -1.63071E+3   9.14712E+2
  -4.61413E+3   8.49300E+2
  -3.52010E+3  -3.23404E+3
  -4.11294E+2  -2.57473E+3
   2.15117E+3  -3.02018E+3
  -4.10820E+2  -2.32855E+3
  -2.05133E+3   3.86238E+2
  -8.99355E+2  -4.10040E+2
   4.09612E+3   1.38152E+3
   9.88079E+2   1.82823E+3
  -2.35878E+3   1.80646E+3
  -1.63871E+2  -1.33053E+3
   2.37019E+3   1.20240E+3
  -3.42446E+2   1.41558E+3
   1.70568E+2   1.40872E+3
  -3.70958E+2  -4.55037E+2
  -4.75499E+1  -1.45903E+3
  -3.69613E+2  -1.59992E+3
  -4.01977E+2  -3.26886E+3
  -6.01698E+2  -1.46194E+3
   6.13750E+2  -1.29438E+3
   2.72430E+3  -8.01087E+2
  -1.37110E+3   4.77408E+2
  -2.15418E+3   2.39418E+3
  -4.48643E+1   1.00433E+3
  -1.16850E+3   2.84256E+2
  -1.94982E+2   1.00064E+3
   8.89853E+2   1.31732E+2
  -1.01843E+3   7.90339E+2
   1.45182E+3   7.18343E+2
  -1.57794E+2  -1.28592E+2
  -2.07268E+3   1.23478E+3
  -1.91858E+3  -2.33469E+3
   1.33507E+3  -8.85752E+2
   3.85620E+3   7.80704E+2
   1.13596E+3   2.91333E+3
  -8.99027E+2   2.57760E+3
  -2.44392E+3   3.14033E+2
   1.13674E+3  -1.17163E+3
   1.07176E+3  -2.18633E+3
  -4.89206E+2   8.60253E+2
   1.66124E+3   3.06898E+2
   7.13995E+2   4.49839E+2
   1.86406E+3   5.90172E+2
  -2.50935E+2   3.21906E+3
  -8.23302E+2   1.46035E+3
  -2.40090E+3  -2.41487E+3
  -7.46693E+2  -1.74889E+3
   1.31443E+3   1.99137E+3
  -2.46085E+0   8.09498E+2
  -2.99959E+2  -3.45907E+2
   9.16663E+2  -4.07696E+2
  -3.11723E+2   3.71796E+3
  -2.11012E+3   2.30703E+3
  -6.55440E+2   4.73377E+2
  -3.27762E+2  -2.11048E+3
   2.15159E+3  -3.71017E+1
   6.85815E+2   1.74058E+3
   7.38688E+2   1.55919E+3
  -2.35066E+3  -1.25341E+3
  -2.18083E+3  -1.20292E+3
   1.52471E+3  -6.13833E+2
   1.68823E+3   1.78055E+3
   6.10602E+2  -6.88937E+1
   9.75423E+2  -1.39811E+3
   2.61608E+3  -5.30167E+2
   2.94372E+2   1.76138E+3
  -3.67294E+3   2.00701E+3
  -2.03624E+3  -2.38572E+3
   9.94471E+2   8.94255E+2
   1.70875E+3  -6.89807E+1
   7.47458E+2   2.73314E+3
   4.95020E+1   3.49993E+1
   2.03683E+2  -1.10513E+3
   9.17385E+2   5.23469E+2
   6.45024E+2   1.39573E+3
  -6.48709E+2   1.65420E+3
  -1.30082E+3   4.52634E+1
   7.30645E+2  -1.60962E+3
   2.16975E+3   8.16715E+2
   2.83625E+3   1.60249E+3
  -1.63756E+3   9.94012E+2
  -2.13130E+3   8.42630E+2
   6.64969E+2  -1.65150E+3
   1.06278E+3  -3.18029E+2
  -5.73783E+2  -1.25786E+2
  -1.55165E+2  -4.04991E+2
  -1.27432E+3  -1.29944E+3
   1.20350E+3   2.20531E+2
  -6.11642E+2   1.34892E+3
   4.80808E+2   5.31270E+2
   1.47248E+3  -2.87212E+3
   1.74042E+3  -8.40945E+2
   7.74370E+2   1.37773E+3
  -1.20847E+1  -1.70170E+2
  -2.55001E+2   4.04236E+1
   1.08550E+3  -2.10981E+3
   1.16093E+3   2.13220E+2
  -4.69817E+2  -7.94120E+2
  -1.00329E+3  -4.03753E+2
   6.01897E+2  -6.24956E+2
   1.97955E+2   1.64769E+2
   1.11375E+3   3.95766E+3
  -7.65685E+2   4.00142E+2
  -2.09137E+3  -3.24107E+3
   2.23944E+3  -2.29959E+3
   9.25780E+2   1.27973E+2
  -5.39722E+2   1.36704E+3
  -4.41474E+3  -6.96630E+1
  -6.81515E+2   3.33318E+2
  -1.68291E+2   3.44532E+1
   4.39524E+2   7.20493E+2
  -9.16084E+2   2.37254E+3
   3.24005E+1  -1.25706E+3
   4.05666E+2  -7.28190E+2
   9.85516E+2   5.70625E+2
   4.87499E+2   8.77650E+2
  -3.16815E+3  -1.77615E+3
  -1.66276E+3  -1.75846E+3
   1.25869E+3  -2.55165E+3
   8.46260E+2  -1.41950E+2
   6.68262E+2  -1.06598E+3
  -4.83121E+2   1.09848E+3
   1.63425E+3  -4.86857E+2
   1.33141E+3   2.47522E+3
  -1.09279E+3   1.63870E+3
  -7.54790E+2  -1.20777E+3
  -4.60668E+2  -2.50177E+3
   6.30788E+2  -5.15468E+2
   4.07461E+2   1.87878E+3
   5.11731E+2   5.45154E+2
  -1.03252E+3  -1.57391E+3
   6.13276E+2   1.73714E+3
   4.78173E+2   2.81145E+2
  -1.47488E+3   9.96451E+2
  -1.57141E+3  -1.60599E+3
   3.65134E+3  -1.80797E+3
   2.55299E+3   1.18421E+3
  -3.00953E+2   2.21769E+3
  -5.66540E+2   2.93586E+3
  -2.57070E+3   2.92015E+2
  -4.40516E+2  -3.89954E+3
  -1.30218E+3   6.61165E+2
   9.03431E+2   7.87074E+1
   2.06624E+2  -3.11122E+2
  -7.01954E+2  -5.63484E+2
   1.72565E+3   1.96596E+3
  -5.22166E+2   2.71860E+3
  -1.25828E+3   1.10969E+2
  -2.97294E+3  -1.23937E+3
   2.66279E+3  -1.51427E+3
   5.73533E+2  -9.66626E+2
   1.25631E+2  -2.16589E+2
   1.93025E+3  -1.53163E+3
   2.48861E+3  -2.64597E+3
   6.97557E+2   7.32166E+2
   9.24733E+2   1.01207E+3
  -9.04166E+2   6.09926E+2
   3.78062E+2  -1.29701E+2
  -3.14061E+2   1.39741E+3
  -7.97079E+2   3.64370E+2
  -1.24096E+3  -7.90597E+2
  -1.20720E+3  -2.51541E+3
   7.21087E+2  -2.61232E+3
  -2.79868E+2   1.20830E+3
   5.34830E+2   2.38541E+3
  -1.25157E+3   1.19679E+3
   7.71859E+0  -1.87584E+3
  -1.59935E+3  -7.72221E+2
  -2.26611E+2   2.20821E+3
  -1.63335E+3  -8.44163E+2
  -3.62910E+3  -1.24141E+3
   3.38719E+3   8.96839E+2
   9.95251E+2   2.59157E+3
   4.88501E+2   1.86869E+3
  -1.52528E+3   1.00769E+2
  -8.19370E+2  -1.90600E+3
   1.02658E+3  -2.02918E+2
   1.47895E+3  -1.98058E+1
   2.29428E+3   9.00876E+2
   1.87763E+2  -2.03212E+2
   1.41644E+3  -7.51741E+2
   1.29550E+3   5.33163E+2
  -2.59775E+3   5.94656E+2
  -1.93851E+3  -1.32855E+2
   5.88396E+2  -1.95460E+3
   2.57394E+3  -2.12296E+3
   3.76307E+3   1.59003E+3
  -4.38946E+2   1.94207E+3
  -1.80781E+3   1.59074E+3
   5.86273E+1  -2.53878E+3
   5.55333E+2   1.33015E+3
  -1.00870E+3  -4.65955E+2
  -1.81594E+3   3.11917E+2
   2.98169E+2  -6.08426E+2
   1.76881E+3   1.33761E+3
   7.94148E+2   2.11294E+3
  -1.70263E+3   2.75361E+3
   9.03029E+2  -1.50428E+3
  -2.38934E+2  -1.70886E+3
  -2.32204E+3   1.09884E+3
   8.14560E+2   1.69782E+3
  -8.81168E+2   1.74019E+2
   1.49517E+3  -7.66249E+2
  -9.21190E+0   7.39823E+2
  -2.31842E+2   2.26557E+3
   6.78981E+2  -5.19906E+2
   7.25131E+2  -1.71450E+3
   1.18752E+3  -1.66672E+3
   1.77419E+3  -1.67565E+3
   2.81025E+2  -1.84569E+2
  -1.87434E+3   4.41109E+2
   5.45567E+2  -1.51819E+3
   2.61478E+2   3.90471E+2
   1.20931E+3   6.92428E+1
  -3.58998E+2  -7.63204E+2
  -1.33359E+3   1.17194E+3
   1.17987E+3  -1.24422E+3
  -6.27092E+2  -5.62600E+2
  -9.56209E+2  -1.78765E+2
  -6.74063E+2  -1.57675E+3
   6.84063E+1  -1.90518E+3
   2.78850E+3  -3.04639E+2
   7.04377E+1   2.78438E+3
  -9.65689E+2   6.32304E+2
  -1.85823E+2  -6.78115E+2
  -1.28216E+3  -1.14640E+3
   1.21147E+3   8.62144E+2
   2.38840E+2   6.40903E+2
  -1.30154E+3  -1.80536E+3
   9.49264E+2  -3.57063E+2
   6.85457E+2   1.62724E+2
   8.01965E+0   8.90553E+2
  -1.18257E+3   5.66494E+1
