 
 $NMID
 ID=''
 FMTDAT='(2E13.5)'
 TRAMP=   1.00000E+0
 VOLUME=   1.00000E+0
 $END
  -4.77932E+3   1.78098E+4
  -2.57371E+4   4.00904E+4
  -1.93907E+4   4.30601E+4
  -1.92579E+4   3.90540E+4
  -2.21838E+4   3.94564E+4
  -2.13455E+4   3.95678E+4
  -2.22800E+4   3.71100E+4
  -2.44159E+4   3.65699E+4
  -2.42412E+4   3.62678E+4
  -2.51247E+4   3.43744E+4
  -2.67744E+4   3.36499E+4
  -2.67671E+4   3.30695E+4
  -2.75078E+4   3.16551E+4
  -2.90564E+4   3.08119E+4
  -2.92287E+4   3.00058E+4
  -2.97385E+4   2.85081E+4
  -3.08783E+4   2.75865E+4
  -3.11200E+4   2.67725E+4
  -3.15325E+4   2.54145E+4
  -3.24457E+4   2.44852E+4
  -3.25277E+4   2.34221E+4
  -3.28104E+4   2.21454E+4
  -3.35223E+4   2.11430E+4
  -3.37028E+4   2.00985E+4
  -3.37701E+4   1.87922E+4
  -3.42162E+4   1.78344E+4
  -3.43474E+4   1.68238E+4
  -3.44669E+4   1.55116E+4
  -3.47969E+4   1.43551E+4
  -3.48355E+4   1.34125E+4
  -3.48351E+4   1.23487E+4
  -3.51796E+4   1.15028E+4
  -3.52124E+4   1.04234E+4
  -3.51367E+4   9.26698E+3
  -3.53785E+4   8.40058E+3
  -3.53109E+4   7.42257E+3
  -3.51372E+4   6.36113E+3
  -3.51590E+4   5.50228E+3
  -3.51091E+4   4.53598E+3
  -3.49813E+4   3.57803E+3
  -3.48890E+4   2.57785E+3
  -3.47566E+4   1.57018E+3
  -3.44773E+4   3.54219E+2
  -3.41758E+4  -5.72683E+2
  -3.38648E+4  -1.40780E+3
  -3.35803E+4  -2.38767E+3
  -3.32235E+4  -3.30857E+3
  -3.28642E+4  -4.23579E+3
  -3.24683E+4  -5.12851E+3
  -3.20739E+4  -6.00258E+3
  -3.16205E+4  -6.84235E+3
  -3.10834E+4  -7.73026E+3
  -3.06335E+4  -8.44019E+3
  -3.01749E+4  -9.10225E+3
  -2.96631E+4  -9.94232E+3
  -2.91455E+4  -1.06697E+4
  -2.86285E+4  -1.14694E+4
  -2.80574E+4  -1.21801E+4
  -2.73760E+4  -1.28780E+4
  -2.67772E+4  -1.34611E+4
  -2.61743E+4  -1.41035E+4
  -2.55786E+4  -1.47664E+4
  -2.49874E+4  -1.53637E+4
  -2.42558E+4  -1.60388E+4
  -2.34688E+4  -1.65718E+4
  -2.28950E+4  -1.70718E+4
  -2.22070E+4  -1.76650E+4
  -2.14045E+4  -1.81502E+4
  -2.06647E+4  -1.86981E+4
  -1.98935E+4  -1.91370E+4
  -1.92035E+4  -1.96005E+4
  -1.84192E+4  -2.00250E+4
  -1.75735E+4  -2.04012E+4
  -1.67682E+4  -2.06886E+4
  -1.59847E+4  -2.09870E+4
  -1.52102E+4  -2.12804E+4
  -1.43803E+4  -2.15398E+4
  -1.34837E+4  -2.17989E+4
  -1.27192E+4  -2.19998E+4
  -1.19475E+4  -2.21962E+4
  -1.11664E+4  -2.23546E+4
  -1.03329E+4  -2.24784E+4
  -9.52615E+3  -2.25790E+4
  -8.60460E+3  -2.26683E+4
  -7.80759E+3  -2.27178E+4
  -6.97457E+3  -2.27470E+4
  -6.08677E+3  -2.27480E+4
  -5.34389E+3  -2.26614E+4
  -4.66578E+3  -2.25858E+4
  -3.84058E+3  -2.25157E+4
  -3.03673E+3  -2.23772E+4
  -2.28855E+3  -2.22099E+4
  -1.56928E+3  -2.20501E+4
  -9.15682E+2  -2.18538E+4
  -1.45443E+2  -2.16713E+4
   4.98258E+2  -2.13615E+4
   1.09262E+3  -2.11141E+4
   1.77278E+3  -2.08017E+4
   2.38283E+3  -2.06163E+4
   3.01418E+3  -2.02500E+4
   3.63964E+3  -1.98847E+4
   4.12928E+3  -1.95040E+4
   4.69754E+3  -1.92515E+4
   5.19464E+3  -1.88689E+4
   5.71647E+3  -1.83660E+4
   6.22683E+3  -1.80096E+4
   6.77360E+3  -1.76500E+4
   7.14646E+3  -1.71764E+4
   7.59323E+3  -1.68297E+4
   7.99630E+3  -1.63301E+4
   8.36023E+3  -1.58068E+4
   8.61006E+3  -1.54377E+4
   9.01284E+3  -1.49896E+4
   9.32149E+3  -1.45315E+4
   9.65144E+3  -1.40195E+4
   9.90276E+3  -1.35667E+4
   1.01561E+4  -1.30775E+4
   1.03744E+4  -1.25667E+4
   1.04996E+4  -1.20735E+4
   1.07256E+4  -1.16862E+4
   1.09408E+4  -1.11956E+4
   1.11086E+4  -1.07314E+4
   1.12039E+4  -1.02816E+4
   1.13201E+4  -9.89236E+3
   1.13960E+4  -9.40565E+3
   1.14684E+4  -8.97212E+3
   1.15655E+4  -8.48704E+3
   1.15761E+4  -8.05743E+3
   1.16390E+4  -7.67464E+3
   1.16648E+4  -7.32972E+3
   1.16440E+4  -6.85030E+3
   1.17417E+4  -6.39128E+3
   1.16552E+4  -6.06600E+3
   1.16280E+4  -5.66712E+3
   1.16200E+4  -5.31565E+3
   1.15737E+4  -4.90588E+3
   1.15117E+4  -4.49985E+3
   1.14176E+4  -4.16552E+3
   1.13205E+4  -3.89667E+3
   1.12445E+4  -3.58802E+3
   1.11037E+4  -3.16943E+3
   1.10173E+4  -2.92083E+3
   1.08240E+4  -2.53938E+3
   1.08418E+4  -2.29968E+3
   1.06911E+4  -1.98653E+3
   1.05568E+4  -1.72792E+3
   1.04016E+4  -1.47010E+3
   1.03002E+4  -1.22516E+3
   1.01328E+4  -9.32960E+2
   1.00553E+4  -7.13068E+2
   9.86975E+3  -3.86372E+2
   9.68582E+3  -1.96376E+2
   9.49880E+3  -1.59438E+0
   9.39805E+3   2.34302E+2
   9.23721E+3   4.23046E+2
   9.04330E+3   6.06360E+2
   8.92496E+3   8.34161E+2
   8.77227E+3   9.79431E+2
   8.59911E+3   1.21136E+3
   8.38965E+3   1.41054E+3
   8.25958E+3   1.48601E+3
   8.10200E+3   1.67547E+3
   7.87746E+3   1.83527E+3
   7.75698E+3   1.94752E+3
   7.60042E+3   2.10883E+3
   7.42112E+3   2.19945E+3
   7.24828E+3   2.39026E+3
   7.03471E+3   2.46177E+3
   6.87083E+3   2.58182E+3
   6.71164E+3   2.72895E+3
   6.55899E+3   2.79324E+3
   6.31832E+3   2.83479E+3
   6.23646E+3   3.00795E+3
   6.06238E+3   3.11409E+3
   5.93484E+3   3.18408E+3
   5.74237E+3   3.17179E+3
   5.56502E+3   3.30719E+3
   5.40033E+3   3.35340E+3
   5.28855E+3   3.40725E+3
   5.21110E+3   3.46807E+3
   4.96323E+3   3.52211E+3
   4.82208E+3   3.59814E+3
   4.68451E+3   3.55967E+3
   4.56610E+3   3.67233E+3
   4.45290E+3   3.61492E+3
   4.24039E+3   3.66928E+3
   4.14525E+3   3.69477E+3
   4.04071E+3   3.66361E+3
   3.82023E+3   3.70748E+3
   3.78560E+3   3.77970E+3
   3.62172E+3   3.70127E+3
   3.51134E+3   3.75698E+3
   3.39094E+3   3.73194E+3
   3.24891E+3   3.76047E+3
   3.08617E+3   3.74127E+3
   3.04669E+3   3.68660E+3
   2.99927E+3   3.70688E+3
   2.84756E+3   3.69533E+3
   2.70285E+3   3.71114E+3
   2.62580E+3   3.69067E+3
   2.57716E+3   3.65470E+3
   2.51959E+3   3.71657E+3
   2.38143E+3   3.62434E+3
   2.27485E+3   3.66381E+3
   2.22764E+3   3.59549E+3
   2.09277E+3   3.55625E+3
   2.08542E+3   3.51596E+3
   1.95173E+3   3.50754E+3
   1.84741E+3   3.47888E+3
   1.80515E+3   3.49826E+3
   1.74224E+3   3.42508E+3
   1.67750E+3   3.40006E+3
   1.59355E+3   3.42146E+3
   1.54291E+3   3.43388E+3
   1.45523E+3   3.32726E+3
   1.40096E+3   3.28001E+3
   1.35942E+3   3.29762E+3
   1.33859E+3   3.21027E+3
   1.26439E+3   3.19946E+3
   1.20914E+3   3.14671E+3
   1.22909E+3   3.14164E+3
   1.07113E+3   3.10988E+3
   1.09661E+3   3.06524E+3
   1.05336E+3   3.03835E+3
   1.05195E+3   3.02839E+3
   1.00955E+3   3.01318E+3
   8.98878E+2   3.01172E+3
   8.99446E+2   3.01106E+3
   9.33597E+2   2.90107E+3
   8.71896E+2   2.84691E+3
   7.80074E+2   2.90556E+3
   8.28952E+2   2.81584E+3
   7.35631E+2   2.78038E+3
   6.79946E+2   2.77577E+3
   7.51911E+2   2.77696E+3
   6.60640E+2   2.75506E+3
   6.47882E+2   2.76629E+3
   6.65180E+2   2.69936E+3
   6.12780E+2   2.69110E+3
   5.55802E+2   2.58978E+3
   4.96766E+2   2.63499E+3
   5.03243E+2   2.63432E+3
   5.10378E+2   2.55282E+3
   4.60631E+2   2.53541E+3
   4.63072E+2   2.49570E+3
   4.93338E+2   2.48179E+3
   3.78405E+2   2.44383E+3
   3.62204E+2   2.37273E+3
   3.43507E+2   2.40564E+3
   3.66441E+2   2.39717E+3
   3.20202E+2   2.33737E+3
   2.87960E+2   2.36678E+3
   2.76198E+2   2.33406E+3
   1.65182E+2   2.28557E+3
   2.30485E+2   2.20416E+3
   1.84636E+2   2.24671E+3
   2.11158E+2   2.17427E+3
   2.02095E+2   2.19536E+3
   6.32696E+1   2.20035E+3
   1.04782E+2   2.14493E+3
   9.88439E+1   2.17455E+3
   1.11352E+2   2.00411E+3
   2.12932E+1   2.02650E+3
   7.91914E+1   2.02373E+3
   6.25814E+1   1.99230E+3
  -4.19461E+1   1.93431E+3
   3.79080E+1   1.91061E+3
   8.64105E+0   1.81082E+3
   4.37707E-1   1.84225E+3
  -4.91882E+1   1.78819E+3
  -2.00620E+1   1.78622E+3
  -2.16280E+1   1.74012E+3
  -7.14015E+1   1.75728E+3
  -8.06867E+0   1.68266E+3
   4.69374E+0   1.70377E+3
  -9.87947E+1   1.61601E+3
  -2.34218E+1   1.53351E+3
  -7.31501E+1   1.60713E+3
  -7.39152E+1   1.60009E+3
  -5.13743E+1   1.50092E+3
  -1.44886E+1   1.54077E+3
  -3.34677E+1   1.48541E+3
  -6.96150E+1   1.43312E+3
  -6.19716E+1   1.41905E+3
  -9.51308E+1   1.43238E+3
  -7.03806E+1   1.38749E+3
  -1.20547E+2   1.38571E+3
  -6.30184E+1   1.40964E+3
  -8.62388E+0   1.39712E+3
  -7.37206E+1   1.27387E+3
  -6.40812E+1   1.29547E+3
  -1.07822E+2   1.23664E+3
  -8.82935E+1   1.22116E+3
  -9.40349E+1   1.19321E+3
  -3.38800E+1   1.25604E+3
   1.42970E+1   1.24140E+3
   1.52840E+1   1.17115E+3
  -3.97451E+1   1.21774E+3
   1.29825E+1   1.17907E+3
  -3.17954E+1   1.14185E+3
  -2.44394E+1   1.12042E+3
  -4.15717E+1   1.09740E+3
  -1.40711E+1   1.14013E+3
  -5.64187E+1   1.01438E+3
  -4.66714E+1   1.08540E+3
   8.26525E+0   1.12179E+3
  -4.63456E+1   1.07737E+3
   1.77242E+1   1.08571E+3
  -7.71482E+1   9.93044E+2
  -1.72378E+1   1.04700E+3
  -5.05927E+1   1.05194E+3
  -4.78662E+0   1.00579E+3
  -2.31430E+1   9.81869E+2
  -3.10043E+1   9.57727E+2
  -1.70263E+1   9.81718E+2
   8.31280E+1   9.84960E+2
  -1.07101E+1   9.79825E+2
  -4.63336E+1   1.02881E+3
   2.56920E+1   9.28974E+2
  -4.13636E+1   9.73907E+2
   1.33896E+1   9.24925E+2
  -2.99863E+1   9.23736E+2
   4.27810E+1   9.34998E+2
   2.20552E+1   9.56465E+2
  -3.51640E+1   9.82050E+2
  -7.06394E-1   9.17288E+2
   6.93467E+1   8.50205E+2
   6.34455E+1   9.30149E+2
   9.91296E+0   8.75395E+2
   5.90837E+1   8.72687E+2
   6.19822E+1   8.86523E+2
   2.85876E+1   8.57380E+2
   4.05210E+1   8.63306E+2
   9.17117E+1   8.51621E+2
   8.00300E+1   9.08608E+2
   9.02394E+1   7.90165E+2
   3.85183E+1   8.52233E+2
   6.27480E+1   8.96227E+2
   1.04347E+2   8.24261E+2
   1.57675E+2   7.72975E+2
   6.66993E+1   8.87789E+2
   1.08767E+2   7.93852E+2
   8.50399E+1   7.48352E+2
   1.17926E+2   8.20903E+2
   9.06270E+1   8.27054E+2
   1.65228E+2   8.02508E+2
   1.27228E+2   7.91592E+2
   8.91726E+1   8.30671E+2
   1.21888E+2   7.99480E+2
   1.42638E+2   7.74657E+2
   1.53429E+2   7.69242E+2
   1.66492E+2   7.31493E+2
   1.88302E+2   7.57070E+2
   1.19915E+2   7.22894E+2
   1.62288E+2   7.23925E+2
   1.64937E+2   7.40693E+2
   1.84335E+2   7.95634E+2
   1.50882E+2   7.12650E+2
   1.75253E+2   7.39067E+2
   1.22804E+2   7.76941E+2
   1.54715E+2   7.98379E+2
   1.88373E+2   7.60030E+2
   2.60391E+2   7.22175E+2
   2.10454E+2   7.39492E+2
   1.43152E+2   7.69872E+2
   2.49097E+2   7.12273E+2
   3.20905E+2   6.55369E+2
