 
 $NMID
 ID=''
 FMTDAT='(2E13.5)'
 TRAMP=   1.00000E+0
 VOLUME=   1.00000E+0
 $END
   2.76611E+2  -3.82982E+2
   1.11930E+2   1.87051E+3
   3.42640E+3  -5.27718E+3
  -2.06929E+2  -1.23355E+3
  -6.51723E+2  -3.47407E+2
  -6.34820E+1   2.57443E+2
  -1.18546E+3   8.54269E+2
  -2.97153E+3  -2.94997E+2
  -1.26819E+3  -3.90369E+3
  -4.89333E+2  -3.53466E+3
   3.87371E+3   5.14192E+2
   1.84331E+3   2.98145E+3
   1.98166E+2   3.08332E+3
  -2.27956E+3   9.34406E+2
  -4.85072E+2  -8.06154E+1
   2.86792E+3  -1.94067E+3
   1.38333E+2  -7.17228E+2
   1.90845E+3  -2.31559E+3
  -5.43068E+2  -8.15174E+2
   1.62062E+3  -9.50687E+2
   3.03762E+3  -2.10700E+3
   1.82640E+3   4.67212E+3
  -3.02753E+3   4.55770E+3
  -2.95078E+3  -2.36391E+3
   2.42103E+3  -1.74862E+3
   3.24456E+3   3.15762E+3
  -2.94294E+3   4.48635E+2
   1.31384E+3  -3.53173E+3
   2.12509E+3  -6.04276E+3
   4.29452E+3  -9.03299E+2
   1.06153E+3   2.83883E+3
  -1.29106E+3   3.57467E+3
  -5.96317E+3  -5.75779E+2
  -2.26234E+3  -1.78334E+3
  -3.59970E+3  -2.13826E+3
  -1.67920E+3  -3.58304E+2
  -1.27927E+3  -1.86591E+3
   3.61154E+3   5.39155E+2
   8.13873E+2   2.19219E+3
  -1.62084E+3   3.47718E+2
  -4.35324E+3   1.85680E+3
  -3.92812E+3  -1.72290E+3
  -1.18101E+3  -5.17041E+3
   1.66398E+3  -3.28768E+3
  -3.08474E+2  -3.88388E+2
   3.79167E+3   9.68602E+2
   3.04930E+3   3.83675E+3
   4.13719E+1   3.10469E+3
  -1.54866E+3   2.74936E+3
  -1.18162E+3   6.39946E+2
  -2.44347E+3  -3.50722E+2
  -2.48515E+3  -1.97965E+3
   3.64026E+3  -1.45998E+3
   1.87553E+3   2.83104E+3
  -1.27803E+2   1.57089E+3
  -1.30654E+3   8.41927E+2
  -1.72962E+3   3.11556E+3
  -3.32342E+3  -1.59322E+3
  -7.42643E+2  -4.25757E+3
   2.65764E+3  -3.59371E+3
   4.09459E+3   5.17594E+2
   1.53089E+3   4.39911E+3
   2.79490E+2   3.62140E+3
  -1.80808E+3  -3.47176E+2
   1.41001E+3   2.27641E+3
   3.09872E+2  -1.09883E+2
  -2.89731E+3   2.64501E+3
  -1.51657E+3   6.16623E+2
   1.20991E+2  -1.00736E+3
   7.50620E+2  -2.79953E+3
   1.35068E+3   1.32672E+3
  -1.13368E+3   1.62093E+3
   4.72739E+2  -3.05036E+3
  -1.82220E+2  -3.28466E+3
   5.38667E+2  -1.36534E+3
   1.09543E+3   1.11606E+3
   3.54078E+2  -2.12650E+3
   8.19438E+1  -1.22652E+3
   1.20066E+3   9.97434E+2
   9.33095E+2   5.62878E+2
   4.82845E+2   9.72948E+2
   4.07247E+2  -2.95974E+2
   2.53494E+3   1.17680E+2
   7.46208E+2   1.07451E+3
  -1.63629E+3   3.91009E+2
  -1.25818E+3  -1.94626E+3
   1.86021E+3  -2.44315E+3
   2.97436E+2  -3.77207E+3
   4.07724E+3   2.03478E+3
  -1.42998E+3   1.81459E+3
  -1.10015E+3  -2.13134E+2
   7.49653E+2  -8.46677E+1
  -2.48385E+2   3.04889E+3
  -1.66887E+3   9.41392E+2
  -1.38167E+3  -4.88635E+2
  -4.57360E+2  -2.60205E+3
   6.53091E+2  -4.64240E+2
  -6.17444E+2   1.75495E+3
  -3.66222E+3  -4.88161E+2
  -9.01534E+2  -3.83583E+3
   1.24162E+3  -3.91667E+3
   3.58877E+3  -4.71890E+2
   9.27921E+2   1.75195E+3
  -1.87490E+3   1.61848E+3
   1.11497E+3  -1.87008E+2
  -3.14354E+3  -7.67177E+2
  -3.58471E+2   5.55369E+2
  -2.32956E+3  -1.87986E+3
   6.09730E+2  -1.82626E+3
   6.39381E+2   1.99686E+2
   2.95976E+3   4.28220E+1
  -9.06280E+2   2.68742E+3
   1.73084E+2   1.44994E+3
  -3.85230E+2   1.07564E+3
  -1.00812E+3   6.96141E+2
  -2.71591E+3   1.54400E+3
  -1.50190E+3  -1.47247E+3
  -3.20739E+2   4.69279E+2
   4.34898E+2   1.55272E+3
   1.13031E+3   8.39640E+2
  -2.55399E+3   9.33090E+2
  -1.61896E+3  -1.97681E+3
  -1.64444E+3  -7.43299E+2
   2.90352E+3  -1.11175E+3
   8.01323E+1   1.58795E+3
  -3.23293E+2   8.84883E+2
   7.24520E+2  -1.06559E+2
   3.00973E+3   1.64416E+2
   2.00734E+3   1.23678E+3
   1.37762E+2   4.02285E+2
   1.33960E+3  -2.62450E+3
   1.34214E+3  -1.18890E+3
   3.08818E+3  -1.38112E+2
   8.20592E+2   1.55870E+3
  -9.98437E+1   2.35884E+3
  -4.03402E+2  -5.70660E+2
  -2.77268E+2   3.79230E+2
  -3.90852E+2  -3.05970E+2
   1.89478E+3  -4.89877E+2
   1.81768E+3  -1.23992E+1
   5.70793E+2  -6.90874E+2
   5.36881E+2  -2.35897E+2
   1.28844E+3   1.04107E+3
  -3.51031E+2   2.47185E+3
  -5.18244E+2   1.47781E+3
   5.65526E+2   1.31345E+3
   1.62540E+3   4.42911E+2
   3.49473E+2   9.15210E+2
  -8.14452E+2  -1.29217E+1
   4.80560E+1   1.10792E+3
   1.25049E+3   3.69543E+2
   1.62483E+2  -1.39384E+2
   9.61635E+2  -2.49428E+2
   1.05937E+3  -8.51787E+2
   2.38878E+3   2.02801E+3
   3.19802E+3   2.99220E+3
  -1.33090E+3   8.75176E+2
  -1.18830E+3  -1.94604E+3
  -6.81307E+2   1.07605E+3
  -2.69984E+3   1.34427E+3
   1.48983E+2  -9.13682E+0
   6.63492E+2   1.10937E+3
  -1.56207E+3   2.05592E+2
   4.34830E+2  -2.05752E+3
  -1.65658E+3   6.48694E+2
  -1.73400E+3  -8.97512E+2
   1.22698E+3  -8.93150E+2
   1.85906E+3   1.56933E+2
   2.40022E+3   5.33939E+2
  -7.15522E+2   1.53752E+3
  -1.12989E+3   2.85738E+2
  -3.09951E+2  -6.74111E+2
  -9.17204E+2   1.71660E+2
  -3.62157E+2  -1.46851E+3
  -1.17193E+1  -9.26676E+2
   8.41778E+1   1.53041E+3
   5.07303E+2  -8.98273E+2
  -2.13810E+1   2.79949E+2
  -6.66279E+2   1.74286E+3
  -4.55206E+2  -4.86978E+2
  -2.04376E+3  -1.35229E+3
   2.64141E+2  -2.66218E+3
   1.18695E+2   3.10535E+3
  -4.61737E+2  -5.90283E+2
   2.47755E+3  -5.32634E+2
   1.18592E+3  -9.78983E+1
   8.59730E+2   9.89195E+2
  -7.49773E+2  -2.84806E+3
  -2.70885E+3  -1.04459E+3
  -1.37350E+3  -2.93700E+3
   2.17050E+3  -2.17108E+3
  -2.26993E+3  -5.90119E+2
  -2.02407E+3  -2.89662E+2
  -7.60720E+2   1.69461E+3
  -2.67575E+2  -1.32190E+2
   1.43499E+2  -3.70209E+2
  -2.77988E+3  -1.85274E+3
   4.61747E+1  -7.67520E+2
  -6.42415E+2  -5.67765E+2
  -4.20715E+2   1.18755E+3
  -1.12112E+3   2.54864E+3
  -1.23951E+3   8.76675E+2
  -1.12411E+3  -7.16571E+2
   2.29316E+2  -2.10193E+3
  -3.50122E+2  -2.72646E+2
   1.40510E+3  -1.02451E+3
   6.88383E+2  -6.08107E+2
  -2.74385E+2  -6.05710E+2
   2.02598E+3  -8.81356E+2
  -6.85270E+2   9.25622E+2
  -1.18387E+3  -2.82968E+2
   1.54308E+3  -1.73449E+3
   2.09833E+2  -2.31182E+3
   1.12522E+3   2.53560E+3
  -1.60303E+3   3.98444E+2
  -1.56914E+3   4.25988E+2
  -3.47403E+2   2.30427E+3
   6.66992E+2  -1.98462E+2
  -1.06716E+3   1.51407E+3
  -1.55754E+3  -1.66576E+3
   8.76659E+2   3.81199E+2
  -7.40670E+2   1.00873E+2
  -1.74129E+2   5.80095E+2
  -1.48645E+3   5.11155E+2
   9.47691E+2  -2.52418E+3
   1.08679E+1  -1.31774E+2
   3.35728E+2  -1.17764E+3
   4.98868E+2   2.00534E+3
  -7.52601E+2   1.98214E+1
  -2.47550E+3  -1.05202E+3
   1.08225E+3  -2.90938E+2
   2.15326E+3  -7.66228E+2
  -1.23861E+2  -1.52914E+3
  -7.41048E+2  -8.38790E+2
   2.58087E+3  -3.11115E+2
   6.20195E+2   5.44608E+2
  -1.84486E+3   7.35409E+2
  -4.21924E+2  -3.89243E+2
  -1.35292E+3  -1.02046E+3
  -4.88640E+1  -1.80608E+3
   1.24296E+2  -2.46932E+2
  -7.70659E+1   1.59067E+3
  -5.79925E+2  -7.59594E+2
  -4.92018E+1   1.09949E+3
  -1.66676E+3   1.63934E+3
  -4.92009E+2  -9.00349E+2
  -1.97152E+3  -2.70596E+3
   1.64066E+3  -4.69217E+2
  -4.75693E+2  -2.64712E+2
   7.88996E+2  -6.38295E+2
   1.26759E+1   3.09427E+2
  -1.85409E+3   1.45634E+1
  -4.55511E+2   4.86677E+2
  -1.12673E+3  -2.78580E+2
   5.05876E+1  -2.80484E+1
  -1.13622E+3   5.66190E+2
  -9.72982E+2   1.36369E+1
   9.99160E+2  -2.26576E+2
   5.46502E+2   7.21494E+2
  -1.47351E+3   8.35116E+2
  -1.35597E+3  -2.51613E+2
   1.10472E+3  -9.16882E+2
   1.16983E+3   1.91508E+3
   1.26079E+3  -7.01878E+1
   1.06057E+3  -1.33767E+2
  -1.49209E+3   6.21792E+2
   1.64808E+3   1.39892E+3
   1.94497E+3  -3.56733E+2
  -1.04746E+3  -7.68307E+2
  -8.95704E+2   5.86508E+2
   1.53201E+3  -5.07957E+2
   1.48742E+2   7.10726E+2
   3.78000E+2   5.23958E+2
   8.70321E+1   2.36451E+3
  -5.75047E+2  -3.52457E+2
  -1.19125E+3  -1.53973E+3
  -3.45746E+2   3.17767E+2
  -6.81855E+2  -1.21925E+3
   2.56396E+2  -1.45350E+3
   2.82866E+1  -2.62804E+2
   7.00250E+2   5.23903E+2
   3.34400E+1   1.01186E+3
  -7.55798E+2   9.51251E+1
  -1.23406E+2  -1.19212E+3
  -2.05760E+2   7.49860E+2
  -1.68164E+3   2.22184E+2
  -4.37656E+2   1.66455E+3
  -8.21160E+2   3.50811E+1
  -1.24840E+3  -7.74115E+2
  -2.46593E+3  -1.27556E+3
  -1.34407E+3   7.48707E+2
  -9.54007E+2   1.99685E+3
  -1.60259E+3   1.09324E+2
   6.38781E+2   6.20200E+2
  -2.12149E+3  -1.34760E+3
  -7.94975E+2  -2.55360E+3
   2.05772E+2   1.94942E+2
   1.39162E+3  -5.28112E+2
  -1.21827E+3  -2.35838E+2
  -9.89909E+2   1.73574E+3
  -2.36504E+3  -5.76084E+2
  -9.00154E+2  -7.39609E+2
   3.90797E+2   5.05620E+2
  -1.87165E+3   2.00654E+3
  -1.45895E+3  -1.02083E+3
   5.73885E+2  -8.21288E+2
   8.24839E+2  -1.38705E+3
   1.34947E+3   1.67116E+3
  -1.25047E+3  -1.01168E+3
  -8.37980E+2  -4.74846E+2
  -3.70954E+2  -2.05139E+2
  -1.15038E+3  -7.57069E+2
   8.72515E+2   6.01189E+2
   1.49811E+3   3.20538E+2
   8.87030E+2   1.91183E+2
   1.80039E+3   3.45772E+2
   1.34796E+3   3.66311E+2
  -3.96218E+2   1.41547E+3
  -2.76403E+2  -8.64703E+2
   9.53767E+2  -6.70383E+2
   5.55447E+2   2.90477E+2
   1.04130E+3   1.14893E+3
   9.66770E+1   2.72796E+2
   4.46108E+2   4.91086E+2
  -2.14194E+3  -4.53842E+2
  -5.24003E+2   3.17594E+2
  -4.12860E+2   5.71558E+1
  -1.74954E+3  -1.60575E+3
   9.50730E+2   1.98356E+2
   1.84117E+3   8.33070E+2
   3.58508E+2   4.69076E+2
  -6.62832E+2  -3.31511E+2
  -1.29328E+3   1.14224E+3
   3.56928E+2  -1.41655E+3
   2.15989E+3   2.38119E+2
   2.22684E+3  -8.48460E+2
   1.28359E+3   1.47336E+3
   1.15731E+3   1.51042E+3
  -1.21776E+3   9.49877E+2
  -6.79549E+2   1.06299E+3
   5.27462E+2   8.48162E+2
   1.84083E+3  -2.43474E+3
   1.34813E+3  -1.75801E+2
   7.02889E+2  -2.24950E+2
   1.15588E+2   1.62716E+2
   3.44816E+2  -1.56122E+2
   5.69513E+2   4.53300E+2
   1.52005E+3  -2.10074E+3
   7.80491E+2   1.09700E+3
  -7.65206E+2   1.04721E+2
  -3.47112E+2   2.44321E+2
  -2.29063E+2  -6.77097E+2
   2.22352E+3   8.42001E+2
   8.05388E+2   1.64176E+3
  -4.65670E+2   1.32590E+2
   1.01014E+3  -9.14367E+2
   6.52062E+2  -5.77516E+2
   2.46255E+1   1.64380E+2
   1.16251E+3  -6.57830E+2
   1.13014E+3   6.13776E+2
   1.49920E+3   2.61254E+2
   1.59039E+2  -1.13823E+3
   2.53093E+2   2.31645E+3
   8.71059E+2  -3.35133E+2
   8.31813E+2   1.92596E+3
   2.18238E+3  -1.13103E+2
   2.22608E+2  -3.81653E+2
