 
 $NMID
 ID=''
 FMTDAT='(2E13.5)'
 TRAMP=   1.00000E+0
 VOLUME=   1.00000E+0
 $END
   1.65876E+2   4.74753E+2
  -1.06672E+3   1.33293E+2
   2.32356E+3  -2.98117E+1
   7.54388E+2  -1.60494E+3
   1.70807E+3  -2.31550E+3
  -1.68180E+2  -1.70049E+3
  -2.97190E+3  -7.84968E+2
  -2.76783E+3  -2.13730E+2
  -2.17093E+3  -8.41542E+2
  -2.29992E+3  -3.68427E+3
   7.36735E+2  -2.57930E+3
   1.46797E+3   3.91246E+3
  -4.03190E+3   5.88243E+3
  -4.11603E+3   3.63380E+2
  -4.94982E+2  -4.34239E+2
   3.22558E+3  -8.86863E+2
   4.68917E+3   6.96270E+2
   7.83528E+2   2.50554E+3
  -5.71443E+2  -4.00517E+2
   1.41454E+3  -2.39372E+3
   1.89335E+3  -2.59568E+3
   1.76024E+3  -1.63419E+2
  -1.85168E+2   2.48767E+2
  -1.32786E+3  -9.38206E+2
   1.18418E+3  -1.24246E+3
   9.12565E+2   6.16962E+2
   1.00630E+3   8.06800E+2
  -1.26718E+3  -3.44569E+3
   2.68857E+3  -4.33785E+3
   6.01749E+3   3.00711E+3
  -2.77256E+3   5.74552E+3
  -5.81720E+3   8.53566E+1
  -1.84372E+3  -5.26554E+3
   2.11289E+2   1.18091E+2
  -1.74294E+3   3.39616E+3
  -1.45553E+3  -2.52313E+2
   4.32556E+3   6.62304E+0
   9.62122E+2   1.75290E+3
   1.32651E+3   1.44945E+3
   9.21726E+2   3.88408E+3
  -1.71892E+3   3.88017E+3
  -4.30685E+3   8.38657E+2
  -1.62437E+3  -5.71880E+3
   3.96148E+3  -4.46699E+3
   1.02654E+3  -8.76413E+2
   3.16635E+3  -7.80076E+2
   2.03422E+3   2.73722E+3
   4.76564E+2   4.42582E+2
  -2.72229E+3  -8.32014E+2
  -2.65009E+3  -2.11340E+3
  -2.14198E+3  -4.08348E+3
   1.45127E+3  -2.43740E+3
   3.32505E+3  -9.41645E+2
   2.03556E+3   5.10663E+3
  -1.18840E+3   2.12941E+3
  -9.05745E+2  -1.86211E+2
  -2.07219E+3   1.78839E+3
  -1.88942E+3  -4.75688E+3
   3.02410E+3  -5.73513E+3
   4.12516E+3  -3.03092E+3
   4.65298E+3   2.20972E+2
   2.20503E+3   4.01549E+3
  -5.23459E+2   3.21709E+3
  -1.49542E+3   1.56613E+2
  -1.60888E+2  -1.25578E+3
   2.45738E+3   3.97597E+3
   7.82073E+2   4.24572E+3
  -3.58299E+3   1.38403E+3
  -1.38405E+3   2.55435E+3
  -2.35967E+3  -4.92383E+2
  -3.85427E+3   1.52189E+3
   9.28784E+2  -3.41449E+3
  -8.93027E+2  -1.21856E+3
   3.11535E+3  -3.32668E+1
   4.12743E+2   1.68845E+3
  -7.09484E+2   1.16279E+3
  -7.55906E+2  -4.79328E+2
   2.86744E+2  -1.43097E+3
   1.72931E+2  -3.29132E+0
   9.37539E+2  -1.23798E+2
  -8.65206E+2   1.84507E+3
   1.00567E+3   1.15939E+3
  -1.27773E+2   1.04775E+3
  -2.02760E+3   2.63253E+3
  -2.78958E+3   1.14177E+3
  -1.30026E+3  -2.10230E+3
   2.21565E+2  -3.04400E+3
   3.34636E+3  -8.34629E+2
  -4.17455E+2   2.45884E+3
   4.10756E+2   3.46129E+3
  -7.43103E+2   3.07631E+3
  -1.50569E+3   2.93906E+3
  -2.52965E+3   3.77766E+2
  -2.42991E+3   1.35617E+3
  -2.52494E+3  -3.21723E+3
  -8.60114E+2  -2.23599E+3
   2.54902E+3  -1.63491E+3
   1.55626E+3   1.58491E+3
  -4.63890E+2   6.42635E+2
  -2.27665E+3  -6.17896E+2
   3.12477E+2   4.42468E+2
   1.05000E+3   9.65968E+2
   2.28072E+3  -8.09425E+2
  -2.67503E+2   4.88554E+1
  -6.97862E+2  -2.56686E+3
   9.08007E+2   1.47064E+3
  -7.93385E+2  -6.30636E+2
  -1.28476E+3   8.63872E+2
  -1.18697E+3  -7.78277E+2
  -1.68101E+3  -3.51449E+3
   1.49498E+2  -2.02079E+3
   5.95474E+2   2.86881E+3
   1.04356E+3  -1.13140E+3
  -1.42828E+2  -3.03763E+2
  -5.76080E+2   8.23475E+2
  -6.33649E+2  -3.00847E+3
  -3.54396E+2  -8.74356E+2
  -9.49145E+2   8.06936E+2
  -1.23497E+3  -2.75591E+3
   1.36468E+3  -1.85712E+2
   2.75597E+2   2.01102E+2
   5.34734E+2  -1.63463E+3
   4.09148E+2   2.00446E+2
   2.81966E+3   2.69286E+2
  -5.29359E+2   2.02227E+3
  -6.27716E+2   1.75847E+3
   1.20018E+3  -1.33872E+3
  -2.35717E+2  -1.22189E+3
   9.36662E+2  -1.43466E+3
   7.90411E+2  -1.67900E+3
   4.12415E+2   9.76259E+2
   1.94834E+3   2.87792E+3
  -1.14881E+3   1.84678E+3
  -1.08790E+3   2.10413E+3
  -2.53642E+3   6.31150E+2
  -3.24903E+3   1.86732E+2
   1.89136E+2  -6.76728E+2
   1.63779E+3   3.88529E+1
   2.30936E+2  -2.02573E+3
   8.71031E+2  -2.83258E+2
   1.69281E+3   7.55967E+2
   1.16853E+3   2.94146E+3
  -2.70642E+1   3.81221E+2
  -1.24417E+3  -8.33584E+2
  -1.33624E+3   1.80844E+3
  -8.27489E+2   5.53536E+2
  -5.38464E+1  -1.47316E+3
  -2.45921E+3  -1.96715E+3
  -3.03524E+2   9.43229E+2
  -1.86331E+1   6.70008E+2
   1.28067E+3   1.94788E+3
   9.96255E+2   6.65470E+2
   1.08090E+3   1.30139E+3
  -6.89406E+2   9.91106E+2
  -8.96732E+2   1.97907E+3
  -1.18454E+3   1.18756E+3
   8.05357E+1  -4.11953E+2
   2.63609E+3  -1.69691E+3
  -1.22757E+3  -1.97837E+3
  -2.43010E+2  -1.60810E+3
   5.38017E+2   3.95072E+2
   9.50594E+2  -4.64860E+2
  -3.54975E+2   4.91075E+2
  -1.05846E+3  -7.57649E+1
  -2.01493E+3  -9.87683E+2
   6.97445E+2  -2.14225E+3
   4.13524E+2  -1.81636E+3
   6.46225E+2  -8.51434E+2
  -1.30005E+3  -9.41970E+2
  -1.01906E+3  -6.50015E+1
   9.06419E+2   1.43420E+3
   2.49786E+2   1.62814E+3
  -6.30984E+0  -3.33426E+1
  -1.19849E+3  -9.81851E+2
   1.32766E+2   1.24093E+2
  -8.56108E+2  -1.25845E+3
  -1.88381E+3  -1.28368E+3
  -1.47423E+3  -1.87694E+3
  -9.09122E+2  -1.52605E+3
   4.27171E+2  -2.00467E+3
   3.43409E+2  -1.63363E+3
  -6.24455E+2   1.39372E+3
  -7.14956E+2   3.04107E+1
  -1.67667E+3  -3.62015E+2
   3.63171E+2  -2.20303E+3
  -2.09822E+3  -4.25329E+1
  -1.49155E+3  -1.69205E+3
  -1.90509E+3  -1.73799E+2
   7.03122E+2   2.45021E+1
   1.26449E+3   1.48907E+3
  -1.32988E+3   7.84922E+2
   4.81615E+2   1.73725E+3
  -2.35760E+2  -4.39666E+2
  -8.39089E+2   5.92008E+2
  -1.07609E+3  -2.13666E+2
   1.46769E+3  -6.84784E+2
  -2.10970E+3   1.42791E+3
   1.42294E+3  -5.93935E+2
   1.80309E+2   8.50885E+2
   4.11099E+1   2.08301E+2
   9.96741E+2  -2.03774E+3
   1.42518E+3  -1.70739E+2
   1.07438E+3  -4.69668E+2
   6.73133E+2  -9.85833E+2
  -1.61127E+1   2.39153E+3
   1.13505E+3  -1.14150E+2
   1.71323E+3   8.60115E+2
  -9.17877E+2  -6.32226E+2
  -2.58222E+2  -2.56230E+3
  -2.14719E+3  -4.28655E+2
   1.22908E+3  -6.06496E+2
   1.41614E+3  -2.92947E+2
  -5.27419E+2  -1.70508E+1
  -1.46982E+3   9.65172E+2
   5.54715E+2   2.20203E+3
  -1.11255E+3   5.84705E+2
  -6.10983E+2   1.83839E+3
  -1.03664E+3   9.61719E+2
  -5.14905E+2  -7.46601E+2
  -1.54167E+3   3.41121E+2
  -7.44750E+2   1.13169E+2
   8.10144E+2   8.76744E+2
   1.38537E+3  -2.15444E+3
   3.99798E+2  -1.35046E+3
   2.37202E+3   2.06051E+2
   2.07806E+3   3.19360E+2
  -7.95434E+2   3.10866E+0
  -9.22323E+2   1.35193E+3
   1.39644E+3   8.30867E+2
  -3.50262E+2   2.88201E+2
  -1.18836E+3   3.13921E+2
   8.04746E+2  -1.81161E+3
   2.60361E+2  -2.83527E+3
   1.12207E+3  -7.49498E+2
  -1.15832E+3  -4.33433E+2
   9.21621E+2   2.40439E+2
  -2.67546E+2   6.67149E+2
  -2.03736E+3   1.03821E+3
   4.03066E+2   5.29557E+2
   1.61984E+3  -1.15956E+3
   2.68325E+2   9.00132E+2
  -1.50645E+3  -1.10724E+2
  -1.18605E+3  -1.32439E+3
   1.48309E+3   1.73708E+2
   1.38437E+3   1.65873E+3
   5.31922E+2  -1.26948E+3
   1.18970E+3   2.23321E+3
   1.72796E+3  -2.54011E+2
   6.19669E+1   7.60207E+2
  -3.81207E+2   1.14456E+3
  -9.76587E+2   1.39608E+3
  -9.40535E+2   4.82588E+2
   1.69903E+3  -2.98707E+2
  -3.85581E+2  -5.80384E+2
   6.33551E+2   5.53416E+2
   1.42040E+3  -1.11927E+3
  -1.43705E+3   1.93574E+2
  -7.35318E+2   5.92327E+2
   1.42407E+3  -9.03248E+0
   9.07254E+2   7.93047E+2
   1.93820E+3  -6.25388E+2
   2.53583E+3   1.11270E+3
   1.02424E+3  -2.97105E+2
  -1.32182E+3  -1.54804E+3
   2.02076E+3  -2.07582E+3
   1.36926E+3  -1.57748E+3
  -8.51757E+2  -2.57849E+2
  -3.70672E+2  -4.65497E+2
   1.66107E+3  -1.27534E+2
   2.94438E+3  -1.50437E+3
  -1.68736E+3  -6.42911E+1
   1.49233E+3   1.14317E+3
   1.21056E+2  -1.34868E+3
  -4.75892E+2  -2.71992E+2
   8.42038E+2  -1.16574E+3
   2.88175E+3  -2.24488E+3
   9.93680E+1  -9.10079E+2
  -1.04431E+3  -1.23226E+2
   6.60834E+2  -1.76075E+2
   3.35888E+2  -7.47059E+2
  -6.06362E+2  -2.96828E+2
   1.56672E+3  -2.37623E+2
  -7.05685E+2  -2.24013E+2
   1.49257E+3  -1.46423E+3
  -1.58645E+3   1.33589E+3
   9.69672E+2   8.98996E+2
   1.64274E+3   4.18621E+2
   9.62712E+2   1.66325E+3
  -4.37964E+2   2.00985E+1
  -1.97500E+3   3.21127E+2
   4.57053E+2   1.77585E+2
  -1.72072E+3   2.18798E+3
  -1.44320E+3   7.39916E+2
   1.01340E+3   5.47378E+2
   1.42961E+3  -2.51496E+2
  -2.27871E+3  -1.24635E+3
   1.56698E+3  -1.69976E+3
   1.81393E+3  -8.15228E+2
   6.82726E+2  -5.42539E+2
   1.49573E+3  -5.68305E+2
   3.27334E+2  -1.21037E+3
   1.42340E+3   7.24667E+1
   1.15092E+3  -3.53406E+2
   3.57300E+2   6.90406E+1
  -7.56201E+1  -1.49749E+3
   2.87202E+2   1.25216E+3
  -3.96591E+2   2.45858E+2
   1.57751E+3  -2.28555E+2
  -1.29661E+3   2.51594E+2
   2.88067E+3  -6.39368E+1
  -1.97356E+2   8.22811E+2
   3.29996E+2  -8.81209E+2
   1.49003E+2   1.34740E+2
   9.20127E+2   1.75359E+3
   8.24319E+2  -1.93648E+3
   1.58054E+3   6.42546E+2
  -5.02316E+2   1.35344E+3
  -1.94144E+3   1.26179E+3
   5.15295E+1  -5.03986E+2
   6.36748E+2   6.39230E+2
   2.76279E+2   7.71647E+2
  -1.52397E+2   1.07316E+3
   9.62667E+2  -2.53901E+3
  -1.19939E+3  -1.03855E+3
  -4.51583E+2   6.19518E+2
   1.03899E+3  -1.26350E+3
   1.22945E+3   1.10449E+3
   1.23873E+3  -1.17863E+3
  -2.77817E+2  -1.97619E+3
  -5.60976E+1  -3.89599E+2
   3.33242E+1   6.40985E+2
  -1.00671E+3  -9.48967E+2
  -9.83424E+2  -1.68571E+3
  -1.44616E+3   8.24771E+2
  -1.87728E+3  -1.26361E+3
  -1.60194E+2  -4.72315E+2
   1.39940E+2   7.83448E+2
  -6.18598E+2  -1.55751E+3
   5.89501E+2   7.47835E+2
  -1.85378E+3   2.34557E+2
  -4.43780E+2  -1.42784E+2
   7.10055E+2  -5.82632E+2
   7.46966E+2  -2.06225E+2
  -2.34544E+3   2.34540E+2
   7.48437E+2  -1.03583E+3
  -1.22937E+3  -2.64783E+3
   1.72583E+3   3.35543E+2
   1.05177E+3   1.14560E+2
  -1.77185E+3   8.97898E+1
   1.00597E+3  -3.62144E+2
   3.13906E+3  -8.47102E+2
  -1.00692E+3   1.46644E+2
   6.65268E+2  -1.33319E+3
  -7.44492E+2  -9.99198E+1
  -4.82257E+2   5.62523E+2
   1.44580E+3   1.29180E+3
   9.57706E+1  -8.15527E+1
  -8.07918E+2   1.29951E+3
  -8.83094E+2  -1.38242E+3
  -1.76769E+3   2.45316E+2
   1.73031E+3  -1.77832E+3
  -2.51435E+2  -6.59289E+1
   1.49649E+2  -1.62485E+3
   7.33100E+2  -1.73011E+3
   8.79631E+2   8.66145E+2
   2.32820E+2   6.47116E+2
   1.02125E+2  -1.64187E+3
