 
 $NMID
 ID=''
 FMTDAT='(2E13.5)'
 TRAMP=   1.00000E+0
 VOLUME=   1.00000E+0
 $END
  -2.90571E+1  -2.09913E+2
  -1.50807E+3   9.63724E+2
   3.61774E+2   6.97194E+2
   5.50294E+2   3.73765E+3
   2.39645E+3   1.79756E+3
   3.29043E+3   4.65551E+2
   1.15521E+3   3.96754E+2
   1.72190E+3  -1.43567E+3
   1.71857E+3  -1.49927E+3
   2.12945E+3  -2.33291E+3
   7.47889E+2  -1.37396E+3
   1.28522E+3   8.70427E+2
  -1.33469E+3   3.12535E+3
  -2.16498E+3   2.96088E+3
  -1.80879E+3  -1.75374E+2
   3.05678E+3  -8.15006E+2
   2.86285E+3  -3.63053E+2
   3.45664E+3  -1.25903E+2
   2.35399E+1   2.44886E+2
   1.60506E+2  -1.44234E+3
   1.93664E+3  -1.96593E+3
  -1.35519E+3   4.74005E+2
  -5.93312E+3  -2.02122E+3
  -3.83763E+3  -3.71918E+3
  -2.14402E+3  -3.12967E+3
  -2.85282E+3   2.30325E+3
  -4.55056E+3   2.18589E+3
  -2.55708E+3  -1.24985E+3
  -2.83862E+3  -2.55843E+3
   4.10310E+3   5.45065E+2
   1.53900E+3   6.05704E+3
  -6.49059E+3   5.60895E+3
  -4.86580E+3  -1.92206E+3
  -4.82924E+2  -1.51827E+3
  -3.43081E+2   1.42081E+3
   2.71316E+2  -3.56123E+3
   4.85796E+3  -6.31077E+3
   3.39013E+3  -1.90713E+1
   2.18000E+3   1.23183E+3
   2.16147E+3   2.60790E+3
  -1.04471E+3   3.16571E+3
  -3.98781E+3  -1.12464E+3
  -1.46453E+3  -6.38823E+3
   5.10889E+3  -2.01156E+3
   3.96153E+3  -4.10724E+2
   3.38967E+3   1.29670E+3
   4.75146E+3  -1.46046E+2
   7.11935E+2   2.72795E+3
  -5.46878E+2   1.63108E+3
  -1.34948E+3  -5.51042E+2
  -2.63141E+3  -3.02650E+3
   2.86784E+2  -4.58437E+3
   4.26821E+3  -2.95597E+2
   3.43474E+3   2.16689E+3
  -3.29420E+3  -6.52472E+2
  -1.24207E+3  -1.19320E+2
  -5.19898E+3  -1.20220E+3
  -5.66286E+3  -2.81426E+3
  -5.11869E+2  -6.24771E+3
   2.12093E+3  -2.43795E+3
   4.91607E+3   1.86623E+3
   4.07092E+3   2.97821E+3
  -3.73164E+2   4.34242E+3
  -3.32011E+3   1.10740E+3
   1.63810E+1   3.70683E+2
   2.48884E+3   1.79747E+3
   4.10414E+2   5.07752E+3
  -4.43466E+3   1.43975E+1
   3.49550E+2  -1.62933E+3
   1.53773E+3   2.21106E+3
  -2.64716E+3   1.82719E+3
  -2.50155E+3  -2.54309E+2
  -1.10022E+3  -1.67128E+3
  -2.95784E+2  -2.99032E+3
   8.27927E+2   5.71505E+2
   1.38003E+3   1.66917E+3
  -1.76072E+3   1.58527E+3
  -2.55298E+3   5.03607E+2
   2.90351E+3   1.88672E+3
   7.08446E+2   3.01988E+3
  -3.66722E+3   4.43428E+3
  -1.46416E+3  -2.92602E+2
   1.76863E+3   1.16584E+3
  -3.03809E+2   2.00580E+3
  -3.97545E+3   1.35665E+3
  -3.06137E+3  -1.63322E+3
  -1.72557E+3  -3.54382E+3
   3.69348E+3  -1.26386E+3
   1.95399E+3   8.12837E+2
  -1.38249E+3   2.59577E+3
  -1.65135E+3  -2.33924E+2
  -6.31068E+2  -3.44129E+2
   1.22505E+3   2.25287E+3
  -3.11957E+3   2.68720E+3
  -4.81574E+3  -2.19605E+3
   1.93331E+3  -3.59994E+3
   2.16220E+3   2.50579E+3
   8.60726E+1   3.04986E+3
  -9.89069E+2   1.60675E+3
  -3.15323E+3  -3.24441E+3
   2.77809E+3  -1.49119E+3
   4.94855E+3  -7.36680E+1
   2.71396E+3   3.79030E+3
  -1.74948E+3   2.38183E+3
  -2.15780E+3  -2.44456E+2
  -1.06054E+3  -1.15209E+3
  -1.87207E+3   1.13904E+2
  -1.94695E+3  -1.53733E+3
  -1.96824E+3  -2.37196E+3
   2.39416E+3  -2.63176E+3
   4.37639E+3   1.58158E+3
  -6.29623E+1   4.16765E+3
  -2.83085E+2   1.68715E+3
   1.70019E+2  -1.73667E+2
  -1.70399E+3   1.98817E+3
  -1.15491E+3   1.14515E+3
   2.65898E+2  -2.62392E+3
   1.35466E+3  -1.94125E+3
   1.57372E+3  -2.22342E+3
   1.35345E+3  -5.33151E+0
  -4.45798E+2   2.43768E+3
  -1.50540E+3  -3.16432E+2
   4.65056E+2  -1.50027E+3
   2.08879E+3  -2.23913E+3
   1.18558E+3   1.26197E+3
  -5.89493E+2   1.33218E+3
  -1.66090E+2   1.79022E+2
   1.91622E+1   1.56294E+3
   8.22030E+2   1.49826E+3
  -1.35367E+3  -1.87453E+3
  -8.88027E+2  -5.60377E+2
   1.62055E+3  -3.86992E+3
   2.47001E+3  -8.00938E+2
   3.02735E+3   2.83656E+3
  -4.36792E+2  -1.06094E+3
  -2.90225E+3  -1.47215E+3
  -6.14096E+2   4.16079E+2
  -9.23162E+2  -3.76408E+2
  -1.37697E+2  -2.08335E+3
   5.99380E+2  -2.05493E+3
   8.43564E+2  -2.24840E+3
   2.56800E+3  -2.35980E+3
   6.29864E+2   3.62061E+2
   1.01359E+3   1.08021E+3
  -4.95809E+2  -1.72564E+3
  -1.68313E+3   3.98986E+2
  -6.85541E+2   1.24265E+3
   1.02650E+3  -5.38898E+2
   5.46908E+2  -1.01099E+3
  -4.86327E+2  -1.37221E+2
   1.28999E+3  -2.85477E+2
  -1.38396E+3  -2.05120E+3
  -3.74251E+2  -2.37684E+3
   2.79430E+3   3.54405E+2
   4.28651E+3   3.76519E+2
   6.03495E+2   2.65649E+3
  -3.76348E+2  -2.47654E+2
  -9.51050E+2  -3.71892E+3
   1.15406E+3  -6.55835E+2
  -4.95515E+2  -2.90772E+3
  -2.41862E+3  -6.45234E+2
  -1.81835E+3  -8.67963E+2
   2.98458E+1  -2.53376E+3
   1.62875E+2  -7.75456E+2
  -4.78990E+2  -5.94912E+2
  -1.44197E+3  -6.27499E+2
   2.47396E+2  -1.19731E+3
   6.36090E+2  -1.22620E+3
   2.56146E+2   5.48639E+2
   1.56338E+3   2.87452E+3
  -1.43104E+3  -1.00151E+3
   3.63034E+2  -1.79752E+3
  -3.50923E+2  -2.17255E+3
   2.11308E+3  -1.37814E+3
  -5.90514E+2  -1.43629E+3
   1.18626E+3  -1.17739E+3
   1.13886E+3  -1.62349E+3
   1.16916E+2   1.33119E+3
  -1.14378E+3   1.21877E+3
  -8.03464E+2  -1.56875E+2
  -1.12794E+3  -4.92465E+1
   1.44792E+3  -1.46313E+3
  -1.30254E+2   1.15481E+3
  -6.63539E+2  -1.53711E+3
   2.74740E+3   5.17493E+2
   2.33916E+3   1.48616E+3
   5.44415E+2   2.63529E+3
  -2.45025E+3  -3.09571E+2
  -1.13420E+3  -7.95335E+2
   1.17341E+3  -2.06341E+3
   1.06188E+3   3.24191E+2
   1.27716E+3   2.60434E+3
  -1.59543E+3   1.69235E+2
   4.46543E+2  -7.85989E+2
  -1.15868E+3   1.35018E+3
  -3.10376E+2  -4.53089E+2
  -1.51740E+3  -1.17181E+3
  -8.76939E+2   5.22782E+2
   2.18356E+3  -1.15490E+3
   2.86662E+2  -5.19759E+2
  -1.06284E+3   3.87540E+3
  -4.08796E+3  -7.02484E+2
  -1.24613E+2  -1.70382E+3
   1.65342E+3  -1.04455E+3
  -1.51230E+2   2.54493E+3
  -1.06560E+3   7.09833E+2
  -5.25626E+2   1.77959E+3
  -1.16295E+3  -4.54280E+2
   2.24377E+3   1.58915E+3
   8.71963E+2   8.14902E+2
  -9.51074E+2   8.42970E+2
  -7.67141E+2  -2.18132E+1
  -1.25777E+2  -1.03978E+3
  -1.08079E+2   2.42484E+3
   3.40362E+2   2.22053E+3
  -2.20203E+3   9.90210E+2
   1.04201E+3  -1.58791E+3
   1.56151E+3   1.01961E+2
   5.90884E+2  -1.72307E+3
  -3.32022E+2  -7.74937E+2
  -1.29190E+2   6.66632E+1
   3.11744E+2  -5.21913E+2
   1.93070E+2  -9.59542E+2
  -1.00244E+3   1.48355E+3
   1.92701E+2  -1.53967E+3
   2.17214E+3  -5.84362E+2
  -9.95859E+1   2.16920E+3
  -7.89671E+2   4.02191E+3
  -1.78101E+3   8.35541E+2
  -5.22218E+2  -3.22152E+2
   8.57956E+2   4.98423E+2
   7.35897E+2   1.15651E+2
  -1.81045E+3  -3.58258E+2
   1.95974E+3  -2.80029E+3
  -1.67087E+3  -1.61059E+3
   1.68368E+3   1.61232E+3
   9.04715E+2   9.43976E+2
  -2.60975E+3   3.26474E+2
  -1.34881E+3  -2.02576E+3
  -8.38311E+1  -5.18153E+2
   1.53011E+3  -4.25792E+2
  -7.83239E+2   1.32289E+3
  -6.88254E+2  -5.16655E+2
  -6.41390E+2  -2.51576E+2
   2.01173E+3  -1.39863E+3
   1.06079E+3   1.20982E+3
  -2.31853E+2  -2.47054E+3
  -2.77018E+2   1.48930E+3
   3.04500E+3   8.33239E+2
   2.66204E+1   1.54841E+3
  -3.09982E+3   1.07866E+3
  -2.29095E+3  -1.51676E+3
  -1.01381E+2  -9.33531E+2
   2.73078E+2  -1.54594E+3
  -1.57880E+3   1.06515E+2
   4.64842E+2  -6.23386E+2
   3.01004E+3   2.18061E+2
   2.77996E+2   1.50644E+2
   1.94989E+3   1.87206E+3
  -1.64220E+3   1.21135E+3
   1.35066E+2  -1.41470E+3
   5.73672E+2  -1.75793E+3
   7.36164E+2   2.03945E+2
  -5.06026E+2  -1.22065E+3
  -8.44870E+2  -9.02198E+2
  -5.14334E+1   4.17263E+2
   1.31441E+3  -4.34493E+2
   7.37335E+2   3.61508E+2
  -5.88519E+2  -1.27607E+2
   7.85282E+2  -9.42567E+2
   2.26240E+3  -6.00279E+2
   1.76171E+3   4.28994E+2
  -1.46200E+3   1.10254E+2
  -2.67538E+3   7.65978E+2
  -8.84298E+2   1.04949E+3
  -1.04548E+3   1.10476E+3
   3.86992E+3   7.80212E+2
   9.69259E+2  -8.13583E+2
  -2.47610E+2   7.59346E+2
   1.04932E+2   9.50938E+2
   2.78084E+3   7.27573E+2
   1.70694E+2   2.76974E+2
  -2.62960E+3   1.56680E+3
   9.65188E+2  -1.26953E+3
   5.97731E+2  -1.22254E+3
   4.87589E+2   1.45787E+3
  -1.08412E+3   2.24797E+3
  -2.16391E+2   6.24627E+2
   7.53673E+2  -5.60948E+2
  -3.32128E+2   8.25757E+1
   2.06881E+2   1.82372E+2
   9.88830E+2   5.93950E+2
   3.17261E+2  -1.05156E+2
   1.74104E+3  -1.22051E+2
  -3.91597E+2   2.06522E+3
  -1.07503E+3   5.68117E+2
  -4.81748E+2  -1.35099E+3
   1.72723E+3  -1.82590E+3
   6.88514E+2   1.62445E+3
   2.22548E+3  -6.23285E+2
  -1.98035E+3   1.19821E+2
   1.64889E+2   4.95214E+2
   1.61229E+3   3.95533E+2
   3.75691E+1   9.91703E+2
  -1.76243E+3   4.21612E+2
  -7.79277E+2  -1.19474E+2
   1.87130E+3  -8.30256E+2
   1.19029E+3   1.63869E+3
   8.11602E+2   9.17732E+2
  -1.58323E+3  -6.78911E+0
  -1.73666E+3  -2.04536E+3
   1.18775E+3  -2.08226E+3
  -7.27905E+2  -7.35795E+2
  -1.49647E+3   8.88551E+2
   3.33793E+2  -9.17343E+1
   1.38858E+3   1.45256E+3
  -1.23626E+3   2.48749E+3
  -1.05199E+3   2.49906E+2
  -1.11409E+3  -4.50970E+2
  -5.31891E+2  -2.95483E+3
   2.45779E+3  -1.08402E+3
   1.32571E+3  -2.29793E+2
  -8.10605E+2   7.38984E+2
  -6.49132E+1  -4.59954E+2
  -2.79486E+3  -1.14580E+3
   1.72158E+3   1.00639E+3
  -1.93437E+3  -4.57807E+2
   9.45485E+2   1.93707E+2
   1.87874E+3  -1.19803E+3
   2.33545E+2  -2.23823E+2
   1.40998E+3   1.35742E+3
  -6.72217E+1   2.38343E+3
  -7.08769E+2   1.36646E+3
  -1.00817E+3   7.65982E+2
   1.20351E+3   1.16723E+3
  -1.51357E+3  -9.25105E+2
   1.17806E+3   2.35010E+2
   7.58295E+2  -1.38285E+3
   4.06232E+2  -2.67641E+0
  -1.22734E+3   1.09399E+3
  -7.34034E+2  -5.66748E+2
   8.12338E+2   8.23327E+2
  -4.55703E+2   1.38355E+1
   6.69889E+2   1.76559E+3
  -4.51192E+2   2.55509E+3
  -5.56309E+2   4.81993E+2
   2.08178E+3  -3.65990E+2
   3.70871E+2  -8.00898E+1
   1.91432E+3   1.83347E+3
   4.08653E+2   1.88391E+2
  -1.85646E+3   1.87685E+2
   1.39239E+3  -1.14172E+1
  -4.77468E+2  -1.24684E+2
  -1.71198E+3   1.52300E+2
  -1.04470E+2  -1.40493E+3
  -1.38396E+3  -5.16078E+2
   1.86637E+3  -1.00924E+2
   1.04951E+3   1.90549E+3
   5.52227E+2  -8.36299E+2
   3.17766E+1  -9.28641E+2
   1.71120E+3  -1.85083E+3
   7.28067E+2   5.34421E+2
   7.60804E+2  -1.70747E+2
  -9.69625E+2  -5.57878E+2
   1.73176E+3  -5.95011E+2
   2.41194E+2  -3.53559E+2
   6.81067E+2   1.23246E+3
