 
 $NMID
 ID=''
 FMTDAT='(2E13.5)'
 TRAMP=   1.00000E+0
 VOLUME=   1.00000E+0
 $END
  -1.23233E+4   1.42736E+4
  -4.08725E+4   2.63125E+4
  -3.57000E+4   3.26401E+4
  -3.29683E+4   2.96203E+4
  -3.52760E+4   2.94872E+4
  -3.40383E+4   3.06194E+4
  -3.31220E+4   2.85791E+4
  -3.43135E+4   2.78227E+4
  -3.35771E+4   2.83241E+4
  -3.29450E+4   2.66548E+4
  -3.36202E+4   2.59015E+4
  -3.27926E+4   2.61640E+4
  -3.22234E+4   2.50042E+4
  -3.26503E+4   2.42684E+4
  -3.21794E+4   2.41434E+4
  -3.15097E+4   2.30390E+4
  -3.18241E+4   2.24071E+4
  -3.13475E+4   2.21412E+4
  -3.08477E+4   2.13454E+4
  -3.08784E+4   2.06928E+4
  -3.04251E+4   2.02967E+4
  -2.97757E+4   1.96755E+4
  -2.98146E+4   1.89684E+4
  -2.93329E+4   1.85227E+4
  -2.87030E+4   1.77218E+4
  -2.84557E+4   1.72007E+4
  -2.79376E+4   1.67295E+4
  -2.74240E+4   1.59610E+4
  -2.71407E+4   1.52766E+4
  -2.65147E+4   1.48286E+4
  -2.59421E+4   1.43371E+4
  -2.55825E+4   1.38258E+4
  -2.50957E+4   1.33842E+4
  -2.44649E+4   1.29093E+4
  -2.40397E+4   1.25716E+4
  -2.35470E+4   1.22596E+4
  -2.28930E+4   1.17514E+4
  -2.24040E+4   1.15242E+4
  -2.18808E+4   1.11942E+4
  -2.13681E+4   1.08735E+4
  -2.09627E+4   1.05873E+4
  -2.06066E+4   1.02288E+4
  -2.00598E+4   9.85905E+3
  -1.95658E+4   9.55826E+3
  -1.92512E+4   9.38875E+3
  -1.87349E+4   9.07789E+3
  -1.84311E+4   8.89078E+3
  -1.80783E+4   8.69726E+3
  -1.76240E+4   8.43817E+3
  -1.73872E+4   8.18116E+3
  -1.71043E+4   7.94887E+3
  -1.67059E+4   7.74625E+3
  -1.64037E+4   7.54846E+3
  -1.61576E+4   7.37876E+3
  -1.59199E+4   7.19147E+3
  -1.57443E+4   6.92482E+3
  -1.55431E+4   6.65485E+3
  -1.52659E+4   6.43361E+3
  -1.49817E+4   6.15256E+3
  -1.47817E+4   5.81272E+3
  -1.45229E+4   5.58883E+3
  -1.43807E+4   5.42906E+3
  -1.42192E+4   5.09091E+3
  -1.40103E+4   4.79140E+3
  -1.38144E+4   4.52066E+3
  -1.36252E+4   4.25628E+3
  -1.34125E+4   3.96559E+3
  -1.32497E+4   3.65429E+3
  -1.30538E+4   3.39968E+3
  -1.29415E+4   3.11966E+3
  -1.27933E+4   2.72026E+3
  -1.25846E+4   2.37443E+3
  -1.25262E+4   2.07762E+3
  -1.22806E+4   1.70672E+3
  -1.21329E+4   1.30427E+3
  -1.19569E+4   1.03038E+3
  -1.17932E+4   6.68976E+2
  -1.15713E+4   2.88274E+2
  -1.13931E+4  -5.80423E+1
  -1.11632E+4  -4.26846E+2
  -1.09567E+4  -8.20512E+2
  -1.06977E+4  -1.29794E+3
  -1.04732E+4  -1.65534E+3
  -1.01919E+4  -2.01357E+3
  -9.96427E+3  -2.40366E+3
  -9.58424E+3  -2.80436E+3
  -9.23611E+3  -3.24063E+3
  -9.00256E+3  -3.54317E+3
  -8.66384E+3  -3.88904E+3
  -8.33571E+3  -4.22472E+3
  -7.94552E+3  -4.55951E+3
  -7.62476E+3  -4.89579E+3
  -7.17738E+3  -5.16906E+3
  -6.76347E+3  -5.37824E+3
  -6.35940E+3  -5.63329E+3
  -5.95055E+3  -5.86634E+3
  -5.52185E+3  -6.03705E+3
  -5.18902E+3  -6.31965E+3
  -4.77319E+3  -6.39414E+3
  -4.35050E+3  -6.56632E+3
  -3.95552E+3  -6.74627E+3
  -3.54448E+3  -6.78429E+3
  -3.11611E+3  -6.87140E+3
  -2.73951E+3  -6.86177E+3
  -2.30888E+3  -7.01559E+3
  -1.92691E+3  -6.99812E+3
  -1.53485E+3  -6.99862E+3
  -1.18320E+3  -6.96171E+3
  -8.32009E+2  -6.94954E+3
  -4.44884E+2  -6.84540E+3
  -9.29604E+1  -6.71594E+3
   1.82104E+2  -6.70653E+3
   5.12266E+2  -6.52904E+3
   7.97054E+2  -6.42039E+3
   1.04009E+3  -6.30147E+3
   1.35710E+3  -6.13761E+3
   1.56754E+3  -5.94981E+3
   1.77740E+3  -5.83559E+3
   2.01319E+3  -5.67742E+3
   2.17253E+3  -5.41058E+3
   2.34261E+3  -5.22556E+3
   2.37355E+3  -5.02482E+3
   2.61617E+3  -4.85035E+3
   2.70337E+3  -4.62928E+3
   2.79149E+3  -4.47996E+3
   2.86765E+3  -4.22465E+3
   2.92333E+3  -4.05582E+3
   2.96727E+3  -3.85652E+3
   2.97269E+3  -3.62727E+3
   2.97534E+3  -3.44362E+3
   2.90730E+3  -3.26971E+3
   2.90881E+3  -3.11819E+3
   2.89789E+3  -2.86275E+3
   2.90308E+3  -2.79350E+3
   2.82102E+3  -2.63605E+3
   2.76938E+3  -2.45344E+3
   2.76042E+3  -2.32522E+3
   2.67999E+3  -2.17513E+3
   2.56994E+3  -2.05652E+3
   2.45525E+3  -2.00514E+3
   2.39101E+3  -1.89561E+3
   2.30132E+3  -1.73945E+3
   2.20506E+3  -1.64740E+3
   2.14201E+3  -1.52724E+3
   1.94517E+3  -1.49299E+3
   1.93076E+3  -1.43206E+3
   1.79095E+3  -1.36520E+3
   1.64423E+3  -1.30794E+3
   1.58015E+3  -1.25165E+3
   1.49482E+3  -1.18798E+3
   1.40410E+3  -1.15127E+3
   1.25170E+3  -1.14839E+3
   1.24373E+3  -1.06947E+3
   1.12362E+3  -1.04166E+3
   9.88248E+2  -1.08653E+3
   9.22900E+2  -1.00796E+3
   8.73699E+2  -1.04867E+3
   7.82898E+2  -9.45970E+2
   7.05634E+2  -8.83121E+2
   6.49879E+2  -9.44857E+2
   5.80670E+2  -9.47972E+2
   5.07162E+2  -8.85922E+2
   4.08665E+2  -8.66376E+2
   3.40970E+2  -8.96362E+2
   3.46798E+2  -8.46345E+2
   2.35133E+2  -8.44961E+2
   1.83021E+2  -8.09559E+2
   1.74273E+2  -9.01523E+2
   1.70175E+2  -8.18486E+2
   4.05603E+1  -8.32904E+2
   2.13731E+1  -7.73607E+2
  -2.92931E+1  -7.59846E+2
  -6.42859E+1  -7.88982E+2
  -7.27012E+1  -7.85148E+2
  -1.13837E+2  -7.55037E+2
  -8.32883E+1  -7.52160E+2
  -1.84381E+2  -7.99365E+2
  -1.63685E+2  -6.81724E+2
  -2.27662E+2  -7.13230E+2
  -1.76776E+2  -6.76319E+2
  -2.69677E+2  -6.89547E+2
  -2.65068E+2  -6.06772E+2
  -2.85699E+2  -6.00214E+2
  -3.82556E+2  -6.38778E+2
  -3.21718E+2  -6.31500E+2
  -2.93181E+2  -6.67481E+2
  -3.76874E+2  -6.59170E+2
  -3.76378E+2  -5.98729E+2
  -4.35883E+2  -6.16447E+2
  -4.19999E+2  -5.67717E+2
  -3.89919E+2  -5.98909E+2
  -4.58626E+2  -5.41526E+2
  -4.86477E+2  -5.94634E+2
  -4.29511E+2  -5.99608E+2
  -4.30372E+2  -5.79891E+2
  -4.34851E+2  -5.39842E+2
  -4.79314E+2  -5.78161E+2
  -5.56255E+2  -5.30923E+2
  -5.29582E+2  -5.10264E+2
  -5.20035E+2  -4.30346E+2
  -5.28099E+2  -5.30639E+2
  -5.26459E+2  -5.61851E+2
  -4.86157E+2  -5.02674E+2
  -4.62360E+2  -5.22109E+2
  -4.57218E+2  -5.30095E+2
  -5.25197E+2  -5.17783E+2
  -5.13974E+2  -5.02129E+2
  -4.49014E+2  -4.89332E+2
  -4.92974E+2  -4.71839E+2
  -4.61526E+2  -4.24973E+2
  -4.24657E+2  -4.28278E+2
  -4.89267E+2  -4.35402E+2
  -4.34012E+2  -3.92322E+2
  -4.37390E+2  -3.92825E+2
  -4.50230E+2  -3.59890E+2
  -3.38738E+2  -3.21056E+2
  -3.74904E+2  -2.89057E+2
  -3.77274E+2  -3.38630E+2
  -3.37269E+2  -3.51795E+2
  -4.12765E+2  -3.45725E+2
  -3.14347E+2  -3.00533E+2
  -3.99052E+2  -2.61793E+2
  -3.04216E+2  -2.73001E+2
  -3.18705E+2  -2.62988E+2
  -3.17782E+2  -2.21246E+2
  -3.15399E+2  -2.43421E+2
  -3.08209E+2  -2.74668E+2
  -3.30592E+2  -1.38491E+2
  -2.55605E+2  -2.19408E+2
  -2.25994E+2  -1.88989E+2
  -2.06928E+2  -1.21919E+2
  -2.89293E+2  -2.02767E+2
  -3.67280E+2  -1.17904E+2
  -2.19725E+2  -1.06865E+2
  -2.56396E+2  -8.59404E+1
  -2.74680E+2  -6.90239E+1
  -2.39590E+2  -5.94509E+1
  -2.53883E+2  -1.35380E+2
  -2.47655E+2  -1.25337E+2
  -2.14960E+2  -7.21786E+1
  -1.91915E+2  -5.38569E+1
  -1.42704E+2  -1.50869E+1
  -2.26978E+2  -4.73235E+1
  -1.47711E+2   1.13110E+1
  -1.68626E+2  -5.65013E+1
  -1.90566E+2  -3.89243E+1
  -1.44465E+2   3.36655E+1
  -1.78914E+2  -3.34300E+1
  -1.08951E+2   3.06179E+1
  -1.20909E+2   6.19171E+1
  -1.38803E+2  -1.94444E+1
  -9.31734E+1   1.27440E+1
  -8.64580E+1   2.30127E+1
  -1.68059E+2  -1.63198E+1
  -4.17532E+1  -1.74969E+1
  -1.08601E+2   1.30888E+2
  -3.69846E+1  -2.80615E+1
  -7.72274E+1   1.81684E+1
  -1.43064E+1   9.99782E+1
  -3.04546E+0   1.18815E+2
  -1.23432E+1   4.94320E+1
   5.99976E+1   5.35226E+1
   2.14564E+1   4.76528E+1
  -1.27738E+1   3.29782E+1
   2.83915E+1   2.46899E+1
   1.44010E+1   5.90347E+1
   8.05583E+1   4.47562E+1
   1.12537E+1   2.50603E+1
   1.39056E+2   4.36980E+1
   7.73385E+1   1.10029E+2
   5.87561E+1   6.59738E+1
   8.54324E+1   7.36492E+1
   1.59911E+2   5.90629E+1
   1.48364E+2   8.06661E+1
   1.65511E+2   6.04262E+1
   1.77703E+2   4.24193E+0
   2.30303E+2   1.11067E+2
   1.85763E+2   1.60800E+2
   1.89683E+2   6.10021E+1
   1.85178E+2   7.61853E+1
   2.40683E+2   7.77859E+1
   2.59533E+2   9.03928E+1
   2.54621E+2   1.53750E+2
   2.69942E+2   7.78916E+1
   2.43474E+2   1.21898E+2
   2.19506E+2   1.05175E+2
   2.88491E+2   1.11943E+2
   2.67539E+2   7.11542E+1
   2.46930E+2   8.85423E+1
   2.99215E+2   9.22644E+1
   2.95060E+2   1.12421E+2
   3.60061E+2   1.33005E+2
   3.42473E+2   1.36726E+2
   3.55459E+2   1.62448E+2
   3.03532E+2   1.05734E+2
   3.82594E+2   1.25829E+2
   3.33440E+2   1.55463E+2
   3.35132E+2   1.49585E+2
   3.53888E+2   1.42823E+2
   3.39623E+2   1.41097E+2
   3.89827E+2   1.34459E+2
   3.62727E+2   1.18405E+2
   4.10362E+2   1.46499E+2
   3.44475E+2   1.22046E+2
   4.11903E+2   1.54553E+2
   4.10590E+2   8.71894E+1
   4.67761E+2   1.58601E+2
   5.15718E+2   1.32396E+2
   3.79432E+2   1.14360E+2
   4.97431E+2   1.29277E+2
   5.03198E+2   1.76993E+2
   4.67221E+2   1.52202E+2
   4.81312E+2   1.20555E+2
   4.75654E+2   8.30756E+1
   5.19179E+2   6.73343E+1
   5.63451E+2   1.69153E+2
   5.33470E+2   1.56468E+2
   4.52299E+2   1.84959E+2
   5.73797E+2   1.25080E+2
   5.25614E+2   1.59801E+2
   5.90221E+2   1.33833E+2
   5.61089E+2   1.52355E+2
   5.22810E+2   2.35188E+2
   6.15766E+2   1.94129E+2
   5.32007E+2   1.61461E+2
   5.84272E+2   1.40365E+2
   6.05272E+2   1.90369E+2
   6.12943E+2   2.42712E+2
   5.65728E+2   1.93029E+2
   6.35006E+2   1.65822E+2
   5.71435E+2   2.22596E+2
   6.05923E+2   2.31530E+2
   6.88423E+2   2.96233E+2
   6.32689E+2   2.31789E+2
   6.77712E+2   3.71065E+2
   6.26077E+2   3.30517E+2
   6.52839E+2   2.75193E+2
   6.18554E+2   2.76253E+2
   6.02444E+2   2.44854E+2
   6.23650E+2   3.01483E+2
   6.01934E+2   2.75058E+2
   6.56973E+2   2.62312E+2
   6.56024E+2   2.40564E+2
   6.56330E+2   3.05524E+2
   6.20755E+2   3.02995E+2
   6.01206E+2   2.78710E+2
   6.18338E+2   2.88998E+2
   6.19977E+2   3.39344E+2
   6.48598E+2   2.54587E+2
   6.45812E+2   2.30505E+2
   5.84281E+2   2.96831E+2
   5.97574E+2   3.19878E+2
   7.13226E+2   3.46224E+2
   6.30142E+2   3.33475E+2
   5.75581E+2   2.84128E+2
   6.74249E+2   3.94489E+2
   6.77231E+2   3.10784E+2
   6.85982E+2   3.73197E+2
   6.10006E+2   3.25881E+2
   6.80967E+2   3.26760E+2
   6.35810E+2   2.90746E+2
   6.77360E+2   2.99102E+2
   5.68953E+2   3.57554E+2
   6.19637E+2   4.19772E+2
   6.99710E+2   3.38427E+2
   6.28628E+2   3.64785E+2
   6.81382E+2   3.47671E+2
