 
 $NMID
 ID=''
 FMTDAT='(2E13.5)'
 TRAMP=   1.00000E+0
 VOLUME=   1.00000E+0
 $END
   2.18687E+2  -1.41213E+2
   4.28877E+2   3.87128E+2
   1.47780E+2  -9.81319E+2
   5.19268E+2  -5.29597E+2
  -6.04349E+2  -8.48776E+2
   5.97119E+2  -9.86029E+2
  -8.40437E+2   9.74216E+1
   1.92666E+3   3.69036E+2
  -1.33162E+3  -1.64594E+3
  -1.79654E+3  -9.42438E+2
  -2.39109E+3  -7.62646E+2
   4.09493E+2  -2.00345E+3
   1.80476E+3  -4.33795E+2
  -1.39932E+2   2.41493E+3
  -4.73797E+2   2.22316E+3
  -8.66941E+2   6.82927E+1
   6.69984E+2  -3.28987E+2
   1.11591E+3  -1.14957E+3
  -6.42134E+1   9.43292E+2
   3.36532E+2  -4.53329E+2
   1.11472E+3  -1.38474E+3
   2.60690E+3  -1.99885E+1
   8.78773E+2   1.28715E+3
  -1.27963E+3   1.13878E+3
   1.35122E+3  -6.90429E+2
   2.53980E+3  -1.52559E+3
   1.74112E+2   5.92055E+2
  -2.61061E+3   9.41263E+2
  -2.98524E+3  -1.29177E+3
  -8.30709E+2  -2.28151E+3
   3.31847E+3  -6.91449E+2
   3.70364E+3   2.63081E+3
  -8.38393E+2   2.66285E+3
  -1.77770E+3   1.26304E+3
  -1.26960E+3   1.77137E+3
  -2.73174E+3   2.58206E+3
  -2.39995E+3  -2.49509E+3
   3.50850E+3  -2.85191E+3
   1.18047E+3   3.01926E+2
   2.25754E+2   6.56181E+2
   2.10162E+3  -4.86774E+2
  -1.06684E+3   1.79078E+3
  -1.95285E+3   1.47146E+2
  -1.66022E+3  -1.34961E+3
   1.09024E+3  -1.14180E+3
   1.23364E+3  -1.97712E+3
   6.43239E+2  -1.08085E+3
   1.71714E+3  -9.53043E+2
   5.12223E+2  -1.06668E+2
  -1.28604E+1   1.01861E+3
  -2.02808E+3  -3.35356E+1
  -3.46966E+3   1.22856E+2
  -2.97976E+2  -2.01693E+3
  -8.40668E+2  -1.46292E+3
   5.41934E+2   8.33448E+2
   1.56458E+3   2.13578E+3
   1.62155E+3   1.54193E+2
  -6.14292E+2   1.85455E+3
  -8.21217E+2   2.07894E+2
   3.53152E+2   7.12677E+2
  -1.81662E+2  -5.58871E+2
  -9.66347E+2  -5.27571E+2
  -3.18731E+2   6.76819E+2
  -5.50759E+2   2.72668E+3
  -1.52769E+2  -2.17355E+2
   2.30446E+3  -7.74194E+2
   1.30402E+3   1.70378E+3
   6.96559E+2   7.41099E+2
  -2.18852E+3   2.17893E+3
  -2.82411E+2   1.30066E+3
  -1.70241E+3  -1.65263E+3
  -5.32062E+2  -3.84254E+2
  -2.14060E+3   3.71298E+2
  -9.79729E+2  -7.37574E+2
  -4.52457E+2  -1.40340E+3
   7.30782E+2  -2.95423E+1
   1.06857E+3   2.97401E+3
  -1.63674E+3   2.44120E+2
   1.52358E+3  -1.56265E+3
   1.27792E+3   5.42984E+2
   1.98772E+3   1.69837E+3
   8.15544E+2   2.04286E+2
  -4.44069E+1  -1.01201E+3
   5.01233E+2   1.44847E+3
   1.88350E+2  -1.68081E+2
  -4.13156E+2   1.48683E+2
  -1.80373E+3  -7.71486E+2
   1.09656E+3  -1.63730E+3
  -2.90001E+2   1.25846E+3
  -1.17302E+3   1.71274E+3
   9.32719E+2   1.05402E+3
   2.36349E+3  -1.34333E+3
   2.66037E+3  -7.72870E+2
  -3.30408E+2  -7.49781E+2
  -1.60926E+3   8.76551E+2
  -1.71350E+3  -1.34207E+3
  -6.84492E+2  -1.21745E+3
  -3.51195E+2  -5.83610E+2
   3.37782E+1  -1.79522E+3
  -2.86160E+2  -6.86847E+2
  -5.79064E+2  -1.24137E+3
   2.30722E+2  -4.77574E+2
  -2.93070E+2  -1.08306E+3
  -1.86621E+3   1.33723E+3
   5.00290E+2   1.11140E+2
  -1.35266E+3  -6.45851E+2
  -3.38142E+2  -8.08396E+2
  -6.46455E+2  -1.28758E+3
  -7.19239E+1  -5.14577E+2
   1.10127E+3  -1.19711E+3
   1.12521E+3  -2.05024E+2
  -3.13850E+2   1.31093E+3
  -4.32568E+2   1.85874E+3
   1.43710E+3  -5.51567E+1
  -1.05607E+3   1.85919E+3
  -2.01856E+3   8.70604E+1
  -2.30289E+2  -9.71708E+2
   1.17039E+1  -1.61954E+3
  -1.93230E+3  -1.52724E+3
   7.04077E+1  -1.48384E+3
  -7.17501E+2   8.48503E+2
  -1.53168E+3   1.13469E+3
  -1.55282E+3   3.86215E+2
   1.65311E+3  -2.02735E+1
   7.20833E+2  -8.47434E+2
   3.49391E+2   2.89306E+3
  -1.27566E+3   1.11673E+3
   1.79262E+0   1.50934E+3
  -2.17675E+3  -1.51723E+2
  -2.11276E+3  -2.82890E+3
  -2.45288E+3  -1.08476E+3
  -2.18888E+2  -2.58105E+2
  -1.57112E+3  -2.89058E+2
   4.01662E+2  -2.14852E+2
   3.64392E+2  -5.62331E+2
  -5.26144E+2  -1.77916E+3
   7.53586E+2  -2.58193E+3
   7.15607E+2   1.41169E+1
   6.41331E+2  -5.03762E+2
  -5.32779E+2  -5.15992E+1
   5.54972E+2   8.77189E+2
   6.28359E+2   5.85534E+2
  -5.23400E+2   3.16193E+2
  -1.77832E+2   1.30474E+3
   9.64206E+1   5.09864E+2
  -5.59235E+2  -1.59478E+3
   3.71816E+1  -2.84852E+3
   2.35428E+2  -4.38344E+2
   6.89315E+2   1.21759E+2
  -1.25637E+3  -4.02122E+2
  -6.79119E+2  -1.57038E+3
   1.43141E+3  -1.24602E+3
   1.37484E+3   1.81206E+3
   1.25021E+3   7.13041E+2
  -3.86247E+2  -8.34622E+2
   6.85221E+2  -1.55229E+2
   1.41332E+2   4.04249E+2
   1.18401E+3  -1.58453E+3
   4.75166E+2  -1.25519E+2
   4.24775E+2   3.48577E+2
   2.57969E+2   3.38688E+2
  -5.60478E+2   9.04978E+2
   1.85453E+3   1.67590E+2
   8.61794E+2  -8.67162E+1
   4.17886E+2   1.20382E+3
   5.12241E+2  -2.78942E+2
   8.09496E+2   2.51488E+2
   1.52862E+3   1.31578E+3
  -9.30767E+2  -1.03693E+3
  -2.39587E+3   1.16582E+2
   7.34915E+0   1.72766E+2
  -5.58144E+2  -1.94351E+3
  -5.77347E+1   1.64077E+3
   5.90889E+2  -7.35277E+2
  -9.73192E+2  -3.07106E+2
   7.88166E+2   4.99319E+1
   1.39595E+3   2.45167E+3
   8.74683E+2   1.13798E+3
   9.93464E+2  -4.37339E+2
   2.67509E+2   5.42720E+1
   9.19213E+2  -4.67982E+2
   1.21138E+2  -3.08297E+2
   1.72527E+3   3.37153E+2
  -7.18331E+1  -3.25320E+2
  -6.19878E+2   7.88909E+2
   3.89610E+2   1.08679E+2
  -2.67915E+1   5.40623E+2
  -1.21589E+3  -2.18039E+3
  -6.45655E+2   2.51431E+2
  -2.36685E+3   3.55475E+2
   1.68358E+3  -7.91784E+2
   4.00235E+2  -2.73771E+2
  -4.03639E+2  -3.25930E+2
   7.84214E+2  -1.01619E+3
   1.90768E+2  -6.59532E+2
  -9.16164E+2  -6.48867E+2
  -5.10902E+2  -1.91916E+3
   2.01439E+3  -1.48196E+3
   6.37391E+1  -2.62724E+2
   2.26159E+2  -1.19355E+3
   5.58874E+2  -1.07951E+3
   1.72571E+3  -6.17866E+2
   7.54362E+1  -1.78156E+2
  -1.39548E+2   5.47975E+2
  -5.48967E+2  -7.55503E+1
  -5.86347E+2  -1.33912E+3
  -2.97303E+3   1.07382E+3
  -8.49955E+2  -1.29452E+3
  -2.09628E+3  -2.96807E+2
  -2.84419E+3   1.26597E+3
   1.85416E+2  -1.22335E+3
   1.27286E+3  -2.39285E+2
   7.94239E+2   5.78877E+2
  -6.33146E+2  -1.02872E+2
   1.00769E+1   2.09677E+3
   1.34155E+3  -8.11529E+2
  -6.71202E+2  -4.48703E+2
   3.10244E+2  -1.12273E+3
  -8.51468E+2  -5.16504E+2
  -1.32540E+3   8.06722E+2
   5.93158E+2   1.06855E+3
  -1.47151E+2  -1.37864E+1
   1.42072E+3  -1.40155E+2
  -8.70670E+2   1.20189E+2
   5.42478E+2   4.68458E+2
  -1.73972E+3   1.24278E+3
   4.49745E+2   2.49989E+2
   6.47506E+2  -9.10722E+2
   3.36393E+2   1.40883E+3
  -7.65713E+1  -1.71742E+3
  -7.98075E+2  -9.55590E+2
  -3.70904E+2  -1.45631E+3
  -8.26007E+2   2.87164E+2
  -9.08622E+2   9.99372E+2
  -2.05165E+3  -7.41723E+2
   9.12762E+2  -5.90531E+1
   7.51952E+2   1.16315E+2
  -1.09394E+2  -2.16218E+2
   1.87616E+3   2.69040E+2
   3.79671E+2   1.78500E+3
  -4.64299E+2  -2.67096E+1
  -1.22440E+2  -2.02406E+2
  -7.02908E+2   1.42547E+3
  -2.00814E+3   9.39196E+1
   4.01933E+0  -1.10580E+3
   8.55068E+2   1.73217E+3
  -2.10629E+3   8.37497E+2
   1.23070E+3   1.49770E+3
   1.79556E+3   1.01971E+2
  -2.12754E+2   9.53204E+2
   4.38699E+2  -1.21466E+2
   9.22068E+1  -5.24723E+2
  -1.96712E+3   3.16313E+2
   4.48773E+2  -3.97279E+2
   5.80358E+1  -5.75085E+2
   5.47833E+2  -9.50601E+2
   6.25449E+2   8.55015E+2
   1.83644E+3  -8.60868E+2
   7.03119E+2   4.66302E+2
   7.41533E+2  -1.23966E+2
   4.24961E+2   1.79902E+3
   2.17706E+3   1.48318E+3
   1.44079E+3  -5.82576E+2
   7.32292E+2   1.93766E+3
   5.38238E+1   2.25090E+2
  -1.80041E+3  -6.35393E+2
  -5.26946E+2  -8.26821E+2
  -9.51854E+2  -8.64879E+2
   9.14052E+2  -1.00984E+3
   3.92875E+2  -5.28670E+1
  -1.74741E+3  -8.01381E+2
   7.38817E+2   5.90888E+2
   3.80136E+2  -1.66100E+3
   2.15166E+2   1.14942E+3
  -5.50617E+2  -1.50406E+3
   1.07808E+3   9.29121E+1
   7.88959E+2  -1.05518E+3
   5.92279E+2   1.97560E+2
   7.42581E+2   1.02373E+3
   2.21370E+3  -4.03729E+2
   1.66151E+3   1.63106E+3
   1.63462E+1   1.44248E+3
  -6.60305E+2   1.30270E+3
  -4.09825E+2   1.65807E+3
   2.51472E+3   6.45373E+2
   1.21133E+3  -1.44842E+3
  -5.49863E+2   2.26198E+3
   7.40011E+2   1.03127E+3
  -3.06510E+2   3.56866E+2
  -2.59650E+1   2.25866E+2
   4.06275E+2  -1.46086E+3
  -8.31477E+2   1.69117E+3
  -2.94192E+2  -4.91211E+2
   1.39363E+3  -1.00438E+3
  -6.63294E+2   7.33262E+2
   4.05283E+2   1.00148E+3
  -5.98366E+2   6.06322E+2
   7.63259E+2   2.33225E+2
   1.43814E+3  -5.37106E+2
  -1.06925E+3  -7.58744E+2
   2.62010E+1   1.86803E+2
  -2.07527E+3  -3.24478E+2
   6.95192E+1   1.83817E+3
  -9.91361E+2  -3.16948E+2
   3.45733E+1  -1.08326E+3
  -1.39171E+3  -5.95997E+2
  -3.68513E+1   2.19640E+3
  -9.77145E+2   9.01372E+1
  -3.42565E+3   4.37225E+2
  -1.45658E+3   2.40302E+3
  -4.15412E+1  -3.80953E+2
   1.40254E+2   1.84909E+3
  -1.22963E+3   1.22348E+2
   8.97778E+2  -1.00803E+2
  -6.13977E+2   4.79192E+2
   1.09278E+3   2.81004E+0
  -1.49956E+2   2.03835E+3
   6.66858E+1   8.59306E+2
  -6.89144E+2  -6.32844E+2
   1.69293E+3  -3.69007E+2
  -1.83798E+3   1.30990E+3
  -1.79867E+3   5.53937E+2
  -1.14987E+3  -7.62018E+2
  -7.76858E+2   9.85872E+2
  -2.75421E+2  -2.06497E+3
   4.03521E+2   1.03657E+3
  -4.30664E+2  -2.57826E+2
  -1.46113E+3   1.07160E+3
  -3.98687E+2   4.51669E+2
   8.40251E+2   5.30473E+2
  -1.65821E+3  -1.29629E+3
   2.58463E+3   2.98770E+3
   6.65874E+1   2.10201E+2
   9.46179E+2   1.84405E+3
   7.35599E+2   2.03288E+3
  -4.19612E+2  -2.68320E+2
  -1.23915E+3  -1.49637E+3
  -6.60698E+2   9.43433E+2
  -5.59101E+2  -8.41406E+2
  -3.87560E+1   1.52321E+3
  -1.70582E+3  -1.03705E+3
  -1.21204E+2   1.04560E+3
  -2.21956E+3  -5.26710E+2
  -1.08600E+3   6.89807E+2
  -3.00989E+2   1.13940E+3
  -1.91490E+2  -1.32421E+3
   1.77121E+3   1.77519E+3
   1.61990E+2  -7.24292E+2
   9.72326E+1   8.94423E+2
  -1.12194E+3  -1.96666E-1
   1.82836E+3   2.02288E+3
   4.20737E+2  -2.69518E+2
  -1.67912E+2   2.36165E+3
  -5.87993E+2   7.43229E+2
  -2.32619E+1   3.22803E+2
  -1.34547E+3  -1.74846E+2
  -2.45958E+2   2.02382E+3
  -6.55430E+2   9.76145E+2
   1.11614E+3  -1.26736E+2
   3.09367E+2  -1.10886E+3
   3.80350E+1   4.50918E+2
  -3.61196E+2   1.66060E+3
   9.95974E+2  -5.61325E+2
   1.55953E+1  -1.09416E+1
   1.07279E+2  -2.07984E+2
  -8.47716E+2  -1.14732E+3
   1.12421E+2   6.85493E+2
