 
 $NMID
 ID=''
 FMTDAT='(2E13.5)'
 TRAMP=   1.00000E+0
 VOLUME=   1.00000E+0
 $END
  -1.86652E+4   8.31507E+3
  -5.20547E+4   7.16251E+3
  -4.97936E+4   1.62752E+4
  -4.57660E+4   1.52312E+4
  -4.80557E+4   1.44187E+4
  -4.73870E+4   1.66614E+4
  -4.56800E+4   1.56969E+4
  -4.65281E+4   1.50019E+4
  -4.60756E+4   1.63978E+4
  -4.48335E+4   1.56815E+4
  -4.52794E+4   1.51240E+4
  -4.48482E+4   1.61102E+4
  -4.39863E+4   1.58646E+4
  -4.43630E+4   1.52760E+4
  -4.39576E+4   1.58419E+4
  -4.30983E+4   1.56004E+4
  -4.32708E+4   1.52601E+4
  -4.29078E+4   1.56810E+4
  -4.21561E+4   1.55250E+4
  -4.21898E+4   1.52143E+4
  -4.17053E+4   1.55299E+4
  -4.10679E+4   1.56723E+4
  -4.09969E+4   1.56207E+4
  -4.07288E+4   1.57116E+4
  -4.00741E+4   1.57326E+4
  -3.99293E+4   1.57295E+4
  -3.96808E+4   1.59207E+4
  -3.91928E+4   1.57221E+4
  -3.91082E+4   1.56004E+4
  -3.87857E+4   1.57311E+4
  -3.83072E+4   1.58475E+4
  -3.82842E+4   1.58086E+4
  -3.81229E+4   1.58265E+4
  -3.77548E+4   1.57274E+4
  -3.75398E+4   1.56929E+4
  -3.73021E+4   1.57581E+4
  -3.69378E+4   1.56969E+4
  -3.66115E+4   1.56772E+4
  -3.64585E+4   1.58018E+4
  -3.61327E+4   1.57561E+4
  -3.59628E+4   1.56391E+4
  -3.58021E+4   1.55691E+4
  -3.54774E+4   1.53704E+4
  -3.51687E+4   1.52982E+4
  -3.48810E+4   1.53859E+4
  -3.45817E+4   1.52824E+4
  -3.44044E+4   1.52341E+4
  -3.41141E+4   1.52401E+4
  -3.38191E+4   1.51948E+4
  -3.36084E+4   1.51384E+4
  -3.34014E+4   1.51063E+4
  -3.30484E+4   1.50531E+4
  -3.27425E+4   1.50191E+4
  -3.24664E+4   1.50110E+4
  -3.22566E+4   1.50394E+4
  -3.19892E+4   1.49226E+4
  -3.17062E+4   1.48577E+4
  -3.14728E+4   1.48306E+4
  -3.11962E+4   1.47139E+4
  -3.07969E+4   1.47141E+4
  -3.05036E+4   1.46512E+4
  -3.02270E+4   1.46754E+4
  -2.99874E+4   1.47498E+4
  -2.97759E+4   1.46995E+4
  -2.94325E+4   1.46297E+4
  -2.90328E+4   1.46387E+4
  -2.88161E+4   1.46728E+4
  -2.86284E+4   1.47310E+4
  -2.82491E+4   1.45879E+4
  -2.80695E+4   1.46207E+4
  -2.78796E+4   1.46642E+4
  -2.76451E+4   1.46015E+4
  -2.74243E+4   1.46619E+4
  -2.71811E+4   1.46838E+4
  -2.68963E+4   1.46502E+4
  -2.66799E+4   1.47359E+4
  -2.64372E+4   1.47191E+4
  -2.62573E+4   1.47607E+4
  -2.59974E+4   1.46827E+4
  -2.58311E+4   1.47905E+4
  -2.56299E+4   1.47518E+4
  -2.54504E+4   1.47124E+4
  -2.52378E+4   1.46938E+4
  -2.50062E+4   1.47248E+4
  -2.48723E+4   1.47470E+4
  -2.46552E+4   1.46624E+4
  -2.44378E+4   1.46039E+4
  -2.42983E+4   1.46285E+4
  -2.39965E+4   1.46793E+4
  -2.39104E+4   1.47229E+4
  -2.36871E+4   1.47259E+4
  -2.34719E+4   1.48084E+4
  -2.33380E+4   1.47683E+4
  -2.30927E+4   1.48354E+4
  -2.29950E+4   1.47967E+4
  -2.28185E+4   1.47164E+4
  -2.25335E+4   1.48314E+4
  -2.23575E+4   1.48767E+4
  -2.22182E+4   1.49186E+4
  -2.21139E+4   1.48719E+4
  -2.18565E+4   1.48289E+4
  -2.17134E+4   1.48431E+4
  -2.15098E+4   1.49107E+4
  -2.13664E+4   1.49330E+4
  -2.12598E+4   1.49295E+4
  -2.10264E+4   1.49253E+4
  -2.09306E+4   1.48433E+4
  -2.07711E+4   1.48532E+4
  -2.05634E+4   1.48194E+4
  -2.04425E+4   1.47480E+4
  -2.01841E+4   1.47364E+4
  -2.00723E+4   1.48260E+4
  -1.99601E+4   1.48441E+4
  -1.97738E+4   1.47430E+4
  -1.95750E+4   1.48060E+4
  -1.94102E+4   1.46853E+4
  -1.92978E+4   1.47059E+4
  -1.92131E+4   1.47017E+4
  -1.90223E+4   1.46271E+4
  -1.89046E+4   1.46053E+4
  -1.86781E+4   1.45939E+4
  -1.86027E+4   1.45375E+4
  -1.84849E+4   1.45288E+4
  -1.82719E+4   1.45208E+4
  -1.80847E+4   1.44592E+4
  -1.80111E+4   1.44958E+4
  -1.78383E+4   1.44090E+4
  -1.77411E+4   1.43362E+4
  -1.75561E+4   1.43710E+4
  -1.74312E+4   1.42393E+4
  -1.73605E+4   1.42910E+4
  -1.71700E+4   1.41551E+4
  -1.69229E+4   1.41813E+4
  -1.67779E+4   1.42035E+4
  -1.67146E+4   1.41204E+4
  -1.66172E+4   1.40501E+4
  -1.64450E+4   1.39744E+4
  -1.63391E+4   1.39443E+4
  -1.61576E+4   1.39195E+4
  -1.59787E+4   1.39413E+4
  -1.58633E+4   1.39555E+4
  -1.57262E+4   1.38518E+4
  -1.55256E+4   1.38075E+4
  -1.53925E+4   1.37802E+4
  -1.52632E+4   1.38005E+4
  -1.52118E+4   1.37679E+4
  -1.50267E+4   1.37209E+4
  -1.49213E+4   1.36635E+4
  -1.47659E+4   1.36312E+4
  -1.46522E+4   1.36088E+4
  -1.45402E+4   1.35654E+4
  -1.43287E+4   1.34678E+4
  -1.41724E+4   1.34619E+4
  -1.40468E+4   1.33582E+4
  -1.39260E+4   1.33880E+4
  -1.37681E+4   1.33813E+4
  -1.36223E+4   1.33359E+4
  -1.35645E+4   1.32422E+4
  -1.34122E+4   1.32756E+4
  -1.32425E+4   1.32673E+4
  -1.31575E+4   1.32014E+4
  -1.30148E+4   1.30947E+4
  -1.29036E+4   1.30815E+4
  -1.27441E+4   1.30602E+4
  -1.25852E+4   1.30067E+4
  -1.24917E+4   1.29022E+4
  -1.24354E+4   1.28829E+4
  -1.22311E+4   1.28391E+4
  -1.21469E+4   1.28563E+4
  -1.19488E+4   1.28170E+4
  -1.18874E+4   1.26842E+4
  -1.17085E+4   1.26726E+4
  -1.16937E+4   1.26257E+4
  -1.15215E+4   1.26059E+4
  -1.14030E+4   1.26112E+4
  -1.12623E+4   1.25032E+4
  -1.11105E+4   1.24901E+4
  -1.10324E+4   1.24312E+4
  -1.09448E+4   1.24144E+4
  -1.08693E+4   1.23735E+4
  -1.07088E+4   1.22192E+4
  -1.05715E+4   1.21681E+4
  -1.04649E+4   1.21102E+4
  -1.02995E+4   1.21131E+4
  -1.02785E+4   1.19973E+4
  -1.01365E+4   1.20033E+4
  -9.99582E+3   1.19372E+4
  -9.93974E+3   1.18591E+4
  -9.80191E+3   1.17987E+4
  -9.67597E+3   1.17697E+4
  -9.55801E+3   1.16531E+4
  -9.46450E+3   1.16578E+4
  -9.35442E+3   1.15582E+4
  -9.27997E+3   1.16269E+4
  -9.15317E+3   1.14511E+4
  -9.03112E+3   1.15062E+4
  -8.96954E+3   1.14207E+4
  -8.85187E+3   1.12852E+4
  -8.70107E+3   1.12504E+4
  -8.68503E+3   1.12506E+4
  -8.53883E+3   1.11864E+4
  -8.45495E+3   1.10834E+4
  -8.32151E+3   1.10490E+4
  -8.19014E+3   1.09075E+4
  -8.15312E+3   1.08709E+4
  -8.04933E+3   1.08746E+4
  -7.97643E+3   1.07548E+4
  -7.83534E+3   1.07348E+4
  -7.74138E+3   1.06628E+4
  -7.73079E+3   1.06900E+4
  -7.62673E+3   1.06368E+4
  -7.45287E+3   1.05169E+4
  -7.41158E+3   1.04328E+4
  -7.25333E+3   1.04311E+4
  -7.23313E+3   1.04519E+4
  -7.07770E+3   1.03624E+4
  -7.01398E+3   1.03098E+4
  -6.96441E+3   1.02416E+4
  -6.87949E+3   1.01797E+4
  -6.82119E+3   1.00598E+4
  -6.69315E+3   1.00221E+4
  -6.61922E+3   1.00016E+4
  -6.60463E+3   1.00043E+4
  -6.50075E+3   9.93760E+3
  -6.40614E+3   9.80477E+3
  -6.33613E+3   9.75594E+3
  -6.29868E+3   9.72036E+3
  -6.14270E+3   9.73193E+3
  -6.08230E+3   9.68978E+3
  -6.14105E+3   9.59162E+3
  -6.11841E+3   9.53496E+3
  -5.97658E+3   9.53375E+3
  -5.85080E+3   9.48804E+3
  -5.80084E+3   9.41636E+3
  -5.71622E+3   9.40988E+3
  -5.68022E+3   9.27917E+3
  -5.60875E+3   9.37306E+3
  -5.60042E+3   9.24098E+3
  -5.51157E+3   9.15655E+3
  -5.41002E+3   9.09357E+3
  -5.36606E+3   9.08078E+3
  -5.32145E+3   9.03285E+3
  -5.29109E+3   8.99611E+3
  -5.18764E+3   8.96961E+3
  -5.07969E+3   8.96260E+3
  -5.07044E+3   8.95067E+3
  -5.03809E+3   8.83139E+3
  -4.96537E+3   8.80776E+3
  -4.88579E+3   8.75766E+3
  -4.81532E+3   8.72268E+3
  -4.76773E+3   8.77404E+3
  -4.74946E+3   8.64313E+3
  -4.69298E+3   8.58789E+3
  -4.56392E+3   8.54421E+3
  -4.50610E+3   8.53532E+3
  -4.48889E+3   8.42055E+3
  -4.43094E+3   8.47364E+3
  -4.29454E+3   8.45384E+3
  -4.28216E+3   8.45703E+3
  -4.26752E+3   8.42702E+3
  -4.25262E+3   8.40939E+3
  -4.13921E+3   8.32581E+3
  -4.11794E+3   8.27993E+3
  -4.05059E+3   8.27453E+3
  -3.95834E+3   8.21279E+3
  -3.94538E+3   8.17516E+3
  -3.93645E+3   8.17894E+3
  -3.88323E+3   8.18654E+3
  -3.90115E+3   8.07352E+3
  -3.87349E+3   8.08510E+3
  -3.78295E+3   7.95901E+3
  -3.60823E+3   7.97256E+3
  -3.57195E+3   7.92570E+3
  -3.63513E+3   7.95369E+3
  -3.60091E+3   7.94008E+3
  -3.53064E+3   7.81501E+3
  -3.43603E+3   7.86536E+3
  -3.39391E+3   7.83022E+3
  -3.38093E+3   7.74111E+3
  -3.28533E+3   7.76748E+3
  -3.28370E+3   7.71785E+3
  -3.29402E+3   7.69929E+3
  -3.21510E+3   7.64989E+3
  -3.21441E+3   7.58278E+3
  -3.12702E+3   7.54750E+3
  -3.03438E+3   7.60128E+3
  -3.07197E+3   7.46515E+3
  -3.01223E+3   7.47101E+3
  -2.91645E+3   7.38732E+3
  -2.90861E+3   7.44071E+3
  -2.87557E+3   7.37763E+3
  -2.84639E+3   7.35355E+3
  -2.77330E+3   7.31939E+3
  -2.74973E+3   7.28316E+3
  -2.69111E+3   7.19161E+3
  -2.65734E+3   7.20856E+3
  -2.67485E+3   7.16970E+3
  -2.64329E+3   7.12317E+3
  -2.53582E+3   7.12381E+3
  -2.55898E+3   7.04801E+3
  -2.49634E+3   7.00093E+3
  -2.44956E+3   7.05119E+3
  -2.44249E+3   7.01014E+3
  -2.46238E+3   7.00307E+3
  -2.37162E+3   6.99932E+3
  -2.35052E+3   6.93616E+3
  -2.25561E+3   6.87446E+3
  -2.19278E+3   6.82006E+3
  -2.22199E+3   6.81684E+3
  -2.20941E+3   6.77931E+3
  -2.15200E+3   6.74048E+3
  -2.15222E+3   6.76780E+3
  -2.08012E+3   6.69580E+3
  -2.00750E+3   6.64175E+3
  -2.02886E+3   6.57047E+3
  -1.97425E+3   6.52601E+3
  -1.98488E+3   6.55022E+3
  -1.99551E+3   6.57421E+3
  -1.95088E+3   6.54495E+3
  -1.87194E+3   6.45151E+3
  -1.82615E+3   6.40840E+3
  -1.79917E+3   6.38285E+3
  -1.81052E+3   6.35744E+3
  -1.79309E+3   6.29145E+3
  -1.73828E+3   6.25999E+3
  -1.73924E+3   6.19525E+3
  -1.63762E+3   6.19689E+3
  -1.63267E+3   6.18313E+3
  -1.62837E+3   6.17628E+3
  -1.57311E+3   6.16769E+3
  -1.56644E+3   6.08121E+3
  -1.54345E+3   6.03900E+3
  -1.54015E+3   6.02261E+3
  -1.41122E+3   5.97572E+3
  -1.51408E+3   5.96317E+3
  -1.42496E+3   5.94668E+3
  -1.38641E+3   5.92171E+3
  -1.39388E+3   5.79997E+3
  -1.42917E+3   5.81939E+3
  -1.38952E+3   5.83514E+3
  -1.39853E+3   5.74430E+3
  -1.30606E+3   5.78455E+3
  -1.27393E+3   5.64621E+3
  -1.21563E+3   5.66878E+3
  -1.26529E+3   5.63863E+3
  -1.26444E+3   5.57184E+3
  -1.13738E+3   5.58507E+3
  -1.14782E+3   5.54256E+3
  -1.11439E+3   5.53795E+3
  -1.12205E+3   5.49167E+3
  -1.10241E+3   5.45644E+3
  -1.11533E+3   5.39523E+3
  -1.02520E+3   5.40171E+3
  -1.02107E+3   5.33366E+3
  -1.05909E+3   5.32267E+3
  -1.03073E+3   5.30036E+3
  -9.97383E+2   5.28702E+3
  -9.82239E+2   5.23689E+3
  -9.46491E+2   5.26833E+3
  -9.54660E+2   5.21945E+3
  -9.86940E+2   5.14153E+3
  -9.56690E+2   5.09214E+3
  -9.31086E+2   5.12180E+3
  -8.88693E+2   5.04157E+3
  -8.72956E+2   5.06642E+3
  -8.71898E+2   4.94386E+3
  -8.03726E+2   5.01545E+3
