 
 $NMID
 ID=''
 FMTDAT='(2E13.5)'
 TRAMP=   1.00000E+0
 VOLUME=   1.00000E+0
 $END
   2.42492E+2  -7.88383E+1
   1.69118E+3   3.74636E+2
  -2.46926E+3  -3.65388E+3
  -2.04039E+3  -1.14291E+3
  -1.20789E+3   9.97402E+2
   2.92918E+2   2.29586E+2
   6.08426E+2   1.55399E+3
  -8.87651E+2   4.05434E+3
  -1.10822E+3  -1.72269E+2
  -3.63095E+3  -4.92697E+2
  -6.61965E+2  -2.82095E+3
   2.66105E+3  -2.72223E+3
   3.75846E+3   4.16077E+3
   3.39892E+1   5.34422E+3
  -2.00377E+3  -1.51891E+2
   3.42136E+2  -4.05473E+3
  -8.92250E+2  -2.25388E+3
  -1.46110E+3   1.38626E+3
  -1.68668E+3   1.62433E+3
  -1.79625E+3  -7.29309E+2
  -1.49740E+2  -1.42158E+3
   3.66402E+3   1.36208E+3
  -2.31435E+2   1.88566E+3
  -1.52102E+3   1.67276E+3
  -3.91945E+2  -5.29750E+3
   8.53863E+2   1.49583E+3
  -4.31515E+2   2.53373E+3
  -5.78029E+3   2.40417E+3
  -5.79971E+3  -3.51576E+3
  -5.67504E+2  -7.71980E+3
   8.52366E+3  -2.17476E+3
   4.73506E+3   5.03745E+3
  -6.33074E+2   2.18796E+3
  -3.29008E+3  -3.60122E+3
   5.40828E+2  -3.83090E+2
  -3.33587E+3   4.35105E+2
  -3.43218E+3  -3.75158E+3
   1.75793E+3  -5.82557E+3
   2.94618E+3  -2.88621E+3
  -7.71219E+2  -2.48613E+3
   1.28566E+3   3.97064E+2
  -4.06986E+2   1.88219E+3
  -5.47626E+3   4.27433E+2
  -1.29819E+3  -5.95434E+3
   1.12434E+3  -3.46100E+3
   5.86317E+2  -2.65207E+3
   1.88962E+3  -2.15070E+3
   1.55783E+3   1.14042E+3
   3.24925E+3   1.07009E+3
   8.61774E+2   1.98562E+3
  -1.81350E+3   3.46892E+3
  -3.24730E+3  -1.26964E+3
  -2.06798E+2  -2.62900E+3
   2.44858E+3  -5.54351E+2
   3.58925E+3   9.89507E+2
   2.54622E+3   1.70063E+3
  -1.23949E+2   2.53463E+3
  -2.52729E+3   4.41215E+3
  -6.81686E+3   1.08094E+3
  -1.88915E+3  -2.66515E+3
  -1.21564E+3  -3.14585E+3
   1.21890E+3  -2.77731E+3
   2.39297E+3  -2.41364E+3
   1.28772E+3   2.31546E+3
  -5.27507E+2   2.10261E+3
   7.59900E+2  -1.46353E+3
   2.73600E+3   1.61156E+3
   1.53959E+3   4.25009E+3
  -3.96627E+2   1.77969E+3
   1.50204E+2   5.69509E+2
   3.20638E+2   2.91824E+3
   3.03758E+3   1.17757E+3
   2.80467E+2   1.40502E+3
  -9.93805E+2   2.49685E+2
  -6.10490E+2  -1.64008E+3
   8.12784E+2   1.18954E+1
  -7.96348E+2   2.00240E+3
  -2.88219E+3  -2.34273E+3
  -3.35766E+3  -3.72047E+3
   5.64440E+2  -3.38962E+3
  -8.90240E+2   1.42316E+2
   2.28376E+2   2.87627E+2
  -2.37551E+2  -1.49742E+2
   9.85388E+2   1.60499E+2
   5.84843E+2   2.96209E+3
  -1.45864E+3   2.45676E+3
  -2.46733E+3   2.51074E+3
  -1.57151E+3  -1.46126E+3
   1.11507E+3  -2.16636E+3
   1.59807E+3  -8.91676E+2
   3.80711E+3  -4.83129E+2
   1.23793E+3  -5.58682E+2
   9.93596E+2  -9.72086E+2
   4.27685E+3   4.65487E+2
   1.01841E+3   3.61813E+3
  -3.00826E+3   1.60192E+3
  -1.50007E+3  -4.14433E+2
   1.18722E+3  -2.85644E+3
   2.99765E+3   2.82327E+3
  -3.06185E+3   3.05365E+3
  -3.99276E+3  -1.66282E+3
  -7.78587E+2  -3.36397E+3
   1.81234E+3  -2.20787E+3
   2.47866E+3  -2.22800E+3
   4.62398E+3   1.05617E+3
   1.84654E+3   2.30335E+2
   1.05651E+3   3.37621E+2
   1.27726E+3   1.58298E+3
   1.14766E+3   4.06815E+3
  -4.00919E+3   9.33817E+2
  -2.41857E+3  -1.96885E+3
   1.11103E+3  -3.73660E+3
   3.99140E+3  -1.78127E+3
   4.12150E+3  -1.11343E+3
   4.37753E+3  -8.93559E+2
   3.95188E+3   2.26955E+3
   1.50754E+3   3.58471E+2
   1.89322E+3  -5.61888E+2
   7.87403E+2  -6.20332E+2
   9.12785E+2  -7.82045E+2
   1.27661E+3  -8.59519E+2
   3.51987E+3   1.09989E+3
  -1.79889E+3   3.30853E+3
  -1.28760E+3   3.69921E+2
   2.68459E+2   2.54147E+2
   1.17816E+3   3.84215E+2
  -2.30917E+2   1.06656E+3
   5.04753E+2  -7.93297E+2
   4.32859E+2  -1.01731E+3
   2.85839E+3  -1.47706E+3
  -1.73279E+3   1.47115E+3
  -1.46933E+3   1.91621E+3
  -2.23422E+3  -1.33693E+3
   1.39198E+3  -1.84386E+3
   2.64014E+3  -1.61958E+3
   1.07772E+3   7.74638E+2
   1.55214E+2   3.29786E+2
  -7.06558E+2   5.47445E+2
  -2.01628E+3   6.40641E+1
   6.38830E+2  -1.13157E+2
  -1.61661E+3   1.79291E+3
  -1.77834E+2  -1.52949E+3
  -2.03007E+3  -1.36023E+3
   1.47952E+3  -7.55495E+2
   1.17928E+3   1.52813E+3
  -1.89701E+3  -1.11531E+3
  -9.44595E+2  -1.96973E+3
  -1.02055E+3  -5.69683E+2
  -1.48337E+3  -1.20566E+3
  -2.48133E+2   8.10569E+2
   6.09600E+1  -5.21723E+2
   2.13772E+3   1.94721E+3
  -3.17873E+3   1.34580E+3
  -1.92982E+3   1.50542E+3
  -1.26157E+3  -8.44334E+2
  -1.28634E+3   1.64605E+2
   1.42466E+2  -6.70957E+2
   1.90834E+3   2.83880E+2
   3.05171E+2  -9.62488E+2
   1.73479E+2   7.99084E+2
  -8.55747E+2  -4.01567E+2
  -8.20895E+2   1.40781E+2
  -1.91985E+3  -2.93934E+2
  -9.49308E+2  -7.17563E+2
  -1.25874E+3   1.17113E+3
   2.30692E+3   2.84895E+2
   1.11216E+3   3.90391E+3
  -2.20477E+3   2.72820E+3
  -7.32983E+2  -2.41100E+3
   1.75527E+3  -1.00627E+3
   6.44264E+2  -8.23417E+2
   1.61619E+3   3.82671E+2
   1.36257E+3   1.39940E+3
   6.00232E+2   1.34116E+3
   1.89006E+3   2.38798E+3
   1.27991E+3   4.23460E+2
  -3.81716E+2   1.66530E+3
  -1.99554E+3  -7.97041E+1
   1.24169E+3  -1.88960E+3
  -1.45370E+3  -3.42419E+2
   1.00258E+3  -4.66628E+2
  -1.49934E+3  -4.05562E+2
   4.28249E+2  -4.77457E+2
   1.16856E+3   1.13923E+3
   3.59666E+2   1.18723E+3
  -1.72635E+3  -3.69737E+2
   1.08246E+3  -1.26549E+3
   1.20656E+3   4.26927E+2
   3.08089E+3   1.44703E+3
  -1.04297E+3   2.33848E+3
   2.76949E+2   2.07974E+2
  -1.40557E+3  -7.79134E+2
  -5.90756E+1  -2.24526E+3
   1.07171E+3   6.04015E+2
   8.71675E+1   1.06103E+3
  -8.97156E+2  -1.21536E+3
  -3.97850E+2  -1.07183E+3
  -1.43726E+3  -1.44253E+3
   5.49924E+2   1.95927E+2
  -2.88517E+3  -7.00700E+2
   1.50095E+3  -9.85389E+2
   3.21040E+3  -4.39514E+2
   1.70974E+3   3.30502E+3
  -1.26015E+3   2.85606E+3
  -1.37143E+2  -2.25285E+2
  -4.15342E+2   4.51380E+2
  -8.64619E+2   3.59529E+2
   4.50321E+2   4.99722E+2
  -2.30092E+1  -4.30207E+2
  -7.73200E+1   2.66679E+2
   9.67922E+2  -2.60439E+2
   1.43012E+3   1.12562E+3
  -2.87403E+3   1.77965E+3
  -2.29990E+3  -1.59731E+3
   1.09531E+3  -1.35325E+3
   2.76420E+3  -1.23534E+3
   1.16725E+2   1.39492E+3
  -1.76577E+3  -1.34543E+2
  -4.70377E+1  -1.92735E+2
   2.74437E+3   3.82076E+3
   1.57929E+3  -2.64592E+2
  -1.09740E+2   3.12778E+3
  -9.79225E+2  -4.82948E+2
   1.04894E+3   2.60722E+3
  -1.05045E+3   2.50516E+3
   1.04756E+3  -5.43447E+2
  -1.42158E+3  -1.35642E+3
   1.20554E+3  -6.18182E+2
   7.78557E+2  -1.39453E+3
   1.49370E+3   2.56471E+3
  -2.05102E+2   5.52442E+2
  -3.13794E+2   1.46589E+3
   1.34873E+3   1.20187E+3
   1.68192E+3   2.08622E+3
  -6.96820E+2   3.04916E+3
  -3.53704E+3  -1.59349E+2
   5.84455E+2  -1.91261E+3
   1.52953E+3  -2.28387E+3
   3.68688E+2   1.08183E+3
   1.81830E+3   1.11998E+3
  -1.22786E+3  -1.63301E+2
   2.28280E+3   7.33597E+2
   1.39951E+3   2.69908E+2
   1.34732E+3   5.21971E+1
   2.79434E+2  -4.61467E+2
   3.04644E+2   7.85309E+1
   1.31075E+3  -4.98710E+2
   1.72144E+3   4.40787E+2
  -1.47454E+3  -1.25379E+3
  -8.80759E+2   1.65245E+2
  -2.25030E+2  -2.07497E+3
   4.84992E+2  -1.58430E+3
   1.81045E+3   1.36526E+3
   5.33033E+2   1.28292E+3
   5.58284E+2   5.47206E+2
   3.22840E+2  -8.87710E+2
   5.02086E+2   7.96039E+2
  -8.23111E+2  -1.07679E+2
  -1.06530E+3   4.73722E+2
   1.49211E+3  -1.19224E+3
   1.48861E+3   5.72257E+2
   8.61242E+2   2.25365E+3
  -2.46246E+3   2.01345E+3
   8.32804E+2  -3.54009E+2
   1.34418E+3  -1.58864E+3
  -3.14198E+2   1.20903E+3
   2.18196E+3   1.20254E+3
  -5.62322E+1  -4.30596E+2
   6.21763E+2  -1.26761E+2
   1.43075E+3   4.06742E+2
  -1.01139E+3   6.82812E+2
   1.30846E+3  -4.56708E+2
  -2.47824E+3  -2.15007E+3
   3.16724E+3   8.60278E+2
   1.38262E+3  -7.20700E+2
  -3.61960E+2   2.29457E+3
  -2.64481E+2  -4.67371E+2
   4.79647E+2  -1.21492E+2
   2.55287E+3   1.00980E+3
  -2.73232E+2   4.29471E+2
  -1.29718E+3  -7.49048E+2
  -1.94882E+3  -2.40515E+2
  -2.32176E+2   6.76898E+2
  -9.72452E+2  -4.53694E+1
   5.61816E+2   4.80840E+2
  -1.02754E+3  -8.32720E+2
  -8.47987E+2  -3.47326E+2
   5.86298E+2  -3.93695E+2
   8.18798E+2   8.09993E+2
   8.05112E+2   4.22047E+2
   1.49776E+1  -1.30843E+3
  -5.44462E+2  -2.39774E+3
   4.20146E+2   3.83748E+1
  -1.23512E+3   2.03151E+3
  -2.03813E+3  -1.27235E+3
   2.17367E+3  -3.85020E+2
   1.66270E+3   1.51400E+3
   7.15421E+2   2.11521E+3
  -8.46603E+2   2.92045E+2
   3.20444E+2  -4.23026E+2
   9.09312E+2   1.52382E+3
   1.79152E+3   1.50056E+3
   1.17879E+3  -2.36919E+2
   3.05836E+2  -7.74616E+2
   1.14441E+3   8.57115E+2
   5.83531E+2   7.34826E+2
  -6.52908E+2   5.72890E+2
  -2.20240E+3   2.92203E+2
  -8.26199E+2  -1.05433E+3
   3.18261E+3   1.54344E+2
   2.44842E+2  -2.20736E+3
   1.86984E+2   2.68453E+3
  -2.78701E+1  -8.35340E+2
   1.11544E+3   1.52769E+3
  -9.02587E+2   1.71199E+3
  -1.10064E+3  -3.75860E+2
  -2.29558E+3   8.29377E+0
   7.38591E+2  -4.14069E+2
  -1.05033E+3  -6.81124E+2
   1.70473E+3   1.99352E+3
  -1.00939E+3   1.15159E+3
   2.00792E+2   3.58556E+2
  -4.56740E+2  -9.40902E+2
   4.48167E+2   8.68404E+2
   1.32546E+2   1.05165E+2
  -3.71310E+2   1.34412E+2
   1.42995E+3  -7.16579E+2
  -1.04783E+3   2.47229E+1
   8.66090E+2   2.19258E+3
  -5.74757E+1   9.67663E+2
  -7.46419E+2   7.91421E+2
  -3.98650E+2   9.99812E+2
   4.59505E+2   1.46170E+3
  -1.75395E+2  -6.76746E+2
   6.76111E+2   6.48638E+2
   2.71870E+2   1.65083E+2
  -4.57718E+2   1.20386E+3
  -1.41647E+3   9.03189E+2
  -3.92004E+2  -1.54144E+1
  -9.07748E+2  -1.41665E+3
  -1.42206E+2  -1.56536E+3
   1.28770E+3  -1.83755E+2
   1.43114E+3   1.95629E+3
  -1.05719E+3   1.77540E+3
  -4.14525E+2  -6.56943E+2
  -4.05462E+2  -7.75702E+1
  -7.21714E+2   2.80456E+2
  -2.59658E+3  -5.59131E+2
   6.60042E+2   1.77066E+3
  -1.01632E+3  -3.52483E+2
  -2.03478E+3  -1.09638E+3
  -3.09501E+2   5.90470E+2
  -7.78324E+2   2.64966E+3
   3.15627E+2  -3.29220E+2
   1.52776E+3   9.08527E+2
   3.03722E+2  -1.71829E+2
   2.13334E+2  -6.89294E+2
   2.47005E+2   7.75943E+2
   6.67367E+2   1.73156E+2
  -3.57434E+2  -6.46029E+2
  -1.35574E+3  -3.09872E+2
   2.77190E+2   5.98418E+2
   5.23719E+1   1.32354E+2
  -7.51569E+2   2.25352E+2
   1.06029E+3   8.19425E+2
  -1.14945E+3  -1.50371E+3
   2.20752E+3  -2.62910E+2
