 LCModel (Version 6.3-1N) Copyright: S.W. Provencher.          Ref.: Magn. Reson. Med. 30:672-679 (1993).                
 Slice_N1@13_23  02-Jun-2023 14:36:48
 27 lines in following concentration table = NCONC+1
    Conc.  %SD /Cr+PCr  Metabolite                                         
 2.70E-06  15% 3.8E-04 Mac                                                 
 3.01E-02  24%   4.182 Cr                                                  
 2.75E-02  26%   3.818 PCr                                                 
 8.47E-02  12%  11.749 Ins                                                 
 8.07E-02   9%  11.201 NAA                                                 
 6.75E-02  14%   9.360 Tau                                                 
 8.52E-03  26%   1.182 PCho                                                
    0.000 999%   0.000 GPC                                                 
 8.19E-02  14%  11.359 Glu                                                 
 2.22E-02  35%   3.078 Gln                                                 
    0.000 999%   0.000 Ala                                                 
 1.74E-03 844%   0.242 Asc                                                 
 8.57E-03  75%   1.190 Asp                                                 
 2.39E-03 152%   0.332 GABA                                                
 3.69E-03 111%   0.511 Glc                                                 
 5.82E-03  70%   0.808 GSH                                                 
 2.76E-03 311%   0.383 Lac                                                 
    0.000 999%   0.000 NAAG                                                
    0.000 999%   0.000 PE                                                  
 8.52E-03  26%   1.182 GPC+PCho                                            
 8.07E-02   9%  11.201 NAA+NAAG                                            
    0.104  13%  14.437 Glu+Gln                                             
 5.76E-02  12%   8.000 Cr+PCr                                              
 8.07E-02   9%  11.201 NAA+NAAG                                            
 5.76E-02  12%   8.000 Cr+PCr                                              
    0.104  13%  14.437 Glu+Gln                                             
   6 lines in following misc. output table
  FWHM = 0.017 ppm    S/N =   4                                            
  Data shift = 0.006 ppm                                                   
  Ph: -18 deg     -16.7 deg/ppm                                            
  alphaB,S = 3.1E+01,   2.6E+00                                            
   18 spline knots.   Ns = 5(1)                                            
   2 inflections.     1 extrema                                            
  654 points on ppm-axis = NY
      4.000000     3.994181     3.988363     3.982544     3.976726     3.970907     3.965088     3.959270     3.953451     3.947633
      3.941814     3.935995     3.930177     3.924358     3.918540     3.912721     3.906902     3.901084     3.895265     3.889446
      3.883628     3.877809     3.871991     3.866172     3.860353     3.854535     3.848716     3.842898     3.837079     3.831260
      3.825442     3.819623     3.813805     3.807986     3.802167     3.796349     3.790530     3.784712     3.778893     3.773074
      3.767256     3.761437     3.755619     3.749800     3.743981     3.738163     3.732344     3.726526     3.720707     3.714888
      3.709070     3.703251     3.697433     3.691614     3.685795     3.679977     3.674158     3.668339     3.662521     3.656702
      3.650884     3.645065     3.639246     3.633428     3.627609     3.621791     3.615972     3.610153     3.604335     3.598516
      3.592698     3.586879     3.581060     3.575242     3.569423     3.563605     3.557786     3.551967     3.546149     3.540330
      3.534512     3.528693     3.522874     3.517056     3.511237     3.505419     3.499600     3.493781     3.487963     3.482144
      3.476326     3.470507     3.464688     3.458870     3.453051     3.447232     3.441414     3.435595     3.429777     3.423958
      3.418139     3.412321     3.406502     3.400684     3.394865     3.389046     3.383228     3.377409     3.371591     3.365772
      3.359953     3.354135     3.348316     3.342498     3.336679     3.330860     3.325042     3.319223     3.313405     3.307586
      3.301767     3.295949     3.290130     3.284312     3.278493     3.272674     3.266856     3.261037     3.255219     3.249400
      3.243581     3.237763     3.231944     3.226125     3.220307     3.214488     3.208670     3.202851     3.197032     3.191214
      3.185395     3.179577     3.173758     3.167939     3.162121     3.156302     3.150484     3.144665     3.138846     3.133028
      3.127209     3.121391     3.115572     3.109753     3.103935     3.098116     3.092298     3.086479     3.080660     3.074842
      3.069023     3.063205     3.057386     3.051567     3.045749     3.039930     3.034111     3.028293     3.022474     3.016656
      3.010837     3.005018     2.999200     2.993381     2.987563     2.981744     2.975925     2.970107     2.964288     2.958470
      2.952651     2.946832     2.941014     2.935195     2.929377     2.923558     2.917739     2.911921     2.906102     2.900284
      2.894465     2.888646     2.882828     2.877009     2.871191     2.865372     2.859553     2.853735     2.847916     2.842098
      2.836279     2.830460     2.824642     2.818823     2.813004     2.807186     2.801367     2.795549     2.789730     2.783911
      2.778093     2.772274     2.766456     2.760637     2.754818     2.749000     2.743181     2.737363     2.731544     2.725725
      2.719907     2.714088     2.708270     2.702451     2.696632     2.690814     2.684995     2.679177     2.673358     2.667539
      2.661721     2.655902     2.650084     2.644265     2.638446     2.632628     2.626809     2.620991     2.615172     2.609353
      2.603535     2.597716     2.591897     2.586079     2.580260     2.574442     2.568623     2.562804     2.556986     2.551167
      2.545349     2.539530     2.533711     2.527893     2.522074     2.516256     2.510437     2.504618     2.498800     2.492981
      2.487163     2.481344     2.475525     2.469707     2.463888     2.458070     2.452251     2.446432     2.440614     2.434795
      2.428977     2.423158     2.417339     2.411521     2.405702     2.399884     2.394065     2.388246     2.382428     2.376609
      2.370790     2.364972     2.359153     2.353335     2.347516     2.341697     2.335879     2.330060     2.324242     2.318423
      2.312604     2.306786     2.300967     2.295149     2.289330     2.283511     2.277693     2.271874     2.266056     2.260237
      2.254418     2.248600     2.242781     2.236963     2.231144     2.225325     2.219507     2.213688     2.207870     2.202051
      2.196232     2.190414     2.184595     2.178777     2.172958     2.167139     2.161321     2.155502     2.149683     2.143865
      2.138046     2.132228     2.126409     2.120590     2.114772     2.108953     2.103135     2.097316     2.091497     2.085679
      2.079860     2.074042     2.068223     2.062404     2.056586     2.050767     2.044949     2.039130     2.033311     2.027493
      2.021674     2.015856     2.010037     2.004218     1.998400     1.992581     1.986763     1.980944     1.975126     1.969307
      1.963489     1.957670     1.951852     1.946033     1.940215     1.934397     1.928578     1.922760     1.916941     1.911123
      1.905304     1.899486     1.893667     1.887849     1.882030     1.876212     1.870393     1.864575     1.858756     1.852938
      1.847119     1.841301     1.835482     1.829664     1.823845     1.818027     1.812208     1.806390     1.800571     1.794753
      1.788934     1.783116     1.777297     1.771479     1.765660     1.759842     1.754023     1.748205     1.742386     1.736568
      1.730749     1.724931     1.719113     1.713294     1.707476     1.701657     1.695839     1.690020     1.684202     1.678383
      1.672565     1.666746     1.660928     1.655109     1.649291     1.643472     1.637654     1.631835     1.626017     1.620198
      1.614380     1.608561     1.602743     1.596924     1.591106     1.585287     1.579469     1.573650     1.567832     1.562013
      1.556195     1.550376     1.544558     1.538739     1.532921     1.527102     1.521284     1.515465     1.509647     1.503829
      1.498010     1.492192     1.486373     1.480555     1.474736     1.468918     1.463099     1.457281     1.451462     1.445644
      1.439825     1.434007     1.428188     1.422370     1.416551     1.410733     1.404914     1.399096     1.393277     1.387459
      1.381640     1.375822     1.370003     1.364185     1.358366     1.352548     1.346729     1.340911     1.335092     1.329274
      1.323455     1.317637     1.311818     1.306000     1.300182     1.294363     1.288545     1.282726     1.276908     1.271089
      1.265271     1.259452     1.253634     1.247815     1.241997     1.236178     1.230360     1.224541     1.218723     1.212904
      1.207086     1.201267     1.195449     1.189630     1.183812     1.177993     1.172175     1.166356     1.160538     1.154719
      1.148901     1.143082     1.137264     1.131445     1.125627     1.119808     1.113990     1.108171     1.102353     1.096534
      1.090716     1.084898     1.079079     1.073261     1.067442     1.061624     1.055805     1.049987     1.044168     1.038350
      1.032531     1.026713     1.020894     1.015076     1.009257     1.003439     0.997620     0.991802     0.985983     0.980165
      0.974346     0.968528     0.962709     0.956891     0.951072     0.945254     0.939435     0.933617     0.927798     0.921980
      0.916161     0.910343     0.904524     0.898706     0.892887     0.887069     0.881251     0.875432     0.869614     0.863795
      0.857977     0.852158     0.846340     0.840521     0.834703     0.828884     0.823066     0.817247     0.811429     0.805610
      0.799792     0.793973     0.788155     0.782336     0.776518     0.770699     0.764881     0.759062     0.753244     0.747425
      0.741607     0.735788     0.729970     0.724151     0.718333     0.712514     0.706696     0.700877     0.695059     0.689240
      0.683422     0.677603     0.671785     0.665967     0.660148     0.654330     0.648511     0.642693     0.636874     0.631056
      0.625237     0.619419     0.613600     0.607782     0.601963     0.596145     0.590326     0.584508     0.578689     0.572871
      0.567052     0.561234     0.555415     0.549597     0.543778     0.537960     0.532141     0.526323     0.520504     0.514686
      0.508867     0.503049     0.497230     0.491412     0.485593     0.479775     0.473956     0.468138     0.462319     0.456501
      0.450682     0.444864     0.439045     0.433227     0.427408     0.421590     0.415771     0.409953     0.404134     0.398316
      0.392497     0.386679     0.380860     0.375042     0.369223     0.363405     0.357586     0.351767     0.345949     0.340130
      0.334312     0.328493     0.322675     0.316856     0.311038     0.305219     0.299401     0.293582     0.287764     0.281945
      0.276127     0.270308     0.264490     0.258671     0.252853     0.247034     0.241216     0.235397     0.229579     0.223760
      0.217942     0.212123     0.206305     0.200486
 NY phased data points follow
   2.30565E-01 -6.77507E-02  4.33925E-02 -7.44647E-02 -5.91010E-01 -3.10672E-01 -2.28174E-01 -2.80057E-01  1.48714E-02 -3.89933E-01
  -3.70064E-01  1.11758E-01  2.48753E-01  7.03889E-01 -2.92225E-01 -1.23518E-01  2.40840E-01  3.29091E-01  2.93778E-01 -1.11673E-01
   5.46530E-01  5.53941E-02 -1.37422E-01 -4.77382E-02  2.74854E-01  1.54581E-01  4.13117E-01  6.58813E-01  7.68299E-03  4.09228E-01
   2.75067E-01 -2.49466E-01 -3.25259E-01  3.52723E-02 -2.90847E-01 -2.48474E-01 -1.14652E-01 -4.82884E-01 -2.74784E-01 -2.50080E-01
  -1.52095E-01 -4.45765E-02  1.57343E-01  2.99307E-01  3.13419E-01  3.08447E-01  5.17040E-01  4.94568E-01  1.92626E-01 -1.62014E-01
  -4.48266E-01 -1.46959E-01  1.38152E-01 -8.93613E-02 -9.81374E-02  1.47394E-02 -2.96026E-01 -3.34490E-01 -3.42817E-01 -3.15830E-01
  -7.06415E-01 -5.41905E-01 -2.42759E-01 -4.03056E-01  7.67961E-02 -2.19948E-01 -7.71022E-02  3.57147E-01  1.07213E-01 -3.03607E-02
   1.70843E-01  3.81251E-01  2.43889E-01  5.36386E-01  9.77743E-02 -2.31259E-01  2.12748E-01 -6.40431E-02 -1.11081E-01 -2.90006E-01
  -2.26167E-01  5.32622E-02  2.68883E-01  7.51546E-01  2.98215E-01  3.73793E-01  3.88500E-01  5.80747E-02  5.35984E-01  4.03263E-01
  -1.45268E-01  3.98556E-01  6.48218E-01  2.75915E-02  3.29392E-01 -9.95381E-03 -2.13321E-02  1.36528E-01 -3.13376E-01  1.26478E-01
  -4.33719E-01 -6.66707E-01 -7.98900E-03  3.66364E-01  4.61561E-01  4.61726E-02  3.63220E-01  3.93595E-01  3.35878E-01  5.45764E-01
   1.04097E-01  4.15926E-01  1.35390E-01  1.03776E-02  5.03347E-01  3.22884E-01  4.53024E-01  2.01971E-01  1.49275E-01 -2.69950E-01
  -2.10955E-01  1.04873E-01 -2.95034E-01 -3.22527E-02 -1.97824E-01 -4.07412E-01 -6.58212E-01 -3.37143E-01 -8.87610E-02 -7.95343E-01
  -6.86521E-01 -4.97113E-01 -8.53502E-01 -7.67628E-01 -7.60095E-01 -7.18421E-01 -2.54266E-01 -7.58260E-01 -6.20460E-01 -3.59221E-02
  -1.92906E-01 -2.91099E-01 -1.05675E-01  2.00904E-02 -1.47263E-02  4.92555E-01  1.11978E-01 -1.80751E-01 -1.86757E-02  1.25874E-01
   1.34084E-01 -1.67370E-01  1.89063E-01  3.96658E-01  5.15917E-01  1.71762E-01 -2.96390E-02 -1.64129E-02 -6.77323E-02  2.45206E-01
   3.81242E-01  3.94050E-01  3.05506E-01  3.86402E-01  6.10096E-01  1.00970E+00  1.05899E+00  3.70818E-01 -7.74257E-01 -1.51169E+00
  -1.01812E+00 -5.38850E-01 -4.75950E-01 -2.70869E-01 -4.00689E-01 -2.10305E-01 -4.92437E-01 -4.66927E-01 -8.63791E-02 -4.74815E-01
  -2.80259E-02 -3.72664E-01 -2.50008E-01 -6.02911E-02 -2.61572E-01  9.80235E-03 -4.44027E-01 -2.87750E-01  5.62627E-02  1.07833E-01
  -5.15096E-01 -2.33831E-01 -6.46044E-03 -1.78026E-01  1.03741E-01 -1.28451E-01 -3.76997E-01 -7.03764E-01  4.90349E-02  2.70227E-01
  -1.01859E-01  9.77546E-02 -9.15290E-02 -1.96790E-01  1.26533E-01 -6.52873E-02  4.79993E-02  1.52005E-01 -1.06757E-01  2.58956E-01
  -1.11020E-03  2.10674E-01  1.78645E-01 -2.07324E-02  1.32789E-01 -1.08880E-01  2.67121E-02 -1.86227E-01 -1.62480E-01  2.06974E-01
   1.91279E-01  2.23042E-01  2.49384E-01  8.59519E-02  9.24214E-02 -5.10516E-02  1.33512E-01  4.84189E-01  3.02898E-02 -8.35371E-02
   6.14867E-01  6.91815E-01  3.78659E-01  6.67475E-02  3.21749E-01  2.00338E-01 -3.81237E-01  4.47188E-01 -2.80961E-02 -2.78039E-01
  -8.33600E-02 -2.96267E-01  7.34155E-02 -2.11562E-01 -2.10085E-02 -2.68862E-01 -4.32538E-01 -8.00635E-02 -1.27411E-01  1.14923E-01
   2.76316E-01 -2.83920E-01 -8.73915E-02  1.43197E-01  1.57567E-01  2.15911E-01 -1.47700E-01  2.13236E-01  1.21209E-01  1.33910E-01
  -9.01221E-02 -2.51842E-01 -1.31659E-01 -8.37047E-02 -4.96845E-02 -1.99744E-02  2.30289E-01  2.09668E-01  2.36109E-01 -1.70991E-01
   4.42562E-01  5.39866E-01  4.26745E-02 -5.52485E-03 -3.15372E-02  1.25493E-01 -1.10857E-02 -6.04286E-02 -1.57653E-01 -2.20031E-01
  -4.94368E-01 -2.14599E-01 -2.31594E-01 -3.14121E-01 -2.08889E-01 -1.59461E-02  2.51132E-01  5.88117E-01  7.99025E-01  3.12315E-01
   5.78730E-01  3.99359E-01  2.20256E-01  1.77646E-02  1.37524E-01  3.87532E-01 -2.01904E-01  5.06883E-02  2.49500E-01  1.90314E-01
   2.59506E-01  2.42145E-01  2.27660E-01  1.91921E-01  3.10896E-01  5.06955E-01  3.12321E-01  3.90752E-01  4.79885E-01  2.87353E-01
   5.82303E-01  3.59095E-01  2.04915E-01  2.81401E-01 -1.05576E-01  9.58872E-02  1.05616E-02 -2.47760E-01 -1.60144E-01 -2.34600E-01
  -2.84941E-01 -4.57088E-01 -8.93334E-02 -6.14681E-01 -8.17356E-01  7.75621E-02  3.72796E-02 -1.62663E-01 -1.61788E-01  1.25102E-01
   1.11592E-01  9.54999E-02  1.10297E-01 -3.04944E-01 -4.63445E-01 -2.60922E-01 -4.88650E-01 -3.84117E-01 -3.28523E-01 -4.88246E-01
  -7.97473E-02 -7.97395E-01 -1.43010E+00 -1.94608E+00 -1.68909E+00 -3.21068E-01 -5.50394E-02 -4.10461E-01 -2.04774E-01 -8.02760E-03
  -6.30091E-01 -1.03636E-01 -4.84319E-02 -9.70200E-02  8.22657E-01  1.21635E-01  5.08295E-03  3.94784E-01  1.54285E-01  1.99576E-01
   1.15863E-01  4.36263E-02 -4.56337E-02 -1.29616E-01 -1.87653E-03  3.33885E-01  3.29810E-01  5.25753E-01  4.69034E-01 -1.19307E-01
   3.08154E-01  3.44186E-01 -4.89320E-02  3.78759E-01  1.48912E-01 -1.38381E-01  3.15244E-01  1.57304E-01  3.35325E-01  4.64121E-01
  -5.60799E-03  1.87937E-01  3.31809E-01  2.46265E-01  1.39310E-01 -6.20162E-02  3.15239E-02  2.42987E-01  3.35294E-01  1.12402E-01
  -1.23232E-01  4.68913E-01  4.43886E-01  2.25582E-01  3.67246E-01  2.95941E-01  2.22557E-01  3.44783E-02  3.26827E-01 -6.18338E-02
   9.81062E-02  9.68983E-02 -1.50558E-01  5.41826E-01  9.98876E-02 -9.81923E-02  7.68105E-02 -1.58277E-01 -1.86866E-01 -8.68722E-02
   1.29409E-01 -3.50303E-02 -3.19732E-01  1.73064E-02  1.82720E-01 -1.01961E-01 -4.20353E-01 -1.89716E-01 -4.11531E-02 -1.73331E-01
  -3.21610E-01 -4.11233E-01  7.65641E-02 -2.00108E-01 -2.38832E-01 -4.40640E-02  3.73446E-02  1.97511E-01 -2.70177E-01 -2.64519E-01
  -7.86225E-02 -5.29223E-01 -4.09168E-01  9.22556E-02 -4.15041E-02 -2.47380E-01 -1.98480E-01  1.85904E-01 -1.99900E-01 -1.28100E-01
   2.73200E-03 -4.03174E-02  2.01463E-01 -4.27847E-02  3.65572E-02 -2.18680E-01 -8.24666E-02  8.45696E-02  1.83806E-01  5.99754E-02
   2.34184E-01  3.38980E-01  3.44648E-01  6.84923E-01 -2.37212E-01 -3.11260E-01 -1.22731E-01 -1.72146E-01 -4.85773E-02 -5.38261E-01
  -6.69395E-02  3.58548E-01 -8.35877E-02  4.63836E-01  3.51535E-01 -4.12455E-01 -1.54349E-01 -2.86933E-01 -4.26769E-01 -2.00138E-01
   7.29924E-02  1.87660E-01 -9.22448E-03 -9.91534E-02 -1.95641E-01 -1.56852E-01 -5.70946E-02 -2.60259E-01 -7.86161E-02 -2.40894E-01
  -2.92047E-01 -2.95788E-02 -5.62812E-02  5.11005E-01  1.12878E-01 -2.61795E-01  9.11298E-02 -6.48833E-02  3.86108E-02  1.99620E-01
   1.10011E-01  7.12178E-02  1.55655E-01  1.74339E-01 -5.11050E-02  2.70284E-01  2.52456E-01 -9.95182E-02 -9.95405E-02 -1.06817E-01
   9.13680E-02 -1.21688E-01  3.55067E-01  2.57961E-01  2.90022E-01  1.43968E-01 -1.45520E-01  5.05450E-01 -1.72998E-01  2.85040E-01
   2.65648E-01 -1.91274E-01  3.10171E-01  4.22296E-01  2.58287E-01 -1.27219E-01  1.67276E-01  2.16385E-01 -1.76986E-01 -1.99985E-01
   1.43579E-01 -7.21237E-02 -8.36194E-02 -1.37544E-01 -6.91962E-01 -4.07076E-01 -1.27757E-02  1.67256E-02 -1.81409E-01 -5.72070E-01
  -1.44537E-01 -6.44862E-01 -8.87953E-01  5.45714E-02 -3.51322E-01 -3.03360E-01 -5.01687E-01 -2.67963E-01  1.40224E-01 -4.70460E-02
  -2.70614E-01 -7.32997E-01 -3.79097E-01 -1.70500E-01  1.09203E-01 -4.28756E-01 -4.13766E-01 -9.08643E-02 -4.96785E-02  2.54795E-01
  -5.99896E-02  2.19405E-01  1.73188E-01 -4.10173E-02  4.06712E-02  2.32677E-02  2.99142E-01  2.70995E-01 -5.94879E-02  2.30031E-01
   2.05345E-01  4.27024E-02  9.83417E-02  4.44821E-02 -8.20107E-02  1.17598E-01  2.40955E-01 -4.63782E-01 -2.99611E-02  4.12365E-01
   3.81613E-01  1.90413E-01  8.45024E-02  8.86687E-02 -1.15878E-01  2.35570E-01  2.56766E-01  2.84410E-01  4.85294E-02 -2.02494E-01
  -2.81259E-01  3.18991E-01  3.39275E-01 -2.88185E-01 -6.01482E-02  2.43081E-02  1.26749E-01 -1.35765E-01 -1.87733E-01  6.84062E-03
   4.18555E-01  1.09143E-01 -2.66559E-01 -3.62636E-02  1.37198E-02  7.64116E-02 -2.94351E-01 -9.58197E-03  3.63974E-02  1.78391E-01
   1.75998E-01  5.29966E-02  2.55575E-01  6.43389E-02  1.07354E-01  1.06239E-01  8.72936E-02 -4.76562E-01 -1.39835E-01  3.15263E-01
   1.20866E-01  3.64201E-01 -1.66832E-01 -3.58288E-01  1.38546E-02  1.14855E-01  3.16201E-01  3.20479E-01  1.69973E-01 -1.87954E-02
   2.43406E-01  5.60941E-01  3.00781E-01  7.25957E-02 -2.09594E-01  5.32268E-02  2.57917E-01 -1.30218E-01 -1.57659E-01  4.48481E-02
   9.60976E-02  2.03563E-01 -4.79609E-02 -1.11920E-01  3.40908E-01  1.69521E-01  1.27640E-01  9.88664E-02  1.79124E-01  2.82798E-02
  -4.35226E-02  2.09800E-01  1.97814E-01  1.47957E-01  2.91167E-01  3.51200E-01 -3.16439E-02  2.05418E-01 -5.92282E-02  1.05956E-01
   1.08042E-01  6.42433E-02  3.75933E-01  8.08321E-02
 NY points of the fit to the data follow
   6.07703E-02  6.26520E-02  6.42721E-02  7.11145E-02  7.46563E-02  7.63689E-02  8.83114E-02  1.15234E-01  1.29027E-01  9.30521E-02
   1.55770E-01  3.27868E-01  5.12690E-01  5.42214E-01  3.02071E-01  2.47224E-01  5.37405E-01  4.94051E-01  1.66231E-01  3.01362E-02
   9.11957E-02  5.52881E-02  1.01198E-02 -2.37180E-02 -5.08097E-02 -6.63562E-02 -7.96657E-02 -9.09981E-02 -1.00778E-01 -1.12143E-01
  -1.22429E-01 -1.30126E-01 -1.36939E-01 -1.48514E-01 -1.65361E-01 -1.81706E-01 -1.93321E-01 -2.08436E-01 -2.04520E-01 -1.69818E-01
  -8.90574E-02  2.86383E-02  1.35169E-01  2.59854E-01  3.72937E-01  3.89519E-01  3.37852E-01  2.13213E-01  1.11922E-01  8.21682E-02
   4.84058E-02  1.32972E-02 -2.32648E-02 -5.52519E-02 -8.63278E-02 -1.25762E-01 -1.65976E-01 -2.09706E-01 -2.50591E-01 -2.84275E-01
  -3.81362E-01 -4.30211E-01 -3.63184E-01 -3.47430E-01 -2.37583E-01 -2.13809E-01 -1.58515E-01  3.34876E-01  3.54868E-01  1.37313E-01
   4.70858E-01  4.34145E-01  1.54210E-01  1.26502E-01  7.36845E-02 -2.03209E-02 -7.49305E-02 -1.41910E-01 -3.33604E-01 -5.10348E-01
  -5.38350E-01 -2.99671E-01  9.32749E-02  1.42219E-01  1.85329E-01  5.43849E-01  5.54352E-01  3.58871E-01  3.39011E-01  3.24358E-01
   2.82808E-01  2.46839E-01  2.15135E-01  1.75089E-01  1.23833E-01  7.84669E-02  1.63186E-02 -6.12703E-02 -1.87898E-01 -3.44617E-01
  -4.39876E-01 -4.13386E-01 -2.17591E-01  4.47591E-02  2.18052E-01  3.14398E-01  2.93114E-01  2.67010E-01  2.77952E-01  2.73160E-01
   2.62222E-01  2.54889E-01  2.46200E-01  2.38214E-01  2.27875E-01  2.17884E-01  2.11347E-01  1.99095E-01  1.81272E-01  1.81366E-01
   1.46076E-01  6.70264E-02  1.45093E-02 -8.96581E-02 -1.49518E-01 -2.18699E-01 -3.59707E-01 -2.49234E-01 -1.44827E-01 -4.95228E-01
  -6.71571E-01 -6.82313E-01 -8.03348E-01 -5.87611E-01 -2.91907E-01 -3.79037E-01 -5.16564E-01 -8.08590E-01 -5.73865E-01 -1.07294E-01
  -7.80683E-02 -9.53321E-02 -2.51409E-02  2.80409E-02  5.91275E-02  8.25602E-02  1.04233E-01  1.24608E-01  1.41264E-01  1.53744E-01
   1.66438E-01  1.77392E-01  1.88496E-01  2.01111E-01  2.12547E-01  2.25635E-01  2.42699E-01  2.62206E-01  2.85739E-01  3.12041E-01
   3.41610E-01  3.88100E-01  4.19694E-01  3.82535E-01  4.61481E-01  6.63272E-01  6.99818E-01  2.64759E-01 -7.17123E-01 -1.28230E+00
  -8.38698E-01 -4.46557E-01 -4.67079E-01 -4.68740E-01 -4.00003E-01 -3.54071E-01 -3.23065E-01 -2.84017E-01 -2.63966E-01 -2.62751E-01
  -2.53087E-01 -2.30794E-01 -2.08703E-01 -1.95836E-01 -1.95292E-01 -1.85856E-01 -1.74065E-01 -1.68101E-01 -1.52692E-01 -1.43267E-01
  -1.35296E-01 -1.28697E-01 -1.17777E-01 -1.07070E-01 -9.81633E-02 -8.91040E-02 -7.95914E-02 -7.21971E-02 -6.37637E-02 -5.45365E-02
  -4.83449E-02 -4.11238E-02 -2.85232E-02 -1.65342E-02 -2.02408E-02 -3.43835E-02 -3.57912E-02 -1.96700E-02 -5.52298E-03 -1.26050E-02
  -3.56290E-02 -4.72606E-02 -4.03126E-02 -3.15346E-02 -2.83244E-02 -2.74341E-02 -2.42599E-02 -2.18055E-02 -2.28073E-02 -1.92907E-02
  -7.03814E-03  1.16860E-02  1.03986E-02  1.80528E-02  8.41152E-02  2.09308E-01  3.30255E-01  2.65774E-01  9.97981E-02  1.35488E-01
   3.01483E-01  3.99090E-01  2.85338E-01  4.15205E-02 -2.91127E-02  3.16919E-04 -3.63438E-02 -5.94200E-02 -6.94256E-02 -7.92446E-02
  -8.83719E-02 -9.69831E-02 -1.05087E-01 -1.07625E-01 -1.08799E-01 -1.11811E-01 -1.15266E-01 -1.22668E-01 -1.24478E-01 -1.24987E-01
  -1.31337E-01 -1.34126E-01 -1.41631E-01 -1.45042E-01 -1.85475E-01 -2.00414E-01 -1.44679E-01 -6.40616E-02  3.23968E-02 -1.99472E-02
  -3.77805E-02  1.44113E-01  1.33453E-01  3.46508E-02  4.39336E-02  1.09216E-01  1.23408E-01  5.98323E-02  8.40743E-02  1.07150E-01
   1.12643E-01  9.38825E-02  2.69478E-02  3.19870E-03 -4.76266E-02 -8.05621E-02 -1.16839E-01 -1.63417E-01 -2.01068E-01 -2.47929E-01
  -3.01558E-01 -3.39630E-01 -3.86088E-01 -3.56712E-01 -2.45523E-01 -9.69058E-02  1.87526E-01  3.91834E-01  4.50659E-01  4.92743E-01
   3.97586E-01  3.07390E-01  3.05110E-01  2.71915E-01  2.38963E-01  2.17207E-01  2.11221E-01  2.04976E-01  1.91158E-01  1.84656E-01
   1.74717E-01  1.72246E-01  1.70394E-01  1.64546E-01  1.57542E-01  1.53540E-01  1.49551E-01  1.40073E-01  1.30951E-01  1.19434E-01
   1.02967E-01  8.37294E-02  5.84581E-02  2.57704E-02 -1.09416E-02 -5.23102E-02 -1.00965E-01 -1.66826E-01 -2.45004E-01 -3.15947E-01
  -3.66837E-01 -3.93131E-01 -4.01048E-01 -3.79860E-01 -3.33745E-01 -2.62901E-01 -1.62636E-01 -7.91686E-02 -2.42246E-02 -2.32941E-03
  -4.70949E-03 -5.02745E-02 -1.15375E-01 -1.73754E-01 -2.27045E-01 -2.31499E-01 -2.32077E-01 -2.71071E-01 -3.29422E-01 -2.76355E-01
  -2.03752E-01 -5.87345E-01 -1.33638E+00 -2.09000E+00 -1.68976E+00 -3.84705E-01 -4.73197E-02 -2.97014E-01 -1.76532E-01 -5.05023E-02
  -6.68166E-03  1.59342E-02  2.89650E-02  3.96331E-02  4.58508E-02  4.81248E-02  5.14284E-02  5.45131E-02  5.29443E-02  5.09971E-02
   4.89230E-02  4.77625E-02  5.06563E-02  5.21816E-02  5.14004E-02  5.35299E-02  5.61595E-02  6.30002E-02  6.70912E-02  6.81672E-02
   7.06296E-02  7.41717E-02  7.93216E-02  8.37567E-02  8.92844E-02  9.14946E-02  9.06773E-02  9.34792E-02  9.85412E-02  1.02106E-01
   1.05636E-01  1.06242E-01  1.06414E-01  1.09591E-01  1.13361E-01  1.16816E-01  1.17916E-01  1.16829E-01  1.17094E-01  1.18460E-01
   1.22292E-01  1.26328E-01  1.28035E-01  1.29020E-01  1.26422E-01  1.21857E-01  1.16927E-01  1.13759E-01  1.10639E-01  1.04634E-01
   9.76835E-02  9.02047E-02  8.19083E-02  7.41561E-02  6.52690E-02  5.44501E-02  4.66880E-02  4.16406E-02  3.47332E-02  2.58572E-02
   1.86939E-02  1.45277E-02  9.08770E-03  4.53053E-03  2.71207E-03 -8.37696E-04 -5.21919E-03 -7.86996E-03 -1.14626E-02 -1.39967E-02
  -1.45435E-02 -1.54445E-02 -1.64300E-02 -1.65938E-02 -1.42875E-02 -9.75012E-03 -6.42432E-03 -3.08543E-03  2.81979E-03  8.93646E-03
   1.56757E-02  2.34253E-02  2.56046E-02  2.48980E-02  3.02263E-02  4.03337E-02  5.21025E-02  6.11810E-02  6.82657E-02  7.60139E-02
   8.56520E-02  9.85996E-02  1.11791E-01  1.25081E-01  1.37435E-01  1.49020E-01  1.60770E-01  1.73309E-01  1.83803E-01  1.90894E-01
   1.94151E-01  1.94616E-01  1.92594E-01  1.89838E-01  1.87083E-01  1.81223E-01  1.77043E-01  1.69110E-01  1.53519E-01  1.42401E-01
   1.34881E-01  1.39759E-01  1.47765E-01  1.33753E-01  1.14801E-01  9.26941E-02  6.64110E-02  6.21280E-02  5.33102E-02  4.04508E-02
   3.36562E-02  2.86585E-02  2.43388E-02  1.93973E-02  1.56104E-02  1.50702E-02  1.74838E-02  2.16171E-02  2.53107E-02  2.81521E-02
   3.27840E-02  3.88024E-02  4.48855E-02  5.28504E-02  5.95815E-02  6.24074E-02  6.51507E-02  6.71870E-02  6.79980E-02  6.94414E-02
   7.35129E-02  7.70762E-02  7.49449E-02  7.16486E-02  6.95720E-02  6.69568E-02  6.35514E-02  5.77492E-02  5.11734E-02  4.83418E-02
   4.53889E-02  3.96078E-02  3.44115E-02  2.98361E-02  2.59822E-02  2.10647E-02  1.46465E-02  9.10225E-03  4.61978E-03  1.39630E-03
  -4.76103E-04 -5.87293E-03 -1.30187E-02 -1.70304E-02 -2.24454E-02 -3.20269E-02 -4.38549E-02 -5.41767E-02 -6.27976E-02 -7.34251E-02
  -8.79222E-02 -1.06633E-01 -1.28795E-01 -1.49256E-01 -1.65653E-01 -1.82146E-01 -2.00880E-01 -2.16295E-01 -2.27705E-01 -2.38852E-01
  -2.49500E-01 -2.56366E-01 -2.55342E-01 -2.49534E-01 -2.47144E-01 -2.44808E-01 -2.34989E-01 -2.20792E-01 -2.09456E-01 -2.01196E-01
  -1.92230E-01 -1.82037E-01 -1.72314E-01 -1.59491E-01 -1.45206E-01 -1.33712E-01 -1.20750E-01 -1.05276E-01 -9.17728E-02 -7.92760E-02
  -6.79125E-02 -5.55497E-02 -4.48049E-02 -3.40113E-02 -2.11129E-02 -1.43675E-02 -9.28255E-03  2.43034E-04  1.02840E-02  1.66577E-02
   1.87342E-02  2.08273E-02  2.87639E-02  3.42285E-02  3.46584E-02  3.61181E-02  3.84305E-02  4.04171E-02  4.34812E-02  4.44195E-02
   4.24085E-02  4.33421E-02  4.80759E-02  5.07926E-02  5.17350E-02  5.52985E-02  5.71532E-02  5.53766E-02  5.51177E-02  5.66018E-02
   5.63704E-02  5.50181E-02  5.59615E-02  5.58632E-02  5.48460E-02  5.54467E-02  5.45229E-02  5.44476E-02  5.78757E-02  5.95999E-02
   5.85199E-02  5.40829E-02  4.84225E-02  5.05059E-02  5.67677E-02  5.59145E-02  5.26150E-02  5.35568E-02  5.50998E-02  5.27755E-02
   4.94046E-02  5.12029E-02  5.59579E-02  5.89318E-02  5.88546E-02  5.78618E-02  6.09593E-02  6.36532E-02  6.48537E-02  6.54140E-02
   6.70793E-02  6.98181E-02  7.07868E-02  6.85505E-02  6.59968E-02  6.77433E-02  7.16296E-02  7.23757E-02  7.48487E-02  7.80659E-02
   7.82291E-02  7.80947E-02  7.89339E-02  8.49773E-02  9.28061E-02  9.23563E-02  9.11944E-02  8.92536E-02  8.65370E-02  9.08393E-02
   9.55498E-02  9.68685E-02  9.69663E-02  9.56008E-02  9.68789E-02  1.00743E-01  1.03093E-01  1.03886E-01  1.04498E-01  1.05929E-01
   1.11839E-01  1.16663E-01  1.16339E-01  1.17637E-01  1.22871E-01  1.26909E-01  1.28989E-01  1.33483E-01  1.39412E-01  1.48584E-01
   1.56167E-01  1.59123E-01  1.63725E-01  1.68983E-01
 NY background values follow
     9.309E-02    9.281E-02    9.253E-02    9.224E-02    9.196E-02    9.168E-02    9.139E-02    9.111E-02    9.083E-02    9.054E-02
     9.026E-02    8.998E-02    8.969E-02    8.941E-02    8.912E-02    8.884E-02    8.856E-02    8.827E-02    8.799E-02    8.771E-02
     8.742E-02    8.714E-02    8.685E-02    8.657E-02    8.629E-02    8.600E-02    8.572E-02    8.543E-02    8.515E-02    8.487E-02
     8.458E-02    8.430E-02    8.401E-02    8.373E-02    8.344E-02    8.316E-02    8.288E-02    8.259E-02    8.231E-02    8.202E-02
     8.174E-02    8.145E-02    8.117E-02    8.089E-02    8.060E-02    8.032E-02    8.003E-02    7.975E-02    7.946E-02    7.918E-02
     7.889E-02    7.861E-02    7.833E-02    7.804E-02    7.776E-02    7.747E-02    7.719E-02    7.690E-02    7.662E-02    7.633E-02
     7.605E-02    7.576E-02    7.548E-02    7.519E-02    7.491E-02    7.462E-02    7.434E-02    7.405E-02    7.377E-02    7.348E-02
