 
 $NMID
 ID=''
 FMTDAT='(2E13.5)'
 TRAMP=   1.00000E+0
 VOLUME=   1.00000E+0
 $END
   3.79566E+2  -4.09867E+2
  -2.92185E+2   2.05936E+3
   2.39046E+3  -3.06983E+3
   1.98300E+3   3.59074E+2
   1.13240E+3  -4.16308E+2
   1.45373E+3  -3.13742E+3
  -7.87725E+2  -8.64716E+2
  -3.33981E+3  -2.33075E+3
  -1.66176E+3  -5.15993E+3
  -2.27665E+2  -1.46691E+3
   1.19512E+3  -6.09014E+2
   2.65073E+3   2.43655E+3
  -2.41958E+3   2.46467E+3
  -4.22866E+3   2.21353E+2
  -1.30380E+3  -2.18851E+3
   3.68436E+3  -2.83546E+3
   1.44338E+3  -1.27283E+3
   2.29481E+3  -5.81159E+2
  -2.26194E+3  -1.89032E+2
  -2.64011E+3  -6.81621E+2
   3.53538E+3  -2.09300E+3
  -8.37459E+2   3.42093E+3
  -3.79187E+3   1.36326E+3
  -3.05955E+3  -4.54822E+3
   3.14311E+3  -2.63136E+3
   1.05729E+3   5.81576E+3
  -3.42974E+3   2.37066E+3
  -2.99621E+3  -2.94522E+3
   4.60360E+2  -3.82191E+3
   5.20291E+3   1.90467E+3
   3.55276E+3   9.73998E+3
  -6.31172E+3   6.76664E+3
  -4.01108E+3  -1.15576E+2
   2.27290E+3  -1.04644E+3
   1.26270E+3   2.49011E+3
   6.72125E+2  -1.95709E+3
   4.42790E+3   6.69273E+2
   7.64480E+3   6.65839E+3
   1.64591E+3   3.45825E+3
   1.86184E+3   3.96285E+3
  -3.35923E+3   1.48045E+3
  -4.74748E+3   1.44018E+3
  -2.11630E+2  -5.87792E+3
   7.53780E+3  -3.00327E+3
   4.70682E+3  -6.88794E+2
   2.30276E+3   1.51445E+2
   2.64342E+3  -2.83518E+2
  -1.31996E+3   2.24059E+3
  -1.66435E+3   3.23042E+3
  -4.33368E+3   9.49478E+2
  -3.79940E+3  -1.26034E+3
   1.62091E+2  -2.51137E+3
   1.18083E+3   1.71066E+3
  -1.96126E+3   1.90196E+3
  -3.66956E+3   3.59984E+2
  -4.74133E+3   1.57884E+3
  -3.22959E+3  -4.09687E+2
  -4.19315E+3  -4.64421E+3
  -1.06130E+3  -9.21762E+3
   5.01937E+3  -5.27467E+3
   4.74027E+3   3.10477E+2
   4.87086E+3   3.13705E+3
  -9.23705E+2   1.07596E+3
  -3.12478E+3  -4.15955E+3
   2.64528E+3  -3.59756E+3
   2.39466E+3   1.72154E+3
  -2.71760E+3   3.34100E+3
  -5.78112E+3  -2.40196E+3
  -4.52548E+2  -1.98101E+3
   1.76169E+3  -1.29099E+3
  -2.13740E+2  -1.34490E+2
  -3.66519E+2  -2.50120E+2
   1.73357E+3  -1.52654E+3
   7.33733E+2  -9.62673E+2
   2.53347E+2  -2.05175E+3
  -1.19839E+2   1.60973E+3
   1.39629E+3   1.09048E+3
   2.93745E+3  -6.79360E+2
   1.94499E+3   1.31588E+3
  -1.45671E+3   1.84991E+3
  -1.36012E+3   2.23441E+3
   4.29778E+2   9.75108E+2
  -6.34866E+2   2.02765E+3
   8.39658E+2   2.76640E+3
  -3.79432E+3   1.57657E+3
  -4.36760E+3  -1.41519E+3
   2.12485E+3  -2.53529E+3
   6.06580E+3  -1.86386E+3
   3.23807E+3   1.53093E+3
  -1.36442E+3   2.96447E+2
   1.78564E+2   8.54564E+2
   1.91246E+3  -6.44944E+1
  -3.04323E+3   3.53219E+3
  -5.18178E+3  -7.79726E+2
  -1.27022E+3  -3.18091E+3
   2.38764E+3  -2.25179E+3
   3.94995E+3   8.84238E+1
   1.89704E+3   1.34939E+3
  -3.19520E+3   9.28581E+2
  -3.70447E+2  -2.76475E+3
   2.72614E+3  -3.35166E+3
   3.72001E+3  -1.29125E+3
   4.70929E+2   1.88135E+3
  -7.98835E+2   1.41333E+3
  -1.14327E+3  -2.36786E+3
  -6.01188E+2   1.25983E+3
  -1.09208E+3  -2.09841E+2
  -1.70301E+3  -4.46406E+3
  -6.15935E+1  -3.01578E+3
   1.46904E+3  -2.90861E+3
   3.46466E+3   8.33023E+2
   1.49555E+3   3.55550E+3
  -1.09476E+3   2.49918E+3
  -4.39611E+2   1.31762E+2
  -1.10166E+3   2.06440E+3
  -6.21148E+2   5.89750E+2
  -9.65950E+2  -1.85105E+3
  -3.48797E+2  -1.59889E+3
   2.44992E+3  -2.44419E+2
  -1.12285E+2   2.42598E+3
   7.01012E+2  -1.81998E+2
  -1.99640E+2  -1.62924E+3
  -2.05567E+2  -1.59894E+3
   2.47709E+3  -5.79329E+2
   1.24447E+3   1.05998E+3
   5.85422E+2  -1.44102E+0
  -7.29457E+2   1.16628E+3
  -9.72055E+2  -1.04324E+3
  -4.33391E+2   2.17878E+3
  -3.91914E+1  -1.29755E+3
   1.02129E+3  -1.29094E+3
   6.94676E+2  -1.20669E+3
   2.87556E+3   3.36015E+3
  -9.95272E+2   4.17371E+3
  -3.96793E+3  -4.61344E+2
  -1.44119E+3  -4.16192E+3
  -3.73487E+2   1.39273E+3
   3.28742E+2  -7.57949E+2
   1.77512E+3  -2.75249E+2
  -1.03451E+3   2.41173E+3
   1.59483E+3  -2.11773E+3
   2.46853E+3   8.19410E+2
  -2.16418E+2   2.09629E+3
  -1.25876E+3   2.72863E+3
  -1.19110E+3  -2.62101E+2
   1.21435E+3  -7.05751E+2
  -1.79770E+2   2.23997E+3
  -1.30002E+3  -8.25346E+2
  -3.17459E+2  -3.95946E+2
  -1.19751E+3  -8.97188E+2
  -4.88786E+3  -6.59905E+2
  -5.04795E+2  -1.46359E+3
   1.28287E+3  -3.61284E+3
   1.96177E+3  -5.47584E+2
   5.04007E+2   1.62833E+3
  -2.22668E+3   8.21847E+1
  -1.32048E+3   8.86268E+2
  -3.46210E+2   2.56051E+3
  -9.28263E+2  -1.08866E+2
  -3.39666E+2   4.38571E+2
  -4.84721E+2  -2.25965E+3
  -3.80484E+2  -1.53515E+3
  -2.60827E+2  -1.48517E+3
   1.47916E+3   7.51659E+2
  -4.81935E+2   1.46417E+3
  -3.10450E+3  -7.73408E+2
   4.83793E+2  -1.98534E+3
   2.15773E+3   1.27300E+3
  -1.70296E+3   2.39901E+3
  -3.75364E+3   8.24852E+2
   5.99285E+2   1.28304E+3
   2.26671E+2   3.28831E+1
  -1.65143E+3  -2.26404E+3
  -2.70030E+2   1.42961E+2
   1.01958E+3   1.42810E+3
   1.80279E+3  -1.90771E+3
   1.38563E+3   7.29245E+2
   8.98544E+2   3.55031E+3
  -1.12964E+3   2.42014E+2
  -1.41561E+3  -1.66710E+3
  -5.22391E+2  -8.61032E+2
   7.21305E+2  -1.32070E+2
  -1.42959E+3   1.42817E+3
  -4.50666E+2   1.02860E+3
  -9.02289E+2   2.81481E+0
  -2.17310E+3   1.35426E+3
  -1.08845E+3  -5.06848E+2
  -7.97462E+2  -2.02968E+3
   1.72386E+2  -2.32236E+3
   1.49652E+3   7.43046E+2
  -9.85974E+2   2.17947E+3
   4.05390E+1   2.76865E+3
  -1.56694E+3  -6.35511E+1
   1.17571E+3  -7.98948E+2
  -5.16498E+2  -2.62338E+3
  -5.71171E+2  -3.10430E+2
  -1.47132E+3   1.29842E+3
  -4.64900E+2   1.37835E+3
   1.97067E+2   8.75345E+2
  -7.13068E+2   7.43813E+2
  -1.44500E+3  -5.46997E+2
  -8.50221E+2  -3.38136E+3
   8.88646E+2   3.97804E+2
   1.18005E+3   1.60992E+3
   2.23143E+1   2.70210E+3
   1.24726E+3   1.91251E+2
  -1.30730E+3   7.99820E+2
   1.51858E+3   2.29723E+2
  -2.60656E+1   1.23009E+3
  -6.81406E+2   7.69133E+2
  -1.24743E+3  -2.04497E+3
   2.60474E+3  -1.98472E+3
   1.37668E+3   1.30331E+3
   2.47147E+2   2.94014E+3
  -1.07789E+3  -5.14457E+2
  -6.03197E+2  -3.68947E+2
   1.05495E+3  -4.13534E+2
   6.47660E+2   1.34990E+3
   5.16437E+2   4.02403E+2
  -6.76779E+2   1.63319E+3
   1.53363E+3   2.83423E+2
   1.04064E+3  -2.33368E+2
  -4.04005E+2  -6.99400E+2
   4.10979E+2  -3.83444E+2
  -3.17443E+2  -1.31891E+3
   9.32969E+2  -4.92984E+2
   3.76456E+2   5.17221E+2
   5.51049E+2   1.41240E+3
   9.24752E+2   3.38048E+2
   8.57650E+2   1.31726E+2
  -5.78337E+2   1.13131E+2
  -3.25289E+1  -9.06789E+2
  -1.29485E+3  -1.31926E+3
   1.08614E+3  -4.49736E+2
   1.49697E+3   1.56847E+3
  -1.50260E+3   2.59945E+3
  -2.72651E+2   2.03818E+2
   1.33877E+3  -2.78394E+2
   1.11661E+3   1.14283E+3
   2.83462E+3   3.36612E+2
   2.01284E+3   7.02803E+2
  -6.21955E+2  -1.31852E+2
   2.40913E+3   1.05181E+3
   1.07868E+3   2.68565E+2
   1.28254E+1   3.95970E+2
  -5.77387E+2  -1.90296E+3
   3.33081E+2  -2.00586E+3
   8.69588E+2  -3.82121E+3
  -1.55478E+3   6.79127E+2
  -1.46729E+3   2.01178E+3
   1.41354E+3   7.78421E+2
  -5.35334E+2   2.96839E+2
   1.53795E+3   8.41373E+2
   1.51662E+3  -1.99432E+3
   2.00309E+3  -6.50808E+2
   9.54438E+2   3.08043E+2
   1.99994E+3   2.26255E+3
   1.42664E+3  -1.62548E+3
  -5.43989E+2   7.88249E+2
   1.44452E+3   1.06681E+3
   8.03302E+2   8.60170E+2
   6.76197E+2   3.92782E+2
   6.76460E+2   9.35074E+2
   5.40157E+2  -1.82310E+3
   1.44818E+3  -2.86714E+2
  -1.69864E+2   1.80961E+3
   4.02498E+2   1.03232E+3
   4.96571E+2  -2.12687E+2
  -7.04224E+2   6.76249E+1
   1.58072E+3   1.05972E+3
   1.29429E+3   1.44241E+3
  -1.09835E+3   2.12543E+2
  -5.05943E+1   3.08033E+2
  -9.78522E+2  -2.52073E+3
  -8.06387E+2  -1.33626E+3
   3.33309E+2  -2.56355E+3
   2.21807E+1  -9.43695E+0
   3.55577E+2   5.52998E+2
   8.68069E+2  -1.48720E+3
   1.07052E+3  -1.82489E+3
   3.63703E+2   1.16171E+3
  -8.50936E+2  -1.24869E+3
   3.63845E+2  -4.46604E+2
   4.40807E+2   1.17078E+3
  -1.44714E+3  -5.60035E+2
  -5.80617E+2   2.10395E+2
   9.10937E+2   2.71775E+2
   7.06680E+1   5.99252E+2
   1.77133E+3   2.91214E+2
  -1.98112E+3   1.56411E+1
  -8.02860E+2  -1.10997E+3
  -7.25769E+2   4.05850E+2
  -1.46110E+3  -8.18854E+2
   7.69470E+1   5.42696E+1
  -1.43776E+3   1.33408E+3
  -8.01598E+2  -3.68798E+2
   4.47741E+2   9.33317E+2
   7.81182E+2  -2.86075E+3
  -1.96475E+2  -3.99923E+2
  -3.20097E+2  -2.11462E+3
   9.08382E+2  -1.27912E+3
  -1.35448E+2   1.32999E+3
  -1.20344E+3  -3.02727E+2
  -1.47575E+3   3.42758E+2
   4.87222E+2  -8.22471E+2
  -5.77941E+1   6.45158E+2
  -1.61610E+3   1.56430E+3
   5.15062E+2   1.43743E+2
   3.41515E+1  -4.39648E+2
  -6.67370E+2   1.52421E+2
  -4.69348E+2  -1.11067E+3
   1.56862E+3   7.32643E+2
   1.27024E+3  -8.27294E+2
   1.30717E+2   4.77669E+2
  -1.36116E+3  -1.02873E+3
   8.76962E+2   6.94944E+2
   7.62398E+2   1.55321E+3
  -1.60794E+3  -7.51078E+2
   1.53447E+3   1.57524E+3
   1.63538E+3  -1.52148E+3
  -5.90786E+1  -9.37103E+2
  -6.81008E+2  -2.69764E+2
  -1.74991E+2  -2.77220E+3
  -1.84750E+2  -5.07209E+1
  -1.80125E+2  -7.36620E+1
   7.91934E+2   6.29760E+2
   1.34895E+3   8.10281E+1
  -3.10370E+2   1.49341E+3
   1.30671E+3  -1.52672E+3
  -1.26354E+3   8.31797E+2
  -8.73796E+2   7.07898E+1
  -8.02985E+2  -2.15581E+3
   8.44257E+2   5.07240E+2
   2.63960E+3  -4.94195E+1
  -1.32943E+3   1.14423E+3
   8.28039E+1  -2.30511E+2
  -1.27813E+3  -1.07422E+3
  -1.02720E+3  -5.82804E+2
  -1.47123E+3  -9.09601E+2
   1.46765E+3  -5.62729E+2
   2.33563E+3  -7.32772E+2
  -1.56075E+3   5.71564E+2
   6.52775E+2   1.45835E+3
  -4.01275E+2   9.29372E+2
  -3.91026E+2   4.70382E+2
   7.12554E+2  -1.57914E+3
  -7.93783E+2  -1.60561E+3
   1.46775E+3   1.15659E+3
   4.81881E+2   1.60119E+3
  -1.24319E+3   1.46555E+3
  -3.22519E+2  -1.16259E+3
  -7.13515E+2   1.48522E+3
   4.27672E+2   1.02694E+3
   1.46184E+3  -1.08007E+3
   1.11251E+3  -1.28986E+3
   2.08511E+3   4.33203E+2
  -1.77983E+3   5.88851E+2
  -1.11227E+2  -8.10035E+2
   1.84259E+3  -2.40096E+1
   6.19120E+2  -6.82501E+2
  -1.70788E+0  -1.00133E+3
   1.38637E+3  -2.76030E+2
   7.54586E+2   9.36578E+2
  -2.61632E+2   1.65174E+3
   7.17700E+2   1.65225E+2
  -3.08238E+2   2.21487E+3
   2.20108E+3   1.47610E+3
