 LCModel (Version 6.3-1N) Copyright: S.W. Provencher.          Ref.: Magn. Reson. Med. 30:672-679 (1993).                
 Slice_N1@14_24  02-Jun-2023 14:37:12
 27 lines in following concentration table = NCONC+1
    Conc.  %SD /Cr+PCr  Metabolite                                         
 1.37E-06  31% 2.0E-04 Mac                                                 
 1.21E-02 183%   1.791 Cr                                                  
 4.20E-02  54%   6.209 PCr                                                 
 7.82E-02  16%  11.557 Ins                                                 
 6.80E-02  13%  10.049 NAA                                                 
 7.78E-02  14%  11.503 Tau                                                 
 3.56E-03 382%   0.527 PCho                                                
 1.04E-02 125%   1.539 GPC                                                 
 6.55E-02  19%   9.681 Glu                                                 
 2.06E-02  42%   3.050 Gln                                                 
    0.000 999%   0.000 Ala                                                 
 2.11E-02  84%   3.124 Asc                                                 
 1.04E-02  63%   1.538 Asp                                                 
 5.64E-03  67%   0.833 GABA                                                
 5.28E-03  79%   0.780 Glc                                                 
 3.28E-03 142%   0.485 GSH                                                 
 8.86E-03 121%   1.310 Lac                                                 
    0.000 999%   0.000 NAAG                                                
    0.000 999%   0.000 PE                                                  
 1.40E-02  20%   2.066 GPC+PCho                                            
 6.80E-02  13%  10.049 NAA+NAAG                                            
 8.61E-02  17%  12.731 Glu+Gln                                             
 5.41E-02  15%   8.000 Cr+PCr                                              
 6.80E-02  13%  10.049 NAA+NAAG                                            
 5.41E-02  15%   8.000 Cr+PCr                                              
 8.61E-02  17%  12.731 Glu+Gln                                             
   6 lines in following misc. output table
  FWHM = 0.035 ppm    S/N =   2                                            
  Data shift =-0.017 ppm                                                   
  Ph:  39 deg     -10.4 deg/ppm                                            
  alphaB,S = 3.1E+01,   2.6E+01                                            
   18 spline knots.   Ns = 8(1)                                            
   2 inflections.     1 extrema                                            
  654 points on ppm-axis = NY
      4.000000     3.994181     3.988363     3.982544     3.976726     3.970907     3.965088     3.959270     3.953451     3.947633
      3.941814     3.935995     3.930177     3.924358     3.918540     3.912721     3.906902     3.901084     3.895265     3.889446
      3.883628     3.877809     3.871991     3.866172     3.860353     3.854535     3.848716     3.842898     3.837079     3.831260
      3.825442     3.819623     3.813805     3.807986     3.802167     3.796349     3.790530     3.784712     3.778893     3.773074
      3.767256     3.761437     3.755619     3.749800     3.743981     3.738163     3.732344     3.726526     3.720707     3.714888
      3.709070     3.703251     3.697433     3.691614     3.685795     3.679977     3.674158     3.668339     3.662521     3.656702
      3.650884     3.645065     3.639246     3.633428     3.627609     3.621791     3.615972     3.610153     3.604335     3.598516
      3.592698     3.586879     3.581060     3.575242     3.569423     3.563605     3.557786     3.551967     3.546149     3.540330
      3.534512     3.528693     3.522874     3.517056     3.511237     3.505419     3.499600     3.493781     3.487963     3.482144
      3.476326     3.470507     3.464688     3.458870     3.453051     3.447232     3.441414     3.435595     3.429777     3.423958
      3.418139     3.412321     3.406502     3.400684     3.394865     3.389046     3.383228     3.377409     3.371591     3.365772
      3.359953     3.354135     3.348316     3.342498     3.336679     3.330860     3.325042     3.319223     3.313405     3.307586
      3.301767     3.295949     3.290130     3.284312     3.278493     3.272674     3.266856     3.261037     3.255219     3.249400
      3.243581     3.237763     3.231944     3.226125     3.220307     3.214488     3.208670     3.202851     3.197032     3.191214
      3.185395     3.179577     3.173758     3.167939     3.162121     3.156302     3.150484     3.144665     3.138846     3.133028
      3.127209     3.121391     3.115572     3.109753     3.103935     3.098116     3.092298     3.086479     3.080660     3.074842
      3.069023     3.063205     3.057386     3.051567     3.045749     3.039930     3.034111     3.028293     3.022474     3.016656
      3.010837     3.005018     2.999200     2.993381     2.987563     2.981744     2.975925     2.970107     2.964288     2.958470
      2.952651     2.946832     2.941014     2.935195     2.929377     2.923558     2.917739     2.911921     2.906102     2.900284
      2.894465     2.888646     2.882828     2.877009     2.871191     2.865372     2.859553     2.853735     2.847916     2.842098
      2.836279     2.830460     2.824642     2.818823     2.813004     2.807186     2.801367     2.795549     2.789730     2.783911
      2.778093     2.772274     2.766456     2.760637     2.754818     2.749000     2.743181     2.737363     2.731544     2.725725
      2.719907     2.714088     2.708270     2.702451     2.696632     2.690814     2.684995     2.679177     2.673358     2.667539
      2.661721     2.655902     2.650084     2.644265     2.638446     2.632628     2.626809     2.620991     2.615172     2.609353
      2.603535     2.597716     2.591897     2.586079     2.580260     2.574442     2.568623     2.562804     2.556986     2.551167
      2.545349     2.539530     2.533711     2.527893     2.522074     2.516256     2.510437     2.504618     2.498800     2.492981
      2.487163     2.481344     2.475525     2.469707     2.463888     2.458070     2.452251     2.446432     2.440614     2.434795
      2.428977     2.423158     2.417339     2.411521     2.405702     2.399884     2.394065     2.388246     2.382428     2.376609
      2.370790     2.364972     2.359153     2.353335     2.347516     2.341697     2.335879     2.330060     2.324242     2.318423
      2.312604     2.306786     2.300967     2.295149     2.289330     2.283511     2.277693     2.271874     2.266056     2.260237
      2.254418     2.248600     2.242781     2.236963     2.231144     2.225325     2.219507     2.213688     2.207870     2.202051
      2.196232     2.190414     2.184595     2.178777     2.172958     2.167139     2.161321     2.155502     2.149683     2.143865
      2.138046     2.132228     2.126409     2.120590     2.114772     2.108953     2.103135     2.097316     2.091497     2.085679
      2.079860     2.074042     2.068223     2.062404     2.056586     2.050767     2.044949     2.039130     2.033311     2.027493
      2.021674     2.015856     2.010037     2.004218     1.998400     1.992581     1.986763     1.980944     1.975126     1.969307
      1.963489     1.957670     1.951852     1.946033     1.940215     1.934397     1.928578     1.922760     1.916941     1.911123
      1.905304     1.899486     1.893667     1.887849     1.882030     1.876212     1.870393     1.864575     1.858756     1.852938
      1.847119     1.841301     1.835482     1.829664     1.823845     1.818027     1.812208     1.806390     1.800571     1.794753
      1.788934     1.783116     1.777297     1.771479     1.765660     1.759842     1.754023     1.748205     1.742386     1.736568
      1.730749     1.724931     1.719113     1.713294     1.707476     1.701657     1.695839     1.690020     1.684202     1.678383
      1.672565     1.666746     1.660928     1.655109     1.649291     1.643472     1.637654     1.631835     1.626017     1.620198
      1.614380     1.608561     1.602743     1.596924     1.591106     1.585287     1.579469     1.573650     1.567832     1.562013
      1.556195     1.550376     1.544558     1.538739     1.532921     1.527102     1.521284     1.515465     1.509647     1.503829
      1.498010     1.492192     1.486373     1.480555     1.474736     1.468918     1.463099     1.457281     1.451462     1.445644
      1.439825     1.434007     1.428188     1.422370     1.416551     1.410733     1.404914     1.399096     1.393277     1.387459
      1.381640     1.375822     1.370003     1.364185     1.358366     1.352548     1.346729     1.340911     1.335092     1.329274
      1.323455     1.317637     1.311818     1.306000     1.300182     1.294363     1.288545     1.282726     1.276908     1.271089
      1.265271     1.259452     1.253634     1.247815     1.241997     1.236178     1.230360     1.224541     1.218723     1.212904
      1.207086     1.201267     1.195449     1.189630     1.183812     1.177993     1.172175     1.166356     1.160538     1.154719
      1.148901     1.143082     1.137264     1.131445     1.125627     1.119808     1.113990     1.108171     1.102353     1.096534
      1.090716     1.084898     1.079079     1.073261     1.067442     1.061624     1.055805     1.049987     1.044168     1.038350
      1.032531     1.026713     1.020894     1.015076     1.009257     1.003439     0.997620     0.991802     0.985983     0.980165
      0.974346     0.968528     0.962709     0.956891     0.951072     0.945254     0.939435     0.933617     0.927798     0.921980
      0.916161     0.910343     0.904524     0.898706     0.892887     0.887069     0.881251     0.875432     0.869614     0.863795
      0.857977     0.852158     0.846340     0.840521     0.834703     0.828884     0.823066     0.817247     0.811429     0.805610
      0.799792     0.793973     0.788155     0.782336     0.776518     0.770699     0.764881     0.759062     0.753244     0.747425
      0.741607     0.735788     0.729970     0.724151     0.718333     0.712514     0.706696     0.700877     0.695059     0.689240
      0.683422     0.677603     0.671785     0.665967     0.660148     0.654330     0.648511     0.642693     0.636874     0.631056
      0.625237     0.619419     0.613600     0.607782     0.601963     0.596145     0.590326     0.584508     0.578689     0.572871
      0.567052     0.561234     0.555415     0.549597     0.543778     0.537960     0.532141     0.526323     0.520504     0.514686
      0.508867     0.503049     0.497230     0.491412     0.485593     0.479775     0.473956     0.468138     0.462319     0.456501
      0.450682     0.444864     0.439045     0.433227     0.427408     0.421590     0.415771     0.409953     0.404134     0.398316
      0.392497     0.386679     0.380860     0.375042     0.369223     0.363405     0.357586     0.351767     0.345949     0.340130
      0.334312     0.328493     0.322675     0.316856     0.311038     0.305219     0.299401     0.293582     0.287764     0.281945
      0.276127     0.270308     0.264490     0.258671     0.252853     0.247034     0.241216     0.235397     0.229579     0.223760
      0.217942     0.212123     0.206305     0.200486
 NY phased data points follow
  -1.00957E-01 -4.36410E-02 -3.72270E-01 -4.43880E-01 -1.23595E-01 -3.60474E-01 -2.41642E-01  2.18041E-01 -6.34174E-02 -8.99078E-02
   2.34630E-01  5.12038E-02  1.45869E-02  5.16989E-01  2.15058E-01  2.28553E-01  2.93260E-01  6.24027E-02  5.33735E-01 -6.68082E-02
  -3.40040E-01 -1.50876E-01  1.31139E-01  6.47888E-01  3.41832E-01  3.18839E-02  1.50763E-01  2.12122E-02 -2.68452E-01 -1.45082E-01
  -2.91325E-01 -3.52376E-02 -2.50080E-01 -1.66323E-01 -8.08983E-02 -3.74580E-01  1.12548E-01 -2.05526E-01 -1.20205E-01 -4.81304E-01
  -1.90244E-01  2.70401E-01 -3.10773E-01 -3.66773E-02  1.66233E-01  2.74968E-01  3.41875E-01  6.80777E-01  4.24657E-01  1.99949E-01
   8.49990E-02  1.44477E-01  4.26288E-01 -7.73503E-02 -3.56762E-01 -4.67247E-01 -1.55431E-01 -2.41995E-01 -3.68995E-02  1.04863E-02
  -3.56846E-01 -4.66499E-02 -2.14428E-01 -7.96932E-02 -3.22406E-01 -4.14069E-01 -1.47382E-01 -7.87528E-02  2.50142E-01  1.21185E-01
   6.00234E-01  5.20188E-02 -1.15129E-01  5.34108E-01 -1.19614E-01  1.52640E-01 -4.58645E-02  1.83028E-02 -1.34698E-01 -4.71537E-01
   3.59911E-01  7.10394E-02 -1.43336E-01 -2.83966E-01 -3.80401E-02  4.47256E-01  5.76261E-01  5.52154E-01  2.62321E-01  3.03154E-01
  -5.90013E-02 -2.93176E-01 -9.93535E-02 -3.38806E-02 -1.60877E-02  4.48782E-03  1.21569E-01  6.71416E-02 -2.66008E-01 -8.40897E-02
  -1.38918E-01 -3.21578E-01 -6.26842E-02  1.32851E-01  3.28694E-01 -6.46687E-02  2.35276E-01  6.99777E-01  5.22156E-01  3.83693E-01
   4.33300E-02  2.99505E-01  3.32213E-01  1.52503E-01  1.19026E-01  1.71943E-01  2.81195E-01 -1.11430E-01  1.35932E-01  5.08781E-01
   5.72918E-01  6.92220E-02 -2.91868E-01  1.87079E-01 -8.01712E-02 -1.82784E-01 -9.51947E-02 -2.05631E-01 -7.25374E-01 -9.18896E-01
  -1.43083E-01 -4.93968E-01 -8.14545E-01 -7.29437E-01 -9.51155E-01 -2.98842E-01 -2.35712E-01 -6.72960E-01 -4.42248E-01 -5.61557E-01
  -7.97067E-01 -3.79058E-01  1.49624E-01 -2.77919E-01 -1.60475E-01  1.25995E-01 -2.52695E-01 -1.86213E-01 -3.42605E-01 -2.07069E-01
  -3.64421E-02 -5.38290E-02  3.34195E-02 -8.54369E-02  8.78124E-02  5.41755E-01  1.39176E-01 -1.54260E-01  7.25294E-02  6.95034E-02
   6.04528E-01  6.64092E-01  3.70067E-01  4.87113E-01  8.61798E-01  6.90792E-01  6.57042E-01  6.62738E-01  1.26579E-01  1.47364E-01
  -3.64603E-01 -6.40191E-01 -5.64368E-01 -7.35947E-01 -6.74589E-01 -6.92978E-01 -4.33393E-01 -3.27894E-01 -1.37373E-01  5.86633E-03
  -4.68282E-01 -2.01410E-01 -3.79290E-02 -3.72191E-01 -2.56306E-01 -5.59799E-02 -3.25834E-02 -1.41250E-01  2.49630E-01  3.95640E-02
  -2.73688E-01 -2.18544E-03  1.46269E-01 -4.80129E-02 -3.37894E-01 -2.33613E-02  3.00381E-01  7.46241E-02 -3.18090E-01 -9.17743E-02
  -1.50195E-01 -1.17467E-02 -3.45697E-03 -2.57537E-01  3.05588E-02 -1.51882E-01  1.07858E-02  2.12070E-01  2.41845E-01  1.48833E-01
   6.12448E-02  2.59077E-01  3.97797E-02  1.65741E-02  1.95703E-01 -1.20614E-01 -1.56268E-01  1.47204E-01  1.32388E-01  2.26219E-01
   1.85275E-01  9.20716E-02  1.20400E-01  1.69965E-01  1.37416E-01  4.58196E-01  6.96559E-01  1.83055E-01  5.93465E-01  2.65454E-01
  -2.27228E-01  4.19773E-01  3.61826E-01  4.34557E-01 -1.40763E-01 -2.20868E-01  8.22559E-02 -1.19334E-01 -2.12915E-02 -2.91327E-01
  -5.96044E-02 -1.52469E-02 -6.48974E-02  6.44465E-02  1.84009E-01  6.27675E-02 -2.81418E-01 -2.65980E-01 -1.37960E-02 -7.93939E-02
   1.60598E-01  5.57864E-01  2.97365E-01  4.30719E-01 -1.57666E-01 -2.51086E-01 -1.49582E-01 -3.17802E-04  1.21041E-01 -1.45671E-01
  -5.88760E-02 -1.67246E-01  4.47143E-01 -2.60584E-01 -1.36770E-01  9.31386E-02 -1.01694E-01  1.33768E-01 -2.67645E-01  2.36154E-01
   1.17635E-01  1.02941E-01  2.39314E-01  3.36206E-01 -1.56693E-01  1.55851E-01  1.35403E-01 -6.23860E-01  1.61587E-02 -1.20679E-01
   2.19721E-01 -1.81378E-01 -4.34068E-01 -8.22309E-02 -1.71710E-01  2.81445E-01 -6.38716E-02 -1.30492E-01  1.90155E-01  3.84473E-01
   1.97860E-01  9.53304E-04  1.75555E-01  9.28619E-02  1.54606E-01  6.22124E-02  1.69375E-01  9.29629E-02  6.95030E-02  3.48682E-01
  -6.83884E-02  3.93343E-01  4.30175E-01 -1.22811E-02  1.35430E-04  1.79918E-01  5.33739E-01 -1.36845E-02  4.14639E-01  2.83860E-01
   1.72587E-01  6.15913E-01  1.68992E-01  3.22086E-01  4.77626E-01  4.46518E-01  1.23648E-01  1.92397E-01  2.32986E-02 -2.79930E-01
  -4.11794E-01 -3.60568E-01 -4.74258E-01 -6.06507E-01 -3.06811E-02 -3.01129E-01 -4.66229E-01 -8.29020E-02  5.30028E-01 -1.23274E-01
  -1.98904E-01  4.43856E-01  9.02022E-02  3.87390E-02 -2.92571E-01 -1.40393E-01 -2.73489E-01 -3.53485E-01 -4.59026E-01 -2.35156E-01
  -4.08590E-01 -8.17100E-01 -5.17417E-01 -7.00091E-01 -6.08967E-01 -9.33652E-01 -7.41922E-01 -8.09061E-01  1.39723E-03  3.00477E-01
  -5.03962E-01  2.85308E-02 -1.60989E-01  3.21712E-02  2.30478E-01  1.52578E-01  4.90386E-02  9.55238E-02  7.13198E-02 -1.51406E-01
   2.68063E-01  2.44226E-01  6.31253E-02  7.13114E-02 -1.93932E-01 -4.47009E-02  3.46833E-01  3.14159E-01  5.00687E-01  7.51871E-02
   1.37258E-01  2.52544E-01 -4.80675E-02  3.25486E-01  2.81522E-01  1.06826E-01  2.10593E-01  5.76892E-01  1.72336E-01  1.17361E-01
   2.65288E-01  9.68279E-02  4.03982E-01  6.91278E-02 -5.06003E-02  2.88176E-02  3.47804E-03  3.44497E-01  1.10767E-01  1.56414E-01
   4.65905E-01  2.24969E-02  1.74611E-01 -8.76629E-02 -2.65096E-01  3.92862E-01  6.50200E-02 -2.14229E-01  6.60619E-02 -8.35957E-02
  -1.73551E-01 -2.78404E-01 -3.84104E-02  2.80531E-01 -3.70399E-01 -3.44112E-01 -2.58300E-01 -1.74335E-01 -5.34302E-02 -9.01004E-03
  -1.55625E-01 -9.62896E-02  3.62239E-01 -3.11266E-01  7.93978E-02 -1.10373E-01 -7.51911E-02  1.69620E-01 -1.99591E-01  2.76677E-01
  -2.99916E-01 -4.01109E-02  3.20472E-01  7.10500E-02 -1.53595E-01 -4.94346E-01 -6.17534E-01 -1.21512E-01  1.95860E-01 -2.74441E-01
   5.27817E-02 -2.42383E-01 -4.98034E-01  1.39819E-01 -1.78981E-02 -1.94583E-01 -1.91942E-01 -2.40025E-02  3.29330E-01 -2.27554E-01
  -3.57008E-01 -2.62338E-01 -9.18669E-03  6.56207E-02 -4.48072E-01 -1.98924E-01  5.96644E-02  1.60442E-01 -1.06078E-01  2.03023E-01
   2.18859E-01  2.42149E-01  4.09745E-01  1.20306E-01  3.90567E-01  2.96962E-01  4.44731E-01  1.54990E-01  4.03758E-02  4.11148E-01
   2.99518E-01 -7.66061E-02  2.31826E-01  5.37930E-01  7.57490E-03 -1.18280E-01  9.84243E-02  2.98484E-01 -3.05230E-02  1.97781E-02
   1.56225E-02  9.95001E-02 -4.64561E-02 -2.38972E-01 -5.09249E-02  4.69196E-02  1.65242E-01 -2.14558E-01  5.63559E-01  2.31554E-02
  -2.35104E-01  1.34235E-01 -4.90447E-01  2.25313E-02 -1.02922E-01  2.84725E-01  1.07209E-01  4.64889E-02  1.62153E-01 -4.05882E-01
   2.05643E-03 -5.85541E-02  2.55545E-01  4.08612E-02 -2.47556E-01 -2.24584E-01 -3.40519E-01  3.57575E-02  8.85300E-02  8.21112E-02
  -2.75165E-02  1.37283E-02  3.42302E-02 -1.22586E-01  5.38323E-03  3.66807E-01 -7.27234E-02 -3.45045E-01  7.79352E-02  1.50445E-01
  -2.09208E-01  1.80912E-02  4.03977E-01  1.30405E-02  3.74320E-01  2.38128E-02 -1.85267E-01  2.38753E-01  2.48902E-01  1.00917E-01
   1.54812E-01  3.00409E-01 -4.55334E-03  3.48266E-01 -9.17552E-02 -1.74516E-01  5.30908E-02 -1.51058E-01 -3.37796E-01 -1.47768E-01
  -4.91386E-02 -5.47263E-01 -1.71062E-01 -6.26280E-01 -4.14326E-01  4.29076E-02 -2.32942E-02  1.60149E-01 -1.17241E-01  6.39056E-02
   1.59436E-02 -3.43418E-01 -9.23389E-02  3.30134E-01 -2.11131E-02 -1.82151E-01 -2.71582E-01 -2.91882E-01 -8.13467E-02 -8.67637E-02
   8.12488E-02  2.26033E-01  2.65716E-01  2.15718E-01  2.64754E-01  2.41030E-01  2.35101E-01  3.97257E-01  4.77579E-01  4.29327E-01
   2.72733E-01  1.02814E-01  9.97309E-02  6.39079E-02  1.33769E-01  1.90810E-01  4.05373E-02 -2.08396E-01  1.12284E-01  1.60866E-01
  -2.72672E-01 -4.50681E-02 -2.46567E-02  1.57422E-01 -1.98349E-01 -1.32985E-01  2.97871E-01  1.47540E-01 -4.14202E-02 -2.91458E-02
   3.99238E-01 -4.42608E-01 -2.74785E-01  9.92677E-02 -7.53963E-02 -9.27919E-02 -1.76689E-01  2.42648E-01 -9.15472E-02  3.16373E-01
   2.16405E-01 -1.97688E-01 -3.59610E-01 -3.51481E-01  1.71987E-01 -2.53664E-02  9.37333E-02 -3.12779E-01 -5.29584E-01 -3.02841E-01
  -2.08996E-02  1.30437E-01 -3.53336E-01 -3.72567E-01 -1.40813E-01  2.19031E-02 -1.08904E-01  5.11503E-02  7.16072E-03  4.99540E-02
   2.42317E-01 -1.20362E-01 -6.41006E-02 -2.66956E-02  6.15270E-02  2.52969E-01  5.14541E-02  2.02385E-02  1.43802E-01 -8.91067E-02
  -4.14717E-02 -6.93714E-02 -2.19061E-01 -3.53206E-02  5.34710E-04  1.24531E-02  3.07605E-01  4.97729E-01  1.37935E-01  2.10924E-01
   3.87619E-01  4.44104E-02 -2.69136E-01 -1.85608E-01  1.14531E-01  2.02527E-01 -3.63203E-02  1.47489E-01  4.36707E-01  2.64990E-01
   9.00517E-02 -2.96079E-01 -1.71630E-01  5.40185E-02  1.71372E-01  1.37546E-01  2.78395E-01  2.35525E-01 -9.62846E-02  1.08033E-01
   2.59270E-01  3.26657E-01  2.87277E-01  1.80564E-01
 NY points of the fit to the data follow
   5.19388E-02  5.46993E-02  5.00486E-02  4.04961E-02  3.20151E-02  2.89712E-02  2.95630E-02  3.96289E-02  6.37607E-02  1.02091E-01
   1.54251E-01  2.12501E-01  2.76103E-01  3.41781E-01  3.93773E-01  4.16784E-01  3.93108E-01  3.16461E-01  2.15790E-01  1.35908E-01
   8.47887E-02  5.15146E-02  3.00860E-02  8.08827E-03 -1.23719E-02 -3.51974E-02 -5.73428E-02 -7.58841E-02 -9.05475E-02 -1.02839E-01
  -1.14826E-01 -1.26587E-01 -1.37971E-01 -1.49202E-01 -1.60876E-01 -1.72166E-01 -1.82050E-01 -1.87607E-01 -1.85182E-01 -1.70160E-01
  -1.38821E-01 -8.90976E-02 -2.32545E-02  5.13434E-02  1.24562E-01  1.84968E-01  2.24175E-01  2.36359E-01  2.18476E-01  1.77356E-01
   1.25264E-01  7.36215E-02  2.86632E-02 -1.07955E-02 -5.03448E-02 -8.74512E-02 -1.20719E-01 -1.55043E-01 -1.79117E-01 -1.97867E-01
  -2.13896E-01 -2.17175E-01 -2.14094E-01 -2.01401E-01 -1.77437E-01 -1.41441E-01 -7.40964E-02  1.95600E-02  1.16934E-01  2.16716E-01
   3.00125E-01  3.22367E-01  2.98940E-01  2.60652E-01  1.87892E-01  9.62070E-02  5.73170E-03 -7.74416E-02 -1.45333E-01 -1.99754E-01
  -2.32938E-01 -2.25690E-01 -1.69213E-01 -6.46742E-02  7.79821E-02  2.19340E-01  3.14812E-01  3.62968E-01  3.75142E-01  3.43569E-01
   2.86899E-01  2.25336E-01  1.70756E-01  1.20786E-01  6.48086E-02 -5.28590E-04 -7.71104E-02 -1.57736E-01 -2.30391E-01 -2.83631E-01
  -2.99676E-01 -2.64902E-01 -1.72515E-01 -3.39378E-02  1.20826E-01  2.50767E-01  3.28464E-01  3.55341E-01  3.44114E-01  3.25685E-01
   3.09643E-01  3.00206E-01  2.93516E-01  2.87607E-01  2.80939E-01  2.74179E-01  2.68144E-01  2.57952E-01  2.46244E-01  2.31154E-01
   2.03631E-01  1.68992E-01  1.19277E-01  5.98062E-02 -7.75395E-03 -9.15533E-02 -1.81250E-01 -2.72970E-01 -3.79118E-01 -4.72624E-01
  -5.39811E-01 -5.92048E-01 -6.23540E-01 -6.17838E-01 -5.84004E-01 -5.37588E-01 -5.25074E-01 -5.57551E-01 -5.91986E-01 -5.96378E-01
  -5.02919E-01 -3.13752E-01 -1.28663E-01 -2.79709E-02  1.85809E-02  3.54247E-02  5.59882E-02  7.51298E-02  9.22095E-02  1.07689E-01
   1.21927E-01  1.35222E-01  1.47976E-01  1.60779E-01  1.74193E-01  1.88849E-01  2.05329E-01  2.24610E-01  2.48584E-01  2.78301E-01
   2.95402E-01  3.17548E-01  3.56768E-01  3.98890E-01  4.28489E-01  4.18279E-01  3.64532E-01  2.73603E-01  1.20684E-01 -9.01722E-02
  -3.31907E-01 -5.57617E-01 -6.76296E-01 -6.16734E-01 -4.67200E-01 -3.57446E-01 -2.93716E-01 -2.69731E-01 -2.46238E-01 -2.24487E-01
  -2.05190E-01 -1.89577E-01 -1.76425E-01 -1.64763E-01 -1.53505E-01 -1.43231E-01 -1.34466E-01 -1.26669E-01 -1.19126E-01 -1.11602E-01
  -1.04200E-01 -9.69901E-02 -9.01611E-02 -8.35331E-02 -7.69452E-02 -7.03094E-02 -6.39029E-02 -5.75774E-02 -5.10418E-02 -4.40397E-02
  -3.70594E-02 -3.07354E-02 -2.49975E-02 -1.97909E-02 -1.54830E-02 -1.28162E-02 -1.26101E-02 -1.45015E-02 -1.66829E-02 -1.80138E-02
  -1.96285E-02 -2.35377E-02 -3.00162E-02 -3.60741E-02 -3.82390E-02 -3.64720E-02 -3.28205E-02 -2.78279E-02 -2.29361E-02 -1.89576E-02
  -1.32771E-02 -2.75307E-03  1.61438E-02  4.17601E-02  6.93126E-02  1.00822E-01  1.36756E-01  1.72774E-01  2.01288E-01  2.12049E-01
   2.03330E-01  1.87412E-01  1.74720E-01  1.58771E-01  1.25942E-01  7.10335E-02  1.17162E-02 -2.79977E-02 -4.68515E-02 -5.46694E-02
  -5.90254E-02 -6.40708E-02 -6.87616E-02 -7.35017E-02 -7.79271E-02 -8.19796E-02 -8.58539E-02 -8.98442E-02 -9.44654E-02 -9.79185E-02
  -1.02873E-01 -1.10245E-01 -1.16255E-01 -1.20923E-01 -1.22298E-01 -1.20148E-01 -1.12114E-01 -9.26063E-02 -6.40871E-02 -2.94251E-02
   7.07007E-03  3.78411E-02  5.62877E-02  6.90080E-02  8.18907E-02  8.48621E-02  8.31197E-02  8.44505E-02  8.93918E-02  9.31476E-02
   9.02470E-02  8.44247E-02  7.19805E-02  5.11823E-02  2.16086E-02 -1.44702E-02 -5.09887E-02 -8.67188E-02 -1.19835E-01 -1.53007E-01
  -1.82536E-01 -2.06855E-01 -2.18326E-01 -2.08961E-01 -1.74398E-01 -1.09847E-01 -1.92430E-02  8.57369E-02  1.88831E-01  2.71325E-01
   3.14175E-01  3.15758E-01  2.88544E-01  2.47491E-01  2.12340E-01  1.91133E-01  1.81283E-01  1.78979E-01  1.78846E-01  1.78917E-01
   1.76231E-01  1.70277E-01  1.62949E-01  1.54680E-01  1.47801E-01  1.41382E-01  1.35228E-01  1.28668E-01  1.21318E-01  1.12693E-01
   1.02086E-01  8.91147E-02  7.33721E-02  5.39655E-02  3.03767E-02  1.88372E-03 -3.20583E-02 -7.05961E-02 -1.13118E-01 -1.57225E-01
  -1.99575E-01 -2.35117E-01 -2.57472E-01 -2.62309E-01 -2.47326E-01 -2.14982E-01 -1.68213E-01 -1.15489E-01 -6.46211E-02 -2.38215E-02
  -1.11951E-03  1.79449E-03 -1.32125E-02 -4.13597E-02 -8.34729E-02 -1.27516E-01 -1.53527E-01 -1.73869E-01 -2.06645E-01 -2.70850E-01
  -3.67754E-01 -4.81135E-01 -6.12991E-01 -7.48435E-01 -8.51181E-01 -8.74185E-01 -7.73749E-01 -5.36075E-01 -2.61364E-01 -8.26845E-02
  -1.21651E-02  2.72307E-03  6.74300E-03  1.64220E-02  2.43289E-02  3.00592E-02  3.38994E-02  3.57300E-02  3.57818E-02  3.41313E-02
   3.07013E-02  2.60381E-02  2.08059E-02  1.61260E-02  1.30653E-02  1.23736E-02  1.41018E-02  1.78580E-02  2.32639E-02  2.90207E-02
   3.49063E-02  3.98503E-02  4.39009E-02  4.72907E-02  5.02232E-02  5.29429E-02  5.53668E-02  5.75373E-02  5.93671E-02  6.10573E-02
   6.27978E-02  6.45963E-02  6.63093E-02  6.78249E-02  6.91281E-02  7.03665E-02  7.16267E-02  7.28509E-02  7.39375E-02  7.48701E-02
   7.57314E-02  7.66496E-02  7.75899E-02  7.83787E-02  7.87126E-02  7.83428E-02  7.72379E-02  7.54543E-02  7.32213E-02  7.07100E-02
   6.79790E-02  6.48980E-02  6.14002E-02  5.75544E-02  5.34418E-02  4.92231E-02  4.50212E-02  4.09109E-02  3.69634E-02  3.33044E-02
   2.99425E-02  2.67673E-02  2.37605E-02  2.10681E-02  1.87169E-02  1.66072E-02  1.47305E-02  1.30005E-02  1.13263E-02  9.77444E-03
   8.45349E-03  7.43178E-03  6.82731E-03  6.63445E-03  6.83980E-03  7.46698E-03  8.56795E-03  1.02222E-02  1.22913E-02  1.45395E-02
   1.69189E-02  1.93982E-02  2.19117E-02  2.44345E-02  2.69672E-02  2.95905E-02  3.26053E-02  3.63521E-02  4.07798E-02  4.56152E-02
   5.05432E-02  5.55695E-02  6.08833E-02  6.66161E-02  7.27104E-02  7.88742E-02  8.48226E-02  9.02954E-02  9.51366E-02  9.91433E-02
   1.02142E-01  1.03855E-01  1.04630E-01  1.04640E-01  1.03565E-01  1.02124E-01  1.00672E-01  1.00454E-01  1.02950E-01  1.08336E-01
   1.16827E-01  1.27863E-01  1.39681E-01  1.50048E-01  1.54294E-01  1.47513E-01  1.29680E-01  1.06183E-01  8.31072E-02  6.60848E-02
   5.63491E-02  5.02672E-02  4.61182E-02  4.25083E-02  3.97232E-02  3.77827E-02  3.66146E-02  3.62911E-02  3.68079E-02  3.80693E-02
   3.98598E-02  4.19379E-02  4.42380E-02  4.67302E-02  4.92748E-02  5.16955E-02  5.38442E-02  5.55683E-02  5.68006E-02  5.76834E-02
   5.83557E-02  5.88816E-02  5.92178E-02  5.92390E-02  5.87179E-02  5.75592E-02  5.59327E-02  5.39931E-02  5.18930E-02  4.96622E-02
   4.73230E-02  4.50079E-02  4.27857E-02  4.05416E-02  3.81938E-02  3.57840E-02  3.33731E-02  3.09828E-02  2.85617E-02  2.62018E-02
   2.39438E-02  2.17226E-02  1.94046E-02  1.67772E-02  1.36221E-02  9.93892E-03  5.77889E-03  1.01578E-03 -4.46396E-03 -1.06478E-02
  -1.74371E-02 -2.49034E-02 -3.32432E-02 -4.24166E-02 -5.20924E-02 -6.18150E-02 -7.10991E-02 -7.96602E-02 -8.73999E-02 -9.42271E-02
  -9.99692E-02 -1.04449E-01 -1.07530E-01 -1.09125E-01 -1.09185E-01 -1.07735E-01 -1.05122E-01 -1.01770E-01 -9.78247E-02 -9.32839E-02
  -8.83602E-02 -8.34287E-02 -7.85483E-02 -7.35046E-02 -6.81306E-02 -6.23244E-02 -5.61078E-02 -4.96840E-02 -4.32339E-02 -3.68150E-02
  -3.04317E-02 -2.43047E-02 -1.85263E-02 -1.30367E-02 -7.75768E-03 -2.79928E-03  1.83461E-03  6.08711E-03  9.87163E-03  1.33446E-02
   1.65762E-02  1.95018E-02  2.19797E-02  2.40155E-02  2.58392E-02  2.75936E-02  2.90666E-02  3.02119E-02  3.11662E-02  3.20341E-02
   3.28834E-02  3.37609E-02  3.46063E-02  3.54730E-02  3.65285E-02  3.77205E-02  3.88060E-02  3.96135E-02  4.01766E-02  4.04711E-02
   4.05374E-02  4.05708E-02  4.06197E-02  4.06179E-02  4.06151E-02  4.07110E-02  4.08553E-02  4.10214E-02  4.11774E-02  4.13122E-02
   4.14634E-02  4.14782E-02  4.12320E-02  4.08239E-02  4.04073E-02  4.02055E-02  4.03774E-02  4.07087E-02  4.08362E-02  4.07620E-02
   4.07210E-02  4.08106E-02  4.10865E-02  4.16083E-02  4.24585E-02  4.34865E-02  4.44502E-02  4.52674E-02  4.60195E-02  4.68529E-02
   4.76630E-02  4.83754E-02  4.89467E-02  4.93691E-02  4.97185E-02  5.00550E-02  5.03868E-02  5.09159E-02  5.17831E-02  5.28755E-02
   5.40618E-02  5.52516E-02  5.64304E-02  5.76152E-02  5.87983E-02  6.00511E-02  6.13449E-02  6.23641E-02  6.29127E-02  6.32306E-02
   6.35647E-02  6.42370E-02  6.53171E-02  6.64563E-02  6.74426E-02  6.82627E-02  6.91111E-02  7.02179E-02  7.15307E-02  7.29301E-02
   7.44103E-02  7.60155E-02  7.77641E-02  7.97267E-02  8.17180E-02  8.37229E-02  8.59598E-02  8.85344E-02  9.14707E-02  9.46922E-02
   9.81763E-02  1.01868E-01  1.05675E-01  1.09434E-01
 NY background values follow
     5.128E-02    5.112E-02    5.095E-02    5.078E-02    5.061E-02    5.045E-02    5.028E-02    5.011E-02    4.994E-02    4.978E-02
     4.961E-02    4.944E-02    4.927E-02    4.911E-02    4.894E-02    4.877E-02    4.860E-02    4.844E-02    4.827E-02    4.810E-02
     4.793E-02    4.777E-02    4.760E-02    4.743E-02    4.726E-02    4.709E-02    4.693E-02    4.676E-02    4.659E-02    4.642E-02
     4.625E-02    4.609E-02    4.592E-02    4.575E-02    4.558E-02    4.541E-02    4.525E-02    4.508E-02    4.491E-02    4.474E-02
     4.457E-02    4.441E-02    4.424E-02    4.407E-02    4.390E-02    4.373E-02    4.356E-02    4.340E-02    4.323E-02    4.306E-02
     4.289E-02    4.272E-02    4.255E-02    4.239E-02    4.222E-02    4.205E-02    4.188E-02    4.171E-02    4.154E-02    4.137E-02
     4.120E-02    4.104E-02    4.087E-02    4.070E-02    4.053E-02    4.036E-02    4.019E-02    4.002E-02    3.985E-02    3.969E-02
