 LCModel (Version 6.3-1N) Copyright: S.W. Provencher.          Ref.: Magn. Reson. Med. 30:672-679 (1993).                
 Slice_N1@24_16  02-Jun-2023 14:37:55
 27 lines in following concentration table = NCONC+1
    Conc.  %SD /Cr+PCr  Metabolite                                         
 2.31E-06  13% 6.2E-04 Mac                                                 
 2.99E-02  21%   8.000 Cr                                                  
    0.000 999%   0.000 PCr                                                 
 5.27E-02  19%  14.105 Ins                                                 
 4.12E-02  19%  11.038 NAA                                                 
 2.52E-02  30%   6.738 Tau                                                 
 2.35E-03 119%   0.628 PCho                                                
 2.35E-03 113%   0.630 GPC                                                 
 5.95E-02  17%  15.924 Glu                                                 
 9.76E-03  50%   2.612 Gln                                                 
    0.000 999%   0.000 Ala                                                 
 5.25E-03 198%   1.406 Asc                                                 
 3.93E-03  28%   1.054 Asp                                                 
 2.42E-03  27%   0.647 GABA                                                
 2.41E-03  27%   0.646 Glc                                                 
 3.83E-03  53%   1.025 GSH                                                 
    0.000 999%   0.000 Lac                                                 
 1.09E-03 427%   0.293 NAAG                                                
    0.000 999%   0.000 PE                                                  
 4.70E-03  43%   1.258 GPC+PCho                                            
 4.23E-02  17%  11.331 NAA+NAAG                                            
 6.92E-02  17%  18.536 Glu+Gln                                             
 2.99E-02  21%   8.000 Cr+PCr                                              
 4.23E-02  17%  11.331 NAA+NAAG                                            
 2.99E-02  21%   8.000 Cr+PCr                                              
 6.92E-02  17%  18.536 Glu+Gln                                             
   6 lines in following misc. output table
  FWHM = 0.081 ppm    S/N =   1                                            
  Data shift =-0.006 ppm                                                   
  Ph:  60 deg      -4.3 deg/ppm                                            
  alphaB,S = 7.8E+00,   3.8E+01                                            
   18 spline knots.   Ns = 7(2)                                            
   2 inflections.     2 extrema                                            
  654 points on ppm-axis = NY
      4.000000     3.994181     3.988363     3.982544     3.976726     3.970907     3.965088     3.959270     3.953451     3.947633
      3.941814     3.935995     3.930177     3.924358     3.918540     3.912721     3.906902     3.901084     3.895265     3.889446
      3.883628     3.877809     3.871991     3.866172     3.860353     3.854535     3.848716     3.842898     3.837079     3.831260
      3.825442     3.819623     3.813805     3.807986     3.802167     3.796349     3.790530     3.784712     3.778893     3.773074
      3.767256     3.761437     3.755619     3.749800     3.743981     3.738163     3.732344     3.726526     3.720707     3.714888
      3.709070     3.703251     3.697433     3.691614     3.685795     3.679977     3.674158     3.668339     3.662521     3.656702
      3.650884     3.645065     3.639246     3.633428     3.627609     3.621791     3.615972     3.610153     3.604335     3.598516
      3.592698     3.586879     3.581060     3.575242     3.569423     3.563605     3.557786     3.551967     3.546149     3.540330
      3.534512     3.528693     3.522874     3.517056     3.511237     3.505419     3.499600     3.493781     3.487963     3.482144
      3.476326     3.470507     3.464688     3.458870     3.453051     3.447232     3.441414     3.435595     3.429777     3.423958
      3.418139     3.412321     3.406502     3.400684     3.394865     3.389046     3.383228     3.377409     3.371591     3.365772
      3.359953     3.354135     3.348316     3.342498     3.336679     3.330860     3.325042     3.319223     3.313405     3.307586
      3.301767     3.295949     3.290130     3.284312     3.278493     3.272674     3.266856     3.261037     3.255219     3.249400
      3.243581     3.237763     3.231944     3.226125     3.220307     3.214488     3.208670     3.202851     3.197032     3.191214
      3.185395     3.179577     3.173758     3.167939     3.162121     3.156302     3.150484     3.144665     3.138846     3.133028
      3.127209     3.121391     3.115572     3.109753     3.103935     3.098116     3.092298     3.086479     3.080660     3.074842
      3.069023     3.063205     3.057386     3.051567     3.045749     3.039930     3.034111     3.028293     3.022474     3.016656
      3.010837     3.005018     2.999200     2.993381     2.987563     2.981744     2.975925     2.970107     2.964288     2.958470
      2.952651     2.946832     2.941014     2.935195     2.929377     2.923558     2.917739     2.911921     2.906102     2.900284
      2.894465     2.888646     2.882828     2.877009     2.871191     2.865372     2.859553     2.853735     2.847916     2.842098
      2.836279     2.830460     2.824642     2.818823     2.813004     2.807186     2.801367     2.795549     2.789730     2.783911
      2.778093     2.772274     2.766456     2.760637     2.754818     2.749000     2.743181     2.737363     2.731544     2.725725
      2.719907     2.714088     2.708270     2.702451     2.696632     2.690814     2.684995     2.679177     2.673358     2.667539
      2.661721     2.655902     2.650084     2.644265     2.638446     2.632628     2.626809     2.620991     2.615172     2.609353
      2.603535     2.597716     2.591897     2.586079     2.580260     2.574442     2.568623     2.562804     2.556986     2.551167
      2.545349     2.539530     2.533711     2.527893     2.522074     2.516256     2.510437     2.504618     2.498800     2.492981
      2.487163     2.481344     2.475525     2.469707     2.463888     2.458070     2.452251     2.446432     2.440614     2.434795
      2.428977     2.423158     2.417339     2.411521     2.405702     2.399884     2.394065     2.388246     2.382428     2.376609
      2.370790     2.364972     2.359153     2.353335     2.347516     2.341697     2.335879     2.330060     2.324242     2.318423
      2.312604     2.306786     2.300967     2.295149     2.289330     2.283511     2.277693     2.271874     2.266056     2.260237
      2.254418     2.248600     2.242781     2.236963     2.231144     2.225325     2.219507     2.213688     2.207870     2.202051
      2.196232     2.190414     2.184595     2.178777     2.172958     2.167139     2.161321     2.155502     2.149683     2.143865
      2.138046     2.132228     2.126409     2.120590     2.114772     2.108953     2.103135     2.097316     2.091497     2.085679
      2.079860     2.074042     2.068223     2.062404     2.056586     2.050767     2.044949     2.039130     2.033311     2.027493
      2.021674     2.015856     2.010037     2.004218     1.998400     1.992581     1.986763     1.980944     1.975126     1.969307
      1.963489     1.957670     1.951852     1.946033     1.940215     1.934397     1.928578     1.922760     1.916941     1.911123
      1.905304     1.899486     1.893667     1.887849     1.882030     1.876212     1.870393     1.864575     1.858756     1.852938
      1.847119     1.841301     1.835482     1.829664     1.823845     1.818027     1.812208     1.806390     1.800571     1.794753
      1.788934     1.783116     1.777297     1.771479     1.765660     1.759842     1.754023     1.748205     1.742386     1.736568
      1.730749     1.724931     1.719113     1.713294     1.707476     1.701657     1.695839     1.690020     1.684202     1.678383
      1.672565     1.666746     1.660928     1.655109     1.649291     1.643472     1.637654     1.631835     1.626017     1.620198
      1.614380     1.608561     1.602743     1.596924     1.591106     1.585287     1.579469     1.573650     1.567832     1.562013
      1.556195     1.550376     1.544558     1.538739     1.532921     1.527102     1.521284     1.515465     1.509647     1.503829
      1.498010     1.492192     1.486373     1.480555     1.474736     1.468918     1.463099     1.457281     1.451462     1.445644
      1.439825     1.434007     1.428188     1.422370     1.416551     1.410733     1.404914     1.399096     1.393277     1.387459
      1.381640     1.375822     1.370003     1.364185     1.358366     1.352548     1.346729     1.340911     1.335092     1.329274
      1.323455     1.317637     1.311818     1.306000     1.300182     1.294363     1.288545     1.282726     1.276908     1.271089
      1.265271     1.259452     1.253634     1.247815     1.241997     1.236178     1.230360     1.224541     1.218723     1.212904
      1.207086     1.201267     1.195449     1.189630     1.183812     1.177993     1.172175     1.166356     1.160538     1.154719
      1.148901     1.143082     1.137264     1.131445     1.125627     1.119808     1.113990     1.108171     1.102353     1.096534
      1.090716     1.084898     1.079079     1.073261     1.067442     1.061624     1.055805     1.049987     1.044168     1.038350
      1.032531     1.026713     1.020894     1.015076     1.009257     1.003439     0.997620     0.991802     0.985983     0.980165
      0.974346     0.968528     0.962709     0.956891     0.951072     0.945254     0.939435     0.933617     0.927798     0.921980
      0.916161     0.910343     0.904524     0.898706     0.892887     0.887069     0.881251     0.875432     0.869614     0.863795
      0.857977     0.852158     0.846340     0.840521     0.834703     0.828884     0.823066     0.817247     0.811429     0.805610
      0.799792     0.793973     0.788155     0.782336     0.776518     0.770699     0.764881     0.759062     0.753244     0.747425
      0.741607     0.735788     0.729970     0.724151     0.718333     0.712514     0.706696     0.700877     0.695059     0.689240
      0.683422     0.677603     0.671785     0.665967     0.660148     0.654330     0.648511     0.642693     0.636874     0.631056
      0.625237     0.619419     0.613600     0.607782     0.601963     0.596145     0.590326     0.584508     0.578689     0.572871
      0.567052     0.561234     0.555415     0.549597     0.543778     0.537960     0.532141     0.526323     0.520504     0.514686
      0.508867     0.503049     0.497230     0.491412     0.485593     0.479775     0.473956     0.468138     0.462319     0.456501
      0.450682     0.444864     0.439045     0.433227     0.427408     0.421590     0.415771     0.409953     0.404134     0.398316
      0.392497     0.386679     0.380860     0.375042     0.369223     0.363405     0.357586     0.351767     0.345949     0.340130
      0.334312     0.328493     0.322675     0.316856     0.311038     0.305219     0.299401     0.293582     0.287764     0.281945
      0.276127     0.270308     0.264490     0.258671     0.252853     0.247034     0.241216     0.235397     0.229579     0.223760
      0.217942     0.212123     0.206305     0.200486
 NY phased data points follow
   3.36885E-02  2.88210E-02 -2.80663E-03  1.46597E-01  8.99663E-02 -3.01111E-01 -1.98639E-01  5.02406E-03 -1.86849E-02 -1.46597E-01
  -1.02434E-02  2.97920E-02 -2.00893E-01 -7.23920E-02 -1.28895E-02 -2.08697E-01  1.77951E-01  1.57277E-01 -3.63784E-03  5.43089E-02
  -1.79380E-01  1.21509E-01 -5.13200E-02  2.70853E-01  7.84086E-02 -5.84964E-02  5.87322E-01  2.51060E-01  4.24018E-01  1.71008E-01
  -1.51412E-01  1.23300E-01 -1.44723E-01 -1.43284E-01 -1.84113E-01 -4.50246E-01 -8.95029E-02 -4.10569E-01 -4.51700E-01 -1.71257E-01
  -2.90802E-01  4.72762E-02  1.41483E-01  2.77829E-01 -7.11038E-02 -1.00587E-01  1.08663E-01 -5.73211E-02  3.11284E-01  3.29934E-01
   8.51325E-02  1.87914E-01  1.08068E-01  1.01290E-01  1.75072E-01  2.15732E-01  3.46546E-01  8.84956E-02  4.68494E-02  1.18757E-01
   2.86624E-01 -8.26658E-03 -3.19150E-02  1.09287E-01 -2.49638E-01  2.89420E-02 -3.44917E-01 -2.82066E-01 -4.02962E-02 -3.15470E-01
  -3.61001E-01 -2.47744E-01  4.33471E-02 -3.95068E-01 -1.48765E-01  1.15322E-01 -1.51181E-01 -6.40476E-02 -2.21444E-01 -1.34793E-01
  -9.89333E-02 -1.56551E-01 -5.64780E-02 -2.21068E-01 -3.42019E-02  2.76816E-02 -1.36694E-01  1.62293E-01 -2.29513E-02  1.01667E-01
   2.28758E-01 -5.24080E-02  1.46541E-01  9.95126E-02  2.39240E-02 -3.95945E-02  2.45784E-01  1.71382E-01 -8.79771E-02  6.92348E-02
  -1.05443E-01  1.27656E-01  3.06243E-01  1.26242E-01 -1.13840E-01 -2.48077E-01  1.42059E-02  3.27626E-01  1.29624E-01  5.70340E-02
   3.54702E-01  2.59650E-01  3.00347E-01  3.68335E-01  2.56313E-01  3.54167E-01  3.87228E-01  2.25421E-01  5.93399E-01  4.75653E-01
   2.75970E-02  1.11988E-01  1.24154E-01  5.25971E-01  4.75526E-01  2.43461E-01  1.58691E-01  1.96232E-01  2.32212E-01 -1.02999E-01
   5.72025E-02 -1.02948E-01 -3.01249E-01 -9.83996E-02 -1.67029E-01 -4.98151E-01 -5.93477E-01 -3.20736E-01 -2.34647E-01 -5.63558E-01
  -6.64636E-01 -4.30022E-01 -3.34867E-01 -1.26181E-01 -4.15536E-01 -2.40991E-01 -2.67797E-02 -1.59727E-01  1.26302E-01 -3.15662E-01
  -9.02003E-02  2.89206E-01  9.97367E-03 -1.30772E-01  1.22397E-01  2.40648E-01 -5.50932E-02  3.06646E-02 -3.20276E-02  1.74190E-01
   2.98909E-01  5.58287E-01  6.77289E-01  4.20918E-01  3.90611E-01  1.92276E-01  5.75653E-01  4.74105E-01  2.50295E-01  4.25498E-01
   2.37777E-01  2.99559E-01  1.13648E-01 -2.69237E-01 -8.89352E-02 -7.74342E-02 -2.07505E-01 -2.12293E-01 -5.20706E-01 -2.41038E-01
  -1.07541E-01 -4.82480E-01 -5.14998E-01 -2.57979E-01 -1.37754E-01 -5.05703E-01 -1.62213E-01 -1.69674E-04 -4.28901E-01 -3.84074E-01
  -1.15029E-01 -5.11974E-02 -3.24839E-01 -2.58978E-01 -2.79607E-01 -7.86432E-02 -1.24809E-01 -3.68798E-01  6.89959E-02 -6.28807E-03
  -2.34416E-01 -2.40545E-01 -1.71380E-02  2.64478E-04 -5.44008E-02  9.14391E-03 -1.27830E-01 -2.66202E-01 -6.15289E-02  1.90979E-01
  -1.97932E-01 -1.01114E-01 -2.34209E-01 -1.92815E-01 -2.69035E-02 -4.38099E-01  4.78451E-02  7.16812E-02 -1.01107E-01  1.34822E-01
  -9.70531E-02 -3.89618E-02  2.09368E-03  4.96367E-02  2.50746E-01 -4.56340E-02 -8.03663E-02  3.89888E-03  2.81478E-01  2.55412E-01
   7.99618E-02  5.04601E-01  5.79843E-01  4.93893E-01 -7.36358E-02 -7.91433E-02  5.16300E-02 -2.55794E-01 -3.07707E-02  1.62337E-01
   3.32660E-01  1.79978E-02 -3.02704E-01 -1.95526E-01 -1.45654E-02  1.24679E-01  1.78973E-01 -8.66172E-02 -1.34318E-01  2.42958E-02
   3.37273E-03  9.96337E-02  7.90295E-02  2.68449E-01 -2.51333E-01 -2.56325E-01  4.64631E-01 -1.25632E-01 -3.19990E-01 -6.73835E-02
  -2.45564E-01 -1.33778E-01 -6.12552E-02 -2.06526E-01  7.02076E-03  1.54590E-01  5.89467E-02 -3.13234E-02  1.29673E-02  3.12885E-01
   2.66499E-01  6.86246E-02 -2.30340E-01  1.32584E-02  5.28427E-03 -1.81919E-01  3.45521E-01 -5.78306E-03 -2.17550E-01 -3.59947E-01
  -3.26423E-01 -2.58616E-01 -3.15941E-01 -6.71603E-02 -3.04168E-01 -1.33362E-01 -1.93701E-01 -1.63467E-02 -3.93018E-03 -2.00939E-01
   4.49044E-02  1.73582E-01  3.02461E-01  1.46810E-01  3.71149E-01  2.48520E-01  2.62721E-01  3.50255E-01 -9.28626E-02 -2.24322E-02
   3.27394E-01  3.72382E-01  1.24001E-01  4.02198E-02  2.45374E-01  3.93735E-01  1.18865E-01  1.42918E-01  3.49939E-01  6.00734E-01
   6.02686E-01  2.33702E-01  3.86816E-01  6.71361E-01  4.91747E-01 -2.35189E-02  2.46090E-01  4.06313E-01  2.19328E-01  1.56370E-01
  -1.53349E-01  4.18830E-02 -1.34763E-01 -2.85069E-01  3.79308E-04 -1.56947E-02 -5.60923E-02  1.41376E-01  1.27562E-01 -1.82298E-01
   1.37551E-01  6.61899E-02 -1.39763E-01  6.24200E-02  7.05186E-02  1.86257E-01 -3.90956E-02 -2.61865E-01 -2.94710E-01 -4.12882E-01
  -3.70642E-01 -4.85609E-01 -8.26899E-01 -4.22467E-01 -2.76886E-01 -5.42268E-01 -4.48065E-02 -6.82541E-01 -7.45898E-01 -4.93369E-03
  -5.15830E-01 -4.94497E-01 -4.38920E-01 -3.59054E-01 -4.64285E-01 -3.60206E-01  1.84230E-01 -6.97380E-02 -3.87680E-02  7.01524E-02
   1.27987E-01 -3.19850E-03 -1.09963E-01 -2.24077E-01  4.91255E-02  7.35994E-02 -1.65438E-01  1.94565E-01 -8.29357E-02  2.68543E-02
  -9.88127E-02  1.28067E-01  4.79786E-02 -1.83529E-01  1.69923E-01 -2.28250E-01 -3.83538E-02 -8.94336E-02  1.97811E-01  1.83853E-01
  -3.38698E-02  2.88380E-01  2.88515E-01  2.17271E-01  2.73309E-01  5.63792E-01  2.50966E-01  2.77704E-01  3.48240E-01  9.82512E-02
   7.20587E-03  5.01511E-02  2.37205E-01  2.53894E-01  1.55535E-03 -9.74351E-02  2.56569E-01  1.76018E-01  7.71831E-02  6.94704E-02
   1.73652E-01  2.95112E-01  1.96986E-01  4.20129E-01 -2.74533E-02 -9.36301E-02  2.22558E-01 -1.18084E-01  1.30857E-01 -6.96338E-02
  -1.66190E-01 -5.30690E-02  7.47534E-02  2.42821E-01 -1.82632E-01 -6.40281E-02 -2.92534E-01  2.33356E-02  1.85389E-01 -3.02121E-01
   2.10403E-01 -5.74117E-02 -5.26923E-01  6.82372E-03  7.55951E-02 -1.34049E-01 -2.65057E-01 -4.50229E-01 -1.18583E-01 -3.02835E-01
  -3.72541E-01 -2.15616E-01 -1.66654E-01  8.79405E-02 -1.99580E-01 -8.37263E-02 -2.62829E-01 -1.09207E-02  2.34099E-01 -4.27492E-01
  -5.68755E-02  2.63286E-02  1.25519E-01 -1.19473E-01 -2.69133E-01  7.18154E-02  7.03434E-02  2.07564E-01 -1.18311E-01  5.03701E-01
   1.70343E-01 -1.75915E-01  3.76817E-01  5.61560E-01  6.23057E-01  2.60779E-01  2.79275E-01  8.88414E-02  5.17116E-01  2.78909E-01
   3.78711E-02  8.02315E-03 -1.00891E-01  8.44442E-02  5.79792E-02  6.95806E-02 -1.57601E-01 -3.54004E-02 -1.90311E-01  2.63801E-01
  -7.84318E-02 -1.28872E-01  6.01740E-02 -2.71865E-01  2.77413E-03 -2.03576E-01 -2.60862E-02 -1.08035E-01 -1.70050E-01 -5.30761E-02
  -1.73112E-01 -3.90902E-01 -4.07452E-01 -4.23420E-01 -1.35832E-01 -2.31802E-01 -2.50214E-01  1.05772E-02 -1.19717E-01  3.65533E-02
  -2.47531E-01  1.40903E-01  2.21022E-01  2.57866E-02 -8.70406E-02 -2.20326E-01 -1.45428E-01 -6.03409E-02  8.66850E-02  6.34807E-02
   2.64825E-01 -5.28179E-02 -9.34417E-02 -1.17309E-01  2.43862E-02  3.48191E-01  2.32756E-01  3.08452E-01  1.93868E-01 -1.01404E-02
   1.21417E-01  1.03373E-02  1.35650E-01  2.54515E-01  5.91286E-02  4.20622E-01  4.75880E-01  3.75949E-01  4.12487E-02  6.96152E-02
   1.64393E-01 -3.29707E-02  2.59137E-01 -7.11509E-02 -2.84148E-02  2.17867E-01 -2.52941E-01 -8.89342E-02 -8.71480E-02 -3.89659E-01
  -1.33696E-01  1.05493E-01 -2.73315E-01 -3.24218E-01  7.35084E-03 -4.27089E-01 -4.76228E-02 -1.59210E-01 -3.04291E-01 -1.51805E-01
  -4.25457E-01 -1.59122E-01 -2.88208E-01 -9.50914E-02 -2.77024E-01 -4.02340E-01 -2.56603E-01 -3.51893E-01 -5.12050E-01 -1.47497E-01
  -1.22447E-01 -1.59916E-01  1.32461E-01 -4.71364E-02  9.51069E-02 -3.56703E-01 -1.68713E-01  1.50956E-01  9.53353E-02 -8.49533E-02
   1.53738E-01  6.10654E-02 -2.12524E-01  1.74536E-01  1.06084E-01  2.52572E-01 -2.28174E-02  9.65798E-02  7.87815E-02  1.69851E-01
   4.57673E-02  8.79638E-04  1.74685E-01 -1.48537E-03  1.74630E-01  5.16696E-02  2.46536E-01 -1.76020E-01 -7.71484E-02  8.40425E-02
  -9.88168E-03  1.80086E-01 -6.92232E-02 -2.28906E-02  9.24958E-02  7.47182E-02  1.34817E-01  3.32509E-01  1.10609E-01  2.34143E-01
   2.23217E-01  2.10802E-02  8.62280E-02  1.38421E-01  2.18746E-01 -7.75250E-02  1.67139E-01  2.35315E-01  1.77986E-01  2.02682E-01
  -1.45651E-01  2.40433E-01  5.38620E-02 -1.17307E-01  1.56510E-01  1.25653E-01  3.02095E-02 -1.18763E-01  2.14715E-01 -4.75210E-02
   1.87771E-01  2.27103E-01 -7.63180E-02  3.04430E-01  8.23607E-02  1.04899E-01  2.16167E-01 -1.27310E-01 -7.72582E-02  1.98505E-01
   8.82201E-02  2.94589E-01  8.08542E-02  6.66688E-03 -2.13743E-02 -2.77384E-02  2.98422E-01  6.54854E-02  1.05499E-01 -1.68678E-01
   1.86273E-02 -3.11632E-01 -4.96840E-01 -1.70855E-02 -1.79040E-01 -4.12564E-02 -8.11870E-02  2.23936E-01 -2.74210E-02 -9.80328E-02
   2.21594E-01 -8.02360E-02  1.08021E-01  3.55833E-01  2.03602E-01 -7.84611E-02  1.37657E-01 -2.23065E-02 -1.55468E-01 -6.15922E-02
  -2.76065E-01  6.25612E-02 -3.11281E-02 -9.12613E-02
 NY points of the fit to the data follow
   1.71944E-01  1.25723E-01  1.11781E-01  3.40697E-02  5.28325E-02 -3.23999E-02  1.70761E-02 -4.81721E-02  2.45697E-02  3.10561E-03
   6.00283E-02  8.45961E-02  1.04926E-01  1.71338E-01  1.49823E-01  2.48588E-01  1.87931E-01  3.06596E-01  2.15102E-01  3.44947E-01
   2.29832E-01  3.59388E-01  2.30293E-01  3.46129E-01  2.15581E-01  3.01876E-01  1.77392E-01  2.20420E-01  1.13094E-01  1.00088E-01
   2.43459E-02 -3.82474E-02 -6.64448E-02 -1.33070E-01 -1.39414E-01 -2.01887E-01 -1.86930E-01 -2.29451E-01 -2.00172E-01 -2.11034E-01
  -1.78220E-01 -1.54721E-01 -1.27823E-01 -7.53164E-02 -5.94975E-02  1.27155E-02  1.66075E-02  1.01585E-01  9.53440E-02  1.90546E-01
   1.56198E-01  2.59823E-01  2.06971E-01  2.59116E-01  2.09067E-01  1.98135E-01  1.37768E-01  7.95683E-02  2.22541E-02 -5.64763E-02
  -1.01728E-01 -1.60780E-01 -1.96597E-01 -2.07920E-01 -2.34683E-01 -1.99297E-01 -1.99735E-01 -1.32110E-01 -1.35276E-01 -4.70897E-02
  -6.67235E-02  1.22561E-02 -2.71214E-02  3.21637E-02 -1.88975E-02  1.63149E-02 -2.86198E-02 -2.23447E-02 -4.42786E-02 -6.63875E-02
  -6.21003E-02 -1.07992E-01 -6.99560E-02 -1.23048E-01 -8.09262E-02 -8.12726E-02 -6.08151E-02 -1.91071E-02 -9.83172E-03  5.44260E-02
   5.08844E-02  1.18271E-01  1.06665E-01  1.56932E-01  1.45703E-01  1.60587E-01  1.55934E-01  1.25384E-01  1.29039E-01  5.70801E-02
   9.88076E-02 -7.47297E-03  6.73708E-02 -4.28245E-02  5.62668E-02 -5.12490E-02  6.11207E-02 -3.36429E-02  8.01409E-02  1.64308E-02
   1.13164E-01  8.43255E-02  1.71108E-01  1.57473E-01  2.33366E-01  2.26001E-01  2.88931E-01  2.64632E-01  3.18033E-01  2.68947E-01
   3.03849E-01  2.61928E-01  2.69707E-01  2.34648E-01  2.05088E-01  1.76821E-01  1.09350E-01  9.15946E-02 -6.44410E-03 -1.37814E-02
  -1.35124E-01 -1.29020E-01 -2.63113E-01 -2.36702E-01 -3.67776E-01 -3.19711E-01 -4.30868E-01 -3.65749E-01 -4.43026E-01 -3.73132E-01
  -4.10272E-01 -3.51424E-01 -3.49438E-01 -3.01012E-01 -2.85265E-01 -2.36837E-01 -2.15649E-01 -1.75477E-01 -1.53047E-01 -1.14649E-01
  -9.50905E-02 -6.75125E-02 -6.50376E-02 -1.97734E-02 -9.55057E-03  5.80938E-02  8.51637E-02  1.57387E-01  1.97894E-01  2.57418E-01
   3.06528E-01  3.34171E-01  3.78775E-01  3.64438E-01  3.91770E-01  3.46058E-01  3.54934E-01  2.88455E-01  2.80641E-01  2.04723E-01
   1.84839E-01  1.02855E-01  7.15269E-02 -1.01163E-02 -5.08528E-02 -1.21789E-01 -1.66958E-01 -2.14860E-01 -2.55979E-01 -2.73017E-01
  -3.01322E-01 -2.85512E-01 -2.91898E-01 -2.55005E-01 -2.36521E-01 -2.24044E-01 -2.11918E-01 -2.05740E-01 -1.94174E-01 -1.89346E-01
  -1.78001E-01 -1.72122E-01 -1.61746E-01 -1.55454E-01 -1.44972E-01 -1.37608E-01 -1.26531E-01 -1.19193E-01 -1.08014E-01 -1.00497E-01
  -9.02998E-02 -8.32090E-02 -7.42122E-02 -6.81240E-02 -6.05988E-02 -5.56987E-02 -4.94057E-02 -4.61393E-02 -4.13863E-02 -3.94207E-02
  -3.76144E-02 -4.49773E-02 -4.48044E-02 -5.50964E-02 -5.39361E-02 -6.50460E-02 -6.97246E-02 -7.89507E-02 -7.99441E-02 -8.12393E-02
  -7.36828E-02 -6.46375E-02 -5.05191E-02 -3.24349E-02 -1.40409E-02  1.20448E-02  3.03693E-02  5.97736E-02  7.19080E-02  1.01789E-01
   1.05250E-01  1.32172E-01  1.26093E-01  1.46866E-01  1.33000E-01  1.44354E-01  1.24208E-01  1.24990E-01  1.00489E-01  9.28224E-02
   6.63491E-02  5.53544E-02  3.07006E-02  1.45010E-02 -5.18707E-04 -2.61629E-02 -3.74146E-02 -6.29815E-02 -6.77402E-02 -8.32634E-02
  -9.88289E-02 -9.87731E-02 -1.23648E-01 -1.09696E-01 -1.35375E-01 -1.16713E-01 -1.32961E-01 -1.16350E-01 -1.18353E-01 -1.05377E-01
  -9.37613E-02 -8.00685E-02 -6.10284E-02 -4.18630E-02 -2.03238E-02  6.92450E-03  2.77326E-02  6.57022E-02  7.56324E-02  1.16998E-01
   1.03900E-01  1.22544E-01  8.57368E-02  6.75939E-02  9.44816E-03 -2.66159E-02 -9.89598E-02 -1.40875E-01 -2.03162E-01 -2.38324E-01
  -2.77282E-01 -2.99123E-01 -3.05110E-01 -3.11359E-01 -2.90672E-01 -2.80962E-01 -2.42543E-01 -2.16628E-01 -1.69172E-01 -1.27225E-01
  -7.90407E-02 -2.24086E-02  1.90376E-02  8.36437E-02  1.11017E-01  1.72682E-01  1.80526E-01  2.26706E-01  2.15195E-01  2.35051E-01
   2.16495E-01  2.15813E-01  2.02157E-01  2.04112E-01  1.97108E-01  2.11087E-01  2.09850E-01  2.29566E-01  2.26808E-01  2.48575E-01
   2.35782E-01  2.52736E-01  2.21788E-01  2.25874E-01  1.77287E-01  1.63627E-01  1.09137E-01  7.78449E-02  3.24277E-02 -7.89028E-03
  -3.91480E-02 -7.40686E-02 -9.56142E-02 -1.13307E-01 -1.35421E-01 -1.34268E-01 -1.59497E-01 -1.40496E-01 -9.72538E-02 -9.00945E-02
  -9.69728E-03 -3.73996E-02  5.20827E-02 -1.37633E-02  6.08506E-02 -3.60488E-02 -2.67398E-03 -1.14760E-01 -1.28414E-01 -2.37111E-01
  -2.72612E-01 -3.64146E-01 -4.01889E-01 -4.63699E-01 -4.89506E-01 -5.13326E-01 -5.33409E-01 -5.15248E-01 -5.34447E-01 -4.75316E-01
  -4.91116E-01 -4.02538E-01 -4.01155E-01 -3.04153E-01 -2.75485E-01 -1.91296E-01 -1.34197E-01 -7.77087E-02 -1.69684E-02  4.54515E-03
   1.05468E-02  1.85168E-02  1.69554E-02  2.17043E-02  1.72374E-02  2.07327E-02  1.58128E-02  1.92342E-02  1.49187E-02  1.86849E-02
   1.58232E-02  1.98669E-02  1.91626E-02  2.34902E-02  2.51943E-02  2.92255E-02  3.29174E-02  3.61921E-02  4.11630E-02  4.37219E-02
   4.96073E-02  5.13341E-02  5.80409E-02  5.93026E-02  6.66832E-02  6.80711E-02  7.58103E-02  7.78242E-02  8.55447E-02  8.85235E-02
   9.59118E-02  9.99204E-02  1.05904E-01  1.10602E-01  1.14788E-01  1.19609E-01  1.21613E-01  1.25976E-01  1.24980E-01  1.28233E-01
   1.24342E-01  1.25811E-01  1.19519E-01  1.18756E-01  1.10482E-01  1.07310E-01  9.78148E-02  9.28278E-02  8.29307E-02  7.65176E-02
   6.67887E-02  5.92675E-02  4.98735E-02  4.15316E-02  3.28831E-02  2.38233E-02  1.63001E-02  7.17376E-03  1.27113E-03 -7.35113E-03
  -1.17727E-02 -1.95627E-02 -2.31327E-02 -2.93310E-02 -3.22293E-02 -3.65505E-02 -3.92209E-02 -4.19451E-02 -4.42508E-02 -4.57640E-02
  -4.71870E-02 -4.75864E-02 -4.80339E-02 -4.73829E-02 -4.62600E-02 -4.44826E-02 -4.07743E-02 -3.74439E-02 -3.05070E-02 -2.51145E-02
  -1.49426E-02 -6.90545E-03  6.47482E-03  1.72930E-02  3.38035E-02  4.73051E-02  6.58007E-02  8.13556E-02  1.00291E-01  1.16359E-01
   1.33868E-01  1.49012E-01  1.63268E-01  1.76242E-01  1.85637E-01  1.95155E-01  1.98509E-01  2.03923E-01  2.01064E-01  2.02419E-01
   1.94000E-01  1.91085E-01  1.78242E-01  1.71628E-01  1.55784E-01  1.46368E-01  1.29005E-01  1.17536E-01  9.98936E-02  8.74441E-02
   7.11886E-02  5.90151E-02  4.56834E-02  3.51435E-02  2.53733E-02  1.71917E-02  1.06984E-02  5.55682E-03  2.41919E-03  6.41440E-04
   6.43431E-04  1.83769E-03  4.83990E-03  8.44152E-03  1.40516E-02  1.92643E-02  2.64554E-02  3.26108E-02  4.01162E-02  4.64620E-02
   5.30355E-02  5.87667E-02  6.36957E-02  6.85195E-02  7.13779E-02  7.46533E-02  7.54950E-02  7.72394E-02  7.60665E-02  7.66397E-02
   7.41144E-02  7.39691E-02  7.05725E-02  6.99740E-02  6.62838E-02  6.54778E-02  6.26975E-02  6.22414E-02  6.13625E-02  6.09765E-02
   6.19850E-02  6.15107E-02  6.36064E-02  6.25523E-02  6.41211E-02  6.18511E-02  6.13714E-02  5.66532E-02  5.22566E-02  4.42680E-02
   3.49234E-02  2.28865E-02  8.01778E-03 -7.85938E-03 -2.78601E-02 -4.66169E-02 -6.98546E-02 -8.97588E-02 -1.14471E-01 -1.33676E-01
  -1.57513E-01 -1.74585E-01 -1.95556E-01 -2.09517E-01 -2.25583E-01 -2.35808E-01 -2.45515E-01 -2.51571E-01 -2.55231E-01 -2.57056E-01
  -2.54980E-01 -2.52627E-01 -2.45705E-01 -2.40175E-01 -2.29614E-01 -2.21178E-01 -2.08377E-01 -1.98198E-01 -1.83962E-01 -1.72575E-01
  -1.57508E-01 -1.45230E-01 -1.30434E-01 -1.17278E-01 -1.03073E-01 -8.94984E-02 -7.65526E-02 -6.34298E-02 -5.21643E-02 -4.05614E-02
  -3.09723E-02 -2.13146E-02 -1.33258E-02 -5.60250E-03  9.62102E-04  7.16800E-03  1.22820E-02  1.74339E-02  2.14549E-02  2.56005E-02
   2.90813E-02  3.23998E-02  3.51150E-02  3.77298E-02  3.96980E-02  4.18208E-02  4.36550E-02  4.54180E-02  4.68509E-02  4.87034E-02
   4.94995E-02  5.14956E-02  5.17870E-02  5.32428E-02  5.37226E-02  5.43639E-02  5.48852E-02  5.42015E-02  5.49110E-02  5.35375E-02
   5.39716E-02  5.25695E-02  5.24956E-02  5.13346E-02  5.04993E-02  4.98241E-02  4.82560E-02  4.81880E-02  4.63040E-02  4.72137E-02
   4.49438E-02  4.69145E-02  4.44720E-02  4.70633E-02  4.49021E-02  4.76734E-02  4.63883E-02  4.87121E-02  4.78822E-02  4.91161E-02
   4.92331E-02  4.96159E-02  5.08573E-02  5.05377E-02  5.27295E-02  5.19771E-02  5.43424E-02  5.35571E-02  5.61569E-02  5.56788E-02
   5.82950E-02  5.79832E-02  6.03419E-02  6.07537E-02  6.25739E-02  6.36279E-02  6.46637E-02  6.64628E-02  6.67017E-02  6.89145E-02
   6.83592E-02  7.02842E-02  6.97164E-02  7.07784E-02  7.02557E-02  7.05086E-02  7.00430E-02  6.98105E-02  6.92667E-02  6.91343E-02
   6.90096E-02  6.88014E-02  6.92914E-02  6.91403E-02  6.98773E-02  7.02215E-02  7.12064E-02  7.22060E-02  7.31450E-02  7.45972E-02
   7.47781E-02  7.68257E-02  7.58582E-02  7.82523E-02
 NY background values follow
     6.803E-02    6.785E-02    6.767E-02    6.750E-02    6.732E-02    6.714E-02    6.696E-02    6.678E-02    6.660E-02    6.643E-02
     6.625E-02    6.607E-02    6.589E-02    6.571E-02    6.553E-02    6.536E-02    6.518E-02    6.500E-02    6.482E-02    6.464E-02
     6.446E-02    6.429E-02    6.411E-02    6.393E-02    6.375E-02    6.357E-02    6.339E-02    6.322E-02    6.304E-02    6.286E-02
     6.268E-02    6.250E-02    6.232E-02    6.215E-02    6.197E-02    6.179E-02    6.161E-02    6.143E-02    6.126E-02    6.108E-02
     6.090E-02    6.072E-02    6.054E-02    6.036E-02    6.019E-02    6.001E-02    5.983E-02    5.965E-02    5.947E-02    5.929E-02
     5.912E-02    5.894E-02    5.876E-02    5.858E-02    5.840E-02    5.822E-02    5.805E-02    5.787E-02    5.769E-02    5.751E-02
     5.733E-02    5.715E-02    5.698E-02    5.680E-02    5.662E-02    5.644E-02    5.626E-02    5.608E-02    5.591E-02    5.573E-02
