 
 $NMID
 ID=''
 FMTDAT='(2E13.5)'
 TRAMP=   1.00000E+0
 VOLUME=   1.00000E+0
 $END
   5.74463E+2  -8.99870E+2
   1.02091E+3   1.10737E+3
  -4.43430E+2  -5.05308E+3
  -2.28974E+3   1.58518E+3
  -1.87375E+3   6.95872E+2
  -7.97102E+2   1.66067E+2
  -7.03709E+2   1.72399E+3
  -5.20560E+2   1.46181E+3
   1.33872E+3  -1.56930E+3
  -1.54216E+1   1.44715E+3
   5.03072E+1  -2.33689E+2
   3.74743E+2  -1.83921E+3
   1.29610E+3   1.45660E+3
  -5.69965E+2   2.83343E+3
  -1.72660E+3   7.89613E+2
  -1.65270E+3  -3.95934E+2
   1.25471E+3  -3.23042E+3
   4.13450E+3   5.31316E+2
   1.01549E+3   3.16615E+3
  -1.58557E+3   7.36406E+2
   3.98381E+1  -2.04396E+3
   2.39591E+3   1.43855E+3
  -6.39698E+2   3.08145E+3
  -1.35213E+3   2.95828E+2
  -1.79235E+2  -3.34480E+3
   3.42712E+3  -1.89727E+3
   3.75904E+3   2.26317E+3
  -1.54835E+3   3.51445E+3
  -3.70742E+3  -5.81910E+2
  -1.94898E+3  -4.80207E+3
   3.68580E+3  -1.52012E+3
   4.41810E+3   3.91219E+3
  -2.17750E+3   4.38526E+3
  -8.65241E+2  -1.03004E+3
  -4.32716E+2   5.84598E+2
  -2.82340E+3  -1.30206E+2
  -2.30316E+3  -2.69347E+3
   1.10626E+3  -4.20448E+3
   2.00052E+3  -1.11219E+3
   2.10398E+3   8.61132E+1
   1.37764E+3  -1.04020E+1
  -1.11096E+3   4.85987E+3
  -6.86243E+3   7.09309E+2
  -3.98956E+3  -3.48945E+3
  -1.02273E+3  -2.21234E+3
  -7.31416E+2  -1.09373E+3
   2.13476E+3  -4.92356E+1
   1.23381E+3   9.58186E+2
  -8.73966E+2   1.04124E+3
   2.08106E+2   2.37691E+3
  -2.06192E+3   1.68047E+3
  -4.25579E+3   4.70250E+2
   1.52550E+3  -1.72530E+3
   2.10232E+3   2.71784E+2
   2.42821E+3  -1.03550E+3
   3.23095E+3  -1.43028E+2
   1.62462E+3   1.40329E+3
   9.05815E+2   4.38805E+3
  -3.06221E+3   1.83853E+3
  -2.25292E+3   6.45819E+1
   8.13278E+2  -3.12561E+3
   5.78307E+2  -2.76601E+3
   3.96274E+3   1.97911E+3
  -1.38397E+3   9.10915E+2
  -6.16532E+2   4.65993E+2
   7.62496E+2  -2.24181E+3
   2.84846E+3  -3.44449E+2
   2.54927E+2   5.63638E+1
   4.82359E+1  -1.62638E+3
   6.59247E+2  -1.52281E+3
   1.97577E+3  -5.67261E+2
   1.04811E+3   6.69224E+2
   5.30169E+1   8.28503E+1
   2.42426E+3  -1.64751E+3
  -8.63759E+2   7.52606E+2
  -5.28438E+2  -8.65728E+1
   5.23487E+1   8.06657E+2
  -1.86652E+2   1.82452E+2
  -7.68525E+2  -1.64736E+3
   1.09836E+3  -4.47343E+2
  -3.51447E+2   3.69407E+2
   1.73794E+2   5.67040E+2
   6.16041E+2  -1.18155E+3
  -6.34718E+2  -1.40127E+3
   1.90343E+3   1.13750E+3
  -2.13620E+2   1.08084E+3
   1.40074E+2  -3.16480E+2
  -7.37312E+2  -1.63965E+3
  -1.18284E+3  -1.40077E+3
  -1.45602E+3   5.92822E+2
   7.19349E+2   9.07966E+2
  -1.94185E+2   5.36290E+2
  -1.05825E+3   5.06846E+2
  -1.88561E+2  -6.30107E+0
  -5.26511E+2  -7.38914E+2
  -3.72087E+2   5.34709E+2
  -1.81280E+3   3.48028E+2
  -1.29928E+3   1.71241E+3
  -6.90967E+2  -7.91333E+2
  -1.46286E+3   1.23781E+3
  -2.64324E+3   8.27812E+2
   4.92470E+2  -5.93810E+2
  -1.27473E+3   8.92256E+2
   2.69175E+2  -6.83507E+2
  -1.13558E+3   9.43222E+2
  -1.77654E+3  -4.50157E+2
   6.82696E+1   6.16514E+2
   5.86544E+2   1.10906E+3
   3.30752E+2   1.58428E+3
  -1.06416E+3   1.40581E+3
   1.30141E+3   1.92132E+2
   5.32121E+2   2.00636E+2
  -1.97251E+3  -1.90071E+2
  -8.89508E+1   1.46918E+3
  -4.97150E+2   2.24851E+3
  -9.34348E+2  -3.04183E+2
  -3.28258E+2  -1.62453E+3
   2.72960E+2  -4.01070E+2
   3.61092E+2   6.76994E+2
   4.82705E+1  -6.06733E+2
   1.22090E+3  -1.07264E+3
  -7.87629E+2  -5.46093E+1
   3.78507E+2   5.84819E+2
   1.16218E+3   2.32078E+3
  -1.25394E+3  -1.15104E+3
  -1.00566E+3  -3.74557E+2
   5.25011E+2   6.40821E+2
   4.77518E+0  -1.17042E+3
  -3.66920E+2  -5.33411E+2
   1.04965E+3  -6.84368E+1
  -1.52882E+2  -1.15410E+3
   7.97294E+2  -2.63551E+2
   1.40465E+3   1.59387E+3
   1.08243E+3  -1.61555E+3
   8.13425E+2   1.80562E+3
   9.80142E+2  -1.98843E+2
   9.29771E+2   1.59897E+3
  -3.38913E+2  -1.34017E+3
   1.27282E+2   7.88411E+2
   3.39374E+3   2.02922E+3
   2.23469E+3  -8.56323E+2
  -5.51786E+2  -1.35967E+3
   2.24326E+3   4.15669E+2
  -2.64042E+2  -5.80269E+2
   1.28230E+3   4.25902E+2
  -1.67877E+3   1.54526E+3
  -9.53853E+2  -1.06781E+3
  -1.39216E+3   2.04958E+2
  -1.88494E+3  -1.47064E+3
  -8.14507E+0  -8.07966E+2
  -9.27992E+2  -1.07547E+3
   2.63457E+2   6.34198E+1
   7.71014E+1  -8.98190E+2
  -1.29360E+3  -2.42400E+3
   9.04577E+2   2.50307E+2
   1.12243E+3  -2.05152E+2
   1.21560E+3   1.96430E+3
  -1.67838E+2  -8.40298E+2
   5.91496E+2  -1.75129E+3
   1.17224E+3   5.17769E+1
   5.55097E+2   7.66417E+2
   8.09198E+2   1.95817E+3
  -2.24638E+3   1.90284E+3
   1.29268E+3  -4.60476E+2
  -1.20237E+2   2.14378E+3
   1.77181E+2  -1.93302E+3
  -1.59666E+3  -2.46554E+2
  -1.06182E+3  -1.09007E+3
  -1.48232E+3  -4.27694E+2
  -1.17170E+3   2.34580E+3
  -1.30348E+3  -1.93471E+3
   1.23494E+3   1.50106E+3
  -1.53417E+3  -5.55951E+2
  -1.54980E+3   4.89158E+1
  -2.12935E+3  -5.22189E+2
  -2.95793E+3  -8.15324E+2
   6.63760E+1   9.06732E+2
   7.97297E+2  -1.09481E+3
   1.57995E+3   3.95165E+2
  -1.97778E+3  -8.29808E+2
  -3.08585E+2  -5.35938E+2
   3.91798E+2   1.34108E+3
  -1.90171E+3  -8.44495E+2
   5.07438E+2   6.23064E+2
   9.15835E+2  -2.49632E+2
   6.30231E+2  -1.06184E+3
  -5.99786E+2  -6.20849E+2
  -2.27256E+3  -3.98623E+2
  -3.11476E+1  -1.26373E+3
  -8.18450E+2  -1.01078E+3
  -5.33618E+2  -1.03174E+3
  -5.18383E+2   1.35669E+3
   1.13968E+3  -1.46517E+3
  -3.01231E+2  -1.05947E+3
  -9.84498E+2  -2.28182E+2
  -1.36194E+3  -3.68239E+2
   5.29059E+2   7.89937E+2
  -3.26563E+2   7.90935E+2
   1.88286E+2   1.06688E+3
   2.41612E+1  -2.96331E+2
  -1.47544E+3   8.49091E+2
  -1.27685E+3  -2.05205E+2
   3.01433E+2  -1.08010E+3
   1.12726E+3   1.34832E+3
  -7.96562E+2   5.17097E+2
   7.79477E+2   8.27536E+2
  -9.24580E+2  -9.67371E+2
   5.98313E+2  -5.19663E+2
   8.40681E+2  -1.10729E+3
   4.70793E+2   5.04837E+2
   1.04408E+2   1.98329E+3
   7.28245E+2  -1.00819E+3
   1.73303E+3  -2.11777E+3
   7.45161E+2   3.92188E+1
   1.86382E+3  -2.39978E+2
   4.96304E+2  -8.35911E+2
  -3.41961E+2  -1.86606E+2
  -1.38291E+3   6.67151E+2
  -8.80898E+1   7.58760E+1
   1.80635E+2   3.92830E+2
  -2.31478E+2   1.15972E+3
   1.45813E+3  -5.11095E+2
  -2.12559E+2   9.99771E+2
  -7.34829E+2   8.38334E+2
   6.61202E+2  -1.62804E+3
   1.71386E+3   2.07500E+3
  -1.08202E+3   4.46825E+2
  -4.59742E+2  -9.84386E+2
   1.25262E+3  -2.08029E+3
   6.25937E+2  -1.47305E+3
   9.20463E+2  -1.23014E+3
   2.31235E+3   3.98768E+2
   2.10019E+2  -6.42761E+2
   4.80735E+2   4.67117E+2
   2.09456E+3   5.84408E+2
   5.78568E+2  -9.08112E+2
   8.67274E+2  -4.68389E+2
   2.61792E+3  -1.96307E+2
   5.56115E+2   1.14600E+3
  -7.13582E+2  -6.18979E+2
   3.35069E+1   9.44703E+2
   1.51922E+3   5.31682E+2
   6.20706E+2  -7.98023E+2
   3.44723E+2  -4.32259E+2
   7.33521E+2   2.45764E+3
  -1.50856E+3   4.75210E+2
  -1.57833E+3   8.60035E+2
   8.28463E+2  -2.01417E+3
  -3.34793E+2   1.65216E+2
   3.30815E+2  -4.17669E+2
   7.32256E+2   8.38527E+2
   2.74301E+2  -8.74174E+2
  -4.45478E+2  -6.93972E+2
  -9.35634E+2  -7.40688E+2
  -9.80142E+2   8.09512E+2
  -4.23432E+2  -8.06630E+2
   2.24645E+3  -2.30626E+2
  -1.05860E+3  -1.93323E+3
   1.52182E+3  -1.35851E+2
   8.03854E+2  -6.62155E+2
  -1.12757E+3  -3.79124E+2
   1.08942E+3   2.02478E+2
  -9.38134E+1  -8.78097E+2
   1.92099E+3   7.55844E+2
  -2.09336E+2  -5.81372E+2
   2.13465E+3   4.79730E+1
   1.02611E+3  -1.57303E+1
  -1.04403E+2   5.56216E+2
  -3.53872E+2   1.66512E+2
   4.34394E+2  -5.46620E+2
  -4.17377E+1  -7.88286E+1
   1.80960E+3  -8.25429E+1
  -4.60420E+2   9.67151E+2
  -6.09758E+2  -1.34644E+3
   3.88401E+2  -8.51690E+2
  -3.96730E+2  -1.56348E+3
  -1.85353E+2   7.14133E+2
  -4.93634E+2   5.53254E+2
   2.10545E+3  -5.31677E+1
   1.14848E+3  -2.00361E+2
  -7.12687E+2  -1.13758E+3
   1.24050E+3   8.99144E+2
   2.24268E+2   1.03923E+2
  -1.55283E+2  -1.68542E+3
   2.09839E+2  -1.10473E+3
  -3.10215E+2  -6.75305E-1
  -1.84549E+3   4.96057E+2
  -9.34689E+2  -3.17653E+3
   1.37349E+3   5.46121E+2
  -2.38620E+3   2.72166E+3
  -1.91329E+3  -4.67660E+2
   8.29889E+2  -3.45982E+3
   8.37471E+2  -6.95237E+2
  -9.21076E+2  -1.93957E+2
  -4.42624E+2   7.21015E+2
  -2.28146E+3  -7.19897E+2
   1.59785E+2  -5.94030E+2
   2.47435E+2   5.12041E+2
   9.41106E+2  -7.73565E+2
   9.39785E+2  -2.07867E+3
   5.90749E+2   2.00082E+3
   1.11407E+2  -1.90481E+3
   1.05609E+3   5.34690E+1
  -5.77329E+2   2.93227E+2
  -1.01272E+3   3.75277E+2
   6.85642E+2  -3.80832E+2
  -7.77077E+2  -1.24825E+3
  -8.30100E+2   4.58623E+2
   3.19663E+2   2.09587E+3
   1.66701E+2   5.71310E+2
   3.44356E+2   3.13012E+2
   4.26573E+2  -1.41993E+3
   1.06051E+3  -1.58415E+3
   1.90440E+2   3.72882E+1
  -3.58965E+3  -3.82223E+0
  -3.60303E+2   5.03258E+1
   3.02758E+3   1.86133E+3
  -2.56770E+2   8.43519E+2
   1.20354E+3   7.52942E+2
  -9.78623E+2   1.48982E+3
  -6.04649E+2  -2.84878E+2
  -4.26127E+2   8.50006E+2
  -2.14142E+2   9.34265E+2
  -1.60626E+3   6.33150E+2
   1.18794E+3  -9.69641E+2
   1.57038E+3  -4.18740E+2
  -4.73596E+2  -5.53226E+2
  -1.74140E+3   2.98440E+3
  -9.22020E+1   1.23446E+3
   4.03755E+2  -1.19876E+3
   5.12155E+2   8.40011E+2
  -9.65980E+2   2.16006E+3
   1.23711E+2   1.45618E+3
   4.58214E+2   4.80614E+2
  -1.01089E+3   1.12200E+3
   8.80707E+2  -7.19707E+2
  -2.01829E+3   1.18471E+3
   8.92952E+1   2.58827E+2
  -1.56624E+1   2.67152E+3
   1.42133E+3   5.96301E+2
  -1.72682E+3   3.73357E+2
   9.90341E+2   1.23534E+3
  -1.45697E+3   1.31336E+2
  -2.11613E+3  -2.92849E+2
  -9.29923E+2  -1.26327E+3
   1.03764E+3   1.51118E+3
   5.73953E+1   1.43383E+3
  -4.13862E+2   1.62068E+3
  -1.22191E+3  -2.21314E+3
   1.84115E+2   1.10975E+3
  -4.22474E+2  -3.07823E+2
   1.63278E+2  -6.48304E+2
   8.72181E+2   1.06924E+3
  -2.33996E+3  -1.30311E+3
   8.66148E+2   4.49553E+2
  -9.83311E+2  -2.20781E+2
   1.36744E+3  -1.77122E+3
   3.45396E+2   1.76379E+3
   1.18109E+3   6.95658E+2
   2.89195E+2  -2.59632E+2
   1.00443E+3  -1.66288E+2
  -4.29239E+2   1.74188E+3
   5.59837E+2   5.64336E+2
  -3.35227E+2  -8.70784E+2
   1.08337E+3  -4.03787E+2
   1.72319E+2   3.30018E+1
   2.13432E+1   1.01386E+3
