 
 $NMID
 ID=''
 FMTDAT='(2E13.5)'
 TRAMP=   1.00000E+0
 VOLUME=   1.00000E+0
 $END
  -6.52492E+3   1.36809E+4
  -2.81283E+4   2.81828E+4
  -2.50432E+4   3.02752E+4
  -2.57083E+4   2.58793E+4
  -2.94786E+4   2.45618E+4
  -2.99683E+4   2.30648E+4
  -3.11776E+4   1.90744E+4
  -3.33162E+4   1.67276E+4
  -3.37598E+4   1.45490E+4
  -3.43868E+4   1.08259E+4
  -3.54290E+4   8.04237E+3
  -3.51340E+4   5.80623E+3
  -3.51758E+4   2.39081E+3
  -3.54700E+4  -4.98941E+2
  -3.46783E+4  -2.89359E+3
  -3.40326E+4  -5.92555E+3
  -3.36283E+4  -8.45402E+3
  -3.24176E+4  -1.07411E+4
  -3.12906E+4  -1.33246E+4
  -3.02639E+4  -1.55753E+4
  -2.84904E+4  -1.75318E+4
  -2.69726E+4  -1.96969E+4
  -2.55879E+4  -2.16355E+4
  -2.35077E+4  -2.32205E+4
  -2.13632E+4  -2.48585E+4
  -1.96699E+4  -2.61849E+4
  -1.73330E+4  -2.74199E+4
  -1.48808E+4  -2.85400E+4
  -1.25363E+4  -2.93942E+4
  -1.01523E+4  -2.99195E+4
  -7.71547E+3  -3.04791E+4
  -5.36082E+3  -3.07792E+4
  -2.79221E+3  -3.06292E+4
  -3.53201E+2  -3.05125E+4
   1.93668E+3  -3.01739E+4
   4.24732E+3  -2.93913E+4
   6.41008E+3  -2.86391E+4
   8.42030E+3  -2.75981E+4
   1.03614E+4  -2.63963E+4
   1.21556E+4  -2.51596E+4
   1.38396E+4  -2.35901E+4
   1.53891E+4  -2.19256E+4
   1.66043E+4  -2.00729E+4
   1.76961E+4  -1.82926E+4
   1.85135E+4  -1.64667E+4
   1.91895E+4  -1.45867E+4
   1.96762E+4  -1.26766E+4
   1.99620E+4  -1.08526E+4
   2.00798E+4  -9.01535E+3
   1.99657E+4  -7.26975E+3
   1.98071E+4  -5.55404E+3
   1.94542E+4  -3.93029E+3
   1.89551E+4  -2.40772E+3
   1.83479E+4  -9.59826E+2
   1.76642E+4   3.92593E+2
   1.69795E+4   1.68071E+3
   1.61017E+4   2.79393E+3
   1.52681E+4   3.77801E+3
   1.42299E+4   4.85678E+3
   1.32265E+4   5.59245E+3
   1.22162E+4   6.26085E+3
   1.11406E+4   6.92004E+3
   1.01249E+4   7.39525E+3
   9.09196E+3   7.76124E+3
   8.02136E+3   8.05498E+3
   7.00254E+3   8.33288E+3
   6.00413E+3   8.41297E+3
   5.05837E+3   8.40708E+3
   4.05877E+3   8.36294E+3
   3.22023E+3   8.25923E+3
   2.35062E+3   8.08811E+3
   1.49121E+3   7.91018E+3
   7.77802E+2   7.58375E+3
   1.11307E+2   7.23848E+3
  -5.83061E+2   6.88534E+3
  -1.14905E+3   6.47160E+3
  -1.71658E+3   6.02507E+3
  -2.15024E+3   5.54967E+3
  -2.57335E+3   5.15754E+3
  -2.92596E+3   4.65674E+3
  -3.22762E+3   4.15201E+3
  -3.52215E+3   3.69967E+3
  -3.68404E+3   3.22249E+3
  -3.85502E+3   2.75422E+3
  -4.03684E+3   2.35169E+3
  -4.14712E+3   1.86804E+3
  -4.23180E+3   1.41769E+3
  -4.26836E+3   1.11264E+3
  -4.26346E+3   6.89893E+2
  -4.23797E+3   2.44814E+2
  -4.25442E+3  -7.92825E+1
  -4.22905E+3  -4.50829E+2
  -4.16696E+3  -7.46375E+2
  -4.07081E+3  -1.07051E+3
  -3.95175E+3  -1.37385E+3
  -3.76197E+3  -1.61236E+3
  -3.67958E+3  -1.96391E+3
  -3.59680E+3  -2.20887E+3
  -3.49136E+3  -2.47753E+3
  -3.22169E+3  -2.61745E+3
  -3.06871E+3  -2.79629E+3
  -2.84266E+3  -2.92755E+3
  -2.74233E+3  -3.13449E+3
  -2.53862E+3  -3.32407E+3
  -2.34277E+3  -3.50011E+3
  -2.10357E+3  -3.57932E+3
  -1.93458E+3  -3.68985E+3
  -1.75596E+3  -3.71881E+3
  -1.59721E+3  -3.81421E+3
  -1.36762E+3  -3.81963E+3
  -1.21073E+3  -3.81620E+3
  -1.02230E+3  -3.86341E+3
  -8.60657E+2  -3.89054E+3
  -6.98915E+2  -3.91800E+3
  -4.61187E+2  -3.90821E+3
  -3.13727E+2  -3.79071E+3
  -2.00686E+2  -3.75228E+3
  -8.39269E+0  -3.69394E+3
   1.41455E+2  -3.63579E+3
   2.60840E+2  -3.58411E+3
   2.97088E+2  -3.45085E+3
   4.32185E+2  -3.35170E+3
   6.01846E+2  -3.28806E+3
   7.75117E+2  -3.20449E+3
   7.82927E+2  -3.09331E+3
   8.36439E+2  -2.95416E+3
   9.69158E+2  -2.84662E+3
   9.91869E+2  -2.73460E+3
   9.94003E+2  -2.65372E+3
   9.48775E+2  -2.47697E+3
   1.02800E+3  -2.35811E+3
   1.02263E+3  -2.15407E+3
   1.04083E+3  -2.17663E+3
   1.04849E+3  -2.01394E+3
   1.02067E+3  -1.85404E+3
   1.04063E+3  -1.76938E+3
   1.06864E+3  -1.71294E+3
   1.00297E+3  -1.55850E+3
   8.77117E+2  -1.47114E+3
   8.50974E+2  -1.42863E+3
   8.75072E+2  -1.39114E+3
   8.15678E+2  -1.18415E+3
   7.57458E+2  -1.15542E+3
   6.76284E+2  -9.73304E+2
   4.90552E+2  -9.82505E+2
   5.50417E+2  -8.70951E+2
   4.59983E+2  -8.15619E+2
   3.27030E+2  -7.24332E+2
   2.81738E+2  -7.76596E+2
   1.50687E+2  -6.51673E+2
   7.00968E+1  -6.43399E+2
   1.89982E+1  -5.83833E+2
  -9.63613E+1  -5.99701E+2
  -1.55999E+2  -5.89475E+2
  -3.07989E+2  -5.58076E+2
  -3.51768E+2  -5.81422E+2
  -4.18349E+2  -5.67044E+2
  -4.91916E+2  -6.06365E+2
  -6.43344E+2  -5.76859E+2
  -6.54540E+2  -6.35982E+2
  -7.53931E+2  -5.98487E+2
  -8.12062E+2  -6.32759E+2
  -9.17127E+2  -6.56461E+2
  -9.67665E+2  -7.04693E+2
  -1.08390E+3  -7.43638E+2
  -1.08594E+3  -7.49005E+2
  -1.11144E+3  -7.72651E+2
  -1.18751E+3  -8.56758E+2
  -1.22062E+3  -7.92326E+2
  -1.27908E+3  -9.28111E+2
  -1.39891E+3  -9.43207E+2
  -1.37757E+3  -1.03883E+3
  -1.38012E+3  -1.03148E+3
  -1.38580E+3  -1.08381E+3
  -1.41316E+3  -1.13332E+3
  -1.40022E+3  -1.13547E+3
  -1.43485E+3  -1.20709E+3
  -1.48795E+3  -1.24059E+3
  -1.56971E+3  -1.30221E+3
  -1.50742E+3  -1.33903E+3
  -1.53172E+3  -1.30137E+3
  -1.57727E+3  -1.40944E+3
  -1.48394E+3  -1.37931E+3
  -1.54002E+3  -1.39947E+3
  -1.58690E+3  -1.49918E+3
  -1.59337E+3  -1.44436E+3
  -1.53201E+3  -1.47817E+3
  -1.49991E+3  -1.59631E+3
  -1.52269E+3  -1.52450E+3
  -1.55477E+3  -1.59556E+3
  -1.55989E+3  -1.54963E+3
  -1.47371E+3  -1.55883E+3
  -1.54991E+3  -1.57238E+3
  -1.52211E+3  -1.65434E+3
  -1.51474E+3  -1.62135E+3
  -1.49546E+3  -1.60541E+3
  -1.52391E+3  -1.66893E+3
  -1.55971E+3  -1.66784E+3
  -1.58695E+3  -1.69412E+3
  -1.62922E+3  -1.61242E+3
  -1.55976E+3  -1.73533E+3
  -1.55787E+3  -1.71767E+3
  -1.58799E+3  -1.67579E+3
  -1.55450E+3  -1.76517E+3
  -1.56314E+3  -1.70294E+3
  -1.60744E+3  -1.74683E+3
  -1.56930E+3  -1.72294E+3
  -1.56300E+3  -1.75320E+3
  -1.56628E+3  -1.74346E+3
  -1.65136E+3  -1.81815E+3
  -1.57585E+3  -1.79174E+3
  -1.60793E+3  -1.87236E+3
  -1.59950E+3  -1.83822E+3
  -1.62512E+3  -1.76378E+3
  -1.63589E+3  -1.81874E+3
  -1.63077E+3  -1.83468E+3
  -1.61998E+3  -1.86144E+3
  -1.64131E+3  -1.85381E+3
  -1.64207E+3  -1.88552E+3
  -1.62825E+3  -1.94961E+3
  -1.58325E+3  -1.96647E+3
  -1.70645E+3  -1.88668E+3
  -1.65983E+3  -1.97470E+3
  -1.65340E+3  -1.99042E+3
  -1.60696E+3  -1.94829E+3
  -1.53321E+3  -1.94438E+3
  -1.53656E+3  -2.12671E+3
  -1.53844E+3  -2.11011E+3
  -1.60305E+3  -2.05699E+3
  -1.60053E+3  -2.07811E+3
  -1.53200E+3  -2.15914E+3
  -1.57900E+3  -2.05837E+3
  -1.47725E+3  -2.09754E+3
  -1.54378E+3  -2.12117E+3
  -1.45969E+3  -2.22555E+3
  -1.49291E+3  -2.17552E+3
  -1.42859E+3  -2.20223E+3
  -1.47274E+3  -2.16442E+3
  -1.37468E+3  -2.19901E+3
  -1.39469E+3  -2.15932E+3
  -1.37259E+3  -2.16508E+3
  -1.38609E+3  -2.21058E+3
  -1.37998E+3  -2.13901E+3
  -1.40878E+3  -2.14141E+3
  -1.30631E+3  -2.18826E+3
  -1.32165E+3  -2.12314E+3
  -1.28835E+3  -2.20992E+3
  -1.28979E+3  -2.17376E+3
  -1.30511E+3  -2.09597E+3
  -1.35290E+3  -2.08208E+3
  -1.22362E+3  -2.11346E+3
  -1.18879E+3  -2.11003E+3
  -1.23923E+3  -2.12295E+3
  -1.17442E+3  -2.19590E+3
  -1.21824E+3  -2.16387E+3
  -1.20475E+3  -2.07603E+3
  -1.21983E+3  -2.15055E+3
  -1.24151E+3  -2.07554E+3
  -1.19333E+3  -2.13109E+3
  -1.26826E+3  -2.12855E+3
  -1.24492E+3  -2.01895E+3
  -1.26971E+3  -2.06581E+3
  -1.25036E+3  -2.09450E+3
  -1.19677E+3  -2.08696E+3
  -1.23249E+3  -2.08422E+3
  -1.21386E+3  -2.11617E+3
  -1.22214E+3  -2.03488E+3
  -1.25291E+3  -2.10973E+3
  -1.25141E+3  -2.09309E+3
  -1.18008E+3  -2.08650E+3
  -1.21882E+3  -2.12658E+3
  -1.24775E+3  -2.06021E+3
  -1.22987E+3  -2.12661E+3
  -1.21989E+3  -2.08179E+3
  -1.19274E+3  -2.09506E+3
  -1.09865E+3  -2.07492E+3
  -1.18057E+3  -2.05389E+3
  -1.11768E+3  -2.04469E+3
  -1.15777E+3  -2.13290E+3
  -1.13144E+3  -2.08733E+3
  -1.12139E+3  -2.06156E+3
  -1.12539E+3  -2.08852E+3
  -1.14714E+3  -2.10363E+3
  -1.10083E+3  -2.09477E+3
  -1.02243E+3  -2.06940E+3
  -1.10506E+3  -1.93483E+3
  -1.07757E+3  -2.00433E+3
  -1.10561E+3  -2.01120E+3
  -1.06449E+3  -2.04777E+3
  -1.07407E+3  -1.96362E+3
  -1.00334E+3  -1.96594E+3
  -1.06550E+3  -2.01475E+3
  -1.06302E+3  -1.94362E+3
  -1.04701E+3  -1.90219E+3
  -1.07535E+3  -1.91233E+3
  -1.06860E+3  -1.92415E+3
  -1.08029E+3  -1.94099E+3
  -1.03918E+3  -1.88214E+3
  -1.00887E+3  -1.80617E+3
  -1.02368E+3  -1.90155E+3
  -1.06994E+3  -1.84285E+3
  -1.06908E+3  -1.75898E+3
  -1.08977E+3  -1.80351E+3
  -1.07310E+3  -1.81339E+3
  -1.06521E+3  -1.83567E+3
  -1.05064E+3  -1.79506E+3
  -1.07947E+3  -1.80275E+3
  -1.03206E+3  -1.78807E+3
  -1.08712E+3  -1.73214E+3
  -1.09327E+3  -1.76901E+3
  -1.04683E+3  -1.72307E+3
  -9.90463E+2  -1.70880E+3
  -1.04787E+3  -1.74987E+3
  -1.06311E+3  -1.67556E+3
  -1.07304E+3  -1.73275E+3
  -1.05649E+3  -1.81092E+3
  -1.01135E+3  -1.71110E+3
  -1.09029E+3  -1.67738E+3
  -9.88244E+2  -1.71249E+3
  -1.02230E+3  -1.70239E+3
  -1.05049E+3  -1.62977E+3
  -1.07294E+3  -1.61966E+3
  -1.05786E+3  -1.65590E+3
  -9.98753E+2  -1.68835E+3
  -9.80167E+2  -1.73118E+3
  -1.03228E+3  -1.59396E+3
  -9.97910E+2  -1.65838E+3
  -9.88678E+2  -1.57078E+3
  -1.03492E+3  -1.54115E+3
  -1.00190E+3  -1.56987E+3
  -1.03676E+3  -1.53968E+3
  -1.02820E+3  -1.56528E+3
  -1.02233E+3  -1.59482E+3
  -1.08069E+3  -1.57455E+3
  -9.90324E+2  -1.47971E+3
  -1.08323E+3  -1.53306E+3
  -1.00584E+3  -1.42934E+3
  -9.92998E+2  -1.45657E+3
  -1.01331E+3  -1.48461E+3
  -1.02996E+3  -1.51668E+3
  -1.01327E+3  -1.43420E+3
  -9.66447E+2  -1.49396E+3
  -9.50677E+2  -1.45028E+3
  -9.49715E+2  -1.44959E+3
  -1.05832E+3  -1.40423E+3
  -1.11295E+3  -1.34136E+3
  -9.85829E+2  -1.39906E+3
  -9.49665E+2  -1.34433E+3
  -9.70369E+2  -1.35120E+3
  -9.91471E+2  -1.40076E+3
  -1.06450E+3  -1.36224E+3
  -9.84984E+2  -1.35187E+3
  -9.79350E+2  -1.30578E+3
  -1.05135E+3  -1.36076E+3
  -1.05340E+3  -1.36355E+3
  -1.13685E+3  -1.31624E+3
  -1.03016E+3  -1.26755E+3
  -1.02793E+3  -1.35496E+3
  -1.06638E+3  -1.31286E+3
  -9.87394E+2  -1.27057E+3
  -9.97491E+2  -1.33161E+3
  -1.08740E+3  -1.32218E+3
  -1.03192E+3  -1.30635E+3
  -9.84387E+2  -1.26364E+3
  -1.01592E+3  -1.30469E+3
  -1.05493E+3  -1.21435E+3
  -1.01586E+3  -1.26469E+3
