 
 $NMID
 ID=''
 FMTDAT='(2E13.5)'
 TRAMP=   1.00000E+0
 VOLUME=   1.00000E+0
 $END
   1.13536E+2  -3.19538E+1
  -1.47747E+3   7.04280E+2
   3.22738E+3  -1.89742E+2
   1.03994E+3   7.82713E+2
  -5.64117E+2  -1.08010E+3
   6.74488E+1   1.30082E+3
  -1.10054E+3   1.53110E+2
  -2.49501E+3  -1.48966E+3
   1.08861E+3  -2.11879E+3
   1.34120E+3   6.20910E+2
   2.57931E+3   1.62187E+3
   2.76610E+3   3.80292E+3
  -1.26040E+3   2.44174E+3
  -3.31691E+3  -3.06000E+3
  -1.73886E+2  -2.22387E+3
   2.34759E+3  -7.63735E+2
  -5.23912E+2  -2.09324E+3
   1.68626E+3  -1.58434E+2
  -1.48956E+2  -6.67937E+2
   3.44917E+2  -1.93988E+3
  -5.58548E+2   1.95794E+3
  -4.11357E+3   1.30174E+3
  -2.94207E+3  -3.44596E+3
   1.01179E+3  -2.33744E+3
   2.66795E+2   1.90080E+3
  -4.23911E+3   3.73586E+3
  -2.69696E+3  -2.97781E+3
  -8.29235E+1  -3.43559E+3
   4.34239E+3   1.64236E+3
   5.09375E+3   2.08708E+3
  -7.23238E+2   6.81779E+3
  -4.66677E+3   1.82654E+3
  -2.12014E+3  -5.02513E+3
   1.60569E+3  -1.24857E+3
  -2.42129E+3  -8.74579E+2
  -1.28553E+3  -4.23687E+3
   1.85815E+3   1.08153E+3
  -1.90717E+3   5.06780E+3
  -4.27274E+3   2.32157E+3
  -3.19894E+3   2.48958E+3
  -2.66600E+3   1.37205E+3
  -3.51614E+3  -2.64442E+3
   5.88964E+3  -1.31883E+3
   5.23240E+3   5.51156E+3
   6.58620E+2   6.11810E+3
   1.72330E+3   2.42900E+3
  -1.56940E+3   2.88862E+3
  -3.44898E+3   2.12037E+3
  -2.93893E+3  -5.92830E+2
  -4.18395E+3  -2.50465E+3
  -7.28552E+2  -5.30005E+3
   3.09542E+3  -3.81383E+3
   2.03797E+3   9.20286E+2
   1.13939E+3  -2.25090E+2
  -8.59258E+2  -1.00078E+3
  -5.02308E+2  -2.26365E+3
  -1.14249E+3  -2.06025E+3
  -6.35428E+2  -4.04600E+3
   4.52398E+3  -3.94069E+3
   3.88417E+3   1.39409E+3
   4.74379E+3   1.73719E+3
   2.02828E+3   3.29195E+3
   1.94056E+3   1.68587E+3
  -8.18629E+2   4.58784E+1
   4.24446E+3  -4.51648E+2
  -8.16120E+2   1.42214E+3
  -1.76084E+3   2.93878E+3
  -9.93376E+2  -4.38694E+3
   1.53774E+3  -9.56343E+2
   1.30303E+3   2.93055E+3
  -9.60164E+2  -1.02247E+3
   5.51436E+2  -1.14864E+3
  -2.26263E+3  -1.31417E+3
  -7.27677E+2  -2.66442E+1
   1.55137E+3   2.94312E+2
  -1.22089E+3   3.25373E+2
  -6.91284E+2  -6.44556E+2
  -4.27924E+2  -2.41637E+2
  -8.97690E+1   1.92690E+3
  -2.87756E+3   1.27348E+3
  -2.69311E+3  -2.01981E+3
   4.97821E+2  -4.97601E+2
  -6.20531E+2   1.91132E+3
   2.47531E+1  -1.87750E+3
  -1.25812E+3  -3.28288E+3
   1.02245E+3  -5.13226E+3
   5.90572E+2  -3.00832E+3
   2.96499E+3   9.88966E+2
   2.64749E+3   3.45712E+3
  -2.07171E+3  -1.84176E+3
   6.14765E+2   8.73011E+2
   1.49064E+2   5.18069E+2
  -2.87362E+3   7.39090E+2
  -2.80258E+3  -2.41527E+3
  -6.83379E+2  -5.02160E+3
   1.98097E+3   6.11382E+2
   4.04442E+2   4.21997E+2
  -2.88539E+2   1.95222E+2
  -3.41611E+3   4.50978E+2
   1.32279E+3  -1.16977E+3
   2.62903E+3   6.95532E+1
   1.13321E+3   1.43626E+3
   1.49391E+3   1.98265E+3
  -1.15555E+3  -5.43372E+2
   7.76892E+2  -3.82844E+3
   2.81510E+3  -6.76294E+2
   3.50863E+3  -1.66701E+3
  -5.07702E+2  -7.22195E+2
   6.09771E+1   1.85221E+2
   8.86409E+2   3.61054E+2
   1.65972E+3   1.15051E+3
  -1.92935E+3   2.32737E+3
  -6.90734E+2  -2.25534E+3
   1.67664E+3   7.93949E+2
  -2.68481E+3  -1.37036E+3
  -1.34559E+3  -1.14774E+2
  -1.45415E+3  -2.59064E+3
   7.05330E+2  -1.30612E+3
   3.63077E+2   1.44661E+2
   6.56905E+2   4.07874E+2
  -1.54251E+3  -3.85843E+2
  -1.65729E+3  -1.62249E+3
   1.72125E+3   3.48662E+2
   1.57764E+3   1.24596E+3
   3.08346E+2   4.95333E+2
  -1.74832E+3   8.39871E+1
  -8.27726E+2   1.17802E+3
  -2.15493E+3   1.25819E+3
   2.30129E+2  -2.17518E+2
  -2.76350E+3   3.20480E+2
  -6.46362E+2   1.29380E+2
   2.00429E+3  -4.14539E+2
   1.95469E+3   9.85424E+2
  -9.46058E+2   3.42377E+3
  -3.13442E+3  -8.43215E+2
  -6.37549E+2  -1.36111E+3
   1.71863E+3  -1.78638E+3
   3.15478E+3   7.73183E+2
   2.58305E+3   9.97852E+2
   1.29544E+3   1.00434E+3
   7.71383E+2   2.15603E+3
   1.11034E+3  -1.68389E+2
  -1.45768E+2   2.65615E+3
  -1.29262E+3  -8.87410E+2
   1.19569E+3   4.57041E+2
   1.16503E+3  -6.14653E+1
  -1.42473E+3  -1.62309E+3
  -1.05073E+2  -1.29657E+3
  -1.11129E+2  -4.15384E+2
  -1.51494E+3   8.75712E+2
  -3.48948E+2   1.20231E+3
  -8.26877E+2   1.73672E+3
   2.39423E+3  -1.90379E+3
  -7.09502E+1  -1.00412E+3
   1.06684E+3   1.71057E+3
  -1.90509E+3  -5.65814E+2
   1.76226E+3   1.15575E+3
  -6.10628E+1  -2.50629E+2
   2.12568E+3  -2.24028E+2
   5.18207E+2  -4.52456E+1
   4.50111E+2  -7.62933E+1
   2.84136E+2  -2.42882E+3
   3.65042E+2  -9.94628E+2
   3.50963E+2   5.04821E+2
  -6.09852E+1  -6.43621E+2
  -2.19572E+3  -1.21742E+3
   2.24241E+2  -1.40806E+3
   8.62507E+2  -6.64904E+2
  -2.27142E+2   1.12760E+3
   1.77965E+2   7.52221E+2
  -9.01240E+2  -2.32129E+3
  -6.99198E+1  -6.88712E+2
   1.20153E+3  -1.25119E+3
   2.81596E+3  -1.09757E+3
   2.00638E+3   2.49035E+1
   1.20155E+3  -7.20098E+2
   3.84689E+2   7.90797E+2
   1.31919E+3   2.40657E+3
  -2.56547E+3  -9.47855E+2
  -1.05201E+3  -1.74828E+3
  -1.36249E+3  -1.37446E+3
   4.05191E+2   8.11031E+2
   8.43475E+1  -1.25689E+3
   5.87886E+2  -6.64591E+2
   6.31944E+1   6.33805E+0
  -7.31085E+2   8.89702E+2
  -9.69287E+2   9.50974E+2
  -1.13699E+3  -1.60749E+3
   2.04279E+3  -1.22733E+3
   1.50613E+3   2.25323E+3
  -1.71922E+3   1.51714E+3
   1.58953E+3   1.84930E+3
   1.29113E+2   5.24139E+2
   2.02118E+3  -7.42580E+2
   4.57243E+2   7.53326E+2
   1.11950E+3   1.04240E+3
  -8.60831E+2  -2.76443E+2
  -1.57310E+2  -5.54843E+2
  -3.01018E+2   8.05634E+2
  -2.24755E+3   2.19279E+3
  -1.65433E+3  -1.94781E+3
   1.74086E+3   1.36833E+2
   1.39058E+3  -6.23629E+2
   1.07007E+3   2.07707E+3
  -2.44542E+2   9.00446E+1
   6.53087E+2  -3.41097E+2
  -8.17659E+2  -1.65891E+3
  -7.10259E+2  -1.01005E+3
  -2.16468E+2  -8.52943E+2
  -2.42340E+3  -1.23083E+3
  -1.97996E+2  -4.41640E+2
   6.92072E+2  -3.71480E+2
   6.20906E+2   2.67425E+3
   8.76917E+1   6.08608E+2
   5.06759E+2   1.33711E+3
   1.62745E+3  -3.60446E+2
  -2.48780E+2  -7.65064E+2
   2.26402E+3  -1.85609E+3
   2.66918E+2   8.33726E+0
  -6.12622E+2  -5.61257E+2
   1.96419E+3  -2.99157E+2
  -1.75167E+3  -4.41520E+2
  -1.29181E+3  -1.23170E+2
  -3.96091E+2  -2.73621E+2
   6.39026E+2   4.30929E+2
   1.88919E+1  -8.69793E+2
  -2.32605E+3  -3.38124E+2
  -1.28815E+2  -1.93114E+2
   3.54447E+2  -1.48440E+3
  -5.91333E+2  -1.12548E+3
   8.77086E+2  -1.30684E+3
   1.32171E+3   8.59571E+2
   1.11113E+3  -1.17295E+3
   8.37391E+2  -9.79636E+1
   1.64534E+3   1.26734E+3
  -1.35942E+3   2.74834E+3
   2.41978E+2  -5.78052E+2
  -4.48702E+2  -3.45792E+2
   1.71235E+3   4.08169E+2
   8.73374E+2  -6.17581E+2
  -8.96997E+2  -1.59341E+2
   6.06135E+2   1.81393E+3
  -9.33532E+1   2.38627E+3
  -4.42930E+2  -1.51419E+3
   1.25978E+3  -1.04941E+2
  -5.05731E+1  -1.29955E+3
   7.80785E+2  -9.23518E+2
   1.08582E+3  -1.85758E+3
  -5.23327E+2  -3.30125E+2
  -5.31864E+2   9.59228E+2
  -7.81384E+2  -3.05183E+2
  -6.91685E+2   6.37035E+2
   5.91912E+2  -1.05258E+3
   2.89097E+3   6.63570E+2
  -1.49030E+3  -4.85540E+2
   1.37731E+2   1.30708E+3
  -1.73813E+2   6.09381E+2
   1.62588E+3  -5.42941E+2
  -2.97183E+2   1.77103E+3
   6.70508E+2  -2.43712E+3
   2.14492E+3  -1.42631E+3
   2.18416E+3   4.46707E+2
   7.45227E+2   1.14619E+3
   9.10121E+2   9.35538E+2
   1.43951E+3  -1.47555E+3
  -1.62695E+2  -1.71410E+3
   3.11957E+2   1.57744E+3
  -8.12940E+2   6.84819E+2
   8.28920E+2  -2.46933E+3
   8.39733E+2   1.03464E+3
  -1.64254E+2   4.68698E+2
  -5.35238E+2   4.04825E+2
  -1.08065E+3  -8.03721E+2
   5.34592E+2   1.01928E+3
   8.70773E+2  -2.45262E+3
   1.69468E+3   1.01866E+3
   1.54219E+3   6.03551E+2
   5.45581E+2   6.28844E+2
   7.81087E+2  -4.52785E+2
  -1.04140E+2  -7.67095E+2
  -1.13770E+3   5.73658E+2
  -1.26785E+3  -3.11982E+2
   7.78642E+2  -1.23133E+3
   4.57275E+2   4.30676E+2
   1.39457E+3   4.92396E+2
   1.54530E+2   6.23341E+2
  -7.16374E+2  -1.23253E+3
  -6.84900E+2  -7.47699E+2
   1.52210E+3  -4.77254E+0
   8.13762E+2   2.81015E+2
  -4.22201E+2  -7.62881E+2
   6.36604E+2   2.02214E+3
   1.38522E+3  -7.23164E+2
  -1.59736E+3  -5.17252E+2
   2.26251E+2  -1.42902E+2
   1.27977E+3  -6.74186E+2
   2.05345E+3  -4.85417E+2
   6.56880E+2   5.27877E+2
   5.76716E+2  -3.23045E+2
  -4.81800E+2   2.79555E+2
   2.51706E+2   1.14306E+3
  -1.87921E+3   5.57302E+1
   1.56776E+3   5.08037E+2
   6.83458E+2   1.81558E+3
   6.66642E+2   4.51240E+2
  -6.45202E+2   7.63569E+2
   5.22960E+2   1.42514E+3
   4.44155E+2  -9.14767E+2
   5.77933E+2   3.85477E+2
  -1.12707E+3   8.09450E+2
   1.01143E+3  -2.57590E+2
  -2.83388E+2   1.74651E+3
  -1.37289E+3   4.11115E+2
   2.10914E+2   1.57272E+2
  -1.52760E+3  -6.23752E+2
  -7.14082E+1  -1.26197E+3
  -1.18430E+3   1.27890E+3
  -6.56674E+2   6.72010E+1
  -8.35012E+2  -9.68134E+2
   3.82024E+2   1.68503E+3
   1.23562E+2   7.44802E+2
   6.19826E+2  -3.28356E+2
  -1.82743E+3   1.04717E+3
   1.20254E+3   5.97160E+2
   1.18860E+3   3.19682E+2
  -4.84803E+2  -3.92789E+2
   7.09355E+2  -8.15963E+2
   1.66077E+3  -6.51214E+2
  -2.80893E+2   5.39633E+2
   1.11659E+3   6.69359E+1
  -8.80966E+2   5.32201E+2
   4.47718E+2  -1.12881E+3
   7.42690E+2  -2.33145E+3
  -1.92098E+2  -1.01367E+2
   7.16375E+0  -1.47050E+2
  -7.35305E+2   3.15017E+1
   1.12232E+3   1.15652E+3
  -1.72340E+3   8.23540E+2
  -9.50357E+0   1.18654E+3
   2.41486E+3  -6.84463E+2
   1.34667E+3  -8.95853E+2
  -2.08376E+2   8.01399E+2
  -5.99229E+2   6.21875E+2
  -1.72788E+3   8.28760E+2
  -3.87702E+2  -4.36852E+2
  -2.98831E+2   5.42893E+2
   2.76255E+0   1.22155E+3
  -7.46189E+2  -2.02335E+2
   1.34652E+3   7.67993E+2
  -1.49612E+3   1.95787E+1
  -9.09681E+2   8.64057E+2
   1.27154E+3   1.07468E+3
  -5.50175E+2  -6.79296E+2
  -1.29414E+3  -4.13612E+2
   6.56676E+2  -4.02400E+2
   1.22080E+2  -9.29269E+2
  -5.34952E+2   6.84726E+1
   4.79149E+2  -6.45336E+2
   2.46203E+2  -7.21347E+2
   8.53641E+2   1.43579E+3
   8.66159E+2   4.81938E+2
   3.23050E+2   9.74962E+2
  -6.38988E+2   1.46729E+3
   2.69762E+2   1.54629E+3
  -1.09973E+3   2.68806E+2
   5.48566E+1  -6.84354E+1
   6.84090E+2  -3.73472E+2
