 LCModel (Version 6.3-1N) Copyright: S.W. Provencher.          Ref.: Magn. Reson. Med. 30:672-679 (1993).                
 Slice_N1@27_12  02-Jun-2023 14:38:07
 27 lines in following concentration table = NCONC+1
    Conc.  %SD /Cr+PCr  Metabolite                                         
 1.12E-06  48% 1.1E-04 Mac                                                 
 8.03E-02  18%   8.000 Cr                                                  
    0.000 999%   0.000 PCr                                                 
    0.106  20%  10.587 Ins                                                 
 6.73E-02  20%   6.703 NAA                                                 
 1.82E-02 110%   1.809 Tau                                                 
    0.000 999%   0.000 PCho                                                
 3.90E-02  13%   3.882 GPC                                                 
 7.35E-02  27%   7.319 Glu                                                 
 4.80E-03 183%   0.479 Gln                                                 
 3.31E-02  48%   3.299 Ala                                                 
 4.67E-02  59%   4.651 Asc                                                 
 1.79E-02  66%   1.784 Asp                                                 
 7.74E-03  87%   0.772 GABA                                                
 7.22E-03 104%   0.719 Glc                                                 
    0.000 999%   0.000 GSH                                                 
    0.000 999%   0.000 Lac                                                 
    0.000 999%   0.000 NAAG                                                
    0.000 999%   0.000 PE                                                  
 3.90E-02  13%   3.882 GPC+PCho                                            
 6.73E-02  20%   6.703 NAA+NAAG                                            
 7.83E-02  27%   7.797 Glu+Gln                                             
 8.03E-02  18%   8.000 Cr+PCr                                              
 6.73E-02  20%   6.703 NAA+NAAG                                            
 8.03E-02  18%   8.000 Cr+PCr                                              
 7.83E-02  27%   7.797 Glu+Gln                                             
   6 lines in following misc. output table
  FWHM = 0.093 ppm    S/N =   1                                            
  Data shift = 0.157 ppm                                                   
  Ph:  -9 deg       9.7 deg/ppm                                            
  alphaB,S = 3.1E+01,   5.1E+01                                            
   18 spline knots.   Ns = 7(2)                                            
   2 inflections.     1 extrema                                            
  654 points on ppm-axis = NY
      4.000000     3.994181     3.988363     3.982544     3.976726     3.970907     3.965088     3.959270     3.953451     3.947633
      3.941814     3.935995     3.930177     3.924358     3.918540     3.912721     3.906902     3.901084     3.895265     3.889446
      3.883628     3.877809     3.871991     3.866172     3.860353     3.854535     3.848716     3.842898     3.837079     3.831260
      3.825442     3.819623     3.813805     3.807986     3.802167     3.796349     3.790530     3.784712     3.778893     3.773074
      3.767256     3.761437     3.755619     3.749800     3.743981     3.738163     3.732344     3.726526     3.720707     3.714888
      3.709070     3.703251     3.697433     3.691614     3.685795     3.679977     3.674158     3.668339     3.662521     3.656702
      3.650884     3.645065     3.639246     3.633428     3.627609     3.621791     3.615972     3.610153     3.604335     3.598516
      3.592698     3.586879     3.581060     3.575242     3.569423     3.563605     3.557786     3.551967     3.546149     3.540330
      3.534512     3.528693     3.522874     3.517056     3.511237     3.505419     3.499600     3.493781     3.487963     3.482144
      3.476326     3.470507     3.464688     3.458870     3.453051     3.447232     3.441414     3.435595     3.429777     3.423958
      3.418139     3.412321     3.406502     3.400684     3.394865     3.389046     3.383228     3.377409     3.371591     3.365772
      3.359953     3.354135     3.348316     3.342498     3.336679     3.330860     3.325042     3.319223     3.313405     3.307586
      3.301767     3.295949     3.290130     3.284312     3.278493     3.272674     3.266856     3.261037     3.255219     3.249400
      3.243581     3.237763     3.231944     3.226125     3.220307     3.214488     3.208670     3.202851     3.197032     3.191214
      3.185395     3.179577     3.173758     3.167939     3.162121     3.156302     3.150484     3.144665     3.138846     3.133028
      3.127209     3.121391     3.115572     3.109753     3.103935     3.098116     3.092298     3.086479     3.080660     3.074842
      3.069023     3.063205     3.057386     3.051567     3.045749     3.039930     3.034111     3.028293     3.022474     3.016656
      3.010837     3.005018     2.999200     2.993381     2.987563     2.981744     2.975925     2.970107     2.964288     2.958470
      2.952651     2.946832     2.941014     2.935195     2.929377     2.923558     2.917739     2.911921     2.906102     2.900284
      2.894465     2.888646     2.882828     2.877009     2.871191     2.865372     2.859553     2.853735     2.847916     2.842098
      2.836279     2.830460     2.824642     2.818823     2.813004     2.807186     2.801367     2.795549     2.789730     2.783911
      2.778093     2.772274     2.766456     2.760637     2.754818     2.749000     2.743181     2.737363     2.731544     2.725725
      2.719907     2.714088     2.708270     2.702451     2.696632     2.690814     2.684995     2.679177     2.673358     2.667539
      2.661721     2.655902     2.650084     2.644265     2.638446     2.632628     2.626809     2.620991     2.615172     2.609353
      2.603535     2.597716     2.591897     2.586079     2.580260     2.574442     2.568623     2.562804     2.556986     2.551167
      2.545349     2.539530     2.533711     2.527893     2.522074     2.516256     2.510437     2.504618     2.498800     2.492981
      2.487163     2.481344     2.475525     2.469707     2.463888     2.458070     2.452251     2.446432     2.440614     2.434795
      2.428977     2.423158     2.417339     2.411521     2.405702     2.399884     2.394065     2.388246     2.382428     2.376609
      2.370790     2.364972     2.359153     2.353335     2.347516     2.341697     2.335879     2.330060     2.324242     2.318423
      2.312604     2.306786     2.300967     2.295149     2.289330     2.283511     2.277693     2.271874     2.266056     2.260237
      2.254418     2.248600     2.242781     2.236963     2.231144     2.225325     2.219507     2.213688     2.207870     2.202051
      2.196232     2.190414     2.184595     2.178777     2.172958     2.167139     2.161321     2.155502     2.149683     2.143865
      2.138046     2.132228     2.126409     2.120590     2.114772     2.108953     2.103135     2.097316     2.091497     2.085679
      2.079860     2.074042     2.068223     2.062404     2.056586     2.050767     2.044949     2.039130     2.033311     2.027493
      2.021674     2.015856     2.010037     2.004218     1.998400     1.992581     1.986763     1.980944     1.975126     1.969307
      1.963489     1.957670     1.951852     1.946033     1.940215     1.934397     1.928578     1.922760     1.916941     1.911123
      1.905304     1.899486     1.893667     1.887849     1.882030     1.876212     1.870393     1.864575     1.858756     1.852938
      1.847119     1.841301     1.835482     1.829664     1.823845     1.818027     1.812208     1.806390     1.800571     1.794753
      1.788934     1.783116     1.777297     1.771479     1.765660     1.759842     1.754023     1.748205     1.742386     1.736568
      1.730749     1.724931     1.719113     1.713294     1.707476     1.701657     1.695839     1.690020     1.684202     1.678383
      1.672565     1.666746     1.660928     1.655109     1.649291     1.643472     1.637654     1.631835     1.626017     1.620198
      1.614380     1.608561     1.602743     1.596924     1.591106     1.585287     1.579469     1.573650     1.567832     1.562013
      1.556195     1.550376     1.544558     1.538739     1.532921     1.527102     1.521284     1.515465     1.509647     1.503829
      1.498010     1.492192     1.486373     1.480555     1.474736     1.468918     1.463099     1.457281     1.451462     1.445644
      1.439825     1.434007     1.428188     1.422370     1.416551     1.410733     1.404914     1.399096     1.393277     1.387459
      1.381640     1.375822     1.370003     1.364185     1.358366     1.352548     1.346729     1.340911     1.335092     1.329274
      1.323455     1.317637     1.311818     1.306000     1.300182     1.294363     1.288545     1.282726     1.276908     1.271089
      1.265271     1.259452     1.253634     1.247815     1.241997     1.236178     1.230360     1.224541     1.218723     1.212904
      1.207086     1.201267     1.195449     1.189630     1.183812     1.177993     1.172175     1.166356     1.160538     1.154719
      1.148901     1.143082     1.137264     1.131445     1.125627     1.119808     1.113990     1.108171     1.102353     1.096534
      1.090716     1.084898     1.079079     1.073261     1.067442     1.061624     1.055805     1.049987     1.044168     1.038350
      1.032531     1.026713     1.020894     1.015076     1.009257     1.003439     0.997620     0.991802     0.985983     0.980165
      0.974346     0.968528     0.962709     0.956891     0.951072     0.945254     0.939435     0.933617     0.927798     0.921980
      0.916161     0.910343     0.904524     0.898706     0.892887     0.887069     0.881251     0.875432     0.869614     0.863795
      0.857977     0.852158     0.846340     0.840521     0.834703     0.828884     0.823066     0.817247     0.811429     0.805610
      0.799792     0.793973     0.788155     0.782336     0.776518     0.770699     0.764881     0.759062     0.753244     0.747425
      0.741607     0.735788     0.729970     0.724151     0.718333     0.712514     0.706696     0.700877     0.695059     0.689240
      0.683422     0.677603     0.671785     0.665967     0.660148     0.654330     0.648511     0.642693     0.636874     0.631056
      0.625237     0.619419     0.613600     0.607782     0.601963     0.596145     0.590326     0.584508     0.578689     0.572871
      0.567052     0.561234     0.555415     0.549597     0.543778     0.537960     0.532141     0.526323     0.520504     0.514686
      0.508867     0.503049     0.497230     0.491412     0.485593     0.479775     0.473956     0.468138     0.462319     0.456501
      0.450682     0.444864     0.439045     0.433227     0.427408     0.421590     0.415771     0.409953     0.404134     0.398316
      0.392497     0.386679     0.380860     0.375042     0.369223     0.363405     0.357586     0.351767     0.345949     0.340130
      0.334312     0.328493     0.322675     0.316856     0.311038     0.305219     0.299401     0.293582     0.287764     0.281945
      0.276127     0.270308     0.264490     0.258671     0.252853     0.247034     0.241216     0.235397     0.229579     0.223760
      0.217942     0.212123     0.206305     0.200486
 NY phased data points follow
   2.43121E-02 -1.09570E-01 -5.37695E-03 -1.41193E-01 -1.20906E-01 -3.70615E-01 -2.66193E-01 -4.31762E-01 -1.91182E-01 -1.60238E-01
   2.65331E-02  2.57118E-01  2.15510E-01 -5.71004E-02  6.04981E-01  5.21010E-01  2.52840E-01  6.23483E-01  1.14761E-02  5.94336E-01
   3.69932E-01  9.20869E-01  7.70257E-01 -8.89311E-03  3.67882E-01 -2.04809E-02 -1.40654E-01 -3.93289E-01 -1.93002E-01 -3.10048E-01
  -3.35863E-01 -6.15211E-01 -6.58780E-01 -1.24970E-01 -7.89968E-02 -2.40097E-01 -2.76747E-02  1.84608E-01 -2.99443E-01 -3.23624E-01
  -2.49208E-01 -4.52704E-02 -1.91487E-01 -4.69251E-02 -1.34289E-01 -5.78737E-01 -1.47644E-02 -9.11337E-02  8.59407E-04  4.00046E-02
  -4.88059E-01 -4.95472E-03 -9.19119E-03 -2.17768E-01 -6.16793E-02 -1.28058E-01  1.10921E-01  4.56217E-02  1.45416E-01  6.17934E-02
  -3.97264E-01 -2.91907E-01 -8.79635E-02  8.98995E-03  4.20731E-01  1.48693E-01  1.06584E-01  3.70584E-01 -2.05876E-01  1.75305E-01
   3.59215E-01 -2.59581E-01 -1.35195E-01  2.94595E-01  3.54852E-01  2.28281E-01  1.19833E-01  3.79715E-01  2.49394E-01  1.62689E-01
   3.28814E-01  4.04752E-01  8.13272E-01  2.45986E-01  1.56902E-01  2.47025E-01  8.78209E-02  7.31808E-01  3.03189E-01 -2.00255E-02
   7.84843E-01  6.38190E-01  3.50371E-01  5.73257E-01  3.52878E-01 -1.08945E-01  1.25078E-01  3.27746E-01  3.33413E-01  5.00362E-01
  -1.35017E-01  2.31762E-01  6.62346E-02  5.05633E-02  3.17281E-01 -2.93807E-01  2.08813E-01  3.98520E-01  2.60625E-01  1.71209E-01
   7.70081E-01  7.53590E-01  4.32893E-01  5.12156E-01  3.30644E-01  4.21388E-01  5.03764E-01  2.98444E-01 -1.12785E-01 -4.30681E-02
  -5.62025E-02 -1.18505E-02 -1.32078E-01  8.44214E-02 -1.44112E-01 -1.33725E-01  8.16229E-02 -4.84182E-01 -2.66412E-01 -2.09255E-01
  -4.77224E-01 -7.49268E-01 -6.19390E-01 -3.14851E-01 -5.70620E-01 -9.17600E-01  3.25161E-02  1.95734E-02 -1.07009E+00 -7.40853E-01
  -4.53115E-01 -2.47427E-01 -3.09095E-01 -4.11823E-01 -2.95115E-01 -4.31282E-02 -6.02254E-02 -2.19195E-01  9.63469E-02 -9.80546E-02
  -3.00244E-01  6.13609E-02  9.25538E-02 -3.14793E-02  2.44156E-01  2.00771E-01 -2.75201E-01 -2.70292E-02  3.41288E-01 -1.33180E-01
   1.03353E-01  3.71776E-01  2.41169E-01 -5.08868E-03 -7.60634E-02 -1.71804E-01 -4.30411E-01  5.22781E-01 -1.90088E-01 -9.99015E-01
  -5.08789E-01 -5.06730E-01 -1.66247E-01 -6.17706E-01 -5.65252E-01 -4.86936E-02 -8.37907E-01 -8.21593E-01 -4.47431E-02 -3.20752E-01
  -3.17059E-01 -2.95817E-01 -4.60676E-01 -3.43618E-01 -1.98367E-01 -1.54795E-01 -4.95554E-01 -2.35529E-01 -4.42111E-01 -6.03367E-01
  -3.70180E-01 -1.58154E-01  5.03278E-02  1.82785E-01 -4.84979E-02 -5.80179E-01 -1.60327E-01 -2.05235E-01  8.41625E-02 -3.53481E-01
  -5.98006E-01  5.50214E-02 -3.47488E-01 -3.51906E-01 -1.31483E-01  2.61972E-01 -2.52358E-01 -1.79366E-01  4.44367E-01  8.61668E-03
  -2.26577E-01  3.88258E-01  1.26264E-01 -3.65239E-01  2.52376E-01  2.11343E-02 -1.14348E-01 -3.58086E-01 -1.25007E-01  6.12561E-03
  -3.92090E-02  1.13285E-01  8.95338E-02  2.56852E-01 -1.15686E-02  1.50863E-01  1.17387E-01  2.61865E-01 -6.23962E-02  1.38443E-01
   4.03520E-01  4.17470E-01  5.48556E-01  2.96429E-02  2.74160E-01  5.85340E-02  1.73067E-01 -1.91776E-01 -1.09377E-01  6.68294E-01
  -2.84666E-02 -1.87205E-02 -1.20114E-01 -2.17658E-01  1.47665E-01  1.31103E-01  1.43510E-01 -4.65196E-01  7.60383E-03 -6.11911E-02
  -5.15163E-01  4.90437E-02 -4.97917E-01  1.51158E-01  2.22481E-01  1.89606E-01  5.25148E-02 -4.37704E-01 -1.11650E-01 -4.00297E-01
   4.58551E-01  1.87814E-01  8.48406E-02 -5.67130E-02 -4.77164E-01  6.18191E-02  9.19371E-02  4.32384E-01  1.89347E-01 -1.92388E-02
  -1.56667E-02 -1.01177E-01 -2.88543E-01  8.78917E-02 -1.78832E-01 -2.61171E-01  5.90135E-01  3.47207E-02 -3.14077E-01 -7.06943E-02
   1.29828E-01 -1.01675E-02 -5.15121E-02  9.54352E-02 -1.48392E-02  3.01679E-01  3.55000E-01 -9.92174E-02  5.10916E-02  3.35715E-01
   2.17282E-01  3.65832E-01  6.99643E-01  7.95695E-01  7.38845E-01  4.80826E-01  1.03529E-01  1.82881E-01  3.20088E-01  4.33655E-01
   5.00533E-01  1.97768E-01 -8.60493E-02  2.94474E-01  1.70721E-01  2.68599E-01  3.20947E-01 -4.05091E-02  6.52361E-01  3.25609E-01
   4.48512E-02  2.26848E-01  2.82870E-01 -1.42989E-01 -1.95900E-01  1.99038E-01 -9.98818E-02 -8.04948E-02  1.02217E-01  4.26138E-01
  -2.37407E-01  3.37874E-02 -5.14774E-02 -4.49878E-01 -1.78675E-01 -1.14367E-01  3.20447E-01 -2.18483E-01 -2.71636E-01 -4.71152E-01
  -2.78636E-01  9.16143E-02  1.42213E-01  2.19799E-01 -9.53861E-02 -1.91722E-01 -3.38593E-01 -4.75644E-01 -4.33439E-01 -2.09091E-01
  -8.23852E-01 -6.94485E-01 -2.99012E-01 -2.60385E-01 -2.35989E-01 -5.34966E-01 -2.87369E-01 -2.22807E-02  5.56389E-02  8.71298E-02
  -7.94055E-02 -1.72585E-01  1.38832E-01  3.61643E-01  5.28758E-01 -1.56981E-01 -6.99142E-02  4.66858E-01  1.79876E-01  2.15118E-01
   1.27341E-02 -7.57514E-02 -2.40734E-01  8.99091E-03 -2.55489E-01 -3.54207E-01 -2.32631E-01 -1.43763E-01  4.63129E-01  1.92674E-01
  -1.37111E-01 -3.85816E-01 -1.87645E-01 -2.11336E-01 -2.48337E-02  2.40990E-01  2.55515E-01  2.89147E-01 -1.31212E-01 -1.30170E-01
  -2.09553E-01  1.14898E-01 -6.04056E-02 -4.24817E-01  5.14396E-02  5.63227E-02 -3.18789E-01  2.12261E-01  2.87710E-01 -2.38013E-01
   7.86576E-02  1.61664E-01  1.30359E-01 -1.44901E-01 -2.68488E-02 -9.91201E-02 -2.46112E-01  1.22034E-01  1.58844E-01 -2.91056E-01
  -3.68697E-01  2.54104E-01 -1.98867E-01 -2.18946E-01  5.59032E-02 -1.36609E-01 -2.47233E-01 -2.37335E-01 -3.49793E-01 -3.62528E-01
  -2.56321E-01 -4.38941E-01 -3.92389E-01 -1.59676E-01 -5.45561E-03 -4.45547E-01 -3.20570E-01 -2.41820E-01  2.33821E-02 -2.06124E-01
  -3.89460E-01  4.19224E-01  1.40272E-01 -3.14027E-03  1.09576E-01  8.87830E-02  4.49110E-02  2.06363E-01  6.12537E-02 -1.64683E-01
  -2.05259E-01  1.57205E-01  3.08097E-01  2.10557E-01  1.03467E-01 -1.67250E-01  4.62386E-01  5.09756E-01  1.58032E-01  1.43290E-01
   3.90043E-01  2.52513E-01  5.26028E-01  6.77269E-01  5.14694E-01  3.05808E-01  1.46656E-01  5.55604E-02 -6.01608E-01  3.26677E-01
   2.63918E-01  2.13243E-01  4.35548E-01  1.78567E-01  5.90183E-01  4.21912E-01  1.77481E-01 -2.43769E-01  1.79019E-01 -8.91364E-02
  -4.47128E-01  1.18312E-01 -4.73343E-02 -1.08324E-02 -4.04418E-01 -3.64594E-01 -7.25609E-02 -4.99744E-01 -2.17282E-01 -2.21636E-01
   1.54607E-01 -1.99715E-01 -3.33582E-01 -8.71828E-02 -5.84930E-02  4.83726E-01 -2.27561E-01  2.56742E-01  9.28880E-02 -8.13935E-03
  -4.14760E-01 -5.33966E-01 -1.75561E-01 -4.84498E-01  4.04810E-01 -1.95971E-01  2.11088E-02  2.11517E-01 -8.40835E-02  6.02953E-02
   4.72191E-01  1.95257E-01 -2.15042E-01  3.51981E-01  8.02500E-02  1.58544E-01  9.86796E-02 -4.66335E-02 -1.08952E-01  1.12647E-01
   4.02901E-01  2.66813E-01 -9.68766E-02  3.63663E-01  1.19280E-01  9.58768E-02  1.74124E-01  5.12624E-03  3.59828E-01 -1.70912E-01
   5.23649E-01 -2.20983E-01 -8.63654E-02  3.03760E-01 -9.62005E-02  3.07822E-01 -2.23185E-01  6.75320E-02 -1.85849E-01 -5.57384E-01
  -3.41315E-01  2.09072E-02 -5.38970E-01 -4.26777E-01 -4.61652E-02 -3.86889E-01 -3.63988E-01 -3.26700E-01 -4.57899E-02 -2.30324E-01
   2.69853E-02 -9.27577E-02 -1.54884E-01 -7.97518E-02 -5.09762E-02  2.64564E-01 -4.69009E-01 -9.88589E-02  6.20870E-01  1.09873E-01
  -5.65303E-02 -3.28215E-02  2.07265E-01  2.67081E-01 -2.98226E-03 -2.98215E-01  1.09318E-01  3.96594E-01 -2.80992E-01 -7.60026E-03
  -2.59922E-01 -3.16523E-01  2.82010E-01  2.24302E-01  2.02058E-01  3.07512E-01  2.64621E-01 -1.58194E-01  5.29585E-03 -5.73460E-02
  -4.55303E-01 -2.20959E-02  2.85284E-01  5.80213E-02  9.69755E-03 -2.01353E-01 -1.06496E-01 -1.16687E-01 -3.63115E-01  3.67311E-03
   3.73344E-01  3.54608E-01 -1.70516E-01  3.00289E-01  9.65271E-02 -5.77127E-01  1.80326E-01 -3.82345E-02 -3.94442E-01 -1.91650E-01
  -2.39517E-01 -1.50006E-01 -2.45461E-01 -2.28173E-01  2.96718E-01  2.22414E-02 -4.74771E-01  4.61326E-01  4.59506E-02  2.91941E-02
   4.84854E-01 -6.07886E-01  2.25034E-01  2.15783E-01 -4.43095E-01  1.35313E-01  2.36293E-01  4.33154E-01  3.94080E-01  5.47448E-02
   1.70261E-01  4.21269E-01  3.01163E-01  2.26495E-01  2.03110E-01  6.46965E-01  3.67389E-01  8.51969E-02  9.78613E-02  1.77193E-01
   9.39652E-02 -2.07170E-01  2.27968E-01  7.20194E-02  1.08729E-01  8.85029E-02  4.18217E-01  3.04798E-01 -1.85861E-01  1.82874E-01
   1.83305E-01  1.14421E-01  2.14009E-01  1.07269E-01  1.57884E-01  3.25094E-02 -3.16964E-01  2.39944E-01 -2.82029E-01 -1.55104E-02
   7.07697E-02 -2.99309E-01  1.20742E-01 -1.74891E-01  1.85564E-01 -9.66911E-02  4.00094E-02  9.65524E-02 -1.61498E-02 -2.22260E-01
  -4.74633E-02  2.53758E-01 -2.59515E-01 -5.99277E-02  3.10678E-03  5.00707E-01  3.13964E-01  5.29951E-02  1.30302E-02  8.62879E-03
  -7.58688E-02 -1.75500E-01  5.91208E-02  2.03988E-01
 NY points of the fit to the data follow
   5.61052E-03 -5.43654E-03  6.23596E-03  2.86796E-02  2.75461E-02  7.96411E-02  6.27709E-02  1.57287E-01  1.03652E-01  2.42261E-01
   1.47375E-01  3.19921E-01  1.88242E-01  3.64957E-01  2.16954E-01  3.81703E-01  2.29735E-01  3.77395E-01  2.17769E-01  3.27666E-01
   1.78425E-01  2.38043E-01  1.13517E-01  1.12524E-01  2.99823E-02 -2.35318E-02 -5.27345E-02 -1.22241E-01 -1.19752E-01 -1.81625E-01
  -1.65461E-01 -2.15370E-01 -1.89309E-01 -2.30219E-01 -1.93320E-01 -2.26297E-01 -1.79017E-01 -2.04014E-01 -1.50788E-01 -1.64064E-01
  -1.15272E-01 -1.15801E-01 -8.30008E-02 -7.55100E-02 -5.88345E-02 -4.05729E-02 -4.11572E-02 -1.51790E-02 -4.12666E-02 -1.58032E-02
  -5.64831E-02 -4.05132E-02 -8.86898E-02 -6.72615E-02 -1.21693E-01 -1.01622E-01 -1.38244E-01 -1.30340E-01 -1.45786E-01 -1.23345E-01
  -1.27168E-01 -7.59366E-02 -7.29763E-02 -5.68946E-03  3.68472E-03  5.72286E-02  6.71490E-02  1.00751E-01  1.05475E-01  1.25466E-01
   1.29549E-01  1.38820E-01  1.47084E-01  1.41986E-01  1.59311E-01  1.21420E-01  1.57974E-01  9.32833E-02  1.44087E-01  8.92007E-02
   1.30798E-01  1.08301E-01  1.43326E-01  1.44754E-01  1.88874E-01  2.02614E-01  2.47920E-01  2.76907E-01  3.11785E-01  3.46383E-01
   3.55942E-01  3.87610E-01  3.60683E-01  3.82998E-01  3.35474E-01  3.46841E-01  2.98861E-01  3.11096E-01  2.70819E-01  2.90490E-01
   2.55839E-01  2.82408E-01  2.52556E-01  2.82719E-01  2.58585E-01  2.89126E-01  2.72187E-01  2.98767E-01  2.88978E-01  3.03253E-01
   3.00655E-01  3.01250E-01  2.92496E-01  2.91249E-01  2.71144E-01  2.68328E-01  2.38534E-01  2.39804E-01  1.92985E-01  2.10544E-01
   1.43319E-01  1.40027E-01  4.24539E-02  4.16979E-02 -6.93790E-02 -6.40803E-02 -1.79496E-01 -1.97014E-01 -3.25206E-01 -3.50314E-01
  -4.76249E-01 -4.92908E-01 -5.99486E-01 -5.78889E-01 -6.46401E-01 -6.17834E-01 -6.47099E-01 -6.30069E-01 -6.38346E-01 -5.91148E-01
  -5.79902E-01 -4.99131E-01 -4.69922E-01 -3.49319E-01 -2.99362E-01 -1.63807E-01 -1.03063E-01 -1.25788E-02  3.72613E-02  8.20300E-02
   1.19269E-01  1.52205E-01  1.94539E-01  2.04634E-01  2.43460E-01  2.33746E-01  2.71235E-01  2.49164E-01  2.92354E-01  2.35340E-01
   2.69371E-01  1.77720E-01  1.95823E-01  8.13908E-02  8.00923E-02 -2.73821E-02 -3.59168E-02 -1.33846E-01 -1.48680E-01 -2.44543E-01
  -2.74582E-01 -3.44369E-01 -3.78617E-01 -4.12659E-01 -4.45637E-01 -4.30504E-01 -4.47347E-01 -3.89336E-01 -3.78373E-01 -3.21819E-01
  -2.99760E-01 -2.65280E-01 -2.45675E-01 -2.27073E-01 -2.12230E-01 -1.97931E-01 -1.85083E-01 -1.73263E-01 -1.62217E-01 -1.51940E-01
  -1.42438E-01 -1.33442E-01 -1.24776E-01 -1.15932E-01 -1.07516E-01 -9.96562E-02 -9.22207E-02 -8.57178E-02 -7.94734E-02 -7.36703E-02
  -6.90814E-02 -6.42309E-02 -6.14451E-02 -5.78239E-02 -5.68943E-02 -5.51176E-02 -5.62294E-02 -5.55031E-02 -5.78218E-02 -5.73358E-02
  -6.00450E-02 -5.62196E-02 -5.88658E-02 -5.23122E-02 -5.37070E-02 -4.45758E-02 -4.00933E-02 -2.50316E-02 -1.81614E-02  2.39283E-03
   8.97197E-03  3.20738E-02  3.95896E-02  6.07653E-02  6.61224E-02  8.50292E-02  8.50271E-02  1.01562E-01  9.26054E-02  1.02782E-01
   8.76872E-02  9.07604E-02  7.22684E-02  6.74569E-02  4.37146E-02  3.31363E-02  6.94675E-03 -3.54919E-03 -3.05498E-02 -3.94349E-02
  -6.37607E-02 -7.21767E-02 -8.80451E-02 -9.17323E-02 -1.03307E-01 -1.01852E-01 -1.10939E-01 -1.06063E-01 -1.14375E-01 -1.04779E-01
  -1.11686E-01 -9.74671E-02 -1.00372E-01 -8.38822E-02 -8.08770E-02 -6.79564E-02 -5.64711E-02 -4.83885E-02 -3.21405E-02 -2.74202E-02
  -9.85048E-03 -1.03258E-02  7.63345E-03  1.79047E-04  1.57901E-02 -1.47314E-03  9.51611E-03 -1.67121E-02 -1.80602E-02 -4.38083E-02
  -6.23019E-02 -7.84353E-02 -1.06031E-01 -1.13816E-01 -1.40445E-01 -1.43594E-01 -1.63674E-01 -1.60304E-01 -1.68323E-01 -1.56500E-01
  -1.47828E-01 -1.28224E-01 -1.05904E-01 -8.15382E-02 -5.37078E-02 -2.42050E-02  3.86206E-03  3.88268E-02  6.73715E-02  1.03286E-01
   1.29884E-01  1.60388E-01  1.78165E-01  1.97727E-01  1.98646E-01  2.08818E-01  1.90290E-01  1.98211E-01  1.70531E-01  1.78916E-01
   1.55609E-01  1.61647E-01  1.46714E-01  1.47041E-01  1.36436E-01  1.31301E-01  1.20111E-01  1.12470E-01  9.74832E-02  9.02595E-02
   6.91183E-02  6.41602E-02  3.56828E-02  3.53321E-02 -5.71755E-04  6.41540E-03 -3.61230E-02 -2.13534E-02 -6.80723E-02 -4.67125E-02
  -9.37032E-02 -6.66251E-02 -1.10597E-01 -7.94348E-02 -1.18311E-01 -8.63459E-02 -1.18622E-01 -9.02447E-02 -1.37331E-01 -1.17865E-01
  -1.66072E-01 -1.51289E-01 -1.98746E-01 -1.88936E-01 -2.54343E-01 -2.53791E-01 -3.26542E-01 -3.29915E-01 -3.95742E-01 -3.93309E-01
  -4.33160E-01 -4.16962E-01 -4.39439E-01 -4.14925E-01 -4.24999E-01 -4.00698E-01 -3.78289E-01 -3.54796E-01 -3.04347E-01 -2.81315E-01
  -2.07396E-01 -1.81648E-01 -1.06474E-01 -8.13730E-02 -4.06202E-02 -2.54539E-02 -1.48037E-02 -1.02589E-02 -8.97152E-03 -1.02613E-02
  -6.68692E-03 -9.96649E-03 -5.40369E-03 -9.86916E-03 -3.99316E-03 -9.02760E-03 -1.54268E-03 -6.47379E-03  2.56138E-03 -1.36926E-03
   8.37565E-03  6.29007E-03  1.51963E-02  1.52724E-02  2.20776E-02  2.36697E-02  2.83406E-02  3.03141E-02  3.36721E-02  3.53987E-02
   3.80618E-02  3.95383E-02  4.16897E-02  4.31201E-02  4.47784E-02  4.62906E-02  4.73664E-02  4.88941E-02  4.93250E-02  5.07447E-02
   5.04997E-02  5.17149E-02  5.08346E-02  5.17104E-02  5.02664E-02  5.06119E-02  4.87060E-02  4.83775E-02  4.61348E-02  4.51445E-02
   4.26116E-02  4.11054E-02  3.83933E-02  3.65643E-02  3.38354E-02  3.18520E-02  2.92605E-02  2.72418E-02  2.49166E-02  2.30107E-02
   2.10849E-02  1.93816E-02  1.80359E-02  1.66238E-02  1.59529E-02  1.50141E-02  1.51235E-02  1.49216E-02  1.61111E-02  1.76774E-02
   2.40688E-02  2.95341E-02  3.95771E-02  5.22084E-02  5.89123E-02  7.91529E-02  8.36814E-02  1.12822E-01  1.13116E-01  1.52977E-01
   1.41093E-01  1.89449E-01  1.60231E-01  2.12918E-01  1.69458E-01  2.22191E-01  1.72287E-01  2.22910E-01  1.66718E-01  2.12249E-01
   1.50931E-01  1.86467E-01  1.26556E-01  1.49530E-01  9.92293E-02  1.09657E-01  8.00814E-02  8.24299E-02  7.39872E-02  7.45066E-02
   7.51758E-02  7.58585E-02  7.63476E-02  7.64432E-02  7.49487E-02  7.38166E-02  7.12705E-02  6.91175E-02  6.58928E-02  6.28879E-02
   5.93447E-02  5.57782E-02  5.22875E-02  4.84518E-02  4.52814E-02  4.14918E-02  3.88603E-02  3.54569E-02  3.35565E-02  3.07961E-02
   2.96410E-02  2.76805E-02  2.72310E-02  2.61258E-02  2.62700E-02  2.60617E-02  2.67108E-02  2.72823E-02  2.83655E-02  2.94804E-02
   3.08287E-02  3.23202E-02  3.37502E-02  3.53867E-02  3.67182E-02  3.82991E-02  3.93191E-02  4.06729E-02  4.12155E-02  4.21935E-02
   4.22352E-02  4.27487E-02  4.23516E-02  4.23200E-02  4.15784E-02  4.10961E-02  4.00550E-02  3.91981E-02  3.78856E-02  3.66989E-02
   3.51760E-02  3.37310E-02  3.21060E-02  3.04314E-02  2.87900E-02  2.69199E-02  2.51428E-02  2.30510E-02  2.08926E-02  1.85547E-02
   1.58682E-02  1.31845E-02  9.85836E-03  6.70183E-03  2.62622E-03 -1.08293E-03 -6.00537E-03 -1.02866E-02 -1.59342E-02 -2.06832E-02
  -2.68295E-02 -3.18273E-02 -3.81558E-02 -4.30710E-02 -4.91542E-02 -5.36464E-02 -5.90684E-02 -6.28315E-02 -6.71355E-02 -6.98474E-02
  -7.27158E-02 -7.41601E-02 -7.54248E-02 -7.55466E-02 -7.52535E-02 -7.41002E-02 -7.24734E-02 -7.01796E-02 -6.74058E-02 -6.41684E-02
  -6.05663E-02 -5.67024E-02 -5.25524E-02 -4.83611E-02 -4.38112E-02 -3.95627E-02 -3.48096E-02 -3.06094E-02 -2.58105E-02 -2.17067E-02
  -1.69888E-02 -1.31680E-02 -8.62358E-03 -5.21162E-03 -9.97611E-04  1.96535E-03  5.65192E-03  8.26444E-03  1.13367E-02  1.36650E-02
   1.61652E-02  1.81772E-02  2.01580E-02  2.19046E-02  2.34670E-02  2.49527E-02  2.61997E-02  2.74893E-02  2.84671E-02  2.95739E-02
   3.04232E-02  3.12545E-02  3.20482E-02  3.26881E-02  3.34073E-02  3.39671E-02  3.45581E-02  3.50076E-02  3.54947E-02  3.58213E-02
   3.62560E-02  3.64479E-02  3.67767E-02  3.68949E-02  3.70689E-02  3.71533E-02  3.72170E-02  3.73149E-02  3.73281E-02  3.75069E-02
   3.74781E-02  3.76800E-02  3.76359E-02  3.78470E-02  3.78343E-02  3.80655E-02  3.81639E-02  3.83881E-02  3.86643E-02  3.88590E-02
   3.93374E-02  3.94919E-02  4.01853E-02  4.02558E-02  4.11742E-02  4.10809E-02  4.22234E-02  4.19680E-02  4.32983E-02  4.30205E-02
   4.44129E-02  4.42049E-02  4.55424E-02  4.53880E-02  4.66729E-02  4.65922E-02  4.78558E-02  4.79199E-02  4.90714E-02  4.93404E-02
   5.03195E-02  5.07976E-02  5.16577E-02  5.22466E-02  5.30193E-02  5.36979E-02  5.44004E-02  5.50810E-02  5.57253E-02  5.63942E-02
   5.70160E-02  5.77327E-02  5.83581E-02  5.90975E-02  5.98173E-02  6.06980E-02  6.15456E-02  6.26549E-02  6.35510E-02  6.49423E-02
   6.58773E-02  6.76421E-02  6.87032E-02  7.08069E-02  7.20444E-02  7.44793E-02  7.58666E-02  7.86475E-02  8.02431E-02  8.33879E-02
   8.53195E-02  8.88854E-02  9.12595E-02  9.52743E-02
 NY background values follow
    -1.805E-02   -1.809E-02   -1.813E-02   -1.817E-02   -1.821E-02   -1.825E-02   -1.829E-02   -1.833E-02   -1.837E-02   -1.841E-02
    -1.845E-02   -1.848E-02   -1.852E-02   -1.856E-02   -1.860E-02   -1.864E-02   -1.868E-02   -1.872E-02   -1.876E-02   -1.880E-02
    -1.884E-02   -1.888E-02   -1.892E-02   -1.896E-02   -1.900E-02   -1.904E-02   -1.908E-02   -1.912E-02   -1.916E-02   -1.920E-02
    -1.924E-02   -1.928E-02   -1.932E-02   -1.936E-02   -1.940E-02   -1.944E-02   -1.948E-02   -1.952E-02   -1.956E-02   -1.960E-02
    -1.964E-02   -1.968E-02   -1.972E-02   -1.976E-02   -1.980E-02   -1.984E-02   -1.988E-02   -1.991E-02   -1.995E-02   -1.999E-02
    -2.003E-02   -2.007E-02   -2.011E-02   -2.015E-02   -2.019E-02   -2.023E-02   -2.027E-02   -2.031E-02   -2.035E-02   -2.039E-02
    -2.043E-02   -2.047E-02   -2.051E-02   -2.055E-02   -2.059E-02   -2.063E-02   -2.067E-02   -2.071E-02   -2.075E-02   -2.079E-02
