 LCModel (Version 6.3-1N) Copyright: S.W. Provencher.          Ref.: Magn. Reson. Med. 30:672-679 (1993).                
 Slice_N1@25_15  02-Jun-2023 14:38:05
 27 lines in following concentration table = NCONC+1
    Conc.  %SD /Cr+PCr  Metabolite                                         
 1.49E-06  20% 7.5E-04 Mac                                                 
 1.59E-02  35%   8.000 Cr                                                  
    0.000 999%   0.000 PCr                                                 
 2.12E-02  41%  10.688 Ins                                                 
 4.41E-02  20%  22.167 NAA                                                 
 3.33E-02  28%  16.754 Tau                                                 
 5.03E-03  49%   2.532 PCho                                                
    0.000 999%   0.000 GPC                                                 
 2.04E-02  37%  10.270 Glu                                                 
 8.79E-08 999% 4.4E-05 Gln                                                 
 8.48E-03  68%   4.266 Ala                                                 
 4.40E-03 205%   2.211 Asc                                                 
 3.29E-03  62%   1.654 Asp                                                 
 2.22E-03  55%   1.115 GABA                                                
 2.01E-03  62%   1.010 Glc                                                 
    0.000 999%   0.000 GSH                                                 
    0.000 999%   0.000 Lac                                                 
    0.000 999%   0.000 NAAG                                                
    0.000 999%   0.000 PE                                                  
 5.03E-03  49%   2.532 GPC+PCho                                            
 4.41E-02  20%  22.167 NAA+NAAG                                            
 2.04E-02  37%  10.270 Glu+Gln                                             
 1.59E-02  35%   8.000 Cr+PCr                                              
 4.41E-02  20%  22.167 NAA+NAAG                                            
 1.59E-02  35%   8.000 Cr+PCr                                              
 2.04E-02  37%  10.270 Glu+Gln                                             
   6 lines in following misc. output table
  FWHM = 0.105 ppm    S/N =   1                                            
  Data shift =-0.017 ppm                                                   
  Ph: -85 deg     -19.0 deg/ppm                                            
  alphaB,S = 3.1E+01,   5.1E+01                                            
   14 spline knots.   Ns =11(2)                                            
   2 inflections.     2 extrema                                            
  654 points on ppm-axis = NY
      4.000000     3.994181     3.988363     3.982544     3.976726     3.970907     3.965088     3.959270     3.953451     3.947633
      3.941814     3.935995     3.930177     3.924358     3.918540     3.912721     3.906902     3.901084     3.895265     3.889446
      3.883628     3.877809     3.871991     3.866172     3.860353     3.854535     3.848716     3.842898     3.837079     3.831260
      3.825442     3.819623     3.813805     3.807986     3.802167     3.796349     3.790530     3.784712     3.778893     3.773074
      3.767256     3.761437     3.755619     3.749800     3.743981     3.738163     3.732344     3.726526     3.720707     3.714888
      3.709070     3.703251     3.697433     3.691614     3.685795     3.679977     3.674158     3.668339     3.662521     3.656702
      3.650884     3.645065     3.639246     3.633428     3.627609     3.621791     3.615972     3.610153     3.604335     3.598516
      3.592698     3.586879     3.581060     3.575242     3.569423     3.563605     3.557786     3.551967     3.546149     3.540330
      3.534512     3.528693     3.522874     3.517056     3.511237     3.505419     3.499600     3.493781     3.487963     3.482144
      3.476326     3.470507     3.464688     3.458870     3.453051     3.447232     3.441414     3.435595     3.429777     3.423958
      3.418139     3.412321     3.406502     3.400684     3.394865     3.389046     3.383228     3.377409     3.371591     3.365772
      3.359953     3.354135     3.348316     3.342498     3.336679     3.330860     3.325042     3.319223     3.313405     3.307586
      3.301767     3.295949     3.290130     3.284312     3.278493     3.272674     3.266856     3.261037     3.255219     3.249400
      3.243581     3.237763     3.231944     3.226125     3.220307     3.214488     3.208670     3.202851     3.197032     3.191214
      3.185395     3.179577     3.173758     3.167939     3.162121     3.156302     3.150484     3.144665     3.138846     3.133028
      3.127209     3.121391     3.115572     3.109753     3.103935     3.098116     3.092298     3.086479     3.080660     3.074842
      3.069023     3.063205     3.057386     3.051567     3.045749     3.039930     3.034111     3.028293     3.022474     3.016656
      3.010837     3.005018     2.999200     2.993381     2.987563     2.981744     2.975925     2.970107     2.964288     2.958470
      2.952651     2.946832     2.941014     2.935195     2.929377     2.923558     2.917739     2.911921     2.906102     2.900284
      2.894465     2.888646     2.882828     2.877009     2.871191     2.865372     2.859553     2.853735     2.847916     2.842098
      2.836279     2.830460     2.824642     2.818823     2.813004     2.807186     2.801367     2.795549     2.789730     2.783911
      2.778093     2.772274     2.766456     2.760637     2.754818     2.749000     2.743181     2.737363     2.731544     2.725725
      2.719907     2.714088     2.708270     2.702451     2.696632     2.690814     2.684995     2.679177     2.673358     2.667539
      2.661721     2.655902     2.650084     2.644265     2.638446     2.632628     2.626809     2.620991     2.615172     2.609353
      2.603535     2.597716     2.591897     2.586079     2.580260     2.574442     2.568623     2.562804     2.556986     2.551167
      2.545349     2.539530     2.533711     2.527893     2.522074     2.516256     2.510437     2.504618     2.498800     2.492981
      2.487163     2.481344     2.475525     2.469707     2.463888     2.458070     2.452251     2.446432     2.440614     2.434795
      2.428977     2.423158     2.417339     2.411521     2.405702     2.399884     2.394065     2.388246     2.382428     2.376609
      2.370790     2.364972     2.359153     2.353335     2.347516     2.341697     2.335879     2.330060     2.324242     2.318423
      2.312604     2.306786     2.300967     2.295149     2.289330     2.283511     2.277693     2.271874     2.266056     2.260237
      2.254418     2.248600     2.242781     2.236963     2.231144     2.225325     2.219507     2.213688     2.207870     2.202051
      2.196232     2.190414     2.184595     2.178777     2.172958     2.167139     2.161321     2.155502     2.149683     2.143865
      2.138046     2.132228     2.126409     2.120590     2.114772     2.108953     2.103135     2.097316     2.091497     2.085679
      2.079860     2.074042     2.068223     2.062404     2.056586     2.050767     2.044949     2.039130     2.033311     2.027493
      2.021674     2.015856     2.010037     2.004218     1.998400     1.992581     1.986763     1.980944     1.975126     1.969307
      1.963489     1.957670     1.951852     1.946033     1.940215     1.934397     1.928578     1.922760     1.916941     1.911123
      1.905304     1.899486     1.893667     1.887849     1.882030     1.876212     1.870393     1.864575     1.858756     1.852938
      1.847119     1.841301     1.835482     1.829664     1.823845     1.818027     1.812208     1.806390     1.800571     1.794753
      1.788934     1.783116     1.777297     1.771479     1.765660     1.759842     1.754023     1.748205     1.742386     1.736568
      1.730749     1.724931     1.719113     1.713294     1.707476     1.701657     1.695839     1.690020     1.684202     1.678383
      1.672565     1.666746     1.660928     1.655109     1.649291     1.643472     1.637654     1.631835     1.626017     1.620198
      1.614380     1.608561     1.602743     1.596924     1.591106     1.585287     1.579469     1.573650     1.567832     1.562013
      1.556195     1.550376     1.544558     1.538739     1.532921     1.527102     1.521284     1.515465     1.509647     1.503829
      1.498010     1.492192     1.486373     1.480555     1.474736     1.468918     1.463099     1.457281     1.451462     1.445644
      1.439825     1.434007     1.428188     1.422370     1.416551     1.410733     1.404914     1.399096     1.393277     1.387459
      1.381640     1.375822     1.370003     1.364185     1.358366     1.352548     1.346729     1.340911     1.335092     1.329274
      1.323455     1.317637     1.311818     1.306000     1.300182     1.294363     1.288545     1.282726     1.276908     1.271089
      1.265271     1.259452     1.253634     1.247815     1.241997     1.236178     1.230360     1.224541     1.218723     1.212904
      1.207086     1.201267     1.195449     1.189630     1.183812     1.177993     1.172175     1.166356     1.160538     1.154719
      1.148901     1.143082     1.137264     1.131445     1.125627     1.119808     1.113990     1.108171     1.102353     1.096534
      1.090716     1.084898     1.079079     1.073261     1.067442     1.061624     1.055805     1.049987     1.044168     1.038350
      1.032531     1.026713     1.020894     1.015076     1.009257     1.003439     0.997620     0.991802     0.985983     0.980165
      0.974346     0.968528     0.962709     0.956891     0.951072     0.945254     0.939435     0.933617     0.927798     0.921980
      0.916161     0.910343     0.904524     0.898706     0.892887     0.887069     0.881251     0.875432     0.869614     0.863795
      0.857977     0.852158     0.846340     0.840521     0.834703     0.828884     0.823066     0.817247     0.811429     0.805610
      0.799792     0.793973     0.788155     0.782336     0.776518     0.770699     0.764881     0.759062     0.753244     0.747425
      0.741607     0.735788     0.729970     0.724151     0.718333     0.712514     0.706696     0.700877     0.695059     0.689240
      0.683422     0.677603     0.671785     0.665967     0.660148     0.654330     0.648511     0.642693     0.636874     0.631056
      0.625237     0.619419     0.613600     0.607782     0.601963     0.596145     0.590326     0.584508     0.578689     0.572871
      0.567052     0.561234     0.555415     0.549597     0.543778     0.537960     0.532141     0.526323     0.520504     0.514686
      0.508867     0.503049     0.497230     0.491412     0.485593     0.479775     0.473956     0.468138     0.462319     0.456501
      0.450682     0.444864     0.439045     0.433227     0.427408     0.421590     0.415771     0.409953     0.404134     0.398316
      0.392497     0.386679     0.380860     0.375042     0.369223     0.363405     0.357586     0.351767     0.345949     0.340130
      0.334312     0.328493     0.322675     0.316856     0.311038     0.305219     0.299401     0.293582     0.287764     0.281945
      0.276127     0.270308     0.264490     0.258671     0.252853     0.247034     0.241216     0.235397     0.229579     0.223760
      0.217942     0.212123     0.206305     0.200486
 NY phased data points follow
  -1.01906E-02  2.56001E-01  5.62756E-02 -1.01260E-01  3.53275E-01 -7.33478E-02 -2.09204E-02  6.97386E-02 -1.46746E-01 -1.78887E-01
  -6.28110E-02  1.49514E-01  9.35440E-02 -2.32644E-02 -1.84190E-01 -4.76855E-02 -2.52836E-02 -1.64875E-01  1.28471E-01  2.29591E-02
   1.69837E-01  1.92660E-01 -2.59907E-01  3.24241E-01  2.34904E-01 -5.35719E-02  3.81246E-01 -1.86199E-01 -2.04186E-01  9.01229E-02
  -1.58344E-01 -1.51183E-01 -1.47099E-01  1.37489E-01 -4.60398E-02 -1.04555E-01  2.21256E-02 -7.79589E-02  1.12692E-01 -2.69490E-01
  -2.51293E-03  1.87389E-01 -1.75340E-01  5.84423E-02  1.80831E-01  9.49986E-02 -1.33195E-01 -3.10477E-02  1.11818E-01  1.78780E-01
   1.04253E-01  7.21043E-03 -1.40537E-01 -1.47583E-01  1.59000E-01 -1.22836E-01 -3.45251E-02 -1.09529E-01 -2.23428E-01  3.65328E-02
  -1.38541E-03  2.49606E-02 -3.66815E-02  9.09042E-02  1.15953E-01 -1.81573E-01 -3.18458E-01  5.15161E-02  9.58539E-02 -8.26738E-02
   9.58491E-02  1.88295E-01  8.61464E-02  6.04129E-02  7.78619E-02 -1.83537E-01  2.17175E-01  1.51842E-01 -1.46379E-01  6.37106E-02
   1.61013E-01  1.95118E-01  5.12309E-02 -1.14722E-01 -2.83117E-01  1.54361E-01 -3.44416E-01 -1.68629E-01  1.54054E-01 -1.37447E-01
   1.45428E-01 -3.02149E-01  1.69681E-01  3.77585E-02  6.84439E-02 -1.80295E-01 -2.05008E-01  3.70500E-01 -1.93299E-01  1.03744E-01
  -1.46250E-01  5.60994E-02  2.40108E-01  1.31279E-01  1.16439E-02 -3.10110E-01  7.69095E-03  2.80613E-01  3.52295E-01  9.89058E-02
   1.85526E-01  1.16856E-01  3.31619E-01  4.01701E-01  3.00469E-01  1.84703E-01  3.87641E-02  1.08799E-01  2.23002E-01 -1.37809E-01
  -2.44307E-01  2.70965E-01 -1.83079E-02 -7.71557E-02 -4.05528E-01 -3.52141E-01 -4.07634E-01 -5.02090E-01 -3.98588E-01 -6.06934E-01
  -2.27883E-01 -3.54166E-01 -3.06546E-01 -3.24055E-01 -5.71927E-01 -5.27237E-01 -2.12689E-01 -2.13666E-01  7.49942E-02  2.82826E-01
  -1.63284E-01 -2.96647E-02  2.65280E-01  3.68758E-01 -9.07034E-02 -2.13066E-01  4.36745E-01  3.04909E-01  5.96011E-02  4.95248E-01
   1.97408E-01  1.57427E-01  4.68228E-01  3.02799E-01  2.03637E-01  2.84453E-01  3.82681E-01  2.42746E-01  1.44717E-01  2.12239E-01
   6.39341E-02 -2.69947E-01  2.59134E-02  6.60651E-02 -3.60992E-02 -3.03934E-01 -3.05044E-01 -2.64651E-01 -2.85050E-01  1.03034E-01
  -1.55214E-01 -3.27829E-01 -5.41871E-01 -5.64609E-01 -2.32873E-01 -1.02080E-01 -3.73810E-01 -1.41972E-01 -3.86783E-01 -5.83367E-01
  -1.60609E-01 -3.33907E-01 -3.14576E-02 -1.13177E-01 -1.59355E-01  8.13397E-02 -7.47972E-02 -9.51671E-02  5.27524E-02 -1.39910E-01
   2.40299E-01  1.28323E-01 -2.15342E-01 -1.15054E-01 -1.88223E-01  2.97647E-02  1.51475E-02  3.44440E-01  1.20858E-01  2.13251E-01
   7.25093E-02  3.71322E-02  2.69792E-01  1.73119E-01  3.82311E-01 -1.92932E-02 -2.43803E-03  3.11327E-01  2.94367E-01  1.80598E-01
   3.76120E-01 -1.74119E-01 -9.66019E-02 -7.71062E-02  6.72720E-02  2.90904E-01 -2.40965E-01  2.25528E-01  2.25197E-01  3.95882E-01
   1.21186E-01  3.40150E-01  2.60834E-01 -1.84204E-02  6.25059E-01  3.21404E-01  3.75761E-01  2.75341E-01 -1.97192E-02  9.16011E-02
   2.49987E-01 -7.12762E-02  2.75508E-02  1.52805E-01 -1.01752E-02  1.58634E-01 -8.44218E-02 -3.43231E-02 -5.27303E-02 -1.11683E-01
  -2.64675E-01 -1.80089E-01  6.24232E-02 -3.15004E-01 -9.00791E-02 -5.96696E-02 -2.70512E-01 -2.15074E-01 -3.50763E-02  1.98903E-02
  -2.50689E-01  5.65873E-03  9.12988E-04 -2.84201E-01 -2.36866E-01  2.47023E-01  3.00168E-01  2.70512E-01  1.39677E-01 -5.92211E-02
   1.43700E-01  5.47608E-03  8.95943E-03 -1.04650E-01  3.30569E-01  2.33992E-01  3.37346E-02  9.53943E-02  6.36892E-02  3.75980E-02
  -2.29179E-01  1.80770E-01  2.19181E-01  2.10300E-01 -3.20529E-01 -3.72287E-01  7.11757E-02  1.92214E-01 -3.20575E-02 -3.53626E-01
   8.83869E-02 -2.20961E-01 -2.19593E-01  1.75076E-01 -3.71581E-02  9.58017E-02  2.53846E-01 -4.26162E-02  2.75406E-02  1.43808E-01
   4.42779E-01  3.82402E-01  1.64911E-01  3.03714E-01  5.18230E-02  2.00550E-01  1.54362E-01  1.00778E-01 -5.70319E-02 -7.31576E-02
   5.48838E-02 -5.95686E-02  2.47508E-01 -4.20005E-03 -3.03995E-02  3.29532E-01  2.96315E-01  2.42118E-01  1.28995E-01  5.26094E-01
   3.52854E-01 -1.16450E-01  7.03579E-02 -5.60391E-03 -2.39983E-01 -3.62643E-01  2.25072E-02  1.38223E-01  2.28295E-01 -2.61988E-01
  -5.74673E-01 -2.29323E-01 -2.16869E-01 -1.91786E-01 -5.02090E-01 -1.64357E-01 -2.65620E-01 -2.62609E-01 -3.39106E-01 -2.78122E-01
  -7.27071E-03 -5.81382E-01 -3.11550E-01 -1.98110E-01 -3.97058E-01 -3.82295E-01 -2.43096E-01 -4.94958E-01 -4.61345E-01 -2.72500E-01
  -5.34313E-01 -3.91226E-01 -2.82498E-01 -3.73637E-01 -2.09175E-01 -7.29766E-02 -1.79400E-01 -2.67050E-01 -3.91827E-01 -2.47501E-03
  -1.47054E-02  2.15753E-01  3.00526E-01 -4.10261E-02  2.61090E-01  2.75208E-01  2.45868E-01  3.39465E-01  5.87610E-01  4.85746E-02
   8.19814E-02  1.57754E-01  2.65990E-01  5.61643E-01 -2.38005E-01  1.84990E-01  7.68414E-02  2.16097E-01  5.53327E-01  1.97997E-02
  -4.12378E-02  2.95078E-02  2.84607E-01 -1.06848E-01  2.29269E-01  1.62533E-01  5.48313E-02  4.27935E-01  1.17969E-01  2.62724E-02
  -1.89238E-01  2.14890E-01  4.78707E-01  2.22271E-01  1.40576E-01  1.40963E-01  2.46611E-02 -7.23836E-02  1.62117E-02  3.90884E-01
   8.24744E-02 -6.81576E-02  2.28555E-01  1.72067E-02  1.86473E-01 -2.70213E-01 -5.02699E-02  4.29490E-02 -1.25776E-01  3.56589E-02
  -1.18177E-01  4.70936E-02 -1.98040E-02  1.14545E-01  3.31830E-02 -1.49070E-01 -3.38494E-01 -2.46410E-01 -2.79281E-01 -9.74914E-02
  -6.68287E-02 -6.31251E-02  1.02329E-01 -2.93186E-01 -2.69226E-01 -2.87816E-01 -5.97412E-02  9.17549E-02 -1.00283E-01 -1.86831E-01
   1.09275E-01  1.31246E-01  2.56950E-01 -1.81866E-01 -1.73703E-01  3.36360E-01 -1.37927E-01  1.01917E-01 -1.78380E-01  1.85934E-02
   4.93322E-02 -5.81636E-03  3.56399E-01  1.99462E-01  3.14498E-01  3.04135E-01 -8.67852E-03 -8.21076E-02  5.29293E-01  1.76033E-01
   6.87633E-02  3.73413E-02  3.61589E-04  3.51628E-01  1.87812E-01  2.56687E-01  4.12915E-02  5.83679E-02  3.50708E-01  2.84656E-01
  -1.19262E-01 -3.35980E-01 -6.36470E-02  6.19366E-02 -1.23922E-01  1.24314E-01  3.89619E-01  8.65833E-02 -3.17394E-01 -1.69909E-01
   1.62809E-01  8.66147E-02 -1.70767E-01 -4.95034E-01 -2.95053E-02  1.03765E-02 -4.22819E-01 -2.09342E-01 -2.46239E-01 -1.23004E-01
  -2.20578E-01 -1.79290E-01  9.60756E-02 -2.09669E-01 -1.17022E-01 -3.98210E-01 -1.56501E-01  4.60081E-02 -3.55860E-01  3.14110E-01
  -4.16712E-02 -4.23786E-01  3.07580E-02  4.15910E-02  1.55010E-02  2.59330E-01  1.72321E-01 -2.28011E-02  1.81418E-01  1.82469E-01
   1.10422E-01 -2.57158E-01 -3.60375E-02  8.72943E-02  2.51783E-01  2.00710E-01 -3.79315E-01  8.74077E-02 -2.20039E-01  1.34662E-02
   4.84387E-01  7.62508E-02  8.46529E-02  6.23037E-02  2.83732E-01  1.11382E-01  3.57355E-01  2.82002E-01 -2.24662E-01 -1.10483E-01
  -3.05141E-02  1.92220E-01 -3.97441E-02 -1.13626E-01  1.46432E-01  3.28375E-01  1.46849E-01  3.40615E-02 -1.89713E-01 -2.38200E-01
   1.58253E-01  2.40599E-02 -7.05703E-02 -3.19624E-01 -2.97361E-01 -2.89651E-01 -2.30252E-01 -4.81681E-02 -1.61490E-01 -2.97800E-01
  -2.03039E-01 -1.51225E-01 -2.43638E-01 -1.47779E-01 -3.86485E-01 -1.39120E-01 -2.00234E-01  5.54028E-02  5.24035E-01 -9.83959E-02
  -2.49676E-01 -2.10118E-03  4.95628E-02 -2.65778E-02 -1.61117E-01 -2.23504E-01 -1.18237E-01  1.40349E-01  2.13447E-01  8.80038E-02
   1.33048E-01  2.94007E-02  2.03369E-01  1.50639E-01  1.99122E-01  2.33128E-01 -1.10554E-01  2.86564E-01  1.74774E-01  1.31509E-01
   1.74965E-01  3.62341E-02  5.90582E-02 -1.25983E-01  2.20245E-01  3.88557E-01  6.35312E-02  2.32719E-01  1.59442E-01 -4.54033E-02
   1.46766E-01  1.98800E-01  1.59765E-01 -1.48037E-01 -9.85469E-02  2.96569E-02  7.34058E-02 -9.76405E-02 -1.87132E-01  6.71972E-02
   1.88280E-01  2.20789E-01  3.79617E-02  9.68830E-03 -2.11184E-01  4.35902E-02  3.43309E-01  1.68817E-01  1.77518E-01  4.70093E-02
  -2.01928E-02  1.27153E-01  3.04917E-01  3.47786E-01 -1.19406E-01 -2.47432E-01 -2.43070E-01 -3.43742E-01  1.39510E-02  7.12003E-02
   3.59365E-01 -1.61841E-02 -9.11277E-02  2.24086E-01  6.53208E-02  2.19855E-01  6.85014E-02  2.26484E-01  1.94562E-01  9.27381E-02
  -1.39020E-01 -1.38931E-01  7.55810E-02 -6.18886E-03  1.12052E-01 -1.31800E-01 -1.74133E-01  2.67488E-01 -6.90149E-02 -3.38744E-01
   2.85729E-02 -2.39181E-01 -1.12341E-01 -1.62888E-01 -2.19607E-01  1.34922E-01 -6.93994E-02 -3.84188E-02  1.75602E-01  7.52782E-02
   9.26865E-02  1.60776E-01 -2.41504E-01 -4.79725E-02  2.04224E-01  6.93527E-04 -1.51341E-01  1.38519E-01  2.55603E-01 -5.95193E-02
  -1.07460E-01 -3.85809E-02  1.01968E-01 -1.22846E-01  5.58079E-02 -1.22915E-01 -2.30244E-01  6.24135E-03  1.00347E-01  2.42546E-01
  -8.20109E-02  8.37578E-02  1.20300E-01  2.36054E-01
 NY points of the fit to the data follow
   7.82170E-02  1.00029E-01  7.48324E-02  1.04893E-01  7.58999E-02  1.14529E-01  8.09413E-02  1.27432E-01  8.79848E-02  1.39839E-01
   9.39740E-02  1.46355E-01  9.50517E-02  1.41437E-01  8.68583E-02  1.20303E-01  6.68238E-02  8.41862E-02  4.03168E-02  4.22737E-02
   1.13475E-02 -3.89755E-03 -1.78209E-02 -4.92989E-02 -4.47321E-02 -8.84941E-02 -6.64337E-02 -1.16029E-01 -7.91401E-02 -1.27556E-01
  -8.03039E-02 -1.20669E-01 -6.92800E-02 -9.60579E-02 -4.73065E-02 -5.77025E-02 -1.75656E-02 -1.15357E-02  1.35749E-02  3.06902E-02
   3.78627E-02  5.33065E-02  5.34344E-02  6.50791E-02  5.70613E-02  6.89709E-02  5.17895E-02  6.35954E-02  4.06846E-02  5.09311E-02
   2.40584E-02  3.14601E-02  3.28278E-03  7.56791E-03 -1.83629E-02 -1.67204E-02 -3.72994E-02 -3.70943E-02 -5.29391E-02 -5.06401E-02
  -5.76052E-02 -5.22525E-02 -5.08788E-02 -3.86010E-02 -3.17414E-02 -1.35041E-02 -3.32927E-03  1.63907E-02  2.67606E-02  4.33743E-02
   5.11052E-02  6.22500E-02  6.88069E-02  7.11955E-02  7.89847E-02  7.05866E-02  7.63960E-02  6.10543E-02  5.74801E-02  4.68230E-02
   2.90095E-02  3.37129E-02 -1.01969E-03  2.48172E-02 -2.90244E-02  2.21413E-02 -5.10871E-02  2.75323E-02 -6.89733E-02  4.04128E-02
  -8.44475E-02  5.27970E-02 -9.42416E-02  5.74947E-02 -1.03112E-01  5.86289E-02 -1.07351E-01  5.69663E-02 -9.77081E-02  5.76491E-02
  -7.01978E-02  6.26444E-02 -2.67630E-02  7.58587E-02  3.03068E-02  1.00054E-01  1.00347E-01  1.28956E-01  1.62037E-01  1.46617E-01
   2.03147E-01  1.43456E-01  2.12532E-01  1.20899E-01  1.82082E-01  6.82508E-02  1.11336E-01 -5.07191E-03  9.50892E-03 -9.07573E-02
  -1.09383E-01 -1.79643E-01 -2.27328E-01 -2.61272E-01 -3.20739E-01 -3.26348E-01 -3.75608E-01 -3.72199E-01 -3.99759E-01 -3.97356E-01
  -3.99345E-01 -3.98832E-01 -3.72246E-01 -3.74483E-01 -3.18537E-01 -3.21559E-01 -2.38336E-01 -2.39727E-01 -1.37757E-01 -1.37912E-01
  -2.86959E-02 -2.79717E-02  7.87011E-02  8.49731E-02  1.79736E-01  1.84655E-01  2.52651E-01  2.57569E-01  2.92978E-01  2.99115E-01
   3.01998E-01  3.04914E-01  2.85916E-01  2.78774E-01  2.49905E-01  2.32555E-01  2.05308E-01  1.73518E-01  1.49340E-01  9.95460E-02
   7.95552E-02  1.79118E-02  7.30333E-03 -5.05015E-02 -6.36787E-02 -1.15081E-01 -1.31506E-01 -1.71246E-01 -1.89172E-01 -2.15438E-01
  -2.33748E-01 -2.46465E-01 -2.65192E-01 -2.60865E-01 -2.77132E-01 -2.55046E-01 -2.66100E-01 -2.29048E-01 -2.33113E-01 -1.86588E-01
  -1.82672E-01 -1.33727E-01 -1.22577E-01 -7.85374E-02 -6.22327E-02 -2.88143E-02 -1.04410E-02  9.29658E-03  2.64456E-02  3.08515E-02
   4.20359E-02  3.61870E-02  3.85199E-02  3.83414E-02  4.01271E-02  4.12432E-02  4.10832E-02  4.20572E-02  4.08001E-02  4.07830E-02
   3.91203E-02  3.80728E-02  3.63948E-02  3.76219E-02  3.63332E-02  3.84471E-02  3.70891E-02  4.10094E-02  4.27894E-02  4.97009E-02
   5.20670E-02  6.17830E-02  6.40299E-02  7.62139E-02  7.80910E-02  9.27325E-02  9.42251E-02  1.11234E-01  1.11657E-01  1.29896E-01
   1.28519E-01  1.46097E-01  1.41989E-01  1.56671E-01  1.48405E-01  1.58106E-01  1.44557E-01  1.48433E-01  1.29148E-01  1.26598E-01
   1.02402E-01  9.19759E-02  6.47619E-02  4.67881E-02  1.86601E-02 -1.89352E-04 -3.06708E-02 -4.82708E-02 -7.59667E-02 -8.97459E-02
  -1.11557E-01 -1.19979E-01 -1.32003E-01 -1.32733E-01 -1.34914E-01 -1.27393E-01 -1.20363E-01 -1.04653E-01 -9.01468E-02 -6.96232E-02
  -5.01788E-02 -3.13308E-02 -7.96798E-03  9.28268E-03  3.51254E-02  4.51443E-02  6.92455E-02  6.79082E-02  9.46014E-02  8.19850E-02
   1.08937E-01  8.65497E-02  1.10776E-01  8.08695E-02  1.01565E-01  6.66831E-02  8.28094E-02  4.55008E-02  5.49710E-02  1.95711E-02
   2.02334E-02 -8.32210E-03 -1.65295E-02 -3.34043E-02 -4.82310E-02 -5.01551E-02 -6.77181E-02 -5.38218E-02 -6.93291E-02 -4.04508E-02
  -4.98279E-02 -1.15141E-02 -1.12659E-02  2.52551E-02  3.58515E-02  6.87067E-02  8.13820E-02  1.09988E-01  1.21239E-01  1.46780E-01
   1.52519E-01  1.72670E-01  1.73941E-01  1.86545E-01  1.83166E-01  1.86841E-01  1.79016E-01  1.74138E-01  1.62807E-01  1.50901E-01
   1.37678E-01  1.20856E-01  1.07387E-01  8.86544E-02  7.65396E-02  5.92712E-02  4.92120E-02  3.63310E-02  2.78930E-02  1.85239E-02
   1.09953E-02  9.07700E-04 -7.42470E-03 -1.91532E-02 -2.85605E-02 -3.99287E-02 -4.77048E-02 -5.75451E-02 -6.07811E-02 -7.06362E-02
  -9.10637E-02 -1.03488E-01 -1.28247E-01 -1.40730E-01 -1.66419E-01 -1.78524E-01 -2.04737E-01 -2.16506E-01 -2.45259E-01 -2.55995E-01
  -2.88202E-01 -2.96396E-01 -3.34314E-01 -3.37967E-01 -3.82602E-01 -3.79161E-01 -4.26436E-01 -4.12841E-01 -4.54764E-01 -4.28144E-01
  -4.55306E-01 -4.14356E-01 -4.20482E-01 -3.66680E-01 -3.55301E-01 -2.93300E-01 -2.67248E-01 -2.02451E-01 -1.53388E-01 -9.19726E-02
  -2.26090E-02  2.67766E-02  1.05924E-01  1.35910E-01  2.12285E-01  2.19678E-01  2.81563E-01  2.68433E-01  3.06247E-01  2.78633E-01
   2.87079E-01  2.52684E-01  2.34415E-01  2.00072E-01  1.60701E-01  1.31921E-01  9.33331E-02  7.58754E-02  7.26644E-02  6.65765E-02
   6.88267E-02  6.68880E-02  7.07545E-02  7.13256E-02  7.51724E-02  7.73743E-02  8.01636E-02  8.34108E-02  8.45721E-02  8.81692E-02
   8.76285E-02  9.09789E-02  8.88355E-02  9.14007E-02  8.81642E-02  8.94692E-02  8.57431E-02  8.53988E-02  8.14848E-02  7.95252E-02
   7.52633E-02  7.19503E-02  6.70355E-02  6.24508E-02  5.68812E-02  5.11679E-02  4.49930E-02  3.83051E-02  3.16363E-02  2.42467E-02
   1.71894E-02  9.68189E-03  2.52750E-03 -4.62412E-03 -1.15330E-02 -1.78569E-02 -2.40989E-02 -2.90918E-02 -3.41764E-02 -3.75133E-02
  -4.10573E-02 -4.23476E-02 -4.23576E-02 -4.10877E-02 -3.75455E-02 -3.29687E-02 -2.81286E-02 -2.05512E-02 -1.50541E-02 -4.56020E-03
   1.33373E-03  1.48000E-02  2.06229E-02  3.70110E-02  4.21829E-02  6.13697E-02  6.52426E-02  8.69482E-02  8.85575E-02  1.12037E-01
   1.10340E-01  1.34464E-01  1.28756E-01  1.51992E-01  1.42589E-01  1.63343E-01  1.51748E-01  1.68587E-01  1.56743E-01  1.68615E-01
   1.57165E-01  1.63211E-01  1.52887E-01  1.52328E-01  1.45039E-01  1.37988E-01  1.35154E-01  1.22527E-01  1.24519E-01  1.07816E-01
   1.13784E-01  9.47172E-02  1.02941E-01  8.31605E-02  9.12118E-02  7.22346E-02  7.77554E-02  6.06449E-02  6.15359E-02  4.66017E-02
   4.06914E-02  2.75256E-02  1.82936E-02  6.66921E-03 -8.76574E-04 -9.46775E-03 -1.45443E-02 -1.95489E-02 -2.17844E-02 -2.30855E-02
  -2.25180E-02 -2.03248E-02 -1.74282E-02 -1.22474E-02 -7.69493E-03 -3.00071E-04  5.23749E-03  1.39799E-02  1.98755E-02  2.88805E-02
   3.45921E-02  4.28309E-02  4.78410E-02  5.45716E-02  5.85245E-02  6.32732E-02  6.58471E-02  6.83870E-02  6.93222E-02  6.96224E-02
   6.87989E-02  6.71083E-02  6.45644E-02  6.11067E-02  5.71596E-02  5.22972E-02  4.73097E-02  4.14544E-02  3.57892E-02  2.92957E-02
   2.31102E-02  1.62505E-02  9.57498E-03  2.47342E-03 -4.73165E-03 -1.20126E-02 -1.99325E-02 -2.74484E-02 -3.63751E-02 -4.43926E-02
  -5.42775E-02 -6.29377E-02 -7.37246E-02 -8.31285E-02 -9.44977E-02 -1.04634E-01 -1.16342E-01 -1.26944E-01 -1.38492E-01 -1.49096E-01
  -1.59842E-01 -1.69621E-01 -1.78862E-01 -1.86790E-01 -1.93793E-01 -1.98960E-01 -2.03011E-01 -2.04646E-01 -2.05072E-01 -2.02707E-01
  -1.99189E-01 -1.92519E-01 -1.85103E-01 -1.74407E-01 -1.63459E-01 -1.49490E-01 -1.35625E-01 -1.19388E-01 -1.03641E-01 -8.63258E-02
  -6.97058E-02 -5.25695E-02 -3.60664E-02 -2.04232E-02 -5.00932E-03  8.22768E-03  2.19137E-02  3.23048E-02  4.39200E-02  5.14026E-02
   6.07743E-02  6.55490E-02  7.27615E-02  7.52283E-02  8.03825E-02  8.10470E-02  8.43126E-02  8.37092E-02  8.50504E-02  8.36113E-02
   8.32673E-02  8.13373E-02  7.95004E-02  7.72441E-02  7.43373E-02  7.20263E-02  6.85528E-02  6.64039E-02  6.28651E-02  6.06948E-02
   5.74719E-02  5.53423E-02  5.26154E-02  5.04708E-02  4.82643E-02  4.62308E-02  4.44684E-02  4.25037E-02  4.11395E-02  3.91638E-02
   3.81676E-02  3.62498E-02  3.54324E-02  3.36183E-02  3.27891E-02  3.11608E-02  3.04275E-02  2.88801E-02  2.82757E-02  2.68928E-02
   2.65262E-02  2.52183E-02  2.52498E-02  2.39612E-02  2.44275E-02  2.32122E-02  2.42060E-02  2.30585E-02  2.44636E-02  2.33767E-02
   2.50537E-02  2.41162E-02  2.59384E-02  2.52798E-02  2.70380E-02  2.66079E-02  2.82578E-02  2.80214E-02  2.94740E-02  2.94823E-02
   3.05728E-02  3.08020E-02  3.15303E-02  3.17761E-02  3.22181E-02  3.23599E-02  3.25231E-02  3.26706E-02  3.26929E-02  3.26377E-02
   3.25326E-02  3.23160E-02  3.21463E-02  3.17412E-02  3.15352E-02  3.10687E-02  3.08466E-02  3.04841E-02  3.00463E-02  2.98705E-02
   2.92049E-02  2.91982E-02  2.83246E-02  2.85199E-02  2.75559E-02  2.80020E-02  2.70117E-02  2.77211E-02  2.68087E-02  2.79042E-02
   2.71748E-02  2.86276E-02  2.81419E-02  2.99713E-02  2.96863E-02  3.19773E-02  3.18031E-02  3.45450E-02  3.45275E-02  3.73652E-02
   3.78293E-02  4.06602E-02  4.17779E-02  4.49196E-02
 NY background values follow
     4.971E-02    4.965E-02    4.958E-02    4.951E-02    4.945E-02    4.938E-02    4.932E-02    4.925E-02    4.918E-02    4.912E-02
     4.905E-02    4.899E-02    4.892E-02    4.885E-02    4.879E-02    4.872E-02    4.866E-02    4.859E-02    4.852E-02    4.846E-02
     4.839E-02    4.833E-02    4.826E-02    4.819E-02    4.813E-02    4.806E-02    4.800E-02    4.793E-02    4.786E-02    4.780E-02
     4.773E-02    4.767E-02    4.760E-02    4.753E-02    4.747E-02    4.740E-02    4.734E-02    4.727E-02    4.720E-02    4.714E-02
     4.707E-02    4.701E-02    4.694E-02    4.687E-02    4.681E-02    4.674E-02    4.668E-02    4.661E-02    4.654E-02    4.648E-02
     4.641E-02    4.635E-02    4.628E-02    4.621E-02    4.615E-02    4.608E-02    4.602E-02    4.595E-02    4.588E-02    4.582E-02
     4.575E-02    4.569E-02    4.562E-02    4.555E-02    4.549E-02    4.542E-02    4.536E-02    4.529E-02    4.522E-02    4.516E-02
