 LCModel (Version 6.3-1N) Copyright: S.W. Provencher.          Ref.: Magn. Reson. Med. 30:672-679 (1993).                
 Slice_N1@13_24  02-Jun-2023 14:36:44
 27 lines in following concentration table = NCONC+1
    Conc.  %SD /Cr+PCr  Metabolite                                         
 1.66E-06  28% 1.9E-04 Mac                                                 
 6.97E-02  16%   8.000 Cr                                                  
    0.000 999%   0.000 PCr                                                 
    0.113  14%  12.995 Ins                                                 
 8.89E-02  12%  10.199 NAA                                                 
 9.63E-02  15%  11.050 Tau                                                 
 2.07E-02  19%   2.374 PCho                                                
    0.000 999%   0.000 GPC                                                 
 7.99E-02  19%   9.166 Glu                                                 
 1.51E-02  66%   1.735 Gln                                                 
    0.000 999%   0.000 Ala                                                 
 2.20E-02  98%   2.523 Asc                                                 
 7.82E-03  94%   0.897 Asp                                                 
 6.01E-03  71%   0.690 GABA                                                
 6.36E-03  72%   0.730 Glc                                                 
 4.56E-03 103%   0.523 GSH                                                 
    0.000 999%   0.000 Lac                                                 
    0.000 999%   0.000 NAAG                                                
    0.000 999%   0.000 PE                                                  
 2.07E-02  19%   2.374 GPC+PCho                                            
 8.89E-02  12%  10.199 NAA+NAAG                                            
 9.50E-02  18%  10.901 Glu+Gln                                             
 6.97E-02  16%   8.000 Cr+PCr                                              
 8.89E-02  12%  10.199 NAA+NAAG                                            
 6.97E-02  16%   8.000 Cr+PCr                                              
 9.50E-02  18%  10.901 Glu+Gln                                             
   6 lines in following misc. output table
  FWHM = 0.058 ppm    S/N =   2                                            
  Data shift =-0.006 ppm                                                   
  Ph: -27 deg     -14.6 deg/ppm                                            
  alphaB,S = 3.1E+01,   2.0E+02                                            
   18 spline knots.   Ns =10(1)                                            
   2 inflections.     1 extrema                                            
  654 points on ppm-axis = NY
      4.000000     3.994181     3.988363     3.982544     3.976726     3.970907     3.965088     3.959270     3.953451     3.947633
      3.941814     3.935995     3.930177     3.924358     3.918540     3.912721     3.906902     3.901084     3.895265     3.889446
      3.883628     3.877809     3.871991     3.866172     3.860353     3.854535     3.848716     3.842898     3.837079     3.831260
      3.825442     3.819623     3.813805     3.807986     3.802167     3.796349     3.790530     3.784712     3.778893     3.773074
      3.767256     3.761437     3.755619     3.749800     3.743981     3.738163     3.732344     3.726526     3.720707     3.714888
      3.709070     3.703251     3.697433     3.691614     3.685795     3.679977     3.674158     3.668339     3.662521     3.656702
      3.650884     3.645065     3.639246     3.633428     3.627609     3.621791     3.615972     3.610153     3.604335     3.598516
      3.592698     3.586879     3.581060     3.575242     3.569423     3.563605     3.557786     3.551967     3.546149     3.540330
      3.534512     3.528693     3.522874     3.517056     3.511237     3.505419     3.499600     3.493781     3.487963     3.482144
      3.476326     3.470507     3.464688     3.458870     3.453051     3.447232     3.441414     3.435595     3.429777     3.423958
      3.418139     3.412321     3.406502     3.400684     3.394865     3.389046     3.383228     3.377409     3.371591     3.365772
      3.359953     3.354135     3.348316     3.342498     3.336679     3.330860     3.325042     3.319223     3.313405     3.307586
      3.301767     3.295949     3.290130     3.284312     3.278493     3.272674     3.266856     3.261037     3.255219     3.249400
      3.243581     3.237763     3.231944     3.226125     3.220307     3.214488     3.208670     3.202851     3.197032     3.191214
      3.185395     3.179577     3.173758     3.167939     3.162121     3.156302     3.150484     3.144665     3.138846     3.133028
      3.127209     3.121391     3.115572     3.109753     3.103935     3.098116     3.092298     3.086479     3.080660     3.074842
      3.069023     3.063205     3.057386     3.051567     3.045749     3.039930     3.034111     3.028293     3.022474     3.016656
      3.010837     3.005018     2.999200     2.993381     2.987563     2.981744     2.975925     2.970107     2.964288     2.958470
      2.952651     2.946832     2.941014     2.935195     2.929377     2.923558     2.917739     2.911921     2.906102     2.900284
      2.894465     2.888646     2.882828     2.877009     2.871191     2.865372     2.859553     2.853735     2.847916     2.842098
      2.836279     2.830460     2.824642     2.818823     2.813004     2.807186     2.801367     2.795549     2.789730     2.783911
      2.778093     2.772274     2.766456     2.760637     2.754818     2.749000     2.743181     2.737363     2.731544     2.725725
      2.719907     2.714088     2.708270     2.702451     2.696632     2.690814     2.684995     2.679177     2.673358     2.667539
      2.661721     2.655902     2.650084     2.644265     2.638446     2.632628     2.626809     2.620991     2.615172     2.609353
      2.603535     2.597716     2.591897     2.586079     2.580260     2.574442     2.568623     2.562804     2.556986     2.551167
      2.545349     2.539530     2.533711     2.527893     2.522074     2.516256     2.510437     2.504618     2.498800     2.492981
      2.487163     2.481344     2.475525     2.469707     2.463888     2.458070     2.452251     2.446432     2.440614     2.434795
      2.428977     2.423158     2.417339     2.411521     2.405702     2.399884     2.394065     2.388246     2.382428     2.376609
      2.370790     2.364972     2.359153     2.353335     2.347516     2.341697     2.335879     2.330060     2.324242     2.318423
      2.312604     2.306786     2.300967     2.295149     2.289330     2.283511     2.277693     2.271874     2.266056     2.260237
      2.254418     2.248600     2.242781     2.236963     2.231144     2.225325     2.219507     2.213688     2.207870     2.202051
      2.196232     2.190414     2.184595     2.178777     2.172958     2.167139     2.161321     2.155502     2.149683     2.143865
      2.138046     2.132228     2.126409     2.120590     2.114772     2.108953     2.103135     2.097316     2.091497     2.085679
      2.079860     2.074042     2.068223     2.062404     2.056586     2.050767     2.044949     2.039130     2.033311     2.027493
      2.021674     2.015856     2.010037     2.004218     1.998400     1.992581     1.986763     1.980944     1.975126     1.969307
      1.963489     1.957670     1.951852     1.946033     1.940215     1.934397     1.928578     1.922760     1.916941     1.911123
      1.905304     1.899486     1.893667     1.887849     1.882030     1.876212     1.870393     1.864575     1.858756     1.852938
      1.847119     1.841301     1.835482     1.829664     1.823845     1.818027     1.812208     1.806390     1.800571     1.794753
      1.788934     1.783116     1.777297     1.771479     1.765660     1.759842     1.754023     1.748205     1.742386     1.736568
      1.730749     1.724931     1.719113     1.713294     1.707476     1.701657     1.695839     1.690020     1.684202     1.678383
      1.672565     1.666746     1.660928     1.655109     1.649291     1.643472     1.637654     1.631835     1.626017     1.620198
      1.614380     1.608561     1.602743     1.596924     1.591106     1.585287     1.579469     1.573650     1.567832     1.562013
      1.556195     1.550376     1.544558     1.538739     1.532921     1.527102     1.521284     1.515465     1.509647     1.503829
      1.498010     1.492192     1.486373     1.480555     1.474736     1.468918     1.463099     1.457281     1.451462     1.445644
      1.439825     1.434007     1.428188     1.422370     1.416551     1.410733     1.404914     1.399096     1.393277     1.387459
      1.381640     1.375822     1.370003     1.364185     1.358366     1.352548     1.346729     1.340911     1.335092     1.329274
      1.323455     1.317637     1.311818     1.306000     1.300182     1.294363     1.288545     1.282726     1.276908     1.271089
      1.265271     1.259452     1.253634     1.247815     1.241997     1.236178     1.230360     1.224541     1.218723     1.212904
      1.207086     1.201267     1.195449     1.189630     1.183812     1.177993     1.172175     1.166356     1.160538     1.154719
      1.148901     1.143082     1.137264     1.131445     1.125627     1.119808     1.113990     1.108171     1.102353     1.096534
      1.090716     1.084898     1.079079     1.073261     1.067442     1.061624     1.055805     1.049987     1.044168     1.038350
      1.032531     1.026713     1.020894     1.015076     1.009257     1.003439     0.997620     0.991802     0.985983     0.980165
      0.974346     0.968528     0.962709     0.956891     0.951072     0.945254     0.939435     0.933617     0.927798     0.921980
      0.916161     0.910343     0.904524     0.898706     0.892887     0.887069     0.881251     0.875432     0.869614     0.863795
      0.857977     0.852158     0.846340     0.840521     0.834703     0.828884     0.823066     0.817247     0.811429     0.805610
      0.799792     0.793973     0.788155     0.782336     0.776518     0.770699     0.764881     0.759062     0.753244     0.747425
      0.741607     0.735788     0.729970     0.724151     0.718333     0.712514     0.706696     0.700877     0.695059     0.689240
      0.683422     0.677603     0.671785     0.665967     0.660148     0.654330     0.648511     0.642693     0.636874     0.631056
      0.625237     0.619419     0.613600     0.607782     0.601963     0.596145     0.590326     0.584508     0.578689     0.572871
      0.567052     0.561234     0.555415     0.549597     0.543778     0.537960     0.532141     0.526323     0.520504     0.514686
      0.508867     0.503049     0.497230     0.491412     0.485593     0.479775     0.473956     0.468138     0.462319     0.456501
      0.450682     0.444864     0.439045     0.433227     0.427408     0.421590     0.415771     0.409953     0.404134     0.398316
      0.392497     0.386679     0.380860     0.375042     0.369223     0.363405     0.357586     0.351767     0.345949     0.340130
      0.334312     0.328493     0.322675     0.316856     0.311038     0.305219     0.299401     0.293582     0.287764     0.281945
      0.276127     0.270308     0.264490     0.258671     0.252853     0.247034     0.241216     0.235397     0.229579     0.223760
      0.217942     0.212123     0.206305     0.200486
 NY phased data points follow
   3.58033E-01  9.49170E-02  4.32860E-02 -3.22494E-02 -7.74104E-02 -1.16576E-02 -4.82924E-01 -4.01357E-01 -5.73064E-02 -2.48195E-01
  -2.86670E-01 -2.53384E-01 -3.60587E-02 -3.31272E-01  2.61381E-02  1.15371E-02 -3.38260E-01  4.28739E-02  2.72505E-01  1.92771E-01
  -2.10586E-01 -2.96697E-03  1.16284E-01  5.00148E-01  5.90059E-01  1.00176E-01  1.52557E-02  5.76568E-02 -3.04064E-02  3.41130E-02
  -4.58290E-02 -1.32866E-01  3.09599E-01  1.41349E-01  1.24522E-01  1.69157E-02  1.19887E-01 -3.01936E-02 -5.19312E-01 -1.38142E-01
  -3.22141E-01 -1.11190E-02  1.24305E-01  3.93088E-02  2.87458E-01  1.33136E-02  2.08495E-02  4.72754E-01  5.67650E-01  2.45646E-01
   2.21818E-01 -2.82059E-01  1.76278E-02 -2.23585E-01 -3.86326E-01  3.12247E-01 -6.32787E-01 -3.87102E-01 -2.74827E-01 -1.74935E-01
   5.14665E-02 -5.85718E-01 -1.45529E-01 -4.09465E-01 -1.79997E-01  3.39109E-02 -5.60416E-03  1.56312E-01  1.85674E-01  6.56865E-01
   9.64334E-02  2.80217E-01  2.38239E-02 -3.78322E-02  1.98424E-01 -2.48783E-01  3.60414E-01 -3.37333E-01 -2.98047E-01  2.95068E-02
  -2.93155E-01 -1.54181E-01 -1.24745E-01  3.21387E-01  2.71231E-01  7.46474E-02 -2.11701E-02  4.06046E-01  2.32749E-01 -1.10994E-01
   4.87254E-01  8.71574E-01  2.11066E-01 -1.46914E-01  8.31427E-02 -1.25221E-01  5.31054E-01  1.75082E-01 -2.62990E-01 -2.05501E-01
  -2.68906E-01 -6.20407E-02 -3.70656E-01 -9.32301E-02 -8.17658E-02  1.47342E-01  2.74189E-01  1.03543E-01  4.42977E-01  2.38943E-01
   1.52572E-01  5.83656E-01  6.22315E-01  2.70453E-01  5.06173E-01  7.35241E-01  4.47309E-01  3.62564E-01  2.51288E-01  2.96943E-01
   3.73736E-01  8.56915E-02  2.38175E-01  2.47191E-01  8.30073E-02 -1.04928E-01 -2.59739E-01  1.29039E-01 -1.07902E-01 -8.27309E-01
  -6.84801E-01 -3.64971E-01 -1.04899E+00 -8.71398E-01 -3.56134E-01 -5.15581E-01 -6.99542E-01 -1.17180E+00 -6.74751E-01 -6.31523E-01
  -6.88149E-01 -3.23351E-01 -3.11682E-01  1.99589E-01 -1.43246E-01 -3.47304E-01  1.40989E-01  2.57632E-02 -1.75614E-01  1.66538E-02
   4.56415E-01  4.52658E-01 -2.00826E-02 -7.21028E-02  5.59726E-02 -2.99556E-02  2.26781E-01  3.40242E-01  2.75224E-01  1.07446E-01
   3.63573E-01  9.67748E-01  6.94097E-01  3.00604E-01  2.47729E-01  6.35970E-01  4.86213E-01  4.06537E-01  5.73489E-01 -4.16285E-01
  -7.14621E-01 -8.60164E-01 -7.03257E-01 -3.22043E-01 -3.53899E-01 -1.50255E-01 -5.70937E-01 -4.67536E-01 -5.52702E-01 -6.31258E-01
  -4.66643E-01 -4.48944E-01 -3.00972E-01 -6.07362E-01  1.10432E-02 -2.08659E-01 -4.75783E-01 -8.40712E-02 -3.57596E-01 -2.36140E-01
  -4.40130E-01 -1.38513E-01  3.11861E-01 -2.11215E-02 -4.35230E-01 -5.55507E-02 -1.10984E-01 -9.53817E-02  2.47731E-01 -3.49065E-01
  -1.46112E-01 -5.87035E-01 -3.42591E-01  1.45743E-01  1.52601E-01 -9.66854E-02 -4.49297E-01  2.56677E-01 -1.88908E-01  8.26125E-02
  -1.43669E-01  2.71283E-02  2.09609E-01 -3.37459E-01  2.62872E-02 -2.30909E-01 -1.01358E-01 -1.46040E-01  2.72449E-01  4.94908E-02
   2.00327E-01  1.72194E-01 -1.53515E-01  3.79506E-01 -7.70593E-02  5.11615E-02  2.25745E-01  6.24687E-01  4.30479E-01  1.16396E-02
   6.01216E-01  4.95750E-01  2.07138E-01  4.63975E-01  1.77098E-01  1.10574E-01  1.20475E-01 -3.56192E-01 -1.44507E-01 -9.58628E-03
   9.31411E-02  3.67738E-01  3.57885E-02 -3.85765E-01  4.12109E-01  2.04768E-01 -5.82104E-02  5.77103E-02 -3.09473E-01 -6.31460E-02
  -2.75402E-01  2.02470E-02 -9.59712E-02 -1.04448E-01 -1.01427E-02 -5.86903E-02 -1.49000E-01 -1.73646E-01  2.07981E-01  4.71629E-02
   1.98059E-01  1.51953E-01  2.04103E-02 -3.75505E-01 -1.04003E-01  1.74719E-01  8.91120E-02  2.11757E-01 -2.42946E-02  1.45093E-01
   2.29513E-01  4.79470E-01  1.43130E-01 -1.82221E-01 -9.61756E-02 -2.17709E-01 -1.95045E-01 -1.60177E-01  3.79098E-01  1.51894E-01
  -2.71053E-01 -1.85123E-01 -3.61143E-01 -4.47723E-01 -4.34329E-01  1.36321E-02  1.75863E-01  3.40617E-01  2.97263E-01  2.65128E-01
   6.53938E-01  6.11672E-01  4.93643E-01  2.20593E-01  2.60174E-01  1.27873E-01  6.94190E-02 -4.17571E-02  3.14268E-01  3.33341E-01
  -3.46038E-02  2.08262E-01 -5.27735E-02  5.21016E-01  2.98124E-01  2.16544E-02  4.43995E-01  4.27787E-01  3.50562E-01  1.97248E-01
   6.71522E-02 -3.33697E-02  4.46529E-01  4.80490E-01  1.55347E-01 -1.74714E-01  3.42872E-01  2.51756E-01 -3.17458E-02  1.10066E-01
  -5.48499E-01 -2.05175E-01 -1.53058E-01  1.34174E-01 -1.85033E-01 -6.70933E-01  2.97160E-01 -3.75775E-01 -2.82987E-01  1.62992E-01
  -1.90903E-01  3.40915E-01  1.12260E-01  9.08275E-02 -1.82813E-01 -3.22909E-01  1.20063E-02 -1.92842E-01 -3.92394E-01 -5.62968E-01
  -1.26350E-01 -4.72024E-01 -9.62500E-01 -6.40913E-01 -1.05853E+00 -1.42430E+00 -5.41247E-01 -2.08975E-01 -2.12284E-01  6.10247E-02
  -8.69335E-02  3.96625E-02 -1.94042E-01 -1.17865E-01  1.79728E-01 -2.89973E-02  2.08185E-01  3.54282E-01  2.80147E-01  2.40367E-01
  -7.49141E-02  4.10634E-01  2.70609E-01 -1.66539E-01  8.53500E-02 -1.46105E-02  2.99658E-01  1.68629E-01  8.61654E-02 -5.42875E-02
  -6.02033E-02 -1.31058E-01  1.86762E-01  2.62711E-01 -3.19956E-01  3.20095E-01  1.13124E-01  9.36005E-02 -2.11288E-03 -4.83728E-01
  -5.34596E-02  4.80380E-01  4.40109E-01  1.22749E-01  1.90479E-01  1.70209E-01  2.40881E-01  2.47184E-01 -2.40115E-01 -3.91102E-01
   2.51645E-01 -6.54605E-03  8.95885E-02  1.00453E-01  2.64443E-01  3.40668E-01 -6.74326E-02  3.59155E-01 -2.17063E-01 -1.75078E-01
   8.92054E-02  1.12733E-01  2.12846E-03  1.43128E-01 -3.46239E-01 -1.65745E-01  3.29024E-01 -5.29404E-01  2.79683E-01 -1.50104E-01
  -4.20144E-02  3.11870E-01 -3.38645E-03 -1.13261E-02 -1.45901E-01  1.63975E-01  9.57706E-02  2.04818E-01 -1.65325E-01  1.67701E-01
  -2.81381E-02 -4.25700E-01 -4.51431E-01  2.15503E-02 -4.23862E-01 -7.60184E-01  2.00363E-01  5.71969E-02  1.54253E-01 -4.76622E-02
  -6.44172E-02 -3.73530E-01  2.18387E-01 -2.45944E-01 -2.73299E-01 -5.39725E-02 -6.26828E-01  7.94499E-01 -8.00518E-02 -2.94542E-01
  -1.33949E-02  3.04447E-01  1.42059E-01 -3.82652E-01  1.47806E-01 -7.10653E-02  1.66053E-01  2.46207E-02  2.20301E-01 -3.13633E-02
   3.31407E-01  4.76447E-01  1.22112E-01  2.11566E-01 -2.28985E-02  3.63034E-01  1.37421E-01  3.48222E-01  3.31166E-01  6.14756E-02
   3.89509E-01 -3.05530E-01 -4.92496E-01  1.46141E-01  2.28401E-02  6.52014E-02 -4.64715E-02 -1.08646E-01 -4.72953E-02 -2.89921E-01
  -7.45479E-02 -9.75349E-03  4.57794E-02 -1.10345E-01 -1.05285E-01  7.19880E-02 -3.85657E-02 -1.23142E-01 -1.59716E-01 -4.39806E-01
  -3.34748E-01  3.30219E-01 -2.90502E-01 -3.47505E-01  3.28544E-02 -1.85725E-01  2.85782E-01 -2.40818E-01 -2.37650E-01  9.03104E-02
  -2.48965E-01  2.26711E-01 -1.18050E-02 -1.82302E-02  5.82525E-01  2.87121E-01 -5.87973E-02  6.91731E-02  1.87776E-01  8.15316E-02
   2.83913E-01  4.95818E-01  5.51174E-02  2.94620E-02 -1.04793E-01  4.81245E-02  3.67508E-01 -1.30732E-02  4.84380E-02  1.45611E-01
   4.43133E-01 -8.81081E-02 -2.82353E-02  3.32873E-01  1.23158E-02 -5.75244E-02  3.14205E-01  2.81191E-01 -2.72229E-01  4.46713E-01
  -1.52184E-01 -3.82258E-02 -2.99012E-01 -4.54446E-01  1.98017E-01 -3.61071E-01 -1.08513E-01 -2.57339E-01 -9.57257E-02 -6.06881E-01
  -4.33360E-01 -3.47361E-01 -3.67901E-01 -3.25768E-01 -5.43688E-01 -3.09244E-02 -3.97697E-01  5.63743E-02 -2.92495E-02 -1.54721E-01
  -6.64211E-02 -1.40901E-01 -1.60878E-01 -3.50320E-01 -1.69725E-01  1.41746E-01  7.45396E-02 -5.04914E-01  5.52520E-02  3.74629E-01
  -2.74871E-02  8.46421E-02  1.24481E-01 -2.62532E-01 -3.08060E-02  4.01284E-01  3.73575E-01  9.52964E-02  1.92314E-01  4.71875E-01
  -6.56497E-04 -4.80682E-02 -2.50385E-02 -1.82828E-01  1.99557E-01 -5.28744E-02 -1.08303E-01  6.14634E-01  1.51602E-01  8.05833E-02
   3.54216E-01 -1.48701E-01 -3.91444E-01 -1.85778E-01  2.28995E-01 -2.26589E-02 -4.11253E-02 -1.00070E-01 -3.56275E-01 -1.98155E-01
  -2.41000E-01  1.31044E-01  3.60607E-02 -5.98300E-02  2.76293E-01 -5.82298E-02  1.21784E-01 -8.18323E-02  8.38232E-02  4.26383E-01
   2.52740E-01  1.01966E-01 -1.90274E-01 -4.84709E-02 -2.69126E-02  4.98779E-01 -2.15726E-02 -2.51870E-01 -1.98151E-01 -1.44944E-01
   5.66503E-01  9.23921E-02  3.26070E-02 -6.16059E-02 -7.17179E-02  1.71049E-02 -1.72774E-01 -2.98076E-02  2.20259E-01  2.19441E-02
  -3.19819E-01 -7.76845E-02  5.27594E-02 -3.32383E-01 -3.03329E-01 -3.02422E-01 -2.67773E-01 -2.42056E-02 -1.68488E-01  2.09948E-01
   1.84963E-02 -6.64400E-02  7.87583E-02  1.75933E-01  8.07645E-02  3.42818E-04 -1.71289E-01 -1.53789E-01  1.65566E-01 -3.41859E-01
   1.85864E-01  1.79857E-01 -1.06063E-01 -8.24330E-04  1.26589E-01 -9.88494E-02  6.65415E-02  2.96956E-01  1.37664E-02  5.82963E-03
  -2.52181E-01  4.99074E-01  1.54032E-01 -1.47568E-01 -1.96985E-01 -1.54068E-01  1.01245E-02 -1.73543E-01  1.43042E-01  1.17773E-01
   2.53372E-01  3.76307E-03  1.97555E-03 -5.86802E-02
 NY points of the fit to the data follow
   5.05060E-02  4.31633E-02  3.80404E-02  3.25108E-02  2.54812E-02  1.86027E-02  1.52361E-02  1.93277E-02  3.28129E-02  5.58419E-02
   8.78454E-02  1.28018E-01  1.74923E-01  2.26650E-01  2.79976E-01  3.28088E-01  3.61632E-01  3.71984E-01  3.55117E-01  3.14266E-01
   2.58725E-01  1.99092E-01  1.42840E-01  9.29820E-02  4.90204E-02  9.50269E-03 -2.52260E-02 -5.21771E-02 -7.15495E-02 -8.87026E-02
  -1.05041E-01 -1.21094E-01 -1.36884E-01 -1.51795E-01 -1.64675E-01 -1.73834E-01 -1.77228E-01 -1.72859E-01 -1.59017E-01 -1.34839E-01
  -1.00417E-01 -5.71754E-02 -8.02649E-03  4.28397E-02  9.03716E-02  1.29467E-01  1.55978E-01  1.67650E-01  1.64378E-01  1.47632E-01
   1.19687E-01  8.28421E-02  3.91605E-02 -1.02861E-02 -6.30701E-02 -1.17679E-01 -1.72573E-01 -2.24693E-01 -2.70562E-01 -3.06619E-01
  -3.28992E-01 -3.32676E-01 -3.14867E-01 -2.75812E-01 -2.16783E-01 -1.40894E-01 -5.40252E-02  3.68193E-02  1.23280E-01  1.95566E-01
   2.44225E-01  2.62354E-01  2.48340E-01  2.05790E-01  1.41884E-01  6.65619E-02 -1.22895E-02 -8.72820E-02 -1.46393E-01 -1.84139E-01
  -1.94170E-01 -1.68249E-01 -1.08650E-01 -2.34474E-02  7.43039E-02  1.70212E-01  2.52320E-01  3.12948E-01  3.48999E-01  3.60733E-01
   3.49469E-01  3.15705E-01  2.62211E-01  1.96143E-01  1.21331E-01  4.11135E-02 -3.70465E-02 -1.07261E-01 -1.63642E-01 -1.98622E-01
  -2.04857E-01 -1.78245E-01 -1.20256E-01 -3.89442E-02  5.31010E-02  1.42810E-01  2.20887E-01  2.83127E-01  3.29811E-01  3.63082E-01
   3.84664E-01  3.97700E-01  4.01723E-01  4.01943E-01  3.97568E-01  3.91079E-01  3.81191E-01  3.66573E-01  3.46148E-01  3.18067E-01
   2.79962E-01  2.29410E-01  1.65651E-01  8.96894E-02  5.05335E-03 -8.27852E-02 -1.70568E-01 -2.60193E-01 -3.52809E-01 -4.45569E-01
  -5.32550E-01 -6.07371E-01 -6.65303E-01 -7.06538E-01 -7.37063E-01 -7.61276E-01 -7.75287E-01 -7.70552E-01 -7.33738E-01 -6.60047E-01
  -5.59721E-01 -4.47810E-01 -3.41568E-01 -2.48143E-01 -1.69193E-01 -9.98503E-02 -3.69882E-02  1.67204E-02  5.29394E-02  8.15508E-02
   1.06335E-01  1.28938E-01  1.50417E-01  1.71638E-01  1.93462E-01  2.16866E-01  2.43234E-01  2.74913E-01  3.13616E-01  3.55433E-01
   3.93606E-01  4.22394E-01  4.37639E-01  4.35319E-01  4.11689E-01  3.63053E-01  2.84102E-01  1.71905E-01  3.22615E-02 -1.18836E-01
  -2.58477E-01 -3.65448E-01 -4.29540E-01 -4.54458E-01 -4.51948E-01 -4.34503E-01 -4.10144E-01 -3.80661E-01 -3.44989E-01 -3.05146E-01
  -2.74411E-01 -2.50985E-01 -2.31772E-01 -2.15265E-01 -2.00936E-01 -1.88207E-01 -1.76874E-01 -1.66563E-01 -1.56924E-01 -1.47747E-01
  -1.38974E-01 -1.30601E-01 -1.22499E-01 -1.14530E-01 -1.06628E-01 -9.88585E-02 -9.12539E-02 -8.39121E-02 -7.68115E-02 -6.99522E-02
  -6.33943E-02 -5.73300E-02 -5.19812E-02 -4.75503E-02 -4.41476E-02 -4.17406E-02 -4.01762E-02 -3.93172E-02 -3.91387E-02 -3.96396E-02
  -4.07372E-02 -4.21733E-02 -4.35717E-02 -4.45578E-02 -4.48772E-02 -4.42968E-02 -4.20810E-02 -3.73002E-02 -2.94266E-02 -1.82428E-02
  -3.45224E-03  1.56820E-02  3.98695E-02  6.89765E-02  1.01625E-01  1.35021E-01  1.65511E-01  1.89780E-01  2.06018E-01  2.14034E-01
   2.14052E-01  2.05702E-01  1.88263E-01  1.61832E-01  1.28453E-01  9.20237E-02  5.71126E-02  2.74656E-02  3.26627E-03 -1.72058E-02
  -3.48871E-02 -4.95866E-02 -6.06078E-02 -6.87670E-02 -7.59610E-02 -8.28338E-02 -9.00168E-02 -9.77528E-02 -1.05547E-01 -1.12953E-01
  -1.19631E-01 -1.24760E-01 -1.27151E-01 -1.25738E-01 -1.19624E-01 -1.07516E-01 -8.87350E-02 -6.40085E-02 -3.50612E-02 -4.25480E-03
   2.58811E-02  5.32146E-02  7.63112E-02  9.42379E-02  1.06601E-01  1.13459E-01  1.14903E-01  1.11235E-01  1.03206E-01  9.23252E-02
   7.73046E-02  5.80626E-02  3.53734E-02  8.50221E-03 -2.29398E-02 -5.88376E-02 -9.67991E-02 -1.34732E-01 -1.70011E-01 -1.99045E-01
  -2.18707E-01 -2.25404E-01 -2.16571E-01 -1.89777E-01 -1.44245E-01 -8.18901E-02 -7.82548E-03  6.99088E-02  1.42103E-01  2.01047E-01
   2.42732E-01  2.67174E-01  2.77598E-01  2.78180E-01  2.72831E-01  2.64325E-01  2.54166E-01  2.44364E-01  2.35664E-01  2.28159E-01
   2.22282E-01  2.17023E-01  2.11952E-01  2.06873E-01  2.01526E-01  1.95828E-01  1.89421E-01  1.82188E-01  1.73674E-01  1.63352E-01
   1.50615E-01  1.34800E-01  1.15373E-01  9.19775E-02  6.45358E-02  3.33002E-02 -9.56829E-04 -3.69324E-02 -7.26839E-02 -1.05785E-01
  -1.33588E-01 -1.53703E-01 -1.64503E-01 -1.65355E-01 -1.56875E-01 -1.40661E-01 -1.19263E-01 -9.57019E-02 -7.32620E-02 -5.48874E-02
  -4.26978E-02 -3.74766E-02 -4.04390E-02 -5.60100E-02 -8.84591E-02 -1.37864E-01 -2.02247E-01 -2.79301E-01 -3.67575E-01 -4.64965E-01
  -5.69609E-01 -6.74942E-01 -7.66465E-01 -8.24733E-01 -8.32546E-01 -7.84916E-01 -6.91655E-01 -5.75172E-01 -4.57025E-01 -3.51640E-01
  -2.63087E-01 -1.88660E-01 -1.25064E-01 -7.37357E-02 -4.25311E-02 -2.55465E-02 -1.45728E-02 -7.36329E-03 -2.88683E-03 -5.12126E-04
   3.14845E-04  1.14717E-04 -5.85749E-04 -1.26169E-03 -1.42740E-03 -7.11472E-04  1.07299E-03  3.95367E-03  7.77188E-03  1.22715E-02
   1.71451E-02  2.21653E-02  2.71053E-02  3.18467E-02  3.63148E-02  4.03963E-02  4.41664E-02  4.75794E-02  5.07597E-02  5.37208E-02
   5.65044E-02  5.91224E-02  6.16065E-02  6.39796E-02  6.62728E-02  6.85012E-02  7.06414E-02  7.26705E-02  7.45900E-02  7.63934E-02
   7.80681E-02  7.95494E-02  8.07338E-02  8.14987E-02  8.17612E-02  8.14642E-02  8.06115E-02  7.92211E-02  7.73142E-02  7.49059E-02
   7.20035E-02  6.86551E-02  6.49060E-02  6.08492E-02  5.65773E-02  5.21923E-02  4.77769E-02  4.33982E-02  3.91178E-02  3.49824E-02
   3.10265E-02  2.72844E-02  2.37769E-02  2.05092E-02  1.74819E-02  1.46851E-02  1.20935E-02  9.71985E-03  7.59374E-03  5.75789E-03
   4.24308E-03  3.10380E-03  2.39270E-03  2.12978E-03  2.33055E-03  2.99224E-03  4.09496E-03  5.60948E-03  7.49511E-03  9.69310E-03
   1.21442E-02  1.48043E-02  1.76717E-02  2.07869E-02  2.42269E-02  2.80902E-02  3.24345E-02  3.72646E-02  4.25723E-02  4.83434E-02
   5.45703E-02  6.12362E-02  6.83013E-02  7.56374E-02  8.30761E-02  9.04386E-02  9.75466E-02  1.04228E-01  1.10293E-01  1.15546E-01
   1.19809E-01  1.22966E-01  1.24960E-01  1.25792E-01  1.25475E-01  1.24041E-01  1.21516E-01  1.17955E-01  1.13472E-01  1.08217E-01
   1.02375E-01  9.61384E-02  8.96820E-02  8.31425E-02  7.66428E-02  7.02929E-02  6.41881E-02  5.84354E-02  5.31045E-02  4.82474E-02
   4.39016E-02  4.01114E-02  3.69257E-02  3.43959E-02  3.25741E-02  3.14892E-02  3.11454E-02  3.15063E-02  3.25278E-02  3.41025E-02
   3.61297E-02  3.85134E-02  4.11563E-02  4.39435E-02  4.67461E-02  4.94354E-02  5.19146E-02  5.41304E-02  5.60554E-02  5.76632E-02
   5.89323E-02  5.98208E-02  6.02757E-02  6.02627E-02  5.97940E-02  5.89055E-02  5.76418E-02  5.60636E-02  5.42227E-02  5.21664E-02
   4.99396E-02  4.75986E-02  4.51826E-02  4.27055E-02  4.01856E-02  3.76370E-02  3.50654E-02  3.24858E-02  2.98782E-02  2.72114E-02
   2.44439E-02  2.14980E-02  1.82700E-02  1.46357E-02  1.04882E-02  5.73564E-03  3.01568E-04 -5.88185E-03 -1.28687E-02 -2.06980E-02
  -2.93762E-02 -3.88564E-02 -4.90313E-02 -5.97046E-02 -7.06114E-02 -8.14710E-02 -9.20213E-02 -1.02014E-01 -1.11212E-01 -1.19391E-01
  -1.26352E-01 -1.31944E-01 -1.36090E-01 -1.38789E-01 -1.40109E-01 -1.40139E-01 -1.39016E-01 -1.36895E-01 -1.33933E-01 -1.30276E-01
  -1.26054E-01 -1.21351E-01 -1.16228E-01 -1.10695E-01 -1.04759E-01 -9.84752E-02 -9.19352E-02 -8.52200E-02 -7.84024E-02 -7.15579E-02
  -6.47694E-02 -5.81104E-02 -5.16454E-02 -4.54327E-02 -3.95133E-02 -3.39157E-02 -2.86760E-02 -2.37999E-02 -1.92989E-02 -1.51784E-02
  -1.14468E-02 -8.10687E-03 -5.13228E-03 -2.51058E-03 -2.03081E-04  1.82496E-03  3.60699E-03  5.17437E-03  6.57434E-03  7.85988E-03
   9.07602E-03  1.02258E-02  1.13298E-02  1.24008E-02  1.34058E-02  1.43088E-02  1.50705E-02  1.56635E-02  1.60903E-02  1.63837E-02
   1.65786E-02  1.66884E-02  1.67243E-02  1.67018E-02  1.66256E-02  1.65111E-02  1.63772E-02  1.62214E-02  1.60272E-02  1.57677E-02
   1.54198E-02  1.49743E-02  1.44706E-02  1.39708E-02  1.35108E-02  1.31047E-02  1.27400E-02  1.23818E-02  1.20300E-02  1.17159E-02
   1.14878E-02  1.13966E-02  1.14447E-02  1.15983E-02  1.18320E-02  1.21196E-02  1.24191E-02  1.27025E-02  1.29578E-02  1.31825E-02
   1.33505E-02  1.34357E-02  1.34380E-02  1.33787E-02  1.33151E-02  1.32973E-02  1.33752E-02  1.35666E-02  1.38558E-02  1.42046E-02
   1.45771E-02  1.49644E-02  1.53757E-02  1.57938E-02  1.61711E-02  1.64266E-02  1.65251E-02  1.64650E-02  1.62849E-02  1.60408E-02
   1.57809E-02  1.55198E-02  1.52453E-02  1.49344E-02  1.46195E-02  1.43420E-02  1.41118E-02  1.39403E-02  1.38096E-02  1.37170E-02
   1.36886E-02  1.37412E-02  1.38869E-02  1.41178E-02  1.44393E-02  1.48675E-02  1.54307E-02  1.61517E-02  1.70317E-02  1.80311E-02
   1.90953E-02  2.01946E-02  2.12947E-02  2.23874E-02
 NY background values follow
     7.851E-02    7.831E-02    7.811E-02    7.792E-02    7.772E-02    7.752E-02    7.732E-02    7.713E-02    7.693E-02    7.673E-02
     7.653E-02    7.633E-02    7.614E-02    7.594E-02    7.574E-02    7.554E-02    7.535E-02    7.515E-02    7.495E-02    7.475E-02
     7.455E-02    7.436E-02    7.416E-02    7.396E-02    7.376E-02    7.356E-02    7.337E-02    7.317E-02    7.297E-02    7.277E-02
     7.257E-02    7.238E-02    7.218E-02    7.198E-02    7.178E-02    7.158E-02    7.139E-02    7.119E-02    7.099E-02    7.079E-02
     7.059E-02    7.040E-02    7.020E-02    7.000E-02    6.980E-02    6.960E-02    6.941E-02    6.921E-02    6.901E-02    6.881E-02
     6.861E-02    6.841E-02    6.822E-02    6.802E-02    6.782E-02    6.762E-02    6.742E-02    6.722E-02    6.703E-02    6.683E-02
     6.663E-02    6.643E-02    6.623E-02    6.604E-02    6.584E-02    6.564E-02    6.544E-02    6.524E-02    6.504E-02    6.484E-02
