 
 $NMID
 ID=''
 FMTDAT='(2E13.5)'
 TRAMP=   1.00000E+0
 VOLUME=   1.00000E+0
 $END
  -1.09497E+4  -7.12690E+3
  -2.07174E+4  -2.76889E+4
  -2.23146E+4  -2.58493E+4
  -1.76033E+4  -2.63592E+4
  -1.49151E+4  -2.94897E+4
  -1.26767E+4  -2.95222E+4
  -8.19883E+3  -2.98731E+4
  -4.73643E+3  -3.08776E+4
  -1.84497E+3  -3.01950E+4
   2.20872E+3  -2.93988E+4
   5.41235E+3  -2.88644E+4
   7.97626E+3  -2.71944E+4
   1.11865E+4  -2.54589E+4
   1.39406E+4  -2.39082E+4
   1.59626E+4  -2.13934E+4
   1.83583E+4  -1.87910E+4
   2.00875E+4  -1.64765E+4
   2.11861E+4  -1.36024E+4
   2.24350E+4  -1.06156E+4
   2.32331E+4  -7.83018E+3
   2.33692E+4  -4.70596E+3
   2.34843E+4  -1.71332E+3
   2.31188E+4   1.12378E+3
   2.22591E+4   4.14833E+3
   2.12749E+4   6.93339E+3
   2.00212E+4   9.34993E+3
   1.82696E+4   1.18378E+4
   1.64402E+4   1.40417E+4
   1.44126E+4   1.58445E+4
   1.19018E+4   1.74841E+4
   9.57547E+3   1.87403E+4
   7.23423E+3   1.97732E+4
   4.41962E+3   2.05581E+4
   1.85553E+3   2.09464E+4
  -8.13780E+2   2.09751E+4
  -3.54527E+3   2.07923E+4
  -5.91676E+3   2.02505E+4
  -8.42673E+3   1.93633E+4
  -1.07685E+4   1.82957E+4
  -1.28955E+4   1.70741E+4
  -1.48779E+4   1.54629E+4
  -1.67317E+4   1.36652E+4
  -1.82273E+4   1.15880E+4
  -1.95051E+4   9.50609E+3
  -2.05500E+4   7.34034E+3
  -2.13202E+4   5.05288E+3
  -2.18602E+4   2.64649E+3
  -2.21844E+4   2.02365E+2
  -2.20616E+4  -2.20997E+3
  -2.18650E+4  -4.62990E+3
  -2.12436E+4  -6.93351E+3
  -2.03787E+4  -9.17719E+3
  -1.94039E+4  -1.12297E+4
  -1.80887E+4  -1.31234E+4
  -1.65850E+4  -1.49800E+4
  -1.50262E+4  -1.65353E+4
  -1.32653E+4  -1.79649E+4
  -1.12765E+4  -1.91297E+4
  -9.25027E+3  -2.01191E+4
  -7.21218E+3  -2.07846E+4
  -5.03452E+3  -2.11992E+4
  -2.92950E+3  -2.14658E+4
  -8.22251E+2  -2.14587E+4
   1.30117E+3  -2.13095E+4
   3.31648E+3  -2.08687E+4
   5.30535E+3  -2.02163E+4
   7.11609E+3  -1.94134E+4
   8.89832E+3  -1.83115E+4
   1.04922E+4  -1.70898E+4
   1.19250E+4  -1.57434E+4
   1.31987E+4  -1.43356E+4
   1.42745E+4  -1.27096E+4
   1.50722E+4  -1.11036E+4
   1.58562E+4  -9.32492E+3
   1.63890E+4  -7.62413E+3
   1.67550E+4  -5.87603E+3
   1.67668E+4  -4.07446E+3
   1.67445E+4  -2.43980E+3
   1.66013E+4  -6.95066E+2
   1.62299E+4   8.78534E+2
   1.56554E+4   2.44979E+3
   1.50118E+4   4.02123E+3
   1.41969E+4   5.37433E+3
   1.32239E+4   6.70965E+3
   1.22319E+4   7.83188E+3
   1.11194E+4   8.94183E+3
   9.88297E+3   9.79192E+3
   8.55897E+3   1.05192E+4
   7.32599E+3   1.10548E+4
   6.09322E+3   1.15743E+4
   4.67373E+3   1.19858E+4
   3.48052E+3   1.21015E+4
   2.19054E+3   1.21860E+4
   8.46149E+2   1.21827E+4
  -3.45472E+2   1.20206E+4
  -1.57588E+3   1.17203E+4
  -2.71789E+3   1.13106E+4
  -3.68107E+3   1.09218E+4
  -4.69423E+3   1.04173E+4
  -5.56342E+3   9.80409E+3
  -6.35904E+3   9.17914E+3
  -6.99575E+3   8.40407E+3
  -7.56408E+3   7.64748E+3
  -8.18743E+3   6.88938E+3
  -8.58186E+3   6.06221E+3
  -8.87370E+3   5.30527E+3
  -9.20522E+3   4.53081E+3
  -9.32672E+3   3.70112E+3
  -9.43656E+3   2.90371E+3
  -9.48257E+3   2.21867E+3
  -9.32141E+3   1.56883E+3
  -9.24346E+3   9.22332E+2
  -9.08115E+3   2.51828E+2
  -8.82474E+3  -2.82848E+2
  -8.59767E+3  -7.02822E+2
  -8.38487E+3  -1.18340E+3
  -7.99080E+3  -1.64249E+3
  -7.62282E+3  -1.89728E+3
  -7.32317E+3  -2.22714E+3
  -6.99534E+3  -2.45031E+3
  -6.66439E+3  -2.63926E+3
  -6.34956E+3  -2.74265E+3
  -5.91457E+3  -2.90214E+3
  -5.64520E+3  -2.93736E+3
  -5.32099E+3  -2.96416E+3
  -5.04493E+3  -2.82801E+3
  -4.79340E+3  -2.78264E+3
  -4.56549E+3  -2.71063E+3
  -4.45319E+3  -2.59004E+3
  -4.25628E+3  -2.50352E+3
  -4.04155E+3  -2.33178E+3
  -3.98780E+3  -2.19825E+3
  -3.92511E+3  -2.06873E+3
  -3.88206E+3  -1.95786E+3
  -3.94346E+3  -1.76520E+3
  -3.91746E+3  -1.62848E+3
  -3.92228E+3  -1.56739E+3
  -3.90487E+3  -1.38952E+3
  -4.06907E+3  -1.28937E+3
  -4.11968E+3  -1.25492E+3
  -4.20866E+3  -1.18061E+3
  -4.28114E+3  -1.12382E+3
  -4.44499E+3  -1.13604E+3
  -4.53414E+3  -1.14045E+3
  -4.58552E+3  -1.13840E+3
  -4.70216E+3  -1.18977E+3
  -4.74713E+3  -1.25263E+3
  -4.81650E+3  -1.37502E+3
  -4.89634E+3  -1.43847E+3
  -5.01878E+3  -1.50589E+3
  -4.94960E+3  -1.62659E+3
  -4.91907E+3  -1.67050E+3
  -4.94668E+3  -1.90262E+3
  -4.91906E+3  -1.92361E+3
  -4.81795E+3  -2.11233E+3
  -4.82238E+3  -2.20541E+3
  -4.69916E+3  -2.31242E+3
  -4.68353E+3  -2.41261E+3
  -4.55481E+3  -2.55476E+3
  -4.43512E+3  -2.55276E+3
  -4.27117E+3  -2.66170E+3
  -4.09819E+3  -2.72855E+3
  -3.94844E+3  -2.75383E+3
  -3.84646E+3  -2.75162E+3
  -3.70278E+3  -2.81300E+3
  -3.46223E+3  -2.72846E+3
  -3.38835E+3  -2.78401E+3
  -3.14927E+3  -2.63076E+3
  -3.03884E+3  -2.64516E+3
  -2.84527E+3  -2.59328E+3
  -2.69064E+3  -2.39788E+3
  -2.59881E+3  -2.41120E+3
  -2.49732E+3  -2.23723E+3
  -2.35956E+3  -2.09875E+3
  -2.19716E+3  -1.96544E+3
  -2.14144E+3  -1.90656E+3
  -2.15649E+3  -1.75172E+3
  -2.06471E+3  -1.61249E+3
  -2.03809E+3  -1.41316E+3
  -2.10059E+3  -1.35785E+3
  -1.98503E+3  -1.16274E+3
  -2.00878E+3  -1.06752E+3
  -2.07378E+3  -9.48436E+2
  -2.08829E+3  -7.50586E+2
  -2.02829E+3  -7.32769E+2
  -2.13314E+3  -6.67220E+2
  -2.16389E+3  -5.84253E+2
  -2.20974E+3  -5.17440E+2
  -2.23628E+3  -4.29170E+2
  -2.41622E+3  -3.50591E+2
  -2.42601E+3  -3.67662E+2
  -2.48654E+3  -3.01927E+2
  -2.60714E+3  -2.12451E+2
  -2.59898E+3  -2.49969E+2
  -2.69192E+3  -2.79762E+2
  -2.74095E+3  -3.54402E+2
  -2.78314E+3  -3.11104E+2
  -2.81324E+3  -3.45242E+2
  -2.86120E+3  -3.85190E+2
  -2.88028E+3  -4.03365E+2
  -2.84833E+3  -4.85330E+2
  -2.91546E+3  -6.22660E+2
  -2.93103E+3  -5.86473E+2
  -2.86933E+3  -5.48464E+2
  -2.86049E+3  -7.04235E+2
  -2.82384E+3  -7.75869E+2
  -2.81217E+3  -8.62007E+2
  -2.73522E+3  -8.13220E+2
  -2.66822E+3  -8.81445E+2
  -2.66730E+3  -9.49814E+2
  -2.57286E+3  -9.64860E+2
  -2.42844E+3  -9.93890E+2
  -2.42466E+3  -9.87580E+2
  -2.28768E+3  -1.00943E+3
  -2.26753E+3  -1.01141E+3
  -2.11105E+3  -1.01281E+3
  -2.11071E+3  -1.00110E+3
  -1.97460E+3  -1.00306E+3
  -1.91345E+3  -9.12877E+2
  -1.79330E+3  -8.78752E+2
  -1.71138E+3  -9.10182E+2
  -1.61847E+3  -7.97618E+2
  -1.60142E+3  -8.55208E+2
  -1.50861E+3  -7.68224E+2
  -1.38464E+3  -7.31052E+2
  -1.33374E+3  -6.03059E+2
  -1.39258E+3  -5.73855E+2
  -1.33714E+3  -5.20581E+2
  -1.28653E+3  -4.57406E+2
  -1.24329E+3  -4.33671E+2
  -1.17321E+3  -4.01886E+2
  -1.17093E+3  -2.83784E+2
  -1.14746E+3  -2.46232E+2
  -1.14738E+3  -1.65930E+2
  -1.14245E+3  -1.12233E+2
  -1.14418E+3  -8.39853E+1
  -1.17378E+3  -5.87358E+1
  -1.17896E+3   3.90486E+1
  -1.18439E+3   5.45953E+1
  -1.12561E+3   9.91725E+0
  -1.26622E+3   1.29522E+2
  -1.27740E+3   1.17274E+2
  -1.23989E+3   1.77873E+2
  -1.31254E+3   1.25310E+2
  -1.24919E+3   1.37792E+2
  -1.29269E+3   1.68179E+2
  -1.31312E+3   1.91488E+2
  -1.31885E+3   1.52003E+2
  -1.30319E+3   1.44175E+2
  -1.28020E+3   1.29090E+2
  -1.32221E+3   1.73952E+2
  -1.34919E+3   6.13673E+1
  -1.35138E+3   4.95669E+1
  -1.29922E+3   9.07904E+0
  -1.30220E+3  -4.73727E+1
  -1.25139E+3   1.35399E+1
  -1.17307E+3  -5.55667E+0
  -1.19940E+3  -8.60306E+1
  -1.19225E+3  -5.98516E+1
  -1.19043E+3  -9.05267E+1
  -1.08807E+3  -8.73594E+1
  -1.08496E+3  -1.05816E+2
  -1.00843E+3  -1.43234E+2
  -9.73245E+2  -1.82258E+2
  -9.22944E+2  -2.19690E+2
  -9.52064E+2  -1.70854E+2
  -8.73632E+2  -1.90544E+2
  -7.96116E+2  -2.17697E+2
  -8.35164E+2  -1.37895E+2
  -7.09329E+2  -1.03556E+2
  -6.97132E+2  -1.08449E+2
  -5.61573E+2  -5.43825E+1
  -6.41909E+2  -1.26124E+2
  -6.02397E+2  -8.98406E+1
  -6.03651E+2  -8.50989E+1
  -5.62475E+2  -5.41212E+1
  -5.37559E+2  -1.84284E+0
  -4.61525E+2   4.01873E+1
  -4.63440E+2   7.62869E+1
  -4.81800E+2   1.24692E+2
  -4.42479E+2   1.32719E+2
  -3.67558E+2   1.53662E+2
  -3.91017E+2   1.79692E+2
  -4.39446E+2   1.79704E+2
  -3.68727E+2   1.30739E+2
  -3.88212E+2   2.36326E+2
  -3.95124E+2   2.58069E+2
  -4.07966E+2   2.63631E+2
  -4.38515E+2   3.08306E+2
  -4.61485E+2   2.62244E+2
  -4.29197E+2   2.60743E+2
  -4.35859E+2   3.13397E+2
  -4.14097E+2   2.82951E+2
  -4.81245E+2   2.88687E+2
  -4.73625E+2   3.46243E+2
  -4.69827E+2   3.31044E+2
  -5.29657E+2   3.16057E+2
  -5.16320E+2   3.39023E+2
  -5.01961E+2   3.61733E+2
  -5.24767E+2   2.85502E+2
  -5.97377E+2   2.87219E+2
  -6.22577E+2   3.09918E+2
  -5.95599E+2   2.44648E+2
  -5.54646E+2   3.02050E+2
  -5.94083E+2   3.05692E+2
  -5.22494E+2   2.61311E+2
  -5.93016E+2   1.82081E+2
  -5.28387E+2   2.09031E+2
  -5.29901E+2   1.83601E+2
  -5.03435E+2   1.69008E+2
  -5.45323E+2   1.62736E+2
  -5.77381E+2   1.65831E+2
  -5.20502E+2   1.55632E+2
  -4.61679E+2   1.09984E+2
  -4.84531E+2   1.87368E+2
  -5.21931E+2   1.49034E+2
  -4.38763E+2   1.38827E+2
  -4.83903E+2   1.10045E+2
  -4.22701E+2   1.67479E+2
  -4.79043E+2   2.39676E+1
  -3.73591E+2   1.21545E+2
  -4.18319E+2   1.15955E+2
  -3.69416E+2   1.38438E+2
  -3.94468E+2   1.75438E+2
  -3.95967E+2   8.08772E+1
  -3.71325E+2   1.54673E+2
  -4.25669E+2   1.94092E+2
  -3.87319E+2   1.71718E+2
  -3.80130E+2   1.73066E+2
  -3.67548E+2   1.76108E+2
  -2.86912E+2   1.93099E+2
  -3.08233E+2   2.05896E+2
  -3.00808E+2   1.84210E+2
  -3.18711E+2   1.93723E+2
  -3.10690E+2   2.09149E+2
  -3.15875E+2   1.46417E+2
  -3.37975E+2   1.80928E+2
  -3.65203E+2   2.76811E+2
  -2.74016E+2   2.43253E+2
  -3.00447E+2   3.03193E+2
  -3.12955E+2   2.33460E+2
  -3.67090E+2   2.67000E+2
  -3.01220E+2   2.04358E+2
  -3.40553E+2   2.75641E+2
  -2.79504E+2   2.49221E+2
  -2.78572E+2   2.09437E+2
  -3.20491E+2   2.21006E+2
  -3.20345E+2   2.93674E+2
  -3.23717E+2   2.92198E+2
  -3.51117E+2   2.52147E+2
  -2.75095E+2   2.17945E+2
  -3.01689E+2   2.39114E+2
  -3.16997E+2   2.32119E+2
  -3.43913E+2   2.10851E+2
  -3.38508E+2   2.04015E+2
  -3.29138E+2   2.42212E+2
  -3.22020E+2   1.96104E+2
  -3.41825E+2   1.90868E+2
  -3.82398E+2   1.92389E+2
  -2.45047E+2   2.54351E+2
  -2.84725E+2   2.78166E+2
  -3.19629E+2   1.98362E+2
  -2.48499E+2   2.12077E+2
  -2.37800E+2   2.23286E+2
  -2.39330E+2   1.84125E+2
  -2.60157E+2   1.89810E+2
  -2.98202E+2   2.42750E+2
