 
 $NMID
 ID=''
 FMTDAT='(2E13.5)'
 TRAMP=   1.00000E+0
 VOLUME=   1.00000E+0
 $END
   1.94783E+1  -1.32482E+2
  -3.47720E+2   1.26146E+3
   1.74036E+3  -1.22883E+3
   1.24550E+3   8.99466E+2
   3.79532E+2   6.89645E+2
   5.35535E+2  -2.73109E+2
  -3.62828E+2  -8.28694E+2
  -3.42352E+3  -2.16305E+2
   1.79792E+3  -1.82187E+3
   2.67852E+3  -4.29741E+2
   2.30356E+3   2.24200E+3
   3.34251E+3   4.37904E+3
  -1.07280E+3   2.92579E+3
  -1.17946E+3  -4.26221E+3
   2.22781E+3  -2.56947E+3
   4.86036E+3  -3.52691E+3
   1.15232E+3  -1.10632E+3
   4.83563E+2   2.83862E+2
  -1.37224E+3  -2.43596E+3
  -5.36261E+2  -3.62565E+3
   1.69953E+2  -1.05304E+3
  -6.88466E+2   2.22054E+3
  -5.40263E+3   2.62143E+2
  -9.52535E+2  -2.41859E+3
   1.49561E+3  -1.39994E+3
   2.78951E+1   3.78260E+3
  -3.45111E+3   1.32199E+3
  -9.04019E+2  -4.24688E+3
   3.69640E+3  -4.25722E+3
   4.92446E+3  -1.06043E+3
   1.05789E+3   6.14622E+3
  -5.33347E+3   7.42212E+2
  -6.95239E+3  -2.85734E+3
  -1.82979E+3  -1.16426E+3
  -7.55858E+2  -1.04201E+3
  -2.76833E+3  -1.70629E+3
   2.14694E+3  -2.96855E+3
   1.34544E+3   4.52619E+3
  -3.78507E+2   2.61478E+3
   2.62355E+2   2.20788E+3
  -1.94826E+3   3.14338E+3
  -1.61458E+3  -2.51384E+3
   1.90005E+3  -3.01661E+3
   4.19377E+3  -1.38698E+3
   3.80754E+3   1.33715E+3
   9.56789E+1   1.63436E+3
   3.32309E+2   9.82853E+2
  -3.38019E+3   5.74927E+2
  -3.88139E+3   2.83283E+2
  -4.33521E+3   4.36913E+2
  -3.09090E+3  -1.44144E+3
   1.01604E+3  -9.12989E+2
   3.38451E+3   1.33619E+3
   2.89530E+3   4.71237E+3
   2.41904E+1   5.58192E+2
  -2.89408E+3   2.06040E+3
  -4.57228E+3   1.92207E+3
  -3.99027E+3  -3.23140E+3
   1.24678E+3  -4.54577E+3
   3.36902E+3  -2.61926E+3
   2.60804E+3   6.02625E+2
   2.62103E+3   3.06338E+3
  -3.09766E+3   3.08931E+3
  -4.47589E+3  -1.83985E+3
   2.14892E+3   2.51838E+2
   1.61716E+3   3.98522E+3
  -3.78079E+3   3.21332E+3
  -4.42589E+3   1.11682E+3
  -3.21962E+2  -8.07194E+2
  -1.59170E+2  -3.42549E+2
  -2.92830E+3   2.12792E+2
  -2.24853E+3  -1.34563E+3
   4.38704E+2  -5.92366E+2
  -1.06677E+3  -3.33228E+2
   1.59134E+3  -9.90584E+1
   1.34965E+3  -4.24316E+2
  -3.92698E+2  -1.85940E+2
   1.15987E+3  -7.60631E+2
   3.10572E+3   9.76915E+2
   1.56487E+3   2.20771E+3
  -2.61594E+2   2.00558E+3
  -5.36590E+2  -3.42366E+2
   1.57914E+3   2.72386E+3
   6.08140E+2   2.70632E+3
  -2.59206E+3   1.40307E+3
  -3.46802E+3  -2.49618E+3
   2.15314E+3  -3.60909E+3
   3.49957E+3  -1.68681E+3
   2.49261E+3   1.17636E+3
  -3.96566E+2   2.73934E+3
   1.35770E+3   2.23913E+3
   7.04752E+2  -7.69485E+2
  -2.01259E+3   2.62034E+3
  -3.17624E+3   1.31600E+3
  -2.11741E+3  -2.32524E+3
   2.18486E+3  -3.45106E+3
   1.18015E+3   2.86531E+3
   1.63879E+3   4.29260E+3
  -4.18670E+3   1.49541E+3
  -1.59200E+3  -4.22518E+3
   4.11233E+3  -5.52182E+3
   2.04365E+3   1.00159E+3
  -4.96851E+2   2.92749E+3
  -2.88151E+3   1.95678E+3
  -6.69668E+2  -6.01367E+2
   4.24250E+2   2.50618E+2
   1.67594E+3   2.52526E+2
   2.13534E+2  -4.63883E+2
   2.80628E+2  -2.79358E+3
   2.33893E+3  -3.52336E+3
   4.97426E+3   8.33388E+2
   8.58436E+2   2.55031E+3
   5.45350E+2   2.64947E+3
   7.45020E+2   1.86106E+3
  -3.31489E+3   9.20869E+2
  -2.41148E+3  -7.89054E+2
  -1.58137E+2  -2.53502E+3
   9.61668E+2  -2.29767E+3
   1.11221E+3  -8.89773E+2
   1.56687E+3   9.14677E+2
   7.74694E+2   4.66249E+2
  -1.11656E+3   2.58169E+2
   2.04315E+3  -5.39146E+3
  -7.29469E+1  -4.66630E+3
   1.31351E+3   1.00179E+3
   1.52138E+3  -1.37213E+2
   2.01120E+3  -2.01007E+3
   2.30918E+3   3.50612E+2
   9.60186E+2   1.10126E+3
   8.58645E+1   3.70797E+2
  -2.70530E+2  -1.51810E+3
   2.53589E+3  -5.57930E+2
   3.63194E+3   5.56204E+1
  -5.19639E+2   3.45501E+3
  -2.99702E+3   2.34383E+3
  -6.15547E+2  -9.26195E+2
   1.30290E+3   2.05876E+2
  -6.03863E+2   1.03703E+0
  -1.14463E+3  -1.03016E+2
   4.33130E+2   6.03150E+2
   1.95699E+3   6.60636E+2
   3.46400E+3  -3.28791E+2
   3.59053E+2   2.06837E+3
   4.34706E+2   1.95082E+3
  -1.45179E+3  -1.65185E+2
   1.10385E+3   4.77257E+2
   1.54776E+1  -1.31660E+3
  -1.17401E+3  -1.45710E+2
   4.66656E+2  -2.43708E+2
  -5.76419E+2   1.68172E+3
  -2.30065E+3   1.05541E+3
  -4.16595E+2   5.82943E+2
   1.28010E+2  -1.68989E+3
   1.81450E+3  -4.41736E+2
   6.13280E+2   2.98771E+2
  -8.24667E+2   1.12270E+3
  -5.93782E+2  -2.84144E+2
  -1.75501E+3  -1.53214E+2
  -9.72303E+1  -1.13643E+3
   9.48307E+2   4.48394E+2
   9.07275E+2  -6.41962E+2
   5.66957E+2  -1.09282E+3
   1.95799E+3  -2.89077E+3
   1.79626E+3  -4.68706E+2
  -7.42576E+2   5.97311E+2
   4.99757E+2   1.55174E+3
  -2.52381E+2  -3.58033E+2
   1.90390E+3  -1.42213E+3
   2.84604E+3   1.26384E+3
  -1.49735E+3   2.46185E+3
  -3.81091E+3   1.13767E+3
  -2.58192E+3   5.20768E+2
  -2.47329E+2  -6.79566E+2
   3.80148E+2  -1.68749E+2
   2.10239E+2   4.36197E+2
  -1.15725E+3  -1.82572E+3
  -2.45987E+2  -2.23407E+1
   1.00326E+3   1.10671E+3
  -7.40015E+2   5.24874E+2
  -1.52557E+3   4.38496E+2
  -7.16710E+2  -2.84678E+3
  -1.39707E+2  -3.73984E+2
   1.32833E+3  -1.45250E+3
   6.75615E+2  -1.48295E+3
   2.32818E+2  -2.87587E+3
   9.60650E+2  -6.62007E+1
  -1.23216E+3   1.14956E+3
  -2.80441E+3  -1.16424E+3
  -2.46327E+3   2.11402E+2
   8.05575E+2  -2.17446E+3
   1.89754E+3   1.25860E+3
   1.30498E+3   1.92238E+3
  -5.87946E+2   7.25612E+2
   5.93194E+2   1.81007E+2
   1.81761E+2  -1.03227E+3
  -1.16465E+2   8.67025E+2
   2.22361E+2   5.55138E+2
  -6.52007E+2  -4.85915E+2
   2.96007E+2  -1.16563E+3
   2.26777E+3   1.02825E+3
  -1.97796E+3   1.07271E+3
  -2.78858E+3   4.77135E+2
  -1.57916E+3  -2.48487E+3
   5.94730E+2  -1.26022E+3
   1.91665E+3   1.43161E+3
  -5.56805E+2  -5.97445E+2
  -1.86970E+0   3.82400E+2
  -2.14840E+2  -1.24050E+3
   1.24981E+3  -7.20290E+2
   1.05060E+3   1.32065E+3
  -3.94773E+2  -5.07821E+2
  -1.49868E+3  -1.14372E+3
   1.08590E+3  -1.95811E+3
   6.56031E+2   1.22223E+3
   1.30262E+3   2.93976E+3
  -2.57732E+3   3.32174E+2
   6.06638E+2   4.95802E+1
   1.11521E+3  -3.24491E+3
  -7.15078E+2  -8.02730E+2
  -4.72568E+2  -1.73079E+3
  -1.73285E+2  -8.73682E+2
  -6.78636E+2  -3.84421E+2
   3.54865E+2  -4.29013E+2
  -3.73154E+2   1.04316E+3
   6.51928E+2  -1.08091E+3
   2.10233E+3  -1.82236E+2
   5.12763E+2   7.79822E+2
   1.00751E+3   4.94265E+2
  -6.73584E+2   2.57251E+3
  -9.92333E+2  -1.69562E+3
  -1.37583E+3   8.92918E+1
  -5.71174E+2   5.01327E+2
   2.08424E+2   7.34425E+2
   4.92558E+2  -1.43094E+3
   1.09947E+3  -1.47496E+3
   1.03557E+3   7.79238E+2
   1.72418E+2   1.48421E+2
  -7.88304E+2   2.40042E+3
  -7.14988E+2  -2.36197E+3
   2.12185E+2  -1.14708E+3
   1.50130E+3   6.43134E+1
   1.52070E+3  -2.28847E+3
   8.40082E+2   1.34848E+3
  -5.32166E+2  -2.38604E+3
   4.17516E+2  -1.00314E+3
   9.87669E+2   5.15450E+2
   4.81074E+2  -1.01336E+3
  -5.29896E+2  -1.16565E+3
   2.20990E+3  -4.78292E+2
   7.11771E+2   2.04061E+3
  -2.04223E+3   1.85242E+3
   2.02367E+2  -2.47625E+2
  -1.89873E+2  -5.85212E+2
   4.55842E+1  -6.47650E+2
  -1.16977E+3  -1.16912E+3
  -5.45354E+2   7.76612E+2
   8.22690E+2  -3.55970E+2
   1.79863E+3  -3.76841E+2
  -6.65620E+2   7.07505E+2
   4.24995E-2  -2.39657E+2
  -3.76594E+2   9.49785E+1
   8.80968E+2  -1.66363E+3
   8.77449E+2  -6.08156E+2
  -4.91343E+2   2.14468E+3
  -1.53420E+3   9.57710E+2
   4.68994E+2   2.88785E+2
  -1.05564E+3   5.04469E+2
  -4.94092E+2  -1.26855E+3
  -3.55025E+2   4.93124E+1
   1.77254E+3  -1.41707E+3
   1.76513E+3  -6.10469E+1
   2.42058E+3   1.15001E+3
  -3.01031E+3   9.21748E+2
  -2.17926E+3  -1.61429E+3
  -1.07899E+3  -7.52226E+2
   1.13367E+3  -1.16344E+3
  -1.03755E+3   2.79334E+3
   4.45785E+1  -8.66845E+1
   4.89865E+2   4.49244E+2
  -2.11984E+0  -2.53107E+2
  -2.12803E+3   1.69633E+3
  -1.98378E+3   1.52730E+2
  -2.38689E+3  -1.32028E+2
  -1.03412E+3  -2.30104E+3
   1.06451E+3  -2.93620E+2
   1.59635E+3   2.48166E+2
  -2.03235E+2  -1.47889E+3
   2.54039E+2  -1.24658E+2
   9.86810E+2  -1.98045E+3
   1.00801E+3   3.19889E+2
   1.42837E+2  -5.00681E+2
  -4.41060E+2   2.33366E+2
   1.79409E+3  -2.60338E+3
   1.10227E+3   1.94671E+3
  -1.48484E+3   2.06143E+3
  -1.59299E+3   7.92900E+1
  -1.09073E+3   9.42553E+1
  -3.86589E+2  -2.31810E+3
   4.57010E+2   1.33701E+3
   1.54971E+2   3.72004E+2
  -1.93098E+3   6.85585E+1
  -1.21126E+2   1.30610E+2
   8.06660E+2   1.11002E+3
  -6.01428E+2   1.31452E+2
  -1.67810E+3  -5.95756E+2
  -7.05527E+2  -5.92318E+2
   1.23049E+3   6.09252E+2
  -3.51014E+2   1.25241E+3
  -1.33981E+3   2.80313E+2
  -2.17960E+2   9.58967E+2
  -2.51043E+3  -1.07843E+3
  -6.76641E+2  -1.77661E+3
  -1.33558E+2   6.18929E+2
  -1.35154E+3  -1.82963E+3
   1.02568E+3   1.30866E+3
  -1.19924E+3   2.39712E+3
   9.16285E+2  -1.62245E+2
  -1.72574E+2   1.34419E+3
  -2.03723E+3   6.64092E+2
  -9.56313E+2   1.21610E+3
   1.90759E+3   6.32225E+2
   1.75381E+3  -4.27047E+2
   1.05146E+2   7.16014E+2
  -5.72323E+2  -4.31702E+1
  -1.41365E+2   8.09062E+2
  -1.07817E+3   1.01168E+3
  -2.82334E+3  -3.38810E+2
  -1.33474E+3   4.97929E+2
   4.82231E+2  -9.63157E+1
   1.63386E+3  -7.40283E+0
   8.87402E+2   7.19801E+2
   8.98130E+2  -1.39703E+2
  -2.17976E+2  -1.59770E+3
  -8.61005E+2  -5.69714E+2
  -1.99879E+3  -1.52958E+3
  -1.06875E+3  -8.30871E+2
   6.50327E+2  -1.00789E+3
   8.99711E+2   1.30521E+3
  -3.91896E+2  -1.15683E+2
  -1.19787E+3   1.73509E+3
  -1.01965E+3  -2.17815E+2
   1.88285E+3  -6.72658E+1
   9.85811E+2  -1.17443E+2
   7.61181E+2   1.21306E+3
  -5.17061E+2  -4.26807E+2
  -7.94409E+2   9.58321E+2
  -2.12616E+3  -8.12038E+1
   7.94870E+2   1.88279E+3
   1.00520E+3   6.61735E+2
   2.39616E+2   7.18156E+2
  -1.79812E+3   1.84881E+2
   1.22944E+3   5.53513E+2
   9.08094E+2   1.19138E+3
   1.41745E+3  -8.18212E+2
  -1.19371E+3  -1.61465E+3
   7.10131E+2  -2.54236E+2
  -8.16554E+2  -8.15060E+2
   6.64315E+2   8.43694E+2
  -1.09950E+3   8.09541E+2
  -2.28653E+3   1.16688E+3
   1.40089E+2  -1.72045E+3
   9.97535E+2   2.03627E+3
  -1.59979E+3  -2.60668E+1
   4.24213E+2  -1.24596E+3
  -4.23403E+2  -6.05378E+2
  -1.55010E+3   5.34703E+2
  -2.48551E+2  -3.83573E+2
