 
 $NMID
 ID=''
 FMTDAT='(2E13.5)'
 TRAMP=   1.00000E+0
 VOLUME=   1.00000E+0
 $END
   8.68964E+2   9.07507E+2
  -2.71748E+3   1.57775E+3
   7.53048E+3  -5.29312E+2
   1.62451E+3  -2.13559E+3
   8.76024E+2  -3.01266E+3
   2.16343E+3  -2.59253E+3
  -3.32205E+3  -5.61545E+2
  -5.28452E+3  -2.13591E+3
   5.80004E+2  -1.95532E+3
  -4.07387E+3  -6.33560E+2
   2.05843E+3  -1.06038E+3
   4.70504E+3   3.82716E+3
  -3.62604E+3   7.23434E+3
  -5.40431E+3  -1.18853E+3
   1.39124E+3  -6.00516E+2
   9.46886E+2   1.40315E+3
   4.25285E+3   2.71326E+3
   7.90977E+2   3.65209E+3
  -1.35071E+3   1.73195E+2
   3.17197E+3  -1.30847E+3
   4.57899E+3   2.88430E+3
  -2.85436E+2   4.08015E+3
  -2.86281E+3  -1.09191E+3
   4.35872E+3  -2.73108E+3
   3.37995E+3   7.71073E+2
  -2.59375E+3   2.57872E+3
  -2.02109E+3  -7.33145E+1
  -5.38439E+2  -2.66784E+3
   1.73814E+3  -5.53104E+3
   5.83687E+3   2.80030E+3
  -3.04852E+3   9.71018E+3
  -7.24945E+3   1.76754E+3
  -5.91740E+2  -4.38091E+3
   5.46580E+3   2.19327E+3
  -2.34060E+3   1.03887E+3
   4.81471E+2  -3.17210E+3
   4.89834E+3   4.44679E+2
  -2.85888E+3   7.71904E+3
  -5.80049E+3   1.71341E+3
  -3.54057E+2  -1.44692E+3
  -2.79647E+3  -1.01614E+3
  -3.80733E+2  -6.00993E+3
   6.95741E+3  -4.84973E+3
   7.58943E+3   3.65437E+3
   8.93673E+2   4.64464E+3
  -1.93599E+3   1.96143E+3
   2.14180E+3   1.58728E+2
  -1.86432E+3   3.17112E+3
  -2.88610E+3   1.09397E+3
  -5.13754E+3  -2.92803E+3
  -7.06724E+2  -9.76064E+2
   6.85807E+2   1.01312E+3
  -2.08745E+3   2.24107E+3
  -3.89617E+3  -1.11923E+3
  -2.94813E+3  -1.14788E+3
  -1.84631E+3  -5.53999E+3
  -8.24160E+2  -6.00838E+3
   4.62761E+3  -6.06448E+3
   6.05820E+3  -7.68365E+2
   1.28803E+3   1.47518E+3
   7.01535E+2   2.64950E+3
  -3.29308E+3   1.05087E+3
  -2.55628E+3  -5.80791E+2
  -1.14863E+3  -2.12791E+3
   1.69678E+3   6.97963E+2
  -1.36405E+3   5.44281E+1
  -3.53017E+3  -4.09624E+3
   1.54837E+3  -4.17263E+3
   1.42738E+3   1.18251E+3
   1.69371E+3   7.27743E+2
  -1.99564E+2  -3.59191E+3
   6.60944E+2  -2.58198E+3
   1.59478E+3  -4.38562E+1
  -1.24142E+3  -1.53046E+2
   2.57335E+2   8.88568E+1
  -6.37257E+2  -1.25013E+3
   1.22102E+3  -3.59693E+2
   1.84724E+2   4.40863E+2
  -1.48094E+3  -1.83570E+3
   1.21716E+3  -7.59904E+2
   1.86971E+2  -2.19493E+3
   5.90513E+2   5.69788E+2
  -1.82270E+3  -7.64752E+2
  -7.77469E+2  -1.63582E+3
   5.23305E+3  -1.51046E+3
   3.96378E+3   1.15975E+3
   1.75157E+3   4.49595E+3
  -2.05819E+3   3.07531E+3
  -4.00748E+2   4.33159E+2
  -1.06264E+3  -2.61372E+3
   5.82533E+2   5.40688E+2
  -3.01010E+2   2.49640E+2
  -5.82601E+1  -1.55382E+3
   4.38629E+3  -1.92169E+3
   3.02189E+3   3.24569E+3
  -6.44614E+2   2.92121E+3
  -2.09752E+3   3.31499E+2
  -1.12872E+3  -1.56148E+3
   8.88617E+2  -1.16900E+2
   1.31044E+3   3.26593E+3
  -2.14095E+3   3.49625E+3
  -5.30818E+3  -1.00605E+3
  -6.71515E+2  -3.92127E+3
   2.03642E+3  -3.26047E+3
   1.05904E+3   1.17423E+3
  -5.74705E+2   1.15984E+3
  -2.12273E+2  -1.14817E+3
   7.50835E+2   1.15144E+3
   2.24053E+3   4.32665E+3
  -2.23744E+3   3.29075E+3
  -3.67800E+3   1.04212E+2
  -2.45888E+3  -9.26581E+2
   2.12400E+3   7.44230E+2
  -2.42433E+2  -7.49038E+2
  -7.61432E+2  -1.41246E+3
   1.32585E+2   1.34269E+3
  -1.51311E+3  -7.33128E+2
  -3.79405E+3  -2.32806E+3
  -1.80987E+3  -1.05087E+3
  -3.14488E+3  -9.55747E+2
   1.52989E+3   1.28158E+3
   1.87576E+3   1.36044E+3
   6.40718E+1   2.99480E+3
  -2.74485E+3  -2.80148E+2
   1.14313E+3   9.63348E+2
  -4.55612E+1   8.39119E+2
   1.61170E+2  -2.60728E+2
  -8.70575E+2  -1.20247E+3
   9.62321E+2  -1.49515E+3
  -5.15781E+2   1.59074E+3
  -4.39119E+2   1.06973E+3
  -1.78860E+3   2.89499E+3
  -7.47011E+2  -1.66772E+3
   1.37309E+3  -6.98360E+2
   7.31718E+1   1.60105E+3
   1.12144E+3   2.16906E+3
  -1.27036E+2   1.05293E+3
  -1.49606E+3   4.39278E+2
   1.07662E+3   1.27001E+3
   2.43887E+2   1.52475E+3
  -1.25352E+3   1.58362E+3
  -8.44845E+2  -1.24982E+3
   1.25673E+3  -1.14767E+2
  -1.73407E+3   1.34113E+3
   2.49677E+3   1.99392E+3
  -1.33789E+3   3.56246E+2
  -1.67695E+2  -1.31412E+2
  -5.20242E+2   2.31968E+1
  -1.40536E+3  -7.41776E+2
   1.78077E+3  -7.99590E+2
   5.78420E+2   9.38721E+2
  -5.54471E+2   5.52216E+2
  -1.28875E+3   3.02663E+2
  -7.29259E+1   1.79983E+2
   2.05594E+2   6.16542E+2
   7.50898E+2   6.84343E+2
   1.49095E+3   2.40590E+3
   8.02166E+2   1.06633E+3
  -1.30702E+2   2.61225E+3
   7.53957E+2   7.86365E+2
   8.06922E+2   3.68081E+2
   1.63818E+3   1.03223E+3
  -1.21743E+3   6.42841E+2
   9.08859E+2  -2.63967E+3
   1.52903E+3  -6.88585E+2
  -1.16690E+3  -6.12550E+2
   4.09559E+2  -1.76954E+2
   3.09159E+2  -8.76734E+2
  -6.85880E+2   1.64096E+2
   1.52149E+3   1.57659E+2
  -3.12503E+3  -7.30510E+2
  -4.08764E+2   4.61229E+2
   6.85715E+2   3.84660E+2
  -4.09738E+2   8.22211E+2
   2.98171E+3  -2.75172E+2
  -8.79264E+2   3.80664E+2
   8.72357E+2  -3.95134E+2
   7.05659E+2   2.16522E+2
   9.82375E+1   4.86961E+1
  -2.52009E+3  -1.39167E+3
   1.25550E+3   9.03190E+2
  -6.74365E+2  -2.49667E+1
   4.33574E+2  -1.15747E+3
   2.34401E+3   9.19636E+2
   1.24766E+3  -8.06714E+2
  -5.66764E+2  -2.02251E+1
   5.80712E+2  -1.26529E+3
  -1.48846E+2   3.35530E+2
  -1.25167E+3  -1.01260E+3
  -2.24287E+3  -1.01647E+3
  -3.08886E+2  -2.09999E+2
  -1.98822E+3   1.56499E+3
   8.38074E+2  -2.30382E+3
  -2.05463E+2  -5.64159E+2
   4.47827E+2  -1.37111E+3
  -3.51903E+2   4.48500E+2
   7.76869E+2   3.07694E+2
   6.32176E+2  -1.85767E+3
   5.10788E+2   1.25575E+3
   9.97507E+2  -1.46317E+3
  -4.33197E+2  -8.51227E+2
  -1.86877E+2  -1.04378E+2
   2.30269E+3   5.39778E+2
   2.00891E+3   1.92544E+3
   1.49929E+3   1.27258E+2
   2.43876E+2   1.27511E+3
  -2.83230E+2   5.23407E+2
  -2.04597E+3   1.24471E+3
   6.67060E+2   8.17430E+2
  -2.82762E+2   6.26502E+2
   7.17500E+2  -4.91425E+2
   8.98669E+2  -1.22866E+3
   5.04196E+2  -5.10734E+1
   9.15333E+2  -2.02574E+2
  -6.95535E+2  -7.49716E+2
  -3.56592E+2  -3.61825E+2
  -4.47191E+2  -2.87226E+3
   1.26188E+3  -6.05839E+2
   2.34869E+3  -7.64233E+2
   8.69908E+1  -2.08406E+3
   6.00212E+1  -1.02852E+2
   1.05889E+3  -4.24611E+2
   1.08894E+1   1.23192E+3
   1.20806E+3  -1.87734E+3
   1.28490E+3  -1.37643E+3
  -8.23652E+2  -1.79940E+3
   2.20665E+2  -8.24507E+2
  -9.91285E+1  -1.68205E+3
   2.64564E+0  -8.45277E+2
  -3.44616E+2   6.55915E+2
   9.35333E+2   1.54446E+2
   5.71022E+2  -2.33093E+2
   2.37210E+3  -2.41843E+2
   7.84582E+2   1.56269E+3
  -1.49222E+3   1.71622E+3
  -8.74726E+2   2.30599E+2
  -3.71023E+2   2.93372E+2
  -1.37361E+3   3.60472E+2
   3.10159E+2  -1.38833E+3
   6.32173E+2   2.87582E+3
  -8.26180E+2   6.58689E+0
  -1.12656E+3  -6.18551E+2
   2.20518E+2  -2.35864E+2
   2.35285E+2  -3.40017E+2
   6.97335E+2   1.35148E+3
  -4.92136E+2   1.89835E+2
   1.45400E+3   3.82411E+2
  -8.29769E+2  -1.24637E+3
   1.77916E+3   3.45663E+3
  -1.23630E+3  -1.32756E+3
  -8.53687E+1  -1.89812E+2
   1.78613E+2  -6.69880E+2
   1.33938E+3  -1.42305E+3
   1.53077E+3   6.49004E+2
   4.73356E+2   4.43792E+2
   2.29904E+2  -3.41003E+2
   1.45024E+3   1.64301E+3
   1.37109E+3  -3.84790E+2
  -1.38215E+3   8.75899E+2
  -3.94693E+2  -1.22952E+3
  -1.48331E+3   3.34294E+2
   6.20607E+2  -9.00290E+2
  -3.07158E+2  -1.25833E+3
   1.25832E+3  -1.79977E+3
   2.68494E+2   2.15331E+3
  -3.46814E+2  -4.86873E+1
   2.20373E+3  -7.09065E+2
  -8.56836E+2  -7.26368E+2
   1.95659E+3  -4.18148E+1
  -1.24044E+3  -9.24165E+2
   2.47725E+3   4.43111E+2
  -1.14706E+3  -1.79697E+2
  -2.07334E+3   1.46827E+3
   2.12634E+2  -8.02215E+2
   1.87777E+3   4.60060E+2
  -6.52591E+2   4.21618E+2
  -6.38619E+2   7.04374E+2
  -1.78239E+3  -2.65550E+2
  -3.89932E+2   1.61446E+3
   1.21999E+3   6.53031E+2
   2.23308E+2  -4.97900E+2
  -4.58840E+2  -8.73467E+2
   1.19112E+3  -1.73169E+3
  -1.53562E+2  -8.47169E+2
  -2.28367E+2  -8.60095E+1
  -9.91837E+2   3.55144E+2
   6.99944E+2   8.11819E+2
   3.68704E+2  -2.00157E+2
   5.01893E+2  -2.00910E+2
   5.86762E+2   1.47297E+3
   1.28807E+3   9.35336E+2
   1.58233E+3   2.08513E+3
  -5.31175E+2  -8.39081E+2
   1.39574E+3  -4.65451E+2
  -2.86414E+2   2.35995E+2
   6.37166E+2   3.14871E+1
  -3.30539E+2   3.21403E+2
  -5.69732E+2  -4.48495E+1
  -1.23471E+3  -2.34799E+2
  -6.84442E+2  -5.46824E+2
  -1.02964E+3   1.02847E+3
   4.11476E+2   7.02226E+2
   1.19368E+3   7.99234E+2
   7.59393E+2  -1.43033E+3
   8.04865E+2   1.05294E+3
   1.45527E+3  -2.97478E+2
   1.89834E+3   7.16366E+1
  -2.52305E+3   5.10687E+2
  -2.50267E+2   3.00701E+3
   2.75061E+2  -1.90753E+2
   1.69968E+2   7.04160E+2
  -6.58240E+2   3.33827E+1
  -4.97005E+2   2.13776E+3
  -6.34468E+2  -3.69933E+2
   1.00941E+3  -6.38248E+2
   7.97844E+2   7.21077E+2
   3.81275E+2   1.87129E+3
  -4.55399E+1   7.65364E+2
   2.09758E+3   3.11613E+3
   5.17937E+1   1.20432E+3
  -5.90704E+2  -5.82772E+2
  -1.23345E+3   1.00091E+2
  -5.44358E+2  -1.49772E+3
  -1.20340E+3  -7.49016E+2
   2.44720E+3  -1.00257E+3
   5.66164E+2  -2.03482E+3
   8.98729E+2  -2.66533E+1
  -5.77037E+2  -9.73387E+2
  -6.95690E+2   1.21237E+3
  -9.12135E+2   1.12849E+2
   1.78063E+3  -2.31192E+2
   3.41157E+2   7.34230E+2
  -7.50456E+2  -3.70105E+2
   4.40135E+2   3.20443E+2
  -3.42367E+2  -2.57015E+2
  -1.30072E+3   4.55748E+2
   1.62381E+3  -1.22146E+1
   4.81732E+2  -8.02089E+1
   3.60714E+2  -1.07824E+3
   3.48666E+2  -1.47457E+3
  -1.29400E+3   6.07370E+2
  -1.42989E+3  -1.24950E+3
  -2.34847E+3  -2.32423E+2
   4.28245E+2  -4.43653E+2
  -2.94609E+3  -7.35081E+0
  -8.60277E+2   4.62987E+2
  -1.28097E+3   4.82658E+2
  -2.09921E+2  -5.58920E+1
   9.22180E+2   5.88806E+2
  -2.68827E+2  -4.10843E+2
   5.82967E+2   1.35194E+3
  -1.35230E+3  -7.44605E+2
   3.66828E+2  -8.97212E+1
   1.47949E+2  -8.89272E+2
  -1.97786E+2  -1.31324E+3
  -1.46474E+2  -7.66194E+2
  -1.37721E+3   4.09935E+2
  -1.52997E+3  -2.74742E+1
  -4.66793E+2  -1.04821E+2
  -6.47576E+2   7.51874E+2
   1.38448E+1   1.27259E+3
  -1.53561E+3  -7.54000E+2
  -3.08545E+2   3.66149E+2
  -1.40372E+3  -1.29108E+3
  -8.09189E+2   1.75609E+3
  -2.01099E+2   1.08097E+3
  -1.76117E+3   1.03224E+3
