 
 $NMID
 ID=''
 FMTDAT='(2E13.5)'
 TRAMP=   1.00000E+0
 VOLUME=   1.00000E+0
 $END
  -4.64432E+3   1.86078E+4
  -2.49615E+4   4.25870E+4
  -1.68806E+4   4.60341E+4
  -1.55003E+4   4.22608E+4
  -1.73155E+4   4.32760E+4
  -1.52548E+4   4.38791E+4
  -1.51194E+4   4.20494E+4
  -1.62052E+4   4.23867E+4
  -1.49520E+4   4.28425E+4
  -1.45926E+4   4.16264E+4
  -1.51040E+4   4.17518E+4
  -1.38805E+4   4.20719E+4
  -1.34132E+4   4.13119E+4
  -1.38334E+4   4.12348E+4
  -1.30463E+4   4.12540E+4
  -1.26452E+4   4.05384E+4
  -1.28117E+4   4.03780E+4
  -1.22108E+4   4.04759E+4
  -1.18003E+4   3.98718E+4
  -1.20088E+4   3.98142E+4
  -1.14904E+4   3.96095E+4
  -1.11224E+4   3.92299E+4
  -1.11711E+4   3.92247E+4
  -1.09088E+4   3.91216E+4
  -1.06073E+4   3.86784E+4
  -1.06084E+4   3.86183E+4
  -1.04557E+4   3.84371E+4
  -1.04149E+4   3.80057E+4
  -1.05425E+4   3.77865E+4
  -1.03159E+4   3.77203E+4
  -1.01092E+4   3.73059E+4
  -9.93144E+3   3.72126E+4
  -9.87171E+3   3.71232E+4
  -9.62641E+3   3.66953E+4
  -9.50326E+3   3.64950E+4
  -9.21510E+3   3.63894E+4
  -9.01123E+3   3.60830E+4
  -8.69330E+3   3.58663E+4
  -8.38313E+3   3.57667E+4
  -8.11840E+3   3.55519E+4
  -8.05984E+3   3.54177E+4
  -7.95079E+3   3.52636E+4
  -7.90857E+3   3.49815E+4
  -7.69359E+3   3.46123E+4
  -7.45404E+3   3.45347E+4
  -7.34100E+3   3.42152E+4
  -7.17276E+3   3.39512E+4
  -7.09408E+3   3.37658E+4
  -7.02524E+3   3.34620E+4
  -6.79296E+3   3.32562E+4
  -6.68010E+3   3.29602E+4
  -6.59314E+3   3.26472E+4
  -6.29034E+3   3.24114E+4
  -5.99427E+3   3.21301E+4
  -5.81080E+3   3.19633E+4
  -5.73230E+3   3.16525E+4
  -5.46632E+3   3.14349E+4
  -5.28536E+3   3.11446E+4
  -5.13143E+3   3.08784E+4
  -4.90283E+3   3.06238E+4
  -4.64556E+3   3.04295E+4
  -4.46820E+3   3.02377E+4
  -4.22334E+3   3.00582E+4
  -4.03344E+3   2.98735E+4
  -3.88952E+3   2.97749E+4
  -3.65838E+3   2.96077E+4
  -3.44113E+3   2.94541E+4
  -3.24080E+3   2.93469E+4
  -3.14355E+3   2.92168E+4
  -2.89063E+3   2.90672E+4
  -2.79528E+3   2.88344E+4
  -2.65483E+3   2.87742E+4
  -2.49866E+3   2.85984E+4
  -2.33907E+3   2.84113E+4
  -2.22219E+3   2.83573E+4
  -2.04425E+3   2.81343E+4
  -1.92234E+3   2.80585E+4
  -1.83390E+3   2.78812E+4
  -1.77219E+3   2.77528E+4
  -1.53966E+3   2.75825E+4
  -1.48377E+3   2.74871E+4
  -1.39663E+3   2.72683E+4
  -1.31990E+3   2.71392E+4
  -1.21175E+3   2.69550E+4
  -1.21686E+3   2.68314E+4
  -1.16526E+3   2.65962E+4
  -1.14863E+3   2.64309E+4
  -1.11430E+3   2.61360E+4
  -1.07693E+3   2.59429E+4
  -1.00769E+3   2.58423E+4
  -9.48425E+2   2.56042E+4
  -8.51885E+2   2.53816E+4
  -8.16644E+2   2.51817E+4
  -7.86369E+2   2.49443E+4
  -7.23098E+2   2.47225E+4
  -6.40161E+2   2.44475E+4
  -5.44140E+2   2.42001E+4
  -4.38171E+2   2.39528E+4
  -3.78372E+2   2.37771E+4
  -3.61482E+2   2.34726E+4
  -2.33238E+2   2.31709E+4
  -1.29376E+2   2.29673E+4
  -3.78322E+1   2.27414E+4
   6.92371E+1   2.24327E+4
   5.09316E+1   2.22165E+4
   1.92138E+2   2.18769E+4
   2.92191E+2   2.17186E+4
   3.37150E+2   2.14231E+4
   4.30713E+2   2.11880E+4
   5.15750E+2   2.08370E+4
   6.51405E+2   2.06259E+4
   9.21054E+2   2.04780E+4
   1.00549E+3   2.01435E+4
   1.12150E+3   1.99288E+4
   1.23591E+3   1.96942E+4
   1.35798E+3   1.94844E+4
   1.45607E+3   1.92035E+4
   1.61328E+3   1.89680E+4
   1.73684E+3   1.87567E+4
   1.90975E+3   1.85772E+4
   2.08030E+3   1.83457E+4
   2.18420E+3   1.81515E+4
   2.32783E+3   1.79643E+4
   2.48330E+3   1.78452E+4
   2.63658E+3   1.76332E+4
   2.76580E+3   1.74925E+4
   2.82409E+3   1.73136E+4
   2.98806E+3   1.70986E+4
   3.15955E+3   1.69110E+4
   3.26576E+3   1.68043E+4
   3.43392E+3   1.66579E+4
   3.45403E+3   1.64971E+4
   3.61174E+3   1.63728E+4
   3.79431E+3   1.62518E+4
   3.88817E+3   1.61316E+4
   4.01550E+3   1.59183E+4
   4.10314E+3   1.58111E+4
   4.23897E+3   1.57054E+4
   4.32593E+3   1.55264E+4
   4.46266E+3   1.53813E+4
   4.55717E+3   1.52671E+4
   4.62496E+3   1.51547E+4
   4.72790E+3   1.50331E+4
   4.81814E+3   1.49242E+4
   4.86394E+3   1.48002E+4
   5.01650E+3   1.47820E+4
   5.11937E+3   1.46494E+4
   5.08067E+3   1.45724E+4
   5.24866E+3   1.44641E+4
   5.27526E+3   1.43672E+4
   5.36532E+3   1.42936E+4
   5.34835E+3   1.41054E+4
   5.37679E+3   1.40128E+4
   5.51821E+3   1.39578E+4
   5.52164E+3   1.38442E+4
   5.62003E+3   1.38095E+4
   5.63363E+3   1.37916E+4
   5.77082E+3   1.36595E+4
   5.75041E+3   1.35834E+4
   5.81120E+3   1.34514E+4
   5.83567E+3   1.33923E+4
   5.89003E+3   1.33137E+4
   5.93457E+3   1.31595E+4
   5.92363E+3   1.31502E+4
   5.94441E+3   1.30609E+4
   6.01942E+3   1.29579E+4
   6.09095E+3   1.28552E+4
   6.06071E+3   1.28171E+4
   6.11326E+3   1.27248E+4
   6.13172E+3   1.27006E+4
   6.20378E+3   1.25860E+4
   6.23789E+3   1.25174E+4
   6.23402E+3   1.24537E+4
   6.28273E+3   1.23325E+4
   6.24859E+3   1.22850E+4
   6.29667E+3   1.22010E+4
   6.39746E+3   1.20712E+4
   6.37721E+3   1.19467E+4
   6.35455E+3   1.19306E+4
   6.39817E+3   1.19447E+4
   6.42261E+3   1.18034E+4
   6.40626E+3   1.17483E+4
   6.43641E+3   1.16455E+4
   6.37336E+3   1.17086E+4
   6.44998E+3   1.15389E+4
   6.48819E+3   1.14192E+4
   6.50975E+3   1.14758E+4
   6.48411E+3   1.13775E+4
   6.50982E+3   1.12736E+4
   6.52673E+3   1.12243E+4
   6.47882E+3   1.11344E+4
   6.51125E+3   1.10507E+4
   6.52369E+3   1.10611E+4
   6.51644E+3   1.10008E+4
   6.50717E+3   1.09062E+4
   6.42810E+3   1.08532E+4
   6.48660E+3   1.07412E+4
   6.45737E+3   1.07137E+4
   6.48713E+3   1.06180E+4
   6.47391E+3   1.05496E+4
   6.44568E+3   1.05480E+4
   6.35992E+3   1.04484E+4
   6.37574E+3   1.04250E+4
   6.39597E+3   1.03610E+4
   6.37233E+3   1.01894E+4
   6.40002E+3   1.00655E+4
   6.35830E+3   1.01133E+4
   6.30470E+3   1.00266E+4
   6.36362E+3   1.00025E+4
   6.32559E+3   1.00091E+4
   6.34930E+3   9.92058E+3
   6.28509E+3   9.78274E+3
   6.28813E+3   9.72517E+3
   6.29237E+3   9.60003E+3
   6.35154E+3   9.54954E+3
   6.26833E+3   9.56650E+3
   6.24442E+3   9.43522E+3
   6.29371E+3   9.44678E+3
   6.21564E+3   9.34454E+3
   6.26340E+3   9.28125E+3
   6.26082E+3   9.13282E+3
   6.19450E+3   9.03939E+3
   6.17562E+3   9.04756E+3
   6.17591E+3   8.98157E+3
   6.20812E+3   8.93843E+3
   6.16245E+3   8.79212E+3
   6.09699E+3   8.73019E+3
   6.15650E+3   8.63967E+3
   6.14814E+3   8.70335E+3
   6.07037E+3   8.59888E+3
   5.96176E+3   8.41932E+3
   6.02491E+3   8.47643E+3
   6.07375E+3   8.38678E+3
   6.03819E+3   8.22986E+3
   6.02934E+3   8.16713E+3
   6.00592E+3   8.11517E+3
   5.99402E+3   8.13527E+3
   6.00703E+3   8.03956E+3
   6.00334E+3   7.94002E+3
   5.96730E+3   7.85711E+3
   6.00990E+3   7.77426E+3
   6.00729E+3   7.73121E+3
   5.98338E+3   7.65076E+3
   5.97559E+3   7.63087E+3
   5.94260E+3   7.52758E+3
   5.97662E+3   7.44942E+3
   5.90827E+3   7.36795E+3
   5.89718E+3   7.31329E+3
   5.91437E+3   7.20922E+3
   5.86768E+3   7.22272E+3
   5.87021E+3   7.12509E+3
   5.86782E+3   7.04833E+3
   5.84821E+3   7.02138E+3
   5.79240E+3   6.86782E+3
   5.78362E+3   6.82481E+3
   5.87480E+3   6.74479E+3
   5.78657E+3   6.67589E+3
   5.74094E+3   6.62875E+3
   5.76482E+3   6.55612E+3
   5.76165E+3   6.55733E+3
   5.73062E+3   6.45043E+3
   5.67967E+3   6.38392E+3
   5.72297E+3   6.32803E+3
   5.70896E+3   6.26173E+3
   5.73105E+3   6.14517E+3
   5.68671E+3   6.04946E+3
   5.61331E+3   6.09154E+3
   5.64188E+3   5.94889E+3
   5.63302E+3   5.92414E+3
   5.61483E+3   5.77483E+3
   5.57445E+3   5.73806E+3
   5.65219E+3   5.67976E+3
   5.55659E+3   5.60035E+3
   5.58440E+3   5.53721E+3
   5.55098E+3   5.48639E+3
   5.58919E+3   5.40535E+3
   5.49918E+3   5.29492E+3
   5.51360E+3   5.22438E+3
   5.50152E+3   5.14651E+3
   5.45420E+3   5.12787E+3
   5.52416E+3   4.97470E+3
   5.52550E+3   5.01572E+3
   5.42906E+3   4.96346E+3
   5.41800E+3   4.90966E+3
   5.36546E+3   4.78950E+3
   5.38707E+3   4.79843E+3
   5.39699E+3   4.73032E+3
   5.38596E+3   4.63133E+3
   5.37937E+3   4.56210E+3
   5.34769E+3   4.53703E+3
   5.36761E+3   4.47879E+3
   5.34689E+3   4.44966E+3
   5.31916E+3   4.33753E+3
   5.29632E+3   4.28046E+3
   5.25198E+3   4.19930E+3
   5.28557E+3   4.23220E+3
   5.20652E+3   4.12087E+3
   5.21853E+3   4.03363E+3
   5.18556E+3   4.02411E+3
   5.13721E+3   3.93995E+3
   5.08989E+3   3.91323E+3
   5.13996E+3   3.84458E+3
   5.04415E+3   3.80240E+3
   5.10964E+3   3.74298E+3
   5.04073E+3   3.67329E+3
   4.97707E+3   3.63274E+3
   5.00894E+3   3.58080E+3
   5.02600E+3   3.50554E+3
   5.02734E+3   3.46325E+3
   4.94627E+3   3.40345E+3
   4.97298E+3   3.37319E+3
   4.87728E+3   3.25910E+3
   4.88629E+3   3.23556E+3
   4.81866E+3   3.11011E+3
   4.80610E+3   3.12527E+3
   4.83156E+3   3.06107E+3
   4.77634E+3   3.02292E+3
   4.76225E+3   2.88175E+3
   4.74212E+3   2.89557E+3
   4.71322E+3   2.84703E+3
   4.71160E+3   2.79311E+3
   4.63654E+3   2.76085E+3
   4.61087E+3   2.73153E+3
   4.63844E+3   2.65082E+3
   4.58471E+3   2.56361E+3
   4.57862E+3   2.53271E+3
   4.54519E+3   2.44121E+3
   4.50592E+3   2.40960E+3
   4.48306E+3   2.39902E+3
   4.46470E+3   2.29444E+3
   4.51119E+3   2.30382E+3
   4.47964E+3   2.23321E+3
   4.45031E+3   2.21273E+3
   4.39340E+3   2.20083E+3
   4.38863E+3   2.15748E+3
   4.34282E+3   2.07345E+3
   4.34430E+3   2.03304E+3
   4.32738E+3   1.98372E+3
   4.29397E+3   1.96791E+3
   4.30077E+3   1.96457E+3
   4.28683E+3   1.85141E+3
   4.23834E+3   1.80199E+3
   4.18016E+3   1.78286E+3
   4.20040E+3   1.79207E+3
   4.24991E+3   1.72740E+3
   4.13155E+3   1.68047E+3
   4.12958E+3   1.76073E+3
   4.04496E+3   1.59976E+3
   4.04747E+3   1.57296E+3
   4.03186E+3   1.48932E+3
   4.09610E+3   1.47761E+3
   3.92900E+3   1.47152E+3
   3.96496E+3   1.43015E+3
   3.97410E+3   1.36802E+3
   3.90763E+3   1.36944E+3
   3.86975E+3   1.36369E+3
   3.83984E+3   1.36795E+3
   3.77712E+3   1.30999E+3
   3.77113E+3   1.24322E+3
   3.75033E+3   1.21291E+3
   3.69312E+3   1.11975E+3
   3.65456E+3   1.12404E+3
   3.65843E+3   1.09275E+3
   3.64243E+3   1.09227E+3
   3.61950E+3   1.02245E+3
   3.52721E+3   9.98909E+2
   3.55876E+3   9.58926E+2
