 LCModel (Version 6.3-1N) Copyright: S.W. Provencher.          Ref.: Magn. Reson. Med. 30:672-679 (1993).                
 Slice_N1@18_12  02-Jun-2023 14:37:00
 27 lines in following concentration table = NCONC+1
    Conc.  %SD /Cr+PCr  Metabolite                                         
 2.47E-06  14% 3.0E-04 Mac                                                 
 2.26E-02  31%   2.736 Cr                                                  
 4.34E-02  16%   5.264 PCr                                                 
 6.29E-02  12%   7.627 Ins                                                 
 9.28E-02   7%  11.250 NAA                                                 
 5.50E-02  12%   6.664 Tau                                                 
 1.01E-02  25%   1.221 PCho                                                
 1.25E-03 233%   0.152 GPC                                                 
 6.64E-02  12%   8.057 Glu                                                 
 2.25E-02  28%   2.727 Gln                                                 
 9.91E-03  60%   1.202 Ala                                                 
 6.34E-03 172%   0.769 Asc                                                 
 1.11E-02  66%   1.341 Asp                                                 
 1.39E-02  27%   1.690 GABA                                                
 8.98E-03  55%   1.089 Glc                                                 
 1.53E-02  24%   1.860 GSH                                                 
 1.01E-02  62%   1.219 Lac                                                 
 6.76E-03  56%   0.820 NAAG                                                
 7.14E-03 130%   0.866 PE                                                  
 1.13E-02  20%   1.373 GPC+PCho                                            
    0.100   7%  12.070 NAA+NAAG                                            
 8.89E-02  11%  10.784 Glu+Gln                                             
 6.60E-02   9%   8.000 Cr+PCr                                              
    0.100   7%  12.070 NAA+NAAG                                            
 6.60E-02   9%   8.000 Cr+PCr                                              
 8.89E-02  11%  10.784 Glu+Gln                                             
   6 lines in following misc. output table
  FWHM = 0.017 ppm    S/N =   6                                            
  Data shift = 0.012 ppm                                                   
  Ph: -57 deg     -11.5 deg/ppm                                            
  alphaB,S = 3.5E-01,   3.4E-01                                            
   18 spline knots.   Ns = 5(1)                                            
   2 inflections.     1 extrema                                            
  654 points on ppm-axis = NY
      4.000000     3.994181     3.988363     3.982544     3.976726     3.970907     3.965088     3.959270     3.953451     3.947633
      3.941814     3.935995     3.930177     3.924358     3.918540     3.912721     3.906902     3.901084     3.895265     3.889446
      3.883628     3.877809     3.871991     3.866172     3.860353     3.854535     3.848716     3.842898     3.837079     3.831260
      3.825442     3.819623     3.813805     3.807986     3.802167     3.796349     3.790530     3.784712     3.778893     3.773074
      3.767256     3.761437     3.755619     3.749800     3.743981     3.738163     3.732344     3.726526     3.720707     3.714888
      3.709070     3.703251     3.697433     3.691614     3.685795     3.679977     3.674158     3.668339     3.662521     3.656702
      3.650884     3.645065     3.639246     3.633428     3.627609     3.621791     3.615972     3.610153     3.604335     3.598516
      3.592698     3.586879     3.581060     3.575242     3.569423     3.563605     3.557786     3.551967     3.546149     3.540330
      3.534512     3.528693     3.522874     3.517056     3.511237     3.505419     3.499600     3.493781     3.487963     3.482144
      3.476326     3.470507     3.464688     3.458870     3.453051     3.447232     3.441414     3.435595     3.429777     3.423958
      3.418139     3.412321     3.406502     3.400684     3.394865     3.389046     3.383228     3.377409     3.371591     3.365772
      3.359953     3.354135     3.348316     3.342498     3.336679     3.330860     3.325042     3.319223     3.313405     3.307586
      3.301767     3.295949     3.290130     3.284312     3.278493     3.272674     3.266856     3.261037     3.255219     3.249400
      3.243581     3.237763     3.231944     3.226125     3.220307     3.214488     3.208670     3.202851     3.197032     3.191214
      3.185395     3.179577     3.173758     3.167939     3.162121     3.156302     3.150484     3.144665     3.138846     3.133028
      3.127209     3.121391     3.115572     3.109753     3.103935     3.098116     3.092298     3.086479     3.080660     3.074842
      3.069023     3.063205     3.057386     3.051567     3.045749     3.039930     3.034111     3.028293     3.022474     3.016656
      3.010837     3.005018     2.999200     2.993381     2.987563     2.981744     2.975925     2.970107     2.964288     2.958470
      2.952651     2.946832     2.941014     2.935195     2.929377     2.923558     2.917739     2.911921     2.906102     2.900284
      2.894465     2.888646     2.882828     2.877009     2.871191     2.865372     2.859553     2.853735     2.847916     2.842098
      2.836279     2.830460     2.824642     2.818823     2.813004     2.807186     2.801367     2.795549     2.789730     2.783911
      2.778093     2.772274     2.766456     2.760637     2.754818     2.749000     2.743181     2.737363     2.731544     2.725725
      2.719907     2.714088     2.708270     2.702451     2.696632     2.690814     2.684995     2.679177     2.673358     2.667539
      2.661721     2.655902     2.650084     2.644265     2.638446     2.632628     2.626809     2.620991     2.615172     2.609353
      2.603535     2.597716     2.591897     2.586079     2.580260     2.574442     2.568623     2.562804     2.556986     2.551167
      2.545349     2.539530     2.533711     2.527893     2.522074     2.516256     2.510437     2.504618     2.498800     2.492981
      2.487163     2.481344     2.475525     2.469707     2.463888     2.458070     2.452251     2.446432     2.440614     2.434795
      2.428977     2.423158     2.417339     2.411521     2.405702     2.399884     2.394065     2.388246     2.382428     2.376609
      2.370790     2.364972     2.359153     2.353335     2.347516     2.341697     2.335879     2.330060     2.324242     2.318423
      2.312604     2.306786     2.300967     2.295149     2.289330     2.283511     2.277693     2.271874     2.266056     2.260237
      2.254418     2.248600     2.242781     2.236963     2.231144     2.225325     2.219507     2.213688     2.207870     2.202051
      2.196232     2.190414     2.184595     2.178777     2.172958     2.167139     2.161321     2.155502     2.149683     2.143865
      2.138046     2.132228     2.126409     2.120590     2.114772     2.108953     2.103135     2.097316     2.091497     2.085679
      2.079860     2.074042     2.068223     2.062404     2.056586     2.050767     2.044949     2.039130     2.033311     2.027493
      2.021674     2.015856     2.010037     2.004218     1.998400     1.992581     1.986763     1.980944     1.975126     1.969307
      1.963489     1.957670     1.951852     1.946033     1.940215     1.934397     1.928578     1.922760     1.916941     1.911123
      1.905304     1.899486     1.893667     1.887849     1.882030     1.876212     1.870393     1.864575     1.858756     1.852938
      1.847119     1.841301     1.835482     1.829664     1.823845     1.818027     1.812208     1.806390     1.800571     1.794753
      1.788934     1.783116     1.777297     1.771479     1.765660     1.759842     1.754023     1.748205     1.742386     1.736568
      1.730749     1.724931     1.719113     1.713294     1.707476     1.701657     1.695839     1.690020     1.684202     1.678383
      1.672565     1.666746     1.660928     1.655109     1.649291     1.643472     1.637654     1.631835     1.626017     1.620198
      1.614380     1.608561     1.602743     1.596924     1.591106     1.585287     1.579469     1.573650     1.567832     1.562013
      1.556195     1.550376     1.544558     1.538739     1.532921     1.527102     1.521284     1.515465     1.509647     1.503829
      1.498010     1.492192     1.486373     1.480555     1.474736     1.468918     1.463099     1.457281     1.451462     1.445644
      1.439825     1.434007     1.428188     1.422370     1.416551     1.410733     1.404914     1.399096     1.393277     1.387459
      1.381640     1.375822     1.370003     1.364185     1.358366     1.352548     1.346729     1.340911     1.335092     1.329274
      1.323455     1.317637     1.311818     1.306000     1.300182     1.294363     1.288545     1.282726     1.276908     1.271089
      1.265271     1.259452     1.253634     1.247815     1.241997     1.236178     1.230360     1.224541     1.218723     1.212904
      1.207086     1.201267     1.195449     1.189630     1.183812     1.177993     1.172175     1.166356     1.160538     1.154719
      1.148901     1.143082     1.137264     1.131445     1.125627     1.119808     1.113990     1.108171     1.102353     1.096534
      1.090716     1.084898     1.079079     1.073261     1.067442     1.061624     1.055805     1.049987     1.044168     1.038350
      1.032531     1.026713     1.020894     1.015076     1.009257     1.003439     0.997620     0.991802     0.985983     0.980165
      0.974346     0.968528     0.962709     0.956891     0.951072     0.945254     0.939435     0.933617     0.927798     0.921980
      0.916161     0.910343     0.904524     0.898706     0.892887     0.887069     0.881251     0.875432     0.869614     0.863795
      0.857977     0.852158     0.846340     0.840521     0.834703     0.828884     0.823066     0.817247     0.811429     0.805610
      0.799792     0.793973     0.788155     0.782336     0.776518     0.770699     0.764881     0.759062     0.753244     0.747425
      0.741607     0.735788     0.729970     0.724151     0.718333     0.712514     0.706696     0.700877     0.695059     0.689240
      0.683422     0.677603     0.671785     0.665967     0.660148     0.654330     0.648511     0.642693     0.636874     0.631056
      0.625237     0.619419     0.613600     0.607782     0.601963     0.596145     0.590326     0.584508     0.578689     0.572871
      0.567052     0.561234     0.555415     0.549597     0.543778     0.537960     0.532141     0.526323     0.520504     0.514686
      0.508867     0.503049     0.497230     0.491412     0.485593     0.479775     0.473956     0.468138     0.462319     0.456501
      0.450682     0.444864     0.439045     0.433227     0.427408     0.421590     0.415771     0.409953     0.404134     0.398316
      0.392497     0.386679     0.380860     0.375042     0.369223     0.363405     0.357586     0.351767     0.345949     0.340130
      0.334312     0.328493     0.322675     0.316856     0.311038     0.305219     0.299401     0.293582     0.287764     0.281945
      0.276127     0.270308     0.264490     0.258671     0.252853     0.247034     0.241216     0.235397     0.229579     0.223760
      0.217942     0.212123     0.206305     0.200486
 NY phased data points follow
  -7.89426E-02 -2.45796E-01 -3.05172E-03 -1.18943E-01  1.71402E-01  1.00229E-01 -1.09365E-01 -2.32094E-01 -2.96183E-01 -1.38045E-01
   1.45433E-01  2.90473E-01  6.83066E-01  2.55980E-01  4.99777E-02  2.77830E-01  1.53789E-01  8.34363E-02  1.62318E-01  1.28677E-01
  -7.75982E-02  1.46072E-01  1.50602E-01  5.76356E-02 -2.48379E-01 -4.80249E-03 -2.48772E-01 -8.26016E-02 -2.13755E-02 -3.41882E-01
   9.90305E-02 -1.79182E-01 -2.52363E-02 -4.66103E-01 -3.69837E-01 -3.10066E-01 -3.80376E-01 -1.68427E-01 -5.00532E-01  3.61103E-02
   3.21119E-01  5.51219E-02  4.55755E-01  7.63125E-01  3.27659E-01  4.04942E-01  2.63208E-01  3.24366E-01  1.91763E-01 -2.30252E-01
  -2.93723E-03  4.77070E-01  3.32095E-01 -1.00929E-01  2.28984E-02 -1.74016E-01 -1.20812E-01 -2.46258E-01 -2.33511E-01 -2.40066E-01
  -3.36186E-01 -4.20702E-01 -2.20906E-01 -3.98138E-01 -5.76192E-01  9.92089E-02  3.46174E-02  3.01987E-01  2.60545E-01  3.55970E-01
   5.17928E-01 -6.97524E-02 -6.96368E-02  4.60141E-02  6.09673E-02  7.13475E-02 -2.03763E-01 -1.61430E-01 -1.97239E-01 -4.47886E-01
  -1.83680E-01 -1.15221E-01  1.17312E-01  1.78610E-01  2.63293E-01  4.19986E-01  4.50034E-01  3.55671E-01  1.82043E-01  8.35311E-02
   5.84712E-02  1.49222E-01 -1.51429E-01 -2.94341E-02 -7.43373E-02 -6.89772E-04  3.09291E-02 -2.05955E-01 -2.48400E-01 -2.93575E-01
  -3.45092E-01 -3.07203E-01  2.18834E-01  1.47588E-01  1.72042E-01  5.07786E-01  4.86808E-01  3.43422E-01  4.27165E-01  4.11830E-01
   3.04314E-01  2.71019E-01  2.94866E-01  3.06165E-01  1.08821E-01  3.53081E-01  3.64734E-01  3.33297E-01  3.37175E-01  2.33532E-01
   1.96153E-01  4.51885E-03 -2.96521E-01 -1.02897E-01  1.21079E-01 -2.25601E-01 -1.12417E-01 -2.81941E-01 -4.12174E-01 -3.90959E-01
  -5.38752E-01 -4.74721E-01 -4.52833E-01 -5.17037E-01 -3.06375E-01 -4.88523E-01 -1.08528E+00 -7.93541E-01 -5.91815E-01 -2.66943E-01
  -1.15056E-01 -2.94686E-01 -9.84637E-02 -1.99032E-01 -7.96271E-02  2.38795E-01  2.44822E-01  2.30994E-01  3.26761E-01  2.56150E-01
   5.26843E-02 -5.18038E-02  2.80243E-01  2.51702E-01  4.09789E-02  1.78929E-01  4.21306E-01  2.99646E-01  3.36110E-02  2.87040E-01
   1.63588E-01  3.57197E-01  5.77677E-01  5.93794E-01  9.35901E-01  1.33744E+00  8.05982E-01 -3.54010E-01 -7.88663E-01 -1.14319E+00
  -8.29189E-01 -7.75081E-01 -6.68643E-01 -4.37931E-01 -6.18779E-01 -3.70209E-01 -5.78087E-01 -5.68417E-01 -3.06488E-01 -3.05596E-01
  -3.95753E-01 -4.64938E-01 -2.51662E-01 -1.00371E-01 -3.45331E-01 -4.22771E-01 -3.73349E-01 -3.96435E-01 -3.69891E-01 -3.37943E-01
  -3.56014E-01 -5.47332E-01 -2.07020E-01 -2.35516E-01 -4.51115E-01 -2.42494E-01 -4.27014E-01 -3.31150E-01 -2.57132E-01 -2.56713E-01
   5.20035E-02 -2.35197E-02 -1.27472E-01 -7.96609E-03  2.07926E-01 -9.30756E-02 -2.47646E-01 -1.85772E-01 -2.61323E-01 -4.41541E-02
  -1.74161E-01  2.75329E-01 -7.07591E-02 -2.74500E-01  6.42049E-03 -2.13932E-01  1.99020E-01  6.08715E-02  1.53422E-01 -4.19456E-02
  -8.75825E-02  1.21130E-01  1.02140E-01  8.70500E-02  1.26209E-01  4.93381E-01  1.52491E-01 -2.63913E-03  3.83492E-01  8.15703E-01
   6.56067E-01  3.44900E-01  2.65588E-01  3.28483E-01  3.43992E-01  2.57416E-01  2.49487E-01 -5.22422E-02 -1.26866E-01  4.71404E-02
  -1.03630E-01 -2.08407E-01  1.76762E-01  2.52512E-02 -9.44301E-02  1.04546E-01 -4.46687E-02 -1.64604E-01  1.04556E-02 -2.16202E-02
   2.75871E-01  5.29517E-01 -1.06609E-01  6.77297E-02  2.48182E-01 -4.24946E-03  1.66534E-01  9.66213E-02 -1.11898E-01  1.72024E-01
   1.14859E-01  1.26043E-01  4.60747E-01  5.53212E-02 -1.27386E-01  1.23260E-01  1.22563E-01  1.59966E-01  2.50793E-01  1.61184E-01
   1.57476E-01 -1.80265E-02  2.16665E-01  2.07393E-01  1.86578E-01  1.70232E-01 -2.04453E-01  4.24186E-03 -5.33287E-03 -7.62539E-02
  -2.98147E-01 -3.38274E-01 -3.09095E-01 -2.91572E-01 -1.72731E-01  3.70967E-01  4.26006E-01  3.95916E-01  6.54935E-01  2.72346E-01
   5.41218E-01  1.07386E-01  3.63642E-02  3.05054E-02 -1.39628E-02  8.58711E-02 -1.62944E-02  4.34626E-01  1.78103E-01  2.82879E-01
   7.72184E-02  2.02978E-01  3.98870E-01  3.92498E-01  5.79973E-01  2.05816E-01  4.08852E-01  3.11299E-01  4.08592E-01  5.44465E-01
   2.77394E-01  4.55466E-01  1.79042E-01  6.36570E-02  3.45510E-01 -1.10687E-02 -1.16936E-01 -1.61889E-01 -3.70833E-01  8.12478E-02
  -1.12916E-01 -2.95541E-01 -1.09043E-01 -3.62452E-01 -1.49152E-01 -9.57724E-02  1.64321E-01  1.29171E-01  1.90253E-01  4.25726E-01
   6.77371E-02  2.58485E-01 -3.24289E-01 -3.78516E-01  7.41383E-03 -1.15057E-01 -1.97146E-01 -2.94394E-01 -3.02875E-01 -5.18140E-01
  -5.31223E-01 -1.51564E+00 -2.28824E+00 -2.12762E+00 -9.66401E-01 -1.18111E-01 -4.73789E-01 -5.85652E-02  1.01456E-01  1.08046E-02
   2.44128E-01  2.15549E-01 -1.30551E-01  1.43425E-01  5.02260E-01  2.53905E-01  1.19377E-01  2.71037E-01  8.95401E-02 -1.45990E-01
   3.33546E-01  2.19550E-01 -5.73691E-03 -1.27939E-01 -9.95896E-02 -1.95870E-02  4.68127E-02  2.47441E-01 -2.36660E-02  2.69079E-01
  -3.95997E-02 -6.84564E-02  2.41988E-01  1.11597E-01  2.12751E-01 -1.57054E-01  1.94459E-01  1.21118E-01 -1.52011E-01  1.65195E-01
   2.14457E-01  1.86345E-01  3.25000E-02  9.05104E-03  1.05872E-01  3.08600E-01  1.47571E-01  7.87173E-02  2.66940E-01  2.86682E-01
   2.77394E-01  6.77774E-02 -9.39374E-02  2.95908E-01  2.48239E-01 -1.19285E-01  1.05758E-01  2.59292E-01  2.05285E-01  8.16020E-02
  -8.15796E-02 -2.88123E-01 -2.14049E-01 -1.58397E-01 -2.28750E-02 -3.95418E-02  9.14657E-02 -1.13232E-01 -3.27199E-01  1.63438E-01
  -2.26440E-01 -7.53537E-02 -2.02369E-01 -4.62929E-01 -2.45096E-01 -4.45953E-01 -1.75336E-01 -5.49154E-02 -1.77554E-01  4.70187E-02
   3.05229E-02 -2.26806E-01  5.15398E-02 -1.62135E-01 -1.85202E-01 -3.71960E-01 -3.41092E-01  6.78627E-02 -2.77607E-01 -1.67149E-01
  -3.31027E-01 -2.12218E-01  9.56890E-02  1.29092E-01  2.71472E-01  2.36317E-01  1.79044E-01  1.04305E-01 -2.82190E-03  4.19595E-02
   1.46281E-01 -4.67674E-02  5.55397E-02  9.62766E-02  1.84891E-01  2.96307E-01  3.43071E-01  4.11819E-01  1.25095E-01  4.82555E-01
   3.79266E-01  1.09328E-01  2.58352E-01  5.38417E-02  4.87846E-03 -2.25193E-01  1.17177E-01  4.39197E-02 -5.53475E-02  8.67083E-02
   1.42819E-01  3.86277E-01  1.32370E-01  3.90403E-01  2.91084E-02  1.17221E-01  2.67986E-01 -1.87614E-01 -1.99749E-01  2.88667E-03
   2.40130E-01  1.09425E-01 -2.25420E-02 -2.57029E-01 -6.98602E-02 -1.59301E-01 -1.29026E-01 -1.93316E-01 -7.74722E-02 -2.13969E-02
  -9.63646E-02  2.39841E-01  1.67149E-01  7.74323E-03 -8.29010E-02  2.11525E-01 -1.54330E-01 -6.89034E-02 -9.78076E-02  1.12256E-01
   2.48176E-01 -2.89226E-01 -3.10589E-01 -4.65894E-01 -1.20554E-01 -2.07434E-02 -1.14032E-02 -5.03938E-02  1.95596E-01 -4.46923E-02
   1.05478E-01  2.04117E-01 -9.08073E-02  1.44891E-01  1.85569E-02  2.33109E-01 -3.66833E-04  3.03707E-01  1.89624E-01  2.12457E-01
   4.79859E-01  2.56971E-01  2.46738E-01  2.97711E-01  2.31028E-01 -2.98890E-01 -6.44284E-02 -8.01284E-02  2.99510E-01  7.92320E-02
  -2.38888E-01  7.36088E-03 -2.42442E-01  4.55551E-02 -4.86193E-01 -6.08905E-01 -3.61768E-01 -3.72958E-01 -4.13935E-01 -7.42576E-01
  -3.25123E-01 -2.24257E-01 -2.50941E-01  6.21318E-02  1.29290E-01 -1.57493E-02 -3.21150E-01 -6.89070E-02 -1.46012E-02 -9.37150E-02
   6.97293E-02 -1.10109E-01 -3.56362E-02  7.66155E-02  4.00750E-02  2.87830E-02 -4.37455E-02  1.86104E-01  3.51245E-01  1.21406E-01
   5.06291E-02  1.89952E-01  2.08830E-01  7.72216E-03  2.75288E-01  4.05821E-01  5.68034E-02 -1.67544E-02  2.21399E-01  1.15041E-01
  -1.28474E-01  9.29298E-02  7.30858E-02  5.02012E-02 -9.72159E-02  4.23998E-01  3.51607E-03 -1.81398E-01  3.57737E-01 -1.83699E-01
   3.25936E-01 -3.71990E-02 -5.59426E-02  9.74984E-02  6.01027E-02  1.57372E-01 -6.99118E-02  3.37993E-01 -7.40080E-02  1.79662E-01
   1.64192E-01 -1.10349E-01  1.05978E-01  2.20818E-01 -1.12548E-01 -2.07058E-01  2.82998E-01  6.08608E-02  3.08458E-02 -9.18117E-02
  -4.83168E-02 -1.56022E-01 -1.03309E-01  1.92660E-01  2.22021E-01  1.36272E-01  1.23148E-01  2.33764E-01 -2.85509E-01 -1.48163E-01
  -1.82223E-01 -1.88161E-01 -5.92025E-02 -1.65406E-01  1.62199E-01 -1.37281E-01 -9.69491E-02  1.43755E-01  2.68981E-02  8.89998E-02
   1.07547E-01 -6.73783E-02  2.51740E-01  4.61878E-01  2.24161E-01  2.26695E-01 -6.78670E-02 -1.22096E-02  9.82944E-03 -9.19737E-02
   9.88875E-02  2.26283E-01  1.29467E-01 -1.14514E-01 -9.11760E-02 -2.43240E-02  1.70690E-01  9.16591E-02 -5.61465E-02  2.85043E-02
   1.15588E-01  1.78683E-01  1.65812E-01  9.32950E-02 -1.43044E-01  2.77572E-02  3.05846E-01  1.66213E-01 -8.31729E-02 -1.40341E-01
   2.31758E-01  1.25870E-01 -2.00630E-01 -4.23252E-02  6.79253E-02  1.37163E-02 -3.39587E-01 -1.05654E-01  4.40810E-02 -1.06155E-02
   1.54877E-01 -2.45138E-02  2.47986E-02 -5.90215E-02
 NY points of the fit to the data follow
  -7.44003E-03  5.69420E-03  1.73762E-02  2.05526E-02  1.48122E-02 -1.19684E-04 -2.12230E-02 -4.49550E-02  4.26328E-03  3.97252E-02
   1.51885E-01  4.86260E-01  6.38164E-01  4.66576E-01  3.43068E-01  4.02628E-01  3.49223E-01  1.76562E-01  1.96092E-02  5.12003E-02
   1.31820E-02 -4.54297E-02 -5.60294E-02 -8.87869E-02 -1.13732E-01 -1.32283E-01 -1.48091E-01 -1.55719E-01 -1.65612E-01 -1.72548E-01
  -1.81963E-01 -1.91657E-01 -2.11730E-01 -2.48980E-01 -2.82690E-01 -3.17414E-01 -3.45241E-01 -3.29466E-01 -2.87692E-01 -1.24813E-01
   1.23833E-01  2.63589E-01  3.44013E-01  3.71616E-01  3.82173E-01  3.50743E-01  2.46941E-01  1.75408E-01  1.22581E-01  7.83288E-02
   4.61774E-02  2.24347E-02 -1.66958E-03 -2.52687E-02 -6.30897E-02 -1.04437E-01 -1.46661E-01 -1.88702E-01 -2.46994E-01 -2.83658E-01
  -3.33884E-01 -4.07198E-01 -2.44237E-01 -2.64476E-01 -2.95698E-01  2.30746E-02  1.00735E-01  1.91116E-01  2.48067E-01  3.33594E-01
   3.92317E-01  1.79316E-01  1.45088E-01  1.18713E-01  1.53030E-02 -5.23613E-02 -1.55122E-01 -2.31957E-01 -4.17710E-01 -5.46960E-01
  -3.28375E-01 -1.48022E-01 -5.98762E-03  1.43780E-01  3.10302E-01  4.15612E-01  3.06915E-01  2.63688E-01  2.46730E-01  1.87171E-01
   1.67713E-01  1.47117E-01  1.29666E-01  1.03822E-01  5.42285E-02  2.10423E-02 -1.14179E-01 -2.13641E-01 -3.57938E-01 -4.75931E-01
  -3.46627E-01 -2.64492E-01  2.37077E-02  1.41273E-01  2.53591E-01  2.74964E-01  2.43758E-01  2.56860E-01  2.33614E-01  2.27912E-01
   2.31611E-01  2.29129E-01  2.27926E-01  2.26706E-01  2.26848E-01  2.28342E-01  2.30380E-01  2.32881E-01  2.24146E-01  2.14609E-01
   2.04718E-01  1.01117E-01  6.36568E-02  3.38083E-02 -9.76735E-02 -7.92720E-02 -5.68304E-02 -1.56165E-01 -3.05153E-01 -4.60789E-01
  -5.31500E-01 -4.68907E-01 -4.36703E-01 -3.19433E-01 -2.94056E-01 -5.56772E-01 -9.82970E-01 -8.72141E-01 -6.00074E-01 -2.42473E-01
  -2.07715E-01 -1.09999E-01  2.74984E-02  8.72073E-03  2.77185E-02  5.07449E-02  7.27818E-02  9.36697E-02  1.11001E-01  1.28539E-01
   1.45215E-01  1.62193E-01  1.80066E-01  1.97551E-01  2.19798E-01  2.42859E-01  2.69329E-01  2.98143E-01  3.27800E-01  3.65241E-01
   4.17924E-01  4.93469E-01  6.14082E-01  8.04944E-01  8.00389E-01  1.08705E+00  8.74708E-01 -2.81020E-01 -9.30775E-01 -1.12077E+00
  -6.53051E-01 -6.31550E-01 -6.05892E-01 -3.90327E-01 -3.75612E-01 -3.57480E-01 -3.25367E-01 -2.98076E-01 -2.92336E-01 -3.06760E-01
  -2.62037E-01 -2.37183E-01 -2.30024E-01 -2.19478E-01 -2.37558E-01 -2.23809E-01 -2.30696E-01 -2.09564E-01 -2.05612E-01 -2.01478E-01
  -1.89293E-01 -1.73952E-01 -1.59682E-01 -1.49058E-01 -1.35779E-01 -1.25714E-01 -1.15445E-01 -1.05200E-01 -9.45899E-02 -8.49663E-02
  -7.30782E-02 -5.71120E-02 -4.50315E-02 -4.51668E-02 -5.55626E-02 -5.71225E-02 -4.27372E-02 -2.33859E-02 -2.88900E-02 -5.26500E-02
  -6.60063E-02 -6.52810E-02 -5.95471E-02 -5.56489E-02 -4.86349E-02 -3.85614E-02 -2.73452E-02 -2.52990E-02 -3.09892E-02 -3.59780E-02
  -3.09471E-02  5.45837E-03  3.02588E-02  7.98079E-02  2.21444E-01  3.07590E-01  3.07388E-01  2.18064E-01  2.13664E-01  4.19053E-01
   4.92372E-01  3.48945E-01  1.63955E-01  4.31155E-02  2.49456E-02 -4.03043E-02 -6.79916E-02 -5.26363E-02 -6.12977E-02 -6.96244E-02
  -8.02022E-02 -8.67318E-02 -8.90310E-02 -9.34463E-02 -9.12484E-02 -1.03374E-01 -9.75533E-02 -9.87658E-02 -9.64066E-02 -7.76361E-02
  -9.40762E-02 -8.90524E-02 -1.35886E-01 -1.19235E-01 -1.50576E-01 -1.32003E-01  6.58947E-02  4.10431E-02  7.52008E-02  1.24038E-01
   2.00789E-01  2.69735E-01  1.17205E-01  1.87911E-01  2.07776E-01  1.78156E-01  1.88896E-01  1.44175E-01  1.96948E-01  1.81812E-01
   1.64928E-01  1.52381E-01  9.84406E-02  7.46641E-02  2.91063E-02 -7.40218E-03 -4.65858E-02 -9.21491E-02 -1.49146E-01 -2.01784E-01
  -2.97784E-01 -3.54054E-01 -3.58137E-01 -3.17999E-01 -9.15003E-02  1.26389E-01  3.23671E-01  4.59294E-01  4.43085E-01  4.11494E-01
   2.95428E-01  2.13656E-01  1.89489E-01  1.33849E-01  1.50775E-01  1.99146E-01  2.22539E-01  2.83945E-01  2.79106E-01  2.92896E-01
   2.77426E-01  2.58077E-01  2.55850E-01  2.41428E-01  2.36019E-01  2.25062E-01  2.13655E-01  1.97891E-01  1.69427E-01  1.50705E-01
   1.18534E-01  9.23091E-02  8.29356E-02  4.25485E-02  2.59389E-02 -3.75882E-02 -9.68556E-02 -1.60342E-01 -2.37659E-01 -2.39273E-01
  -2.88409E-01 -2.64902E-01 -2.57504E-01 -2.11449E-01 -1.31362E-01 -7.25007E-02  3.80019E-02  7.67213E-02  1.49032E-01  1.26452E-01
   1.06752E-01  5.17672E-02 -3.08302E-02 -6.64482E-02 -1.24566E-01 -1.50920E-01 -2.32297E-01 -1.18598E-01 -1.47934E-01 -2.75367E-01
  -4.72311E-01 -1.56077E+00 -2.39311E+00 -1.92522E+00 -1.05770E+00 -3.24920E-01 -3.34017E-01 -8.16164E-02  1.14943E-01  3.88199E-03
  -1.76589E-04  1.16869E-02  2.51395E-02  3.58080E-02  4.64091E-02  5.64078E-02  6.79662E-02  6.32776E-02  6.76895E-02  4.24311E-02
   1.59603E-02 -8.58962E-03 -5.91234E-02 -5.88933E-02 -8.47817E-02 -5.71896E-02 -4.48615E-02 -2.24083E-02  2.73326E-03  1.39545E-02
   3.14235E-02  4.18294E-02  5.24010E-02  5.77995E-02  6.23958E-02  6.64211E-02  7.25728E-02  7.84466E-02  8.23005E-02  8.61225E-02
   8.80367E-02  9.26249E-02  9.69707E-02  1.01235E-01  1.03668E-01  1.05661E-01  1.05459E-01  1.08437E-01  1.12935E-01  1.17360E-01
   1.22422E-01  1.24654E-01  1.26029E-01  1.22949E-01  1.20030E-01  1.16948E-01  1.13880E-01  1.10709E-01  1.06512E-01  1.00095E-01
   9.30423E-02  8.61284E-02  7.80081E-02  6.80510E-02  6.02830E-02  5.42217E-02  4.83419E-02  3.99778E-02  3.39855E-02  2.82245E-02
   2.25107E-02  1.94044E-02  1.50686E-02  1.16325E-02  7.35405E-03  3.44243E-03 -1.20820E-05 -3.55288E-03 -6.07746E-03 -6.73136E-03
  -9.34319E-03 -1.08951E-02 -9.64396E-03 -7.83591E-03 -5.50629E-03 -1.86075E-03  2.92331E-03  9.43479E-03  1.68974E-02  2.49721E-02
   3.81769E-02  5.24239E-02  7.61496E-02  1.46935E-01  1.87173E-01  2.00961E-01  1.98763E-01  1.36925E-01  1.05280E-01  6.80057E-02
   8.26676E-02  9.50890E-02  9.99711E-02  1.22476E-01  1.35712E-01  1.49175E-01  1.60395E-01  1.69407E-01  1.74939E-01  1.75629E-01
   1.76440E-01  1.74028E-01  1.71421E-01  1.67437E-01  1.60461E-01  1.50210E-01  1.37266E-01  1.33276E-01  1.17700E-01  1.61905E-01
   2.17933E-01  2.42365E-01  2.73037E-01  2.11630E-01  1.78145E-01  1.16286E-01  9.41687E-02  8.29037E-02  6.00112E-02  5.97675E-02
   5.40548E-02  4.85609E-02  4.32157E-02  3.97664E-02  4.06947E-02  4.31770E-02  4.44411E-02  4.74199E-02  5.14338E-02  5.65137E-02
   6.23458E-02  6.84971E-02  7.54030E-02  7.86606E-02  8.17277E-02  8.40424E-02  8.49021E-02  8.65063E-02  8.95430E-02  9.37879E-02
   9.41233E-02  9.35741E-02  9.10382E-02  8.88427E-02  8.65471E-02  8.07750E-02  7.70394E-02  7.24509E-02  7.03270E-02  6.66979E-02
   6.20999E-02  5.90368E-02  5.45896E-02  5.03139E-02  4.62239E-02  4.09761E-02  3.63141E-02  3.39570E-02  3.21274E-02  2.92152E-02
   2.43655E-02  2.06759E-02  1.62072E-02  7.68087E-03 -1.43330E-03 -9.94947E-03 -1.85560E-02 -2.75000E-02 -4.09679E-02 -5.74189E-02
  -7.75381E-02 -9.80323E-02 -1.15754E-01 -1.34823E-01 -1.52917E-01 -1.70924E-01 -1.84907E-01 -1.97587E-01 -2.10155E-01 -2.20289E-01
  -2.23584E-01 -2.22239E-01 -2.21598E-01 -2.20245E-01 -2.13409E-01 -2.03720E-01 -1.95323E-01 -1.87824E-01 -1.80387E-01 -1.73562E-01
  -1.67212E-01 -1.56904E-01 -1.46932E-01 -1.36501E-01 -1.25272E-01 -1.11733E-01 -9.96373E-02 -8.93595E-02 -7.69688E-02 -6.67889E-02
  -5.77170E-02 -4.64647E-02 -3.62157E-02 -2.81965E-02 -2.27052E-02 -1.60293E-02 -5.48761E-03  8.77743E-04  2.69093E-03  7.15973E-03
   1.28231E-02  1.67227E-02  1.98282E-02  2.09215E-02  2.34896E-02  2.54820E-02  2.73029E-02  2.85515E-02  2.62847E-02  2.85243E-02
   3.22269E-02  3.42455E-02  3.70460E-02  4.00102E-02  4.25572E-02  4.12462E-02  4.12120E-02  4.21259E-02  4.08354E-02  4.06935E-02
   4.07812E-02  4.02831E-02  3.96113E-02  3.89037E-02  4.00109E-02  4.07683E-02  4.09151E-02  4.28120E-02  4.38019E-02  3.92968E-02
   3.40779E-02  3.43502E-02  3.69666E-02  3.77078E-02  3.46231E-02  3.50560E-02  3.67496E-02  3.39617E-02  3.15313E-02  3.08320E-02
   3.51079E-02  3.64992E-02  3.63796E-02  3.67934E-02  3.79085E-02  3.98705E-02  4.11268E-02  4.16940E-02  4.24266E-02  4.36586E-02
   4.41413E-02  4.18001E-02  3.86160E-02  3.94919E-02  4.00562E-02  4.17940E-02  4.27136E-02  4.46563E-02  4.60042E-02  4.43749E-02
   4.63960E-02  4.98562E-02  5.28792E-02  5.52072E-02  5.37551E-02  5.12990E-02  4.96487E-02  4.92580E-02  5.19498E-02  5.35281E-02
   5.27398E-02  5.15383E-02  5.12218E-02  5.10856E-02  5.26484E-02  5.29953E-02  5.20492E-02  5.18334E-02  5.45309E-02  5.75478E-02
   5.67103E-02  5.69861E-02  5.75448E-02  5.97662E-02  6.07609E-02  6.09469E-02  6.54248E-02  6.96767E-02  7.50808E-02  7.73402E-02
   7.80864E-02  8.14348E-02  8.24009E-02  8.45650E-02
 NY background values follow
    -3.941E-02   -3.882E-02   -3.824E-02   -3.765E-02   -3.706E-02   -3.647E-02   -3.588E-02   -3.530E-02   -3.471E-02   -3.412E-02
    -3.353E-02   -3.295E-02   -3.236E-02   -3.177E-02   -3.119E-02   -3.060E-02   -3.001E-02   -2.943E-02   -2.884E-02   -2.826E-02
    -2.768E-02   -2.709E-02   -2.651E-02   -2.593E-02   -2.535E-02   -2.476E-02   -2.418E-02   -2.360E-02   -2.303E-02   -2.245E-02
    -2.187E-02   -2.129E-02   -2.072E-02   -2.014E-02   -1.957E-02   -1.900E-02   -1.843E-02   -1.786E-02   -1.729E-02   -1.672E-02
    -1.615E-02   -1.558E-02   -1.502E-02   -1.446E-02   -1.389E-02   -1.333E-02   -1.277E-02   -1.221E-02   -1.166E-02   -1.110E-02
    -1.055E-02   -9.995E-03   -9.444E-03   -8.894E-03   -8.345E-03   -7.798E-03   -7.252E-03   -6.708E-03   -6.165E-03   -5.624E-03
    -5.084E-03   -4.545E-03   -4.008E-03   -3.472E-03   -2.938E-03   -2.406E-03   -1.875E-03   -1.345E-03   -8.175E-04   -2.912E-04
