 LCModel (Version 6.3-1N) Copyright: S.W. Provencher.          Ref.: Magn. Reson. Med. 30:672-679 (1993).                
 Slice_N1@22_23  02-Jun-2023 14:37:47
 27 lines in following concentration table = NCONC+1
    Conc.  %SD /Cr+PCr  Metabolite                                         
 2.02E-06  18% 3.3E-04 Mac                                                 
 1.65E-02  94%   2.653 Cr                                                  
 3.32E-02  47%   5.347 PCr                                                 
 6.26E-02  15%  10.086 Ins                                                 
 8.82E-02  10%  14.215 NAA                                                 
 6.16E-02  14%   9.938 Tau                                                 
 1.17E-02  20%   1.893 PCho                                                
    0.000 999%   0.000 GPC                                                 
 8.01E-02  13%  12.913 Glu                                                 
 1.73E-02  40%   2.794 Gln                                                 
    0.000 999%   0.000 Ala                                                 
 7.29E-03 168%   1.175 Asc                                                 
 6.81E-03 100%   1.098 Asp                                                 
 9.92E-03  38%   1.600 GABA                                                
 8.97E-03  49%   1.446 Glc                                                 
 7.49E-03  49%   1.207 GSH                                                 
    0.000 999%   0.000 Lac                                                 
 7.70E-03  71%   1.241 NAAG                                                
    0.000 999%   0.000 PE                                                  
 1.17E-02  20%   1.893 GPC+PCho                                            
 9.59E-02   9%  15.455 NAA+NAAG                                            
 9.74E-02  12%  15.707 Glu+Gln                                             
 4.96E-02  13%   8.000 Cr+PCr                                              
 9.59E-02   9%  15.455 NAA+NAAG                                            
 4.96E-02  13%   8.000 Cr+PCr                                              
 9.74E-02  12%  15.707 Glu+Gln                                             
   6 lines in following misc. output table
  FWHM = 0.041 ppm    S/N =   3                                            
  Data shift = 0.047 ppm                                                   
  Ph:  53 deg      -2.8 deg/ppm                                            
  alphaB,S = 3.1E+01,   1.6E+01                                            
   18 spline knots.   Ns = 7(1)                                            
   2 inflections.     2 extrema                                            
  654 points on ppm-axis = NY
      4.000000     3.994181     3.988363     3.982544     3.976726     3.970907     3.965088     3.959270     3.953451     3.947633
      3.941814     3.935995     3.930177     3.924358     3.918540     3.912721     3.906902     3.901084     3.895265     3.889446
      3.883628     3.877809     3.871991     3.866172     3.860353     3.854535     3.848716     3.842898     3.837079     3.831260
      3.825442     3.819623     3.813805     3.807986     3.802167     3.796349     3.790530     3.784712     3.778893     3.773074
      3.767256     3.761437     3.755619     3.749800     3.743981     3.738163     3.732344     3.726526     3.720707     3.714888
      3.709070     3.703251     3.697433     3.691614     3.685795     3.679977     3.674158     3.668339     3.662521     3.656702
      3.650884     3.645065     3.639246     3.633428     3.627609     3.621791     3.615972     3.610153     3.604335     3.598516
      3.592698     3.586879     3.581060     3.575242     3.569423     3.563605     3.557786     3.551967     3.546149     3.540330
      3.534512     3.528693     3.522874     3.517056     3.511237     3.505419     3.499600     3.493781     3.487963     3.482144
      3.476326     3.470507     3.464688     3.458870     3.453051     3.447232     3.441414     3.435595     3.429777     3.423958
      3.418139     3.412321     3.406502     3.400684     3.394865     3.389046     3.383228     3.377409     3.371591     3.365772
      3.359953     3.354135     3.348316     3.342498     3.336679     3.330860     3.325042     3.319223     3.313405     3.307586
      3.301767     3.295949     3.290130     3.284312     3.278493     3.272674     3.266856     3.261037     3.255219     3.249400
      3.243581     3.237763     3.231944     3.226125     3.220307     3.214488     3.208670     3.202851     3.197032     3.191214
      3.185395     3.179577     3.173758     3.167939     3.162121     3.156302     3.150484     3.144665     3.138846     3.133028
      3.127209     3.121391     3.115572     3.109753     3.103935     3.098116     3.092298     3.086479     3.080660     3.074842
      3.069023     3.063205     3.057386     3.051567     3.045749     3.039930     3.034111     3.028293     3.022474     3.016656
      3.010837     3.005018     2.999200     2.993381     2.987563     2.981744     2.975925     2.970107     2.964288     2.958470
      2.952651     2.946832     2.941014     2.935195     2.929377     2.923558     2.917739     2.911921     2.906102     2.900284
      2.894465     2.888646     2.882828     2.877009     2.871191     2.865372     2.859553     2.853735     2.847916     2.842098
      2.836279     2.830460     2.824642     2.818823     2.813004     2.807186     2.801367     2.795549     2.789730     2.783911
      2.778093     2.772274     2.766456     2.760637     2.754818     2.749000     2.743181     2.737363     2.731544     2.725725
      2.719907     2.714088     2.708270     2.702451     2.696632     2.690814     2.684995     2.679177     2.673358     2.667539
      2.661721     2.655902     2.650084     2.644265     2.638446     2.632628     2.626809     2.620991     2.615172     2.609353
      2.603535     2.597716     2.591897     2.586079     2.580260     2.574442     2.568623     2.562804     2.556986     2.551167
      2.545349     2.539530     2.533711     2.527893     2.522074     2.516256     2.510437     2.504618     2.498800     2.492981
      2.487163     2.481344     2.475525     2.469707     2.463888     2.458070     2.452251     2.446432     2.440614     2.434795
      2.428977     2.423158     2.417339     2.411521     2.405702     2.399884     2.394065     2.388246     2.382428     2.376609
      2.370790     2.364972     2.359153     2.353335     2.347516     2.341697     2.335879     2.330060     2.324242     2.318423
      2.312604     2.306786     2.300967     2.295149     2.289330     2.283511     2.277693     2.271874     2.266056     2.260237
      2.254418     2.248600     2.242781     2.236963     2.231144     2.225325     2.219507     2.213688     2.207870     2.202051
      2.196232     2.190414     2.184595     2.178777     2.172958     2.167139     2.161321     2.155502     2.149683     2.143865
      2.138046     2.132228     2.126409     2.120590     2.114772     2.108953     2.103135     2.097316     2.091497     2.085679
      2.079860     2.074042     2.068223     2.062404     2.056586     2.050767     2.044949     2.039130     2.033311     2.027493
      2.021674     2.015856     2.010037     2.004218     1.998400     1.992581     1.986763     1.980944     1.975126     1.969307
      1.963489     1.957670     1.951852     1.946033     1.940215     1.934397     1.928578     1.922760     1.916941     1.911123
      1.905304     1.899486     1.893667     1.887849     1.882030     1.876212     1.870393     1.864575     1.858756     1.852938
      1.847119     1.841301     1.835482     1.829664     1.823845     1.818027     1.812208     1.806390     1.800571     1.794753
      1.788934     1.783116     1.777297     1.771479     1.765660     1.759842     1.754023     1.748205     1.742386     1.736568
      1.730749     1.724931     1.719113     1.713294     1.707476     1.701657     1.695839     1.690020     1.684202     1.678383
      1.672565     1.666746     1.660928     1.655109     1.649291     1.643472     1.637654     1.631835     1.626017     1.620198
      1.614380     1.608561     1.602743     1.596924     1.591106     1.585287     1.579469     1.573650     1.567832     1.562013
      1.556195     1.550376     1.544558     1.538739     1.532921     1.527102     1.521284     1.515465     1.509647     1.503829
      1.498010     1.492192     1.486373     1.480555     1.474736     1.468918     1.463099     1.457281     1.451462     1.445644
      1.439825     1.434007     1.428188     1.422370     1.416551     1.410733     1.404914     1.399096     1.393277     1.387459
      1.381640     1.375822     1.370003     1.364185     1.358366     1.352548     1.346729     1.340911     1.335092     1.329274
      1.323455     1.317637     1.311818     1.306000     1.300182     1.294363     1.288545     1.282726     1.276908     1.271089
      1.265271     1.259452     1.253634     1.247815     1.241997     1.236178     1.230360     1.224541     1.218723     1.212904
      1.207086     1.201267     1.195449     1.189630     1.183812     1.177993     1.172175     1.166356     1.160538     1.154719
      1.148901     1.143082     1.137264     1.131445     1.125627     1.119808     1.113990     1.108171     1.102353     1.096534
      1.090716     1.084898     1.079079     1.073261     1.067442     1.061624     1.055805     1.049987     1.044168     1.038350
      1.032531     1.026713     1.020894     1.015076     1.009257     1.003439     0.997620     0.991802     0.985983     0.980165
      0.974346     0.968528     0.962709     0.956891     0.951072     0.945254     0.939435     0.933617     0.927798     0.921980
      0.916161     0.910343     0.904524     0.898706     0.892887     0.887069     0.881251     0.875432     0.869614     0.863795
      0.857977     0.852158     0.846340     0.840521     0.834703     0.828884     0.823066     0.817247     0.811429     0.805610
      0.799792     0.793973     0.788155     0.782336     0.776518     0.770699     0.764881     0.759062     0.753244     0.747425
      0.741607     0.735788     0.729970     0.724151     0.718333     0.712514     0.706696     0.700877     0.695059     0.689240
      0.683422     0.677603     0.671785     0.665967     0.660148     0.654330     0.648511     0.642693     0.636874     0.631056
      0.625237     0.619419     0.613600     0.607782     0.601963     0.596145     0.590326     0.584508     0.578689     0.572871
      0.567052     0.561234     0.555415     0.549597     0.543778     0.537960     0.532141     0.526323     0.520504     0.514686
      0.508867     0.503049     0.497230     0.491412     0.485593     0.479775     0.473956     0.468138     0.462319     0.456501
      0.450682     0.444864     0.439045     0.433227     0.427408     0.421590     0.415771     0.409953     0.404134     0.398316
      0.392497     0.386679     0.380860     0.375042     0.369223     0.363405     0.357586     0.351767     0.345949     0.340130
      0.334312     0.328493     0.322675     0.316856     0.311038     0.305219     0.299401     0.293582     0.287764     0.281945
      0.276127     0.270308     0.264490     0.258671     0.252853     0.247034     0.241216     0.235397     0.229579     0.223760
      0.217942     0.212123     0.206305     0.200486
 NY phased data points follow
  -2.24598E-01 -3.02209E-01 -4.20113E-01 -4.31153E-03 -1.08955E-01 -4.28262E-01 -2.26215E-01 -2.62136E-01 -2.44404E-02 -2.13735E-01
  -6.46529E-03 -3.74417E-02  1.05332E-01  3.69640E-01  2.16052E-01  3.12750E-01  3.05201E-01  4.07657E-01  4.36401E-01  2.25313E-01
   1.45335E-01 -1.05509E-01  1.33440E-01 -6.69904E-02 -6.64054E-02  1.58287E-01 -3.26016E-01 -1.97637E-01 -2.48321E-01 -9.13021E-03
  -1.89106E-01 -2.78730E-01 -1.10246E-01  1.13097E-02  4.76807E-02 -1.46141E-01 -1.91284E-01 -2.22906E-01 -7.78229E-02 -6.30362E-01
  -2.71309E-01 -7.26631E-02 -3.76800E-01 -7.50765E-02  3.77825E-01  2.35627E-01  6.08032E-02  4.17300E-01  4.22576E-01  5.59932E-01
   4.38719E-01  6.56020E-02  2.26503E-01  5.85768E-01  2.25570E-02  1.69450E-01  2.66239E-01 -9.81124E-02 -2.02635E-01 -3.48528E-01
  -1.37079E-01 -1.66692E-01 -3.22658E-01 -3.70173E-01 -1.52394E-01 -3.19357E-01 -1.58436E-01 -1.12117E-01 -7.58137E-02 -9.47089E-02
   5.58012E-02  3.65567E-01  2.67247E-01  3.83383E-01  1.74095E-01  2.24996E-01  1.30121E-01 -8.56930E-02 -2.33379E-01 -2.29983E-01
  -5.43142E-01 -3.72460E-01 -1.79320E-01 -1.93012E-01  1.73810E-01 -7.07889E-02  1.29927E-01 -1.09363E-02  1.66928E-01  4.17997E-01
   2.50138E-01  2.10913E-01 -2.44370E-01 -8.40061E-02  6.05570E-02  2.46989E-02  3.17267E-01 -4.02996E-02 -3.57962E-02  9.84231E-03
  -4.95115E-01 -3.05341E-01 -2.18196E-01 -8.63699E-02 -2.20940E-02 -6.76223E-02  1.27632E-01  3.21945E-02  4.09471E-02  4.27169E-01
   2.58886E-01  2.44721E-01  5.47615E-01  4.65292E-01  5.63833E-01  3.59500E-01  5.19442E-01  5.12599E-01  5.36671E-01  4.24537E-01
   1.06556E-01  2.74201E-01 -5.22934E-02  1.40645E-01  2.74246E-01  1.25415E-01  2.01495E-01  9.15610E-02 -9.42138E-02 -3.19361E-01
  -3.72336E-01 -3.70366E-01 -4.21886E-01 -4.34880E-01 -4.65173E-01 -8.89332E-01 -1.03105E+00 -5.95177E-01 -5.01847E-01 -5.61600E-01
  -4.10515E-01 -6.58143E-01 -5.97863E-01 -1.24854E-01 -3.12612E-01 -1.48059E-01 -1.28619E-01  2.68168E-03  3.00194E-01 -2.70530E-02
   1.16273E-01  3.81676E-02 -1.23302E-01 -1.00685E-02  3.49734E-01 -2.84405E-01 -2.24070E-01  2.43132E-01 -7.69591E-02  3.63519E-01
  -2.41747E-01  1.19222E-01  4.08538E-01  6.28904E-01  8.86388E-01  9.37337E-01  1.18385E+00  3.63450E-01  6.33013E-01  2.91587E-01
   4.33360E-02 -1.71476E-01 -2.87608E-01 -3.59755E-01 -2.77658E-01  3.76031E-02 -8.36877E-01 -4.25944E-01 -3.61698E-01 -6.76192E-01
  -5.35280E-01 -5.51364E-01 -2.12569E-01 -2.38376E-01 -3.38600E-01  2.16617E-02  4.17120E-02 -8.05041E-02 -5.10231E-01 -5.52353E-01
  -1.57002E-01 -4.05211E-01 -1.37678E-01 -2.07948E-01 -4.96476E-01 -3.64441E-01  2.73408E-01 -1.36765E-01 -4.91517E-01 -5.28984E-02
  -1.88652E-01 -5.27897E-02 -2.90648E-01 -1.06033E-01 -1.52288E-01 -8.82079E-02  1.87041E-01  1.58523E-01 -9.64881E-02  7.28655E-02
   9.04210E-02 -3.28200E-01  2.25608E-01 -6.44004E-02  2.52817E-02  7.74366E-02 -2.55969E-02  2.69090E-01  5.26051E-02  1.81788E-02
  -2.60518E-02  5.86010E-03 -9.54638E-02 -1.12379E-01 -2.36545E-01 -2.26837E-01  1.29361E-01  6.52119E-01  7.32478E-01  2.41349E-01
   3.77559E-02  3.01967E-01  3.98636E-01  3.51399E-01  4.00114E-01  9.53680E-03 -6.67053E-03  3.49983E-01  3.36455E-01 -4.52844E-02
   1.50885E-02  1.12938E-01 -2.33283E-01 -2.51376E-01 -1.00307E-01 -5.46110E-02 -1.22532E-01  1.29875E-01 -1.28196E-03 -3.19554E-01
   1.57547E-01  3.86063E-02 -2.93769E-01  1.80887E-02  4.46924E-02  1.19794E-01 -1.66973E-02  5.64529E-02  1.65327E-01 -3.94832E-01
  -1.88224E-01  1.77762E-01  2.09290E-01  3.64740E-01  6.83814E-02 -1.10542E-01  2.10746E-01  2.14430E-01  2.12306E-01  3.73682E-01
   2.18547E-01  2.14816E-01  2.07125E-01  1.73936E-02  5.90557E-02  3.38956E-02  3.45994E-02 -1.26485E-01  1.81067E-01  2.95404E-02
  -7.42349E-01 -1.17654E-01 -3.11099E-01 -5.79801E-01 -3.44583E-01 -1.47890E-01  3.14503E-01  1.44086E-01  1.40012E-01  1.96377E-01
   5.89479E-01  5.89651E-01  4.42466E-01  7.05875E-01  5.38749E-01  2.85886E-01  4.14903E-01 -3.85383E-02 -9.88445E-02 -6.21139E-03
  -3.25629E-01  1.29297E-01  2.01345E-01  3.72279E-01  2.09169E-01  3.41385E-01  2.84983E-01  2.97090E-01  4.38158E-01  1.79557E-01
   4.08821E-01  3.93766E-01  6.65931E-01  2.90908E-01  3.27888E-01  2.62566E-01 -4.78585E-02  1.96115E-02  3.29514E-01  2.81323E-01
  -3.02661E-01 -1.29986E-01 -4.64788E-02 -1.68353E-01 -3.73266E-01 -2.63382E-01 -5.72107E-01 -3.35815E-01 -3.03719E-02  9.77544E-02
   4.36278E-01  4.46522E-01  3.81305E-01  2.05659E-01  2.04241E-01  1.33088E-01  3.38688E-01  3.81247E-01  1.32759E-01 -6.94612E-01
  -5.25980E-01 -6.50531E-01 -9.41300E-01 -1.07898E+00 -1.41557E+00 -1.33453E+00 -1.74380E+00 -9.42789E-01 -7.43836E-01 -5.90023E-01
  -3.54429E-01 -1.60298E-01 -8.68361E-02 -1.06999E-01  3.98852E-01  2.75479E-01  8.86555E-02  3.75512E-02  3.55786E-01  1.45067E-01
   1.55604E-01  9.19208E-02 -6.03029E-02 -6.64561E-02 -1.89427E-01 -3.51065E-01 -1.24356E-01 -1.29361E-01 -1.76025E-01  1.52784E-01
  -2.03383E-01 -1.43236E-02 -8.00143E-02  2.57116E-01 -1.32639E-01 -3.46909E-01  1.92729E-01 -1.73176E-01  1.40122E-01  4.54389E-01
   2.78520E-01  2.49679E-01  1.83843E-01  9.52536E-03  1.21602E-01 -3.07936E-01  4.49319E-02  2.70945E-01  2.06906E-01  3.19198E-01
   9.66908E-02  2.16963E-01  2.10632E-01  6.90757E-02 -5.01445E-02  2.72120E-01  9.25499E-02  5.01765E-01  3.52791E-01  1.89346E-01
   2.92265E-01  1.77615E-02  2.14842E-01  1.71073E-01  2.99876E-01 -8.47567E-02  9.38981E-02  1.23321E-01  4.29282E-01  3.04300E-01
  -2.33681E-01  1.23006E-01 -3.77667E-02 -1.77442E-01  4.08285E-02  7.16324E-02 -9.11034E-02  9.75580E-02 -2.80412E-01 -2.70178E-01
  -1.53689E-01  1.77179E-02 -1.58053E-01 -4.03148E-01 -4.26266E-02 -2.96572E-01 -2.77401E-01 -7.61252E-02  4.30292E-01 -2.72734E-02
  -2.14691E-01  1.34182E-01 -1.09457E-01 -3.47414E-01 -4.27489E-01  3.29603E-02  5.45852E-02 -1.36996E-01 -2.73070E-01 -1.36379E-01
  -1.02024E-01  1.41904E-02  1.99226E-01  1.15198E-01 -1.76803E-01 -9.84740E-03  2.62830E-01  1.31228E-01  3.45550E-01  1.14422E-01
   4.81256E-01  5.53365E-01  2.91996E-01  2.79956E-01  1.07208E-02  5.18071E-01  3.07202E-01 -1.69027E-01  7.02956E-02  1.96572E-01
   3.17274E-01  3.31995E-01  1.95483E-02  7.38027E-02  2.63006E-01 -3.02618E-02 -2.39288E-01 -2.47426E-01  1.00547E-02 -2.39347E-01
  -5.45960E-01 -2.98682E-01 -3.60466E-01 -4.56540E-01 -4.11179E-01 -2.85995E-01 -5.36853E-01 -1.77963E-01  5.66931E-02 -2.10055E-01
   1.56216E-01  8.22823E-02  1.02182E-01  1.83757E-01  1.02810E-01  1.88275E-02  2.03337E-01 -4.14122E-03 -2.06422E-02  2.47122E-01
  -2.80266E-03 -1.46285E-01 -2.27686E-01  1.14867E-01 -2.42590E-02  8.10372E-02 -1.08495E-01 -1.67417E-01 -2.48200E-02  1.21296E-01
   1.55880E-01  2.73082E-02  3.43174E-01 -8.69139E-02  4.56628E-01  8.11649E-02  2.02736E-02  1.82932E-01 -1.54948E-01  1.58958E-01
   4.44389E-02  2.74796E-01  1.33007E-01  2.07653E-01 -1.23790E-01  7.91327E-02 -1.72736E-02  2.04553E-02  1.73137E-01 -4.72768E-02
   7.97922E-02 -3.11760E-01  2.03721E-01  6.19869E-02 -1.11822E-02 -1.70267E-01 -3.91343E-01 -1.27522E-01 -2.88927E-01 -6.05665E-01
  -5.02288E-01  1.27906E-01 -4.61446E-01 -4.45549E-01  7.41067E-02 -5.05787E-01 -5.55604E-01  4.08464E-02 -4.23011E-02 -2.27938E-01
   2.06472E-01  9.36145E-02 -2.75025E-01 -2.96648E-01 -1.85488E-01  4.59570E-03 -1.97578E-01  3.02689E-02 -1.74245E-01 -1.44687E-01
   4.23203E-01 -9.85392E-02  1.30296E-01  2.27927E-01  1.86871E-01  2.88459E-01  1.05336E-01  1.93918E-01  2.01432E-01  2.27196E-01
   8.76806E-02  1.34985E-01  2.10718E-01  2.28682E-01  7.56254E-02  8.79804E-02  1.15255E-02  1.01880E-02  2.70131E-01  5.15883E-02
  -1.38303E-01 -9.67714E-02 -1.75235E-01 -3.42300E-01  2.03338E-01  3.44782E-01 -2.68163E-01 -1.21483E-01 -5.67434E-02  2.61746E-01
   1.02909E-01 -2.15642E-01  5.04816E-01  7.71617E-03 -8.55146E-02  2.01612E-01  1.10160E-01  1.37613E-01 -6.49858E-02  7.41985E-02
   5.01819E-02  3.17378E-02  1.48556E-01  1.02012E-01 -1.86256E-01  1.36423E-01  1.91864E-01 -1.56291E-01 -3.09406E-01  1.71171E-02
  -1.67500E-01 -4.18512E-01  9.00534E-02  1.06166E-01  1.16274E-01  6.12413E-03  1.54931E-01 -7.68635E-02  6.65578E-02 -1.36235E-01
   5.84965E-02  3.80201E-01 -4.24173E-02 -9.09027E-02 -2.80091E-01  2.58261E-01 -1.36640E-01 -1.23987E-01 -3.20048E-02 -1.50870E-01
  -5.43593E-02 -8.25690E-02 -4.19173E-03  1.59207E-01  5.11491E-01  1.36174E-01  7.03658E-02 -1.59345E-01 -1.59911E-01 -1.13206E-01
   6.24481E-02 -4.44872E-03  1.14555E-01 -8.25242E-02 -3.54511E-01  2.14323E-01 -6.14024E-02 -1.62197E-01 -1.69080E-01 -7.08896E-02
  -8.50371E-02 -4.81819E-02 -1.94507E-01  1.14592E-01  2.58973E-01  8.19467E-02  4.18867E-01  1.19860E-01  1.35356E-02  2.56992E-01
   2.91255E-01  3.23565E-02  3.08589E-01 -7.15290E-02
 NY points of the fit to the data follow
   3.37509E-02  4.09376E-02  4.51222E-02  4.58604E-02  4.09401E-02  1.50695E-02 -3.29865E-02 -6.78892E-02 -7.47537E-02 -3.01551E-02
   4.00144E-02  1.17135E-01  2.10632E-01  2.86080E-01  3.58642E-01  4.11551E-01  4.34167E-01  4.20419E-01  3.63758E-01  2.99679E-01
   2.15700E-01  1.40094E-01  9.22802E-02  4.63034E-02  1.85147E-02 -3.97110E-03 -2.47016E-02 -4.16509E-02 -5.36159E-02 -6.10362E-02
  -6.55142E-02 -6.90391E-02 -7.50465E-02 -9.69399E-02 -1.37363E-01 -1.87099E-01 -2.41139E-01 -2.79682E-01 -3.09033E-01 -3.09168E-01
  -2.67225E-01 -1.91023E-01 -8.17381E-02  2.76098E-02  1.36465E-01  2.26632E-01  2.91721E-01  3.33353E-01  3.33432E-01  3.13174E-01
   2.72932E-01  2.24578E-01  1.85259E-01  1.49217E-01  1.22912E-01  9.52402E-02  4.95813E-02 -1.09689E-02 -6.13587E-02 -1.27048E-01
  -1.96074E-01 -2.70439E-01 -3.32492E-01 -3.43175E-01 -3.45068E-01 -3.00709E-01 -2.11274E-01 -1.09217E-01  2.49853E-03  1.01586E-01
   2.06770E-01  2.73463E-01  3.26049E-01  3.79305E-01  3.43488E-01  2.57416E-01  1.37467E-01 -6.76383E-03 -1.23923E-01 -2.31696E-01
  -3.02265E-01 -3.19504E-01 -2.95827E-01 -2.25338E-01 -1.23066E-01  3.04177E-03  1.19214E-01  2.17101E-01  2.94152E-01  3.18417E-01
   3.25517E-01  3.29945E-01  3.23297E-01  3.12212E-01  2.69129E-01  1.84840E-01  6.24138E-02 -7.18552E-02 -1.84064E-01 -2.70396E-01
  -3.20666E-01 -3.40067E-01 -3.21162E-01 -2.56785E-01 -1.58033E-01 -3.71034E-02  7.47509E-02  1.60820E-01  2.14920E-01  2.36913E-01
   2.44137E-01  2.41822E-01  2.39267E-01  2.37535E-01  2.36353E-01  2.41799E-01  2.52158E-01  2.59149E-01  2.72725E-01  2.76321E-01
   2.68748E-01  2.67700E-01  2.52857E-01  2.71841E-01  2.54465E-01  1.90524E-01  8.92586E-02 -7.06189E-02 -2.04397E-01 -2.88310E-01
  -2.87241E-01 -2.87411E-01 -3.68511E-01 -4.84742E-01 -5.82168E-01 -6.07877E-01 -5.95740E-01 -5.97061E-01 -6.05811E-01 -6.28420E-01
  -6.15234E-01 -5.31218E-01 -4.06976E-01 -2.88109E-01 -1.63955E-01 -8.57246E-02 -4.01039E-02 -6.90368E-03  1.93841E-02  4.08557E-02
   5.87322E-02  7.37240E-02  8.71809E-02  9.94691E-02  1.10769E-01  1.20662E-01  1.28133E-01  1.32884E-01  1.32144E-01  1.18286E-01
   9.33867E-02  1.88125E-01  3.90050E-01  6.25897E-01  7.54303E-01  7.02500E-01  6.35488E-01  5.36097E-01  4.24584E-01  2.62380E-01
   2.71783E-02 -2.17549E-01 -4.47223E-01 -5.33480E-01 -5.40207E-01 -5.15399E-01 -4.26376E-01 -3.79126E-01 -3.44928E-01 -3.18240E-01
  -2.91865E-01 -2.71540E-01 -2.54387E-01 -2.39082E-01 -2.25242E-01 -2.12759E-01 -2.02999E-01 -1.94188E-01 -1.86645E-01 -1.79726E-01
  -1.71921E-01 -1.63841E-01 -1.55843E-01 -1.47696E-01 -1.39432E-01 -1.31829E-01 -1.24696E-01 -1.16077E-01 -1.05580E-01 -9.41539E-02
  -8.55768E-02 -7.97024E-02 -7.36008E-02 -6.50460E-02 -5.44972E-02 -4.68808E-02 -4.36555E-02 -4.37328E-02 -4.51005E-02 -4.59995E-02
  -4.83870E-02 -5.16992E-02 -5.46647E-02 -5.55995E-02 -5.37538E-02 -5.22510E-02 -5.16225E-02 -5.37598E-02 -6.82252E-02 -9.06826E-02
  -9.81311E-02 -7.64775E-02 -4.39925E-02 -2.84208E-02 -1.66809E-02  2.82449E-02  1.15386E-01  2.12519E-01  2.85671E-01  3.26245E-01
   3.36721E-01  3.29489E-01  3.14335E-01  2.81871E-01  2.26820E-01  1.59847E-01  9.29320E-02  3.19377E-02 -1.28285E-02 -3.75270E-02
  -5.25407E-02 -6.42352E-02 -7.40331E-02 -8.25007E-02 -8.97148E-02 -9.58873E-02 -9.83634E-02 -9.91079E-02 -9.71325E-02 -1.05096E-01
  -1.27817E-01 -1.49429E-01 -1.72037E-01 -1.80995E-01 -1.96066E-01 -2.05329E-01 -1.84056E-01 -1.56648E-01 -1.11258E-01 -6.95719E-02
  -2.11463E-02  3.63518E-02  7.09573E-02  1.04696E-01  1.17682E-01  1.23245E-01  1.34753E-01  1.34744E-01  1.44569E-01  1.40330E-01
   1.37343E-01  1.38549E-01  1.27241E-01  1.19887E-01  1.12949E-01  9.31921E-02  6.09200E-02  1.36021E-03 -9.13492E-02 -1.98308E-01
  -3.13972E-01 -4.08614E-01 -4.59558E-01 -4.67873E-01 -4.15112E-01 -3.22899E-01 -1.95975E-01 -4.89329E-02  9.49946E-02  2.25188E-01
   3.06371E-01  3.45230E-01  3.44551E-01  3.11043E-01  2.75927E-01  2.42635E-01  2.18512E-01  2.09534E-01  2.08282E-01  2.13583E-01
   2.22411E-01  2.28256E-01  2.33593E-01  2.34793E-01  2.31925E-01  2.29005E-01  2.20562E-01  2.11265E-01  1.97557E-01  1.82392E-01
   1.69899E-01  1.57523E-01  1.49567E-01  1.37272E-01  1.25091E-01  1.06810E-01  8.23772E-02  5.11758E-02  2.94537E-03 -5.56674E-02
  -1.30314E-01 -2.06245E-01 -2.69563E-01 -3.08950E-01 -3.15097E-01 -2.93291E-01 -2.40795E-01 -1.77131E-01 -1.01015E-01 -2.97907E-02
   3.71291E-02  7.76250E-02  6.94871E-02  2.33142E-02 -3.07119E-02  1.18573E-01  3.02984E-01  3.62829E-01  1.47434E-01 -2.94388E-01
  -5.87309E-01 -8.38520E-01 -1.02357E+00 -1.21349E+00 -1.41634E+00 -1.48710E+00 -1.44521E+00 -1.14984E+00 -8.23231E-01 -5.48804E-01
  -2.71580E-01 -1.66812E-01 -1.10018E-01 -7.15384E-02 -4.08380E-02 -1.58903E-02  6.97679E-03  2.49220E-02  3.78892E-02  4.48901E-02
   4.21268E-02  3.45568E-02  1.96300E-02  2.63916E-03 -1.53320E-02 -3.29579E-02 -4.53814E-02 -5.42923E-02 -5.46335E-02 -4.88696E-02
  -3.91985E-02 -2.57951E-02 -1.37972E-02 -1.24211E-03  9.60522E-03  1.94420E-02  2.76956E-02  3.44132E-02  3.98888E-02  4.49919E-02
   5.00056E-02  5.48522E-02  5.92928E-02  6.29200E-02  6.57823E-02  6.84707E-02  7.12851E-02  7.43533E-02  7.79433E-02  8.16391E-02
   8.52713E-02  8.88105E-02  9.21976E-02  9.55927E-02  9.85656E-02  1.00980E-01  1.02256E-01  1.02490E-01  1.02010E-01  1.00582E-01
   9.82333E-02  9.49878E-02  9.11971E-02  8.66727E-02  8.15499E-02  7.56603E-02  6.93434E-02  6.28946E-02  5.65759E-02  5.08582E-02
   4.53956E-02  4.02448E-02  3.55005E-02  3.08711E-02  2.66014E-02  2.27570E-02  1.92907E-02  1.58125E-02  1.22077E-02  8.74951E-03
   5.47770E-03  2.50607E-03 -1.51953E-04 -2.48228E-03 -4.12269E-03 -4.39648E-03 -3.24809E-03 -1.16498E-03  9.45686E-04  2.79415E-03
   5.03280E-03  7.67994E-03  1.07798E-02  1.40620E-02  1.67578E-02  1.93045E-02  2.22181E-02  2.61099E-02  3.11606E-02  3.69460E-02
   4.33942E-02  5.04153E-02  5.83737E-02  6.79439E-02  7.88832E-02  9.08418E-02  1.03132E-01  1.15137E-01  1.26630E-01  1.37212E-01
   1.46899E-01  1.55644E-01  1.62985E-01  1.68730E-01  1.72222E-01  1.73519E-01  1.73093E-01  1.71082E-01  1.67661E-01  1.62286E-01
   1.55114E-01  1.46465E-01  1.37185E-01  1.27828E-01  1.18439E-01  1.09175E-01  1.00230E-01  9.17815E-02  8.35724E-02  7.54874E-02
   6.78108E-02  6.05427E-02  5.42406E-02  4.87417E-02  4.38509E-02  3.99045E-02  3.69250E-02  3.52334E-02  3.51706E-02  3.66513E-02
   3.94543E-02  4.31204E-02  4.74406E-02  5.17684E-02  5.59374E-02  6.04428E-02  6.49655E-02  6.94398E-02  7.33501E-02  7.68267E-02
   8.00276E-02  8.29121E-02  8.55590E-02  8.72184E-02  8.81251E-02  8.81118E-02  8.73216E-02  8.59179E-02  8.37631E-02  8.15364E-02
   7.90892E-02  7.65426E-02  7.37934E-02  7.05107E-02  6.72776E-02  6.41152E-02  6.09848E-02  5.80004E-02  5.54079E-02  5.33044E-02
   5.13828E-02  4.93074E-02  4.71497E-02  4.50233E-02  4.30428E-02  4.12549E-02  3.86372E-02  3.47981E-02  2.96211E-02  2.31354E-02
   1.53561E-02  5.60184E-03 -5.96750E-03 -1.92673E-02 -3.41642E-02 -5.04699E-02 -6.78189E-02 -8.50170E-02 -1.01437E-01 -1.16935E-01
  -1.31308E-01 -1.44152E-01 -1.54525E-01 -1.62058E-01 -1.66579E-01 -1.68596E-01 -1.68756E-01 -1.67361E-01 -1.64593E-01 -1.60722E-01
  -1.56376E-01 -1.51545E-01 -1.46157E-01 -1.40403E-01 -1.33859E-01 -1.26572E-01 -1.18636E-01 -1.10143E-01 -1.00982E-01 -9.09402E-02
  -8.11602E-02 -7.19179E-02 -6.27640E-02 -5.35874E-02 -4.45043E-02 -3.59368E-02 -2.81220E-02 -2.07985E-02 -1.37965E-02 -7.20028E-03
  -1.16848E-03  4.11230E-03  9.01086E-03  1.35356E-02  1.74538E-02  2.06216E-02  2.28155E-02  2.48186E-02  2.64122E-02  2.76910E-02
   2.94537E-02  3.10838E-02  3.28071E-02  3.47109E-02  3.66921E-02  3.88137E-02  4.06899E-02  4.25119E-02  4.38058E-02  4.43682E-02
   4.46753E-02  4.45590E-02  4.40846E-02  4.37681E-02  4.42295E-02  4.51621E-02  4.57263E-02  4.56897E-02  4.54189E-02  4.54396E-02
   4.54386E-02  4.52058E-02  4.47580E-02  4.42660E-02  4.35262E-02  4.23883E-02  4.15077E-02  4.07713E-02  4.04266E-02  4.01591E-02
   3.94690E-02  3.88376E-02  3.84180E-02  3.84802E-02  3.89239E-02  3.95215E-02  4.06918E-02  4.20733E-02  4.33181E-02  4.40852E-02
   4.43919E-02  4.45886E-02  4.44243E-02  4.43031E-02  4.42364E-02  4.38008E-02  4.31740E-02  4.23742E-02  4.20342E-02  4.26119E-02
   4.39258E-02  4.56935E-02  4.69426E-02  4.76108E-02  4.81579E-02  4.89654E-02  5.00843E-02  5.09413E-02  5.10726E-02  5.05351E-02
   4.98611E-02  4.96213E-02  4.96403E-02  4.93315E-02  4.87172E-02  4.80419E-02  4.76677E-02  4.75018E-02  4.71308E-02  4.70489E-02
   4.70173E-02  4.67324E-02  4.63475E-02  4.57048E-02  4.53470E-02  4.53914E-02  4.58763E-02  4.66379E-02  4.73364E-02  4.83065E-02
   4.92272E-02  5.04135E-02  5.20645E-02  5.34354E-02
 NY background values follow
     5.552E-02    5.542E-02    5.532E-02    5.522E-02    5.512E-02    5.502E-02    5.492E-02    5.482E-02    5.472E-02    5.462E-02
     5.452E-02    5.442E-02    5.432E-02    5.422E-02    5.412E-02    5.402E-02    5.392E-02    5.382E-02    5.372E-02    5.363E-02
     5.353E-02    5.343E-02    5.333E-02    5.323E-02    5.313E-02    5.303E-02    5.293E-02    5.283E-02    5.273E-02    5.263E-02
     5.253E-02    5.243E-02    5.233E-02    5.223E-02    5.213E-02    5.203E-02    5.193E-02    5.183E-02    5.173E-02    5.163E-02
     5.153E-02    5.143E-02    5.133E-02    5.123E-02    5.113E-02    5.103E-02    5.093E-02    5.083E-02    5.073E-02    5.063E-02
     5.053E-02    5.043E-02    5.033E-02    5.023E-02    5.013E-02    5.003E-02    4.993E-02    4.983E-02    4.973E-02    4.963E-02
     4.953E-02    4.943E-02    4.933E-02    4.923E-02    4.913E-02    4.903E-02    4.893E-02    4.883E-02    4.873E-02    4.863E-02
