 LCModel (Version 6.3-1N) Copyright: S.W. Provencher.          Ref.: Magn. Reson. Med. 30:672-679 (1993).                
 Slice_N1@12_13  02-Jun-2023 14:36:31
 27 lines in following concentration table = NCONC+1
    Conc.  %SD /Cr+PCr  Metabolite                                         
 2.93E-06  18% 2.9E-04 Mac                                                 
 4.54E-02  29%   4.483 Cr                                                  
 3.56E-02  37%   3.517 PCr                                                 
    0.109  11%  10.782 Ins                                                 
    0.132   7%  13.013 NAA                                                 
 7.67E-02  15%   7.573 Tau                                                 
 1.78E-02  26%   1.755 PCho                                                
    0.000 999%   0.000 GPC                                                 
 9.39E-02  15%   9.266 Glu                                                 
 2.83E-02  36%   2.795 Gln                                                 
 1.66E-03 655%   0.164 Ala                                                 
 7.28E-03 261%   0.718 Asc                                                 
 9.49E-03 103%   0.937 Asp                                                 
 1.36E-02  40%   1.340 GABA                                                
 1.25E-02  50%   1.232 Glc                                                 
 1.54E-02  37%   1.516 GSH                                                 
    0.000 999%   0.000 Lac                                                 
    0.000 999%   0.000 NAAG                                                
 1.62E-02 106%   1.597 PE                                                  
 1.78E-02  26%   1.755 GPC+PCho                                            
    0.132   7%  13.013 NAA+NAAG                                            
    0.122  14%  12.062 Glu+Gln                                             
 8.11E-02  11%   8.000 Cr+PCr                                              
    0.132   7%  13.013 NAA+NAAG                                            
 8.11E-02  11%   8.000 Cr+PCr                                              
    0.122  14%  12.062 Glu+Gln                                             
   6 lines in following misc. output table
  FWHM = 0.029 ppm    S/N =   4                                            
  Data shift = 0.017 ppm                                                   
  Ph: -67 deg      -5.3 deg/ppm                                            
  alphaB,S = 2.2E+01,   3.6E+01                                            
   18 spline knots.   Ns = 5(1)                                            
  ( 3) 2 infls.   ( 2) 1 extrs.                                            
  654 points on ppm-axis = NY
      4.000000     3.994181     3.988363     3.982544     3.976726     3.970907     3.965088     3.959270     3.953451     3.947633
      3.941814     3.935995     3.930177     3.924358     3.918540     3.912721     3.906902     3.901084     3.895265     3.889446
      3.883628     3.877809     3.871991     3.866172     3.860353     3.854535     3.848716     3.842898     3.837079     3.831260
      3.825442     3.819623     3.813805     3.807986     3.802167     3.796349     3.790530     3.784712     3.778893     3.773074
      3.767256     3.761437     3.755619     3.749800     3.743981     3.738163     3.732344     3.726526     3.720707     3.714888
      3.709070     3.703251     3.697433     3.691614     3.685795     3.679977     3.674158     3.668339     3.662521     3.656702
      3.650884     3.645065     3.639246     3.633428     3.627609     3.621791     3.615972     3.610153     3.604335     3.598516
      3.592698     3.586879     3.581060     3.575242     3.569423     3.563605     3.557786     3.551967     3.546149     3.540330
      3.534512     3.528693     3.522874     3.517056     3.511237     3.505419     3.499600     3.493781     3.487963     3.482144
      3.476326     3.470507     3.464688     3.458870     3.453051     3.447232     3.441414     3.435595     3.429777     3.423958
      3.418139     3.412321     3.406502     3.400684     3.394865     3.389046     3.383228     3.377409     3.371591     3.365772
      3.359953     3.354135     3.348316     3.342498     3.336679     3.330860     3.325042     3.319223     3.313405     3.307586
      3.301767     3.295949     3.290130     3.284312     3.278493     3.272674     3.266856     3.261037     3.255219     3.249400
      3.243581     3.237763     3.231944     3.226125     3.220307     3.214488     3.208670     3.202851     3.197032     3.191214
      3.185395     3.179577     3.173758     3.167939     3.162121     3.156302     3.150484     3.144665     3.138846     3.133028
      3.127209     3.121391     3.115572     3.109753     3.103935     3.098116     3.092298     3.086479     3.080660     3.074842
      3.069023     3.063205     3.057386     3.051567     3.045749     3.039930     3.034111     3.028293     3.022474     3.016656
      3.010837     3.005018     2.999200     2.993381     2.987563     2.981744     2.975925     2.970107     2.964288     2.958470
      2.952651     2.946832     2.941014     2.935195     2.929377     2.923558     2.917739     2.911921     2.906102     2.900284
      2.894465     2.888646     2.882828     2.877009     2.871191     2.865372     2.859553     2.853735     2.847916     2.842098
      2.836279     2.830460     2.824642     2.818823     2.813004     2.807186     2.801367     2.795549     2.789730     2.783911
      2.778093     2.772274     2.766456     2.760637     2.754818     2.749000     2.743181     2.737363     2.731544     2.725725
      2.719907     2.714088     2.708270     2.702451     2.696632     2.690814     2.684995     2.679177     2.673358     2.667539
      2.661721     2.655902     2.650084     2.644265     2.638446     2.632628     2.626809     2.620991     2.615172     2.609353
      2.603535     2.597716     2.591897     2.586079     2.580260     2.574442     2.568623     2.562804     2.556986     2.551167
      2.545349     2.539530     2.533711     2.527893     2.522074     2.516256     2.510437     2.504618     2.498800     2.492981
      2.487163     2.481344     2.475525     2.469707     2.463888     2.458070     2.452251     2.446432     2.440614     2.434795
      2.428977     2.423158     2.417339     2.411521     2.405702     2.399884     2.394065     2.388246     2.382428     2.376609
      2.370790     2.364972     2.359153     2.353335     2.347516     2.341697     2.335879     2.330060     2.324242     2.318423
      2.312604     2.306786     2.300967     2.295149     2.289330     2.283511     2.277693     2.271874     2.266056     2.260237
      2.254418     2.248600     2.242781     2.236963     2.231144     2.225325     2.219507     2.213688     2.207870     2.202051
      2.196232     2.190414     2.184595     2.178777     2.172958     2.167139     2.161321     2.155502     2.149683     2.143865
      2.138046     2.132228     2.126409     2.120590     2.114772     2.108953     2.103135     2.097316     2.091497     2.085679
      2.079860     2.074042     2.068223     2.062404     2.056586     2.050767     2.044949     2.039130     2.033311     2.027493
      2.021674     2.015856     2.010037     2.004218     1.998400     1.992581     1.986763     1.980944     1.975126     1.969307
      1.963489     1.957670     1.951852     1.946033     1.940215     1.934397     1.928578     1.922760     1.916941     1.911123
      1.905304     1.899486     1.893667     1.887849     1.882030     1.876212     1.870393     1.864575     1.858756     1.852938
      1.847119     1.841301     1.835482     1.829664     1.823845     1.818027     1.812208     1.806390     1.800571     1.794753
      1.788934     1.783116     1.777297     1.771479     1.765660     1.759842     1.754023     1.748205     1.742386     1.736568
      1.730749     1.724931     1.719113     1.713294     1.707476     1.701657     1.695839     1.690020     1.684202     1.678383
      1.672565     1.666746     1.660928     1.655109     1.649291     1.643472     1.637654     1.631835     1.626017     1.620198
      1.614380     1.608561     1.602743     1.596924     1.591106     1.585287     1.579469     1.573650     1.567832     1.562013
      1.556195     1.550376     1.544558     1.538739     1.532921     1.527102     1.521284     1.515465     1.509647     1.503829
      1.498010     1.492192     1.486373     1.480555     1.474736     1.468918     1.463099     1.457281     1.451462     1.445644
      1.439825     1.434007     1.428188     1.422370     1.416551     1.410733     1.404914     1.399096     1.393277     1.387459
      1.381640     1.375822     1.370003     1.364185     1.358366     1.352548     1.346729     1.340911     1.335092     1.329274
      1.323455     1.317637     1.311818     1.306000     1.300182     1.294363     1.288545     1.282726     1.276908     1.271089
      1.265271     1.259452     1.253634     1.247815     1.241997     1.236178     1.230360     1.224541     1.218723     1.212904
      1.207086     1.201267     1.195449     1.189630     1.183812     1.177993     1.172175     1.166356     1.160538     1.154719
      1.148901     1.143082     1.137264     1.131445     1.125627     1.119808     1.113990     1.108171     1.102353     1.096534
      1.090716     1.084898     1.079079     1.073261     1.067442     1.061624     1.055805     1.049987     1.044168     1.038350
      1.032531     1.026713     1.020894     1.015076     1.009257     1.003439     0.997620     0.991802     0.985983     0.980165
      0.974346     0.968528     0.962709     0.956891     0.951072     0.945254     0.939435     0.933617     0.927798     0.921980
      0.916161     0.910343     0.904524     0.898706     0.892887     0.887069     0.881251     0.875432     0.869614     0.863795
      0.857977     0.852158     0.846340     0.840521     0.834703     0.828884     0.823066     0.817247     0.811429     0.805610
      0.799792     0.793973     0.788155     0.782336     0.776518     0.770699     0.764881     0.759062     0.753244     0.747425
      0.741607     0.735788     0.729970     0.724151     0.718333     0.712514     0.706696     0.700877     0.695059     0.689240
      0.683422     0.677603     0.671785     0.665967     0.660148     0.654330     0.648511     0.642693     0.636874     0.631056
      0.625237     0.619419     0.613600     0.607782     0.601963     0.596145     0.590326     0.584508     0.578689     0.572871
      0.567052     0.561234     0.555415     0.549597     0.543778     0.537960     0.532141     0.526323     0.520504     0.514686
      0.508867     0.503049     0.497230     0.491412     0.485593     0.479775     0.473956     0.468138     0.462319     0.456501
      0.450682     0.444864     0.439045     0.433227     0.427408     0.421590     0.415771     0.409953     0.404134     0.398316
      0.392497     0.386679     0.380860     0.375042     0.369223     0.363405     0.357586     0.351767     0.345949     0.340130
      0.334312     0.328493     0.322675     0.316856     0.311038     0.305219     0.299401     0.293582     0.287764     0.281945
      0.276127     0.270308     0.264490     0.258671     0.252853     0.247034     0.241216     0.235397     0.229579     0.223760
      0.217942     0.212123     0.206305     0.200486
 NY phased data points follow
  -9.98012E-02 -2.64109E-02  1.40679E-01  1.50841E-01  4.95036E-02  3.73138E-01  1.17161E-01  1.08481E-01  2.15411E-01  4.87020E-02
   4.46955E-01  2.09384E-01 -2.01470E-01  7.94405E-02 -2.45539E-01 -3.10518E-02  4.26848E-01 -1.26949E-02  2.57277E-01  1.97501E-01
  -3.07954E-01  1.28221E-02 -1.07387E-01 -2.38053E-01 -2.03467E-01 -1.54621E-01 -1.85630E-01 -2.74545E-01  4.20806E-02 -1.80604E-01
  -9.61890E-03 -7.63946E-02 -1.25449E-01  4.64396E-01 -1.88675E-01 -3.02569E-01 -2.40201E-01 -3.36105E-01 -1.24393E-01 -4.98423E-01
   7.58679E-02  3.92057E-01  6.46623E-01  9.45957E-01  3.84023E-01  5.98343E-02  2.26319E-01  7.43210E-01  3.54830E-01 -1.14998E-01
  -1.39879E-02 -8.07712E-02 -2.31486E-01 -1.41240E-01 -2.87814E-01  5.90584E-02  2.66817E-01 -3.72721E-01 -3.45275E-01 -1.35633E-01
   8.97105E-02 -4.88868E-01 -4.65037E-01 -8.93685E-02 -3.94544E-01 -2.08104E-01  1.09867E-01  3.36680E-01  4.87595E-01  6.05850E-01
   2.73626E-01  1.53190E-01  2.89438E-01  2.64649E-01 -2.71984E-01 -2.72242E-01 -5.31126E-01 -9.45478E-01 -6.76171E-01 -9.36799E-01
  -6.68420E-01 -2.20619E-01 -2.59810E-01 -1.38318E-01  8.51684E-01  8.64815E-01  2.89730E-01  4.71808E-01  5.77790E-01  1.97102E-02
   1.78724E-01  5.81149E-01 -1.25930E-01 -8.08807E-02 -3.12825E-01 -2.99949E-01 -5.15624E-01 -1.65114E-01 -3.51537E-01 -5.75274E-01
   3.77661E-01 -3.57784E-01  4.77247E-01  6.32466E-01  2.69795E-01  5.61738E-01  5.69316E-01  7.05591E-01  1.64014E-01  7.99964E-01
   3.47913E-01  3.29093E-01  8.15010E-01  2.95233E-01  4.04501E-01  2.64189E-01  7.14143E-01  7.84521E-01  6.11802E-01  4.93709E-01
  -1.40418E-01  5.67953E-02 -6.11382E-02 -7.78218E-02  7.15107E-02 -5.34080E-01  1.42234E-01  4.17017E-01 -3.12247E-01 -1.13090E-01
  -6.53968E-01 -8.11721E-01 -4.00084E-01 -8.72800E-01 -8.39747E-01 -7.85022E-01 -1.23571E+00 -1.19979E+00 -5.10654E-01 -4.13122E-01
  -2.41072E-01  5.09968E-01  5.78346E-02 -1.66209E-01 -1.35977E-01 -4.69403E-01  5.27724E-02 -2.04660E-01  1.76199E-02  7.15932E-01
   5.29463E-02  1.45420E-01  4.41289E-01  2.42030E-01  2.94413E-01  5.24466E-01  4.74557E-01 -3.11668E-01  1.06126E-01  1.18763E+00
   5.97357E-01  3.98357E-01  8.73056E-01  1.17509E+00  1.49703E+00  9.62260E-01  5.93283E-01 -7.49785E-02 -9.92498E-01 -1.08198E+00
  -9.72666E-01 -1.00865E+00 -7.44604E-01 -6.17714E-01 -5.08453E-01 -1.43166E-01 -6.08697E-01 -4.99937E-01 -3.91626E-01 -5.37015E-01
  -5.81381E-01 -5.72695E-01 -2.83400E-01 -5.31704E-01 -1.70364E-01 -7.07290E-01 -7.38161E-01 -1.46402E-01 -7.25601E-01 -1.50985E-01
   5.46510E-02 -4.85253E-01 -4.36821E-01 -2.91516E-01 -3.32526E-01 -9.65600E-02 -8.84979E-02 -2.87597E-01 -7.99402E-02 -2.27132E-01
  -2.21541E-01 -9.10651E-02 -7.96426E-02  6.12098E-04  1.04513E-01 -1.71386E-01 -3.47313E-01 -3.78216E-01 -4.02603E-01 -1.16534E-01
  -1.76662E-01 -1.29110E-01 -1.05348E-01 -6.31448E-02  4.97183E-02 -9.53776E-02 -4.14183E-01 -4.62219E-01 -2.88165E-01  1.65341E-01
  -6.45047E-02 -1.92290E-01  1.45633E-01 -3.62587E-01  5.00604E-01  8.74602E-01  7.57446E-01  7.60761E-01  6.10413E-01  4.17789E-01
   1.40660E-01  8.20507E-01  5.46557E-01  5.62850E-01  2.09627E-01 -1.58153E-02  1.30416E-01  1.19194E-02  1.59865E-01 -4.77377E-01
   1.22279E-01  4.27585E-01 -1.29970E-01  1.60951E-01 -1.29022E-01 -1.56698E-01  2.17314E-01 -1.77289E-02  3.58479E-02 -2.88836E-01
  -2.41851E-01  6.90823E-02 -2.57068E-01  5.56935E-02  2.30371E-01 -4.26347E-01 -6.12167E-02  2.37198E-01  8.28825E-02  8.06386E-01
   4.61113E-01  2.48499E-01  1.18372E-01 -1.12672E-01  1.58676E-02  1.77733E-01  5.55427E-01  2.06743E-01  5.17308E-01  6.85807E-01
  -3.16060E-02  3.22858E-02 -1.40796E-01 -3.10032E-01  5.33865E-02 -1.20287E-01 -1.54851E-01 -4.15240E-01  1.39975E-02 -1.36310E-01
  -2.56086E-01 -1.19945E-01 -4.40076E-01  6.32514E-02 -9.23512E-02  5.27343E-01  7.59802E-01  9.00609E-01  7.55361E-01  4.30962E-01
   5.67587E-01  5.18091E-01  3.41544E-02 -1.45201E-01  4.62373E-01 -1.34714E-01  2.86185E-01  9.72443E-02 -1.03757E-01  4.31368E-01
   3.69986E-01  1.50672E-01  3.41853E-01  6.10179E-01  2.75254E-01  5.20144E-01  7.02466E-01  2.72372E-01 -1.33880E-01  1.03240E+00
   4.23800E-01 -1.14224E-02  6.08798E-01 -2.34576E-01 -6.50483E-02  2.02160E-01 -6.14410E-02 -2.15993E-01 -1.51404E-01 -1.81925E-01
  -2.98884E-01 -3.75048E-01 -3.56036E-01 -4.79333E-01 -4.73332E-01 -3.77289E-01 -2.60544E-01 -3.90481E-01  1.45797E-01  1.95368E-01
   2.85931E-01  3.17642E-01 -5.18348E-01  1.41923E-01 -4.02585E-02 -3.96060E-01 -4.96775E-01 -1.00910E-01 -2.38301E-01 -6.80488E-01
  -6.79397E-01 -1.61529E+00 -2.66570E+00 -2.54668E+00 -1.35661E+00 -8.52882E-01 -4.59373E-02  1.33597E-01  2.42365E-01  3.98839E-02
   4.39882E-01  4.26622E-01  1.72401E-02  2.49405E-01  2.84669E-01  3.55893E-01 -2.03909E-01  3.47218E-01  2.88602E-01  3.48466E-01
  -4.72544E-02  3.52520E-01  5.11135E-01 -1.90830E-01  3.98092E-02 -5.94255E-01 -3.56524E-01  1.55588E-01  1.19678E-01 -2.57859E-01
   2.80861E-01  2.36053E-01 -1.23782E-01  1.30058E-01  4.19648E-02 -3.77509E-01 -1.10171E-01 -4.44980E-02 -4.01312E-01  2.53995E-01
   3.29274E-01  3.64431E-01  3.09727E-01  5.06465E-01  4.23611E-01  4.99498E-01  3.67379E-01  1.79915E-01  5.61477E-01  3.77992E-01
  -5.15951E-02  4.85727E-02  1.66027E-01  3.76963E-01  5.90549E-01 -3.09046E-02  5.42725E-01  2.87352E-01  3.23729E-01  3.47085E-01
  -5.60370E-02 -6.81955E-02  1.40535E-01  3.84035E-01 -2.78669E-01 -7.18186E-02 -1.70244E-01 -6.04985E-02 -5.03317E-01 -2.52605E-01
  -3.51489E-02  2.07526E-01 -2.07039E-01 -9.09058E-01 -3.05553E-02  6.79185E-03 -2.65489E-02 -5.13923E-01  1.80137E-01  9.39858E-02
  -2.58046E-02 -1.03603E-01 -5.94501E-01 -5.84278E-01 -4.77056E-01  1.90134E-01 -2.69506E-01 -2.03200E-01 -1.63692E-01  7.85331E-02
  -1.60120E-01 -5.36633E-03  7.79967E-02  1.33763E-01  3.72051E-01 -3.83349E-01  5.10738E-01 -1.57076E-02 -2.92978E-01  5.70449E-01
   2.09588E-01  5.24864E-01  1.92759E-01 -1.09383E-01  2.16128E-01  2.98419E-01  5.07813E-01  4.44003E-01  7.21759E-01  9.98985E-02
  -3.84840E-02  3.56814E-01 -1.50055E-01 -2.77633E-01 -1.01519E-02  3.51234E-01  2.08431E-01  1.89801E-01 -7.21927E-01 -3.02504E-01
   2.50735E-01  4.08431E-02  3.34379E-01  1.63477E-02 -3.52024E-01 -7.07544E-01 -1.38535E-01 -7.68119E-01 -2.93454E-01  5.41314E-03
  -9.47370E-02  1.56109E-01 -1.88070E-01  3.90747E-01 -1.26279E-01 -3.41935E-01 -5.17115E-01 -3.11655E-01 -4.46684E-01  3.71976E-01
   1.11079E-01 -2.48913E-01  3.75597E-01 -6.85096E-01  1.89059E-01 -1.36218E-01  1.75498E-01 -1.68210E-01 -5.77785E-01  2.88778E-01
  -1.84343E-01  2.97423E-01  1.62867E-04  2.02577E-01  2.00391E-01  3.04613E-01 -7.59193E-02  1.53991E-01  1.01589E+00 -4.72960E-02
   1.54513E-02  3.65739E-01  7.52795E-01  4.54789E-01  1.34999E-01  1.21745E-01 -1.42942E-01  3.02208E-01 -2.60153E-01 -2.98840E-01
   4.69488E-01  9.34134E-02 -3.14077E-02  3.31558E-01 -8.37740E-02  2.60653E-01  6.63619E-02 -5.06556E-01  1.28051E-01 -6.43929E-02
  -8.02969E-02 -3.57476E-01 -2.40370E-01  1.52229E-01 -3.78836E-01 -7.27903E-01 -8.59828E-01 -5.65797E-01 -7.18142E-01 -4.28061E-01
  -1.03513E-01 -3.93812E-01 -3.20916E-01  5.71475E-02 -3.49525E-01 -2.64252E-01  3.04424E-02 -3.05452E-01 -1.06273E-01 -4.26403E-01
   1.20068E-01 -3.21202E-01 -5.01600E-01  9.29146E-02 -2.16052E-01 -2.48130E-01 -3.25516E-01  2.32155E-01  3.32294E-01  2.93295E-01
   9.60499E-02  2.27166E-01 -2.87973E-01 -1.36435E-01  3.23246E-01 -5.29949E-01 -5.49026E-02  5.27756E-01  2.08382E-01  2.00957E-02
   1.20798E-01 -2.12950E-01  6.03610E-01  3.41620E-01  3.15179E-01  1.05215E+00  3.79625E-01  3.58553E-01  7.85900E-02  2.07749E-01
   4.42953E-04  9.35361E-02  6.94577E-02 -2.30034E-01  1.83160E-01 -2.66151E-01 -3.19324E-01 -1.84759E-01 -2.71605E-01  1.32299E-01
   4.01601E-01  2.03549E-01 -2.41082E-01  6.35246E-02 -5.11108E-03 -3.96736E-01  1.61644E-01 -1.13588E-01  1.75604E-01  3.54012E-01
   1.90960E-01  3.24695E-01  6.61729E-02  2.01758E-01  2.26181E-01  3.89554E-01  2.19804E-01  3.21632E-01  1.08664E-01 -1.81279E-02
   1.36172E-01 -2.08158E-01 -3.58083E-01 -5.02742E-01  5.29794E-03  4.37401E-01  9.08718E-02  2.19054E-01  2.06787E-01  2.30851E-01
   5.75472E-01 -1.04189E-01  1.88648E-01  1.75616E-01 -7.98107E-02  2.14759E-01  5.20346E-02  1.02405E-01 -3.44325E-01  1.59991E-01
   4.37256E-01  1.94783E-01  5.14987E-01  1.97314E-02 -3.61480E-02  5.02376E-01  2.93070E-02  5.44929E-02  1.95767E-03 -2.00278E-01
   3.62658E-01  5.13204E-01  4.51027E-01  2.94651E-01  5.64718E-01 -8.90707E-02 -2.56499E-01  2.81284E-01 -1.05661E-01 -1.87035E-01
   2.49681E-02  4.09838E-01 -3.76426E-02  2.74860E-01  4.84766E-01 -1.45772E-02  4.98797E-01 -5.36730E-02  6.29763E-02  2.91502E-01
  -4.78703E-01 -2.05537E-01 -2.52492E-01  1.11109E-01
 NY points of the fit to the data follow
   1.33108E-01  1.58409E-01  1.80920E-01  1.94158E-01  1.92026E-01  1.74024E-01  1.50104E-01  1.40574E-01  1.66450E-01  2.34449E-01
   3.32336E-01  4.33774E-01  5.03730E-01  5.31743E-01  5.41213E-01  5.39061E-01  4.95583E-01  4.00041E-01  2.66539E-01  1.29599E-01
   3.81964E-02  4.55216E-03 -1.31397E-02 -4.12116E-02 -6.97552E-02 -9.52932E-02 -1.16061E-01 -1.30911E-01 -1.40818E-01 -1.49081E-01
  -1.58617E-01 -1.71216E-01 -1.90028E-01 -2.18009E-01 -2.54122E-01 -2.90221E-01 -3.09972E-01 -2.89706E-01 -2.10389E-01 -6.99848E-02
   1.12375E-01  2.85457E-01  4.09271E-01  4.67792E-01  4.60211E-01  4.05192E-01  3.29596E-01  2.41620E-01  1.59519E-01  1.01884E-01
   5.71367E-02  2.37864E-02 -1.42442E-02 -5.65696E-02 -1.07998E-01 -1.67546E-01 -2.36399E-01 -3.13082E-01 -3.86218E-01 -4.44671E-01
  -4.73463E-01 -4.66103E-01 -4.14280E-01 -3.14386E-01 -1.84367E-01 -1.34549E-02  1.84262E-01  3.50459E-01  4.66909E-01  5.17867E-01
   4.66011E-01  3.66815E-01  2.57653E-01  1.26309E-01  4.76884E-03 -1.30967E-01 -2.97078E-01 -4.67569E-01 -5.91568E-01 -6.07668E-01
  -4.65873E-01 -2.03828E-01  8.58148E-02  3.47447E-01  5.29714E-01  5.97168E-01  5.94692E-01  5.43294E-01  4.47943E-01  3.73672E-01
   3.27868E-01  2.84672E-01  2.35937E-01  1.72998E-01  8.47748E-02 -3.05322E-02 -1.69395E-01 -2.96043E-01 -3.70089E-01 -3.50781E-01
  -2.22315E-01 -2.44503E-02  1.81378E-01  3.35799E-01  4.13369E-01  4.19597E-01  4.08330E-01  3.85158E-01  3.79855E-01  3.78587E-01
   3.77671E-01  3.75364E-01  3.70816E-01  3.66139E-01  3.61704E-01  3.58139E-01  3.54666E-01  3.46095E-01  3.25315E-01  2.83618E-01
   2.17568E-01  1.27784E-01  2.64390E-02 -6.44162E-02 -1.51355E-01 -2.42243E-01 -3.29966E-01 -4.38307E-01 -5.51765E-01 -6.12050E-01
  -6.16999E-01 -5.76228E-01 -5.33997E-01 -5.98010E-01 -7.81197E-01 -1.01163E+00 -1.15028E+00 -1.04709E+00 -7.66068E-01 -4.35491E-01
  -1.74966E-01 -5.36109E-02 -2.49686E-02  1.56739E-02  5.32240E-02  8.64336E-02  1.15799E-01  1.41860E-01  1.65228E-01  1.86293E-01
   2.06050E-01  2.25633E-01  2.45638E-01  2.66826E-01  2.90161E-01  3.16021E-01  3.44974E-01  3.77884E-01  4.16244E-01  4.63941E-01
   5.28700E-01  6.22153E-01  7.44722E-01  8.63156E-01  9.00264E-01  7.59928E-01  3.87559E-01 -1.74514E-01 -7.28289E-01 -1.04665E+00
  -1.06765E+00 -8.85198E-01 -6.57828E-01 -5.28211E-01 -4.94489E-01 -4.64709E-01 -4.31006E-01 -3.97399E-01 -3.73743E-01 -3.54377E-01
  -3.35726E-01 -3.14830E-01 -2.93740E-01 -2.77636E-01 -2.68925E-01 -2.64747E-01 -2.58229E-01 -2.47895E-01 -2.36183E-01 -2.24994E-01
  -2.12819E-01 -2.00544E-01 -1.86809E-01 -1.72884E-01 -1.59240E-01 -1.47370E-01 -1.36136E-01 -1.24980E-01 -1.13677E-01 -1.02075E-01
  -9.06618E-02 -8.07910E-02 -7.40163E-02 -7.11059E-02 -7.04751E-02 -6.92024E-02 -6.61338E-02 -6.31626E-02 -6.40555E-02 -7.05282E-02
  -7.84826E-02 -8.28718E-02 -8.15859E-02 -7.61133E-02 -7.09006E-02 -6.80483E-02 -6.68691E-02 -6.60542E-02 -6.43504E-02 -6.02717E-02
  -4.77222E-02 -1.60135E-02  4.62170E-02  1.38642E-01  2.45610E-01  3.36897E-01  3.79168E-01  3.77017E-01  3.71135E-01  3.83550E-01
   3.98231E-01  3.73160E-01  2.72162E-01  1.27802E-01  2.44283E-03 -6.95629E-02 -9.15335E-02 -9.71031E-02 -1.09027E-01 -1.20285E-01
  -1.31292E-01 -1.40408E-01 -1.46631E-01 -1.50542E-01 -1.52714E-01 -1.54233E-01 -1.55683E-01 -1.57255E-01 -1.60466E-01 -1.67406E-01
  -1.81215E-01 -2.03610E-01 -2.28771E-01 -2.45583E-01 -2.38423E-01 -1.98364E-01 -1.23234E-01 -2.75723E-02  5.61971E-02  1.23018E-01
   1.77107E-01  2.08239E-01  2.17628E-01  2.23311E-01  2.13752E-01  2.02951E-01  1.98243E-01  1.92832E-01  1.80996E-01  1.66473E-01
   1.54594E-01  1.23492E-01  7.53085E-02  2.34353E-02 -3.28554E-02 -8.56654E-02 -1.43461E-01 -2.09133E-01 -2.86221E-01 -3.66416E-01
  -4.29357E-01 -4.43664E-01 -3.76143E-01 -2.22231E-01 -2.35441E-03  2.31400E-01  4.14557E-01  5.13172E-01  5.25438E-01  4.67069E-01
   3.86422E-01  3.11976E-01  2.52894E-01  2.25533E-01  2.17595E-01  2.26242E-01  2.47513E-01  2.69106E-01  2.84583E-01  2.89563E-01
   2.83439E-01  2.72473E-01  2.61483E-01  2.50293E-01  2.42193E-01  2.33624E-01  2.23900E-01  2.12357E-01  1.97489E-01  1.78380E-01
   1.53784E-01  1.21871E-01  8.09748E-02  2.95638E-02 -3.32699E-02 -1.05361E-01 -1.83398E-01 -2.58616E-01 -3.24925E-01 -3.75780E-01
  -4.09108E-01 -4.20976E-01 -4.07254E-01 -3.63709E-01 -2.89414E-01 -1.92616E-01 -8.86014E-02 -3.96135E-03  4.91871E-02  5.35031E-02
   2.10452E-02 -3.43595E-02 -9.19366E-02 -1.34810E-01 -1.55454E-01 -1.54676E-01 -1.42050E-01 -1.67862E-01 -3.14618E-01 -6.71882E-01
  -1.23090E+00 -1.87881E+00 -2.34488E+00 -2.31009E+00 -1.77155E+00 -1.03885E+00 -4.03911E-01 -6.83089E-02 -4.51098E-02 -4.45572E-02
  -1.91988E-02  3.39571E-03  2.13821E-02  3.52229E-02  4.63354E-02  5.50353E-02  6.08603E-02  6.30207E-02  5.96287E-02  5.03091E-02
   3.42647E-02  1.44185E-02 -5.51901E-03 -2.10234E-02 -2.73646E-02 -2.30001E-02 -1.00306E-02  7.37461E-03  2.60226E-02  4.07339E-02
   5.43552E-02  6.40835E-02  7.29281E-02  7.99856E-02  8.56842E-02  9.07033E-02  9.56068E-02  1.00469E-01  1.05331E-01  1.09801E-01
   1.13506E-01  1.17095E-01  1.20899E-01  1.24658E-01  1.28100E-01  1.30641E-01  1.32584E-01  1.34592E-01  1.37676E-01  1.41683E-01
   1.45976E-01  1.49362E-01  1.50819E-01  1.49937E-01  1.47275E-01  1.43644E-01  1.39492E-01  1.35261E-01  1.30357E-01  1.24370E-01
   1.17001E-01  1.08510E-01  9.93288E-02  8.99141E-02  8.06846E-02  7.21058E-02  6.41426E-02  5.66523E-02  4.94412E-02  4.26374E-02
   3.63832E-02  3.10919E-02  2.66389E-02  2.25635E-02  1.84812E-02  1.45942E-02  1.09171E-02  7.57245E-03  4.99465E-03  2.93474E-03
   1.50338E-03  8.08155E-04  1.00467E-03  2.45495E-03  5.25852E-03  9.25359E-03  1.45617E-02  2.07954E-02  2.75729E-02  3.46704E-02
   4.15956E-02  4.87016E-02  5.70973E-02  6.75646E-02  7.92352E-02  8.97939E-02  9.75573E-02  1.02283E-01  1.05919E-01  1.11860E-01
   1.21864E-01  1.34907E-01  1.50009E-01  1.65387E-01  1.80290E-01  1.94646E-01  2.08143E-01  2.19812E-01  2.28582E-01  2.34174E-01
   2.36812E-01  2.37162E-01  2.36102E-01  2.33663E-01  2.29380E-01  2.22664E-01  2.12946E-01  2.00589E-01  1.86522E-01  1.72168E-01
   1.58433E-01  1.45464E-01  1.32871E-01  1.20551E-01  1.08515E-01  9.75675E-02  8.79182E-02  7.93527E-02  7.15523E-02  6.46042E-02
   5.83530E-02  5.31054E-02  4.91632E-02  4.66691E-02  4.60972E-02  4.76190E-02  5.07925E-02  5.49172E-02  5.99045E-02  6.56307E-02
   7.20888E-02  7.92443E-02  8.63377E-02  9.24480E-02  9.73328E-02  1.00940E-01  1.03610E-01  1.06114E-01  1.08843E-01  1.11670E-01
   1.13843E-01  1.14586E-01  1.13629E-01  1.11089E-01  1.07524E-01  1.03443E-01  9.89920E-02  9.43324E-02  8.98931E-02  8.56658E-02
   8.14046E-02  7.70511E-02  7.22137E-02  6.71516E-02  6.19568E-02  5.67951E-02  5.18239E-02  4.73305E-02  4.35515E-02  3.99646E-02
   3.59479E-02  3.10040E-02  2.47236E-02  1.70489E-02  8.21498E-03 -1.57391E-03 -1.21874E-02 -2.39375E-02 -3.75329E-02 -5.39073E-02
  -7.32618E-02 -9.46775E-02 -1.16756E-01 -1.38361E-01 -1.58880E-01 -1.78209E-01 -1.96061E-01 -2.11973E-01 -2.25571E-01 -2.36075E-01
  -2.43100E-01 -2.46174E-01 -2.45596E-01 -2.41999E-01 -2.35996E-01 -2.27892E-01 -2.18331E-01 -2.08039E-01 -1.97877E-01 -1.88362E-01
  -1.78937E-01 -1.68590E-01 -1.56889E-01 -1.44040E-01 -1.30233E-01 -1.15850E-01 -1.01357E-01 -8.71726E-02 -7.33621E-02 -6.01549E-02
  -4.75599E-02 -3.53837E-02 -2.37076E-02 -1.29587E-02 -3.26260E-03  5.76770E-03  1.42503E-02  2.21377E-02  2.92914E-02  3.51782E-02
   4.02374E-02  4.49132E-02  4.90919E-02  5.28889E-02  5.59180E-02  5.80339E-02  5.99714E-02  6.16712E-02  6.28866E-02  6.43381E-02
   6.64344E-02  6.92499E-02  7.25490E-02  7.57061E-02  7.81310E-02  7.94754E-02  8.00768E-02  8.02668E-02  8.01499E-02  8.00479E-02
   8.00436E-02  7.99810E-02  7.97499E-02  7.97480E-02  8.01699E-02  8.08837E-02  8.19774E-02  8.29477E-02  8.30323E-02  8.20441E-02
   8.01059E-02  7.81856E-02  7.74775E-02  7.78889E-02  7.87454E-02  7.93097E-02  7.90610E-02  7.83278E-02  7.77724E-02  7.77037E-02
   7.84349E-02  7.99965E-02  8.19355E-02  8.38280E-02  8.52966E-02  8.67826E-02  8.85439E-02  9.05158E-02  9.21553E-02  9.32983E-02
   9.39075E-02  9.38120E-02  9.32527E-02  9.28524E-02  9.32617E-02  9.46880E-02  9.69076E-02  9.91868E-02  1.01092E-01  1.02681E-01
   1.04639E-01  1.07174E-01  1.10310E-01  1.13249E-01  1.15078E-01  1.15497E-01  1.14975E-01  1.14787E-01  1.15707E-01  1.17396E-01
   1.19100E-01  1.20124E-01  1.20524E-01  1.21094E-01  1.22111E-01  1.23618E-01  1.25335E-01  1.26962E-01  1.28934E-01  1.31546E-01
   1.34234E-01  1.36693E-01  1.38976E-01  1.41151E-01  1.43836E-01  1.47523E-01  1.52089E-01  1.57528E-01  1.63740E-01  1.69828E-01
   1.75196E-01  1.79894E-01  1.84362E-01  1.89516E-01
 NY background values follow
     9.289E-02    9.266E-02    9.242E-02    9.219E-02    9.195E-02    9.171E-02    9.148E-02    9.124E-02    9.101E-02    9.077E-02
     9.053E-02    9.030E-02    9.006E-02    8.983E-02    8.959E-02    8.935E-02    8.912E-02    8.888E-02    8.864E-02    8.841E-02
     8.817E-02    8.794E-02    8.770E-02    8.746E-02    8.723E-02    8.699E-02    8.675E-02    8.652E-02    8.628E-02    8.605E-02
     8.581E-02    8.557E-02    8.534E-02    8.510E-02    8.486E-02    8.463E-02    8.439E-02    8.415E-02    8.392E-02    8.368E-02
     8.344E-02    8.321E-02    8.297E-02    8.274E-02    8.250E-02    8.226E-02    8.203E-02    8.179E-02    8.155E-02    8.132E-02
     8.108E-02    8.084E-02    8.061E-02    8.037E-02    8.013E-02    7.990E-02    7.966E-02    7.942E-02    7.919E-02    7.895E-02
     7.871E-02    7.848E-02    7.824E-02    7.800E-02    7.777E-02    7.753E-02    7.729E-02    7.705E-02    7.682E-02    7.658E-02
