 
 $NMID
 ID=''
 FMTDAT='(2E13.5)'
 TRAMP=   1.00000E+0
 VOLUME=   1.00000E+0
 $END
  -2.26005E+4   3.12476E+3
  -5.83196E+4  -8.75151E+3
  -5.85713E+4   1.54119E+3
  -5.38614E+4   1.45709E+3
  -5.59249E+4  -1.40318E+2
  -5.57656E+4   2.17936E+3
  -5.36657E+4   1.38734E+3
  -5.45862E+4   3.28420E+1
  -5.47404E+4   1.45896E+3
  -5.36089E+4   1.02335E+3
  -5.42401E+4   2.82114E+2
  -5.43041E+4   1.54026E+3
  -5.35243E+4   1.71872E+3
  -5.39316E+4   1.11385E+3
  -5.39363E+4   1.93337E+3
  -5.30543E+4   1.96997E+3
  -5.33197E+4   1.60861E+3
  -5.31048E+4   2.18366E+3
  -5.23821E+4   2.27263E+3
  -5.26336E+4   1.95848E+3
  -5.21754E+4   2.25932E+3
  -5.16135E+4   2.57450E+3
  -5.17205E+4   2.22834E+3
  -5.14800E+4   2.34222E+3
  -5.07703E+4   2.29268E+3
  -5.06484E+4   2.22686E+3
  -5.06496E+4   2.30912E+3
  -4.99888E+4   2.02239E+3
  -4.97998E+4   1.76159E+3
  -4.95739E+4   1.91342E+3
  -4.90593E+4   1.98087E+3
  -4.90228E+4   1.92012E+3
  -4.89643E+4   1.90803E+3
  -4.85264E+4   1.89480E+3
  -4.84029E+4   1.99594E+3
  -4.83719E+4   2.20578E+3
  -4.79808E+4   2.36125E+3
  -4.79081E+4   2.44859E+3
  -4.77060E+4   2.74440E+3
  -4.75402E+4   2.83200E+3
  -4.73855E+4   2.97325E+3
  -4.72915E+4   2.91918E+3
  -4.69276E+4   2.90659E+3
  -4.67317E+4   2.98246E+3
  -4.65436E+4   3.13796E+3
  -4.63840E+4   3.21024E+3
  -4.61942E+4   3.26867E+3
  -4.60054E+4   3.23836E+3
  -4.57094E+4   3.41809E+3
  -4.54988E+4   3.52624E+3
  -4.52630E+4   3.56127E+3
  -4.49934E+4   3.48881E+3
  -4.45915E+4   3.66303E+3
  -4.43848E+4   3.83010E+3
  -4.41757E+4   3.93045E+3
  -4.38920E+4   3.87963E+3
  -4.37617E+4   3.99477E+3
  -4.34682E+4   3.93716E+3
  -4.31191E+4   3.85610E+3
  -4.28592E+4   3.79103E+3
  -4.25405E+4   3.83769E+3
  -4.22205E+4   3.98179E+3
  -4.20830E+4   3.98665E+3
  -4.18970E+4   4.02946E+3
  -4.15902E+4   4.05270E+3
  -4.13097E+4   4.11442E+3
  -4.11714E+4   4.19107E+3
  -4.08981E+4   4.09411E+3
  -4.06016E+4   4.07956E+3
  -4.03349E+4   4.07024E+3
  -4.01567E+4   4.02864E+3
  -3.99123E+4   4.07615E+3
  -3.96168E+4   3.94718E+3
  -3.93981E+4   4.00083E+3
  -3.92173E+4   3.96392E+3
  -3.89155E+4   4.06380E+3
  -3.86577E+4   3.98674E+3
  -3.83467E+4   3.86975E+3
  -3.81194E+4   4.00506E+3
  -3.78975E+4   4.06644E+3
  -3.76273E+4   4.03983E+3
  -3.73561E+4   3.94192E+3
  -3.71042E+4   3.98551E+3
  -3.68769E+4   3.97993E+3
  -3.66660E+4   3.89189E+3
  -3.64634E+4   3.79529E+3
  -3.61450E+4   3.84094E+3
  -3.58502E+4   3.77154E+3
  -3.55571E+4   3.82740E+3
  -3.53335E+4   3.82612E+3
  -3.51034E+4   3.83291E+3
  -3.48592E+4   3.76195E+3
  -3.46233E+4   3.78283E+3
  -3.43862E+4   3.79358E+3
  -3.41867E+4   3.75418E+3
  -3.39067E+4   3.76404E+3
  -3.35275E+4   3.79684E+3
  -3.33552E+4   3.75296E+3
  -3.31865E+4   3.75887E+3
  -3.28698E+4   3.64226E+3
  -3.25732E+4   3.61136E+3
  -3.22276E+4   3.59436E+3
  -3.21002E+4   3.71205E+3
  -3.18506E+4   3.60677E+3
  -3.15988E+4   3.55456E+3
  -3.13246E+4   3.52560E+3
  -3.11888E+4   3.55378E+3
  -3.09009E+4   3.48654E+3
  -3.07201E+4   3.42875E+3
  -3.04740E+4   3.38007E+3
  -3.01079E+4   3.44196E+3
  -2.99554E+4   3.40883E+3
  -2.97869E+4   3.44630E+3
  -2.95748E+4   3.35580E+3
  -2.92800E+4   3.36321E+3
  -2.91529E+4   3.28138E+3
  -2.89086E+4   3.22795E+3
  -2.86286E+4   3.14621E+3
  -2.84169E+4   3.16113E+3
  -2.82203E+4   3.03590E+3
  -2.81028E+4   3.00533E+3
  -2.79094E+4   2.93566E+3
  -2.77193E+4   2.86729E+3
  -2.75085E+4   2.88346E+3
  -2.73553E+4   2.78446E+3
  -2.71607E+4   2.67581E+3
  -2.69679E+4   2.72064E+3
  -2.68231E+4   2.61524E+3
  -2.66268E+4   2.61475E+3
  -2.65245E+4   2.55320E+3
  -2.63818E+4   2.50769E+3
  -2.60891E+4   2.40433E+3
  -2.59608E+4   2.34123E+3
  -2.58641E+4   2.36600E+3
  -2.57937E+4   2.31476E+3
  -2.56510E+4   2.18546E+3
  -2.54310E+4   2.14333E+3
  -2.52835E+4   2.06727E+3
  -2.51122E+4   2.03320E+3
  -2.49128E+4   2.02389E+3
  -2.48126E+4   1.98747E+3
  -2.46545E+4   1.86941E+3
  -2.45065E+4   1.89454E+3
  -2.44397E+4   1.86529E+3
  -2.43601E+4   1.74704E+3
  -2.41419E+4   1.74067E+3
  -2.41075E+4   1.76740E+3
  -2.39904E+4   1.66033E+3
  -2.38476E+4   1.58988E+3
  -2.36794E+4   1.52785E+3
  -2.36753E+4   1.50298E+3
  -2.35378E+4   1.43365E+3
  -2.33516E+4   1.40776E+3
  -2.32076E+4   1.38149E+3
  -2.30837E+4   1.31935E+3
  -2.29846E+4   1.35775E+3
  -2.28138E+4   1.28807E+3
  -2.27406E+4   1.19525E+3
  -2.26890E+4   1.13703E+3
  -2.25853E+4   1.12328E+3
  -2.24968E+4   1.03850E+3
  -2.24037E+4   1.06465E+3
  -2.22949E+4   9.86960E+2
  -2.21640E+4   1.02754E+3
  -2.21176E+4   9.76903E+2
  -2.20020E+4   9.52935E+2
  -2.18787E+4   8.96774E+2
  -2.17445E+4   8.73374E+2
  -2.16226E+4   9.44418E+2
  -2.16014E+4   9.22465E+2
  -2.15155E+4   8.14699E+2
  -2.13860E+4   7.86492E+2
  -2.13163E+4   8.24047E+2
  -2.12033E+4   7.70830E+2
  -2.11515E+4   7.37458E+2
  -2.10175E+4   7.44998E+2
  -2.09034E+4   7.43690E+2
  -2.08507E+4   7.37241E+2
  -2.07621E+4   7.00501E+2
  -2.07153E+4   7.18504E+2
  -2.06434E+4   6.82579E+2
  -2.05873E+4   6.71199E+2
  -2.04351E+4   6.62224E+2
  -2.04075E+4   6.10617E+2
  -2.02863E+4   7.01838E+2
  -2.02286E+4   6.10190E+2
  -2.01268E+4   6.18505E+2
  -2.01046E+4   6.06126E+2
  -1.99475E+4   5.63466E+2
  -1.98837E+4   5.50333E+2
  -1.97822E+4   6.28060E+2
  -1.97112E+4   6.20926E+2
  -1.96378E+4   6.22623E+2
  -1.95683E+4   6.69463E+2
  -1.94516E+4   6.41019E+2
  -1.93716E+4   6.47495E+2
  -1.93155E+4   6.46453E+2
  -1.92933E+4   5.61792E+2
  -1.91991E+4   6.57059E+2
  -1.90760E+4   7.32096E+2
  -1.90284E+4   6.40647E+2
  -1.89871E+4   6.92775E+2
  -1.88422E+4   7.12301E+2
  -1.88029E+4   7.24563E+2
  -1.87311E+4   7.28330E+2
  -1.86539E+4   7.61462E+2
  -1.85667E+4   7.84445E+2
  -1.84819E+4   8.26437E+2
  -1.83165E+4   8.15454E+2
  -1.84285E+4   8.50260E+2
  -1.83070E+4   8.83131E+2
  -1.81706E+4   8.80683E+2
  -1.80475E+4   8.38796E+2
  -1.80616E+4   9.71010E+2
  -1.80371E+4   8.97363E+2
  -1.79624E+4   9.90207E+2
  -1.78770E+4   9.15437E+2
  -1.78208E+4   9.92093E+2
  -1.77288E+4   1.07442E+3
  -1.76100E+4   1.00864E+3
  -1.75543E+4   1.02152E+3
  -1.75069E+4   1.04619E+3
  -1.73882E+4   1.08602E+3
  -1.74073E+4   1.11313E+3
  -1.72481E+4   1.04257E+3
  -1.71727E+4   1.15681E+3
  -1.70754E+4   1.09762E+3
  -1.69941E+4   1.16011E+3
  -1.69938E+4   1.10710E+3
  -1.69103E+4   1.12289E+3
  -1.68913E+4   1.13796E+3
  -1.67765E+4   1.18146E+3
  -1.66815E+4   1.23035E+3
  -1.65859E+4   1.18475E+3
  -1.65118E+4   1.26191E+3
  -1.64940E+4   1.26434E+3
  -1.63574E+4   1.21384E+3
  -1.63106E+4   1.23326E+3
  -1.62329E+4   1.27196E+3
  -1.61083E+4   1.31819E+3
  -1.60406E+4   1.37025E+3
  -1.60331E+4   1.33848E+3
  -1.59056E+4   1.39598E+3
  -1.58397E+4   1.30950E+3
  -1.58105E+4   1.40089E+3
  -1.56997E+4   1.36348E+3
  -1.56176E+4   1.36106E+3
  -1.54792E+4   1.42723E+3
  -1.53755E+4   1.47803E+3
  -1.53178E+4   1.50181E+3
  -1.52345E+4   1.52953E+3
  -1.52186E+4   1.45561E+3
  -1.50890E+4   1.45245E+3
  -1.49651E+4   1.48465E+3
  -1.49084E+4   1.55345E+3
  -1.48486E+4   1.58301E+3
  -1.47170E+4   1.59886E+3
  -1.46554E+4   1.56623E+3
  -1.45870E+4   1.60992E+3
  -1.45413E+4   1.65589E+3
  -1.44243E+4   1.60404E+3
  -1.42971E+4   1.65369E+3
  -1.41632E+4   1.65735E+3
  -1.41248E+4   1.66320E+3
  -1.40841E+4   1.68796E+3
  -1.40623E+4   1.71895E+3
  -1.39105E+4   1.76393E+3
  -1.38584E+4   1.71187E+3
  -1.37588E+4   1.70745E+3
  -1.37431E+4   1.72246E+3
  -1.35649E+4   1.74493E+3
  -1.34982E+4   1.77565E+3
  -1.34141E+4   1.83361E+3
  -1.33660E+4   1.81746E+3
  -1.32894E+4   1.81151E+3
  -1.31794E+4   1.86557E+3
  -1.30735E+4   1.82299E+3
  -1.29975E+4   1.88900E+3
  -1.29292E+4   1.88050E+3
  -1.28845E+4   1.83206E+3
  -1.27868E+4   1.93932E+3
  -1.26566E+4   2.04037E+3
  -1.26539E+4   1.89049E+3
  -1.25181E+4   1.90876E+3
  -1.23892E+4   1.91108E+3
  -1.24012E+4   1.98716E+3
  -1.23205E+4   1.95404E+3
  -1.22441E+4   1.95086E+3
  -1.21634E+4   2.02773E+3
  -1.20291E+4   1.96368E+3
  -1.19704E+4   1.98387E+3
  -1.19056E+4   1.97784E+3
  -1.18280E+4   2.04187E+3
  -1.17337E+4   1.98357E+3
  -1.17106E+4   1.99151E+3
  -1.15989E+4   1.98213E+3
  -1.15227E+4   2.06684E+3
  -1.14025E+4   2.02194E+3
  -1.13531E+4   2.14858E+3
  -1.13057E+4   2.11851E+3
  -1.12151E+4   2.05746E+3
  -1.11268E+4   2.06404E+3
  -1.09955E+4   2.06876E+3
  -1.10081E+4   2.09041E+3
  -1.09430E+4   2.04898E+3
  -1.08336E+4   2.04068E+3
  -1.07817E+4   2.03183E+3
  -1.06672E+4   2.03938E+3
  -1.06425E+4   2.09133E+3
  -1.05858E+4   2.12690E+3
  -1.04180E+4   2.11004E+3
  -1.03840E+4   2.09417E+3
  -1.03315E+4   2.10816E+3
  -1.02287E+4   2.08718E+3
  -1.01777E+4   2.16125E+3
  -1.01306E+4   2.13034E+3
  -1.00233E+4   2.10397E+3
  -1.00235E+4   2.15815E+3
  -9.96540E+3   2.08260E+3
  -9.77285E+3   2.10957E+3
  -9.78606E+3   2.13762E+3
  -9.67919E+3   2.18692E+3
  -9.70373E+3   2.18402E+3
  -9.58894E+3   2.18074E+3
  -9.53238E+3   2.09711E+3
  -9.52175E+3   2.08821E+3
  -9.37482E+3   2.21999E+3
  -9.31073E+3   2.14678E+3
  -9.15586E+3   2.12197E+3
  -9.14938E+3   2.16431E+3
  -9.16828E+3   2.20123E+3
  -9.04000E+3   2.18927E+3
  -8.99568E+3   2.18435E+3
  -8.89942E+3   2.19989E+3
  -8.83482E+3   2.17415E+3
  -8.81995E+3   2.18850E+3
  -8.69359E+3   2.18253E+3
  -8.70266E+3   2.12160E+3
  -8.54056E+3   2.14146E+3
  -8.58220E+3   2.17228E+3
  -8.49198E+3   2.16021E+3
  -8.39919E+3   2.14286E+3
  -8.34782E+3   2.14997E+3
  -8.22283E+3   2.20717E+3
  -8.22753E+3   2.17864E+3
  -8.16523E+3   2.23170E+3
  -8.02460E+3   2.13264E+3
  -7.99014E+3   2.11847E+3
  -7.95650E+3   2.21866E+3
  -7.92641E+3   2.08430E+3
  -7.75713E+3   2.20376E+3
  -7.74400E+3   2.18863E+3
  -7.71721E+3   2.13544E+3
  -7.69978E+3   2.20703E+3
  -7.60225E+3   2.11203E+3
  -7.48584E+3   2.20711E+3
  -7.46355E+3   2.21065E+3
  -7.45076E+3   2.22699E+3
  -7.38324E+3   2.19452E+3
  -7.39188E+3   2.23457E+3
  -7.23778E+3   2.16144E+3
  -7.27146E+3   2.18964E+3
  -7.13739E+3   2.15214E+3
  -7.12567E+3   2.14920E+3
  -7.00442E+3   2.05747E+3
  -6.95902E+3   2.23635E+3
  -6.92986E+3   2.18747E+3
