 LCModel (Version 6.3-1N) Copyright: S.W. Provencher.          Ref.: Magn. Reson. Med. 30:672-679 (1993).                
 Slice_N1@25_17  02-Jun-2023 14:37:54
 27 lines in following concentration table = NCONC+1
    Conc.  %SD /Cr+PCr  Metabolite                                         
 6.23E-07  58% 1.6E-04 Mac                                                 
 1.47E-05 999% 3.8E-03 Cr                                                  
 3.09E-02  78%   7.996 PCr                                                 
 5.97E-02  23%  15.449 Ins                                                 
 7.05E-02  18%  18.231 NAA                                                 
 6.23E-02  23%  16.122 Tau                                                 
 9.37E-03  35%   2.426 PCho                                                
    0.000 999%   0.000 GPC                                                 
 9.45E-02  15%  24.455 Glu                                                 
    0.000 999%   0.000 Gln                                                 
    0.000 999%   0.000 Ala                                                 
 5.04E-03 352%   1.304 Asc                                                 
 5.37E-03  34%   1.390 Asp                                                 
 3.39E-03  32%   0.876 GABA                                                
 3.45E-03  32%   0.892 Glc                                                 
    0.000 999%   0.000 GSH                                                 
    0.000 999%   0.000 Lac                                                 
 1.04E-02  89%   2.679 NAAG                                                
    0.000 999%   0.000 PE                                                  
 9.37E-03  35%   2.426 GPC+PCho                                            
 8.08E-02  13%  20.909 NAA+NAAG                                            
 9.45E-02  15%  24.455 Glu+Gln                                             
 3.09E-02  29%   8.000 Cr+PCr                                              
 8.08E-02  13%  20.909 NAA+NAAG                                            
 3.09E-02  29%   8.000 Cr+PCr                                              
 9.45E-02  15%  24.455 Glu+Gln                                             
   6 lines in following misc. output table
  FWHM = 0.093 ppm    S/N =   1                                            
  Data shift =-0.029 ppm                                                   
  Ph:  65 deg       9.3 deg/ppm                                            
  alphaB,S = 3.1E+01,   5.1E+01                                            
   18 spline knots.   Ns = 8(2)                                            
   2 inflections.     1 extrema                                            
  654 points on ppm-axis = NY
      4.000000     3.994181     3.988363     3.982544     3.976726     3.970907     3.965088     3.959270     3.953451     3.947633
      3.941814     3.935995     3.930177     3.924358     3.918540     3.912721     3.906902     3.901084     3.895265     3.889446
      3.883628     3.877809     3.871991     3.866172     3.860353     3.854535     3.848716     3.842898     3.837079     3.831260
      3.825442     3.819623     3.813805     3.807986     3.802167     3.796349     3.790530     3.784712     3.778893     3.773074
      3.767256     3.761437     3.755619     3.749800     3.743981     3.738163     3.732344     3.726526     3.720707     3.714888
      3.709070     3.703251     3.697433     3.691614     3.685795     3.679977     3.674158     3.668339     3.662521     3.656702
      3.650884     3.645065     3.639246     3.633428     3.627609     3.621791     3.615972     3.610153     3.604335     3.598516
      3.592698     3.586879     3.581060     3.575242     3.569423     3.563605     3.557786     3.551967     3.546149     3.540330
      3.534512     3.528693     3.522874     3.517056     3.511237     3.505419     3.499600     3.493781     3.487963     3.482144
      3.476326     3.470507     3.464688     3.458870     3.453051     3.447232     3.441414     3.435595     3.429777     3.423958
      3.418139     3.412321     3.406502     3.400684     3.394865     3.389046     3.383228     3.377409     3.371591     3.365772
      3.359953     3.354135     3.348316     3.342498     3.336679     3.330860     3.325042     3.319223     3.313405     3.307586
      3.301767     3.295949     3.290130     3.284312     3.278493     3.272674     3.266856     3.261037     3.255219     3.249400
      3.243581     3.237763     3.231944     3.226125     3.220307     3.214488     3.208670     3.202851     3.197032     3.191214
      3.185395     3.179577     3.173758     3.167939     3.162121     3.156302     3.150484     3.144665     3.138846     3.133028
      3.127209     3.121391     3.115572     3.109753     3.103935     3.098116     3.092298     3.086479     3.080660     3.074842
      3.069023     3.063205     3.057386     3.051567     3.045749     3.039930     3.034111     3.028293     3.022474     3.016656
      3.010837     3.005018     2.999200     2.993381     2.987563     2.981744     2.975925     2.970107     2.964288     2.958470
      2.952651     2.946832     2.941014     2.935195     2.929377     2.923558     2.917739     2.911921     2.906102     2.900284
      2.894465     2.888646     2.882828     2.877009     2.871191     2.865372     2.859553     2.853735     2.847916     2.842098
      2.836279     2.830460     2.824642     2.818823     2.813004     2.807186     2.801367     2.795549     2.789730     2.783911
      2.778093     2.772274     2.766456     2.760637     2.754818     2.749000     2.743181     2.737363     2.731544     2.725725
      2.719907     2.714088     2.708270     2.702451     2.696632     2.690814     2.684995     2.679177     2.673358     2.667539
      2.661721     2.655902     2.650084     2.644265     2.638446     2.632628     2.626809     2.620991     2.615172     2.609353
      2.603535     2.597716     2.591897     2.586079     2.580260     2.574442     2.568623     2.562804     2.556986     2.551167
      2.545349     2.539530     2.533711     2.527893     2.522074     2.516256     2.510437     2.504618     2.498800     2.492981
      2.487163     2.481344     2.475525     2.469707     2.463888     2.458070     2.452251     2.446432     2.440614     2.434795
      2.428977     2.423158     2.417339     2.411521     2.405702     2.399884     2.394065     2.388246     2.382428     2.376609
      2.370790     2.364972     2.359153     2.353335     2.347516     2.341697     2.335879     2.330060     2.324242     2.318423
      2.312604     2.306786     2.300967     2.295149     2.289330     2.283511     2.277693     2.271874     2.266056     2.260237
      2.254418     2.248600     2.242781     2.236963     2.231144     2.225325     2.219507     2.213688     2.207870     2.202051
      2.196232     2.190414     2.184595     2.178777     2.172958     2.167139     2.161321     2.155502     2.149683     2.143865
      2.138046     2.132228     2.126409     2.120590     2.114772     2.108953     2.103135     2.097316     2.091497     2.085679
      2.079860     2.074042     2.068223     2.062404     2.056586     2.050767     2.044949     2.039130     2.033311     2.027493
      2.021674     2.015856     2.010037     2.004218     1.998400     1.992581     1.986763     1.980944     1.975126     1.969307
      1.963489     1.957670     1.951852     1.946033     1.940215     1.934397     1.928578     1.922760     1.916941     1.911123
      1.905304     1.899486     1.893667     1.887849     1.882030     1.876212     1.870393     1.864575     1.858756     1.852938
      1.847119     1.841301     1.835482     1.829664     1.823845     1.818027     1.812208     1.806390     1.800571     1.794753
      1.788934     1.783116     1.777297     1.771479     1.765660     1.759842     1.754023     1.748205     1.742386     1.736568
      1.730749     1.724931     1.719113     1.713294     1.707476     1.701657     1.695839     1.690020     1.684202     1.678383
      1.672565     1.666746     1.660928     1.655109     1.649291     1.643472     1.637654     1.631835     1.626017     1.620198
      1.614380     1.608561     1.602743     1.596924     1.591106     1.585287     1.579469     1.573650     1.567832     1.562013
      1.556195     1.550376     1.544558     1.538739     1.532921     1.527102     1.521284     1.515465     1.509647     1.503829
      1.498010     1.492192     1.486373     1.480555     1.474736     1.468918     1.463099     1.457281     1.451462     1.445644
      1.439825     1.434007     1.428188     1.422370     1.416551     1.410733     1.404914     1.399096     1.393277     1.387459
      1.381640     1.375822     1.370003     1.364185     1.358366     1.352548     1.346729     1.340911     1.335092     1.329274
      1.323455     1.317637     1.311818     1.306000     1.300182     1.294363     1.288545     1.282726     1.276908     1.271089
      1.265271     1.259452     1.253634     1.247815     1.241997     1.236178     1.230360     1.224541     1.218723     1.212904
      1.207086     1.201267     1.195449     1.189630     1.183812     1.177993     1.172175     1.166356     1.160538     1.154719
      1.148901     1.143082     1.137264     1.131445     1.125627     1.119808     1.113990     1.108171     1.102353     1.096534
      1.090716     1.084898     1.079079     1.073261     1.067442     1.061624     1.055805     1.049987     1.044168     1.038350
      1.032531     1.026713     1.020894     1.015076     1.009257     1.003439     0.997620     0.991802     0.985983     0.980165
      0.974346     0.968528     0.962709     0.956891     0.951072     0.945254     0.939435     0.933617     0.927798     0.921980
      0.916161     0.910343     0.904524     0.898706     0.892887     0.887069     0.881251     0.875432     0.869614     0.863795
      0.857977     0.852158     0.846340     0.840521     0.834703     0.828884     0.823066     0.817247     0.811429     0.805610
      0.799792     0.793973     0.788155     0.782336     0.776518     0.770699     0.764881     0.759062     0.753244     0.747425
      0.741607     0.735788     0.729970     0.724151     0.718333     0.712514     0.706696     0.700877     0.695059     0.689240
      0.683422     0.677603     0.671785     0.665967     0.660148     0.654330     0.648511     0.642693     0.636874     0.631056
      0.625237     0.619419     0.613600     0.607782     0.601963     0.596145     0.590326     0.584508     0.578689     0.572871
      0.567052     0.561234     0.555415     0.549597     0.543778     0.537960     0.532141     0.526323     0.520504     0.514686
      0.508867     0.503049     0.497230     0.491412     0.485593     0.479775     0.473956     0.468138     0.462319     0.456501
      0.450682     0.444864     0.439045     0.433227     0.427408     0.421590     0.415771     0.409953     0.404134     0.398316
      0.392497     0.386679     0.380860     0.375042     0.369223     0.363405     0.357586     0.351767     0.345949     0.340130
      0.334312     0.328493     0.322675     0.316856     0.311038     0.305219     0.299401     0.293582     0.287764     0.281945
      0.276127     0.270308     0.264490     0.258671     0.252853     0.247034     0.241216     0.235397     0.229579     0.223760
      0.217942     0.212123     0.206305     0.200486
 NY phased data points follow
  -1.70848E-01 -1.83005E-01  2.12277E-01  4.17862E-01 -1.00802E-01  9.67622E-02 -1.11148E-02 -2.65575E-01  1.40141E-01  1.38230E-01
   2.27769E-02 -2.78661E-02  5.87126E-02  2.23856E-02  1.11459E-01  1.70712E-01 -1.08948E-01  2.00927E-02  1.28671E-01 -1.17895E-01
  -1.64791E-01 -2.57643E-01  1.39468E-01  1.33902E-01  9.04284E-02 -1.11119E-01 -2.48745E-01  2.11888E-01 -1.95530E-01  8.04980E-03
  -2.96371E-01 -1.88073E-02  3.79771E-01  3.22508E-02  1.75031E-01 -2.05166E-01  4.17565E-02  1.59795E-01  2.03831E-02 -6.06932E-02
  -8.12373E-02 -5.28065E-01 -2.80109E-02  2.52087E-01 -2.86223E-01  1.81103E-01 -1.10925E-01  1.39122E-01 -9.11041E-02  8.11214E-02
   3.64909E-01 -2.52932E-01  7.13769E-02  2.33479E-01  3.50557E-01  1.85131E-01  4.64142E-02  3.85067E-02  1.20306E-01 -1.28459E-02
   2.52321E-02 -1.64240E-01 -3.70682E-01 -3.34113E-01 -3.06206E-01  1.65238E-01 -9.24186E-02  6.25854E-02  1.08806E-01  1.48509E-02
   2.26860E-02 -1.45237E-02 -3.25896E-01 -1.31332E-01  1.87297E-01 -1.13630E-01  2.07311E-01 -1.38097E-01  3.18163E-01  1.23008E-01
  -6.69500E-02  8.17891E-02 -2.51073E-01  2.78379E-01  1.61930E-01  2.15052E-01 -3.04845E-02 -1.68339E-01 -1.91615E-01 -3.47588E-02
  -1.61416E-02 -2.49821E-01 -8.93512E-02 -1.08232E-01 -2.31299E-01 -2.06587E-02  4.39397E-01  2.95151E-02  5.55383E-02  9.06447E-02
   2.02036E-01  1.09772E-01 -1.98261E-01 -1.53898E-01 -4.00543E-01  1.90414E-01  2.21258E-01 -3.33965E-02 -7.52248E-03 -2.80346E-02
   2.49452E-02  9.94606E-02  1.52963E-01 -8.85527E-03  3.84847E-01  3.02094E-01  3.07610E-01  3.26886E-01  1.65688E-01  5.21645E-01
   1.08084E-01  3.17924E-01  3.28610E-01 -1.58440E-01  2.70182E-01  6.42910E-02 -1.17937E-01  4.78761E-02 -5.20702E-02 -1.77785E-01
  -2.93400E-01  3.06201E-02  3.41419E-02 -3.49652E-01 -3.75981E-01 -5.96553E-01 -3.79829E-01 -1.51168E-01 -2.41237E-01 -7.08013E-02
  -2.25217E-01 -4.63778E-01 -5.39829E-01 -3.35478E-01 -2.78953E-01 -1.23520E-01 -1.56737E-01 -3.53152E-01  9.02106E-02  1.70763E-01
  -1.05017E-02  3.66152E-01  2.00453E-01 -2.15069E-03  1.66978E-01  8.71162E-02  2.51786E-01  2.44807E-01  4.50694E-01  7.30491E-02
   1.67848E-01  4.09447E-01  2.26187E-01  3.20814E-01 -1.96558E-01  7.93672E-02  1.90277E-01  1.83060E-01  3.28809E-02 -9.13114E-02
   9.33328E-02  1.17895E-01 -6.36624E-02 -1.00012E-02  2.61329E-01 -2.72210E-01 -1.81287E-01 -3.03841E-01 -4.88826E-01 -4.35750E-01
  -1.59524E-01  7.46415E-02 -2.14387E-01 -2.10764E-01 -2.25527E-01  3.78754E-02  3.48265E-02 -1.80901E-01 -5.80623E-02  9.97065E-03
  -1.83453E-02 -1.50896E-03 -3.49270E-01 -2.68061E-01  2.36990E-02  1.55077E-01 -1.09034E-01 -2.96926E-01 -9.26083E-02 -3.25600E-01
   2.04932E-01  2.06375E-01 -1.20200E-01  3.27746E-02 -1.60758E-01 -1.62157E-01 -1.05529E-01 -1.49013E-01  2.12623E-01  2.42523E-01
  -2.21216E-01 -4.99176E-02  4.57992E-02 -5.16530E-02  2.12174E-02 -2.47110E-01 -2.13447E-01  1.87065E-01 -7.39025E-02  2.51329E-01
   1.76847E-01 -3.17721E-02  3.13489E-01  1.77260E-01  2.14954E-01  9.89351E-02  3.72087E-01 -5.21683E-02  3.00316E-02  3.91601E-01
  -1.27875E-01  2.77544E-01  3.32535E-01 -1.39869E-02  1.68323E-01 -2.40550E-02  4.20203E-02  3.61088E-01 -1.73833E-01  5.46959E-03
   1.24361E-01 -2.19807E-01  6.86409E-03  1.37874E-02 -3.35356E-01 -1.11131E-02  2.39642E-01 -1.27234E-01 -2.18396E-01 -2.99040E-01
   3.61954E-02  5.24487E-02  4.89999E-02 -6.26965E-02 -4.20554E-01  6.65836E-03  4.14177E-01  9.96022E-02  2.77628E-02  9.25527E-02
  -5.60367E-02 -5.37948E-02 -1.31598E-01  1.68598E-01  2.87834E-02 -9.97334E-02  9.15543E-02  3.61628E-01  2.65465E-03 -6.36344E-02
   3.27009E-01 -2.51719E-02 -1.13006E-01 -1.69004E-01  1.55158E-01 -9.34383E-02 -2.03388E-01 -1.45868E-01 -1.11209E-01 -1.37290E-01
  -4.51633E-01  1.14030E-01 -1.61358E-01 -2.38827E-01  1.52335E-01 -3.23634E-01 -9.91959E-02  1.73931E-01 -5.33543E-02  1.19905E-01
  -1.13235E-02  3.68060E-02 -1.14032E-02  4.96867E-01  3.84593E-01 -2.47145E-02  6.91625E-01  3.51568E-01  2.70073E-01  8.40648E-03
   1.69675E-01  4.33677E-01  1.15643E-01  3.12107E-02  2.17828E-01  7.22545E-01  2.05277E-01  1.58602E-01  3.63289E-01  2.27794E-01
   4.30152E-02 -8.93912E-02  2.52298E-01  2.75057E-01  1.01783E-01  2.78161E-01  2.59019E-01  1.51419E-01  9.01161E-02 -6.49847E-02
  -1.66073E-01 -6.79854E-02 -1.53684E-02 -1.65064E-01 -2.71302E-02 -2.05330E-02  8.60026E-02 -8.17023E-02  1.92099E-01 -8.34025E-02
  -4.94220E-01  1.47162E-02 -2.10770E-01 -2.02891E-01 -3.26568E-01 -2.29856E-01 -1.03181E-01 -3.27795E-01 -5.83839E-01 -3.48316E-01
  -4.50671E-01 -6.34957E-01 -4.05927E-01 -8.67753E-01 -6.11042E-01 -6.71828E-01 -6.24853E-01 -5.76701E-01 -3.53581E-01  3.54965E-02
  -2.78205E-01 -1.46718E-01 -2.73489E-01 -1.89246E-01  5.79631E-02  1.62120E-01  1.42431E-01  2.23063E-01  2.27365E-01  1.03853E-01
   3.41535E-01  3.25588E-01  1.55626E-04  6.99444E-02  2.01151E-01 -3.06856E-02  1.73064E-01 -4.97980E-02  1.14318E-01  3.54199E-01
  -2.64753E-01 -4.32129E-02  1.56129E-01  3.04534E-02  6.54214E-02  9.38229E-02  7.05921E-02  3.43703E-01  3.20038E-01  1.56897E-01
   2.21145E-01  9.65734E-02  4.34095E-01  1.13437E-01  1.59422E-01  5.51292E-02  1.66809E-02  5.72807E-01 -4.87382E-02  4.29271E-01
   4.44389E-01 -2.45695E-01  1.50439E-01  2.41962E-01  1.11824E-01  1.52184E-01 -7.26955E-02  1.91190E-02  3.22866E-01 -1.00190E-01
   2.64473E-01  2.62852E-01 -1.33342E-01  1.29744E-01  3.78036E-02 -1.15251E-01 -3.82068E-01 -2.45430E-01 -2.78948E-01 -3.47373E-01
  -4.09122E-02 -4.10295E-02 -1.22228E-01 -1.33785E-01  1.29228E-01  1.37315E-01 -1.62456E-01 -1.79227E-01  1.64525E-01 -1.24883E-01
  -2.54516E-01  6.18390E-02 -2.94266E-01  3.05856E-02 -1.35478E-01 -2.75918E-01  2.07581E-01 -8.22575E-02 -1.78669E-01 -1.54184E-01
   1.82426E-01  4.43238E-02 -2.88523E-01 -5.49734E-02  1.47827E-02  7.70242E-02 -2.96494E-02 -1.72165E-02  5.77321E-02 -8.87607E-02
  -8.38284E-02 -5.00030E-02  1.23156E-01  2.51747E-01  1.93916E-01  3.93538E-01  1.78859E-01 -5.10473E-02  8.82353E-02 -1.25267E-01
  -4.18776E-02  2.04141E-01  5.27761E-03  3.51295E-02  6.35708E-02 -1.25956E-01 -2.30427E-03  3.87064E-01  1.10549E-01 -2.68828E-01
   6.78342E-02 -1.00364E-02  1.71634E-02  5.56686E-02 -3.21571E-02 -2.38521E-01 -3.29559E-01 -1.94014E-01 -7.77790E-02  9.07794E-02
  -4.46278E-02  5.18585E-02 -2.10475E-01  1.66498E-01  2.19830E-01 -1.62211E-01  3.02640E-01  2.17459E-01 -6.88875E-02  2.03127E-02
   2.94863E-02 -1.78675E-01  1.23529E-02  4.73997E-02 -2.17422E-01 -2.72069E-01  3.59768E-01  1.00510E-01 -8.35985E-02  1.70901E-01
  -2.71094E-01 -3.66364E-02  2.15074E-02  3.88128E-01 -3.14718E-02 -8.49276E-02  3.29514E-01 -1.47923E-01 -5.82034E-02 -3.52280E-01
  -1.28696E-01  4.40546E-01  3.10603E-03 -4.07450E-01  1.70764E-01  3.05499E-01  1.44066E-01  9.57850E-02 -1.13498E-01  2.42932E-01
   1.50390E-01  1.65739E-01  2.04551E-01  2.42885E-01  1.71027E-01 -1.05967E-01  2.45197E-01 -1.93147E-02 -1.78400E-01 -1.80758E-01
  -7.50632E-02  4.26268E-02 -5.85774E-02  1.76800E-02 -7.84618E-02 -1.05710E-01 -3.91681E-01 -1.78930E-01 -1.91076E-01 -2.50096E-01
  -1.42320E-01 -2.07067E-01 -3.55154E-01 -2.59655E-01  1.64603E-01 -2.76504E-01 -3.61670E-01 -6.74956E-02  2.02846E-01 -2.97593E-02
   1.88779E-01  2.58857E-01  1.63905E-02  9.03940E-02 -1.05676E-01  2.55737E-01 -9.24225E-04 -8.49999E-03  2.76818E-01  1.56328E-01
  -9.95774E-02  2.97632E-01  3.26780E-01 -2.93916E-02  4.68874E-02 -8.97160E-02  2.72944E-01  1.61936E-01  2.00249E-01  4.68867E-04
   3.90694E-03  3.42928E-01  1.74247E-01  2.36755E-01 -2.10895E-01 -3.43472E-01  1.98365E-01  1.44867E-01  5.99991E-02  1.91351E-01
   5.89749E-02  9.30775E-02  2.14722E-01  3.10477E-01  2.84088E-02 -2.51142E-05  7.90671E-02  1.40298E-01  4.45387E-01 -2.95620E-02
  -4.94991E-01 -7.32854E-02 -3.42763E-03 -2.38539E-02 -3.66515E-02 -3.68022E-01 -4.58076E-02 -2.28047E-01 -2.19660E-01 -4.43692E-02
   1.65358E-01  2.55366E-01 -2.81748E-01 -2.13660E-01  8.36981E-02  1.09478E-01 -3.86718E-02  3.96739E-02 -1.85323E-02  1.18456E-01
  -1.55801E-01  1.67631E-02  1.00747E-01 -2.33408E-01  5.99582E-02 -1.11314E-01 -2.53049E-02 -2.28885E-01 -1.00035E-01 -1.40725E-01
  -2.76336E-01  1.04474E-01 -5.96098E-02  5.18666E-03  1.25949E-01 -2.40838E-01 -1.83643E-01  3.12042E-02 -1.60621E-01  9.30148E-02
  -2.04773E-01  4.82319E-02  3.09426E-01 -5.61965E-02  1.38492E-01 -1.06128E-01  1.43346E-01 -3.85478E-02 -1.78482E-01  7.74828E-02
  -2.19482E-01  1.03266E-02  6.52851E-02  1.71227E-01  2.28979E-01  3.45256E-02  3.12083E-01  3.19368E-01  5.44786E-02  2.39213E-01
  -3.88436E-03 -2.30070E-01  8.83502E-02 -3.26246E-01 -1.89174E-01 -8.33674E-02 -2.92163E-01  1.54890E-01  1.58054E-01  1.38465E-01
   2.48217E-01  2.33048E-02 -2.67851E-01  8.69869E-02
 NY points of the fit to the data follow
   9.13864E-02  7.46214E-02  7.93265E-02  5.44529E-02  7.28187E-02  4.70967E-02  8.07661E-02  5.62009E-02  1.03899E-01  7.47682E-02
   1.27399E-01  8.61965E-02  1.41897E-01  9.43005E-02  1.52513E-01  9.98466E-02  1.56817E-01  1.00620E-01  1.50188E-01  9.36472E-02
   1.29183E-01  7.72201E-02  9.23634E-02  5.10366E-02  4.24241E-02  1.85584E-02 -3.31740E-03 -1.44577E-02 -3.55058E-02 -4.35400E-02
  -5.14532E-02 -6.30820E-02 -6.48867E-02 -7.54673E-02 -6.70204E-02 -7.59148E-02 -5.81087E-02 -6.64153E-02 -3.99461E-02 -4.81007E-02
  -1.45790E-02 -2.32399E-02  1.50766E-02  5.69672E-03  4.74322E-02  3.71720E-02  8.02606E-02  6.92673E-02  1.10062E-01  9.54196E-02
   1.29765E-01  1.10117E-01  1.22965E-01  1.04290E-01  8.48719E-02  6.62035E-02  2.52299E-02  8.07936E-03 -3.26276E-02 -4.33002E-02
  -6.67119E-02 -6.77158E-02 -7.52515E-02 -6.95062E-02 -6.52530E-02 -5.50769E-02 -4.53136E-02 -3.95753E-02 -2.13954E-02 -2.60233E-02
  -1.67123E-03 -1.31402E-02  1.80274E-02  1.10949E-03  3.91872E-02  1.59420E-02  5.66532E-02  2.49071E-02  6.20225E-02  3.00905E-02
   4.69839E-02  2.76018E-02  2.35099E-02  2.05381E-02  1.14043E-02  1.56459E-02  1.56976E-02  2.27715E-02  2.10566E-02  4.46814E-02
   2.97093E-02  7.36150E-02  4.17590E-02  1.02943E-01  4.73414E-02  1.10037E-01  3.24937E-02  9.14543E-02 -5.53063E-03  6.03504E-02
  -4.60134E-02  4.47732E-02 -6.83737E-02  4.29191E-02 -6.14853E-02  6.16512E-02 -3.01592E-02  9.68388E-02  2.99972E-02  1.45857E-01
   1.11386E-01  2.02801E-01  1.94282E-01  2.51616E-01  2.50877E-01  2.73545E-01  2.60057E-01  2.56897E-01  2.30766E-01  2.10530E-01
   2.02122E-01  1.56079E-01  1.63156E-01  8.90432E-02  9.97425E-02  7.62933E-03  1.85110E-02 -8.22977E-02 -7.04767E-02 -1.72462E-01
  -1.57206E-01 -2.55712E-01 -2.38718E-01 -3.26237E-01 -3.01771E-01 -3.70022E-01 -3.39504E-01 -3.76381E-01 -3.52116E-01 -3.39537E-01
  -3.38060E-01 -2.65925E-01 -2.93745E-01 -1.76129E-01 -2.22000E-01 -1.00381E-01 -1.37444E-01 -4.67936E-02 -4.60115E-02 -1.08969E-03
   2.68888E-02  4.64398E-02  8.19570E-02  9.06109E-02  1.09035E-01  1.18252E-01  1.33927E-01  1.40039E-01  1.46462E-01  1.51012E-01
   1.46151E-01  1.51352E-01  1.35685E-01  1.40786E-01  1.11808E-01  1.19206E-01  7.99887E-02  8.93031E-02  4.07609E-02  5.10947E-02
  -6.57718E-03  4.81931E-03 -6.00368E-02 -4.61764E-02 -1.12833E-01 -9.50391E-02 -1.55728E-01 -1.32018E-01 -1.76009E-01 -1.43480E-01
  -1.55849E-01 -1.25031E-01 -1.13761E-01 -9.43679E-02 -7.79295E-02 -7.28355E-02 -6.81499E-02 -6.28669E-02 -5.73388E-02 -5.28711E-02
  -4.83599E-02 -4.45027E-02 -4.08922E-02 -3.72510E-02 -3.39447E-02 -3.04702E-02 -2.75448E-02 -2.44446E-02 -2.19412E-02 -1.93879E-02
  -1.74551E-02 -1.56908E-02 -1.41602E-02 -1.23925E-02 -1.12067E-02 -9.61986E-03 -8.95267E-03 -7.64312E-03 -7.44947E-03 -8.57464E-03
  -8.58915E-03 -7.58142E-03 -7.32976E-03 -2.85513E-03 -4.94659E-03  2.98067E-03  3.00825E-03  1.56540E-02  1.87444E-02  3.58184E-02
   3.94206E-02  6.09594E-02  6.26181E-02  8.63224E-02  8.45715E-02  1.09544E-01  1.04247E-01  1.28426E-01  1.18014E-01  1.39672E-01
   1.24935E-01  1.42447E-01  1.24085E-01  1.35215E-01  1.13381E-01  1.15475E-01  9.02947E-02  8.23218E-02  5.50982E-02  4.43985E-02
   1.69124E-02  3.31270E-03 -2.10082E-02 -3.35087E-02 -5.19346E-02 -6.23350E-02 -7.33169E-02 -7.38442E-02 -8.07857E-02 -7.33220E-02
  -8.21016E-02 -7.00499E-02 -7.53694E-02 -5.96594E-02 -6.12325E-02 -4.43935E-02 -4.12203E-02 -2.47814E-02 -1.79248E-02 -3.17251E-03
   7.24967E-03  1.89999E-02  3.16076E-02  3.78440E-02  5.19043E-02  5.01065E-02  6.48499E-02  4.84527E-02  6.25924E-02  2.11524E-02
   2.89656E-02 -2.93383E-02 -3.60010E-02 -8.95206E-02 -1.06530E-01 -1.40287E-01 -1.60295E-01 -1.78598E-01 -1.88271E-01 -1.95015E-01
  -1.92607E-01 -1.90329E-01 -1.73572E-01 -1.62416E-01 -1.36273E-01 -1.16166E-01 -8.23878E-02 -5.18311E-02 -1.14709E-02  2.89901E-02
   7.38733E-02  1.19782E-01  1.64759E-01  2.07758E-01  2.45985E-01  2.72664E-01  2.95962E-01  2.94651E-01  2.93942E-01  2.72454E-01
   2.48119E-01  2.29218E-01  1.96826E-01  1.91845E-01  1.66865E-01  1.66223E-01  1.49106E-01  1.45275E-01  1.28094E-01  1.22445E-01
   1.01234E-01  9.63635E-02  6.82233E-02  6.77153E-02  3.19864E-02  4.09383E-02 -2.50734E-03  2.01887E-02 -3.17365E-02  3.74799E-03
  -5.34028E-02 -9.75375E-03 -7.03625E-02 -3.20300E-02 -8.63524E-02 -6.37305E-02 -8.01816E-02 -8.45119E-02 -8.83337E-02 -1.16868E-01
  -1.25008E-01 -1.66835E-01 -1.76669E-01 -2.28022E-01 -2.34051E-01 -2.93958E-01 -2.95741E-01 -3.61998E-01 -3.69507E-01 -4.30845E-01
  -4.41240E-01 -4.81413E-01 -5.01414E-01 -5.01714E-01 -5.38017E-01 -4.86275E-01 -5.39908E-01 -4.39189E-01 -4.98918E-01 -3.68539E-01
  -4.16662E-01 -2.86797E-01 -2.95861E-01 -1.92122E-01 -1.43138E-01 -8.43057E-02 -2.09675E-02  2.58233E-05  2.85710E-02  2.89186E-02
   1.41585E-02  1.59660E-02  1.16559E-02  1.47967E-02  1.00592E-02  1.28178E-02  7.98927E-03  1.04431E-02  6.34289E-03  8.68470E-03
   6.23753E-03  8.73894E-03  8.63070E-03  1.15802E-02  1.36299E-02  1.71566E-02  2.02933E-02  2.40550E-02  2.71606E-02  3.04137E-02
   3.31074E-02  3.53697E-02  3.75738E-02  3.90084E-02  4.07094E-02  4.17243E-02  4.29791E-02  4.38288E-02  4.46668E-02  4.54946E-02
   4.59321E-02  4.67131E-02  4.67091E-02  4.73911E-02  4.69529E-02  4.74821E-02  4.66363E-02  4.68958E-02  4.57425E-02  4.56082E-02
   4.42529E-02  4.36696E-02  4.21558E-02  4.11607E-02  3.94869E-02  3.82156E-02  3.64528E-02  3.50658E-02  3.32765E-02  3.18621E-02
   3.01194E-02  2.87094E-02  2.71088E-02  2.57503E-02  2.43864E-02  2.31526E-02  2.21358E-02  2.10406E-02  2.03689E-02  1.94199E-02
   1.90478E-02  1.83082E-02  1.81732E-02  1.77131E-02  1.77998E-02  1.76231E-02  1.79371E-02  1.80270E-02  1.86018E-02  1.90005E-02
   1.98265E-02  2.05785E-02  2.16595E-02  2.27585E-02  2.41168E-02  2.55431E-02  2.71423E-02  2.88875E-02  3.06595E-02  3.26794E-02
   3.45594E-02  3.68105E-02  3.87890E-02  4.11911E-02  4.32146E-02  4.56270E-02  4.75647E-02  4.97741E-02  5.14549E-02  5.32883E-02
   5.44914E-02  5.58254E-02  5.64521E-02  5.71474E-02  5.71029E-02  5.70602E-02  5.62979E-02  5.55486E-02  5.41215E-02  5.27383E-02
   5.07785E-02  4.88754E-02  4.66200E-02  4.43432E-02  4.20357E-02  3.95539E-02  3.73801E-02  3.48441E-02  3.29848E-02  3.05973E-02
   2.91834E-02  2.71630E-02  2.62198E-02  2.46660E-02  2.41307E-02  2.30936E-02  2.28971E-02  2.24046E-02  2.25153E-02  2.25109E-02
   2.28919E-02  2.32718E-02  2.38551E-02  2.44893E-02  2.51893E-02  2.59736E-02  2.66434E-02  2.74459E-02  2.79551E-02  2.86578E-02
   2.89148E-02  2.94219E-02  2.93941E-02  2.96197E-02  2.93332E-02  2.92345E-02  2.87187E-02  2.83380E-02  2.76385E-02  2.70428E-02
   2.62012E-02  2.54278E-02  2.44354E-02  2.35107E-02  2.24446E-02  2.14041E-02  2.03534E-02  1.91901E-02  1.81469E-02  1.68631E-02
   1.56606E-02  1.42559E-02  1.27465E-02  1.11929E-02  9.30374E-03  7.49784E-03  5.17393E-03  3.06667E-03  3.00934E-04 -2.13964E-03
  -5.32070E-03 -8.06839E-03 -1.15720E-02 -1.45040E-02 -1.81657E-02 -2.11021E-02 -2.47106E-02 -2.74550E-02 -3.07693E-02 -3.31721E-02
  -3.59704E-02 -3.78342E-02 -3.98925E-02 -4.10528E-02 -4.21901E-02 -4.25338E-02 -4.27222E-02 -4.22620E-02 -4.15771E-02 -4.03918E-02
  -3.89787E-02 -3.72039E-02 -3.52276E-02 -3.30390E-02 -3.07057E-02 -2.82956E-02 -2.57392E-02 -2.32865E-02 -2.06240E-02 -1.81933E-02
  -1.54849E-02 -1.31343E-02 -1.04617E-02 -8.21946E-03 -5.61235E-03 -3.60756E-03 -1.15043E-03  5.49214E-04  2.74670E-03  4.17156E-03
   6.04896E-03  7.29131E-03  8.79389E-03  9.92164E-03  1.10796E-02  1.20670E-02  1.29692E-02  1.38080E-02  1.45077E-02  1.52117E-02
   1.57466E-02  1.63536E-02  1.67659E-02  1.72335E-02  1.76393E-02  1.80127E-02  1.84194E-02  1.87046E-02  1.90665E-02  1.93301E-02
   1.96355E-02  1.98430E-02  2.01197E-02  2.02554E-02  2.04908E-02  2.05708E-02  2.07200E-02  2.07721E-02  2.08588E-02  2.09616E-02
   2.10060E-02  2.11507E-02  2.12045E-02  2.13760E-02  2.14431E-02  2.16277E-02  2.17371E-02  2.19695E-02  2.21163E-02  2.23824E-02
   2.26012E-02  2.28452E-02  2.32153E-02  2.34479E-02  2.39653E-02  2.41878E-02  2.48456E-02  2.49989E-02  2.57987E-02  2.58494E-02
   2.68346E-02  2.69152E-02  2.79783E-02  2.81023E-02  2.91538E-02  2.93514E-02  3.03760E-02  3.06173E-02  3.16548E-02  3.19711E-02
   3.30054E-02  3.34343E-02  3.44410E-02  3.50018E-02  3.59737E-02  3.67110E-02  3.76425E-02  3.85073E-02  3.94273E-02  4.03519E-02
   4.12827E-02  4.22408E-02  4.31967E-02  4.42228E-02  4.52201E-02  4.63222E-02  4.74402E-02  4.86414E-02  4.99394E-02  5.13125E-02
   5.27701E-02  5.44280E-02  5.59716E-02  5.79547E-02  5.96264E-02  6.19299E-02  6.37988E-02  6.64296E-02  6.85279E-02  7.14817E-02
   7.38633E-02  7.71642E-02  7.99327E-02  8.36451E-02
 NY background values follow
     7.004E-02    6.984E-02    6.964E-02    6.943E-02    6.923E-02    6.903E-02    6.882E-02    6.862E-02    6.842E-02    6.822E-02
     6.801E-02    6.781E-02    6.761E-02    6.740E-02    6.720E-02    6.700E-02    6.679E-02    6.659E-02    6.639E-02    6.618E-02
     6.598E-02    6.578E-02    6.557E-02    6.537E-02    6.517E-02    6.496E-02    6.476E-02    6.456E-02    6.435E-02    6.415E-02
     6.395E-02    6.374E-02    6.354E-02    6.334E-02    6.313E-02    6.293E-02    6.273E-02    6.253E-02    6.232E-02    6.212E-02
     6.192E-02    6.171E-02    6.151E-02    6.131E-02    6.110E-02    6.090E-02    6.070E-02    6.049E-02    6.029E-02    6.009E-02
     5.988E-02    5.968E-02    5.948E-02    5.927E-02    5.907E-02    5.887E-02    5.866E-02    5.846E-02    5.826E-02    5.805E-02
     5.785E-02    5.765E-02    5.744E-02    5.724E-02    5.704E-02    5.684E-02    5.663E-02    5.643E-02    5.623E-02    5.602E-02
