 
 $NMID
 ID=''
 FMTDAT='(2E13.5)'
 TRAMP=   1.00000E+0
 VOLUME=   1.00000E+0
 $END
  -1.48886E+4  -1.01491E+4
  -2.97029E+4  -3.57345E+4
  -3.58034E+4  -2.95162E+4
  -3.32973E+4  -2.65469E+4
  -3.38653E+4  -2.80004E+4
  -3.53108E+4  -2.59180E+4
  -3.38351E+4  -2.45150E+4
  -3.37966E+4  -2.50489E+4
  -3.47043E+4  -2.36490E+4
  -3.37464E+4  -2.26572E+4
  -3.35066E+4  -2.26684E+4
  -3.41897E+4  -2.12340E+4
  -3.37165E+4  -2.03639E+4
  -3.36396E+4  -2.04863E+4
  -3.38019E+4  -1.95427E+4
  -3.34225E+4  -1.87471E+4
  -3.33160E+4  -1.86251E+4
  -3.36171E+4  -1.78403E+4
  -3.32291E+4  -1.70595E+4
  -3.31465E+4  -1.69195E+4
  -3.31687E+4  -1.61611E+4
  -3.29538E+4  -1.52919E+4
  -3.29038E+4  -1.50529E+4
  -3.28752E+4  -1.44843E+4
  -3.24600E+4  -1.38272E+4
  -3.23488E+4  -1.35449E+4
  -3.22620E+4  -1.30470E+4
  -3.18692E+4  -1.25860E+4
  -3.15747E+4  -1.24359E+4
  -3.13583E+4  -1.19616E+4
  -3.10328E+4  -1.13847E+4
  -3.08462E+4  -1.11015E+4
  -3.05716E+4  -1.08315E+4
  -3.00990E+4  -1.03888E+4
  -2.98216E+4  -9.93083E+3
  -2.95793E+4  -9.48805E+3
  -2.91359E+4  -8.99800E+3
  -2.88564E+4  -8.69939E+3
  -2.86274E+4  -8.36046E+3
  -2.82772E+4  -7.89826E+3
  -2.79980E+4  -7.60041E+3
  -2.77650E+4  -7.38666E+3
  -2.72965E+4  -7.13929E+3
  -2.67957E+4  -6.77726E+3
  -2.64820E+4  -6.41160E+3
  -2.61176E+4  -6.15110E+3
  -2.57927E+4  -5.92639E+3
  -2.54092E+4  -5.62473E+3
  -2.50192E+4  -5.34096E+3
  -2.46059E+4  -5.10269E+3
  -2.41819E+4  -4.93295E+3
  -2.37212E+4  -4.69146E+3
  -2.32608E+4  -4.35034E+3
  -2.29487E+4  -4.16301E+3
  -2.24635E+4  -3.95977E+3
  -2.21011E+4  -3.66589E+3
  -2.16265E+4  -3.58217E+3
  -2.12515E+4  -3.33324E+3
  -2.07814E+4  -3.13556E+3
  -2.02723E+4  -2.87400E+3
  -1.98281E+4  -2.68091E+3
  -1.94689E+4  -2.49307E+3
  -1.90936E+4  -2.22014E+3
  -1.86112E+4  -2.13653E+3
  -1.81916E+4  -1.96627E+3
  -1.77771E+4  -1.76748E+3
  -1.73756E+4  -1.63956E+3
  -1.69847E+4  -1.56999E+3
  -1.66325E+4  -1.31101E+3
  -1.62443E+4  -1.15919E+3
  -1.58463E+4  -1.08756E+3
  -1.54670E+4  -1.02112E+3
  -1.50764E+4  -8.55810E+2
  -1.46866E+4  -7.40176E+2
  -1.43188E+4  -5.99910E+2
  -1.39373E+4  -4.82150E+2
  -1.36084E+4  -4.16022E+2
  -1.32348E+4  -3.49585E+2
  -1.28271E+4  -2.72036E+2
  -1.24648E+4  -1.30943E+2
  -1.21202E+4  -4.50290E+1
  -1.17229E+4  -1.48946E+1
  -1.13447E+4   1.04548E+2
  -1.10173E+4   1.50183E+2
  -1.06833E+4   1.47919E+2
  -1.03574E+4   3.08071E+2
  -9.99702E+3   3.08878E+2
  -9.56705E+3   3.84604E+2
  -9.30365E+3   4.72754E+2
  -8.98114E+3   5.15641E+2
  -8.65170E+3   6.18751E+2
  -8.39655E+3   6.41277E+2
  -8.07266E+3   6.90881E+2
  -7.70255E+3   7.90827E+2
  -7.48919E+3   8.08902E+2
  -7.10067E+3   8.45938E+2
  -6.92455E+3   1.00338E+3
  -6.60697E+3   1.07999E+3
  -6.40877E+3   1.04746E+3
  -6.13167E+3   1.09878E+3
  -5.90832E+3   1.20268E+3
  -5.68510E+3   1.27429E+3
  -5.50180E+3   1.28778E+3
  -5.25811E+3   1.35821E+3
  -5.09517E+3   1.40266E+3
  -4.80441E+3   1.39407E+3
  -4.69250E+3   1.46928E+3
  -4.52979E+3   1.52450E+3
  -4.33061E+3   1.56106E+3
  -4.10640E+3   1.59635E+3
  -4.03678E+3   1.62237E+3
  -3.90808E+3   1.64583E+3
  -3.77999E+3   1.67337E+3
  -3.65444E+3   1.66880E+3
  -3.56396E+3   1.65683E+3
  -3.47786E+3   1.62645E+3
  -3.35318E+3   1.67358E+3
  -3.32913E+3   1.61376E+3
  -3.17972E+3   1.57954E+3
  -3.10497E+3   1.62202E+3
  -3.08802E+3   1.56767E+3
  -3.00547E+3   1.47047E+3
  -2.92635E+3   1.46977E+3
  -2.78535E+3   1.37071E+3
  -2.76212E+3   1.34849E+3
  -2.65307E+3   1.33409E+3
  -2.59631E+3   1.23016E+3
  -2.58894E+3   1.20400E+3
  -2.55560E+3   1.12366E+3
  -2.45780E+3   1.11698E+3
  -2.34895E+3   1.07722E+3
  -2.37642E+3   9.88836E+2
  -2.29591E+3   9.56607E+2
  -2.21725E+3   8.31180E+2
  -2.21699E+3   7.83013E+2
  -2.19497E+3   6.94667E+2
  -2.12946E+3   6.44734E+2
  -2.08959E+3   5.62442E+2
  -2.05062E+3   4.83237E+2
  -2.02015E+3   4.35684E+2
  -2.05824E+3   4.33550E+2
  -1.92763E+3   3.70511E+2
  -1.89198E+3   3.27970E+2
  -1.85769E+3   2.28524E+2
  -1.81646E+3   1.51328E+2
  -1.81202E+3   1.48058E+2
  -1.75001E+3   1.20674E+2
  -1.72239E+3   2.93393E+1
  -1.73507E+3  -1.56479E+1
  -1.70924E+3  -7.60789E+1
  -1.67667E+3  -1.41468E+2
  -1.60354E+3  -1.18741E+2
  -1.55008E+3  -2.05999E+2
  -1.57211E+3  -2.09044E+2
  -1.52718E+3  -2.10668E+2
  -1.57523E+3  -2.49440E+2
  -1.52492E+3  -2.58942E+2
  -1.54354E+3  -3.27160E+2
  -1.42181E+3  -3.30661E+2
  -1.41768E+3  -3.74464E+2
  -1.41752E+3  -3.52040E+2
  -1.43434E+3  -3.59158E+2
  -1.35868E+3  -4.05131E+2
  -1.36884E+3  -4.47856E+2
  -1.26533E+3  -4.26193E+2
  -1.34919E+3  -4.29191E+2
  -1.34795E+3  -4.67934E+2
  -1.25884E+3  -4.66464E+2
  -1.28062E+3  -4.28234E+2
  -1.29797E+3  -5.10681E+2
  -1.24180E+3  -5.14846E+2
  -1.18978E+3  -5.02466E+2
  -1.14775E+3  -4.92084E+2
  -1.17349E+3  -4.77008E+2
  -1.19144E+3  -5.17846E+2
  -1.12432E+3  -4.45604E+2
  -1.15751E+3  -4.47979E+2
  -1.10871E+3  -4.53109E+2
  -1.01074E+3  -4.62186E+2
  -1.09915E+3  -4.95292E+2
  -1.01845E+3  -4.51567E+2
  -1.01865E+3  -5.43208E+2
  -1.02422E+3  -4.30973E+2
  -8.69001E+2  -4.48380E+2
  -9.33878E+2  -4.01993E+2
  -9.76583E+2  -4.34925E+2
  -8.18764E+2  -4.27568E+2
  -8.47481E+2  -4.39352E+2
  -8.19088E+2  -3.50156E+2
  -8.03815E+2  -4.12759E+2
  -7.79071E+2  -3.74669E+2
  -7.07780E+2  -3.65182E+2
  -6.99213E+2  -3.34936E+2
  -6.75413E+2  -3.63269E+2
  -5.87176E+2  -3.13627E+2
  -6.05361E+2  -2.43977E+2
  -5.70780E+2  -3.07364E+2
  -5.83812E+2  -3.14769E+2
  -5.15415E+2  -2.28743E+2
  -5.10944E+2  -2.28370E+2
  -4.12554E+2  -2.49319E+2
  -3.91930E+2  -2.72814E+2
  -4.17378E+2  -2.19744E+2
  -3.68501E+2  -2.13802E+2
  -3.39177E+2  -2.50710E+2
  -3.28223E+2  -2.10626E+2
  -2.31878E+2  -1.85610E+2
  -2.05711E+2  -1.72486E+2
  -1.77824E+2  -1.18739E+2
  -1.31630E+2  -2.14235E+2
  -1.38714E+2  -1.10998E+2
  -3.64964E+1  -1.03013E+2
  -2.11894E+1  -1.06755E+2
   1.94892E+1  -9.38410E+1
   1.82842E+1  -1.46332E+2
   6.50318E+1  -1.67565E+2
   1.37422E+2  -1.06764E+2
   7.94756E+1  -2.14513E+1
   2.13367E+2  -6.47425E+1
   2.31921E+2  -6.83424E+1
   2.86022E+2  -7.04541E+1
   2.80658E+2  -5.08853E+1
   3.48288E+2  -2.45121E+1
   3.06200E+2  -5.03330E+1
   4.15818E+2   7.05166E-1
   3.96375E+2  -2.53622E+1
   4.11869E+2   7.28828E+1
   5.02503E+2   2.31216E+1
   5.45247E+2  -3.28763E+1
   5.84768E+2   7.81746E+0
   6.15962E+2   5.07883E+1
   6.19242E+2   4.40672E+0
   6.33127E+2  -2.75429E+1
   6.81589E+2   2.39004E+1
   7.17375E+2   2.62911E+1
   7.83309E+2   3.31235E+1
   7.74396E+2  -4.64610E+1
   9.17507E+2   5.80498E+1
   8.93481E+2  -2.72239E+1
   8.74243E+2  -4.04583E+1
   9.44318E+2  -5.37383E+1
   1.02169E+3  -3.16878E+1
   1.03131E+3  -1.60032E+1
   1.04289E+3  -7.02533E+1
   1.06558E+3  -5.53337E+1
   1.11091E+3  -1.24704E+2
   1.15792E+3  -4.12151E+1
   1.07092E+3  -8.21071E+1
   1.18506E+3  -1.09693E+2
   1.17915E+3  -7.07224E+1
   1.20191E+3  -9.26441E+1
   1.32460E+3  -8.47860E+1
   1.37091E+3  -1.64609E+2
   1.33184E+3  -1.23160E+2
   1.33431E+3  -1.39375E+2
   1.40677E+3  -2.08421E+2
   1.37417E+3  -1.65202E+2
   1.41493E+3  -1.65774E+2
   1.47482E+3  -1.55571E+2
   1.47395E+3  -1.77774E+2
   1.52297E+3  -2.22566E+2
   1.53001E+3  -2.11609E+2
   1.57474E+3  -2.01083E+2
   1.57375E+3  -2.31426E+2
   1.58560E+3  -2.17663E+2
   1.61796E+3  -2.70051E+2
   1.58396E+3  -2.47354E+2
   1.65219E+3  -2.84965E+2
   1.68079E+3  -3.27505E+2
   1.70162E+3  -2.00438E+2
   1.70730E+3  -2.86279E+2
   1.68933E+3  -3.09385E+2
   1.70978E+3  -3.00341E+2
   1.72683E+3  -2.91350E+2
   1.75809E+3  -3.30629E+2
   1.80059E+3  -4.66382E+2
   1.76751E+3  -4.23885E+2
   1.79033E+3  -3.83684E+2
   1.74089E+3  -4.33377E+2
   1.78733E+3  -4.51239E+2
   1.80589E+3  -4.97805E+2
   1.86007E+3  -4.25905E+2
   1.84631E+3  -4.95544E+2
   1.81450E+3  -5.05608E+2
   1.87017E+3  -4.99303E+2
   1.85660E+3  -5.38778E+2
   1.90809E+3  -5.06304E+2
   1.84303E+3  -5.43353E+2
   1.85626E+3  -5.89509E+2
   1.83755E+3  -5.38094E+2
   1.87213E+3  -6.04524E+2
   1.91871E+3  -5.88582E+2
   1.90145E+3  -5.47775E+2
   1.86921E+3  -5.60756E+2
   1.90264E+3  -5.98124E+2
   1.89984E+3  -7.10507E+2
   1.90727E+3  -6.33452E+2
   1.88772E+3  -6.31407E+2
   1.91029E+3  -6.41508E+2
   1.88066E+3  -6.80943E+2
   1.89890E+3  -7.17544E+2
   1.87544E+3  -6.70610E+2
   1.90399E+3  -7.45817E+2
   1.87641E+3  -6.37835E+2
   1.82558E+3  -7.12940E+2
   1.89028E+3  -7.10913E+2
   1.85170E+3  -7.12810E+2
   1.90017E+3  -7.28504E+2
   1.91829E+3  -7.85437E+2
   1.87181E+3  -7.28979E+2
   1.84661E+3  -7.73982E+2
   1.80352E+3  -7.50900E+2
   1.82452E+3  -7.61642E+2
   1.85178E+3  -7.75580E+2
   1.85609E+3  -7.72788E+2
   1.85302E+3  -7.96635E+2
   1.90431E+3  -8.53470E+2
   1.80603E+3  -8.22953E+2
   1.86069E+3  -8.19770E+2
   1.86868E+3  -7.96022E+2
   1.75896E+3  -9.44062E+2
   1.81126E+3  -8.70196E+2
   1.78495E+3  -7.78537E+2
   1.76264E+3  -8.97798E+2
   1.79240E+3  -9.08619E+2
   1.75459E+3  -8.36339E+2
   1.75482E+3  -8.65682E+2
   1.77653E+3  -8.61755E+2
   1.72742E+3  -8.74006E+2
   1.68415E+3  -8.31615E+2
   1.75138E+3  -8.85720E+2
   1.67857E+3  -8.73383E+2
   1.66318E+3  -8.98685E+2
   1.64148E+3  -8.78380E+2
   1.66665E+3  -9.03883E+2
   1.66920E+3  -9.34473E+2
   1.65198E+3  -9.14591E+2
   1.62112E+3  -9.18137E+2
   1.61722E+3  -8.77433E+2
   1.59946E+3  -9.91469E+2
   1.60557E+3  -8.63982E+2
   1.63654E+3  -8.92795E+2
   1.53481E+3  -9.50420E+2
   1.56861E+3  -8.88344E+2
   1.55385E+3  -9.01259E+2
   1.53913E+3  -8.67019E+2
   1.53172E+3  -9.31237E+2
   1.49132E+3  -9.05566E+2
   1.48156E+3  -9.16400E+2
   1.44418E+3  -9.11719E+2
   1.50623E+3  -9.16169E+2
   1.45460E+3  -9.65165E+2
   1.48105E+3  -9.24284E+2
   1.40844E+3  -9.41852E+2
   1.44920E+3  -9.61809E+2
   1.37013E+3  -8.61754E+2
   1.41471E+3  -8.86835E+2
   1.38241E+3  -9.05631E+2
   1.43686E+3  -9.25812E+2
   1.40233E+3  -9.22591E+2
   1.36646E+3  -8.96382E+2
   1.36676E+3  -9.36010E+2
   1.35328E+3  -9.54265E+2
   1.37746E+3  -9.15980E+2
   1.23484E+3  -9.42569E+2
   1.27335E+3  -9.39410E+2
   1.32325E+3  -8.95447E+2
