 
 $NMID
 ID=''
 FMTDAT='(2E13.5)'
 TRAMP=   1.00000E+0
 VOLUME=   1.00000E+0
 $END
  -1.78191E+4   1.15103E+4
  -5.28006E+4   1.54598E+4
  -4.92970E+4   2.43386E+4
  -4.54440E+4   2.26075E+4
  -4.76965E+4   2.22245E+4
  -4.63848E+4   2.42027E+4
  -4.46743E+4   2.26236E+4
  -4.56390E+4   2.17204E+4
  -4.49497E+4   2.26291E+4
  -4.38868E+4   2.15363E+4
  -4.45412E+4   2.07427E+4
  -4.40060E+4   2.14381E+4
  -4.33292E+4   2.08773E+4
  -4.40739E+4   2.02103E+4
  -4.38025E+4   2.06261E+4
  -4.31422E+4   2.00788E+4
  -4.35993E+4   1.98203E+4
  -4.32210E+4   2.01968E+4
  -4.26886E+4   1.99351E+4
  -4.30022E+4   1.96639E+4
  -4.25239E+4   1.98343E+4
  -4.19116E+4   1.96696E+4
  -4.21285E+4   1.95230E+4
  -4.18193E+4   1.94407E+4
  -4.11675E+4   1.91843E+4
  -4.10209E+4   1.91084E+4
  -4.08669E+4   1.90297E+4
  -4.04273E+4   1.86907E+4
  -4.02546E+4   1.83118E+4
  -3.98419E+4   1.83421E+4
  -3.93966E+4   1.82517E+4
  -3.94137E+4   1.81229E+4
  -3.91977E+4   1.80324E+4
  -3.87506E+4   1.77712E+4
  -3.84756E+4   1.76695E+4
  -3.83315E+4   1.76498E+4
  -3.78822E+4   1.74483E+4
  -3.76242E+4   1.73052E+4
  -3.74470E+4   1.73436E+4
  -3.70948E+4   1.71556E+4
  -3.70313E+4   1.70397E+4
  -3.69437E+4   1.68513E+4
  -3.66687E+4   1.64940E+4
  -3.63730E+4   1.63385E+4
  -3.61748E+4   1.62954E+4
  -3.59533E+4   1.60592E+4
  -3.57666E+4   1.59148E+4
  -3.56307E+4   1.57984E+4
  -3.53115E+4   1.56708E+4
  -3.51649E+4   1.55184E+4
  -3.49598E+4   1.52827E+4
  -3.46548E+4   1.51689E+4
  -3.43792E+4   1.50213E+4
  -3.41665E+4   1.49250E+4
  -3.40210E+4   1.48389E+4
  -3.37517E+4   1.46157E+4
  -3.36052E+4   1.45332E+4
  -3.34081E+4   1.43342E+4
  -3.32557E+4   1.41021E+4
  -3.29122E+4   1.38813E+4
  -3.25831E+4   1.37706E+4
  -3.24171E+4   1.36854E+4
  -3.22224E+4   1.35870E+4
  -3.19786E+4   1.33961E+4
  -3.17629E+4   1.32019E+4
  -3.15245E+4   1.30555E+4
  -3.13094E+4   1.29925E+4
  -3.11393E+4   1.28096E+4
  -3.08760E+4   1.25957E+4
  -3.06468E+4   1.25042E+4
  -3.04857E+4   1.23353E+4
  -3.02568E+4   1.22093E+4
  -3.00284E+4   1.21341E+4
  -2.98017E+4   1.19394E+4
  -2.96292E+4   1.18576E+4
  -2.94090E+4   1.17986E+4
  -2.92215E+4   1.16387E+4
  -2.89792E+4   1.14730E+4
  -2.88067E+4   1.13992E+4
  -2.86489E+4   1.12516E+4
  -2.84384E+4   1.11650E+4
  -2.83273E+4   1.10047E+4
  -2.81223E+4   1.09134E+4
  -2.79676E+4   1.08258E+4
  -2.77467E+4   1.06248E+4
  -2.76487E+4   1.05362E+4
  -2.74722E+4   1.03321E+4
  -2.72241E+4   1.01376E+4
  -2.70436E+4   1.01126E+4
  -2.69115E+4   1.00690E+4
  -2.67666E+4   1.00002E+4
  -2.66491E+4   9.92688E+3
  -2.65280E+4   9.83941E+3
  -2.63777E+4   9.81144E+3
  -2.62363E+4   9.63416E+3
  -2.60508E+4   9.59820E+3
  -2.59815E+4   9.57496E+3
  -2.58594E+4   9.50218E+3
  -2.57186E+4   9.46866E+3
  -2.56126E+4   9.28817E+3
  -2.54631E+4   9.13749E+3
  -2.53704E+4   9.14513E+3
  -2.52844E+4   9.21768E+3
  -2.51934E+4   9.10434E+3
  -2.51198E+4   9.04721E+3
  -2.49650E+4   8.87880E+3
  -2.48700E+4   8.87261E+3
  -2.48288E+4   8.88995E+3
  -2.47079E+4   8.81198E+3
  -2.45424E+4   8.68897E+3
  -2.44483E+4   8.68703E+3
  -2.43494E+4   8.65528E+3
  -2.42560E+4   8.65318E+3
  -2.41675E+4   8.57855E+3
  -2.41415E+4   8.55568E+3
  -2.41175E+4   8.57792E+3
  -2.40010E+4   8.38847E+3
  -2.38931E+4   8.43264E+3
  -2.39131E+4   8.27995E+3
  -2.37645E+4   8.30389E+3
  -2.36318E+4   8.26550E+3
  -2.36507E+4   8.23948E+3
  -2.35912E+4   8.17750E+3
  -2.34334E+4   8.15549E+3
  -2.33362E+4   8.17476E+3
  -2.32368E+4   8.10505E+3
  -2.31706E+4   8.08566E+3
  -2.30369E+4   8.01143E+3
  -2.29960E+4   7.98112E+3
  -2.29616E+4   7.92213E+3
  -2.29790E+4   7.88404E+3
  -2.27638E+4   7.93838E+3
  -2.27690E+4   7.88126E+3
  -2.26528E+4   7.90440E+3
  -2.25573E+4   7.83450E+3
  -2.24851E+4   7.87190E+3
  -2.23572E+4   7.78445E+3
  -2.22685E+4   7.70914E+3
  -2.21843E+4   7.64155E+3
  -2.20092E+4   7.70430E+3
  -2.19644E+4   7.70706E+3
  -2.18230E+4   7.63773E+3
  -2.18390E+4   7.67838E+3
  -2.17184E+4   7.59333E+3
  -2.15934E+4   7.67530E+3
  -2.14716E+4   7.61354E+3
  -2.13789E+4   7.60758E+3
  -2.12282E+4   7.58545E+3
  -2.12010E+4   7.56363E+3
  -2.11025E+4   7.54528E+3
  -2.09453E+4   7.51464E+3
  -2.08602E+4   7.47021E+3
  -2.07653E+4   7.50430E+3
  -2.05574E+4   7.40847E+3
  -2.05064E+4   7.43368E+3
  -2.03359E+4   7.43004E+3
  -2.02330E+4   7.40389E+3
  -2.01201E+4   7.44352E+3
  -1.99725E+4   7.31542E+3
  -1.98752E+4   7.37927E+3
  -1.97365E+4   7.36167E+3
  -1.96364E+4   7.29469E+3
  -1.95302E+4   7.29847E+3
  -1.93895E+4   7.24526E+3
  -1.92060E+4   7.32305E+3
  -1.91584E+4   7.29100E+3
  -1.89301E+4   7.26680E+3
  -1.88206E+4   7.23067E+3
  -1.86967E+4   7.24607E+3
  -1.86422E+4   7.16105E+3
  -1.84707E+4   7.16330E+3
  -1.83627E+4   7.12208E+3
  -1.82320E+4   7.04399E+3
  -1.81198E+4   7.06242E+3
  -1.80052E+4   7.12584E+3
  -1.79045E+4   6.99787E+3
  -1.76575E+4   6.98137E+3
  -1.75364E+4   7.01054E+3
  -1.74087E+4   6.91707E+3
  -1.73571E+4   6.89905E+3
  -1.72039E+4   6.92327E+3
  -1.70401E+4   6.83460E+3
  -1.69279E+4   6.78382E+3
  -1.67525E+4   6.76704E+3
  -1.66414E+4   6.68849E+3
  -1.65073E+4   6.70679E+3
  -1.63992E+4   6.69777E+3
  -1.62350E+4   6.65763E+3
  -1.61730E+4   6.55295E+3
  -1.59910E+4   6.52761E+3
  -1.58242E+4   6.50281E+3
  -1.58268E+4   6.45107E+3
  -1.56420E+4   6.35863E+3
  -1.55790E+4   6.34919E+3
  -1.54225E+4   6.25509E+3
  -1.52927E+4   6.23032E+3
  -1.51440E+4   6.12918E+3
  -1.50826E+4   6.15714E+3
  -1.49443E+4   6.00116E+3
  -1.47538E+4   6.00550E+3
  -1.46979E+4   5.93214E+3
  -1.45666E+4   5.83278E+3
  -1.44515E+4   5.84547E+3
  -1.43405E+4   5.75464E+3
  -1.42924E+4   5.76226E+3
  -1.41198E+4   5.68724E+3
  -1.40297E+4   5.62362E+3
  -1.38822E+4   5.49578E+3
  -1.38595E+4   5.45339E+3
  -1.37107E+4   5.46070E+3
  -1.35997E+4   5.38019E+3
  -1.35232E+4   5.31793E+3
  -1.33338E+4   5.25336E+3
  -1.32597E+4   5.13571E+3
  -1.31899E+4   5.13198E+3
  -1.30514E+4   5.03047E+3
  -1.29885E+4   4.91784E+3
  -1.28287E+4   4.91095E+3
  -1.27541E+4   4.85343E+3
  -1.26433E+4   4.80543E+3
  -1.25631E+4   4.76503E+3
  -1.24897E+4   4.67397E+3
  -1.23917E+4   4.50822E+3
  -1.23053E+4   4.54028E+3
  -1.22144E+4   4.44351E+3
  -1.20911E+4   4.38228E+3
  -1.20362E+4   4.29766E+3
  -1.19594E+4   4.23364E+3
  -1.18360E+4   4.15689E+3
  -1.17460E+4   4.13117E+3
  -1.16820E+4   3.98483E+3
  -1.16383E+4   4.00799E+3
  -1.15684E+4   3.92842E+3
  -1.14365E+4   3.84642E+3
  -1.14202E+4   3.66343E+3
  -1.12820E+4   3.77329E+3
  -1.12639E+4   3.69088E+3
  -1.12212E+4   3.57215E+3
  -1.10661E+4   3.45078E+3
  -1.10138E+4   3.46690E+3
  -1.09474E+4   3.40935E+3
  -1.09715E+4   3.35803E+3
  -1.08853E+4   3.32068E+3
  -1.07773E+4   3.24828E+3
  -1.06900E+4   3.20702E+3
  -1.06697E+4   3.08477E+3
  -1.06029E+4   3.09085E+3
  -1.05652E+4   2.97389E+3
  -1.05127E+4   2.93238E+3
  -1.04163E+4   2.92781E+3
  -1.03972E+4   2.89404E+3
  -1.03981E+4   2.85145E+3
  -1.03354E+4   2.74213E+3
  -1.02959E+4   2.70253E+3
  -1.02337E+4   2.66280E+3
  -1.01005E+4   2.57628E+3
  -1.01029E+4   2.54847E+3
  -1.00561E+4   2.47474E+3
  -1.00335E+4   2.42811E+3
  -9.98170E+3   2.40580E+3
  -9.92068E+3   2.35883E+3
  -9.90112E+3   2.33768E+3
  -9.86090E+3   2.31329E+3
  -9.82229E+3   2.29149E+3
  -9.78046E+3   2.17785E+3
  -9.72269E+3   2.15797E+3
  -9.73748E+3   2.10543E+3
  -9.74976E+3   1.97476E+3
  -9.67947E+3   2.07002E+3
  -9.60292E+3   1.95533E+3
  -9.59694E+3   1.91187E+3
  -9.53202E+3   1.97497E+3
  -9.54124E+3   1.88807E+3
  -9.47835E+3   1.87677E+3
  -9.51139E+3   1.83044E+3
  -9.40498E+3   1.83515E+3
  -9.36964E+3   1.80233E+3
  -9.39918E+3   1.78030E+3
  -9.38117E+3   1.77589E+3
  -9.30386E+3   1.72009E+3
  -9.34097E+3   1.69366E+3
  -9.33129E+3   1.66618E+3
  -9.31142E+3   1.65789E+3
  -9.27069E+3   1.55339E+3
  -9.18113E+3   1.61512E+3
  -9.14468E+3   1.55875E+3
  -9.17053E+3   1.55281E+3
  -9.08328E+3   1.52164E+3
  -9.05189E+3   1.51021E+3
  -9.07728E+3   1.51360E+3
  -9.02699E+3   1.52053E+3
  -9.07954E+3   1.50190E+3
  -8.96996E+3   1.45605E+3
  -8.99501E+3   1.47321E+3
  -8.94795E+3   1.48679E+3
  -8.99274E+3   1.43198E+3
  -8.86068E+3   1.38849E+3
  -8.86925E+3   1.40997E+3
  -8.79132E+3   1.36632E+3
  -8.80961E+3   1.44000E+3
  -8.85847E+3   1.46302E+3
  -8.74000E+3   1.42175E+3
  -8.74037E+3   1.36871E+3
  -8.74636E+3   1.39328E+3
  -8.68687E+3   1.33668E+3
  -8.66234E+3   1.35111E+3
  -8.62839E+3   1.36441E+3
  -8.58502E+3   1.30024E+3
  -8.52746E+3   1.41553E+3
  -8.53779E+3   1.34606E+3
  -8.51011E+3   1.41028E+3
  -8.48164E+3   1.36044E+3
  -8.43627E+3   1.42616E+3
  -8.37997E+3   1.39099E+3
  -8.42915E+3   1.36258E+3
  -8.40326E+3   1.36917E+3
  -8.38768E+3   1.35039E+3
  -8.33928E+3   1.42759E+3
  -8.33923E+3   1.38714E+3
  -8.28116E+3   1.38378E+3
  -8.24182E+3   1.42496E+3
  -8.25123E+3   1.35940E+3
  -8.23009E+3   1.39293E+3
  -8.11755E+3   1.31193E+3
  -8.15937E+3   1.45034E+3
  -8.10537E+3   1.37689E+3
  -8.04967E+3   1.39970E+3
  -8.04112E+3   1.42764E+3
  -7.96767E+3   1.44667E+3
  -7.97938E+3   1.44456E+3
  -7.87419E+3   1.46030E+3
  -7.87527E+3   1.49492E+3
  -7.86834E+3   1.41122E+3
  -7.88083E+3   1.47778E+3
  -7.82290E+3   1.46796E+3
  -7.78128E+3   1.42310E+3
  -7.67155E+3   1.39038E+3
  -7.69603E+3   1.40993E+3
  -7.65158E+3   1.51104E+3
  -7.61141E+3   1.50760E+3
  -7.66095E+3   1.44462E+3
  -7.51140E+3   1.52707E+3
  -7.50159E+3   1.50469E+3
  -7.54332E+3   1.51534E+3
  -7.45615E+3   1.55604E+3
  -7.46362E+3   1.53142E+3
  -7.40681E+3   1.49301E+3
  -7.26996E+3   1.46663E+3
  -7.25552E+3   1.53626E+3
  -7.27581E+3   1.55084E+3
  -7.23365E+3   1.51185E+3
  -7.13002E+3   1.58139E+3
  -7.09846E+3   1.56412E+3
  -7.11723E+3   1.55587E+3
  -7.02866E+3   1.49731E+3
  -6.94191E+3   1.57729E+3
  -6.98848E+3   1.57726E+3
  -6.95553E+3   1.58835E+3
  -6.90066E+3   1.56108E+3
  -6.82824E+3   1.53885E+3
  -6.75754E+3   1.61256E+3
  -6.72348E+3   1.54991E+3
  -6.74454E+3   1.61923E+3
  -6.67185E+3   1.52133E+3
  -6.61532E+3   1.63339E+3
  -6.53757E+3   1.58612E+3
  -6.52841E+3   1.56912E+3
