 LCModel (Version 6.3-1N) Copyright: S.W. Provencher.          Ref.: Magn. Reson. Med. 30:672-679 (1993).                
 Slice_N1@25_16  02-Jun-2023 14:37:55
 27 lines in following concentration table = NCONC+1
    Conc.  %SD /Cr+PCr  Metabolite                                         
 9.10E-07  27% 2.4E-04 Mac                                                 
 1.85E-02  40%   4.836 Cr                                                  
 1.21E-02  59%   3.164 PCr                                                 
 2.73E-02  36%   7.133 Ins                                                 
 4.07E-02  24%  10.646 NAA                                                 
 3.35E-02  31%   8.774 Tau                                                 
 4.29E-03  56%   1.123 PCho                                                
    0.000 999%   0.000 GPC                                                 
 4.95E-02  22%  12.954 Glu                                                 
 8.04E-03  65%   2.105 Gln                                                 
 8.92E-03  71%   2.335 Ala                                                 
    0.000 999%   0.000 Asc                                                 
 4.99E-04 993%   0.131 Asp                                                 
 4.01E-03  72%   1.050 GABA                                                
 5.33E-03  59%   1.395 Glc                                                 
 4.68E-03  60%   1.225 GSH                                                 
    0.000 999%   0.000 Lac                                                 
 8.72E-03  70%   2.283 NAAG                                                
    0.000 999%   0.000 PE                                                  
 4.29E-03  56%   1.123 GPC+PCho                                            
 4.94E-02  20%  12.929 NAA+NAAG                                            
 5.75E-02  22%  15.058 Glu+Gln                                             
 3.06E-02  24%   8.000 Cr+PCr                                              
 4.94E-02  20%  12.929 NAA+NAAG                                            
 3.06E-02  24%   8.000 Cr+PCr                                              
 5.75E-02  22%  15.058 Glu+Gln                                             
   6 lines in following misc. output table
  FWHM = 0.105 ppm    S/N =   1                                            
  Data shift = 0.017 ppm                                                   
  Ph: 150 deg      11.5 deg/ppm                                            
  alphaB,S = 3.1E+01,   4.8E+01                                            
   15 spline knots.   Ns =10(2)                                            
   4 inflections.     2 extrema                                            
  654 points on ppm-axis = NY
      4.000000     3.994181     3.988363     3.982544     3.976726     3.970907     3.965088     3.959270     3.953451     3.947633
      3.941814     3.935995     3.930177     3.924358     3.918540     3.912721     3.906902     3.901084     3.895265     3.889446
      3.883628     3.877809     3.871991     3.866172     3.860353     3.854535     3.848716     3.842898     3.837079     3.831260
      3.825442     3.819623     3.813805     3.807986     3.802167     3.796349     3.790530     3.784712     3.778893     3.773074
      3.767256     3.761437     3.755619     3.749800     3.743981     3.738163     3.732344     3.726526     3.720707     3.714888
      3.709070     3.703251     3.697433     3.691614     3.685795     3.679977     3.674158     3.668339     3.662521     3.656702
      3.650884     3.645065     3.639246     3.633428     3.627609     3.621791     3.615972     3.610153     3.604335     3.598516
      3.592698     3.586879     3.581060     3.575242     3.569423     3.563605     3.557786     3.551967     3.546149     3.540330
      3.534512     3.528693     3.522874     3.517056     3.511237     3.505419     3.499600     3.493781     3.487963     3.482144
      3.476326     3.470507     3.464688     3.458870     3.453051     3.447232     3.441414     3.435595     3.429777     3.423958
      3.418139     3.412321     3.406502     3.400684     3.394865     3.389046     3.383228     3.377409     3.371591     3.365772
      3.359953     3.354135     3.348316     3.342498     3.336679     3.330860     3.325042     3.319223     3.313405     3.307586
      3.301767     3.295949     3.290130     3.284312     3.278493     3.272674     3.266856     3.261037     3.255219     3.249400
      3.243581     3.237763     3.231944     3.226125     3.220307     3.214488     3.208670     3.202851     3.197032     3.191214
      3.185395     3.179577     3.173758     3.167939     3.162121     3.156302     3.150484     3.144665     3.138846     3.133028
      3.127209     3.121391     3.115572     3.109753     3.103935     3.098116     3.092298     3.086479     3.080660     3.074842
      3.069023     3.063205     3.057386     3.051567     3.045749     3.039930     3.034111     3.028293     3.022474     3.016656
      3.010837     3.005018     2.999200     2.993381     2.987563     2.981744     2.975925     2.970107     2.964288     2.958470
      2.952651     2.946832     2.941014     2.935195     2.929377     2.923558     2.917739     2.911921     2.906102     2.900284
      2.894465     2.888646     2.882828     2.877009     2.871191     2.865372     2.859553     2.853735     2.847916     2.842098
      2.836279     2.830460     2.824642     2.818823     2.813004     2.807186     2.801367     2.795549     2.789730     2.783911
      2.778093     2.772274     2.766456     2.760637     2.754818     2.749000     2.743181     2.737363     2.731544     2.725725
      2.719907     2.714088     2.708270     2.702451     2.696632     2.690814     2.684995     2.679177     2.673358     2.667539
      2.661721     2.655902     2.650084     2.644265     2.638446     2.632628     2.626809     2.620991     2.615172     2.609353
      2.603535     2.597716     2.591897     2.586079     2.580260     2.574442     2.568623     2.562804     2.556986     2.551167
      2.545349     2.539530     2.533711     2.527893     2.522074     2.516256     2.510437     2.504618     2.498800     2.492981
      2.487163     2.481344     2.475525     2.469707     2.463888     2.458070     2.452251     2.446432     2.440614     2.434795
      2.428977     2.423158     2.417339     2.411521     2.405702     2.399884     2.394065     2.388246     2.382428     2.376609
      2.370790     2.364972     2.359153     2.353335     2.347516     2.341697     2.335879     2.330060     2.324242     2.318423
      2.312604     2.306786     2.300967     2.295149     2.289330     2.283511     2.277693     2.271874     2.266056     2.260237
      2.254418     2.248600     2.242781     2.236963     2.231144     2.225325     2.219507     2.213688     2.207870     2.202051
      2.196232     2.190414     2.184595     2.178777     2.172958     2.167139     2.161321     2.155502     2.149683     2.143865
      2.138046     2.132228     2.126409     2.120590     2.114772     2.108953     2.103135     2.097316     2.091497     2.085679
      2.079860     2.074042     2.068223     2.062404     2.056586     2.050767     2.044949     2.039130     2.033311     2.027493
      2.021674     2.015856     2.010037     2.004218     1.998400     1.992581     1.986763     1.980944     1.975126     1.969307
      1.963489     1.957670     1.951852     1.946033     1.940215     1.934397     1.928578     1.922760     1.916941     1.911123
      1.905304     1.899486     1.893667     1.887849     1.882030     1.876212     1.870393     1.864575     1.858756     1.852938
      1.847119     1.841301     1.835482     1.829664     1.823845     1.818027     1.812208     1.806390     1.800571     1.794753
      1.788934     1.783116     1.777297     1.771479     1.765660     1.759842     1.754023     1.748205     1.742386     1.736568
      1.730749     1.724931     1.719113     1.713294     1.707476     1.701657     1.695839     1.690020     1.684202     1.678383
      1.672565     1.666746     1.660928     1.655109     1.649291     1.643472     1.637654     1.631835     1.626017     1.620198
      1.614380     1.608561     1.602743     1.596924     1.591106     1.585287     1.579469     1.573650     1.567832     1.562013
      1.556195     1.550376     1.544558     1.538739     1.532921     1.527102     1.521284     1.515465     1.509647     1.503829
      1.498010     1.492192     1.486373     1.480555     1.474736     1.468918     1.463099     1.457281     1.451462     1.445644
      1.439825     1.434007     1.428188     1.422370     1.416551     1.410733     1.404914     1.399096     1.393277     1.387459
      1.381640     1.375822     1.370003     1.364185     1.358366     1.352548     1.346729     1.340911     1.335092     1.329274
      1.323455     1.317637     1.311818     1.306000     1.300182     1.294363     1.288545     1.282726     1.276908     1.271089
      1.265271     1.259452     1.253634     1.247815     1.241997     1.236178     1.230360     1.224541     1.218723     1.212904
      1.207086     1.201267     1.195449     1.189630     1.183812     1.177993     1.172175     1.166356     1.160538     1.154719
      1.148901     1.143082     1.137264     1.131445     1.125627     1.119808     1.113990     1.108171     1.102353     1.096534
      1.090716     1.084898     1.079079     1.073261     1.067442     1.061624     1.055805     1.049987     1.044168     1.038350
      1.032531     1.026713     1.020894     1.015076     1.009257     1.003439     0.997620     0.991802     0.985983     0.980165
      0.974346     0.968528     0.962709     0.956891     0.951072     0.945254     0.939435     0.933617     0.927798     0.921980
      0.916161     0.910343     0.904524     0.898706     0.892887     0.887069     0.881251     0.875432     0.869614     0.863795
      0.857977     0.852158     0.846340     0.840521     0.834703     0.828884     0.823066     0.817247     0.811429     0.805610
      0.799792     0.793973     0.788155     0.782336     0.776518     0.770699     0.764881     0.759062     0.753244     0.747425
      0.741607     0.735788     0.729970     0.724151     0.718333     0.712514     0.706696     0.700877     0.695059     0.689240
      0.683422     0.677603     0.671785     0.665967     0.660148     0.654330     0.648511     0.642693     0.636874     0.631056
      0.625237     0.619419     0.613600     0.607782     0.601963     0.596145     0.590326     0.584508     0.578689     0.572871
      0.567052     0.561234     0.555415     0.549597     0.543778     0.537960     0.532141     0.526323     0.520504     0.514686
      0.508867     0.503049     0.497230     0.491412     0.485593     0.479775     0.473956     0.468138     0.462319     0.456501
      0.450682     0.444864     0.439045     0.433227     0.427408     0.421590     0.415771     0.409953     0.404134     0.398316
      0.392497     0.386679     0.380860     0.375042     0.369223     0.363405     0.357586     0.351767     0.345949     0.340130
      0.334312     0.328493     0.322675     0.316856     0.311038     0.305219     0.299401     0.293582     0.287764     0.281945
      0.276127     0.270308     0.264490     0.258671     0.252853     0.247034     0.241216     0.235397     0.229579     0.223760
      0.217942     0.212123     0.206305     0.200486
 NY phased data points follow
  -3.01627E-01 -2.89986E-01 -7.81833E-02 -1.71869E-01  2.77557E-02  1.21056E-01  9.40436E-02  1.12988E-01 -5.07490E-02  8.13870E-03
   1.15942E-01  2.09703E-01  2.18429E-01  2.52285E-02 -6.17878E-02  2.03593E-02  1.05331E-01 -9.73138E-02 -1.97392E-01  2.56292E-01
   1.31978E-01 -6.48282E-02 -1.44668E-01  6.41863E-02  1.85590E-01 -1.91037E-01  1.46167E-01  2.32923E-02 -2.52279E-01  1.14444E-02
   3.54232E-02 -1.84411E-01 -7.39890E-02 -6.62863E-02 -3.19225E-01  1.50939E-02  6.99060E-02 -1.81914E-01  8.57365E-02 -1.46433E-01
  -1.99322E-01  1.75526E-03 -2.88543E-01  2.05709E-01  8.04093E-02  1.06026E-01  9.40600E-02  4.94645E-02  4.42966E-01 -9.66133E-03
   2.72463E-01  2.37562E-02 -1.06568E-01  6.85729E-02 -1.89942E-01 -2.77516E-01 -4.71787E-02  1.65112E-01 -6.23302E-02  1.04860E-01
  -6.67404E-02  1.86545E-01  2.03741E-01 -2.79322E-02  2.11436E-01  1.16253E-01  1.13125E-01  3.35705E-02 -8.41651E-02  7.62739E-03
   3.45800E-02  4.25651E-02 -1.79083E-02 -1.43947E-01  2.52935E-03 -1.11295E-02  9.54572E-02  6.59988E-02 -1.28631E-02 -6.07208E-02
  -1.45801E-02  6.92716E-03  5.27442E-02  3.65077E-01 -3.55258E-01 -2.50722E-01  2.67733E-03 -2.81115E-01  2.28363E-02 -1.82400E-01
  -2.95076E-01 -8.35729E-02  6.35848E-02  2.80444E-02  8.12704E-02 -1.88171E-01 -8.71072E-02 -7.18335E-02 -3.96981E-01 -1.54103E-01
  -2.09135E-01 -2.08114E-02 -3.71012E-01 -4.46294E-01 -1.16654E-01 -3.24337E-01 -2.30746E-01 -1.54750E-01  9.54132E-02  5.64295E-02
  -4.38739E-02  1.19692E-01 -6.36495E-02 -7.89416E-02  1.96562E-01 -3.97987E-02  8.94661E-02  1.02338E-01  4.40404E-01  6.67192E-01
   1.18535E-01  5.54282E-01  2.20994E-01  2.36840E-01  3.18572E-01  2.01111E-01  3.98477E-01  6.38076E-02  2.32988E-01  3.15290E-01
   1.41444E-01 -1.24769E-01  3.74383E-03  1.40934E-01  9.79880E-02 -2.74585E-01 -3.14672E-01 -2.34338E-01 -2.69620E-01 -4.71011E-01
  -5.44404E-01 -2.04293E-01 -3.43122E-01 -4.23256E-01 -6.48697E-01 -1.78550E-01 -1.38905E-01 -2.74476E-01 -2.51730E-01 -2.85248E-01
  -2.63471E-01 -1.05376E-01  5.40458E-02 -1.69351E-01  2.76463E-01 -4.55820E-02  1.12139E-01  3.93741E-01  2.63725E-01  3.48803E-01
   4.23465E-01  3.03711E-01  4.74749E-01  6.28793E-01  2.27109E-01  4.27745E-01  6.71888E-01  8.96961E-01  4.29957E-01  4.53452E-01
   1.27440E-01  1.02382E-01  5.30649E-01  2.83624E-01  3.96137E-01  1.44231E-01 -2.62575E-02 -1.16868E-02  3.57355E-01 -1.71182E-01
  -2.64820E-01  4.82606E-02 -1.08826E-01  1.62168E-01 -2.08104E-02 -2.67321E-01 -4.20542E-01 -2.11919E-01 -5.10435E-02 -4.03840E-01
   4.81300E-02  2.94356E-01 -3.16493E-01 -1.91014E-01 -2.48758E-01 -2.04443E-01 -5.69786E-02 -1.97006E-01 -2.45031E-01  7.14563E-03
  -1.79099E-01 -1.65021E-01  1.84936E-01 -1.85949E-01 -7.38399E-02 -6.08088E-01 -2.81033E-01  2.13792E-02 -2.37473E-01  8.81072E-02
  -2.59590E-01 -4.71583E-02 -1.97772E-01 -3.26313E-01  1.43314E-01 -3.70660E-02 -1.66659E-01 -2.63779E-01 -1.03397E-01  1.09285E-01
  -3.49113E-01 -6.34168E-02  7.81143E-02  1.33715E-01  2.09417E-01  4.77830E-02 -2.84088E-02 -1.49353E-01  2.19080E-01 -5.97889E-02
   3.15346E-02  1.31464E-01 -3.28280E-03  4.71643E-01  5.74223E-01  1.32029E-01  1.61961E-01  1.98661E-01  5.20223E-02  5.24390E-02
  -3.74901E-01 -4.86393E-02  7.25588E-02  1.27792E-01  1.10491E-01 -1.30691E-01  4.14978E-02 -3.60470E-01 -3.59853E-01 -1.28851E-01
  -3.51502E-02  7.47407E-02 -1.31882E-01 -7.10730E-02 -1.29482E-01 -1.85046E-01  9.31047E-02 -1.09711E-01 -1.54820E-01  2.76668E-01
   4.64350E-01  4.13219E-01  5.25418E-02 -1.26534E-01  2.99376E-01 -5.39044E-02 -2.41508E-01  1.21838E-01 -2.03864E-01 -2.79087E-01
  -1.80783E-01  1.41642E-01  5.29222E-02 -4.77232E-02  3.39185E-01 -1.69934E-01 -3.11280E-01  6.74911E-02 -2.48185E-01 -1.26417E-01
  -1.88247E-01 -2.93633E-01  1.52097E-02 -3.36235E-01 -2.13990E-01 -1.03473E-01 -1.78575E-01 -1.72965E-01 -5.81079E-02  8.87504E-02
  -2.46576E-01  1.00736E-01  3.69306E-01 -2.13096E-01 -1.08460E-01  3.33234E-01  1.52714E-02  8.85520E-02  1.86094E-01  2.33651E-02
   3.28353E-01  4.19425E-01  5.50289E-01  3.97791E-01  4.21847E-02  1.71996E-01  8.80476E-02  4.36671E-01  5.42300E-01  4.50378E-01
   2.45640E-01  3.97729E-02  6.07426E-01  1.62396E-01  3.37440E-01  4.89711E-01  1.15757E-01  1.20437E-01 -6.69209E-02  4.94325E-02
   9.88729E-02  4.31666E-01  2.42043E-02 -7.91496E-02  1.45185E-01 -4.00683E-02  2.25204E-01  4.42152E-01  4.32076E-01  2.21868E-01
   9.80489E-02 -5.29430E-02  1.82854E-01  2.77915E-01  1.32525E-02 -6.18286E-03 -6.76031E-02 -1.84184E-01 -5.66798E-01 -5.17313E-01
  -2.44823E-01 -2.46770E-01 -5.67998E-02 -4.25544E-01 -4.88155E-01 -5.79250E-01 -7.36536E-01 -3.52074E-01 -6.80719E-01 -5.19944E-01
  -2.05276E-01 -4.04793E-01 -3.53592E-01 -4.14007E-01 -1.44361E-01 -1.94245E-01 -6.99713E-01 -1.79228E-01 -1.52245E-01 -2.65712E-01
  -1.07388E-01 -2.88532E-01 -1.24739E-01  1.46291E-01  4.34782E-01 -1.06530E-01 -1.05109E-02  1.72262E-01 -7.39922E-02 -3.17578E-01
  -1.57306E-01  2.08169E-01 -1.11336E-01  5.25639E-02 -2.19090E-01 -9.39116E-02 -1.73055E-01 -1.53087E-02  3.45966E-01  2.54054E-03
   1.99309E-01  7.51779E-02 -2.24585E-01 -4.02471E-01 -8.56841E-03  2.01256E-01  1.90316E-02  3.53547E-02  1.12869E-01  2.21668E-01
   1.57580E-01  2.98649E-01  6.49879E-01  3.23697E-01 -2.80932E-02  1.59488E-01  2.65262E-01  9.47449E-02  1.90233E-01  5.65353E-01
   1.51313E-01  2.61143E-01 -1.06104E-01 -7.50908E-02  6.39265E-01 -6.67494E-02  2.79361E-03  3.50673E-01  9.71885E-02  9.60220E-02
   2.04032E-01 -3.88427E-02 -1.96961E-01 -1.42778E-01  1.99941E-01  1.31012E-01 -1.67762E-01 -6.34663E-03 -1.83747E-01 -1.55886E-01
   1.37715E-01 -4.38872E-02 -4.88358E-01  3.33731E-02 -2.38013E-02 -4.59194E-01  3.12862E-02  2.09374E-01  1.02153E-01 -7.74677E-02
  -2.62816E-01 -1.35608E-01  1.12215E-01  1.45567E-01  2.88622E-01 -3.55455E-03 -1.51559E-01 -6.99722E-02 -2.04403E-01 -1.56015E-01
   3.14463E-02  4.50961E-02 -4.97288E-02  1.34525E-01  6.32764E-03 -3.30574E-02 -4.65137E-02 -1.49187E-01  1.52855E-01  3.64739E-01
   1.23617E-01  1.89302E-01  2.24557E-01  1.22953E-01  1.51003E-01  1.97552E-01  1.71459E-01  1.14319E-01  2.77414E-01 -1.21137E-01
  -2.61676E-01 -7.56507E-02  1.49503E-01  8.47938E-02  1.20551E-01 -9.21204E-02 -2.12783E-01  6.40960E-02 -2.47221E-01 -4.27515E-02
  -1.75964E-01 -9.14160E-02 -1.05709E-01 -3.19218E-01 -3.55233E-01 -1.23589E-01  1.21045E-01 -6.00183E-02 -3.45188E-03 -1.56454E-01
  -1.71356E-01 -1.95241E-01 -3.61106E-02 -1.43461E-01  1.14380E-01  2.21543E-01 -2.07064E-02 -2.84102E-01 -1.17826E-01  1.14067E-01
  -1.48934E-01  8.48389E-02 -3.19815E-02  8.87643E-02 -3.87505E-01 -2.16297E-01 -4.99601E-02 -9.94991E-02  3.10530E-01 -9.82239E-02
   9.13571E-02 -1.01580E-01 -7.42132E-02  2.53965E-01 -1.31471E-01  1.42197E-01  3.34961E-01  1.35579E-01  7.69683E-02 -1.39608E-01
   4.20644E-01  6.34431E-02  1.93868E-01  3.15358E-01 -1.53650E-01  3.14137E-01  1.24985E-01  3.29170E-01 -6.85137E-02  1.00477E-01
  -2.93881E-02 -8.34789E-02  2.21948E-01 -8.34662E-02  1.13206E-01  4.71129E-02  2.49750E-01 -1.75669E-02  6.48283E-02 -2.51271E-01
  -3.07123E-01 -3.23910E-01 -7.52577E-01 -2.03167E-01 -5.81217E-02 -4.50817E-02  2.46613E-01 -8.25635E-02 -4.84839E-01 -2.78093E-01
  -3.00373E-01 -2.50517E-01 -5.58520E-02  8.86887E-02 -5.78754E-02 -5.81135E-02 -1.25119E-01 -1.04625E-01 -3.21746E-01 -3.48320E-01
  -9.78822E-02 -1.91099E-01  9.32209E-02 -1.27603E-01 -3.51607E-02 -1.50758E-01  1.16978E-01  2.27305E-01  1.82671E-01  1.10030E-01
  -2.56759E-01  2.50495E-01  7.97451E-02  3.17360E-01  1.17339E-01 -3.12304E-01 -2.31151E-01 -1.40812E-01  8.81348E-02 -3.66606E-02
   3.15903E-02  3.80776E-02 -2.70208E-02 -1.72345E-01 -3.23314E-02 -1.28760E-01 -1.15733E-01 -3.91982E-03 -2.34994E-01  6.99883E-02
  -1.05034E-01 -3.80342E-01 -1.96578E-01  7.06847E-02 -2.06611E-01 -5.05381E-01  9.04926E-03 -2.79212E-01 -1.98560E-01  8.09975E-02
  -1.02253E-01 -7.73233E-02 -1.23270E-01  2.37804E-01  4.18884E-02 -1.60487E-01  8.39278E-02 -2.19451E-02 -5.84826E-02  3.53097E-01
   3.86557E-02 -1.33284E-01  5.08181E-02 -3.06738E-01  7.52304E-02  9.31736E-02 -1.14080E-01  1.03209E-01  1.66355E-01 -3.17869E-02
  -1.40321E-01 -9.99037E-02 -8.48888E-02  1.56110E-01  1.77392E-01  4.97863E-02 -2.56483E-02  1.25512E-01 -4.05861E-02 -1.80925E-02
   3.51962E-01  7.63013E-02 -2.42251E-01 -3.09120E-01  5.56811E-02  1.85104E-01  1.46120E-01  3.22978E-01  3.25407E-02 -1.66791E-01
  -1.07065E-01 -9.68375E-02 -1.78159E-01  2.99940E-02  4.10417E-02 -1.03398E-02 -3.43274E-01 -2.96709E-01  3.05704E-01 -1.15810E-02
   5.15333E-01  2.97149E-01 -2.58111E-01  2.03171E-01  1.73833E-01  2.74783E-01  2.07262E-01  5.33640E-02 -1.15937E-01  4.92116E-02
   1.61381E-01  2.46432E-02  1.05072E-01 -5.27115E-02
 NY points of the fit to the data follow
  -9.27603E-03 -2.63353E-02 -1.44002E-02 -2.40033E-02 -5.89122E-03 -9.99233E-03  1.09847E-02  1.26603E-02  3.33974E-02  4.05303E-02
   5.95397E-02  7.31376E-02  9.10279E-02  1.11204E-01  1.28533E-01  1.57855E-01  1.67666E-01  2.00133E-01  1.97569E-01  2.29812E-01
   2.07723E-01  2.35221E-01  1.95368E-01  2.08553E-01  1.60454E-01  1.52015E-01  1.08400E-01  8.39228E-02  4.94108E-02  1.62344E-02
  -9.46192E-03 -4.58547E-02 -6.29788E-02 -9.73671E-02 -1.02950E-01 -1.30717E-01 -1.19281E-01 -1.40111E-01 -1.15218E-01 -1.16290E-01
  -8.67092E-02 -7.42654E-02 -4.42869E-02 -1.75696E-02  7.41121E-03  4.41139E-02  6.65119E-02  9.59260E-02  1.11932E-01  1.32853E-01
   1.30787E-01  1.46056E-01  1.26896E-01  1.41867E-01  1.10397E-01  1.28393E-01  8.92166E-02  1.10691E-01  6.55845E-02  8.91430E-02
   4.56334E-02  7.38085E-02  3.11170E-02  5.48043E-02  2.43538E-02  3.41995E-02  1.24786E-02  1.42551E-02  6.64560E-06 -2.79381E-03
  -8.94666E-03 -1.81434E-02 -1.48288E-02 -2.99794E-02 -1.79257E-02 -3.56819E-02 -1.63197E-02 -2.49432E-02 -5.19186E-03  1.33100E-02
   1.22869E-02  6.07189E-02  2.63724E-02  9.38398E-02  3.10033E-02  1.04736E-01  2.63761E-02  9.29315E-02  1.10024E-02  6.36235E-02
  -1.52687E-02  2.02224E-02 -3.99850E-02 -3.31842E-02 -5.78119E-02 -8.04474E-02 -6.81048E-02 -1.18348E-01 -6.96096E-02 -1.47117E-01
  -6.26125E-02 -1.65271E-01 -5.06216E-02 -1.72409E-01 -3.44021E-02 -1.72244E-01 -1.31306E-02 -1.46566E-01  2.18350E-02 -9.00617E-02
   8.53143E-02 -1.13761E-02  1.60320E-01  7.17124E-02  2.26207E-01  1.60940E-01  2.92946E-01  2.47397E-01  3.42714E-01  3.11616E-01
   3.59147E-01  3.31262E-01  3.33514E-01  3.00158E-01  2.74058E-01  2.37042E-01  1.93705E-01  1.56365E-01  9.78203E-02  6.32348E-02
  -6.32714E-03 -3.29112E-02 -1.07040E-01 -1.20666E-01 -1.93281E-01 -1.94990E-01 -2.64512E-01 -2.54000E-01 -3.18833E-01 -2.97085E-01
  -3.54118E-01 -3.24839E-01 -3.71362E-01 -3.37751E-01 -3.73155E-01 -3.42530E-01 -3.75708E-01 -3.27076E-01 -3.21268E-01 -2.60503E-01
  -2.13931E-01 -1.57442E-01 -8.04981E-02 -4.11850E-02  4.86555E-02  7.50847E-02  1.66753E-01  1.82147E-01  2.65586E-01  2.64748E-01
   3.22993E-01  3.19002E-01  3.51469E-01  3.47548E-01  3.54569E-01  3.53287E-01  3.36984E-01  3.35035E-01  2.89465E-01  2.88711E-01
   2.15484E-01  2.20650E-01  1.29981E-01  1.43692E-01  4.68992E-02  6.84681E-02 -2.56220E-02  5.57202E-04 -8.67543E-02 -6.19195E-02
  -1.46092E-01 -1.22974E-01 -2.03031E-01 -1.77566E-01 -2.44942E-01 -2.14742E-01 -2.60244E-01 -2.24371E-01 -2.39209E-01 -2.03232E-01
  -1.91756E-01 -1.73024E-01 -1.67007E-01 -1.54298E-01 -1.48838E-01 -1.38765E-01 -1.34939E-01 -1.27006E-01 -1.25069E-01 -1.17724E-01
  -1.16271E-01 -1.10605E-01 -1.08878E-01 -1.05575E-01 -1.02688E-01 -1.07455E-01 -1.03878E-01 -1.11706E-01 -1.06178E-01 -1.16150E-01
  -1.14156E-01 -1.24886E-01 -1.20967E-01 -1.29556E-01 -1.20686E-01 -1.24604E-01 -1.10368E-01 -1.07614E-01 -9.02628E-02 -8.13611E-02
  -6.35317E-02 -4.89062E-02 -3.21832E-02 -1.25676E-02  8.39789E-04  2.52318E-02  3.42335E-02  6.03790E-02  6.47394E-02  8.92742E-02
   9.06990E-02  1.10457E-01  1.08289E-01  1.23542E-01  1.14746E-01  1.28361E-01  1.11697E-01  1.17248E-01  1.00052E-01  9.46985E-02
   7.55056E-02  6.06513E-02  4.03786E-02  2.31015E-02 -4.16723E-03 -1.74589E-02 -5.01758E-02 -5.77880E-02 -9.02741E-02 -9.20272E-02
  -1.18255E-01 -1.19192E-01 -1.34427E-01 -1.31449E-01 -1.32143E-01 -1.24387E-01 -1.16237E-01 -1.02645E-01 -8.82185E-02 -6.70845E-02
  -4.67011E-02 -1.40285E-02  5.72805E-03  4.72769E-02  5.71187E-02  8.96983E-02  8.74062E-02  9.59701E-02  8.22712E-02  7.16267E-02
   4.83663E-02  2.94001E-02  2.76210E-04 -2.13938E-02 -5.02737E-02 -7.59371E-02 -9.89402E-02 -1.29949E-01 -1.44615E-01 -1.75726E-01
  -1.84820E-01 -2.05772E-01 -2.12773E-01 -2.20481E-01 -2.20565E-01 -2.12811E-01 -2.05973E-01 -1.84290E-01 -1.69039E-01 -1.36283E-01
  -1.18120E-01 -7.72931E-02 -5.92039E-02 -1.63401E-02  2.58262E-03  4.20261E-02  6.37445E-02  1.01222E-01  1.25171E-01  1.62816E-01
   1.84322E-01  2.21387E-01  2.32412E-01  2.64582E-01  2.58589E-01  2.78957E-01  2.55243E-01  2.63918E-01  2.25497E-01  2.31527E-01
   1.84137E-01  1.90284E-01  1.43922E-01  1.47351E-01  1.06134E-01  1.10933E-01  7.71962E-02  9.65955E-02  5.27418E-02  8.85623E-02
   2.78912E-02  7.84436E-02  6.47536E-02  1.02797E-01  1.25654E-01  1.32438E-01  1.72705E-01  1.45019E-01  1.83003E-01  1.26391E-01
   1.56490E-01  7.85909E-02  1.00006E-01  6.22752E-03  1.54949E-02 -8.58249E-02 -8.65884E-02 -1.84854E-01 -1.91552E-01 -2.75912E-01
  -2.86696E-01 -3.49759E-01 -3.77936E-01 -4.10950E-01 -4.54881E-01 -4.55732E-01 -5.02216E-01 -4.77480E-01 -5.15084E-01 -4.73716E-01
  -4.95084E-01 -4.42594E-01 -4.51273E-01 -3.89642E-01 -4.01303E-01 -3.28385E-01 -3.45618E-01 -2.63009E-01 -2.76312E-01 -1.95842E-01
  -1.97132E-01 -1.34730E-01 -1.11206E-01 -7.35264E-02 -4.27307E-02 -3.06576E-02 -3.00954E-02 -2.67607E-02 -2.96072E-02 -2.83392E-02
  -3.14128E-02 -3.08654E-02 -3.31426E-02 -3.27798E-02 -3.37799E-02 -3.34217E-02 -3.26573E-02 -3.21309E-02 -2.92626E-02 -2.81080E-02
  -2.30137E-02 -2.06730E-02 -1.40139E-02 -1.01832E-02 -3.09043E-03  1.75639E-03  8.51276E-03  1.33308E-02  1.95350E-02  2.38195E-02
   2.92763E-02  3.31844E-02  3.76864E-02  4.13358E-02  4.47274E-02  4.80978E-02  5.03632E-02  5.34104E-02  5.44287E-02  5.70147E-02
   5.67652E-02  5.87786E-02  5.74185E-02  5.86487E-02  5.62724E-02  5.65570E-02  5.33070E-02  5.24928E-02  4.84836E-02  4.64339E-02
   4.16505E-02  3.83315E-02  3.27835E-02  2.75629E-02  1.69663E-02  1.08069E-02 -4.89987E-03 -1.14396E-02 -2.53523E-02 -3.10755E-02
  -3.92599E-02 -4.37139E-02 -4.54890E-02 -4.86830E-02 -4.54705E-02 -4.74984E-02 -4.05185E-02 -4.15857E-02 -3.20394E-02 -3.21763E-02
  -2.13431E-02 -2.05491E-02 -9.29085E-03 -7.43801E-03  4.39625E-03  7.09672E-03  1.89473E-02  2.23840E-02  3.22580E-02  3.63441E-02
   4.31442E-02  4.78516E-02  5.20793E-02  5.74730E-02  6.03472E-02  6.64992E-02  6.90539E-02  7.57162E-02  7.76523E-02  8.42503E-02
   8.37151E-02  8.97073E-02  8.58434E-02  9.09323E-02  8.45803E-02  8.87907E-02  8.23728E-02  8.60229E-02  8.34024E-02  8.57333E-02
   8.51816E-02  8.59842E-02  8.35966E-02  8.23059E-02  7.82575E-02  7.50984E-02  6.98391E-02  6.52797E-02  5.94246E-02  5.39157E-02
   4.79513E-02  4.21172E-02  3.64791E-02  3.08526E-02  2.60147E-02  2.09521E-02  1.74177E-02  1.32949E-02  1.12895E-02  8.36293E-03
   7.80974E-03  6.22424E-03  6.82685E-03  6.58391E-03  8.06784E-03  9.04576E-03  1.11254E-02  1.31070E-02  1.54579E-02  1.80488E-02
   2.05413E-02  2.34001E-02  2.57884E-02  2.86350E-02  3.07936E-02  3.35003E-02  3.52784E-02  3.77216E-02  3.90410E-02  4.12073E-02
   4.23007E-02  4.42151E-02  4.54707E-02  4.71873E-02  4.88303E-02  5.04874E-02  5.25330E-02  5.41454E-02  5.63708E-02  5.78715E-02
   6.00316E-02  6.11138E-02  6.27179E-02  6.30946E-02  6.37708E-02  6.29794E-02  6.21808E-02  5.99369E-02  5.72361E-02  5.34936E-02
   4.87084E-02  4.35204E-02  3.66878E-02  3.01884E-02  2.16264E-02  1.39111E-02  4.03110E-03 -4.62115E-03 -1.53067E-02 -2.44924E-02
  -3.54496E-02 -4.45735E-02 -5.52817E-02 -6.37860E-02 -7.36537E-02 -8.10385E-02 -8.95198E-02 -9.54708E-02 -1.02197E-01 -1.06345E-01
  -1.11013E-01 -1.13306E-01 -1.15631E-01 -1.16176E-01 -1.16169E-01 -1.15054E-01 -1.13035E-01 -1.10397E-01 -1.06724E-01 -1.02791E-01
  -9.78947E-02 -9.31434E-02 -8.74189E-02 -8.23393E-02 -7.62770E-02 -7.11494E-02 -6.49959E-02 -5.99805E-02 -5.40469E-02 -4.91404E-02
  -4.35499E-02 -3.88964E-02 -3.37072E-02 -2.94619E-02 -2.48099E-02 -2.10488E-02 -1.69941E-02 -1.37212E-02 -1.03881E-02 -7.62097E-03
  -4.82888E-03 -2.38704E-03 -1.43450E-04  2.00506E-03  3.80503E-03  5.66610E-03  7.12908E-03  8.59975E-03  9.87579E-03  1.09761E-02
   1.21492E-02  1.28932E-02  1.39411E-02  1.43486E-02  1.51901E-02  1.54700E-02  1.59850E-02  1.61847E-02  1.64163E-02  1.65398E-02
   1.64513E-02  1.64890E-02  1.61272E-02  1.62265E-02  1.55772E-02  1.58977E-02  1.50085E-02  1.55258E-02  1.45221E-02  1.51307E-02
   1.41363E-02  1.47783E-02  1.38737E-02  1.43420E-02  1.36052E-02  1.38298E-02  1.34234E-02  1.34391E-02  1.34528E-02  1.32681E-02
   1.36233E-02  1.33707E-02  1.40455E-02  1.37139E-02  1.46577E-02  1.41318E-02  1.53511E-02  1.48286E-02  1.62246E-02  1.56673E-02
   1.70753E-02  1.66186E-02  1.78737E-02  1.74824E-02  1.85732E-02  1.82393E-02  1.92054E-02  1.88227E-02  1.95520E-02  1.90857E-02
   1.95573E-02  1.90645E-02  1.92665E-02  1.87664E-02  1.88373E-02  1.81861E-02  1.81808E-02  1.72891E-02  1.71731E-02  1.61839E-02
   1.59109E-02  1.49482E-02  1.44328E-02  1.34789E-02  1.25909E-02  1.15625E-02  1.02262E-02  9.08825E-03  7.31637E-03  5.87150E-03
   3.52533E-03  1.48052E-03 -1.61288E-03 -4.47814E-03
 NY background values follow
     3.013E-02    3.004E-02    2.994E-02    2.984E-02    2.975E-02    2.965E-02    2.956E-02    2.946E-02    2.937E-02    2.927E-02
     2.918E-02    2.908E-02    2.899E-02    2.889E-02    2.880E-02    2.870E-02    2.860E-02    2.851E-02    2.841E-02    2.832E-02
     2.822E-02    2.813E-02    2.803E-02    2.794E-02    2.784E-02    2.775E-02    2.765E-02    2.756E-02    2.746E-02    2.737E-02
     2.727E-02    2.717E-02    2.708E-02    2.698E-02    2.689E-02    2.679E-02    2.670E-02    2.660E-02    2.651E-02    2.641E-02
     2.632E-02    2.622E-02    2.613E-02    2.603E-02    2.593E-02    2.584E-02    2.574E-02    2.565E-02    2.555E-02    2.546E-02
     2.536E-02    2.527E-02    2.517E-02    2.508E-02    2.498E-02    2.489E-02    2.479E-02    2.469E-02    2.460E-02    2.450E-02
     2.441E-02    2.431E-02    2.422E-02    2.412E-02    2.403E-02    2.393E-02    2.384E-02    2.374E-02    2.365E-02    2.355E-02
