 
 $NMID
 ID=''
 FMTDAT='(2E13.5)'
 TRAMP=   1.00000E+0
 VOLUME=   1.00000E+0
 $END
  -1.98098E+4  -8.08007E+3
  -4.30609E+4  -3.39712E+4
  -4.86130E+4  -2.52351E+4
  -4.50218E+4  -2.24959E+4
  -4.63630E+4  -2.41881E+4
  -4.76752E+4  -2.15665E+4
  -4.58882E+4  -2.05243E+4
  -4.62475E+4  -2.12682E+4
  -4.71131E+4  -1.95573E+4
  -4.59342E+4  -1.86848E+4
  -4.58780E+4  -1.89841E+4
  -4.63922E+4  -1.74042E+4
  -4.56671E+4  -1.65461E+4
  -4.57390E+4  -1.68765E+4
  -4.60016E+4  -1.57182E+4
  -4.52984E+4  -1.49785E+4
  -4.52249E+4  -1.50291E+4
  -4.53223E+4  -1.40194E+4
  -4.48399E+4  -1.32198E+4
  -4.47536E+4  -1.31103E+4
  -4.46148E+4  -1.22062E+4
  -4.41101E+4  -1.11988E+4
  -4.41033E+4  -1.10899E+4
  -4.39550E+4  -1.04079E+4
  -4.33294E+4  -9.61204E+3
  -4.31518E+4  -9.19807E+3
  -4.30218E+4  -8.60178E+3
  -4.24275E+4  -8.06211E+3
  -4.20841E+4  -7.77909E+3
  -4.19127E+4  -7.14783E+3
  -4.14963E+4  -6.41321E+3
  -4.12592E+4  -6.02158E+3
  -4.10269E+4  -5.55762E+3
  -4.05337E+4  -4.95717E+3
  -4.03341E+4  -4.43112E+3
  -4.00661E+4  -3.90071E+3
  -3.96246E+4  -3.25636E+3
  -3.92752E+4  -2.75559E+3
  -3.91027E+4  -2.09889E+3
  -3.87053E+4  -1.58068E+3
  -3.84182E+4  -1.15703E+3
  -3.82169E+4  -7.77630E+2
  -3.77936E+4  -3.97722E+2
  -3.74225E+4   4.32433E+0
  -3.70370E+4   4.74777E+2
  -3.66743E+4   9.15448E+2
  -3.64027E+4   1.27513E+3
  -3.60813E+4   1.75651E+3
  -3.57180E+4   2.19603E+3
  -3.53015E+4   2.56725E+3
  -3.49688E+4   2.80112E+3
  -3.44619E+4   3.16363E+3
  -3.40867E+4   3.64273E+3
  -3.36804E+4   4.04026E+3
  -3.33190E+4   4.38249E+3
  -3.29082E+4   4.63328E+3
  -3.25446E+4   4.94750E+3
  -3.20516E+4   5.18792E+3
  -3.15959E+4   5.46962E+3
  -3.10909E+4   5.78858E+3
  -3.06255E+4   6.06247E+3
  -3.02368E+4   6.40398E+3
  -2.97658E+4   6.67602E+3
  -2.94192E+4   6.96111E+3
  -2.89691E+4   7.25361E+3
  -2.84872E+4   7.42983E+3
  -2.80933E+4   7.72269E+3
  -2.77018E+4   7.99639E+3
  -2.72717E+4   8.20631E+3
  -2.67846E+4   8.38306E+3
  -2.63739E+4   8.54561E+3
  -2.59416E+4   8.73694E+3
  -2.54919E+4   8.99433E+3
  -2.51299E+4   9.15341E+3
  -2.46680E+4   9.28361E+3
  -2.42119E+4   9.42741E+3
  -2.38351E+4   9.60665E+3
  -2.33841E+4   9.72125E+3
  -2.29113E+4   9.86505E+3
  -2.25459E+4   1.00570E+4
  -2.20996E+4   1.02345E+4
  -2.17031E+4   1.02510E+4
  -2.12332E+4   1.03437E+4
  -2.08677E+4   1.04637E+4
  -2.04836E+4   1.04750E+4
  -2.01478E+4   1.05717E+4
  -1.97056E+4   1.06517E+4
  -1.92930E+4   1.06968E+4
  -1.89039E+4   1.07037E+4
  -1.85687E+4   1.08740E+4
  -1.82304E+4   1.09314E+4
  -1.78241E+4   1.09939E+4
  -1.75375E+4   1.10356E+4
  -1.71816E+4   1.11417E+4
  -1.68611E+4   1.11073E+4
  -1.64597E+4   1.12355E+4
  -1.61031E+4   1.12017E+4
  -1.58097E+4   1.12889E+4
  -1.55225E+4   1.13177E+4
  -1.52407E+4   1.12569E+4
  -1.48458E+4   1.12027E+4
  -1.45896E+4   1.11931E+4
  -1.42984E+4   1.12309E+4
  -1.40201E+4   1.11261E+4
  -1.38037E+4   1.11969E+4
  -1.34898E+4   1.11276E+4
  -1.32332E+4   1.10651E+4
  -1.30302E+4   1.10221E+4
  -1.28060E+4   1.09741E+4
  -1.24961E+4   1.08967E+4
  -1.21871E+4   1.08093E+4
  -1.19990E+4   1.07402E+4
  -1.16979E+4   1.06216E+4
  -1.14677E+4   1.04920E+4
  -1.13338E+4   1.04792E+4
  -1.10759E+4   1.03110E+4
  -1.08753E+4   1.01999E+4
  -1.06052E+4   1.00365E+4
  -1.03588E+4   9.89016E+3
  -1.01823E+4   9.73217E+3
  -9.90890E+3   9.58827E+3
  -9.68173E+3   9.41386E+3
  -9.46794E+3   9.29533E+3
  -9.32268E+3   9.19998E+3
  -9.17128E+3   9.03665E+3
  -8.89391E+3   8.83953E+3
  -8.73513E+3   8.64607E+3
  -8.52997E+3   8.53915E+3
  -8.33759E+3   8.33982E+3
  -8.13363E+3   8.24463E+3
  -7.92569E+3   8.02652E+3
  -7.69389E+3   7.86122E+3
  -7.52574E+3   7.68345E+3
  -7.44857E+3   7.57861E+3
  -7.26570E+3   7.41982E+3
  -7.09794E+3   7.25178E+3
  -6.93395E+3   7.08917E+3
  -6.73312E+3   6.96376E+3
  -6.58745E+3   6.79706E+3
  -6.50781E+3   6.65100E+3
  -6.22683E+3   6.48324E+3
  -6.08431E+3   6.37651E+3
  -5.97591E+3   6.25363E+3
  -5.85590E+3   6.12911E+3
  -5.70803E+3   5.90104E+3
  -5.58227E+3   5.71131E+3
  -5.49891E+3   5.64682E+3
  -5.34816E+3   5.44299E+3
  -5.20083E+3   5.35174E+3
  -5.01210E+3   5.21973E+3
  -4.99797E+3   5.10504E+3
  -4.79201E+3   4.89728E+3
  -4.78266E+3   4.79265E+3
  -4.62964E+3   4.67435E+3
  -4.49759E+3   4.60030E+3
  -4.42251E+3   4.36095E+3
  -4.36679E+3   4.30601E+3
  -4.25859E+3   4.16649E+3
  -4.10799E+3   4.08376E+3
  -4.00323E+3   3.92781E+3
  -3.87893E+3   3.89584E+3
  -3.80216E+3   3.76911E+3
  -3.71444E+3   3.67003E+3
  -3.67318E+3   3.54957E+3
  -3.51232E+3   3.48783E+3
  -3.49782E+3   3.39290E+3
  -3.42953E+3   3.30491E+3
  -3.30733E+3   3.18565E+3
  -3.22511E+3   3.03163E+3
  -3.25217E+3   3.00200E+3
  -3.13352E+3   2.92936E+3
  -3.05666E+3   2.90224E+3
  -2.97859E+3   2.82575E+3
  -2.93990E+3   2.71125E+3
  -2.91999E+3   2.67880E+3
  -2.81580E+3   2.56619E+3
  -2.81542E+3   2.44902E+3
  -2.70729E+3   2.42554E+3
  -2.66790E+3   2.39905E+3
  -2.59654E+3   2.33134E+3
  -2.53745E+3   2.25518E+3
  -2.46508E+3   2.20533E+3
  -2.48643E+3   2.13949E+3
  -2.42370E+3   2.15147E+3
  -2.45124E+3   2.05074E+3
  -2.33159E+3   2.04650E+3
  -2.33874E+3   2.00634E+3
  -2.36308E+3   1.91882E+3
  -2.32927E+3   1.81223E+3
  -2.18897E+3   1.85791E+3
  -2.16719E+3   1.79095E+3
  -2.03240E+3   1.76963E+3
  -2.09371E+3   1.71913E+3
  -2.03776E+3   1.77491E+3
  -2.01249E+3   1.67159E+3
  -2.00322E+3   1.66764E+3
  -2.02163E+3   1.70493E+3
  -1.95927E+3   1.56891E+3
  -1.92777E+3   1.59846E+3
  -1.92968E+3   1.51966E+3
  -1.85661E+3   1.52594E+3
  -1.86697E+3   1.49743E+3
  -1.82831E+3   1.53028E+3
  -1.82018E+3   1.54807E+3
  -1.75672E+3   1.51902E+3
  -1.71484E+3   1.52915E+3
  -1.70239E+3   1.46333E+3
  -1.69203E+3   1.47064E+3
  -1.65654E+3   1.49797E+3
  -1.68268E+3   1.44702E+3
  -1.61879E+3   1.40331E+3
  -1.53882E+3   1.38749E+3
  -1.63009E+3   1.50419E+3
  -1.52516E+3   1.38128E+3
  -1.54945E+3   1.39986E+3
  -1.50153E+3   1.42682E+3
  -1.50542E+3   1.44751E+3
  -1.44719E+3   1.36435E+3
  -1.46553E+3   1.40520E+3
  -1.45259E+3   1.45631E+3
  -1.52848E+3   1.35113E+3
  -1.42105E+3   1.38637E+3
  -1.41365E+3   1.34187E+3
  -1.32511E+3   1.37033E+3
  -1.29638E+3   1.38881E+3
  -1.35875E+3   1.39210E+3
  -1.33430E+3   1.40573E+3
  -1.34043E+3   1.36284E+3
  -1.31200E+3   1.42157E+3
  -1.34357E+3   1.36632E+3
  -1.29557E+3   1.41506E+3
  -1.24398E+3   1.40154E+3
  -1.23306E+3   1.32027E+3
  -1.28514E+3   1.27704E+3
  -1.24543E+3   1.40410E+3
  -1.18760E+3   1.40924E+3
  -1.11171E+3   1.39309E+3
  -1.17130E+3   1.36507E+3
  -1.09335E+3   1.42420E+3
  -1.13633E+3   1.34236E+3
  -1.09255E+3   1.42568E+3
  -1.09826E+3   1.38114E+3
  -1.10094E+3   1.35141E+3
  -1.06877E+3   1.35689E+3
  -1.03240E+3   1.33011E+3
  -1.06413E+3   1.38674E+3
  -1.00792E+3   1.37658E+3
  -1.06102E+3   1.38339E+3
  -9.60281E+2   1.41228E+3
  -9.34454E+2   1.36559E+3
  -8.70645E+2   1.36899E+3
  -8.71780E+2   1.36959E+3
  -9.16237E+2   1.37559E+3
  -9.03740E+2   1.42120E+3
  -8.63883E+2   1.38106E+3
  -8.14506E+2   1.37823E+3
  -7.78408E+2   1.43008E+3
  -7.88072E+2   1.39973E+3
  -7.84351E+2   1.40995E+3
  -7.57534E+2   1.40981E+3
  -6.88690E+2   1.40439E+3
  -7.03601E+2   1.30672E+3
  -6.47121E+2   1.41681E+3
  -6.96551E+2   1.38783E+3
  -6.23239E+2   1.33835E+3
  -6.18517E+2   1.36769E+3
  -6.49236E+2   1.39138E+3
  -5.84140E+2   1.39539E+3
  -6.06315E+2   1.36195E+3
  -6.21029E+2   1.41001E+3
  -5.81148E+2   1.34818E+3
  -5.50580E+2   1.44936E+3
  -5.47857E+2   1.35016E+3
  -4.63170E+2   1.32795E+3
  -4.72733E+2   1.35101E+3
  -4.70492E+2   1.35416E+3
  -4.13647E+2   1.34597E+3
  -4.61686E+2   1.34621E+3
  -3.98509E+2   1.34951E+3
  -3.66618E+2   1.28288E+3
  -3.87061E+2   1.27077E+3
  -4.20345E+2   1.28508E+3
  -3.34348E+2   1.27787E+3
  -2.93407E+2   1.33294E+3
  -3.07498E+2   1.24960E+3
  -3.11157E+2   1.23656E+3
  -2.94783E+2   1.18840E+3
  -3.08325E+2   1.25002E+3
  -2.83948E+2   1.20309E+3
  -2.39194E+2   1.20518E+3
  -2.72028E+2   1.25137E+3
  -2.33998E+2   1.21100E+3
  -1.99017E+2   1.16237E+3
  -1.95415E+2   1.18172E+3
  -2.13961E+2   1.21391E+3
  -2.20800E+2   1.16843E+3
  -1.77731E+2   1.09711E+3
  -1.62843E+2   1.16888E+3
  -5.97416E+1   1.10746E+3
  -2.11438E+2   1.07761E+3
  -1.05167E+2   1.10608E+3
  -7.68663E+1   1.07618E+3
  -9.94076E+1   1.03375E+3
  -7.37751E+1   1.03536E+3
  -5.24467E+1   1.11133E+3
  -1.25827E+2   1.07460E+3
  -6.16548E+1   9.93850E+2
  -1.47401E+2   9.95149E+2
  -6.50994E+1   1.01899E+3
  -4.70156E+1   9.41140E+2
  -4.30064E+1   1.01502E+3
   2.28066E+1   9.34630E+2
  -8.14730E+1   9.12576E+2
  -6.92927E+0   9.44389E+2
   1.69174E+1   9.56710E+2
  -1.09956E+1   9.77661E+2
   5.30911E+1   9.02715E+2
   1.81972E+0   9.09720E+2
   9.74886E+0   8.76372E+2
  -5.48712E+0   9.02238E+2
   2.21111E+1   8.77429E+2
  -3.24466E+0   8.37325E+2
  -5.04382E+0   8.25663E+2
  -8.61345E-1   8.49180E+2
  -4.52017E+1   8.16760E+2
   3.20583E+1   8.31255E+2
  -1.11863E+1   7.76537E+2
   9.30083E+1   7.78163E+2
   3.95308E+1   7.33142E+2
   3.21508E+1   7.11773E+2
   1.26800E+1   7.40713E+2
   2.61746E+1   7.50422E+2
   9.76004E+0   7.27556E+2
   1.33517E+1   7.35947E+2
   2.88778E+1   6.90132E+2
   1.27534E+1   7.53152E+2
   5.44449E+0   6.69538E+2
   5.57643E+1   6.67213E+2
   5.72816E+1   6.37826E+2
   2.28064E+1   6.98559E+2
   3.13902E+1   6.82020E+2
   5.65754E+1   6.45194E+2
   8.81303E+1   6.41224E+2
   1.12979E+2   6.42837E+2
   8.82290E+1   6.07950E+2
   1.15622E+1   6.34653E+2
  -2.18941E+0   6.37454E+2
   5.28921E+1   5.94462E+2
   3.90299E+1   5.54954E+2
   8.88047E+0   5.50784E+2
   3.27944E+1   5.37347E+2
  -1.68540E+1   5.16615E+2
   5.47577E+1   4.51903E+2
   2.18054E+1   5.42664E+2
  -2.25158E+1   5.27820E+2
   5.39808E+1   4.79274E+2
   4.93294E+1   5.07074E+2
   5.31511E+1   4.80938E+2
  -1.16276E+1   4.41827E+2
   6.89954E+1   4.80737E+2
  -2.20476E+0   4.51265E+2
   8.21057E+0   4.24561E+2
   2.36667E+1   4.58187E+2
   5.30959E+1   4.15578E+2
  -4.12151E+1   4.76593E+2
   3.03293E+1   3.93586E+2
   1.19629E+1   4.30371E+2
