 LCModel (Version 6.3-1N) Copyright: S.W. Provencher.          Ref.: Magn. Reson. Med. 30:672-679 (1993).                
 Slice_N1@18_21  02-Jun-2023 14:37:05
 27 lines in following concentration table = NCONC+1
    Conc.  %SD /Cr+PCr  Metabolite                                         
 1.77E-06  20% 2.3E-04 Mac                                                 
 3.67E-02  16%   4.851 Cr                                                  
 2.38E-02  22%   3.149 PCr                                                 
 8.75E-02  10%  11.552 Ins                                                 
 8.16E-02   8%  10.778 NAA                                                 
 7.03E-02  12%   9.286 Tau                                                 
 6.65E-03  54%   0.878 PCho                                                
 5.69E-03  64%   0.752 GPC                                                 
 7.19E-02  14%   9.494 Glu                                                 
 3.01E-02  25%   3.980 Gln                                                 
 2.95E-03 245%   0.390 Ala                                                 
 2.39E-02  56%   3.159 Asc                                                 
 1.37E-02  52%   1.811 Asp                                                 
 7.30E-03  55%   0.963 GABA                                                
 9.35E-03  52%   1.234 Glc                                                 
 1.05E-02  40%   1.381 GSH                                                 
    0.000 999%   0.000 Lac                                                 
 4.59E-03  98%   0.607 NAAG                                                
    0.000 999%   0.000 PE                                                  
 1.23E-02  16%   1.630 GPC+PCho                                            
 8.62E-02   9%  11.385 NAA+NAAG                                            
    0.102  12%  13.474 Glu+Gln                                             
 6.06E-02  10%   8.000 Cr+PCr                                              
 8.62E-02   9%  11.385 NAA+NAAG                                            
 6.06E-02  10%   8.000 Cr+PCr                                              
    0.102  12%  13.474 Glu+Gln                                             
   6 lines in following misc. output table
  FWHM = 0.012 ppm    S/N =   6                                            
  Data shift = 0.006 ppm                                                   
  Ph:   3 deg      -8.6 deg/ppm                                            
  alphaB,S = 7.8E+00,   2.0E-01                                            
   18 spline knots.   Ns = 5(1)                                            
   3 inflections.     3 extrema                                            
  654 points on ppm-axis = NY
      4.000000     3.994181     3.988363     3.982544     3.976726     3.970907     3.965088     3.959270     3.953451     3.947633
      3.941814     3.935995     3.930177     3.924358     3.918540     3.912721     3.906902     3.901084     3.895265     3.889446
      3.883628     3.877809     3.871991     3.866172     3.860353     3.854535     3.848716     3.842898     3.837079     3.831260
      3.825442     3.819623     3.813805     3.807986     3.802167     3.796349     3.790530     3.784712     3.778893     3.773074
      3.767256     3.761437     3.755619     3.749800     3.743981     3.738163     3.732344     3.726526     3.720707     3.714888
      3.709070     3.703251     3.697433     3.691614     3.685795     3.679977     3.674158     3.668339     3.662521     3.656702
      3.650884     3.645065     3.639246     3.633428     3.627609     3.621791     3.615972     3.610153     3.604335     3.598516
      3.592698     3.586879     3.581060     3.575242     3.569423     3.563605     3.557786     3.551967     3.546149     3.540330
      3.534512     3.528693     3.522874     3.517056     3.511237     3.505419     3.499600     3.493781     3.487963     3.482144
      3.476326     3.470507     3.464688     3.458870     3.453051     3.447232     3.441414     3.435595     3.429777     3.423958
      3.418139     3.412321     3.406502     3.400684     3.394865     3.389046     3.383228     3.377409     3.371591     3.365772
      3.359953     3.354135     3.348316     3.342498     3.336679     3.330860     3.325042     3.319223     3.313405     3.307586
      3.301767     3.295949     3.290130     3.284312     3.278493     3.272674     3.266856     3.261037     3.255219     3.249400
      3.243581     3.237763     3.231944     3.226125     3.220307     3.214488     3.208670     3.202851     3.197032     3.191214
      3.185395     3.179577     3.173758     3.167939     3.162121     3.156302     3.150484     3.144665     3.138846     3.133028
      3.127209     3.121391     3.115572     3.109753     3.103935     3.098116     3.092298     3.086479     3.080660     3.074842
      3.069023     3.063205     3.057386     3.051567     3.045749     3.039930     3.034111     3.028293     3.022474     3.016656
      3.010837     3.005018     2.999200     2.993381     2.987563     2.981744     2.975925     2.970107     2.964288     2.958470
      2.952651     2.946832     2.941014     2.935195     2.929377     2.923558     2.917739     2.911921     2.906102     2.900284
      2.894465     2.888646     2.882828     2.877009     2.871191     2.865372     2.859553     2.853735     2.847916     2.842098
      2.836279     2.830460     2.824642     2.818823     2.813004     2.807186     2.801367     2.795549     2.789730     2.783911
      2.778093     2.772274     2.766456     2.760637     2.754818     2.749000     2.743181     2.737363     2.731544     2.725725
      2.719907     2.714088     2.708270     2.702451     2.696632     2.690814     2.684995     2.679177     2.673358     2.667539
      2.661721     2.655902     2.650084     2.644265     2.638446     2.632628     2.626809     2.620991     2.615172     2.609353
      2.603535     2.597716     2.591897     2.586079     2.580260     2.574442     2.568623     2.562804     2.556986     2.551167
      2.545349     2.539530     2.533711     2.527893     2.522074     2.516256     2.510437     2.504618     2.498800     2.492981
      2.487163     2.481344     2.475525     2.469707     2.463888     2.458070     2.452251     2.446432     2.440614     2.434795
      2.428977     2.423158     2.417339     2.411521     2.405702     2.399884     2.394065     2.388246     2.382428     2.376609
      2.370790     2.364972     2.359153     2.353335     2.347516     2.341697     2.335879     2.330060     2.324242     2.318423
      2.312604     2.306786     2.300967     2.295149     2.289330     2.283511     2.277693     2.271874     2.266056     2.260237
      2.254418     2.248600     2.242781     2.236963     2.231144     2.225325     2.219507     2.213688     2.207870     2.202051
      2.196232     2.190414     2.184595     2.178777     2.172958     2.167139     2.161321     2.155502     2.149683     2.143865
      2.138046     2.132228     2.126409     2.120590     2.114772     2.108953     2.103135     2.097316     2.091497     2.085679
      2.079860     2.074042     2.068223     2.062404     2.056586     2.050767     2.044949     2.039130     2.033311     2.027493
      2.021674     2.015856     2.010037     2.004218     1.998400     1.992581     1.986763     1.980944     1.975126     1.969307
      1.963489     1.957670     1.951852     1.946033     1.940215     1.934397     1.928578     1.922760     1.916941     1.911123
      1.905304     1.899486     1.893667     1.887849     1.882030     1.876212     1.870393     1.864575     1.858756     1.852938
      1.847119     1.841301     1.835482     1.829664     1.823845     1.818027     1.812208     1.806390     1.800571     1.794753
      1.788934     1.783116     1.777297     1.771479     1.765660     1.759842     1.754023     1.748205     1.742386     1.736568
      1.730749     1.724931     1.719113     1.713294     1.707476     1.701657     1.695839     1.690020     1.684202     1.678383
      1.672565     1.666746     1.660928     1.655109     1.649291     1.643472     1.637654     1.631835     1.626017     1.620198
      1.614380     1.608561     1.602743     1.596924     1.591106     1.585287     1.579469     1.573650     1.567832     1.562013
      1.556195     1.550376     1.544558     1.538739     1.532921     1.527102     1.521284     1.515465     1.509647     1.503829
      1.498010     1.492192     1.486373     1.480555     1.474736     1.468918     1.463099     1.457281     1.451462     1.445644
      1.439825     1.434007     1.428188     1.422370     1.416551     1.410733     1.404914     1.399096     1.393277     1.387459
      1.381640     1.375822     1.370003     1.364185     1.358366     1.352548     1.346729     1.340911     1.335092     1.329274
      1.323455     1.317637     1.311818     1.306000     1.300182     1.294363     1.288545     1.282726     1.276908     1.271089
      1.265271     1.259452     1.253634     1.247815     1.241997     1.236178     1.230360     1.224541     1.218723     1.212904
      1.207086     1.201267     1.195449     1.189630     1.183812     1.177993     1.172175     1.166356     1.160538     1.154719
      1.148901     1.143082     1.137264     1.131445     1.125627     1.119808     1.113990     1.108171     1.102353     1.096534
      1.090716     1.084898     1.079079     1.073261     1.067442     1.061624     1.055805     1.049987     1.044168     1.038350
      1.032531     1.026713     1.020894     1.015076     1.009257     1.003439     0.997620     0.991802     0.985983     0.980165
      0.974346     0.968528     0.962709     0.956891     0.951072     0.945254     0.939435     0.933617     0.927798     0.921980
      0.916161     0.910343     0.904524     0.898706     0.892887     0.887069     0.881251     0.875432     0.869614     0.863795
      0.857977     0.852158     0.846340     0.840521     0.834703     0.828884     0.823066     0.817247     0.811429     0.805610
      0.799792     0.793973     0.788155     0.782336     0.776518     0.770699     0.764881     0.759062     0.753244     0.747425
      0.741607     0.735788     0.729970     0.724151     0.718333     0.712514     0.706696     0.700877     0.695059     0.689240
      0.683422     0.677603     0.671785     0.665967     0.660148     0.654330     0.648511     0.642693     0.636874     0.631056
      0.625237     0.619419     0.613600     0.607782     0.601963     0.596145     0.590326     0.584508     0.578689     0.572871
      0.567052     0.561234     0.555415     0.549597     0.543778     0.537960     0.532141     0.526323     0.520504     0.514686
      0.508867     0.503049     0.497230     0.491412     0.485593     0.479775     0.473956     0.468138     0.462319     0.456501
      0.450682     0.444864     0.439045     0.433227     0.427408     0.421590     0.415771     0.409953     0.404134     0.398316
      0.392497     0.386679     0.380860     0.375042     0.369223     0.363405     0.357586     0.351767     0.345949     0.340130
      0.334312     0.328493     0.322675     0.316856     0.311038     0.305219     0.299401     0.293582     0.287764     0.281945
      0.276127     0.270308     0.264490     0.258671     0.252853     0.247034     0.241216     0.235397     0.229579     0.223760
      0.217942     0.212123     0.206305     0.200486
 NY phased data points follow
  -5.49623E-02 -3.69950E-01 -3.66039E-01 -8.45881E-02 -4.21370E-01 -5.59450E-01 -2.08257E-01 -2.15066E-01 -1.93438E-01 -6.69040E-02
   6.90969E-02  6.51073E-01  3.76863E-01 -1.32753E-01  3.37874E-01  3.29187E-01  9.91541E-02  2.34043E-01  2.40691E-01  1.19707E-01
   2.57038E-02  5.93229E-02 -2.11469E-01 -1.97600E-01  1.54475E-01  1.95772E-01 -8.40027E-02 -2.25263E-01  1.51765E-01 -6.46296E-02
   6.43827E-02  1.73893E-01 -3.39050E-01  1.02575E-01  3.15701E-02 -2.36409E-01 -1.68461E-01 -1.97566E-01 -2.14987E-01 -2.14977E-01
   1.62029E-01  2.89431E-01  1.36028E-01  3.92028E-02  2.13274E-01  5.27549E-02  2.81394E-01  4.00786E-01  4.44379E-01  2.62136E-01
   2.63586E-01  7.67524E-01 -9.60702E-02  3.88150E-03 -2.87416E-01 -4.70129E-01 -5.86044E-02 -3.89150E-01  1.21407E-02 -2.56080E-01
  -4.27103E-01 -3.54901E-01 -4.25684E-01 -2.70616E-01 -4.14367E-01 -5.90971E-01  2.58459E-01  1.71019E-01 -2.63887E-01  5.87160E-01
   2.68134E-01  1.04730E-01 -9.60114E-02 -3.51948E-01 -1.08038E-02 -1.83943E-01 -2.04798E-01 -2.78187E-01 -2.06915E-01 -4.26063E-01
  -2.10920E-01  5.50098E-01  1.41863E-01  2.99930E-02  4.84633E-01  7.25817E-01  5.15105E-01  2.28976E-01  1.64571E-01  9.11329E-03
   2.61847E-01  1.43646E-01 -2.40481E-02 -1.61721E-02  2.78151E-01  2.77911E-01  1.60293E-02 -1.09954E-01 -4.68405E-01 -1.71822E-01
  -2.53727E-01 -1.59531E-01  5.62257E-02 -9.48284E-03  2.26934E-01  4.89899E-01  4.79595E-01  3.29670E-01  6.31258E-01  4.43082E-01
   3.36620E-01  4.66816E-01  4.65105E-01  2.67880E-01  3.67689E-01  5.53946E-01  2.91627E-01  2.44218E-01  3.76945E-01  4.57631E-01
   8.19853E-04  6.15357E-02 -1.31311E-02  3.04312E-02 -6.87782E-02 -3.74964E-01  1.46679E-01 -4.35417E-01 -5.66545E-01 -6.37969E-01
  -9.76766E-01 -6.26611E-01 -6.34103E-01 -2.86158E-01 -3.34588E-01 -8.15901E-01 -7.51806E-01 -7.76354E-01 -4.51196E-01 -1.15054E-01
  -1.67837E-01 -1.08469E-01 -2.84391E-01 -1.25136E-02 -2.97501E-01 -8.48185E-02  4.22956E-01  7.58561E-02  2.20539E-01  8.92715E-02
   2.12300E-01  1.21426E-01  2.57212E-01  3.41499E-01  7.80141E-02  1.82021E-01  2.32497E-01  2.11328E-01  3.69705E-01  7.52760E-01
   5.31079E-01  3.67304E-01  3.22776E-01  6.71295E-01  5.84453E-01  9.68317E-01  1.37668E+00 -1.14385E-01 -1.20228E+00 -1.23751E+00
  -5.65911E-01 -3.12318E-01 -5.42811E-01 -2.28569E-01 -2.32740E-01 -6.18171E-01 -3.03049E-01 -1.96447E-01 -2.11445E-01 -4.19471E-01
  -5.04037E-01 -5.94774E-02 -3.06876E-01 -1.41829E-01 -1.42833E-01 -3.85798E-01 -2.82167E-01 -1.24287E-01 -1.25147E-01 -3.17613E-01
  -3.58258E-01 -1.53641E-01  1.34557E-01 -1.07208E-02 -1.04568E-01 -1.51939E-01 -7.06012E-02  1.58236E-01  1.05668E-01  1.95954E-01
   3.54563E-01 -7.69269E-02  1.63982E-03  8.26100E-02 -2.24942E-01 -2.66865E-01 -3.04385E-01  1.16494E-02  1.17287E-01  1.34133E-01
  -3.90425E-02 -2.76267E-01 -1.52674E-01  1.57993E-01  1.75969E-01 -1.44328E-01  8.61077E-02  1.81492E-01 -5.30923E-02  3.02378E-01
   8.62410E-02  7.61789E-03  5.70261E-02 -3.30597E-01  4.73400E-01  4.18614E-01  1.20290E-01  5.13410E-02 -1.98989E-02  4.95130E-01
   6.13604E-01  6.33027E-01  1.49976E-01  7.96975E-02  1.28957E-01 -5.10114E-02 -2.13630E-01 -3.06190E-01  6.07477E-02 -4.99163E-02
  -1.56025E-01 -1.34256E-01 -3.33345E-01  3.94572E-02 -1.37483E-01 -2.48215E-01  3.82923E-02 -2.93061E-01 -1.70772E-01 -1.05390E-01
  -8.11492E-02 -9.54053E-02  8.95161E-02  7.71774E-03 -3.18456E-02  2.67833E-02  4.08877E-02  3.87858E-01 -7.86854E-02  2.31782E-02
  -1.12949E-01  9.44641E-02  4.20930E-01 -1.01148E-01  4.38240E-02  3.47480E-02  5.96234E-02 -1.04581E-01 -1.03442E-01  2.24575E-01
   1.54876E-01  6.51202E-02  2.63394E-02  8.71326E-02  7.98429E-03 -5.22131E-02  3.60823E-03 -7.28548E-03  1.01313E-02 -1.94805E-01
  -1.40151E-01 -2.94412E-01 -3.53113E-01 -1.42373E-01 -6.23094E-02  6.22159E-01  5.35358E-01  4.39564E-01  5.89580E-01  2.77346E-01
   3.88309E-01  2.01372E-01  1.74796E-01  2.59486E-01  6.90876E-02  3.38585E-01  1.96886E-01 -6.08518E-02  9.51529E-02  1.87373E-01
   2.75666E-01  4.50860E-02 -2.22280E-02  1.53116E-01  5.02852E-01  3.61775E-01  2.74245E-01  6.78280E-01  2.82335E-01  2.23520E-01
   6.06111E-01  5.53014E-01  2.44412E-01  1.07874E-01  1.19875E-01  4.91169E-03 -9.43784E-02 -2.86260E-01 -4.15978E-01 -3.15528E-01
  -3.80428E-01 -5.32933E-01 -1.91147E-01 -3.22556E-01 -3.30557E-01  1.90660E-02 -3.68580E-01 -5.44597E-02  9.75082E-02  2.33082E-01
   2.20080E-01 -2.44249E-01 -6.30662E-02 -3.12855E-01  4.77881E-02 -5.87557E-02 -3.96920E-01 -6.28551E-01 -5.29112E-01 -2.80461E-01
  -5.55864E-01 -3.69026E-01 -2.27929E+00 -2.36508E+00 -2.21084E-01 -6.99026E-02 -1.03081E-01 -3.24006E-02 -2.98341E-01  2.05219E-01
   3.36766E-01 -5.11286E-02  2.00201E-01  2.74505E-01  9.82112E-02 -3.28494E-01  1.41834E-02 -5.84343E-02  3.50650E-02  6.31922E-02
  -1.26692E-01  1.60994E-01 -2.39471E-01  1.65382E-01  1.61083E-01 -6.97030E-02 -9.47844E-03 -1.38806E-01 -2.26442E-01  1.26761E-01
  -5.45673E-02 -1.34582E-02  3.03667E-01  7.69776E-03  1.04446E-01 -1.33975E-01  3.92450E-01  1.45859E-01  9.45139E-02  5.38485E-01
   1.85070E-01  3.00735E-01  3.77936E-01  2.59009E-01  1.09238E-01  1.54900E-01  1.92493E-02  6.06004E-02  1.42991E-01  1.93113E-01
   1.02193E-02  2.54761E-01  4.38623E-01  1.41891E-01  1.93621E-01  8.08537E-02  2.48520E-01  3.73283E-01  4.50996E-01  4.53072E-01
  -2.46257E-02 -1.38447E-01  1.96391E-01  1.03490E-02  1.48749E-02  9.46765E-02 -1.90962E-02  2.76990E-01 -4.48506E-02 -2.93923E-01
   1.15637E-01  3.55395E-02  2.25757E-02 -4.58168E-02 -2.12198E-01 -1.72837E-01 -4.97345E-01 -2.75577E-01 -9.23857E-03 -1.10752E-01
  -2.99535E-01 -2.32381E-01 -1.47762E-01 -2.14893E-01 -2.43127E-01 -3.45504E-01  1.48590E-01  1.46507E-01 -1.74200E-01 -5.26105E-02
   1.90205E-01  1.05834E-01 -1.46015E-01 -8.26747E-02  7.43444E-02  1.55265E-01  1.40483E-01  4.85918E-02 -1.60964E-01  5.66401E-03
   2.71904E-01 -3.10140E-02 -5.58740E-02  2.35206E-01  2.34493E-02  3.19933E-01  3.85731E-01  2.29904E-02  3.36370E-01  3.53396E-01
   2.51459E-01  4.93598E-01 -3.61123E-02 -5.86387E-04  2.17361E-01 -1.56990E-01  2.12483E-01 -2.88033E-01 -2.75019E-01 -5.77366E-02
  -1.24155E-02  2.86693E-01  1.03166E-01 -1.67342E-02 -2.84699E-01 -1.79352E-01 -5.00950E-01 -5.41564E-01 -4.92633E-01 -3.51633E-01
  -1.11719E-01 -1.85531E-01 -2.32830E-01 -3.13754E-01 -3.53417E-01 -2.06369E-01  1.32496E-02 -1.20758E-01  2.31997E-01 -9.52040E-03
  -2.90399E-01 -1.80482E-01  9.37443E-02  1.15123E-01 -3.38234E-02  7.08517E-02 -2.36602E-01 -9.02213E-02 -3.13722E-04  2.26606E-01
   2.80329E-01  1.62529E-03  1.46089E-01  6.61045E-02  3.52154E-02  3.34754E-01 -3.26252E-01 -1.49719E-01  2.89070E-01 -1.15456E-01
   1.81220E-01  1.69773E-01  4.32263E-01  1.78208E-01  1.24674E-01  3.04157E-01  5.59698E-02  1.78781E-01  4.34339E-01  2.38013E-01
  -1.41260E-01  4.39398E-01  3.53412E-01  2.29250E-01  1.77496E-01 -5.44214E-02 -1.97054E-01 -2.74787E-01  7.10985E-02  1.38763E-01
  -1.84180E-01 -3.81763E-01  3.44669E-02 -2.22815E-01 -4.71414E-01 -2.46144E-01 -2.60348E-01 -3.50368E-01 -4.30795E-01 -2.80918E-01
  -1.37536E-01 -1.01771E-01 -1.30997E-01 -1.03026E-01 -1.61931E-01 -2.20861E-01 -2.50440E-01 -3.53675E-01 -3.61379E-01 -1.94563E-01
  -5.19136E-02 -2.85174E-02 -1.13942E-01  2.32517E-01  1.70237E-01 -2.44785E-01  2.13770E-01  2.54212E-01  9.46946E-02  2.50609E-01
   2.54917E-01 -2.82832E-02  6.86057E-02  3.56677E-01  2.75373E-01  3.77980E-01  3.34069E-02 -5.64320E-02  2.66889E-01  2.76109E-01
   1.10657E-01 -2.74663E-01 -3.36543E-01 -2.26349E-01 -1.18585E-01  1.54598E-01 -5.65536E-03  2.05830E-01  3.50904E-01 -1.30207E-01
  -7.45708E-02 -1.91087E-01 -9.38756E-02 -1.40349E-01 -2.73824E-01 -1.13547E-01  3.21290E-02  3.29700E-01  1.26906E-01  2.86968E-01
   2.27900E-02 -1.93428E-01  5.77063E-02 -1.13020E-01  2.13987E-02  1.13793E-01  1.39155E-01  4.09191E-02  8.11770E-02  8.50851E-02
  -2.03549E-01 -3.56469E-01 -3.48705E-01  1.84843E-01  2.96159E-01  2.90733E-02  1.78927E-01  1.99186E-01  1.36790E-01 -2.78239E-01
  -1.69561E-01  5.42113E-02  7.35857E-02  5.56383E-02 -2.08174E-01 -9.56302E-02 -4.97391E-01 -2.78888E-01 -4.19476E-02 -1.07777E-01
  -4.05875E-02 -1.71364E-01 -8.78666E-02  7.67202E-03  1.13672E-02 -1.06964E-01  6.80474E-02  2.33858E-02  2.80503E-01 -6.98626E-02
  -2.21170E-01 -1.58225E-01 -1.91656E-01  1.20637E-01 -1.48595E-01 -1.10943E-01 -8.02092E-02  1.77719E-01 -1.05224E-01 -1.68718E-02
   7.68650E-02 -1.34599E-01 -8.98163E-02 -2.80430E-01 -1.90248E-02 -7.09447E-02 -2.97595E-01  8.27011E-02  1.48039E-01 -4.02813E-01
   1.21131E-01 -1.83395E-01 -1.02841E-01  8.55627E-02 -6.25623E-02  4.93985E-01 -4.23156E-02  2.08107E-02 -5.55016E-02  1.28739E-01
  -1.63650E-02 -1.96157E-01  8.93656E-02 -1.88186E-01
 NY points of the fit to the data follow
   8.34253E-02  5.00265E-02  3.09651E-02 -4.47698E-03 -1.06659E-02  1.21253E-02  6.25639E-02  9.62900E-02  1.48980E-02  7.18291E-02
   1.87353E-01  4.64256E-01  5.20537E-01  1.38970E-01  1.75687E-01  6.74669E-01  5.68025E-01  2.03743E-01  9.68403E-02  7.53392E-02
   7.63862E-02  6.81883E-02  5.32907E-03 -3.38198E-02 -6.18015E-02 -7.08781E-02 -9.57524E-02 -1.08126E-01 -1.10917E-01 -1.39812E-01
  -1.48220E-01 -1.52560E-01 -1.81976E-01 -2.10880E-01 -2.37251E-01 -2.25586E-01 -2.45648E-01 -2.43651E-01 -2.67737E-01 -1.12090E-01
   5.34866E-02  2.05389E-01  2.10836E-01  1.85906E-01  3.24756E-01  3.13675E-01  3.40722E-01  3.22281E-01  1.72225E-01  1.68778E-01
   1.39435E-01  4.43828E-02  4.24401E-02  9.09633E-03 -4.08123E-02 -1.09652E-01 -1.76413E-01 -2.40729E-01 -1.50284E-01 -2.67599E-01
  -3.31038E-01 -2.69283E-01 -4.70223E-01  8.49039E-03 -3.21147E-01 -3.83865E-01  6.29775E-01  2.24054E-01  8.01930E-02  6.15517E-01
   4.09259E-01  2.59130E-01  1.95995E-01  6.91182E-02 -1.08593E-02 -9.13846E-02 -5.28245E-02 -2.30666E-01 -3.24124E-01 -6.42464E-01
  -4.89023E-01  2.03957E-01  5.20219E-02  8.19944E-02  5.47363E-01  5.20678E-01  4.10952E-01  3.41594E-01  2.97936E-01  2.80838E-01
   2.46685E-01  2.29851E-01  1.54198E-01  9.34671E-02  3.12064E-02 -1.88996E-02 -9.06972E-02 -2.48735E-01 -3.53478E-01 -4.40089E-01
  -2.95966E-01 -2.60340E-02  1.96769E-01  3.37704E-01  3.18457E-01  2.72106E-01  2.96420E-01  2.96717E-01  3.03754E-01  3.10247E-01
   3.09059E-01  3.08001E-01  3.05240E-01  3.01580E-01  3.01738E-01  3.01826E-01  2.99410E-01  2.60247E-01  2.82217E-01  2.61142E-01
   1.72103E-01  2.21129E-01 -5.47783E-02 -1.51796E-02  1.07597E-02 -6.36515E-01  9.29437E-02 -3.80123E-01 -5.39988E-01 -5.85737E-01
  -9.51336E-01 -5.13868E-01 -5.56788E-01 -1.47777E-01 -2.45087E-01 -7.46761E-01 -8.03735E-01 -7.80797E-01 -3.20856E-01 -7.30110E-02
  -1.16949E-01 -5.15884E-02 -5.12773E-02  4.18246E-03  3.46515E-02  6.27484E-02  8.44607E-02  1.02091E-01  1.21757E-01  1.34526E-01
   1.50719E-01  1.68101E-01  1.83801E-01  2.00529E-01  2.18805E-01  2.41599E-01  2.67555E-01  2.99630E-01  3.37943E-01  3.85048E-01
   4.66255E-01  5.90926E-01  4.54906E-01  3.72189E-01  5.16124E-01  7.53259E-01  9.82523E-01 -3.07629E-01 -1.38820E+00 -9.50923E-01
  -4.40389E-01 -3.42690E-01 -3.19274E-01 -3.74137E-01 -3.67942E-01 -3.37397E-01 -2.56415E-01 -2.21333E-01 -2.46077E-01 -2.43324E-01
  -2.46019E-01 -1.79818E-01 -1.75089E-01 -1.80615E-01 -1.76668E-01 -1.86048E-01 -1.81301E-01 -1.59124E-01 -1.51699E-01 -1.53681E-01
  -1.50870E-01 -1.33893E-01 -1.26208E-01 -1.16074E-01 -1.07634E-01 -1.00406E-01 -9.21223E-02 -7.56145E-02 -7.34007E-02 -6.83686E-02
  -6.22037E-02 -3.93337E-02  2.98827E-03 -2.83714E-02 -6.70886E-02 -6.63708E-02 -3.50107E-02  1.64741E-02 -1.85727E-02 -8.28199E-02
  -8.58342E-02 -7.39476E-02 -6.16031E-02 -5.97243E-02 -6.26074E-02 -5.74625E-02 -5.13658E-02 -4.34802E-02 -4.46922E-02 -5.26832E-02
   1.27015E-02  7.72337E-04  2.63570E-02 -1.46229E-02  1.05368E-01  4.01108E-01  3.26123E-01  1.28274E-01  5.81227E-02  1.45450E-01
   4.93181E-01  3.98383E-01  6.39185E-02 -8.34539E-03 -2.68515E-02 -3.38752E-02 -2.74947E-02 -5.82359E-02 -6.68318E-02 -8.16638E-02
  -8.99965E-02 -1.04430E-01 -1.03613E-01 -1.07392E-01 -1.14134E-01 -1.06744E-01 -1.31435E-01 -1.20624E-01 -1.35208E-01 -1.41199E-01
  -1.25552E-01 -1.62136E-01 -8.57143E-02 -2.03312E-01 -1.54364E-01 -1.87501E-01 -1.31866E-01  1.93004E-01 -1.08653E-01 -7.10846E-02
   1.70598E-01  9.99831E-02  1.19064E-01 -4.60888E-02  1.50922E-01  1.17384E-01  9.19269E-02  1.50135E-01  1.22425E-01  2.01172E-01
   1.74805E-01  1.22328E-01  9.12110E-02  2.52654E-02  5.24117E-03 -3.64265E-02 -8.12292E-02 -1.49862E-01 -1.64356E-01 -2.48564E-01
  -2.20992E-01 -3.06915E-01 -3.92760E-01 -2.40745E-01 -2.46749E-01  7.57930E-02  3.02831E-01  2.98262E-01  4.64306E-01  3.56125E-01
   2.73436E-01  2.34377E-01  2.13062E-01  2.15284E-01  2.02664E-01  2.32003E-01  2.31315E-01  2.24984E-01  2.33399E-01  2.08847E-01
   2.07725E-01  2.00272E-01  1.91827E-01  1.85452E-01  1.78999E-01  1.71903E-01  1.56520E-01  1.48865E-01  1.35306E-01  1.01217E-01
   1.04120E-01  6.01430E-02  3.89600E-02  2.65458E-02 -3.14683E-02 -4.61817E-02 -1.09632E-01 -1.80863E-01 -2.51281E-01 -3.02748E-01
  -3.01420E-01 -3.57716E-01 -2.90349E-01 -2.78091E-01 -2.05166E-01 -1.46400E-01 -1.00383E-01  6.76539E-03  2.12077E-02  9.67994E-02
   4.35151E-02 -1.25896E-02 -1.96873E-02 -1.21571E-01 -5.98713E-02 -1.23906E-01 -1.94825E-01 -5.22322E-01 -4.40042E-01 -2.23237E-01
  -2.26876E-01 -4.63750E-01 -2.25123E+00 -2.31502E+00 -5.76962E-01 -1.18015E-01 -1.81794E-01 -1.82157E-01 -2.42286E-01 -1.17777E-01
  -7.55116E-02 -4.95467E-02 -2.95400E-02 -1.90982E-02 -6.45365E-03 -4.64953E-03  1.05176E-02  5.45002E-03  3.45798E-03  6.12226E-03
  -1.93808E-02 -1.16832E-02 -3.11515E-02 -3.97159E-02 -3.27538E-02 -3.61904E-02 -2.20635E-02 -1.19179E-02 -5.53265E-03  4.67537E-03
   9.35492E-03  1.60260E-02  2.40952E-02  3.21048E-02  3.15150E-02  3.58922E-02  3.93658E-02  4.43311E-02  4.90873E-02  5.23845E-02
   5.25761E-02  5.51722E-02  5.88473E-02  6.21952E-02  6.62892E-02  6.72757E-02  6.91033E-02  6.78460E-02  7.25706E-02  7.60702E-02
   7.81442E-02  8.20226E-02  8.34006E-02  8.19259E-02  8.04447E-02  7.73106E-02  7.64103E-02  7.49832E-02  7.33542E-02  6.86683E-02
   6.41786E-02  5.91542E-02  5.61927E-02  4.90673E-02  4.18848E-02  3.85170E-02  3.51967E-02  3.15274E-02  2.42849E-02  2.13852E-02
   1.75048E-02  1.30589E-02  1.24266E-02  9.06252E-03  4.82132E-03  4.27784E-03  6.65075E-05 -2.66860E-03 -3.38279E-03 -5.22139E-03
  -5.37108E-03 -7.17045E-03 -9.36037E-03 -5.62501E-03 -4.18730E-03 -3.57473E-03 -1.35988E-04  2.11355E-03  6.95780E-03  1.95994E-02
   2.15060E-02  2.82734E-02  2.45265E-02  3.98290E-02  7.05302E-02  6.77253E-02  7.37201E-02  6.93011E-02  4.81745E-02  5.17385E-02
   6.34729E-02  7.36290E-02  8.20471E-02  8.91884E-02  9.82006E-02  1.04388E-01  1.15750E-01  1.23068E-01  1.28335E-01  1.31902E-01
   1.33095E-01  1.33509E-01  1.34489E-01  1.32171E-01  1.32051E-01  1.28595E-01  1.24806E-01  1.16204E-01  1.06420E-01  9.78257E-02
   9.30221E-02  8.65550E-02  7.85967E-02  7.16211E-02  6.18286E-02  5.65496E-02  5.32874E-02  4.68211E-02  4.04824E-02  3.64828E-02
   3.39761E-02  3.08949E-02  2.73826E-02  2.47400E-02  2.31555E-02  2.70806E-02  2.95909E-02  2.85042E-02  3.28525E-02  3.58878E-02
   3.82587E-02  4.32598E-02  4.78546E-02  5.15490E-02  5.36578E-02  5.66412E-02  5.77441E-02  5.80481E-02  5.94978E-02  6.31341E-02
   6.74837E-02  6.42203E-02  6.43469E-02  6.21833E-02  6.11843E-02  6.13742E-02  5.58290E-02  5.33622E-02  5.21917E-02  5.05889E-02
   4.82776E-02  4.42861E-02  4.22061E-02  3.98474E-02  3.71199E-02  3.49938E-02  3.00379E-02  2.70022E-02  2.75740E-02  2.55907E-02
   2.15713E-02  1.82115E-02  1.58261E-02  1.26144E-02  4.78191E-03 -2.48807E-03 -8.15789E-03 -1.55617E-02 -2.06930E-02 -3.28967E-02
  -4.58573E-02 -6.09520E-02 -7.43543E-02 -8.53508E-02 -9.86482E-02 -1.13329E-01 -1.23822E-01 -1.32135E-01 -1.41450E-01 -1.51815E-01
  -1.58459E-01 -1.58071E-01 -1.56400E-01 -1.58983E-01 -1.60179E-01 -1.54089E-01 -1.49091E-01 -1.44250E-01 -1.40139E-01 -1.36505E-01
  -1.33240E-01 -1.28271E-01 -1.19670E-01 -1.13825E-01 -1.08006E-01 -9.88158E-02 -9.09884E-02 -8.29850E-02 -7.63935E-02 -6.78842E-02
  -6.25098E-02 -5.74683E-02 -4.59453E-02 -3.97886E-02 -3.85454E-02 -3.33609E-02 -2.76706E-02 -1.95236E-02 -1.48948E-02 -1.85764E-02
  -1.27048E-02 -6.34031E-03 -7.00492E-03 -3.13412E-03 -3.24012E-03 -2.84049E-03  1.34729E-03  2.24228E-03  1.95458E-03  3.44945E-04
   3.90005E-03  6.70175E-03  6.25513E-03  9.15433E-03  1.12231E-02  1.12800E-02  9.82096E-03  1.03501E-02  1.16989E-02  9.22784E-03
   1.03523E-02  1.15279E-02  8.58952E-03  9.48893E-03  1.07229E-02  8.66169E-03  8.43766E-03  9.52156E-03  1.16132E-02  1.26000E-02
   5.12350E-03  5.10955E-04  6.55123E-03  7.03119E-03  5.03513E-03  2.31310E-03  4.34161E-03  5.85427E-03  1.23612E-03 -1.24829E-03
   5.09309E-04  3.86979E-03  3.74925E-03  1.79562E-03  2.13482E-03  3.07462E-03  3.85054E-03  5.11958E-03  2.22689E-03  3.68334E-03
   4.61032E-03  4.64349E-03  1.12541E-03 -1.36562E-03  7.47101E-04  2.52029E-04  4.62877E-04  2.27732E-03  2.19777E-03  2.35024E-03
   2.05975E-04 -3.80804E-04  3.45733E-03  4.36544E-03  5.32171E-03  3.75573E-03 -1.26894E-03 -2.29602E-03 -1.50000E-03 -3.20820E-04
   1.28849E-03 -2.71137E-03 -5.88295E-03 -5.53196E-03 -6.07346E-03 -5.05176E-03 -5.92772E-03 -1.05041E-02 -1.16298E-02 -7.46726E-03
  -7.77543E-03 -1.30214E-02 -1.20447E-02 -1.27749E-02 -1.26554E-02 -1.32254E-02 -1.64687E-02 -1.46652E-02 -1.14201E-02 -1.19033E-02
  -1.18822E-02 -1.48171E-02 -1.38421E-02 -1.64389E-02
 NY background values follow
     5.379E-02    5.366E-02    5.353E-02    5.339E-02    5.326E-02    5.313E-02    5.300E-02    5.287E-02    5.274E-02    5.261E-02
     5.247E-02    5.234E-02    5.221E-02    5.208E-02    5.195E-02    5.182E-02    5.169E-02    5.155E-02    5.142E-02    5.129E-02
     5.116E-02    5.103E-02    5.090E-02    5.076E-02    5.063E-02    5.050E-02    5.037E-02    5.024E-02    5.011E-02    4.997E-02
     4.984E-02    4.971E-02    4.958E-02    4.945E-02    4.932E-02    4.918E-02    4.905E-02    4.892E-02    4.879E-02    4.866E-02
     4.852E-02    4.839E-02    4.826E-02    4.813E-02    4.800E-02    4.787E-02    4.773E-02    4.760E-02    4.747E-02    4.734E-02
     4.721E-02    4.707E-02    4.694E-02    4.681E-02    4.668E-02    4.655E-02    4.641E-02    4.628E-02    4.615E-02    4.602E-02
     4.589E-02    4.575E-02    4.562E-02    4.549E-02    4.536E-02    4.522E-02    4.509E-02    4.496E-02    4.483E-02    4.470E-02
