 
 $NMID
 ID=''
 FMTDAT='(2E13.5)'
 TRAMP=   1.00000E+0
 VOLUME=   1.00000E+0
 $END
  -8.83592E+3   1.71877E+4
  -3.40340E+4   3.63946E+4
  -2.65696E+4   4.20890E+4
  -2.35927E+4   3.91938E+4
  -2.51019E+4   4.02175E+4
  -2.26844E+4   4.18249E+4
  -2.14299E+4   4.02092E+4
  -2.19344E+4   4.04013E+4
  -2.01361E+4   4.12392E+4
  -1.90480E+4   4.02629E+4
  -1.91596E+4   4.03539E+4
  -1.77273E+4   4.08344E+4
  -1.66372E+4   4.01828E+4
  -1.67922E+4   4.02149E+4
  -1.57140E+4   4.04801E+4
  -1.47869E+4   3.99817E+4
  -1.45654E+4   4.00090E+4
  -1.37631E+4   4.03018E+4
  -1.29058E+4   3.98206E+4
  -1.26788E+4   3.98069E+4
  -1.17933E+4   3.98879E+4
  -1.09022E+4   3.96065E+4
  -1.05182E+4   3.96335E+4
  -9.80869E+3   3.96604E+4
  -8.82476E+3   3.92973E+4
  -8.29940E+3   3.92777E+4
  -7.66159E+3   3.93503E+4
  -6.94307E+3   3.90533E+4
  -6.49388E+3   3.88782E+4
  -5.61926E+3   3.89200E+4
  -4.85440E+3   3.86789E+4
  -4.26822E+3   3.86771E+4
  -3.67736E+3   3.86672E+4
  -3.05572E+3   3.83502E+4
  -2.48987E+3   3.81743E+4
  -1.80199E+3   3.80798E+4
  -1.09694E+3   3.77177E+4
  -4.29323E+2   3.74480E+4
   1.61058E+2   3.72936E+4
   8.27995E+2   3.69262E+4
   1.41519E+3   3.66564E+4
   1.98887E+3   3.65329E+4
   2.47344E+3   3.60523E+4
   3.07482E+3   3.56436E+4
   3.71918E+3   3.53140E+4
   4.27842E+3   3.50663E+4
   4.82056E+3   3.47442E+4
   5.40757E+3   3.44716E+4
   5.99065E+3   3.41728E+4
   6.46266E+3   3.38941E+4
   7.00594E+3   3.35780E+4
   7.46352E+3   3.31780E+4
   7.99553E+3   3.28180E+4
   8.56795E+3   3.24683E+4
   9.01705E+3   3.22135E+4
   9.43830E+3   3.18163E+4
   9.90116E+3   3.14797E+4
   1.02667E+4   3.11251E+4
   1.06409E+4   3.08333E+4
   1.10105E+4   3.02238E+4
   1.14514E+4   2.98866E+4
   1.18424E+4   2.95154E+4
   1.22791E+4   2.91811E+4
   1.26816E+4   2.87826E+4
   1.30240E+4   2.84248E+4
   1.34450E+4   2.80352E+4
   1.38803E+4   2.76307E+4
   1.42695E+4   2.72269E+4
   1.45542E+4   2.67716E+4
   1.49177E+4   2.63871E+4
   1.52727E+4   2.59890E+4
   1.56097E+4   2.56071E+4
   1.59591E+4   2.52547E+4
   1.63001E+4   2.48388E+4
   1.66301E+4   2.44251E+4
   1.69665E+4   2.40576E+4
   1.72739E+4   2.36745E+4
   1.74745E+4   2.32660E+4
   1.78532E+4   2.28802E+4
   1.81511E+4   2.25677E+4
   1.83927E+4   2.21017E+4
   1.86469E+4   2.17812E+4
   1.89576E+4   2.13559E+4
   1.92391E+4   2.10562E+4
   1.94507E+4   2.06831E+4
   1.95669E+4   2.03759E+4
   1.98245E+4   1.99990E+4
   1.99804E+4   1.95722E+4
   2.02939E+4   1.92593E+4
   2.05077E+4   1.89354E+4
   2.06561E+4   1.85968E+4
   2.08704E+4   1.82141E+4
   2.10488E+4   1.78805E+4
   2.12246E+4   1.76356E+4
   2.13458E+4   1.73086E+4
   2.13970E+4   1.69173E+4
   2.15644E+4   1.64663E+4
   2.18604E+4   1.61778E+4
   2.18877E+4   1.59214E+4
   2.18949E+4   1.56242E+4
   2.20365E+4   1.52335E+4
   2.20553E+4   1.48083E+4
   2.22095E+4   1.44916E+4
   2.22781E+4   1.42383E+4
   2.23311E+4   1.38909E+4
   2.24148E+4   1.35548E+4
   2.24528E+4   1.32209E+4
   2.25136E+4   1.29333E+4
   2.25247E+4   1.25509E+4
   2.24519E+4   1.22015E+4
   2.24623E+4   1.18718E+4
   2.25238E+4   1.15220E+4
   2.25200E+4   1.11838E+4
   2.25570E+4   1.08682E+4
   2.24644E+4   1.05620E+4
   2.24366E+4   1.02107E+4
   2.24092E+4   9.86457E+3
   2.22843E+4   9.54736E+3
   2.22214E+4   9.19480E+3
   2.22465E+4   8.83073E+3
   2.21456E+4   8.49461E+3
   2.20848E+4   8.19767E+3
   2.20346E+4   7.87507E+3
   2.19455E+4   7.44706E+3
   2.18240E+4   7.17599E+3
   2.18411E+4   6.89823E+3
   2.17289E+4   6.51034E+3
   2.16686E+4   6.20662E+3
   2.15595E+4   5.85967E+3
   2.14998E+4   5.53441E+3
   2.14120E+4   5.18921E+3
   2.12869E+4   4.91840E+3
   2.12053E+4   4.58592E+3
   2.11430E+4   4.20810E+3
   2.10610E+4   3.98732E+3
   2.09881E+4   3.64508E+3
   2.07678E+4   3.38731E+3
   2.07451E+4   3.04878E+3
   2.06133E+4   2.80569E+3
   2.05293E+4   2.40986E+3
   2.03453E+4   2.14630E+3
   2.02338E+4   1.82851E+3
   2.02024E+4   1.56091E+3
   2.00782E+4   1.28719E+3
   1.99155E+4   1.02253E+3
   1.97955E+4   7.38409E+2
   1.96439E+4   4.16790E+2
   1.95358E+4   1.90520E+2
   1.93879E+4  -5.80013E+1
   1.91970E+4  -3.50576E+2
   1.91341E+4  -6.11763E+2
   1.89800E+4  -7.89011E+2
   1.88453E+4  -1.09166E+3
   1.86288E+4  -1.28327E+3
   1.84567E+4  -1.65128E+3
   1.83890E+4  -1.80731E+3
   1.81789E+4  -2.14907E+3
   1.79867E+4  -2.32728E+3
   1.78208E+4  -2.58766E+3
   1.77008E+4  -2.80759E+3
   1.74099E+4  -3.15296E+3
   1.73627E+4  -3.25929E+3
   1.71653E+4  -3.48878E+3
   1.69960E+4  -3.72267E+3
   1.66900E+4  -4.00714E+3
   1.66193E+4  -4.22318E+3
   1.64101E+4  -4.39478E+3
   1.61835E+4  -4.72786E+3
   1.59708E+4  -4.97084E+3
   1.57876E+4  -5.11078E+3
   1.56234E+4  -5.27750E+3
   1.53924E+4  -5.52361E+3
   1.52162E+4  -5.69303E+3
   1.49800E+4  -5.89213E+3
   1.48174E+4  -6.14183E+3
   1.46637E+4  -6.32756E+3
   1.44156E+4  -6.53342E+3
   1.42209E+4  -6.70845E+3
   1.40279E+4  -6.88507E+3
   1.38609E+4  -7.03615E+3
   1.35937E+4  -7.24318E+3
   1.33700E+4  -7.32874E+3
   1.31741E+4  -7.42713E+3
   1.29617E+4  -7.69359E+3
   1.27889E+4  -7.81186E+3
   1.25849E+4  -7.93311E+3
   1.24143E+4  -8.15416E+3
   1.22157E+4  -8.19652E+3
   1.19778E+4  -8.36924E+3
   1.17806E+4  -8.48738E+3
   1.15803E+4  -8.64326E+3
   1.12959E+4  -8.73782E+3
   1.11993E+4  -8.87883E+3
   1.09449E+4  -8.91726E+3
   1.07480E+4  -9.10988E+3
   1.05314E+4  -9.10397E+3
   1.03058E+4  -9.25492E+3
   1.01026E+4  -9.36957E+3
   9.87389E+3  -9.45337E+3
   9.73239E+3  -9.52222E+3
   9.53197E+3  -9.69249E+3
   9.25172E+3  -9.68589E+3
   9.06497E+3  -9.76248E+3
   8.87300E+3  -9.81149E+3
   8.57861E+3  -9.84824E+3
   8.38156E+3  -9.89463E+3
   8.23644E+3  -9.99399E+3
   8.00955E+3  -1.00315E+4
   7.83638E+3  -1.00449E+4
   7.56644E+3  -1.01260E+4
   7.40605E+3  -1.01540E+4
   7.15497E+3  -1.01519E+4
   7.01122E+3  -1.02025E+4
   6.76545E+3  -1.02144E+4
   6.50941E+3  -1.02770E+4
   6.32704E+3  -1.02731E+4
   6.24356E+3  -1.02643E+4
   6.00650E+3  -1.02508E+4
   5.76363E+3  -1.03155E+4
   5.55574E+3  -1.03259E+4
   5.36702E+3  -1.03499E+4
   5.11110E+3  -1.03075E+4
   5.01874E+3  -1.03205E+4
   4.84091E+3  -1.02932E+4
   4.66048E+3  -1.02888E+4
   4.40033E+3  -1.02486E+4
   4.26070E+3  -1.02326E+4
   3.98842E+3  -1.02727E+4
   3.87076E+3  -1.02173E+4
   3.74708E+3  -1.02116E+4
   3.48642E+3  -1.00564E+4
   3.29863E+3  -1.00947E+4
   3.12962E+3  -1.00267E+4
   2.96614E+3  -9.98632E+3
   2.75183E+3  -9.91602E+3
   2.54896E+3  -9.95215E+3
   2.35654E+3  -9.93175E+3
   2.25467E+3  -9.85702E+3
   2.14708E+3  -9.80921E+3
   1.92390E+3  -9.72778E+3
   1.69253E+3  -9.61114E+3
   1.56591E+3  -9.62541E+3
   1.44820E+3  -9.55971E+3
   1.27277E+3  -9.45219E+3
   1.04117E+3  -9.43575E+3
   9.15715E+2  -9.35779E+3
   7.66577E+2  -9.26578E+3
   6.57681E+2  -9.15226E+3
   4.64700E+2  -9.05769E+3
   3.74010E+2  -9.02481E+3
   1.56090E+2  -8.97119E+3
   1.63158E+1  -8.95333E+3
  -5.88858E+1  -8.76115E+3
  -2.12511E+2  -8.66144E+3
  -3.34360E+2  -8.59078E+3
  -5.33103E+2  -8.49429E+3
  -6.12692E+2  -8.37308E+3
  -7.68551E+2  -8.37174E+3
  -8.51055E+2  -8.26063E+3
  -9.94954E+2  -8.19598E+3
  -1.09552E+3  -8.10382E+3
  -1.25060E+3  -7.95640E+3
  -1.36098E+3  -7.86584E+3
  -1.43923E+3  -7.79844E+3
  -1.62659E+3  -7.69422E+3
  -1.70483E+3  -7.58069E+3
  -1.77999E+3  -7.47376E+3
  -1.89218E+3  -7.36403E+3
  -2.05712E+3  -7.24475E+3
  -2.00904E+3  -7.18075E+3
  -2.17125E+3  -7.08985E+3
  -2.22905E+3  -6.96940E+3
  -2.36308E+3  -6.86143E+3
  -2.37078E+3  -6.75291E+3
  -2.47823E+3  -6.65431E+3
  -2.61402E+3  -6.60839E+3
  -2.64055E+3  -6.39551E+3
  -2.70267E+3  -6.24824E+3
  -2.77885E+3  -6.23588E+3
  -2.83438E+3  -6.09595E+3
  -2.96415E+3  -5.94997E+3
  -3.05994E+3  -5.82143E+3
  -3.03648E+3  -5.74888E+3
  -3.04999E+3  -5.60322E+3
  -3.14193E+3  -5.54756E+3
  -3.21477E+3  -5.43169E+3
  -3.27777E+3  -5.23997E+3
  -3.31509E+3  -5.16997E+3
  -3.36642E+3  -5.05064E+3
  -3.44165E+3  -4.93484E+3
  -3.39724E+3  -4.85555E+3
  -3.54634E+3  -4.78724E+3
  -3.57278E+3  -4.58953E+3
  -3.57349E+3  -4.55253E+3
  -3.59762E+3  -4.45829E+3
  -3.62735E+3  -4.33751E+3
  -3.67410E+3  -4.20642E+3
  -3.68022E+3  -4.10510E+3
  -3.75112E+3  -4.02901E+3
  -3.76044E+3  -3.92257E+3
  -3.75647E+3  -3.79260E+3
  -3.79422E+3  -3.69817E+3
  -3.79361E+3  -3.58516E+3
  -3.84900E+3  -3.43341E+3
  -3.80230E+3  -3.40643E+3
  -3.83844E+3  -3.30446E+3
  -3.83131E+3  -3.16140E+3
  -3.86201E+3  -3.06388E+3
  -3.86965E+3  -3.07260E+3
  -3.88472E+3  -2.96812E+3
  -3.82903E+3  -2.79748E+3
  -3.83901E+3  -2.72768E+3
  -3.89438E+3  -2.66749E+3
  -3.82975E+3  -2.49355E+3
  -3.93923E+3  -2.41845E+3
  -3.88232E+3  -2.38683E+3
  -3.92695E+3  -2.31426E+3
  -3.91322E+3  -2.19849E+3
  -3.83137E+3  -2.14859E+3
  -3.86339E+3  -2.03973E+3
  -3.83973E+3  -1.97481E+3
  -3.82756E+3  -1.86321E+3
  -3.87148E+3  -1.81087E+3
  -3.75948E+3  -1.68701E+3
  -3.83741E+3  -1.62634E+3
  -3.76564E+3  -1.55267E+3
  -3.76798E+3  -1.43695E+3
  -3.72099E+3  -1.43481E+3
  -3.70101E+3  -1.34729E+3
  -3.73049E+3  -1.24841E+3
  -3.65650E+3  -1.17520E+3
  -3.66580E+3  -1.09503E+3
  -3.61275E+3  -1.03886E+3
  -3.60208E+3  -9.76452E+2
  -3.56358E+3  -8.77253E+2
  -3.57851E+3  -8.77371E+2
  -3.52132E+3  -7.33784E+2
  -3.45139E+3  -6.51273E+2
  -3.52247E+3  -6.53959E+2
  -3.42512E+3  -5.52416E+2
  -3.41161E+3  -4.93980E+2
  -3.39021E+3  -4.33869E+2
  -3.36227E+3  -4.05527E+2
  -3.34629E+3  -3.55282E+2
  -3.31177E+3  -2.48378E+2
  -3.26829E+3  -2.41737E+2
  -3.24045E+3  -1.72259E+2
  -3.20218E+3  -1.57680E+2
  -3.21653E+3  -7.62332E+1
  -3.17887E+3   9.40529E+0
  -3.19218E+3   2.60591E+1
  -3.09903E+3   8.67951E+1
  -3.10561E+3   1.33233E+2
  -2.95051E+3   1.67184E+2
  -3.05360E+3   1.63425E+2
  -3.00689E+3   3.10372E+2
  -2.93509E+3   3.81841E+2
  -2.97070E+3   3.65335E+2
  -2.91573E+3   4.27766E+2
  -2.89563E+3   4.46079E+2
  -2.82805E+3   4.85253E+2
  -2.86729E+3   4.97482E+2
  -2.76665E+3   5.42723E+2
  -2.76953E+3   5.88111E+2
  -2.70395E+3   5.87197E+2
  -2.64238E+3   6.53215E+2
  -2.64980E+3   7.44402E+2
