 
 $NMID
 ID=''
 FMTDAT='(2E13.5)'
 TRAMP=   1.00000E+0
 VOLUME=   1.00000E+0
 $END
   6.18765E+2   1.30602E+0
   1.31653E+2   1.55361E+3
   3.83320E+3  -5.17256E+3
  -2.83485E+3  -3.93132E+3
  -2.45167E+3   1.25106E+3
  -4.33638E+1   4.93437E+1
  -8.40626E+2   8.94861E+1
  -3.82995E+3  -3.90978E+2
  -3.02722E+3  -1.82192E+3
  -2.18247E+3  -6.93067E+2
   1.25964E+3  -4.23255E+2
   2.91312E+3   8.06228E+2
  -1.60290E+3   4.28724E+3
  -4.57948E+3   2.25128E+3
  -2.31450E+3   8.62975E+2
   1.56318E+3  -2.69618E+2
   1.39371E+3  -1.13489E+3
   6.99893E+2   2.26521E+3
   1.17290E+3   3.09973E+3
  -2.40716E+2   5.96945E+2
   4.51804E+3  -3.49563E+2
   4.55649E+3   4.08341E+2
  -6.54146E+2   3.67620E+3
  -1.35352E+3  -3.78300E+3
   1.98148E+3  -3.16982E+3
   2.19557E+3   4.02721E+1
   1.70211E+3   2.19932E+3
  -5.20526E+3  -2.44229E+3
   4.85088E+2  -6.45901E+3
   4.09613E+3  -1.98688E+3
   4.72360E+3   3.88936E+3
  -1.09701E+3   5.85250E+3
  -5.31079E+3  -1.56758E+3
   4.35451E+2  -2.66077E+3
  -1.17918E+3  -3.54922E+2
  -3.42990E+3  -3.78654E+3
   6.34600E+1  -4.51805E+3
   4.96190E+3   1.90836E+3
   8.88242E+2   3.55536E+3
  -1.82747E+3   1.73644E+3
  -8.27197E+2   3.48681E+3
  -5.38571E+3  -1.02494E+3
  -1.74954E+3  -5.38598E+3
   4.49786E+3  -5.91341E+3
   3.50897E+3   2.85957E+3
   2.59689E+3  -3.96978E+2
   2.23637E+3  -4.16997E+2
  -1.31064E+2   1.46225E+3
  -1.25510E+3   3.44926E+2
  -2.72562E+3   6.12594E+2
  -3.28082E+3  -3.26921E+3
   1.49220E+3  -3.52704E+3
   4.29049E+3  -9.78676E+2
   2.35947E+3   4.55411E+3
  -1.00038E+3   2.86343E+3
  -1.25801E+2   3.91308E+3
  -3.69954E+3   1.12804E+3
  -3.44757E+3  -2.85079E+3
  -3.41876E+3  -4.81890E+3
   1.61491E+3  -2.64472E+3
   3.39874E+3   1.11209E+3
   3.14828E+3   3.50663E+3
   6.25273E+2   2.03453E+3
  -1.71671E+3   1.72158E+3
   2.08809E+3  -2.96742E+3
   4.20343E+3   1.26277E+3
   1.07703E+2   4.17984E+3
  -2.95769E+3   2.66911E+3
  -1.50114E+2   1.75881E+3
  -2.52487E+2   3.58038E+3
   4.31121E+2   1.85592E+3
  -2.08970E+3   2.25723E+3
  -1.82955E+3  -1.34034E+3
  -1.55503E+3  -6.72955E+2
   1.08619E+3   1.19277E+2
   5.04296E+2   2.11491E+3
  -1.89832E+3   2.65760E+3
   1.43212E+3  -1.34919E+3
   3.46426E+3  -8.35716E+1
   2.40691E+3   3.18668E+3
  -2.91719E+3   1.39643E+3
  -9.43401E+2  -1.41272E+3
   1.79195E+3   7.85751E+2
   3.81484E+2   4.27586E+3
  -3.33456E+3   1.91008E+3
  -1.46675E+3  -2.09481E+3
  -6.08253E+2  -4.57613E+3
   3.81920E+3  -2.00035E+3
   3.91816E+3  -6.65598E+1
   5.40956E+2   1.33881E+3
   2.69768E+2  -9.47117E+1
   3.72745E+3  -5.52064E+2
   7.56601E+2   4.06010E+3
  -3.99454E+3   1.87750E+3
  -2.80203E+3  -1.11944E+3
   7.02291E+2  -3.46087E+3
   3.98274E+3  -2.20847E+3
   6.32888E+2   4.13274E+3
  -2.92686E+3   1.47082E+3
  -1.32989E+3  -1.00745E+3
   2.27560E+2  -4.00434E+3
   5.51882E+3   5.09428E+2
   1.31988E+2   4.39243E+3
  -3.07857E+3   1.77693E+3
  -1.36767E+3   4.94609E+2
  -2.38804E+3  -4.80814E+2
  -8.73825E+2   8.05267E+2
  -3.25170E+3  -2.60838E+3
  -2.38507E+3  -4.29929E+3
   2.74421E+3  -3.74363E+3
   2.79508E+3  -1.68468E+3
   2.98369E+2   3.01843E+3
   4.83972E+1   6.39008E+2
  -8.73479E+2   1.67978E+3
  -2.01828E+3   5.02652E+2
  -4.09982E+3  -7.20769E+2
  -1.90754E+3  -7.64051E+2
  -1.25191E+3  -2.76278E+3
  -5.74252E+2  -1.25214E+3
   1.04418E+3  -1.29412E+3
  -1.60919E+3   2.09890E+3
  -2.08467E+3   3.93397E+2
  -5.69265E+2  -4.24077E+3
   1.47843E+3  -1.90902E+3
   3.45219E+2   1.06752E+3
  -2.22169E+2  -5.36928E+2
  -2.32987E+2  -1.60218E+3
   3.97879E+2   1.06369E+3
  -2.63524E+3   2.53424E+3
  -4.03819E+3  -7.75198E+2
  -9.45662E+2  -2.96712E+3
   4.48236E+2  -1.51928E+3
   2.68149E+3   2.10625E+3
  -1.64315E+3   2.87465E+3
  -4.59902E+3   4.01538E+2
  -3.72721E+3  -1.03822E+2
   4.65035E+2  -2.82109E+3
  -1.96511E+3  -7.79975E+2
  -3.16278E+2  -1.66645E+3
  -1.05057E+3   1.63958E+3
  -1.38784E+3  -5.16631E+2
   8.51459E+2  -1.43700E+3
   1.24172E+3   2.20348E+2
  -1.99464E+3   3.10248E+3
  -2.10309E+3  -6.36052E+2
   4.22167E+1   6.17406E+2
  -5.33843E-1   1.72483E+3
  -1.25808E+3   1.81670E+3
  -5.77875E+2   5.21131E+2
  -2.96925E+3   1.47202E+3
  -2.33023E+3  -9.28156E+2
   9.15735E+1  -1.41806E+3
  -7.47519E+2  -1.09043E+3
   1.41850E+3  -8.94970E+2
   1.00963E+3   1.89353E+3
   6.90541E+2   2.08084E+3
  -1.18473E+3   4.15701E+3
  -2.54368E+3   5.79905E+2
   6.68709E+2   1.94148E+3
   1.12261E+3   9.42954E+2
  -2.01650E+3   1.03747E+3
   1.14075E+2  -1.10801E+3
   8.40070E+2  -8.32627E+1
   9.00056E+2   1.32611E+3
   4.89350E+1   1.26047E+3
  -1.32609E+3  -6.56312E+2
   1.69304E+3  -2.25947E+3
   4.54041E+3   1.04272E+3
   1.40187E+3   3.78509E+3
  -2.04964E+3   3.22118E+3
  -2.19987E+3   1.59080E+3
   3.34976E+1  -1.45890E+3
   3.18021E+2  -2.92131E+3
   2.47479E+3  -1.73406E+3
   8.31562E+2  -7.61459E+2
   1.59404E+3  -2.33420E+3
   6.25045E+2   2.68766E+2
   3.48369E+3   2.06495E+3
  -5.50925E+2   3.11048E+3
  -1.06541E+3  -1.02565E+2
  -2.36555E+3  -9.41335E+2
  -2.53864E+2  -5.87467E+2
   3.00000E+3   4.06616E+2
  -2.32296E+1  -6.02773E+2
   5.95368E+2   9.02793E+2
   2.51954E+3   2.34253E+3
  -3.91683E+2   1.80924E+3
  -2.26191E+3  -7.41613E+2
  -1.42369E+2  -2.88901E+3
   1.31739E+3  -2.05747E+3
   2.64588E+3   2.27860E+2
  -1.58131E+2   3.16517E+2
  -2.35830E+3   3.14724E+2
  -3.22663E+2   9.63290E+2
   2.52870E+2   3.04595E+2
   8.74777E+2   2.01622E+3
  -3.47683E+2   1.37385E+2
   1.42059E+2  -1.46881E+3
   1.50209E+3  -9.48677E+0
  -8.40208E+1   1.28871E+3
  -2.27282E+3   1.07475E+3
  -2.92055E+3  -8.34331E+2
   3.06729E+2  -2.92009E+3
   2.13835E+3  -1.13657E+3
   2.39162E+3   1.78990E+3
   9.03766E+2   8.24036E+2
  -1.31167E+3  -1.35635E+3
  -6.04204E+2   1.33136E+3
   3.40017E+2   4.78759E+2
   6.50337E+2   5.45593E+2
  -3.89127E+2   3.13329E+2
   8.40922E+2  -3.40799E+3
   2.22259E+3  -1.47745E+3
   2.04910E+3   7.04342E+2
  -3.14989E+3   7.52502E+2
   5.27436E+2  -1.56339E+3
  -2.33573E+2  -2.50218E+3
   2.07301E+2  -1.69017E+3
  -1.00645E+3  -2.69874E+2
  -1.38595E+2   1.06020E+2
   3.39248E+3   9.14485E+0
   1.74640E+3  -2.30720E+2
   6.20798E+2   9.72925E+2
   1.15952E+2  -1.58063E+2
   7.92068E+2   5.56009E+2
   2.66668E+3  -3.23306E+2
   2.39216E+3   1.34000E+2
  -1.60700E+3   1.01828E+3
  -8.84661E+2  -6.26676E+2
  -2.36725E+3  -6.16892E+2
   9.45827E+2   1.43455E+3
  -2.55536E+2  -1.45832E+3
  -2.18192E+2  -1.92895E+2
   6.75071E+2  -9.38628E+2
   2.72135E+3  -4.77821E+2
   1.37120E+2   1.50397E+3
  -1.17498E+3   1.38308E+3
  -1.23749E+3  -1.69160E+3
  -8.93660E+1  -3.79100E+2
   2.48879E+3  -1.88674E+3
  -1.08418E+2   3.11231E+1
  -1.24342E+3   1.42611E+3
  -2.51735E+2  -2.01220E+3
   1.25064E+3   9.56705E+1
  -5.15033E+2  -5.16908E+2
  -1.29483E+3  -1.19018E+3
   6.18751E+2   2.81947E+2
   4.47732E+3  -3.18296E+3
  -4.51252E+2   1.07405E+3
  -4.07030E+2   3.99409E+2
  -1.78639E+3   1.96360E+3
  -2.51738E+3  -3.04670E+2
   3.17931E+2  -1.03414E+3
   1.07541E+3   6.88751E+2
  -1.38120E+3  -4.18913E+2
  -6.43682E+2  -1.30974E+3
   1.06347E+3   1.33101E+3
  -3.74997E+2   2.17729E+3
  -2.42330E+3   1.22005E+3
  -5.61535E+2  -1.61426E+2
   4.51247E+2  -9.97342E+2
   1.57161E+3  -2.36285E+3
  -3.50592E+2  -1.04152E+3
   1.12586E+3   6.77626E+2
   8.38806E+2  -6.80237E+2
  -3.10392E+2  -1.47768E+3
   1.21685E+3  -3.07622E+2
  -1.37077E+3  -7.38638E+2
  -2.05052E+2  -2.68223E+3
   8.85505E+2  -1.77569E+3
   1.54235E+3  -5.34679E+1
   1.23871E+3   8.68243E+2
  -1.47784E+3  -4.37636E+2
  -1.26177E+3  -9.05182E+2
  -5.80185E+2  -2.03657E+3
   9.57110E+2  -5.28911E+2
   6.00101E+2  -7.59243E+2
  -2.19092E+2  -7.49710E+2
   1.39993E+3   1.56321E+3
   2.16130E+3   1.96110E+3
  -4.11561E+2   1.14923E+3
  -2.21322E+3   9.22871E+2
  -1.42786E+3  -2.66292E+3
   2.74821E+3  -2.08908E+3
   1.34750E+3   6.20123E+2
  -6.38438E+2   1.05144E+3
  -1.45980E+3   7.45958E+2
   3.36742E+2  -2.24036E+3
   7.75153E+2  -7.02382E+2
   2.71833E+2   6.87363E+2
  -1.04155E+3   6.17711E+2
   3.54290E+2   2.47720E+2
  -9.72404E+2  -4.56834E+2
  -6.42350E+1   2.33715E+2
  -6.93122E+1   1.04087E+3
  -1.58289E+2  -6.77659E+2
   1.30919E+3  -2.34893E+3
   2.36264E+3  -6.27784E+2
  -5.75407E+1   8.76317E+2
  -1.76850E+3   2.17730E+3
  -1.36467E+3   1.60873E+2
  -1.13700E+2  -1.22465E+3
   3.56832E+3  -9.89331E+2
  -1.26480E+3   1.39340E+3
  -8.95364E+2  -2.38002E+3
   1.41550E+3   8.31709E+1
   9.00195E+2   1.09953E+3
  -3.35790E+2   2.90234E+3
  -1.30515E+3   2.94116E+2
  -2.68120E+3  -1.79168E+3
   2.49628E+3   4.40145E+1
   1.24114E+3  -4.68479E+2
   1.53796E+3   4.15946E+1
   9.72684E+2   1.73970E+3
   1.31912E+3   1.32164E+3
   2.18964E+2   1.64895E+3
  -1.98235E+0  -1.01252E+3
  -1.06056E+3  -1.01226E+3
  -7.49031E+2  -1.21638E+3
   1.44139E+3  -1.82862E+3
   2.01417E+2   1.27021E+3
   1.41202E+3  -8.41154E+2
  -2.89944E+3  -8.42912E+1
  -2.65422E+2  -1.54971E+3
  -1.41624E+3   5.02489E+2
  -1.26365E+3  -1.35807E+3
  -2.08690E+2  -1.92501E+3
   7.81094E+2  -1.94560E+3
   5.39787E+1   2.04964E+2
   1.04096E+3  -7.07164E+2
   1.09943E+3   5.27758E+2
  -2.66915E+3   2.28663E+2
  -2.17489E+3  -1.83053E+3
  -1.49677E+3  -1.83374E+3
  -2.70512E+2  -1.31645E+3
   8.15243E+2  -1.78125E+3
  -1.04147E+2  -8.82070E+1
  -8.81280E+2  -2.69616E+2
   3.38810E+2  -1.45620E+3
  -1.30779E+3   6.35001E+2
  -9.20276E+2  -1.11171E+3
  -3.50238E+2  -2.41634E+3
   3.14140E+3   4.28207E+2
   5.63323E+2   1.30551E+3
  -1.49822E+2  -1.36388E+2
   1.15929E+3  -1.45920E+3
   2.90599E+2  -3.27500E+3
  -4.08603E+2   6.95729E+2
   1.57614E+2   3.36785E+2
   2.11789E+2  -1.92048E+3
   7.27734E+2   2.44217E+2
  -9.65561E+2   2.19777E+2
  -2.32791E+3   2.66107E+3
   2.24973E+2  -2.83243E+3
   2.77314E+3  -1.50988E+3
   6.42437E+2   8.28166E+2
   1.28149E+3   2.21826E+3
  -2.64408E+3   1.50233E+3
  -1.01341E+2  -6.01751E+2
  -2.16857E+2  -2.07519E+2
   5.36781E+1  -4.91753E+2
   1.57506E+3   2.63556E+2
  -4.61689E+2  -7.55352E+2
   1.30894E+2  -1.04677E+3
   1.11103E+3  -2.28876E+3
  -1.52370E+2   1.09583E+3
   1.03095E+3   7.38958E+2
