 
 $NMID
 ID=''
 FMTDAT='(2E13.5)'
 TRAMP=   1.00000E+0
 VOLUME=   1.00000E+0
 $END
  -1.49696E+4   1.43634E+4
  -4.74488E+4   2.47865E+4
  -4.21951E+4   3.28503E+4
  -3.86707E+4   3.06879E+4
  -4.08793E+4   3.09471E+4
  -3.93106E+4   3.29748E+4
  -3.78239E+4   3.15293E+4
  -3.87006E+4   3.13289E+4
  -3.76317E+4   3.25145E+4
  -3.65651E+4   3.16489E+4
  -3.70039E+4   3.12750E+4
  -3.59895E+4   3.21237E+4
  -3.50875E+4   3.16249E+4
  -3.55889E+4   3.12980E+4
  -3.48192E+4   3.17954E+4
  -3.40221E+4   3.12365E+4
  -3.42214E+4   3.11064E+4
  -3.36384E+4   3.15114E+4
  -3.30122E+4   3.12858E+4
  -3.30820E+4   3.11900E+4
  -3.25315E+4   3.14659E+4
  -3.17220E+4   3.13847E+4
  -3.18164E+4   3.13663E+4
  -3.14204E+4   3.15898E+4
  -3.07298E+4   3.14110E+4
  -3.05258E+4   3.14536E+4
  -3.01995E+4   3.16505E+4
  -2.97294E+4   3.13824E+4
  -2.96379E+4   3.12946E+4
  -2.92400E+4   3.14365E+4
  -2.85954E+4   3.13732E+4
  -2.83847E+4   3.14329E+4
  -2.82070E+4   3.15182E+4
  -2.77532E+4   3.13547E+4
  -2.73397E+4   3.13390E+4
  -2.70088E+4   3.14083E+4
  -2.64931E+4   3.13545E+4
  -2.60649E+4   3.12167E+4
  -2.57074E+4   3.12488E+4
  -2.52341E+4   3.12396E+4
  -2.49306E+4   3.11121E+4
  -2.46673E+4   3.10553E+4
  -2.43544E+4   3.08334E+4
  -2.38455E+4   3.06295E+4
  -2.35222E+4   3.05920E+4
  -2.30699E+4   3.04348E+4
  -2.27901E+4   3.04041E+4
  -2.24066E+4   3.03368E+4
  -2.21029E+4   3.02834E+4
  -2.16943E+4   3.01538E+4
  -2.13575E+4   3.00694E+4
  -2.10001E+4   2.99262E+4
  -2.06067E+4   2.99429E+4
  -2.01635E+4   2.99066E+4
  -1.98508E+4   2.97700E+4
  -1.94936E+4   2.96840E+4
  -1.92438E+4   2.96635E+4
  -1.89915E+4   2.95055E+4
  -1.86925E+4   2.94106E+4
  -1.83209E+4   2.92461E+4
  -1.79702E+4   2.91724E+4
  -1.76368E+4   2.90121E+4
  -1.73938E+4   2.89870E+4
  -1.70652E+4   2.88892E+4
  -1.67710E+4   2.87537E+4
  -1.64334E+4   2.87189E+4
  -1.60682E+4   2.86632E+4
  -1.57487E+4   2.85905E+4
  -1.54600E+4   2.84315E+4
  -1.51084E+4   2.84016E+4
  -1.48631E+4   2.82687E+4
  -1.45291E+4   2.82822E+4
  -1.42328E+4   2.81671E+4
  -1.39612E+4   2.81026E+4
  -1.35997E+4   2.80674E+4
  -1.32860E+4   2.80412E+4
  -1.29887E+4   2.79581E+4
  -1.27500E+4   2.79083E+4
  -1.24559E+4   2.78368E+4
  -1.22166E+4   2.78701E+4
  -1.18958E+4   2.78555E+4
  -1.16631E+4   2.77731E+4
  -1.13728E+4   2.77549E+4
  -1.11623E+4   2.76391E+4
  -1.09879E+4   2.75940E+4
  -1.07617E+4   2.75224E+4
  -1.05296E+4   2.73774E+4
  -1.02446E+4   2.73293E+4
  -1.00366E+4   2.72219E+4
  -9.81854E+3   2.72285E+4
  -9.57978E+3   2.71411E+4
  -9.36598E+3   2.71422E+4
  -9.08700E+3   2.70462E+4
  -8.87939E+3   2.70340E+4
  -8.64187E+3   2.69618E+4
  -8.46929E+3   2.68049E+4
  -8.21255E+3   2.67176E+4
  -8.00809E+3   2.67249E+4
  -7.80100E+3   2.66192E+4
  -7.66258E+3   2.66229E+4
  -7.41577E+3   2.64720E+4
  -7.20631E+3   2.63356E+4
  -6.99006E+3   2.63444E+4
  -6.90150E+3   2.62883E+4
  -6.73695E+3   2.61643E+4
  -6.51657E+3   2.60063E+4
  -6.30122E+3   2.59485E+4
  -6.19940E+3   2.59475E+4
  -6.01297E+3   2.57640E+4
  -5.82341E+3   2.56383E+4
  -5.63094E+3   2.54811E+4
  -5.39826E+3   2.54108E+4
  -5.28470E+3   2.53693E+4
  -5.03915E+3   2.52797E+4
  -4.92003E+3   2.51982E+4
  -4.80376E+3   2.50785E+4
  -4.55395E+3   2.48837E+4
  -4.39548E+3   2.48620E+4
  -4.24418E+3   2.47315E+4
  -4.07542E+3   2.46903E+4
  -3.88865E+3   2.45307E+4
  -3.69915E+3   2.44895E+4
  -3.62822E+3   2.44051E+4
  -3.46248E+3   2.42934E+4
  -3.26529E+3   2.42324E+4
  -3.12156E+3   2.42433E+4
  -3.00645E+3   2.40595E+4
  -2.85979E+3   2.39769E+4
  -2.65727E+3   2.38611E+4
  -2.55634E+3   2.38375E+4
  -2.40746E+3   2.36736E+4
  -2.26108E+3   2.35202E+4
  -1.98759E+3   2.34227E+4
  -1.85351E+3   2.33858E+4
  -1.65645E+3   2.33286E+4
  -1.58987E+3   2.31794E+4
  -1.42841E+3   2.30446E+4
  -1.24109E+3   2.29309E+4
  -1.06279E+3   2.28915E+4
  -8.79698E+2   2.27143E+4
  -7.80938E+2   2.26474E+4
  -6.48082E+2   2.25647E+4
  -4.31642E+2   2.24474E+4
  -2.75518E+2   2.23849E+4
  -1.53962E+2   2.22783E+4
  -1.83436E+1   2.21808E+4
   1.65404E+2   2.19904E+4
   3.05073E+2   2.19368E+4
   3.47787E+2   2.17902E+4
   4.54856E+2   2.16718E+4
   7.55595E+2   2.15353E+4
   8.25697E+2   2.14313E+4
   9.30056E+2   2.12730E+4
   1.11648E+3   2.11608E+4
   1.28663E+3   2.10209E+4
   1.44256E+3   2.08674E+4
   1.46590E+3   2.06960E+4
   1.65852E+3   2.06517E+4
   1.78646E+3   2.04827E+4
   1.93453E+3   2.03886E+4
   2.03801E+3   2.03104E+4
   2.21651E+3   2.01655E+4
   2.31164E+3   1.99972E+4
   2.44281E+3   1.98365E+4
   2.50318E+3   1.97615E+4
   2.67593E+3   1.96678E+4
   2.80904E+3   1.94516E+4
   2.94436E+3   1.92954E+4
   3.11863E+3   1.91484E+4
   3.15557E+3   1.90388E+4
   3.31483E+3   1.89185E+4
   3.43918E+3   1.88183E+4
   3.44785E+3   1.86676E+4
   3.65312E+3   1.84915E+4
   3.73109E+3   1.83582E+4
   3.82305E+3   1.81813E+4
   3.96885E+3   1.80561E+4
   4.09523E+3   1.79621E+4
   4.17637E+3   1.77695E+4
   4.35544E+3   1.77371E+4
   4.32858E+3   1.75824E+4
   4.49922E+3   1.74075E+4
   4.57755E+3   1.72214E+4
   4.67484E+3   1.71708E+4
   4.82771E+3   1.69771E+4
   4.82470E+3   1.68476E+4
   4.97126E+3   1.67344E+4
   5.05887E+3   1.66030E+4
   5.20691E+3   1.64849E+4
   5.21757E+3   1.63254E+4
   5.22385E+3   1.61774E+4
   5.40636E+3   1.59943E+4
   5.43596E+3   1.59094E+4
   5.48219E+3   1.57800E+4
   5.63804E+3   1.56599E+4
   5.68301E+3   1.55135E+4
   5.81441E+3   1.53671E+4
   5.92183E+3   1.52207E+4
   5.94838E+3   1.51048E+4
   5.99644E+3   1.50264E+4
   6.06426E+3   1.48845E+4
   6.10119E+3   1.47037E+4
   6.17709E+3   1.45997E+4
   6.17582E+3   1.44116E+4
   6.29635E+3   1.42471E+4
   6.34021E+3   1.41462E+4
   6.40982E+3   1.40192E+4
   6.50819E+3   1.39240E+4
   6.58138E+3   1.37802E+4
   6.65367E+3   1.36081E+4
   6.69411E+3   1.35219E+4
   6.69708E+3   1.33472E+4
   6.73570E+3   1.32660E+4
   6.80269E+3   1.30599E+4
   6.97765E+3   1.29316E+4
   6.86593E+3   1.28761E+4
   6.89035E+3   1.27045E+4
   7.02591E+3   1.26044E+4
   7.06455E+3   1.24299E+4
   7.05659E+3   1.22858E+4
   7.11619E+3   1.22220E+4
   7.18416E+3   1.20293E+4
   7.11877E+3   1.18979E+4
   7.17154E+3   1.18229E+4
   7.27318E+3   1.16592E+4
   7.30360E+3   1.15999E+4
   7.30927E+3   1.14433E+4
   7.38193E+3   1.13196E+4
   7.37894E+3   1.11514E+4
   7.49051E+3   1.11013E+4
   7.39178E+3   1.09750E+4
   7.45488E+3   1.08939E+4
   7.47007E+3   1.07259E+4
   7.54016E+3   1.06397E+4
   7.44322E+3   1.03754E+4
   7.53874E+3   1.02916E+4
   7.57855E+3   1.02284E+4
   7.57732E+3   1.01336E+4
   7.57576E+3   9.98506E+3
   7.60431E+3   9.85788E+3
   7.63336E+3   9.71247E+3
   7.63906E+3   9.68854E+3
   7.64007E+3   9.55745E+3
   7.66127E+3   9.48969E+3
   7.73156E+3   9.29806E+3
   7.68920E+3   9.21790E+3
   7.69570E+3   9.10505E+3
   7.71924E+3   9.02232E+3
   7.69326E+3   8.85083E+3
   7.67311E+3   8.81738E+3
   7.70635E+3   8.75315E+3
   7.80897E+3   8.56241E+3
   7.74501E+3   8.54617E+3
   7.77961E+3   8.37555E+3
   7.77522E+3   8.32761E+3
   7.79702E+3   8.20467E+3
   7.82362E+3   8.06027E+3
   7.78174E+3   7.99437E+3
   7.80716E+3   7.92386E+3
   7.78070E+3   7.83896E+3
   7.77707E+3   7.78508E+3
   7.79676E+3   7.63226E+3
   7.77958E+3   7.54149E+3
   7.71590E+3   7.49111E+3
   7.81154E+3   7.38243E+3
   7.74185E+3   7.25670E+3
   7.74000E+3   7.16057E+3
   7.78586E+3   7.11349E+3
   7.73164E+3   7.01253E+3
   7.71142E+3   6.96335E+3
   7.73894E+3   6.84439E+3
   7.76194E+3   6.77521E+3
   7.76794E+3   6.66184E+3
   7.79810E+3   6.60516E+3
   7.77804E+3   6.50532E+3
   7.74722E+3   6.37088E+3
   7.77139E+3   6.36879E+3
   7.72366E+3   6.27307E+3
   7.65433E+3   6.15949E+3
   7.69868E+3   6.14720E+3
   7.66991E+3   5.97303E+3
   7.62280E+3   5.95473E+3
   7.65526E+3   5.84235E+3
   7.63427E+3   5.81253E+3
   7.62820E+3   5.79471E+3
   7.64116E+3   5.69537E+3
   7.63490E+3   5.68368E+3
   7.60009E+3   5.50941E+3
   7.56299E+3   5.44225E+3
   7.62586E+3   5.34546E+3
   7.55090E+3   5.30942E+3
   7.52671E+3   5.23430E+3
   7.51722E+3   5.13762E+3
   7.59156E+3   5.06849E+3
   7.52741E+3   5.04869E+3
   7.57688E+3   4.99750E+3
   7.50902E+3   4.91486E+3
   7.48803E+3   4.83356E+3
   7.48518E+3   4.74023E+3
   7.50864E+3   4.68673E+3
   7.46674E+3   4.63198E+3
   7.50505E+3   4.52666E+3
   7.50440E+3   4.42921E+3
   7.45947E+3   4.46401E+3
   7.47727E+3   4.39557E+3
   7.37247E+3   4.30705E+3
   7.43101E+3   4.19029E+3
   7.45137E+3   4.17012E+3
   7.40789E+3   4.13912E+3
   7.38737E+3   4.08150E+3
   7.38117E+3   3.99121E+3
   7.35737E+3   4.01461E+3
   7.30348E+3   3.87201E+3
   7.37035E+3   3.88109E+3
   7.34352E+3   3.74162E+3
   7.36266E+3   3.68358E+3
   7.35189E+3   3.66774E+3
   7.34445E+3   3.61803E+3
   7.31239E+3   3.58137E+3
   7.24629E+3   3.46708E+3
   7.18962E+3   3.41341E+3
   7.24212E+3   3.37737E+3
   7.23980E+3   3.33315E+3
   7.21458E+3   3.21685E+3
   7.20259E+3   3.23550E+3
   7.18740E+3   3.13269E+3
   7.14969E+3   3.12982E+3
   7.15540E+3   2.99852E+3
   7.14830E+3   3.02321E+3
   7.15393E+3   2.96427E+3
   7.13000E+3   2.79461E+3
   7.15723E+3   2.82913E+3
   7.04823E+3   2.79351E+3
   7.07993E+3   2.70750E+3
   7.13850E+3   2.65829E+3
   7.08544E+3   2.58748E+3
   6.98124E+3   2.55497E+3
   7.03651E+3   2.55671E+3
   6.98318E+3   2.39857E+3
   7.03581E+3   2.39160E+3
   7.05383E+3   2.35639E+3
   6.87011E+3   2.26854E+3
   6.92701E+3   2.21916E+3
   6.89147E+3   2.15421E+3
   6.88883E+3   2.19223E+3
   6.90612E+3   2.06857E+3
   6.90454E+3   2.00749E+3
   6.81221E+3   1.92537E+3
   6.89934E+3   1.96375E+3
   6.78047E+3   1.88780E+3
   6.77200E+3   1.80213E+3
   6.83510E+3   1.74077E+3
   6.78261E+3   1.64724E+3
   6.77952E+3   1.68763E+3
   6.69173E+3   1.66436E+3
   6.65098E+3   1.60598E+3
   6.64204E+3   1.46442E+3
   6.67195E+3   1.51589E+3
   6.62834E+3   1.39261E+3
   6.57772E+3   1.34068E+3
   6.59859E+3   1.28170E+3
   6.50143E+3   1.26549E+3
   6.53363E+3   1.21846E+3
   6.45788E+3   1.26095E+3
   6.44197E+3   1.14430E+3
   6.44528E+3   1.09007E+3
   6.50114E+3   1.00276E+3
