 
 $NMID
 ID=''
 FMTDAT='(2E13.5)'
 TRAMP=   1.00000E+0
 VOLUME=   1.00000E+0
 $END
   3.04566E+3   1.03887E+4
   6.16946E+2   2.75858E+4
   6.43621E+3   2.68142E+4
   7.10638E+3   2.41035E+4
   7.33022E+3   2.45596E+4
   9.31223E+3   2.36727E+4
   9.62147E+3   2.21142E+4
   9.75773E+3   2.19789E+4
   1.10332E+4   2.12307E+4
   1.15582E+4   2.00422E+4
   1.18242E+4   1.99784E+4
   1.30071E+4   1.93481E+4
   1.37527E+4   1.82738E+4
   1.42738E+4   1.79849E+4
   1.54333E+4   1.73309E+4
   1.59980E+4   1.62447E+4
   1.65062E+4   1.55852E+4
   1.73138E+4   1.47581E+4
   1.78269E+4   1.35835E+4
   1.81509E+4   1.29106E+4
   1.87404E+4   1.19655E+4
   1.91100E+4   1.08365E+4
   1.94102E+4   9.84337E+3
   1.97721E+4   8.93244E+3
   1.99926E+4   7.78829E+3
   2.00929E+4   6.81379E+3
   2.04892E+4   5.75247E+3
   2.05352E+4   4.79488E+3
   2.05246E+4   3.79551E+3
   2.07611E+4   2.73069E+3
   2.08818E+4   1.59360E+3
   2.09606E+4   6.17129E+2
   2.10997E+4  -2.48735E+2
   2.11068E+4  -1.21246E+3
   2.11239E+4  -2.07159E+3
   2.13054E+4  -2.98020E+3
   2.12316E+4  -3.75850E+3
   2.12640E+4  -4.66238E+3
   2.12442E+4  -5.36347E+3
   2.11870E+4  -6.16851E+3
   2.10975E+4  -6.83932E+3
   2.09875E+4  -7.35126E+3
   2.08113E+4  -7.96495E+3
   2.06171E+4  -8.57664E+3
   2.03268E+4  -9.08672E+3
   2.00524E+4  -9.73694E+3
   1.98227E+4  -1.01680E+4
   1.94173E+4  -1.06454E+4
   1.90543E+4  -1.11215E+4
   1.86254E+4  -1.15484E+4
   1.81767E+4  -1.19631E+4
   1.77374E+4  -1.24419E+4
   1.71596E+4  -1.28845E+4
   1.67007E+4  -1.33559E+4
   1.61131E+4  -1.37261E+4
   1.56094E+4  -1.41706E+4
   1.50832E+4  -1.44656E+4
   1.44457E+4  -1.48240E+4
   1.38749E+4  -1.50812E+4
   1.32480E+4  -1.53985E+4
   1.26728E+4  -1.57934E+4
   1.20920E+4  -1.59954E+4
   1.14052E+4  -1.62799E+4
   1.08282E+4  -1.65309E+4
   1.03344E+4  -1.67631E+4
   9.71538E+3  -1.70189E+4
   9.16975E+3  -1.72234E+4
   8.60801E+3  -1.74174E+4
   8.10474E+3  -1.75713E+4
   7.60143E+3  -1.77069E+4
   7.07438E+3  -1.78511E+4
   6.53277E+3  -1.78141E+4
   6.04868E+3  -1.79169E+4
   5.56646E+3  -1.79785E+4
   4.97695E+3  -1.80093E+4
   4.52816E+3  -1.79679E+4
   4.06096E+3  -1.78868E+4
   3.58884E+3  -1.78513E+4
   3.21842E+3  -1.77265E+4
   2.81800E+3  -1.77177E+4
   2.32466E+3  -1.75383E+4
   1.98817E+3  -1.74603E+4
   1.49248E+3  -1.72850E+4
   1.13154E+3  -1.71407E+4
   8.08247E+2  -1.70048E+4
   4.77291E+2  -1.67999E+4
   1.86621E+2  -1.65526E+4
  -1.96205E+2  -1.63150E+4
  -5.55729E+2  -1.60171E+4
  -8.55576E+2  -1.58222E+4
  -1.17957E+3  -1.55377E+4
  -1.50076E+3  -1.53226E+4
  -1.75896E+3  -1.50614E+4
  -2.10219E+3  -1.47150E+4
  -2.33532E+3  -1.44924E+4
  -2.51430E+3  -1.41305E+4
  -2.83614E+3  -1.38128E+4
  -3.10117E+3  -1.34856E+4
  -3.25131E+3  -1.31996E+4
  -3.45520E+3  -1.28651E+4
  -3.68992E+3  -1.25258E+4
  -3.87985E+3  -1.21963E+4
  -4.05187E+3  -1.18257E+4
  -4.20563E+3  -1.15671E+4
  -4.37615E+3  -1.11160E+4
  -4.54769E+3  -1.07796E+4
  -4.71591E+3  -1.04166E+4
  -4.80214E+3  -1.01050E+4
  -4.90143E+3  -9.67611E+3
  -5.06358E+3  -9.25599E+3
  -5.14094E+3  -8.93695E+3
  -5.32165E+3  -8.55175E+3
  -5.30681E+3  -8.22157E+3
  -5.40200E+3  -7.89134E+3
  -5.50562E+3  -7.51389E+3
  -5.51104E+3  -7.13948E+3
  -5.61504E+3  -6.75792E+3
  -5.62523E+3  -6.42264E+3
  -5.70665E+3  -6.07496E+3
  -5.72618E+3  -5.73610E+3
  -5.79823E+3  -5.34451E+3
  -5.79303E+3  -5.07438E+3
  -5.79044E+3  -4.75107E+3
  -5.86441E+3  -4.40883E+3
  -5.82121E+3  -4.08387E+3
  -5.89851E+3  -3.76107E+3
  -5.82478E+3  -3.42147E+3
  -5.82778E+3  -3.16993E+3
  -5.77542E+3  -2.95708E+3
  -5.80782E+3  -2.58640E+3
  -5.77208E+3  -2.27511E+3
  -5.75956E+3  -2.02706E+3
  -5.76847E+3  -1.71105E+3
  -5.67320E+3  -1.53529E+3
  -5.63244E+3  -1.30096E+3
  -5.54805E+3  -1.04279E+3
  -5.52629E+3  -8.29751E+2
  -5.48939E+3  -6.15947E+2
  -5.38694E+3  -3.25837E+2
  -5.37851E+3  -1.36782E+2
  -5.22010E+3  -2.61841E+0
  -5.22014E+3   2.29201E+2
  -5.20435E+3   3.90757E+2
  -5.09310E+3   6.56998E+2
  -4.97632E+3   7.29664E+2
  -4.91851E+3   9.43180E+2
  -4.75851E+3   1.09243E+3
  -4.68042E+3   1.21278E+3
  -4.64005E+3   1.35138E+3
  -4.53154E+3   1.49817E+3
  -4.36507E+3   1.56869E+3
  -4.27672E+3   1.64791E+3
  -4.14757E+3   1.81413E+3
  -4.05343E+3   1.91906E+3
  -3.92858E+3   2.04270E+3
  -3.79493E+3   2.05780E+3
  -3.68137E+3   2.17751E+3
  -3.59375E+3   2.26805E+3
  -3.50403E+3   2.25185E+3
  -3.37770E+3   2.33248E+3
  -3.27352E+3   2.38663E+3
  -3.15244E+3   2.39803E+3
  -3.08088E+3   2.46085E+3
  -2.91047E+3   2.50792E+3
  -2.75098E+3   2.53685E+3
  -2.62515E+3   2.60045E+3
  -2.56507E+3   2.62273E+3
  -2.41947E+3   2.59844E+3
  -2.36678E+3   2.61247E+3
  -2.21236E+3   2.63119E+3
  -2.14851E+3   2.66707E+3
  -1.99265E+3   2.64318E+3
  -1.95650E+3   2.56274E+3
  -1.84376E+3   2.59390E+3
  -1.73984E+3   2.56169E+3
  -1.67286E+3   2.61123E+3
  -1.47907E+3   2.61476E+3
  -1.43072E+3   2.50880E+3
  -1.41617E+3   2.50222E+3
  -1.30287E+3   2.48285E+3
  -1.26865E+3   2.48586E+3
  -1.13937E+3   2.39430E+3
  -1.03893E+3   2.38601E+3
  -9.13535E+2   2.30555E+3
  -9.04897E+2   2.27000E+3
  -7.94357E+2   2.27779E+3
  -7.60904E+2   2.21736E+3
  -5.78580E+2   2.17740E+3
  -5.68521E+2   2.05135E+3
  -4.13682E+2   2.07001E+3
  -3.46538E+2   2.03936E+3
  -2.49013E+2   2.03262E+3
  -2.51590E+2   1.98545E+3
  -2.40904E+2   1.92341E+3
  -1.06577E+2   1.85936E+3
  -7.63746E+1   1.76693E+3
  -3.57364E+1   1.73879E+3
  -2.13833E+0   1.73972E+3
   4.54078E+1   1.59019E+3
   1.61418E+2   1.52671E+3
   1.39703E+2   1.49344E+3
   1.72850E+2   1.48826E+3
   2.73179E+2   1.48079E+3
   2.89617E+2   1.31473E+3
   3.84850E+2   1.37591E+3
   3.69530E+2   1.22594E+3
   4.39661E+2   1.16532E+3
   4.51576E+2   1.19382E+3
   4.74257E+2   1.13625E+3
   5.15999E+2   1.02257E+3
   5.78117E+2   9.83833E+2
   6.06576E+2   9.48821E+2
   5.67431E+2   8.76472E+2
   5.85074E+2   8.43436E+2
   7.36156E+2   7.41212E+2
   6.97634E+2   7.10220E+2
   7.60728E+2   6.35053E+2
   7.40456E+2   6.04256E+2
   7.01610E+2   5.55099E+2
   7.24420E+2   5.42126E+2
   7.41185E+2   4.50865E+2
   7.44298E+2   4.21830E+2
   7.71612E+2   3.02291E+2
   7.72676E+2   2.46892E+2
   7.76559E+2   2.01810E+2
   8.41603E+2   1.14633E+2
   8.30556E+2   5.70998E+1
   8.13449E+2   1.01447E+2
   8.56569E+2   1.85549E+1
   8.08740E+2  -1.37079E+2
   8.08853E+2  -1.29171E+2
   8.77888E+2  -1.93996E+2
   8.46514E+2  -1.88283E+2
   8.72309E+2  -2.54976E+2
   8.16895E+2  -2.31297E+2
   8.26042E+2  -3.36348E+2
   8.64948E+2  -3.92973E+2
   9.40893E+2  -4.15322E+2
   8.86664E+2  -4.30631E+2
   8.53275E+2  -5.05369E+2
   8.34240E+2  -5.76691E+2
   8.47673E+2  -5.74986E+2
   8.85322E+2  -5.58727E+2
   8.23619E+2  -5.74204E+2
   8.49070E+2  -6.68442E+2
   8.57182E+2  -6.47886E+2
   7.60423E+2  -7.18539E+2
   8.20029E+2  -8.12252E+2
   7.84576E+2  -8.00050E+2
   8.14950E+2  -8.04800E+2
   7.76903E+2  -8.94275E+2
   7.73537E+2  -9.27915E+2
   8.36780E+2  -9.06597E+2
   7.26525E+2  -9.49235E+2
   7.57244E+2  -1.07635E+3
   7.42319E+2  -9.90404E+2
   7.22362E+2  -1.06894E+3
   7.05979E+2  -1.02957E+3
   6.41194E+2  -1.04817E+3
   6.93194E+2  -1.00672E+3
   6.44345E+2  -1.09225E+3
   6.28835E+2  -1.08729E+3
   5.74426E+2  -1.11800E+3
   5.40427E+2  -1.15298E+3
   5.58139E+2  -1.18362E+3
   5.78188E+2  -1.20669E+3
   5.19440E+2  -1.24484E+3
   5.03884E+2  -1.22877E+3
   4.98914E+2  -1.26979E+3
   4.64618E+2  -1.30635E+3
   4.36494E+2  -1.37747E+3
   4.40926E+2  -1.30394E+3
   4.39909E+2  -1.30165E+3
   4.24888E+2  -1.36156E+3
   3.89905E+2  -1.37531E+3
   4.14120E+2  -1.35317E+3
   4.31780E+2  -1.38645E+3
   3.72742E+2  -1.39912E+3
   3.21362E+2  -1.38688E+3
   2.77564E+2  -1.44048E+3
   2.88757E+2  -1.44943E+3
   2.84799E+2  -1.47619E+3
   2.47436E+2  -1.43320E+3
   2.64561E+2  -1.50111E+3
   2.09056E+2  -1.48952E+3
   2.51897E+2  -1.53187E+3
   2.03506E+2  -1.53889E+3
   2.63432E+2  -1.54113E+3
   1.47132E+2  -1.54281E+3
   1.85193E+2  -1.58707E+3
   7.19867E+1  -1.52978E+3
   8.46269E+1  -1.58667E+3
   4.27231E+1  -1.47299E+3
  -1.49617E+0  -1.54063E+3
   1.75792E+1  -1.54698E+3
   1.42847E+1  -1.55683E+3
  -1.63239E+1  -1.58118E+3
  -7.88808E+1  -1.58497E+3
  -1.60995E+2  -1.57031E+3
  -1.40607E+2  -1.59663E+3
  -7.92732E+1  -1.54800E+3
  -1.66691E+2  -1.54990E+3
  -1.60692E+2  -1.56336E+3
  -2.24191E+2  -1.52814E+3
  -2.23889E+2  -1.53876E+3
  -2.83606E+2  -1.50620E+3
  -2.37356E+2  -1.53110E+3
  -2.76443E+2  -1.55914E+3
  -3.04785E+2  -1.59693E+3
  -3.45433E+2  -1.52857E+3
  -3.87115E+2  -1.48713E+3
  -3.88586E+2  -1.53725E+3
  -4.05340E+2  -1.44169E+3
  -4.85852E+2  -1.45159E+3
  -3.96438E+2  -1.50826E+3
  -4.70754E+2  -1.40421E+3
  -5.01236E+2  -1.46080E+3
  -5.19556E+2  -1.46246E+3
  -5.49004E+2  -1.41069E+3
  -6.16866E+2  -1.39730E+3
  -5.93633E+2  -1.42837E+3
  -6.29902E+2  -1.40811E+3
  -6.16388E+2  -1.37845E+3
  -6.52553E+2  -1.32711E+3
  -6.59010E+2  -1.38696E+3
  -7.24113E+2  -1.32089E+3
  -7.31327E+2  -1.30111E+3
  -7.69647E+2  -1.29369E+3
  -7.05821E+2  -1.32215E+3
  -7.98416E+2  -1.27693E+3
  -8.43848E+2  -1.29540E+3
  -8.32573E+2  -1.18695E+3
  -7.91387E+2  -1.18168E+3
  -8.49023E+2  -1.17104E+3
  -9.01344E+2  -1.17457E+3
  -9.41546E+2  -1.11841E+3
  -9.24910E+2  -1.13509E+3
  -9.02925E+2  -1.00037E+3
  -8.82204E+2  -1.07072E+3
  -9.11681E+2  -1.06993E+3
  -9.24958E+2  -9.59041E+2
  -9.81400E+2  -9.84996E+2
  -9.89727E+2  -9.52463E+2
  -9.96130E+2  -8.98267E+2
  -1.00699E+3  -9.19391E+2
  -9.75552E+2  -8.78704E+2
  -1.01530E+3  -8.52037E+2
  -1.04244E+3  -8.96947E+2
  -1.03707E+3  -8.63561E+2
  -1.02360E+3  -7.31315E+2
  -1.07710E+3  -7.72095E+2
  -9.99736E+2  -7.15523E+2
  -1.02044E+3  -7.26568E+2
  -1.05281E+3  -6.57512E+2
  -1.03936E+3  -6.94412E+2
  -1.10152E+3  -6.37701E+2
  -1.08967E+3  -6.09554E+2
  -1.08831E+3  -5.69754E+2
  -1.09415E+3  -5.56231E+2
  -1.07625E+3  -5.77877E+2
  -1.06122E+3  -5.14143E+2
  -1.10741E+3  -5.53817E+2
  -1.17420E+3  -4.80477E+2
  -1.10129E+3  -4.59985E+2
  -1.06597E+3  -5.22001E+2
  -1.15324E+3  -4.01871E+2
  -1.07762E+3  -3.39308E+2
