 
 $NMID
 ID=''
 FMTDAT='(2E13.5)'
 TRAMP=   1.00000E+0
 VOLUME=   1.00000E+0
 $END
   3.27957E+2   1.04317E+2
   2.93270E+2   1.40824E+3
   2.19729E+3  -3.84106E+3
  -1.19816E+3  -2.76566E+3
  -4.27751E+2  -1.81508E+3
  -1.21009E+3  -1.87414E+3
  -3.30301E+3  -4.10307E+2
  -5.24169E+3   2.33205E+3
  -4.29872E+3   4.25856E+2
  -4.28355E+3   6.53292E+2
   1.27082E+3   3.20505E+2
   4.44257E+3   2.09781E+3
   2.53732E+3   5.45671E+3
  -3.15671E+3   3.45918E+3
  -2.90306E+3  -6.89460E+2
   1.55554E+3  -1.39882E+3
   1.41048E+3  -8.09194E+2
   2.35544E+2   1.26480E+3
  -6.30854E+2   2.44694E+3
   1.42045E+3   1.84361E+2
   3.92958E+3  -8.94502E+2
   2.96267E+3   2.67704E+3
  -1.93545E+2   3.11295E+3
  -1.24878E+3  -1.25845E+3
   2.79713E+3  -5.88914E+3
   4.86095E+3   7.46169E+2
   1.71961E+3  -7.40479E+2
  -2.59277E+3  -1.44604E+3
  -3.42636E+3  -6.92092E+3
   2.09327E+3  -3.34786E+3
   5.73425E+3   2.66993E+3
  -1.10735E+3   6.23002E+3
  -4.52222E+3   1.82293E+3
   2.56993E+2  -1.51676E+3
   1.54616E+2   8.08854E+2
  -3.60685E+3  -3.28261E+3
   2.93648E+3  -6.86563E+3
   6.18858E+3   5.93265E+2
   3.51392E+3   2.37115E+3
   2.02413E+3   2.52435E+3
   2.84821E+2   4.27451E+3
  -5.07659E+3   1.70981E+3
  -6.65561E+3  -4.81351E+3
   8.25506E+2  -5.95538E+3
   3.77147E+3  -1.13656E+3
   1.27153E+3   2.50397E+2
   6.89574E+2   1.08456E+3
   1.38297E+3   2.10190E+3
   1.18641E+3   4.24446E+3
  -1.05669E+3   8.36896E+2
  -2.94284E+3  -3.89080E+1
  -1.76624E+3  -2.46080E+3
   4.63490E+3  -2.14419E+3
   4.41106E+3   1.10164E+3
  -1.02942E+3   2.92003E+3
  -2.67829E+3   3.43838E+3
  -4.08682E+3   2.90977E+3
  -4.90593E+3   1.01714E+3
  -8.29922E+3  -2.76279E+3
  -2.18146E+3  -4.95955E+3
   2.46838E+3  -1.94033E+3
   4.38893E+3   1.30059E+3
   1.28436E+3   4.13446E+3
  -3.13112E+3   2.32010E+3
   1.02559E+2  -1.20788E+3
   2.79449E+3   2.47188E+3
   8.27616E+2   4.26825E+3
  -3.34555E+3   3.53779E+3
  -2.07823E+3  -1.49735E+3
  -1.10938E+3  -3.17157E+2
  -1.27701E+3   3.28082E+2
  -1.25443E+3   2.46818E+2
  -2.19759E+3  -1.34637E+3
  -1.34110E+2   7.85248E+2
   4.10222E+2  -2.21719E+3
   9.70869E+2   5.30103E+2
  -8.50680E+2   1.14245E+3
  -1.96095E+2  -1.68683E+3
   1.59902E+3  -1.45179E+3
   1.17514E+3   3.41451E+2
  -1.70240E+3   3.87375E+2
  -3.28519E+3  -1.25334E+3
   8.82858E+2  -2.20609E+3
   1.07585E+3   3.98181E+3
  -1.61756E+3   2.73096E+3
  -2.98907E+3  -5.96363E+2
   6.75503E+2  -4.73902E+3
   3.55514E+3  -3.37115E+3
   3.88569E+3  -7.66804E+2
   1.08378E+3   8.77030E+2
   7.23583E+2  -6.84378E+2
   1.77093E+3  -3.81445E+2
   1.40515E+3  -1.74027E+2
  -1.96768E+3   3.17810E+3
  -2.60103E+3  -6.82693E+2
  -2.92815E+2  -3.23259E+3
   1.92069E+3  -1.72825E+3
   1.14368E+3   2.20611E+1
  -2.06464E+3   3.71669E+3
  -4.65026E+3   4.85769E+1
   1.39755E+1  -2.47918E+3
   2.44754E+3  -3.30004E+3
   1.71248E+3   1.71663E+2
  -1.82169E+3   2.64900E+3
  -1.45397E+3  -3.60765E+2
  -1.36161E+3  -9.03132E+2
   1.54226E+2  -6.68102E+2
  -2.35063E+3  -1.50746E+3
  -2.69862E+3  -3.27440E+2
   1.11611E+3  -4.92362E+3
   2.15921E+3  -2.88433E+3
   3.72167E+3   9.71752E+2
   5.40824E+2   1.40575E+3
   9.44254E+2   4.54718E+2
  -8.23679E+2   2.57145E+3
  -2.04717E+3  -8.86191E+2
  -1.46255E+2  -1.41535E+3
   9.34838E+2  -3.30560E+3
   1.33577E+3   4.30560E+2
   4.70843E+2  -1.15308E+2
  -8.04009E+2   1.34109E+3
  -2.80916E+3   4.33487E+2
  -3.29946E+3  -1.37658E+3
  -9.56965E+2  -1.17040E+3
  -1.18040E+2  -1.25111E+2
  -8.38435E+1   9.60956E+2
  -4.75953E+1  -1.67197E+3
   9.91752E+1  -6.11083E+2
   4.01711E+2   6.80483E+2
  -6.90122E+2  -3.47466E+2
  -3.40156E+3  -1.71139E+3
  -6.35499E+2  -1.28475E+3
   2.58114E+3  -4.12770E+2
   1.62208E+3   1.63753E+3
  -1.02449E+3   2.78284E+3
  -2.01616E+3   2.51884E+3
  -9.15358E+2  -1.52941E+3
  -2.39653E+2  -2.50954E+3
  -1.40034E+3  -6.27060E+2
  -3.20269E+2  -1.50917E+3
   3.86151E+2   3.37300E+2
   9.57993E+1  -1.52539E+3
   8.48269E+2   3.15912E+1
  -6.75125E+2   9.83511E+2
   1.63410E+3  -6.26540E+2
  -4.51634E+1   8.33429E+2
  -1.10969E+3  -1.66082E+3
   2.20495E+2  -7.85874E+2
  -1.18370E+2  -2.56347E+2
   1.54079E+3   8.43894E+2
  -1.49207E+3  -5.96596E+2
  -3.03844E+2   1.30372E+2
  -1.38040E+3  -2.48184E+3
  -2.62577E+2  -2.60385E+3
   2.52221E+3  -7.67703E+2
   1.35726E+3   1.90323E+3
   9.78131E+2   4.67451E+2
  -1.69650E+3   1.19843E+3
  -6.14023E+2  -6.53183E+2
   9.60809E+2   6.83756E+2
  -1.76314E+2   6.56891E+2
   6.57033E+2  -1.27320E+3
  -4.11676E+2  -2.05852E+3
   1.24689E+3   7.60706E+2
   1.98358E+3   1.05078E+3
   4.13508E+2  -6.72085E+2
   4.09555E+2  -9.22983E+2
   1.76915E+3  -1.13760E+2
   2.31739E+2   3.79957E+2
   5.53700E+2   1.20296E+3
  -5.60051E+2   2.99608E+2
  -1.97547E+3   5.84697E+2
  -1.65195E+2  -4.60581E+2
   6.60787E+1  -4.68137E+1
   1.95400E+3  -8.52294E+2
  -1.40177E+3  -3.11022E+2
   4.62861E+1  -7.89006E+2
  -4.53079E+2   1.68056E+3
   6.99834E+2   1.99180E+3
  -5.64666E+2   1.83754E+3
  -1.68898E+3  -8.79724E+2
   5.97553E+2   1.86401E+3
   4.12084E+2   1.04958E+3
   3.79165E+2  -9.87606E+2
   2.45548E+2  -9.83318E+2
   5.77605E+2  -1.04154E+2
   1.48188E+3   1.62694E+3
  -1.49920E+2   4.50821E+1
   2.27046E+2   1.11215E+3
   1.35013E+3  -2.81361E+3
   2.14507E+2  -2.40105E+2
   1.63494E+2   2.50107E+3
   2.20749E+3   6.94133E+2
  -7.24430E+1  -1.72407E+3
   1.36469E+3   2.72107E+3
  -3.45682E+2  -8.40832E+2
   9.30468E+2   6.14435E+2
  -1.00385E+2  -7.77247E+2
   9.35608E+2   7.96234E+2
   9.17303E+2   2.72135E+2
   2.92862E+2   1.34914E+3
  -1.64231E+3   1.61792E+3
  -7.11520E+1  -1.29926E+3
   7.85336E+1  -1.50940E+3
   1.44900E+3  -4.19791E+2
   8.53042E+2  -2.74928E+2
  -5.20824E+2   1.18420E+2
   1.96973E+2   2.47053E+2
   2.18699E+3  -1.34183E+1
   1.24323E+3   1.85232E+3
  -1.53331E+3  -3.51479E+2
  -7.50818E+2  -4.48577E+2
   1.20770E+3  -2.40222E+2
   1.83966E+3  -7.95447E+2
   1.03833E+3   1.58528E+3
   8.31797E+2  -4.72973E+2
   2.24844E+2  -3.99917E+2
  -1.29804E+3   1.36542E+2
   1.10920E+2   9.35478E+1
  -1.17089E+3   1.30391E+3
   3.71469E+2  -1.31948E+3
   1.34685E+3   4.47330E+2
  -1.36930E+3  -2.22890E+2
   6.50551E+2   3.00333E+3
   1.74834E+2   1.65883E+2
   1.14006E+3  -3.76378E+1
   4.59235E+2  -6.76603E+2
   3.49447E+2   1.14490E+3
  -6.65216E+2   7.37952E+2
   2.91068E+2   1.88664E+3
  -1.12216E+3  -3.10398E+1
  -1.76391E+3   1.05862E+3
   2.55608E+2   7.94085E+2
  -3.04090E+3  -2.05569E+3
  -8.18760E+1  -1.07483E+3
   2.75162E+3   1.31746E+3
   1.10029E+2  -7.82001E+2
   3.81106E+2   2.91815E+3
   8.66850E+2  -1.82438E+3
   5.91123E+2  -3.05687E+2
   1.10050E+3   4.88958E+2
   4.33430E+2   1.66489E+3
   1.59983E+3   5.58943E+2
   5.85220E+2   2.75085E+1
   5.61627E+2  -9.56336E+2
  -3.38382E+2   8.14005E+2
  -1.02443E+3  -6.01270E+2
   7.77796E+2  -1.14131E+3
   2.04724E+3  -5.97165E+2
   1.28780E+3   2.18126E+2
   1.32840E+2   1.09742E+3
  -1.15859E+3  -5.10409E+2
   3.33575E+2  -6.06993E+2
   1.35269E+3   1.11723E+2
   1.13935E+3  -2.32723E+3
  -4.09504E+2   5.03968E+2
  -4.66308E+1  -8.03579E+2
   2.70761E+3  -4.14877E+2
   2.73676E+1   1.69948E+3
  -8.84803E+2  -7.52053E+2
  -2.19448E+2  -1.00715E+3
  -1.52395E+3  -5.60311E+2
   1.02798E+3  -9.02869E+2
  -3.05334E+2   1.04411E+3
   9.99930E+2   2.86361E+2
  -2.31723E+3   1.64466E+2
   1.42231E+3   1.80636E+3
   5.22864E+2   5.31838E+2
  -4.41973E+2  -4.42828E+2
  -3.30124E+2  -1.20663E+3
   2.01500E+3  -1.71013E+3
   1.56762E+3  -4.06084E+2
   9.32637E+2   3.46004E+2
   1.09392E+3   1.25163E+3
  -5.96790E+1  -2.06522E+3
  -1.09120E+3  -4.50645E+2
   4.68056E+2   7.15126E+2
  -5.94887E+2  -6.68462E+2
   1.55846E+3  -9.71503E+2
  -1.01241E+2   1.17474E+3
   1.71029E+3  -5.59587E+1
   2.84116E+3   1.31711E+2
  -5.40788E+2  -2.24935E+2
  -2.49105E+3  -8.61578E+1
   2.30526E+2  -8.42197E+2
   1.73754E+2   1.02397E+2
  -1.78923E+3   9.28146E+2
  -1.18838E+3  -6.41338E+2
   1.68678E+3   5.09721E+2
   6.05647E+2   4.48025E+2
   8.08863E+2   3.80803E+2
   9.59335E+2  -5.14382E+2
  -1.96951E+2  -9.22557E+2
  -9.16406E+2  -1.08466E+3
  -2.02408E+2   7.66011E+2
  -6.01630E+2   1.09150E+3
  -1.45970E+3  -2.46058E+3
   5.53923E+2  -1.45562E+3
   1.53160E+3   2.00064E+2
   1.01762E+2   7.37970E+2
   1.78925E+2  -7.07540E+2
  -3.18205E+1  -3.69486E+1
  -4.12601E+2   6.46066E+2
  -6.98936E+2   1.71210E+2
  -1.04157E+3   3.28722E+2
  -1.43161E+3  -2.42052E+3
   1.10774E+3  -2.07760E+2
   8.72432E+2  -5.63303E+2
  -6.97459E+2   1.37262E+3
  -4.98402E+2  -1.09699E+3
  -1.42338E+2  -4.24770E+2
   1.18406E+3  -5.30950E+1
   7.42145E+2  -1.31071E+3
   1.17101E+3  -3.47075E+2
  -1.40972E+3   1.06405E+3
  -1.97208E+2   1.05668E+3
   1.57141E+3  -2.51482E+2
  -4.19237E+2   5.00922E+2
  -7.68347E+2  -7.15844E+2
  -3.58014E+1   2.02244E+2
   1.60077E+2   5.00057E+2
   2.99469E+2   1.28893E+3
  -9.31768E+2   1.38259E+3
   3.18463E+2   1.25903E+3
  -2.18354E+3   2.44819E+3
  -6.83816E+2   6.23822E+2
  -1.90367E+3  -1.03380E+3
   9.96488E+1   1.34227E+3
  -1.14697E+3  -3.05425E+1
   1.47425E+3  -1.72821E+3
   1.16789E+3   1.30567E+3
   7.64089E+1   1.48440E+2
  -1.83952E+3   1.85565E+3
   5.04777E+2  -6.15144E+2
   5.87272E+2  -1.49127E+3
  -3.13803E+2  -1.85697E+1
  -1.12285E+3  -1.48989E+3
   1.20948E+3  -4.23730E+2
   9.51280E+2   4.43693E+2
  -1.41619E+3  -7.86788E+2
   1.03018E+3   1.69983E+2
   6.53650E-1  -1.34143E+3
   1.03924E+3  -2.68555E+2
   9.28994E+2  -1.01357E+3
  -2.28777E+3   1.02235E+3
   6.09761E+2   1.10334E+3
   1.30084E+2   1.68954E+3
   1.93189E+3   5.11490E+2
   1.16745E+3   8.32553E+2
  -5.67500E+2   1.22958E+3
   1.31806E+3   5.45728E+2
   1.29284E+3  -3.41695E+2
  -2.00442E+3   7.31775E+2
  -3.01326E+2  -2.50792E+2
  -1.40828E+3  -7.19851E+2
   1.55230E+2  -1.16409E+3
  -4.62065E+2  -9.89327E+1
  -1.41363E+2   1.42047E+3
  -3.72744E+2  -3.13140E+1
   9.75142E+1  -6.51719E+2
   7.08527E+1  -1.59623E+3
   8.92606E+1  -2.76420E+2
   7.95322E+2   1.32093E+3
   7.89169E+1   7.45755E+2
  -6.37538E+2  -9.74925E+2
  -1.15162E+3   1.65554E+3
  -3.16225E+2   7.71019E+2
