 
 $NMID
 ID=''
 FMTDAT='(2E13.5)'
 TRAMP=   1.00000E+0
 VOLUME=   1.00000E+0
 $END
   8.98288E+2  -2.95752E+2
  -9.93270E+1   1.92659E+3
   1.86233E+3  -4.62927E+3
  -3.31586E+3  -6.60760E+2
  -2.93700E+3   1.55785E+3
   6.60640E+2   2.24332E+3
   2.09826E+3   4.20948E+3
   1.40773E+3   2.96516E+3
   4.79881E+3   1.48489E+2
   3.62820E+3  -2.80422E+3
   1.82743E+3  -7.13666E+3
   4.45110E+3  -6.53145E+3
   2.78384E+2   8.99307E+2
  -4.49402E+3   1.06760E+3
  -5.95738E+3  -2.28430E+3
  -2.57787E+3  -4.45915E+3
   1.37078E+3  -2.05274E+1
   1.33882E+3   3.21136E+3
  -1.61728E+3   4.03259E+3
  -5.33211E+2  -1.94986E+3
   4.86229E+3  -1.41374E+3
   2.75153E+3   2.13905E+3
  -2.62278E+3   1.10847E+3
  -2.91752E+3  -5.50350E+3
   2.94135E+3  -4.51015E+3
   1.66196E+3   2.75001E+3
  -4.77553E+3   4.04979E+3
  -5.64166E+3  -1.10850E+3
  -1.84538E+3  -2.94808E+3
   4.82281E+3  -8.85779E+2
   6.88274E+3   7.92306E+3
   1.05003E+2   8.08207E+3
  -7.37894E+3   1.05114E+3
   5.85688E+2  -9.26205E+2
   4.82241E+2   2.74337E+3
  -1.57442E+3  -9.07856E+2
   4.79946E+3  -3.90968E+3
   5.82729E+3   2.67635E+3
   1.47199E+3   4.11117E+3
  -1.86889E+3   2.07686E+3
  -1.90171E+3   3.82806E+3
  -8.27068E+3  -7.62584E+1
  -4.65901E+3  -7.34953E+3
  -3.06594E+1  -5.37706E+3
   1.38840E+3   1.56057E+3
  -1.01481E+3   3.79010E+3
  -6.25730E+2   4.16415E+3
  -2.72096E+3   5.73737E+3
  -2.90134E+3   5.28588E+3
  -4.70181E+3   3.46331E+3
  -4.08971E+3   9.65072E+2
  -1.44657E+3  -1.82206E+3
   3.98377E+3  -8.02602E+2
   2.42776E+3   1.79983E+3
  -2.05909E+3   1.98021E+3
  -3.12790E+3   9.65083E+2
  -2.53229E+3   1.64867E+3
  -3.89134E+3  -4.38319E+3
  -2.23226E+3  -7.36164E+3
   2.43171E+3  -6.89487E+3
   4.71261E+3  -4.14717E+3
   5.83583E+3  -4.26562E+2
   1.47751E+3   3.63083E+3
  -1.05596E+3   2.65051E+2
   2.43702E+3  -1.14662E+3
   1.82173E+3   2.23053E+3
  -6.63241E+2   2.73386E+3
  -1.45216E+3   1.65776E+1
  -4.58027E+1  -1.19485E+3
   2.01581E+3  -7.50272E+2
   9.96164E+2   8.71560E+2
  -1.47278E+3  -1.44362E+3
   1.46794E+3  -2.77734E+3
   3.18513E+2  -3.47468E+3
   3.11466E+3  -2.43805E+3
   5.22904E+2   6.64586E+2
   2.21146E+2  -1.66870E+3
   1.67544E+3  -2.84213E+3
   4.54123E+3  -7.12882E+2
   2.47055E+3   3.06399E+3
   2.68805E+2   8.02567E+2
   7.68594E+2   7.16324E+2
   3.06382E+3   1.65126E+3
  -1.83971E+2   3.83492E+3
  -1.71799E+3  -5.76049E+1
  -3.14928E+3   9.29939E+1
  -1.28434E+3  -5.00262E+3
   4.13293E+3  -2.62455E+3
   3.63645E+3   1.64142E+3
   4.12032E+2   2.40242E+3
  -3.55757E+2   1.51380E+3
  -5.60889E+2   2.28356E+3
  -1.74858E+2   2.83924E+3
  -2.10171E+3   3.76891E+3
  -3.61863E+3   2.08232E+2
   1.13104E+3  -4.47907E+3
   2.36743E+3  -7.18963E+2
   2.36689E+3   1.27746E+3
  -3.44640E+3   1.23761E+3
  -4.62026E+3  -2.22559E+3
   1.23130E+3  -2.33074E+3
   3.55982E+3  -4.54843E+2
   1.39099E+3   2.88510E+3
  -3.57042E+3   2.97157E+3
  -2.35602E+3   1.74933E+3
  -1.13963E+3  -1.66272E+3
  -1.86590E+3  -6.92295E+2
  -3.51681E+3  -2.08293E+3
  -1.71597E+3  -3.98847E+3
   2.43405E+3  -4.44887E+3
   3.87606E+3  -9.86733E+2
   2.77748E+3   1.13054E+3
   6.20083E+2   3.33690E+3
  -8.94623E+2   2.48023E+3
  -1.07757E+3   2.44922E+3
  -3.00856E+3  -5.68009E+2
  -3.29679E+3  -3.89367E+2
  -1.29367E+3  -2.07893E+3
  -2.47981E+1   1.24803E+3
   1.15441E+3  -2.44668E+2
  -1.55010E+3   7.74115E+2
  -2.35697E+3   4.44723E+1
  -3.26280E+2  -3.45742E+3
   3.01741E+2  -1.76723E+3
  -9.81046E+2   8.86639E+2
  -2.12043E+3  -1.69894E+2
  -2.03004E+2  -3.04666E+3
   1.10660E+3   7.24563E+2
  -1.29463E+3   2.16624E+2
  -2.26476E+3  -1.00841E+3
   7.58981E+2  -1.37454E+3
   2.55084E+2  -8.66278E+2
   1.66244E+3   1.12687E+3
  -5.26693E+2   2.89296E+3
  -4.40510E+3   3.38629E+3
  -3.45369E+3   5.71284E+2
  -1.32611E+3  -1.59094E+3
  -8.94571E+2  -1.29411E+3
   9.84902E+2  -1.05529E+3
   4.37699E+2   2.87330E+2
  -4.49601E+2   6.25806E+2
  -2.24419E+2  -1.63250E+3
   1.04772E+3   1.36621E+3
   2.99954E+2   2.95510E+3
  -1.36313E+3  -7.76650E+2
   9.97177E+2  -1.60627E+3
  -6.11839E+1   8.91361E+2
  -3.62429E+2   5.03678E+2
  -2.07498E+2   1.04766E+3
  -8.52266E+2   7.58359E+2
  -1.54668E+3   8.67569E+2
  -1.38689E+3   8.11266E+1
   2.29170E+3  -1.48714E+3
  -4.52615E+2  -1.02439E+3
   3.99977E+3  -1.84770E+2
   2.57226E+3   1.77549E+3
  -1.05360E+3   1.31562E+3
  -6.06269E+2   2.91052E+2
  -1.56769E+3  -1.94941E+3
  -7.56807E+1   5.36664E+2
  -1.46079E+3  -4.12343E+2
  -1.23046E+3  -9.11358E+2
   1.35031E+3  -1.87057E+3
   6.89748E+2   1.36648E+3
   2.06878E+2   8.44599E+2
  -8.52109E+2  -1.13756E+3
   5.99479E+2  -3.09528E+3
   1.74240E+3  -7.99482E+2
   3.92743E+3   1.08779E+3
   3.61465E+2   3.62578E+3
  -3.27282E+0  -1.00501E+3
  -2.03112E+2  -1.43518E+3
  -3.55871E+2  -8.77822E+2
   1.33604E+3   2.18876E+2
  -2.58089E+2   5.36912E+1
   8.17015E+2  -2.14434E+2
   1.70754E+3   3.32308E+2
  -4.73481E+2   1.00276E+3
  -3.99196E+2   1.89521E+2
  -1.88140E+3  -4.52980E+2
  -1.90994E+3   5.18510E+0
   2.04302E+3  -8.91321E+2
   2.14787E+3  -7.37554E+1
   3.44605E+2   5.92746E+2
   1.24173E+3  -7.91192E+2
   8.55623E+2   2.87560E+2
   9.73618E+1   1.48868E+3
  -2.72889E+3  -8.36851E+2
  -1.30265E+3  -6.79291E+2
  -5.52351E+2  -2.63351E+3
   2.17073E+3   1.49175E+3
   1.53935E+3   3.94119E+2
  -1.47061E+3   8.96797E+2
   2.65682E+3   3.99650E+2
   2.02257E+3  -6.96521E+2
   1.30483E+3  -7.93232E+2
  -2.03310E+3  -8.55480E+2
   8.43206E+1   3.94222E+2
   1.12238E+3  -1.21861E+3
  -1.64406E+2   1.32213E+3
  -2.18280E+3   1.76990E+3
  -2.44689E+3  -1.51196E+3
   1.74161E+1  -3.38139E+3
   2.08794E+3  -3.10527E+3
   7.29857E+2   1.61024E+3
   6.54721E+2   1.23647E+3
  -1.79066E+1  -9.23029E+2
   1.34807E+3   7.76631E+2
   9.65388E+2   2.09949E+3
  -2.81771E+3   5.74157E+2
  -4.02678E+2  -2.39488E+3
   2.64499E+2  -2.26852E+3
   8.52099E+2  -1.64036E+3
   2.48734E+3   1.92799E+3
  -1.72078E+3   2.64848E+3
  -5.24165E+2   1.02674E+3
   4.54438E+2  -7.19894E+2
   1.13326E+2  -1.31001E+3
  -4.38548E+2  -1.12978E+3
   2.81632E+2  -9.91885E+2
   8.34876E+2  -3.74633E+2
   2.12776E+3   1.18246E+3
   8.11115E+2   5.99809E+2
   2.79990E+3  -1.32818E+3
  -1.38149E+3  -1.81083E+2
   6.68648E+2   1.57045E+2
   7.52315E+2   1.07772E+3
   4.75823E+1  -1.73157E+2
  -5.55038E+2   6.19002E+1
  -4.09091E+2  -1.25416E+3
   1.26071E+3  -1.95939E+3
  -6.55690E+2   2.28230E+3
  -1.20085E+3  -1.91488E+3
   9.02431E+2  -1.82473E+3
   3.06019E+3  -1.35638E+2
   1.02916E+3   3.13974E+3
  -3.04630E+3   2.49044E+3
  -2.73969E+3   1.65863E+3
   1.15974E+3  -1.72774E+3
   2.98501E+2   8.78036E+2
   2.35410E+3   5.54456E+2
  -2.70552E+3   3.44658E+2
   9.89047E+1  -8.43171E+2
  -1.20937E+3  -7.34447E+2
   4.89480E+2  -8.99549E+2
  -9.82533E+2   1.88953E+3
   3.18681E+2  -2.21528E+3
   2.28656E+3  -1.07274E+3
   1.62457E+3   8.83410E+2
  -1.33907E+3   3.78807E+3
  -2.13040E+3   4.99226E+2
  -2.73417E+2  -4.81920E+2
   5.68899E+2  -2.84098E+3
  -9.95441E+2   5.83358E+2
   5.07194E+2   2.62927E+2
  -2.77156E+1  -6.43800E+1
   1.28824E+3  -1.00331E+3
   1.44689E+1   3.48278E+2
  -1.73071E+2   3.36002E+3
  -1.59008E+3  -1.54318E+3
  -1.28280E+3  -3.32758E+3
   1.69848E+3  -3.81940E+2
   2.25744E+3   9.17279E+2
   5.82573E+2   1.11761E+3
   6.86163E+2   3.67284E+2
   1.52014E+3  -3.33483E+2
   1.12020E+3  -1.96024E+2
  -2.26848E+3  -4.55587E+2
  -6.26521E+2  -8.06215E+1
   2.10237E+2  -4.78894E+2
   1.19844E+3   9.72663E+2
  -1.10500E+3   3.78739E+2
  -2.15323E+3   1.91862E+3
  -1.59343E+3  -1.22076E+3
  -5.95842E+2  -1.63693E+3
   8.13800E+2   1.21169E+3
  -2.70948E+1  -2.81694E+1
   6.39981E+2  -8.71696E+2
  -6.61322E+2  -2.50951E+3
  -2.63052E+2  -2.19921E+3
  -7.34053E+1   9.66773E+2
  -1.01078E+3   6.24586E+2
  -2.50032E+3  -3.68358E+2
   5.75601E+2  -1.25350E+3
   2.33128E+3  -1.01904E+3
   5.80298E+2  -5.61237E+2
  -1.80269E+3  -1.05263E+3
  -3.21689E+2  -4.90211E+2
   2.48102E+3  -7.24425E+1
   9.28240E+2   3.34876E+2
  -6.40465E+2   7.95571E+2
  -1.44672E+3   3.16562E+2
   2.06815E+2   2.45689E+3
  -4.88774E+2   1.22789E+3
  -7.03877E+2  -1.07212E+3
  -1.05266E+3  -1.02418E+3
   3.56605E+2  -4.66967E+2
   2.27808E+3  -1.93270E+3
   3.05360E+3  -4.46484E+2
   8.50530E+2  -5.26538E+2
  -5.18916E+2  -2.50501E+2
  -4.58867E+2   1.98630E+3
   1.07136E+3   3.29527E+2
  -1.16573E+2   1.69366E+2
   8.13339E+2  -2.68056E+3
  -6.23488E+2  -1.69528E+3
   8.41139E+2   2.07162E+3
   4.86091E+2   4.72348E+2
  -1.26546E+3  -3.02155E+2
  -4.41361E+2  -1.15303E+3
   4.18839E+2  -1.25797E+3
   1.43842E+3   3.38162E+2
   7.55262E+1   1.88350E+2
   9.09586E+2   3.49290E+2
  -1.19357E+2   1.80941E+3
   1.88406E+3   1.13157E+3
  -3.41419E+2   2.43536E+3
  -2.98559E+3   5.35644E+1
   1.97843E+3  -3.37484E+3
   1.47550E+3  -1.43247E+3
   3.45473E+3   1.47969E+3
   8.19401E+0   7.24832E+2
  -3.16870E+3  -5.60300E+2
  -8.53240E+2  -7.94649E+2
  -8.21135E+2  -5.84522E+2
   2.76138E+3   1.64350E+2
  -1.35552E+3  -2.56032E+3
  -1.71671E+3  -3.59649E+2
   1.35763E+3   1.08022E+3
   2.05107E+3   2.43886E+3
   8.54674E+2   1.38598E+3
   2.29384E+2  -8.40053E+0
  -1.08878E+3   1.61982E+2
   2.88087E+2  -4.78666E+2
  -5.85477E+2   5.50703E+2
   1.45535E+2  -2.52073E+3
   7.23912E+1   3.71749E+2
   2.42698E+3  -3.97680E+2
   3.13300E+2   2.45745E+1
  -2.37770E+3  -8.39736E+2
  -1.69822E+3  -3.49354E+2
  -3.16716E+2   1.66790E+2
   6.93636E+2   2.73957E+2
   4.48331E+2   1.64290E+3
  -1.10600E+2   1.41548E+3
  -1.21044E+3   1.25153E+3
   1.10078E+3  -1.90505E+2
   4.15631E+2  -2.57204E+2
  -2.64888E+2   1.33169E+2
   1.22656E+3  -2.63685E+3
   1.73658E+3  -1.16122E+3
   7.74542E+2   1.65542E+2
   5.07559E+2   8.91223E+2
   7.25139E+2  -3.78380E+2
   1.83317E+3  -1.38934E+2
  -2.72213E+2  -4.34305E+2
   1.60989E+3   4.10427E+2
  -4.22115E+1   1.50963E+3
  -7.99211E+2   1.53048E+3
  -1.07364E+3   1.34265E+3
   3.03978E+3   4.98652E+2
  -1.27530E+2   1.26223E+3
   6.26899E+2  -2.30583E+3
   7.88503E+2  -1.60494E+2
   9.80183E+2   7.99000E+2
  -9.43116E+1   1.40592E+3
   5.53063E+2   1.12362E+3
