 
 $NMID
 ID=''
 FMTDAT='(2E13.5)'
 TRAMP=   1.00000E+0
 VOLUME=   1.00000E+0
 $END
  -1.66030E+4   1.38056E+4
  -5.13712E+4   2.20273E+4
  -4.67422E+4   3.04851E+4
  -4.33548E+4   2.81680E+4
  -4.60037E+4   2.79793E+4
  -4.47522E+4   3.01447E+4
  -4.33078E+4   2.86292E+4
  -4.44800E+4   2.82614E+4
  -4.35572E+4   2.94312E+4
  -4.25246E+4   2.83352E+4
  -4.30627E+4   2.76432E+4
  -4.21756E+4   2.83787E+4
  -4.13132E+4   2.77175E+4
  -4.20661E+4   2.70731E+4
  -4.15459E+4   2.74567E+4
  -4.08680E+4   2.68047E+4
  -4.12938E+4   2.65519E+4
  -4.08678E+4   2.68568E+4
  -4.03423E+4   2.64405E+4
  -4.05545E+4   2.62266E+4
  -4.01677E+4   2.63695E+4
  -3.95256E+4   2.62828E+4
  -3.97111E+4   2.60907E+4
  -3.94371E+4   2.62549E+4
  -3.88751E+4   2.59763E+4
  -3.88645E+4   2.59559E+4
  -3.85979E+4   2.60232E+4
  -3.81576E+4   2.56602E+4
  -3.80911E+4   2.53859E+4
  -3.76435E+4   2.54097E+4
  -3.71518E+4   2.54142E+4
  -3.69715E+4   2.52789E+4
  -3.67754E+4   2.52145E+4
  -3.62550E+4   2.49506E+4
  -3.59489E+4   2.48920E+4
  -3.55944E+4   2.49118E+4
  -3.51381E+4   2.46998E+4
  -3.47905E+4   2.46210E+4
  -3.44976E+4   2.46906E+4
  -3.41680E+4   2.46173E+4
  -3.39011E+4   2.44471E+4
  -3.37311E+4   2.44302E+4
  -3.34716E+4   2.40493E+4
  -3.31464E+4   2.39821E+4
  -3.28125E+4   2.39486E+4
  -3.26605E+4   2.38553E+4
  -3.24096E+4   2.36836E+4
  -3.21771E+4   2.36203E+4
  -3.19359E+4   2.35777E+4
  -3.18219E+4   2.35449E+4
  -3.16156E+4   2.33766E+4
  -3.13850E+4   2.32450E+4
  -3.11314E+4   2.31691E+4
  -3.09035E+4   2.32241E+4
  -3.07875E+4   2.31046E+4
  -3.06120E+4   2.30084E+4
  -3.04428E+4   2.30187E+4
  -3.03103E+4   2.28868E+4
  -3.00966E+4   2.27275E+4
  -2.98337E+4   2.26954E+4
  -2.96060E+4   2.25726E+4
  -2.94571E+4   2.25470E+4
  -2.92747E+4   2.23967E+4
  -2.91750E+4   2.24240E+4
  -2.90259E+4   2.22200E+4
  -2.87629E+4   2.21683E+4
  -2.86451E+4   2.21386E+4
  -2.85394E+4   2.20576E+4
  -2.84200E+4   2.19411E+4
  -2.82725E+4   2.18215E+4
  -2.80707E+4   2.18469E+4
  -2.79130E+4   2.17737E+4
  -2.77258E+4   2.16708E+4
  -2.75716E+4   2.15599E+4
  -2.73380E+4   2.14330E+4
  -2.71846E+4   2.14488E+4
  -2.70724E+4   2.13691E+4
  -2.68970E+4   2.12548E+4
  -2.67184E+4   2.11891E+4
  -2.65380E+4   2.11302E+4
  -2.64054E+4   2.10778E+4
  -2.62144E+4   2.09812E+4
  -2.61171E+4   2.08721E+4
  -2.60705E+4   2.08200E+4
  -2.59176E+4   2.07214E+4
  -2.58868E+4   2.06671E+4
  -2.56801E+4   2.04238E+4
  -2.55842E+4   2.04669E+4
  -2.54142E+4   2.03534E+4
  -2.53312E+4   2.03420E+4
  -2.51697E+4   2.02541E+4
  -2.51196E+4   2.01333E+4
  -2.49391E+4   2.01162E+4
  -2.49308E+4   2.01020E+4
  -2.49103E+4   1.99279E+4
  -2.46725E+4   1.98095E+4
  -2.45126E+4   1.96905E+4
  -2.44907E+4   1.96462E+4
  -2.43977E+4   1.95932E+4
  -2.43502E+4   1.93880E+4
  -2.42308E+4   1.93114E+4
  -2.40599E+4   1.92607E+4
  -2.39909E+4   1.91275E+4
  -2.39439E+4   1.90914E+4
  -2.38342E+4   1.89951E+4
  -2.37509E+4   1.88576E+4
  -2.36973E+4   1.88710E+4
  -2.35893E+4   1.87716E+4
  -2.35039E+4   1.85526E+4
  -2.33954E+4   1.83863E+4
  -2.31881E+4   1.83484E+4
  -2.31499E+4   1.82647E+4
  -2.30626E+4   1.82009E+4
  -2.30003E+4   1.81429E+4
  -2.28933E+4   1.80018E+4
  -2.28779E+4   1.78920E+4
  -2.28104E+4   1.76963E+4
  -2.26333E+4   1.75980E+4
  -2.25481E+4   1.74677E+4
  -2.24967E+4   1.73911E+4
  -2.23535E+4   1.72724E+4
  -2.22410E+4   1.71476E+4
  -2.22006E+4   1.69610E+4
  -2.20101E+4   1.69127E+4
  -2.18769E+4   1.68556E+4
  -2.17589E+4   1.66816E+4
  -2.16913E+4   1.66233E+4
  -2.15424E+4   1.64986E+4
  -2.13609E+4   1.63730E+4
  -2.13453E+4   1.63713E+4
  -2.11706E+4   1.61598E+4
  -2.10923E+4   1.60843E+4
  -2.09619E+4   1.59700E+4
  -2.08081E+4   1.59554E+4
  -2.07317E+4   1.58510E+4
  -2.05828E+4   1.57969E+4
  -2.05606E+4   1.56336E+4
  -2.04310E+4   1.55586E+4
  -2.02145E+4   1.54929E+4
  -2.01346E+4   1.54533E+4
  -2.00251E+4   1.53523E+4
  -1.99140E+4   1.52109E+4
  -1.97576E+4   1.51184E+4
  -1.96606E+4   1.51077E+4
  -1.94815E+4   1.49753E+4
  -1.93541E+4   1.48865E+4
  -1.92012E+4   1.48232E+4
  -1.91971E+4   1.47653E+4
  -1.91224E+4   1.46937E+4
  -1.88954E+4   1.46796E+4
  -1.87740E+4   1.45625E+4
  -1.87316E+4   1.45176E+4
  -1.85765E+4   1.44490E+4
  -1.84754E+4   1.44159E+4
  -1.83225E+4   1.43843E+4
  -1.82535E+4   1.43113E+4
  -1.81342E+4   1.42491E+4
  -1.80101E+4   1.41311E+4
  -1.78642E+4   1.41606E+4
  -1.77526E+4   1.40860E+4
  -1.75866E+4   1.39937E+4
  -1.75473E+4   1.38992E+4
  -1.73667E+4   1.38429E+4
  -1.72919E+4   1.38476E+4
  -1.71410E+4   1.37874E+4
  -1.70760E+4   1.37318E+4
  -1.69482E+4   1.35993E+4
  -1.67800E+4   1.35694E+4
  -1.66259E+4   1.35642E+4
  -1.65313E+4   1.35241E+4
  -1.64294E+4   1.34221E+4
  -1.63300E+4   1.33886E+4
  -1.61729E+4   1.33405E+4
  -1.60531E+4   1.33058E+4
  -1.59324E+4   1.31932E+4
  -1.57797E+4   1.32133E+4
  -1.56788E+4   1.31610E+4
  -1.55463E+4   1.30720E+4
  -1.54257E+4   1.30810E+4
  -1.53859E+4   1.30245E+4
  -1.52110E+4   1.29574E+4
  -1.49604E+4   1.28955E+4
  -1.49525E+4   1.28159E+4
  -1.48508E+4   1.27705E+4
  -1.46260E+4   1.27734E+4
  -1.44795E+4   1.27242E+4
  -1.44575E+4   1.26522E+4
  -1.43332E+4   1.26763E+4
  -1.42327E+4   1.25802E+4
  -1.40559E+4   1.24999E+4
  -1.39219E+4   1.24214E+4
  -1.37764E+4   1.23920E+4
  -1.36721E+4   1.23229E+4
  -1.35553E+4   1.23059E+4
  -1.34158E+4   1.22236E+4
  -1.33172E+4   1.21442E+4
  -1.31735E+4   1.20971E+4
  -1.30656E+4   1.20925E+4
  -1.29095E+4   1.20662E+4
  -1.28116E+4   1.20096E+4
  -1.26758E+4   1.19638E+4
  -1.25912E+4   1.18628E+4
  -1.24637E+4   1.18029E+4
  -1.23160E+4   1.16809E+4
  -1.21166E+4   1.17079E+4
  -1.20453E+4   1.17124E+4
  -1.19227E+4   1.15712E+4
  -1.17823E+4   1.15614E+4
  -1.16427E+4   1.14736E+4
  -1.15948E+4   1.15129E+4
  -1.14656E+4   1.13672E+4
  -1.13403E+4   1.13335E+4
  -1.11982E+4   1.12503E+4
  -1.10962E+4   1.11830E+4
  -1.09661E+4   1.11500E+4
  -1.08062E+4   1.11072E+4
  -1.07164E+4   1.10940E+4
  -1.07111E+4   1.10038E+4
  -1.04971E+4   1.09540E+4
  -1.04168E+4   1.08836E+4
  -1.03178E+4   1.07818E+4
  -1.01983E+4   1.07662E+4
  -1.00238E+4   1.07102E+4
  -9.94035E+3   1.06017E+4
  -9.81874E+3   1.06134E+4
  -9.69633E+3   1.05879E+4
  -9.54050E+3   1.04828E+4
  -9.50199E+3   1.03898E+4
  -9.38853E+3   1.03407E+4
  -9.26030E+3   1.03308E+4
  -9.16650E+3   1.02885E+4
  -9.05931E+3   1.01861E+4
  -8.90480E+3   1.01506E+4
  -8.88185E+3   1.00312E+4
  -8.78090E+3   9.97101E+3
  -8.63365E+3   9.90896E+3
  -8.58675E+3   9.91544E+3
  -8.45866E+3   9.80305E+3
  -8.52734E+3   9.78916E+3
  -8.32735E+3   9.70967E+3
  -8.19964E+3   9.66894E+3
  -8.12873E+3   9.65768E+3
  -8.01803E+3   9.56901E+3
  -7.96431E+3   9.51264E+3
  -7.85033E+3   9.43977E+3
  -7.81580E+3   9.39716E+3
  -7.69297E+3   9.27753E+3
  -7.53930E+3   9.23975E+3
  -7.49857E+3   9.13017E+3
  -7.39512E+3   9.04801E+3
  -7.34840E+3   9.07786E+3
  -7.25989E+3   9.00329E+3
  -7.25894E+3   8.92986E+3
  -7.09789E+3   8.84740E+3
  -7.00262E+3   8.78620E+3
  -6.91423E+3   8.70313E+3
  -6.86889E+3   8.67630E+3
  -6.80800E+3   8.58491E+3
  -6.66255E+3   8.48740E+3
  -6.57369E+3   8.49857E+3
  -6.55335E+3   8.45014E+3
  -6.53068E+3   8.29933E+3
  -6.39988E+3   8.26122E+3
  -6.33329E+3   8.26951E+3
  -6.30731E+3   8.20484E+3
  -6.22239E+3   8.09480E+3
  -6.10127E+3   8.06526E+3
  -6.03596E+3   7.99660E+3
  -6.03308E+3   7.90349E+3
  -5.92987E+3   7.79558E+3
  -5.84541E+3   7.75614E+3
  -5.75386E+3   7.76949E+3
  -5.74746E+3   7.66107E+3
  -5.80067E+3   7.66530E+3
  -5.63119E+3   7.54683E+3
  -5.57138E+3   7.46380E+3
  -5.44005E+3   7.43692E+3
  -5.47022E+3   7.36952E+3
  -5.36339E+3   7.27030E+3
  -5.39471E+3   7.23498E+3
  -5.25051E+3   7.19683E+3
  -5.29255E+3   7.14104E+3
  -5.17526E+3   7.07305E+3
  -5.15694E+3   6.95041E+3
  -5.03560E+3   6.87279E+3
  -5.01862E+3   6.83440E+3
  -4.99739E+3   6.80486E+3
  -4.91805E+3   6.75590E+3
  -4.92274E+3   6.57620E+3
  -4.89077E+3   6.63956E+3
  -4.86287E+3   6.59058E+3
  -4.80733E+3   6.51001E+3
  -4.75025E+3   6.47096E+3
  -4.78365E+3   6.39563E+3
  -4.71146E+3   6.36904E+3
  -4.66062E+3   6.28608E+3
  -4.68667E+3   6.21856E+3
  -4.60586E+3   6.11600E+3
  -4.57436E+3   6.15137E+3
  -4.48881E+3   6.13676E+3
  -4.50006E+3   6.03924E+3
  -4.44286E+3   5.99788E+3
  -4.45397E+3   5.95399E+3
  -4.40823E+3   5.90783E+3
  -4.38473E+3   5.77997E+3
  -4.30913E+3   5.78532E+3
  -4.27352E+3   5.74246E+3
  -4.23167E+3   5.78142E+3
  -4.25106E+3   5.75033E+3
  -4.20357E+3   5.63727E+3
  -4.21864E+3   5.64605E+3
  -4.15727E+3   5.53182E+3
  -4.06967E+3   5.49274E+3
  -4.08679E+3   5.40101E+3
  -4.05211E+3   5.43480E+3
  -4.08393E+3   5.37542E+3
  -4.03932E+3   5.41482E+3
  -4.00500E+3   5.22819E+3
  -4.00029E+3   5.29820E+3
  -3.96957E+3   5.21158E+3
  -3.96155E+3   5.14191E+3
  -3.86815E+3   5.11349E+3
  -3.90039E+3   5.12123E+3
  -3.93336E+3   5.06878E+3
  -3.91226E+3   5.01970E+3
  -3.83501E+3   5.03044E+3
  -3.79212E+3   4.93735E+3
  -3.82319E+3   4.92194E+3
  -3.79578E+3   4.91410E+3
  -3.77361E+3   4.83883E+3
  -3.77345E+3   4.84439E+3
  -3.75454E+3   4.84665E+3
  -3.69779E+3   4.80048E+3
  -3.74619E+3   4.68459E+3
  -3.69021E+3   4.70412E+3
  -3.69417E+3   4.70795E+3
  -3.69793E+3   4.69239E+3
  -3.62784E+3   4.51509E+3
  -3.65667E+3   4.57596E+3
  -3.60672E+3   4.57421E+3
  -3.61566E+3   4.50584E+3
  -3.60851E+3   4.49312E+3
  -3.66241E+3   4.44988E+3
  -3.54670E+3   4.35764E+3
  -3.57748E+3   4.39393E+3
  -3.55115E+3   4.45349E+3
  -3.57411E+3   4.38635E+3
  -3.51417E+3   4.28154E+3
  -3.47843E+3   4.30580E+3
  -3.48277E+3   4.27289E+3
  -3.47895E+3   4.23944E+3
  -3.46778E+3   4.21579E+3
  -3.43349E+3   4.21220E+3
  -3.50899E+3   4.20533E+3
  -3.45913E+3   4.14497E+3
  -3.40665E+3   4.11918E+3
  -3.37798E+3   4.08257E+3
  -3.31918E+3   4.06949E+3
  -3.41520E+3   4.10060E+3
  -3.33329E+3   4.01951E+3
  -3.32295E+3   3.98892E+3
  -3.34380E+3   4.01939E+3
  -3.37145E+3   4.00225E+3
  -3.32112E+3   4.02700E+3
  -3.24576E+3   4.00200E+3
  -3.28891E+3   3.91061E+3
  -3.27013E+3   3.92813E+3
