 
 $NMID
 ID=''
 FMTDAT='(2E13.5)'
 TRAMP=   1.00000E+0
 VOLUME=   1.00000E+0
 $END
  -1.33153E+4   1.78260E+4
  -4.58507E+4   3.43816E+4
  -3.89447E+4   4.17921E+4
  -3.56821E+4   3.84989E+4
  -3.80606E+4   3.89469E+4
  -3.61181E+4   4.06055E+4
  -3.50417E+4   3.86825E+4
  -3.62876E+4   3.84606E+4
  -3.50426E+4   3.95447E+4
  -3.43581E+4   3.83471E+4
  -3.50580E+4   3.80159E+4
  -3.40730E+4   3.87122E+4
  -3.33723E+4   3.80883E+4
  -3.39640E+4   3.78895E+4
  -3.33248E+4   3.82388E+4
  -3.26499E+4   3.76927E+4
  -3.29276E+4   3.75965E+4
  -3.23135E+4   3.79482E+4
  -3.17180E+4   3.76085E+4
  -3.19617E+4   3.75220E+4
  -3.12133E+4   3.77556E+4
  -3.06428E+4   3.76379E+4
  -3.07505E+4   3.75633E+4
  -3.03240E+4   3.76148E+4
  -2.98415E+4   3.72705E+4
  -2.97534E+4   3.72433E+4
  -2.94123E+4   3.73342E+4
  -2.91027E+4   3.69181E+4
  -2.90786E+4   3.67305E+4
  -2.87764E+4   3.66938E+4
  -2.82914E+4   3.64633E+4
  -2.81625E+4   3.63495E+4
  -2.80179E+4   3.63197E+4
  -2.76171E+4   3.59580E+4
  -2.74202E+4   3.58369E+4
  -2.70784E+4   3.58293E+4
  -2.66571E+4   3.55247E+4
  -2.64022E+4   3.53830E+4
  -2.60294E+4   3.53453E+4
  -2.56527E+4   3.51623E+4
  -2.53808E+4   3.49459E+4
  -2.51962E+4   3.48267E+4
  -2.48922E+4   3.45171E+4
  -2.44731E+4   3.43122E+4
  -2.40969E+4   3.41808E+4
  -2.38168E+4   3.41262E+4
  -2.35616E+4   3.39178E+4
  -2.32330E+4   3.38026E+4
  -2.28427E+4   3.36513E+4
  -2.25299E+4   3.36231E+4
  -2.23092E+4   3.33745E+4
  -2.19370E+4   3.31997E+4
  -2.14874E+4   3.31049E+4
  -2.12250E+4   3.30715E+4
  -2.09033E+4   3.30087E+4
  -2.06290E+4   3.27714E+4
  -2.03229E+4   3.27062E+4
  -2.01100E+4   3.26296E+4
  -1.97711E+4   3.24466E+4
  -1.95419E+4   3.23325E+4
  -1.91113E+4   3.22059E+4
  -1.88081E+4   3.21170E+4
  -1.85697E+4   3.21235E+4
  -1.84034E+4   3.19673E+4
  -1.80799E+4   3.18507E+4
  -1.77927E+4   3.17480E+4
  -1.75368E+4   3.17580E+4
  -1.73908E+4   3.17204E+4
  -1.72109E+4   3.15613E+4
  -1.70202E+4   3.15109E+4
  -1.67707E+4   3.13459E+4
  -1.66177E+4   3.12353E+4
  -1.64238E+4   3.11212E+4
  -1.62113E+4   3.10534E+4
  -1.60207E+4   3.09298E+4
  -1.58489E+4   3.07641E+4
  -1.56375E+4   3.07253E+4
  -1.55915E+4   3.05766E+4
  -1.53961E+4   3.04335E+4
  -1.53109E+4   3.03402E+4
  -1.50950E+4   3.01988E+4
  -1.49840E+4   2.99984E+4
  -1.48032E+4   2.99564E+4
  -1.47076E+4   2.97167E+4
  -1.46514E+4   2.96153E+4
  -1.45789E+4   2.93802E+4
  -1.44371E+4   2.91297E+4
  -1.43084E+4   2.89659E+4
  -1.41634E+4   2.88095E+4
  -1.40589E+4   2.86588E+4
  -1.40226E+4   2.84806E+4
  -1.37745E+4   2.82417E+4
  -1.36810E+4   2.81286E+4
  -1.35523E+4   2.79458E+4
  -1.34236E+4   2.77224E+4
  -1.32499E+4   2.74221E+4
  -1.30944E+4   2.73027E+4
  -1.29615E+4   2.71357E+4
  -1.29373E+4   2.68953E+4
  -1.28208E+4   2.66870E+4
  -1.26929E+4   2.65125E+4
  -1.24468E+4   2.62304E+4
  -1.23172E+4   2.60826E+4
  -1.21766E+4   2.59826E+4
  -1.20652E+4   2.57222E+4
  -1.18255E+4   2.54503E+4
  -1.17216E+4   2.52794E+4
  -1.15585E+4   2.50765E+4
  -1.14148E+4   2.49175E+4
  -1.12664E+4   2.46816E+4
  -1.10788E+4   2.44992E+4
  -1.08621E+4   2.43700E+4
  -1.07380E+4   2.42143E+4
  -1.05573E+4   2.40108E+4
  -1.03829E+4   2.38097E+4
  -1.03087E+4   2.36546E+4
  -1.01071E+4   2.34831E+4
  -9.88163E+3   2.33059E+4
  -9.69569E+3   2.31458E+4
  -9.57289E+3   2.29588E+4
  -9.42144E+3   2.29086E+4
  -9.22792E+3   2.27729E+4
  -9.07683E+3   2.25427E+4
  -8.89313E+3   2.23848E+4
  -8.72865E+3   2.23607E+4
  -8.57534E+3   2.22386E+4
  -8.45791E+3   2.19976E+4
  -8.24859E+3   2.18675E+4
  -8.09393E+3   2.16482E+4
  -7.96245E+3   2.16698E+4
  -7.89928E+3   2.15016E+4
  -7.69285E+3   2.14504E+4
  -7.52476E+3   2.12475E+4
  -7.30103E+3   2.12005E+4
  -7.15200E+3   2.11037E+4
  -7.05690E+3   2.09794E+4
  -6.92587E+3   2.08403E+4
  -6.77336E+3   2.07214E+4
  -6.57858E+3   2.05968E+4
  -6.43360E+3   2.05013E+4
  -6.35465E+3   2.03653E+4
  -6.22092E+3   2.02237E+4
  -6.00186E+3   2.01301E+4
  -5.85256E+3   2.00390E+4
  -5.78338E+3   1.98908E+4
  -5.60844E+3   1.97950E+4
  -5.54526E+3   1.97007E+4
  -5.41684E+3   1.95913E+4
  -5.21820E+3   1.95001E+4
  -5.16142E+3   1.93201E+4
  -4.99781E+3   1.92199E+4
  -4.90046E+3   1.91040E+4
  -4.75234E+3   1.89558E+4
  -4.64090E+3   1.88347E+4
  -4.49488E+3   1.86986E+4
  -4.35577E+3   1.85280E+4
  -4.23515E+3   1.84606E+4
  -4.15671E+3   1.82502E+4
  -4.00950E+3   1.82098E+4
  -3.90048E+3   1.80863E+4
  -3.79266E+3   1.78975E+4
  -3.69469E+3   1.78398E+4
  -3.53684E+3   1.76616E+4
  -3.43214E+3   1.74915E+4
  -3.27900E+3   1.73372E+4
  -3.15585E+3   1.72104E+4
  -2.98640E+3   1.70551E+4
  -2.90293E+3   1.69409E+4
  -2.82226E+3   1.67902E+4
  -2.66604E+3   1.67127E+4
  -2.60739E+3   1.65382E+4
  -2.46070E+3   1.64596E+4
  -2.31477E+3   1.62283E+4
  -2.27872E+3   1.61047E+4
  -2.08710E+3   1.59434E+4
  -1.99932E+3   1.58659E+4
  -1.87258E+3   1.56921E+4
  -1.73297E+3   1.55834E+4
  -1.64000E+3   1.54496E+4
  -1.61050E+3   1.53649E+4
  -1.47136E+3   1.52445E+4
  -1.35831E+3   1.50950E+4
  -1.20095E+3   1.49682E+4
  -1.12042E+3   1.47637E+4
  -9.99931E+2   1.46768E+4
  -9.29353E+2   1.45860E+4
  -9.08343E+2   1.44786E+4
  -7.89623E+2   1.43113E+4
  -6.57049E+2   1.42191E+4
  -6.37419E+2   1.41087E+4
  -5.43008E+2   1.39198E+4
  -4.69732E+2   1.38462E+4
  -3.81392E+2   1.37479E+4
  -2.99315E+2   1.36373E+4
  -2.12561E+2   1.35002E+4
  -1.77714E+2   1.33653E+4
  -1.00607E+2   1.32396E+4
  -2.49123E+1   1.30933E+4
   7.33146E+1   1.30365E+4
   8.56352E+1   1.29573E+4
   1.93855E+2   1.28346E+4
   2.32414E+2   1.26963E+4
   2.73224E+2   1.26218E+4
   4.03860E+2   1.24287E+4
   4.74374E+2   1.23520E+4
   5.07937E+2   1.21801E+4
   4.80088E+2   1.20148E+4
   6.03397E+2   1.20004E+4
   6.21327E+2   1.19237E+4
   7.55253E+2   1.17814E+4
   7.83477E+2   1.16877E+4
   8.40762E+2   1.15744E+4
   8.75780E+2   1.14207E+4
   1.00162E+3   1.13639E+4
   9.40969E+2   1.12248E+4
   1.03937E+3   1.11552E+4
   1.07073E+3   1.10655E+4
   1.10975E+3   1.08554E+4
   1.16627E+3   1.08457E+4
   1.14738E+3   1.06920E+4
   1.27047E+3   1.05665E+4
   1.32901E+3   1.04048E+4
   1.34652E+3   1.03913E+4
   1.41602E+3   1.03511E+4
   1.43886E+3   1.02130E+4
   1.46487E+3   1.00710E+4
   1.50862E+3   9.99052E+3
   1.56618E+3   9.95865E+3
   1.54095E+3   9.79340E+3
   1.66192E+3   9.71363E+3
   1.69729E+3   9.63083E+3
   1.72692E+3   9.54453E+3
   1.71902E+3   9.50164E+3
   1.72372E+3   9.29987E+3
   1.80833E+3   9.21676E+3
   1.86614E+3   9.21282E+3
   1.87870E+3   9.08337E+3
   1.85606E+3   9.02624E+3
   1.95427E+3   8.82665E+3
   2.02833E+3   8.86870E+3
   1.98406E+3   8.76890E+3
   1.98363E+3   8.64727E+3
   1.98430E+3   8.56187E+3
   2.07365E+3   8.46671E+3
   2.14503E+3   8.40969E+3
   2.11710E+3   8.29854E+3
   2.12657E+3   8.25450E+3
   2.15429E+3   8.14687E+3
   2.18114E+3   8.05147E+3
   2.25530E+3   7.99622E+3
   2.26408E+3   7.95092E+3
   2.23520E+3   7.84663E+3
   2.35694E+3   7.79208E+3
   2.20619E+3   7.61898E+3
   2.33397E+3   7.64778E+3
   2.36269E+3   7.56266E+3
   2.38128E+3   7.45705E+3
   2.43809E+3   7.33090E+3
   2.41435E+3   7.38467E+3
   2.38957E+3   7.24794E+3
   2.43884E+3   7.17276E+3
   2.48905E+3   7.05276E+3
   2.47584E+3   7.00683E+3
   2.50003E+3   6.92013E+3
   2.47830E+3   6.85343E+3
   2.56610E+3   6.85097E+3
   2.61742E+3   6.72501E+3
   2.59027E+3   6.66979E+3
   2.58938E+3   6.65109E+3
   2.63387E+3   6.56474E+3
   2.66627E+3   6.47614E+3
   2.67645E+3   6.53306E+3
   2.61954E+3   6.33045E+3
   2.62474E+3   6.29568E+3
   2.70565E+3   6.19440E+3
   2.71256E+3   6.16237E+3
   2.75935E+3   6.08914E+3
   2.76275E+3   6.01589E+3
   2.70046E+3   6.00199E+3
   2.72556E+3   5.92826E+3
   2.73645E+3   5.84424E+3
   2.75672E+3   5.79525E+3
   2.83626E+3   5.71977E+3
   2.80091E+3   5.58497E+3
   2.78665E+3   5.56874E+3
   2.80236E+3   5.54750E+3
   2.79820E+3   5.45660E+3
   2.78198E+3   5.38984E+3
   2.80595E+3   5.28898E+3
   2.82934E+3   5.29114E+3
   2.83153E+3   5.19244E+3
   2.87724E+3   5.19321E+3
   2.86259E+3   5.01746E+3
   2.92117E+3   5.02414E+3
   2.83648E+3   4.95454E+3
   2.91092E+3   4.93378E+3
   2.83956E+3   4.84068E+3
   2.86458E+3   4.81076E+3
   2.89759E+3   4.74915E+3
   2.89468E+3   4.69736E+3
   2.88347E+3   4.54523E+3
   2.90630E+3   4.62423E+3
   2.88817E+3   4.50053E+3
   2.92415E+3   4.48411E+3
   2.89038E+3   4.43791E+3
   2.96120E+3   4.40891E+3
   2.88537E+3   4.34031E+3
   2.92887E+3   4.21245E+3
   2.83010E+3   4.17580E+3
   2.90874E+3   4.21425E+3
   2.86726E+3   4.14730E+3
   2.94033E+3   4.05582E+3
   2.94314E+3   3.97652E+3
   2.92765E+3   3.96481E+3
   2.89235E+3   3.97620E+3
   2.87226E+3   3.84795E+3
   2.87759E+3   3.76732E+3
   2.96598E+3   3.74140E+3
   2.90360E+3   3.68597E+3
   2.87744E+3   3.62490E+3
   2.82265E+3   3.54015E+3
   2.90460E+3   3.47979E+3
   2.85755E+3   3.50097E+3
   2.80295E+3   3.49876E+3
   2.82060E+3   3.39657E+3
   2.80695E+3   3.41580E+3
   2.81893E+3   3.30115E+3
   2.81121E+3   3.26321E+3
   2.75522E+3   3.12912E+3
   2.81298E+3   3.18109E+3
   2.83154E+3   3.18490E+3
   2.82237E+3   3.14320E+3
   2.78146E+3   3.02085E+3
   2.75280E+3   3.00187E+3
   2.73321E+3   2.96434E+3
   2.70094E+3   2.90179E+3
   2.65342E+3   2.85324E+3
   2.65273E+3   2.80477E+3
   2.65304E+3   2.76493E+3
   2.69580E+3   2.79533E+3
   2.62045E+3   2.65249E+3
   2.56899E+3   2.63655E+3
   2.58323E+3   2.56503E+3
   2.65703E+3   2.59642E+3
   2.59419E+3   2.55681E+3
   2.60282E+3   2.56337E+3
   2.57548E+3   2.52095E+3
   2.53745E+3   2.45136E+3
   2.56782E+3   2.34797E+3
   2.56041E+3   2.41148E+3
   2.58084E+3   2.34857E+3
   2.53367E+3   2.28961E+3
   2.48331E+3   2.22125E+3
   2.48684E+3   2.27294E+3
   2.51607E+3   2.18167E+3
   2.51621E+3   2.14849E+3
   2.46474E+3   2.08388E+3
   2.46809E+3   2.07858E+3
   2.41236E+3   2.03738E+3
   2.43359E+3   1.99430E+3
   2.42876E+3   2.00190E+3
   2.36933E+3   1.95254E+3
   2.38834E+3   1.94043E+3
   2.36036E+3   1.88815E+3
   2.30684E+3   1.86496E+3
   2.35560E+3   1.81481E+3
   2.34822E+3   1.78427E+3
