 
 $NMID
 ID=''
 FMTDAT='(2E13.5)'
 TRAMP=   1.00000E+0
 VOLUME=   1.00000E+0
 $END
   3.33445E+2  -8.94777E+2
   9.58288E+2   3.55897E+2
   1.12021E+2  -4.54932E+3
  -1.82435E+3  -1.90571E+3
  -3.92005E+3  -5.40682E+2
  -3.49645E+3  -8.29196E+2
  -3.28377E+3   2.75814E+3
  -4.08031E+3   6.60862E+2
  -3.82105E+3   1.64026E+3
  -1.77661E+3   2.73947E+3
  -8.75082E+2   1.72576E+3
   1.01159E+3   2.92989E+3
   7.27517E+2   4.15254E+3
   5.04278E+2   7.16563E+3
  -9.16616E+2   1.96198E+3
   2.14150E+3  -3.66751E+3
   4.40096E+3  -3.73573E+3
   2.71052E+3  -1.43485E+3
   1.06121E+3   4.72213E+2
  -4.38498E+3  -1.99302E+3
  -4.35653E+2  -3.42828E+3
   2.82210E+3   1.47365E+3
  -2.34313E+3   2.94219E+3
  -2.61018E+3  -3.17400E+3
   2.83379E+3  -5.47679E+3
   4.98434E+3   6.72448E+1
   4.18081E+2   1.22327E+3
  -2.56291E+3  -1.67777E+3
  -1.43679E+3  -3.33407E+3
   2.10810E+3  -4.14561E+3
   6.47896E+3  -1.50849E+3
   4.26855E+2   6.60114E+3
  -3.94748E+3   1.99614E+3
   3.70372E+2  -1.18101E+3
   2.75048E+3   6.58997E+2
   1.23359E+2  -1.56502E+3
   3.92365E+3  -3.96917E+3
   6.50569E+3  -1.90215E+3
   6.18623E+3   2.33835E+3
   2.78341E+3   5.57693E+2
  -8.37198E+2   2.58540E+3
  -4.58169E+3   2.40962E+3
  -8.97912E+2  -4.47218E+3
   4.44693E+3  -5.23700E+3
   2.41771E+3   1.76874E+3
   8.39318E+2   1.22688E+2
   2.72222E+3   5.58214E+1
  -2.01174E+2   1.70988E+3
  -3.32664E+2   3.50445E+3
  -2.03639E+3   3.22780E+2
  -3.22393E+3   1.72220E+3
   1.15939E+2  -3.39966E+3
   1.68969E+3  -4.18190E+2
   1.49463E+3   1.52474E+3
   1.68533E+3   3.31191E+3
   4.50389E+2   1.76908E+3
  -2.30175E+3   1.65559E+3
  -3.07143E+3  -1.35053E+3
  -3.67047E+3  -4.64854E+3
   2.27360E+3  -4.90389E+3
   3.90815E+3   2.45827E+1
   3.01406E+3  -3.03792E+2
   1.10225E+3   4.36733E+3
  -9.70061E+2   2.39494E+3
   1.16902E+3  -1.34224E+3
   2.03445E+3   3.02328E+3
  -3.10888E+3   5.13104E+3
  -4.67287E+3   4.67402E+2
  -4.50691E+3  -2.69387E+3
  -7.43842E+2  -5.78608E+2
  -3.27857E+3   9.45123E+2
  -3.88362E+3   9.87531E+2
   7.71082E+2  -2.54801E+3
  -3.37302E+2  -7.99098E+2
   1.45230E+3  -1.58256E+3
  -1.12678E+3   7.75505E+2
   4.27566E+2   7.75280E+2
   7.99288E+2  -6.33922E+1
   2.26687E+3   5.02094E+2
   9.78129E+1   1.59734E+3
  -1.84949E+3  -3.15031E+0
  -1.34605E+3  -7.48299E+2
   8.41636E+2   2.02310E+3
  -1.37208E+3   3.66981E+3
  -3.52908E+3   1.59913E+3
  -2.32482E+3  -2.41767E+3
  -7.40294E+2  -2.96995E+3
   3.21823E+3  -1.03801E+3
   8.71141E+2   2.01095E+3
  -2.26907E+3   2.77729E+3
  -2.28300E+3  -1.62355E+3
  -2.72062E+2   1.36210E+3
  -7.79719E+2   3.32290E+3
  -4.22982E+3  -1.21717E+3
  -3.58373E+3  -4.27217E+3
   1.30639E+3  -3.07776E+3
   3.32606E+3  -7.76261E+2
  -1.34678E+3   2.67569E+3
  -1.71537E+3   1.61123E+3
  -1.41959E+3  -2.09839E+3
   3.82873E+3  -5.73472E+2
   3.52136E+3   3.33231E+3
  -1.04262E+3   3.04938E+3
  -2.54263E+3   1.72139E+3
  -3.47631E+3  -5.86978E+2
  -1.34932E+3  -1.54008E+3
  -2.40647E+3   1.71425E+2
  -3.08587E+3  -5.51104E+2
  -8.72044E+2  -3.21754E+3
   1.80181E+3  -2.04597E+3
   2.91219E+3   4.02527E+3
  -9.11454E+2   4.16053E+3
  -1.20079E+3   2.31757E+3
  -2.38198E+3   4.47926E+2
  -7.85947E+2  -5.97971E+2
  -2.74234E+3  -1.82680E+3
  -1.31662E+3  -1.61705E+3
   1.58301E+3  -3.31857E+2
   1.41032E+3   5.57122E+2
   6.13279E+2  -6.55920E+1
  -1.58425E+3   2.08340E+3
   1.85119E+2  -1.00219E+3
   2.53689E+3  -2.03118E+3
   1.52802E+3  -4.01561E+2
   6.71172E+2   2.83304E+3
  -7.38965E+2  -3.08443E+3
   1.65499E+3   1.91433E+3
   6.60205E+2   2.20742E+3
  -6.05987E+2  -6.33567E+1
   1.18827E+2  -6.15288E+2
  -1.07130E+2  -2.89646E+3
   2.12474E+3  -5.67983E+2
  -6.46980E+1   1.08968E+3
  -1.78080E+3   1.60087E+3
  -1.39063E+3  -1.76037E+3
  -1.65422E+2  -3.61052E+3
   3.39342E+3  -9.85750E+2
   2.19806E+3  -9.49812E+2
   1.47425E+3  -3.57612E+2
  -6.38231E+1  -1.67127E+3
   1.08953E+3   2.03937E+2
   6.49176E+2  -2.75273E+2
  -1.28752E+3   2.16310E+3
  -1.52549E+3  -1.33262E+3
   1.34673E+3   1.98998E+2
   9.14086E+2   4.47666E+1
   1.65319E+2   1.03221E+3
   2.04603E+3  -2.69955E+2
  -6.55748E+2  -2.71601E+2
  -1.01951E+3  -5.49288E+1
  -3.75930E+2  -2.01171E+3
  -6.14679E+1  -9.32676E+2
   2.09548E+3  -1.10418E+3
   2.02291E+3   1.27060E+3
   1.18520E+3   1.82613E+3
  -5.94691E+2  -2.70823E+2
  -1.72551E+3  -1.41086E+2
  -9.93199E+0  -2.66877E+2
   4.38407E+2   7.05277E+2
   1.03737E+3  -2.66566E+2
  -7.80833E+2  -1.29632E+3
  -1.11439E+3  -1.84810E+3
   7.53303E+2   1.50468E+3
   3.34566E+2   1.28294E+3
  -2.10533E+3  -6.85198E+1
  -1.64029E+3  -2.26731E+3
   2.76367E+3  -7.79913E+2
   1.87307E+3   2.21524E+3
  -1.27611E+3  -4.26687E+2
  -2.66739E+3   3.74104E+2
   5.78772E+2  -9.83078E+2
  -1.91548E+3  -1.05497E+3
   7.82418E+2   9.07974E+2
   4.29245E+2  -9.68151E+1
   1.87422E+3   9.24713E+2
   1.85835E+3   5.05792E+2
  -1.74986E+2   2.05489E+3
  -1.76701E+3  -1.30837E+3
  -1.98423E+3  -1.27353E+3
  -1.63449E+3  -7.80642E+1
   1.48313E+3  -1.51867E+3
   1.15863E+2  -9.06593E+1
  -2.53855E+3  -5.53507E+2
   2.64697E+2  -1.20533E+2
  -7.55946E+2  -9.55460E+2
  -1.06757E+3   1.87917E+3
  -1.52491E+3  -3.14202E+3
  -5.73519E+2  -1.01262E+3
   7.62485E+2  -2.89248E+3
   1.82205E+3  -1.45249E+3
  -1.50481E+3   1.25120E+3
  -2.18677E+3   6.46131E+1
   5.20345E+2  -2.45041E+3
   9.07511E+2  -1.73730E+2
  -1.54526E+3   1.81255E+3
  -4.96846E+1   4.62955E+2
  -4.30456E+2  -4.91688E+2
  -4.29794E+2  -1.00895E+3
   2.59059E+2   2.04527E+2
   2.81620E+2   2.81075E+2
  -1.60529E+3  -2.44542E+3
   1.69387E+3  -1.57268E+3
   1.67699E+3   1.19314E+3
   1.87742E+3   1.79613E+3
  -2.17476E+3   2.22151E+3
  -1.67721E+3   1.78186E+3
  -1.90389E+3   5.55458E+2
  -1.50601E+3   1.70656E+3
  -1.85064E+3  -5.80691E+2
   3.98873E+2  -7.80977E+2
  -1.31686E+3  -1.04235E+3
   3.11735E+2   1.21228E+3
   1.94340E+2   1.77334E+2
  -1.57640E+3  -3.16570E+2
  -1.03771E+3  -1.34446E+2
  -5.90281E+2  -4.80385E+1
   1.55361E+2   1.76963E+2
   3.60390E+1   1.43093E+3
   1.18654E+3   5.98946E+2
  -1.19512E+3   8.77299E+2
   1.44462E+3   1.21367E+3
  -6.46734E+2   6.82855E+2
  -1.37196E+3   1.12070E+3
   6.96955E+1   1.52837E+3
   5.17612E+2   3.51941E+2
   3.45906E+2  -9.96852E+0
   4.09726E+2  -2.91884E+2
  -2.20461E+2  -1.02641E+3
   2.90754E+0   2.06064E+3
  -1.68265E+3   2.00166E+3
  -1.86124E+3   1.64862E+3
   2.22046E+2  -8.57543E+2
   1.22344E+3   2.83086E+2
   7.68728E+2   9.86449E+2
   6.95993E+2   9.78016E+2
  -1.15972E+3  -9.41984E+2
   3.39417E+2  -1.86963E+3
   2.10625E+2  -1.55352E+3
   3.07514E+2   2.23585E+3
  -1.85798E+3   4.73250E+2
  -1.59692E+3   1.24286E+3
  -6.56864E+2   4.56924E+2
   8.24744E+2   4.54164E+1
  -2.15273E+2  -7.69590E+2
  -2.26640E+3   6.93366E+2
  -1.50269E+2  -5.35989E+2
   8.25772E+2  -1.12098E+3
  -7.59558E+2   7.02688E+2
  -3.76716E+2  -5.15987E+2
   9.34458E+1   2.51756E+3
  -1.21243E+3   5.43377E+2
  -2.41619E+2   9.57758E+0
   1.78547E+3   6.90877E+2
   1.69642E+2   1.62925E+3
  -1.31259E+2   2.89238E+2
  -1.71861E+2   4.27757E+1
  -3.57895E+2   5.89340E+1
  -1.96015E+3  -2.86729E+1
  -4.75247E+1   5.78789E+2
   9.74080E+2  -5.69734E+2
   8.23685E+2   2.42476E+2
   2.64346E+3  -1.29726E+2
   1.41432E+3   4.12297E+2
  -1.18970E+3  -5.03254E+2
   3.03988E+2  -1.64533E+2
   5.27404E+2  -1.25554E+3
   5.40924E+2  -9.05531E+2
  -6.92520E+2   5.79678E+2
  -7.93439E+2   5.98292E+2
  -1.62986E+2   1.23374E+3
   3.38365E+2   3.16280E+1
   6.87843E+2  -6.94738E+2
  -1.67028E+2  -1.39159E+3
   3.92568E+2  -9.42239E+2
  -6.90575E+2   1.31937E+3
  -5.95085E+2   6.64283E+2
  -1.77708E+3   2.82484E+2
   7.68224E+2   1.12164E+3
   5.91291E+2   5.72302E+2
   5.43703E+2  -2.87052E+2
   6.63671E+2  -1.64153E+3
  -2.05924E+2   1.81460E+3
   9.05797E+1   2.47332E+2
   1.43021E+3  -1.69278E+2
  -6.46653E+2   7.62073E+2
  -9.85358E+2   2.29037E+2
   4.65592E+2  -6.82773E+2
  -1.33461E+3  -3.40575E+2
  -7.75466E+2  -1.27812E+3
   5.17473E+1  -4.11515E+1
   1.14198E+3   7.90140E+2
   9.12740E+2   5.82883E+2
   9.18854E+2   1.97004E+2
   8.13144E+2  -3.52141E+2
   1.42766E+2   7.15297E+2
   9.92431E+2   1.53760E+3
  -3.57837E+2  -5.43458E+2
   2.23842E+2  -4.93820E+2
  -5.00411E+2   5.06414E+2
   3.39014E+2   1.82704E+3
  -1.27396E+3   1.04528E+3
   9.16226E+1   1.11514E+3
  -1.32357E+3   7.54844E+2
  -1.36890E+3  -5.91076E+2
   3.40870E+1  -5.44576E+1
  -7.39053E+2  -5.17534E+2
   1.90312E+3   2.62541E+3
   6.93199E+2   2.15859E+2
   5.12054E+2   3.94599E+2
   4.29459E+2   4.03964E+2
   1.13571E+3   1.58831E+3
  -8.46313E+2   1.22937E+3
  -4.71258E+2  -5.35191E+2
   8.96624E+2   2.92428E+2
   1.58527E+3   8.72222E+2
  -1.18075E+3  -9.71642E+2
   9.13597E+1   8.89638E+2
   3.46248E+1   9.96002E+2
  -1.07251E+3  -1.08664E+1
  -3.03861E+2   1.13136E+3
   2.00475E+2  -5.71146E+2
  -3.02207E+2  -2.04137E+3
   7.91697E+2   4.81349E+2
  -1.99344E+2  -4.76968E+2
   1.86993E+3   1.81255E+3
  -2.76726E+2   1.60429E+3
   6.75518E+0   1.11716E+2
   5.23708E+2   3.76043E+2
   6.81423E+2   1.54230E+3
   8.09740E+2   1.22218E+3
  -1.64675E+3   1.09658E+3
   3.35320E+2   2.29455E+2
   1.80447E+3  -1.33975E+3
   1.84070E+3   2.70549E+1
  -3.06628E+2   2.54034E+2
  -9.17857E+2   1.38672E+3
   1.16529E+3   1.45627E+3
   3.34731E+3  -2.69050E+2
   2.65388E+3   1.04715E+3
  -1.51081E+3   1.94023E+3
  -1.50749E+2   2.17591E+3
  -1.47318E+3  -2.27687E+2
   4.79786E+1  -8.35137E+1
  -2.57165E+2   5.60815E+2
   1.61323E+3   5.61504E+2
  -2.30519E+3   1.24561E+3
  -1.02500E+3  -1.71584E+2
  -8.20048E+2  -6.52626E+2
   7.04323E+2   1.53725E+3
   1.43792E+3  -5.08632E+2
   2.38832E+3   8.32824E+2
   2.57757E+2  -2.43515E+3
   1.03774E+3   5.16933E+2
   2.79819E+1  -8.46739E+1
   2.92562E+2  -1.20933E+3
   1.51968E+2   1.00439E+3
  -1.48352E+3  -4.09572E+2
  -1.02195E+3  -1.05254E+3
  -2.42737E+2   1.29543E+2
  -5.45149E+2   2.51175E+3
   5.85129E+2   1.47218E+2
   1.60560E+3   2.73328E+2
   1.25460E+3   1.44009E+2
  -1.11165E+3   9.21813E+2
   1.32517E+3   4.03689E+2
   9.47286E+2  -6.04836E+2
  -5.99386E+2  -9.84778E+2
