 
 $NMID
 ID=''
 FMTDAT='(2E13.5)'
 TRAMP=   1.00000E+0
 VOLUME=   1.00000E+0
 $END
   1.06319E+2  -1.64322E+2
   1.37850E+3   1.37916E+3
  -4.46747E+2  -3.55630E+3
   7.29223E+2  -1.82342E+3
  -7.18694E+2  -1.59677E+3
  -1.41493E+3  -2.04233E+3
  -8.69408E+2   5.38732E+2
  -2.68229E+3   2.71122E+3
  -2.38382E+3  -8.35400E+2
  -2.94416E+3  -1.79226E+2
  -6.76019E+2  -8.34087E+2
   4.92288E+3  -2.25392E+3
   7.75352E+2   1.68448E+3
   1.05908E+3   2.64270E+3
  -3.11271E+3   1.38305E+3
   2.67099E+2  -1.88500E+3
  -3.70989E+3  -3.12530E+3
   1.37694E+3  -8.34390E+2
  -6.69450E+2   2.62691E+3
   4.66469E+2   2.95351E+3
  -9.28382E+2  -2.63448E+3
   2.82935E+3   2.28823E+3
   1.10919E+3   3.46520E+3
  -1.83893E+3   2.98788E+3
  -8.89069E+2  -1.69878E+3
   3.39732E+3   3.03366E+2
   3.04674E+3   2.08554E+3
  -2.53993E+3   1.42960E+3
  -1.64040E+3  -3.31319E+3
   2.70435E+3  -3.11299E+3
   6.15648E+3  -2.13606E+3
   1.17043E+3   3.86275E+3
  -2.60351E+3   2.19748E+2
  -8.60574E+2  -5.56464E+2
   1.21885E+2  -1.36753E+3
  -3.27117E+3  -1.72028E+3
  -1.17102E+3  -4.16059E+3
   1.68919E+3  -2.72781E+3
   2.80361E+3   1.56871E+3
   6.03949E+2  -4.22682E+2
   8.42430E+2   2.01785E+3
  -3.00776E+3   4.00048E+3
  -3.70070E+3  -3.11976E+3
  -9.58539E+2  -5.25324E+3
   2.10556E+3  -3.63739E+3
   2.18521E+3  -1.08530E+3
   1.33528E+3  -5.57499E+2
   1.68581E+3   7.38601E+2
   2.31704E+1   2.00141E+3
   1.16921E+3   6.49426E+3
  -3.92617E+3   1.97871E+3
  -6.57643E+2  -7.87578E+2
   3.06867E+3  -1.64878E+2
   3.68587E+3   1.79770E+3
  -4.12188E+1   5.63517E+3
   3.91079E+0   6.01071E+3
   5.63156E+2   7.60126E+3
  -3.78924E+3   3.36977E+3
  -4.85839E+3  -1.69867E+3
  -4.76234E+3  -2.20366E+3
  -1.15181E+3  -2.50455E+3
   6.98363E+1  -2.64690E+3
  -7.49091E+1   8.42651E+2
  -2.16423E+3   1.86887E+3
  -9.34166E+2  -1.16697E+3
   1.56694E+3   1.01769E+3
   4.14232E+2   4.01031E+3
  -1.95366E+3   4.80224E+3
  -1.22489E+2   7.02884E+2
   1.30157E+3   1.34341E+3
   6.54034E+2  -8.18368E+2
  -5.20793E+2   1.31104E+3
  -1.34091E+3   1.10956E+3
  -8.57427E+2   1.45178E+2
  -1.72825E+3  -2.02486E+3
   5.64140E+2   1.03640E+3
  -2.90157E+3  -3.81502E+2
  -1.64532E+3  -1.57534E+3
   5.52950E+2  -2.04818E+3
   2.51098E+3  -1.68579E+3
  -7.33220E+2   9.78508E+1
  -5.60229E+2   1.19591E+2
   7.64773E+2  -1.30478E+3
   1.99491E+3   5.27979E+2
  -1.08719E+3   9.99416E+2
  -1.80062E+3   9.98206E+2
  -1.53849E+3  -3.10175E+3
   8.88804E+2  -1.85752E+3
   2.57681E+3  -2.80223E+3
   2.91864E+3   4.00407E+2
   1.39258E+3   1.92382E+3
   1.98791E+3  -4.93765E+2
   1.01294E+3   7.26205E+2
  -5.39416E+1   2.96304E+3
  -2.79791E+3   2.48858E+3
  -4.54181E+2   5.96210E+1
   3.05957E+3  -3.23697E+3
   5.44474E+2   1.08229E+3
   2.97533E+2   1.90261E+3
  -2.54836E+3  -2.16568E+2
  -1.95319E+3  -2.54850E+3
   2.25406E+3  -3.12292E+3
   2.68526E+3   3.31542E+2
   4.87067E+2   7.66517E+2
  -7.10397E+2   1.65214E+2
   4.68781E+1   3.21760E+0
   1.27030E+3   1.21094E+3
   4.08831E+2  -1.07343E+3
  -1.53882E+3  -1.16801E+3
  -1.66234E+3  -1.64565E+3
   1.16511E+3  -3.56857E+3
   3.14881E+3  -4.34345E+3
   3.00629E+3   1.09936E+3
   1.34165E+3  -6.35568E+2
  -3.44519E+2  -9.11788E+2
  -1.48371E+3   8.06643E+2
  -1.09635E+3   1.38478E+3
   6.65633E+2  -8.95148E+2
   3.35724E+2   4.84617E+2
   2.17656E+3   2.11159E+3
   3.20868E+3  -1.18963E+3
   2.51424E+3   9.14590E+2
  -9.71862E+2  -4.84383E+2
   4.24003E+2   1.15464E+3
  -9.56677E+1  -1.22937E+2
   4.26029E+2  -6.10820E+2
   1.74468E+3   2.36125E+2
   7.13875E+2  -1.67058E+3
   2.58455E+3  -1.31093E+3
   1.78668E+3   2.22758E+3
   5.24908E+2   1.35511E+2
  -9.51052E+2   1.30579E+3
   1.46956E+3   1.33140E+3
   2.24283E+3   1.73896E+3
   9.16513E+1   3.16664E+3
  -8.04802E+2   1.29401E+3
  -1.88642E+3  -2.11840E+2
  -7.45615E+2  -3.88302E+2
  -5.54800E+2   1.46873E+3
   6.13233E+2   5.81802E+1
   1.59593E+3  -2.07572E+3
  -8.40279E+2   7.00556E+2
   3.80176E+2  -1.73197E+3
   1.69241E+3   5.08726E+2
  -1.55672E+3   3.67400E+2
  -2.54290E+3  -1.06063E+3
   3.72516E+2   1.15574E+3
  -3.23584E+2   1.97988E+3
  -4.26160E+2  -1.39419E+2
  -3.67953E+2   2.16152E+2
   1.57963E+2   1.30197E+3
  -6.21062E+2   4.91686E+2
  -6.96691E+2   1.03772E+3
   4.15066E+0  -1.82141E+3
   3.14503E+2  -7.40327E+2
   2.40129E+2  -2.65138E+2
  -1.64647E+2  -3.45061E+2
   4.21479E+2  -1.40008E+3
  -4.40187E+2   1.67862E+3
  -3.41647E+2  -9.31001E+2
  -6.77232E+2  -5.87406E+2
  -1.46191E+3  -1.39812E+3
  -2.03091E+3  -1.25033E+3
  -1.26812E+3  -1.45744E+3
  -5.05737E+2  -5.39151E+2
  -1.10252E+3  -1.04907E+3
  -2.09450E+2  -3.37887E+2
   1.41390E+3  -2.67173E+2
  -1.00838E+2   1.19913E+3
  -9.94222E+2  -1.29098E+3
   3.85018E+2  -1.06098E+3
   3.54629E+2  -1.25318E+3
  -1.66725E+3  -9.34517E+2
  -3.30727E+2  -5.01934E+2
   8.49269E+2   1.99153E+3
   6.33024E+2  -3.92399E+2
   1.25195E+3  -4.56714E+2
  -1.85485E+3   1.54719E+3
   5.06592E+2   6.33178E+2
   1.78596E+3  -1.52535E+3
  -1.13992E+3   9.35302E+2
   4.63593E+2  -2.42827E+3
   1.00754E+3  -3.26573E+2
   6.68022E+2  -2.09475E+2
   4.28275E+2  -1.13573E+3
   5.38379E+2  -1.67378E+2
   3.43140E+2   4.89392E+2
   6.46154E+2   8.71254E+2
   1.21348E+3   7.10541E+2
   1.12296E+3  -1.70579E+3
  -9.57958E+2   9.18001E+1
  -1.27227E+2  -1.68728E+2
   5.51618E+2   1.49184E+3
  -5.81125E+2  -1.38361E+3
   4.50877E+2  -3.07374E+2
  -8.44239E+2  -2.81936E+2
  -9.82004E+2  -2.41082E+3
   1.05669E+3   1.82683E+3
  -5.84764E+2   6.77943E+2
   1.66540E+3   7.81584E+2
   1.07488E+3   1.00493E+3
   7.46724E+2   7.77785E+2
  -1.05638E+3  -5.07462E+2
   1.04458E+2   1.97103E+2
  -7.63512E+2  -1.08924E+3
   1.45101E+3   6.71176E+2
  -2.88948E+2  -9.54741E+1
  -1.57839E+3  -6.44040E+2
   7.55311E+1  -2.30192E+3
   9.15450E+2   2.42679E+2
   2.11643E+2   3.42116E+2
   9.06161E+2  -1.40547E+3
  -2.62749E+3  -8.29405E+2
  -8.39232E+2   7.05929E+2
  -1.05470E+3   1.06695E+3
  -1.43101E+3  -5.25586E+2
   8.74045E+2  -2.13393E+2
  -5.79308E+2  -1.48983E+3
  -1.15040E+3  -5.04026E+2
  -1.33368E+3   4.07863E+2
  -1.58800E+3   1.14636E+3
  -1.59634E+2   7.62556E+2
  -1.44751E+3  -7.26018E+2
  -3.05924E+2  -7.73647E+1
  -4.35998E+2  -1.30146E+3
   1.75459E+2  -3.35318E+2
   3.57337E+2  -1.25520E+2
   7.03120E+2  -1.78989E+3
  -1.35819E+2  -1.81405E+3
  -1.97035E+2  -2.59165E+2
   5.96743E+2  -1.88381E+3
   4.03320E+1   1.11396E+3
  -1.51942E+3  -7.73411E+2
   1.03137E+3  -1.42561E+3
  -3.43456E+2  -5.68638E+2
  -1.19341E+0  -1.12878E+3
   6.54029E+2  -1.80461E+2
   1.32286E+3  -1.70825E+2
  -2.28736E+1   4.72002E+2
   1.57895E+2   1.54100E+3
  -2.77072E+2   1.26502E+3
   1.16082E+3  -1.25365E+3
   9.40268E+2   2.56616E+2
  -2.27202E+2   5.33070E+2
   1.07521E+3  -4.09203E+2
   1.83203E+3   2.09237E+2
  -9.38396E+2   2.00051E+3
  -3.06884E+2  -1.11949E+3
  -2.40424E+2   1.94310E+3
  -1.72247E+1   1.15854E+3
  -1.63530E+3   1.10649E+3
   6.02574E+2   1.70912E+3
  -5.31115E+2   7.11935E+2
   7.43839E+2  -9.67494E+2
   3.39754E+2   3.55407E+2
   1.13580E+3  -2.23541E+2
  -6.86070E+2  -8.88940E+2
   5.08602E+2   7.05918E+2
  -4.03060E+2   6.10167E+1
  -1.66373E+3   8.92518E+2
  -4.28435E+1   6.30800E+2
  -3.99249E+2  -2.84304E+2
   2.73732E+2   1.35803E+2
   1.24896E+2  -8.53065E+2
   1.46626E+3   1.23102E+3
   1.65081E+3   1.60313E+3
   5.12665E+2   7.79022E+2
  -5.39130E+2   8.76611E+2
   2.89959E+2   1.67403E+3
  -2.08374E+3   4.93783E+2
  -1.29716E+2  -5.95670E+2
  -5.01023E+2  -1.34170E+3
  -2.48367E+3  -1.16355E+3
   1.34919E+3  -1.19091E+3
  -1.69078E+3  -1.26386E+2
   5.11401E+2  -1.96978E+3
   6.19912E+2  -1.31304E+2
   9.91697E+0   9.34792E+2
   9.41606E+2   9.63644E+2
  -3.50873E+2   8.58234E+2
   6.90249E+2   8.49024E+2
   9.82944E+2   2.01317E+3
  -4.06677E+2   9.67961E+2
  -6.33130E+2   4.70403E+2
   1.84090E+2  -1.80698E+3
   1.05876E+3  -2.60701E+2
  -3.51245E+2  -9.29295E+2
  -4.85830E+2  -5.06320E+2
   3.43325E+2  -2.18781E+3
   6.43147E+2  -5.52400E+2
   6.69913E+2  -9.07598E+2
  -1.04848E+3   9.75801E+2
   1.45008E+1   2.89068E+2
  -2.43143E+2  -1.11671E+3
  -2.86710E+2  -4.15327E+2
   6.78408E+2   4.75418E+2
  -2.81672E+2   6.30142E+2
  -2.63811E+2   1.67393E+3
  -1.31689E+3  -1.98612E+3
  -3.44528E+2  -1.23802E+3
   1.53112E+3   6.66911E+2
   8.55515E+2  -7.52531E+2
  -5.54897E+2   1.07388E+3
   1.41571E+3   9.37892E+2
   3.02155E+3   8.56261E+1
  -9.81625E+2   1.20829E+3
   6.45594E+2  -6.60287E+2
   2.83645E+3  -5.27161E+2
   1.07272E+3   2.80094E+2
   6.50530E+2  -1.01107E+3
   2.84041E+3  -5.31295E+2
  -4.22235E+2   1.60938E+3
   1.95074E+3   2.91692E+1
  -4.65951E+2   3.32571E+2
  -6.55723E+2  -1.12737E+3
  -2.64135E+2   2.75354E+3
   6.86890E+2   1.06703E+3
   5.19858E+2  -6.32272E+2
  -6.19918E+2  -6.81129E+2
   9.52657E+2  -5.82852E+2
  -1.69186E+3  -1.89957E+3
   3.99857E+2  -4.95852E+2
   6.98153E+2  -5.01783E+2
   1.93838E+3  -1.48396E+3
   5.69774E+2  -2.12524E+2
  -4.43201E+2   8.38424E+2
   9.50367E+2   2.65341E+2
  -4.60830E+2   5.17589E+2
   1.65701E+2  -1.62300E+2
  -8.74277E+1  -6.37032E+2
  -1.88217E+3  -1.19779E+3
   6.53417E+2   5.24415E+2
  -8.77963E+2  -3.27812E+2
  -5.55961E+2   4.20183E+2
   6.80053E+2  -2.48577E+2
   5.72623E+2  -1.49699E+2
  -8.94894E+2   1.10052E+3
  -3.29413E+2  -1.46074E+3
   2.23754E+2  -7.67130E+2
  -1.55845E+3   5.32172E+2
   1.26032E+3  -1.00143E+3
   6.97675E+2  -7.88571E+2
  -1.03039E+3   8.25356E+2
  -1.57689E+3  -4.36522E+2
   1.49840E+3  -1.25484E+3
  -5.30381E+2  -1.41639E+3
  -2.50356E+2   6.00739E+2
  -1.20166E+3   5.02938E+2
  -9.98565E+1   1.15169E+3
  -1.59726E+3   1.17973E+3
   2.74150E+3   1.19370E+3
   5.05243E+2  -3.75851E+2
  -6.34072E+2  -2.80174E+3
   2.12210E+2  -5.96330E+1
  -6.14328E+1   5.95753E+2
  -1.16112E+3  -7.15263E+2
  -1.21978E+3  -4.78582E+1
   8.65880E+2   1.38606E+3
   1.94977E+3  -1.30694E+2
  -6.03921E+2  -2.26045E+2
   4.58972E+2   2.61196E+3
  -1.55691E+3   8.82920E+2
  -1.02570E+3   1.16672E+3
   2.23655E+1  -2.44357E+2
   9.36167E+2  -1.28746E+3
   1.22740E+2   3.42178E+2
  -1.12881E+3  -2.52898E+3
