 LCModel (Version 6.3-1N) Copyright: S.W. Provencher.          Ref.: Magn. Reson. Med. 30:672-679 (1993).                
 Slice_N1@21_15  02-Jun-2023 14:37:17
 27 lines in following concentration table = NCONC+1
    Conc.  %SD /Cr+PCr  Metabolite                                         
 1.74E-06  20% 2.1E-04 Mac                                                 
 3.93E-02  34%   4.694 Cr                                                  
 2.77E-02  46%   3.306 PCr                                                 
 6.19E-02  15%   7.394 Ins                                                 
 7.18E-02  10%   8.577 NAA                                                 
 6.35E-02  13%   7.584 Tau                                                 
 1.81E-02  13%   2.160 PCho                                                
    0.000 999%   0.000 GPC                                                 
 5.10E-02  19%   6.093 Glu                                                 
 1.93E-02  37%   2.310 Gln                                                 
    0.000 999%   0.000 Ala                                                 
 1.56E-02  87%   1.868 Asc                                                 
 4.43E-03 148%   0.529 Asp                                                 
 4.94E-03  74%   0.590 GABA                                                
 5.18E-03  80%   0.619 Glc                                                 
 1.23E-02  33%   1.469 GSH                                                 
 5.10E-03 158%   0.610 Lac                                                 
 2.25E-03 247%   0.269 NAAG                                                
    0.000 999%   0.000 PE                                                  
 1.81E-02  13%   2.160 GPC+PCho                                            
 7.40E-02  11%   8.846 NAA+NAAG                                            
 7.03E-02  17%   8.403 Glu+Gln                                             
 6.69E-02  10%   8.000 Cr+PCr                                              
 7.40E-02  11%   8.846 NAA+NAAG                                            
 6.69E-02  10%   8.000 Cr+PCr                                              
 7.03E-02  17%   8.403 Glu+Gln                                             
   6 lines in following misc. output table
  FWHM = 0.035 ppm    S/N =   3                                            
  Data shift = 0.023 ppm                                                   
  Ph: -13 deg      -6.1 deg/ppm                                            
  alphaB,S = 2.2E-01,   5.3E+01                                            
   18 spline knots.   Ns = 7(1)                                            
  ( 3) 4 infls.   ( 3) 1 extrs.                                            
  654 points on ppm-axis = NY
      4.000000     3.994181     3.988363     3.982544     3.976726     3.970907     3.965088     3.959270     3.953451     3.947633
      3.941814     3.935995     3.930177     3.924358     3.918540     3.912721     3.906902     3.901084     3.895265     3.889446
      3.883628     3.877809     3.871991     3.866172     3.860353     3.854535     3.848716     3.842898     3.837079     3.831260
      3.825442     3.819623     3.813805     3.807986     3.802167     3.796349     3.790530     3.784712     3.778893     3.773074
      3.767256     3.761437     3.755619     3.749800     3.743981     3.738163     3.732344     3.726526     3.720707     3.714888
      3.709070     3.703251     3.697433     3.691614     3.685795     3.679977     3.674158     3.668339     3.662521     3.656702
      3.650884     3.645065     3.639246     3.633428     3.627609     3.621791     3.615972     3.610153     3.604335     3.598516
      3.592698     3.586879     3.581060     3.575242     3.569423     3.563605     3.557786     3.551967     3.546149     3.540330
      3.534512     3.528693     3.522874     3.517056     3.511237     3.505419     3.499600     3.493781     3.487963     3.482144
      3.476326     3.470507     3.464688     3.458870     3.453051     3.447232     3.441414     3.435595     3.429777     3.423958
      3.418139     3.412321     3.406502     3.400684     3.394865     3.389046     3.383228     3.377409     3.371591     3.365772
      3.359953     3.354135     3.348316     3.342498     3.336679     3.330860     3.325042     3.319223     3.313405     3.307586
      3.301767     3.295949     3.290130     3.284312     3.278493     3.272674     3.266856     3.261037     3.255219     3.249400
      3.243581     3.237763     3.231944     3.226125     3.220307     3.214488     3.208670     3.202851     3.197032     3.191214
      3.185395     3.179577     3.173758     3.167939     3.162121     3.156302     3.150484     3.144665     3.138846     3.133028
      3.127209     3.121391     3.115572     3.109753     3.103935     3.098116     3.092298     3.086479     3.080660     3.074842
      3.069023     3.063205     3.057386     3.051567     3.045749     3.039930     3.034111     3.028293     3.022474     3.016656
      3.010837     3.005018     2.999200     2.993381     2.987563     2.981744     2.975925     2.970107     2.964288     2.958470
      2.952651     2.946832     2.941014     2.935195     2.929377     2.923558     2.917739     2.911921     2.906102     2.900284
      2.894465     2.888646     2.882828     2.877009     2.871191     2.865372     2.859553     2.853735     2.847916     2.842098
      2.836279     2.830460     2.824642     2.818823     2.813004     2.807186     2.801367     2.795549     2.789730     2.783911
      2.778093     2.772274     2.766456     2.760637     2.754818     2.749000     2.743181     2.737363     2.731544     2.725725
      2.719907     2.714088     2.708270     2.702451     2.696632     2.690814     2.684995     2.679177     2.673358     2.667539
      2.661721     2.655902     2.650084     2.644265     2.638446     2.632628     2.626809     2.620991     2.615172     2.609353
      2.603535     2.597716     2.591897     2.586079     2.580260     2.574442     2.568623     2.562804     2.556986     2.551167
      2.545349     2.539530     2.533711     2.527893     2.522074     2.516256     2.510437     2.504618     2.498800     2.492981
      2.487163     2.481344     2.475525     2.469707     2.463888     2.458070     2.452251     2.446432     2.440614     2.434795
      2.428977     2.423158     2.417339     2.411521     2.405702     2.399884     2.394065     2.388246     2.382428     2.376609
      2.370790     2.364972     2.359153     2.353335     2.347516     2.341697     2.335879     2.330060     2.324242     2.318423
      2.312604     2.306786     2.300967     2.295149     2.289330     2.283511     2.277693     2.271874     2.266056     2.260237
      2.254418     2.248600     2.242781     2.236963     2.231144     2.225325     2.219507     2.213688     2.207870     2.202051
      2.196232     2.190414     2.184595     2.178777     2.172958     2.167139     2.161321     2.155502     2.149683     2.143865
      2.138046     2.132228     2.126409     2.120590     2.114772     2.108953     2.103135     2.097316     2.091497     2.085679
      2.079860     2.074042     2.068223     2.062404     2.056586     2.050767     2.044949     2.039130     2.033311     2.027493
      2.021674     2.015856     2.010037     2.004218     1.998400     1.992581     1.986763     1.980944     1.975126     1.969307
      1.963489     1.957670     1.951852     1.946033     1.940215     1.934397     1.928578     1.922760     1.916941     1.911123
      1.905304     1.899486     1.893667     1.887849     1.882030     1.876212     1.870393     1.864575     1.858756     1.852938
      1.847119     1.841301     1.835482     1.829664     1.823845     1.818027     1.812208     1.806390     1.800571     1.794753
      1.788934     1.783116     1.777297     1.771479     1.765660     1.759842     1.754023     1.748205     1.742386     1.736568
      1.730749     1.724931     1.719113     1.713294     1.707476     1.701657     1.695839     1.690020     1.684202     1.678383
      1.672565     1.666746     1.660928     1.655109     1.649291     1.643472     1.637654     1.631835     1.626017     1.620198
      1.614380     1.608561     1.602743     1.596924     1.591106     1.585287     1.579469     1.573650     1.567832     1.562013
      1.556195     1.550376     1.544558     1.538739     1.532921     1.527102     1.521284     1.515465     1.509647     1.503829
      1.498010     1.492192     1.486373     1.480555     1.474736     1.468918     1.463099     1.457281     1.451462     1.445644
      1.439825     1.434007     1.428188     1.422370     1.416551     1.410733     1.404914     1.399096     1.393277     1.387459
      1.381640     1.375822     1.370003     1.364185     1.358366     1.352548     1.346729     1.340911     1.335092     1.329274
      1.323455     1.317637     1.311818     1.306000     1.300182     1.294363     1.288545     1.282726     1.276908     1.271089
      1.265271     1.259452     1.253634     1.247815     1.241997     1.236178     1.230360     1.224541     1.218723     1.212904
      1.207086     1.201267     1.195449     1.189630     1.183812     1.177993     1.172175     1.166356     1.160538     1.154719
      1.148901     1.143082     1.137264     1.131445     1.125627     1.119808     1.113990     1.108171     1.102353     1.096534
      1.090716     1.084898     1.079079     1.073261     1.067442     1.061624     1.055805     1.049987     1.044168     1.038350
      1.032531     1.026713     1.020894     1.015076     1.009257     1.003439     0.997620     0.991802     0.985983     0.980165
      0.974346     0.968528     0.962709     0.956891     0.951072     0.945254     0.939435     0.933617     0.927798     0.921980
      0.916161     0.910343     0.904524     0.898706     0.892887     0.887069     0.881251     0.875432     0.869614     0.863795
      0.857977     0.852158     0.846340     0.840521     0.834703     0.828884     0.823066     0.817247     0.811429     0.805610
      0.799792     0.793973     0.788155     0.782336     0.776518     0.770699     0.764881     0.759062     0.753244     0.747425
      0.741607     0.735788     0.729970     0.724151     0.718333     0.712514     0.706696     0.700877     0.695059     0.689240
      0.683422     0.677603     0.671785     0.665967     0.660148     0.654330     0.648511     0.642693     0.636874     0.631056
      0.625237     0.619419     0.613600     0.607782     0.601963     0.596145     0.590326     0.584508     0.578689     0.572871
      0.567052     0.561234     0.555415     0.549597     0.543778     0.537960     0.532141     0.526323     0.520504     0.514686
      0.508867     0.503049     0.497230     0.491412     0.485593     0.479775     0.473956     0.468138     0.462319     0.456501
      0.450682     0.444864     0.439045     0.433227     0.427408     0.421590     0.415771     0.409953     0.404134     0.398316
      0.392497     0.386679     0.380860     0.375042     0.369223     0.363405     0.357586     0.351767     0.345949     0.340130
      0.334312     0.328493     0.322675     0.316856     0.311038     0.305219     0.299401     0.293582     0.287764     0.281945
      0.276127     0.270308     0.264490     0.258671     0.252853     0.247034     0.241216     0.235397     0.229579     0.223760
      0.217942     0.212123     0.206305     0.200486
 NY phased data points follow
  -1.49659E-01 -2.48734E-01 -2.07874E-01  3.60393E-02 -8.39711E-02  4.16866E-02 -2.98258E-01  4.27707E-03 -2.46889E-01  1.45979E-01
   4.94977E-01  2.46819E-01  3.34909E-01 -3.65010E-02  3.57444E-01  4.55363E-01  4.79278E-01  1.05669E-01  1.38079E-01 -3.30118E-02
  -2.34822E-02  2.11502E-01 -1.22395E-01  8.95871E-02  2.60881E-01 -6.84474E-02 -2.44815E-01 -2.09708E-01 -4.36242E-01 -5.27867E-02
  -4.36229E-01  1.31781E-01 -2.04607E-01 -4.63655E-01  2.32225E-01 -3.77413E-01 -4.43573E-02 -4.79500E-01  4.71711E-02  1.87740E-01
   8.49819E-02  5.18198E-01 -8.42545E-02  2.50140E-03  3.92110E-02  3.28010E-01  1.13775E-01 -8.27501E-02  3.81943E-01  2.97948E-01
  -2.29752E-02  1.54654E-01  2.70333E-01 -2.13547E-01 -3.38834E-02 -3.95023E-02 -3.71177E-01 -1.01997E-01 -1.03146E-01 -1.64367E-01
  -1.66323E-01 -1.75166E-01 -1.00016E-01  1.65059E-01 -1.78620E-01 -9.96492E-02  2.69578E-01  4.03416E-03  1.48813E-02 -2.28542E-01
   4.35279E-01  2.72549E-01 -1.65399E-01  1.72054E-01  1.79907E-02  1.02091E-01 -1.49647E-01 -1.28482E-01 -3.22630E-01 -4.84394E-01
  -1.04074E-01 -9.62013E-02 -1.34292E-02  1.01482E-01  1.56078E-01  4.43516E-01  2.08344E-01  2.57157E-01  3.37958E-01  3.34413E-01
   2.10672E-02 -1.96504E-01  3.08579E-01 -9.31150E-02  1.90457E-01  7.05527E-02 -1.59849E-01  3.65240E-02 -6.21321E-02 -5.86714E-02
  -3.84096E-01 -1.93864E-01  4.39874E-02  1.24162E-01  8.31115E-02  4.02703E-01  2.37820E-01  2.27029E-01  3.90822E-01  2.35562E-01
   5.83997E-01  6.31519E-01  3.98459E-01  3.01862E-01  1.06870E-01  1.64804E-01  4.67095E-01  3.16644E-01  5.12315E-01  1.86183E-01
   1.31408E-01 -2.38999E-03 -1.29664E-01  1.49841E-01 -2.77284E-01  1.44365E-02 -2.23149E-01 -4.17635E-01 -4.09383E-01 -5.54423E-01
  -6.52095E-01 -5.04843E-01 -3.09926E-01 -6.38661E-01 -3.08852E-01 -4.25475E-01 -7.86999E-01 -1.05469E+00 -7.25534E-01 -1.34138E-01
  -3.17612E-01 -1.83345E-01 -2.26229E-01 -2.34907E-01  1.78848E-02 -1.22148E-01 -7.85539E-02  9.95103E-02  4.76484E-02  3.66432E-01
   1.53455E-01  6.29561E-02  3.61343E-01  2.12709E-01  3.41559E-01 -1.50913E-01  3.01618E-01  3.39917E-01 -2.04279E-01  4.90197E-01
   5.52376E-01  5.57184E-01  2.79628E-01  3.37518E-01  5.54248E-01  8.40733E-01  6.16913E-01  2.81967E-03 -1.32923E-01 -6.99597E-01
  -6.03254E-01 -4.44750E-01 -5.32590E-01 -3.69714E-01 -7.58367E-02 -3.86318E-01 -2.49726E-01 -1.47356E-01 -4.02681E-01 -3.30089E-01
  -4.41370E-01 -2.09786E-01 -6.44599E-01 -3.64839E-01 -1.43554E-01 -3.88920E-01 -2.41314E-01 -2.87536E-01 -1.21126E-01 -9.69102E-02
  -1.78869E-01 -1.34960E-01  1.53219E-01 -1.23770E-01 -3.17438E-01 -1.06141E-01 -3.57339E-01 -2.39157E-01 -1.02270E-01 -5.48907E-01
  -2.35371E-01 -2.33770E-01 -1.37596E-01  3.06704E-01 -7.09776E-02  1.52477E-03  8.57786E-02  5.89008E-02 -1.19847E-01  3.06339E-02
  -1.03563E-01 -1.43926E-01  1.46765E-01 -1.66672E-01 -1.99750E-01 -3.51555E-01 -1.75312E-01  7.84742E-03  2.66070E-01  2.56348E-01
  -1.66482E-01  1.27743E-02 -1.41005E-01 -2.73456E-01  8.95324E-02  3.83178E-01  3.98181E-01 -3.79999E-02  1.64494E-02  2.68247E-01
   3.35010E-01  3.94773E-01 -1.25503E-01  1.86550E-02  1.60854E-01  9.21129E-02  7.74064E-03 -7.91432E-02 -3.46448E-02 -2.61185E-01
  -1.43157E-01 -3.27079E-01 -5.97484E-02  1.11192E-02 -2.72796E-01 -9.83642E-02  9.58860E-02 -7.53044E-03 -1.10366E-01  3.42242E-01
   1.98284E-01 -4.86601E-03  7.66620E-02  1.29436E-01 -2.22800E-02 -4.64879E-02  1.91208E-01  1.25595E-01 -1.55714E-02  7.53703E-02
   2.45636E-01  5.72230E-03 -5.73683E-02 -3.66176E-02  1.10627E-01  2.66063E-01  1.04241E-01  2.15706E-01  2.15208E-01 -8.94152E-02
   1.60716E-01  2.99889E-01  1.30574E-01  2.32480E-01  1.59646E-02  4.19966E-02  1.89004E-01  3.90059E-03 -2.17298E-01  1.98443E-01
  -7.61102E-02 -4.49356E-01  8.69276E-03 -3.60823E-01 -9.44614E-02  1.91239E-01  3.34825E-01  6.61149E-01  4.54416E-01  3.44275E-01
   3.51453E-01  1.94731E-01  2.60288E-02  2.89595E-01  1.16803E-01  4.54991E-02 -1.35416E-02  4.01588E-02  2.63951E-01 -4.13856E-02
   7.18179E-02  2.92630E-01  1.59594E-01  4.08445E-02  2.77464E-01  3.58707E-01  2.66873E-01  2.94337E-01  1.93793E-01  1.17693E-01
   9.20655E-02  9.89879E-02  2.26532E-01  3.65523E-01  2.21483E-01  3.66993E-01  1.30958E-01 -3.28385E-01 -8.97652E-03 -1.75285E-01
  -9.15367E-02 -8.49885E-02 -2.37060E-01  1.58207E-01 -2.27749E-01 -2.09527E-01  1.02988E-01  1.45226E-01  2.73761E-01  9.97607E-02
  -2.54945E-01 -2.93047E-02  2.37971E-01 -2.35938E-01 -2.93187E-01 -9.28104E-03 -1.91016E-01 -4.76110E-01 -1.02844E-01 -2.70421E-01
  -1.68584E-01 -5.45397E-01 -1.45593E+00 -1.07863E+00 -1.16199E+00 -4.07648E-01 -1.05173E-02 -3.83024E-01 -1.96431E-01  1.77272E-03
   2.15272E-01  6.79385E-02  1.26211E-01  1.83013E-01  2.08718E-01 -3.14754E-02  4.62581E-02  2.10240E-02 -1.80512E-01  2.47842E-01
   2.03641E-01 -1.08604E-01  6.61849E-02  1.15510E-01 -1.75057E-01  9.08694E-02  5.17120E-02  1.14150E-03  4.01939E-01  5.44921E-02
  -1.22457E-01  1.53171E-01  1.85673E-01  1.60600E-01  2.52808E-01 -1.15191E-02 -1.47480E-01  2.92329E-01  3.23687E-02  2.39911E-01
   3.50277E-01  5.65263E-03  3.15616E-01  1.10020E-01  1.48966E-01  9.86361E-02 -3.38224E-02 -6.91490E-02  3.80360E-01  4.39425E-01
  -4.35880E-02 -1.47124E-03 -1.50879E-01  2.67652E-01  7.04721E-02  1.35508E-01  6.94022E-02  7.72842E-02 -1.15063E-01 -4.78171E-01
   1.52922E-01 -2.35427E-01  2.04888E-02 -2.11119E-01 -1.99227E-01 -1.04823E-01 -5.66875E-01 -2.60435E-01 -2.12623E-01 -6.58022E-02
  -5.10849E-02 -1.92493E-02 -2.39281E-01 -1.15347E-01 -2.60885E-01 -1.72785E-02 -1.53401E-01 -4.00780E-01  9.65718E-02 -3.61188E-01
  -4.35717E-01 -1.18220E-01  1.98570E-01 -2.00614E-01 -3.17941E-01  9.74497E-02  1.89211E-01 -3.28679E-01 -6.20615E-02  3.43805E-01
  -2.19648E-01 -6.99918E-02 -1.99791E-01  1.20605E-02 -1.78982E-01 -2.24101E-03  1.60782E-02 -1.67902E-02  3.25902E-01 -2.43996E-01
   1.62392E-02  1.95311E-01  4.18584E-01  6.38459E-02 -4.63749E-02  2.77881E-01  2.11958E-01  8.07604E-02  9.27751E-02  4.07218E-01
   7.55336E-03  1.75613E-01  1.59829E-01  3.59358E-01  4.79311E-01  8.59374E-02  2.60816E-01  8.95378E-02 -2.19597E-02 -7.34411E-02
   1.43609E-01  2.21331E-01  1.87182E-01  1.97542E-01  2.53242E-01  1.85144E-01 -2.82799E-01  1.32104E-01  4.37964E-02 -1.94592E-01
   1.19011E-02 -5.44670E-02  1.35317E-02 -1.75786E-01  3.73426E-02 -8.53454E-02 -1.94380E-01 -2.73612E-01 -2.66166E-01  1.84325E-01
  -1.75729E-01 -3.52761E-02  1.49155E-01 -9.77010E-02 -1.32789E-01  1.81160E-01  1.82396E-01 -1.96441E-01  2.83693E-01 -6.39728E-02
  -2.69056E-01  1.58473E-01 -3.05346E-01  1.54509E-01  2.65414E-01 -1.99838E-01  2.23710E-01  5.41006E-02  1.19995E-02  1.83907E-01
  -1.57458E-01 -1.48993E-02  2.01716E-02 -4.49551E-02  2.70611E-01  3.89692E-02  2.38970E-02  1.82291E-01 -8.36914E-02 -6.26898E-02
   1.35749E-01  7.28602E-02  1.66193E-01  3.75188E-01  5.52200E-02  8.57823E-02  9.30155E-02  2.17005E-01  8.36313E-02 -2.10621E-01
  -1.15752E-01 -4.16426E-01 -8.34800E-02 -9.24072E-02 -1.57655E-01 -5.53012E-02 -3.15276E-01 -6.26888E-02 -9.06041E-02 -4.62915E-01
  -2.82894E-01 -2.95817E-01 -5.15526E-01  5.19583E-02 -4.16072E-02 -1.60170E-01  1.25391E-01 -9.65887E-02 -1.37505E-01 -2.19962E-01
  -4.66879E-02 -4.97560E-02 -1.19732E-01  7.53040E-02 -6.24154E-02  3.21962E-01  3.34566E-01  1.61969E-01  4.07189E-01  1.41918E-01
  -1.59636E-02  1.55354E-01  2.72472E-01  1.66117E-01  1.31237E-01  2.04948E-01  5.57465E-02 -2.87225E-01  2.17857E-01  1.51217E-01
  -2.28578E-01  2.10879E-01  4.54622E-02 -2.04517E-02  3.04412E-02  1.33566E-01 -3.50983E-02  2.58412E-01  2.73206E-01 -4.33501E-02
  -8.42361E-02 -2.35964E-01  7.37073E-02  5.84876E-02  2.46193E-01 -2.69585E-01 -2.79811E-01  9.23932E-02 -2.84879E-01  7.48325E-02
   6.67304E-02  2.21748E-02  2.37918E-01  6.88593E-02  2.59303E-01  1.48677E-02 -2.24919E-01 -5.63079E-02 -1.89853E-01  2.36568E-01
  -2.32893E-02 -3.28425E-01 -5.27160E-02  1.06545E-01  2.62457E-01  2.10071E-01 -5.90801E-03 -3.53403E-02  1.65616E-01  2.84489E-01
   2.16166E-01 -2.02267E-01 -5.77425E-02  2.67344E-03  1.43544E-02  5.33777E-02  1.62418E-01  1.44916E-03  3.15135E-02  1.49657E-01
   7.46863E-02  1.86720E-01  5.18765E-02  3.71688E-01 -3.41010E-01 -7.87360E-02 -5.45546E-03 -1.13958E-01  4.15083E-01  1.00279E-01
   1.02712E-01 -2.99223E-01 -4.01428E-03  3.13866E-01  4.17473E-01  2.44949E-01  3.29760E-02 -1.60476E-01  5.24068E-02  2.15952E-01
   3.82928E-02  2.09384E-01  1.39925E-01  2.56945E-01 -1.14183E-01  8.47617E-02  2.13130E-01  1.03070E-01 -1.56241E-01 -1.48550E-02
   9.70366E-02 -3.76163E-02  8.65544E-02 -2.97018E-01  9.67950E-02  1.78463E-02  1.17151E-01  1.40939E-01  1.10213E-02  4.03751E-02
   4.94065E-02  2.93235E-01 -6.55688E-02  1.63807E-02
 NY points of the fit to the data follow
  -3.22773E-03 -1.10856E-02 -2.14795E-02 -3.07855E-02 -3.63521E-02 -3.03299E-02 -1.40171E-02 -1.80520E-03  1.41744E-02  6.96741E-02
   1.44722E-01  2.16316E-01  2.79203E-01  3.31665E-01  3.79447E-01  4.06520E-01  3.85725E-01  3.11754E-01  2.04778E-01  1.08452E-01
   4.19753E-02 -1.14633E-03 -3.01403E-02 -5.43913E-02 -7.71663E-02 -9.38729E-02 -1.07526E-01 -1.19573E-01 -1.31000E-01 -1.42568E-01
  -1.55275E-01 -1.69311E-01 -1.84438E-01 -1.92784E-01 -2.00496E-01 -2.07142E-01 -2.03868E-01 -1.77985E-01 -1.21957E-01 -4.59997E-02
   3.14443E-02  9.36343E-02  1.36664E-01  1.68444E-01  1.89498E-01  1.97860E-01  1.91305E-01  1.70520E-01  1.40967E-01  1.08447E-01
   7.54896E-02  4.27034E-02  8.20590E-03 -2.87861E-02 -6.61815E-02 -1.04107E-01 -1.44461E-01 -1.80203E-01 -2.17090E-01 -2.49687E-01
  -2.53413E-01 -2.36530E-01 -2.02236E-01 -1.53056E-01 -9.94755E-02 -3.62036E-02  3.63284E-02  1.12702E-01  1.81775E-01  2.24264E-01
   2.35594E-01  2.15624E-01  1.68864E-01  1.03867E-01  3.77484E-02 -1.49266E-02 -7.40855E-02 -1.47638E-01 -2.13591E-01 -2.48731E-01
  -2.30358E-01 -1.58720E-01 -5.35921E-02  6.07010E-02  1.61371E-01  2.35963E-01  2.73970E-01  2.75796E-01  2.57029E-01  2.29092E-01
   1.95714E-01  1.57262E-01  1.12459E-01  5.91669E-02  1.75933E-03 -6.38870E-02 -1.38489E-01 -2.11328E-01 -2.60286E-01 -2.58082E-01
  -1.93794E-01 -8.41681E-02  3.79066E-02  1.38679E-01  2.03658E-01  2.36601E-01  2.49764E-01  2.54493E-01  2.56504E-01  2.56955E-01
   2.56973E-01  2.56256E-01  2.55463E-01  2.54865E-01  2.54784E-01  2.54672E-01  2.49187E-01  2.44395E-01  2.40244E-01  2.23952E-01
   2.00619E-01  1.57724E-01  1.05070E-01  3.71452E-02 -3.33692E-02 -1.06233E-01 -1.90822E-01 -2.81217E-01 -3.66354E-01 -4.55218E-01
  -5.15217E-01 -4.98809E-01 -4.32977E-01 -4.05369E-01 -4.78970E-01 -6.34953E-01 -7.66817E-01 -7.80060E-01 -6.58919E-01 -4.75456E-01
  -3.10883E-01 -1.95733E-01 -1.19627E-01 -6.61584E-02 -2.11769E-02  1.58466E-02  4.42021E-02  6.80940E-02  8.91336E-02  1.08293E-01
   1.26348E-01  1.44010E-01  1.61737E-01  1.80038E-01  1.99815E-01  2.21945E-01  2.47228E-01  2.76831E-01  3.13510E-01  3.63404E-01
   4.32500E-01  4.71478E-01  4.74584E-01  4.96192E-01  5.35715E-01  5.24517E-01  3.75883E-01  7.35729E-02 -2.77660E-01 -5.38490E-01
  -6.32720E-01 -5.95162E-01 -5.14837E-01 -4.42855E-01 -3.88571E-01 -3.48183E-01 -3.12186E-01 -2.84118E-01 -2.65045E-01 -2.48826E-01
  -2.32838E-01 -2.18194E-01 -2.06998E-01 -1.99644E-01 -1.93765E-01 -1.87333E-01 -1.79800E-01 -1.71467E-01 -1.63057E-01 -1.54546E-01
  -1.45478E-01 -1.35917E-01 -1.26221E-01 -1.16861E-01 -1.08009E-01 -9.94058E-02 -9.11688E-02 -8.36351E-02 -7.66720E-02 -6.98987E-02
  -6.28700E-02 -5.64090E-02 -5.20355E-02 -4.97197E-02 -4.80561E-02 -4.56525E-02 -4.26052E-02 -4.05960E-02 -4.04738E-02 -4.16019E-02
  -4.23358E-02 -4.14054E-02 -3.91807E-02 -3.63043E-02 -3.31298E-02 -3.00563E-02 -2.73784E-02 -2.50478E-02 -1.94551E-02 -9.00473E-03
   3.54625E-03  1.54939E-02  3.26398E-02  6.97687E-02  1.22447E-01  1.65501E-01  1.87266E-01  1.95638E-01  2.07196E-01  2.25759E-01
   2.32866E-01  2.09459E-01  1.55688E-01  9.17555E-02  3.98601E-02  6.15285E-03 -1.39806E-02 -2.71614E-02 -3.79930E-02 -4.70924E-02
  -5.31754E-02 -5.76623E-02 -5.99155E-02 -6.09864E-02 -6.15616E-02 -6.10617E-02 -6.04721E-02 -5.93807E-02 -5.90634E-02 -6.22625E-02
  -6.27484E-02 -6.45532E-02 -7.24480E-02 -7.40058E-02 -6.70422E-02 -4.64439E-02 -1.77124E-02  1.00876E-02  4.24833E-02  7.29271E-02
   9.97276E-02  1.18215E-01  1.26530E-01  1.31756E-01  1.37617E-01  1.44632E-01  1.51391E-01  1.54892E-01  1.55277E-01  1.50933E-01
   1.39013E-01  1.19253E-01  9.33082E-02  6.43633E-02  3.42547E-02  2.00302E-03 -2.99979E-02 -6.31208E-02 -9.37382E-02 -1.19100E-01
  -1.41705E-01 -1.52591E-01 -1.41943E-01 -1.01287E-01 -2.62578E-02  6.90722E-02  1.63557E-01  2.34478E-01  2.69693E-01  2.73581E-01
   2.56771E-01  2.33419E-01  2.13673E-01  1.99970E-01  1.93005E-01  1.90683E-01  1.90050E-01  1.89618E-01  1.88009E-01  1.85036E-01
   1.81178E-01  1.76773E-01  1.72030E-01  1.66854E-01  1.61113E-01  1.54182E-01  1.45911E-01  1.35002E-01  1.22013E-01  1.05493E-01
   8.63229E-02  6.29943E-02  3.62294E-02  6.34289E-03 -2.69353E-02 -6.26437E-02 -9.82918E-02 -1.31743E-01 -1.58038E-01 -1.75799E-01
  -1.82162E-01 -1.76954E-01 -1.59909E-01 -1.31928E-01 -9.70493E-02 -5.75420E-02 -1.93174E-02  1.38301E-02  3.71577E-02  4.54481E-02
   3.90368E-02  2.20156E-02  1.58893E-03 -1.79177E-02 -3.39568E-02 -5.97290E-02 -1.45477E-01 -2.11032E-01 -2.37297E-01 -3.09334E-01
  -4.88092E-01 -7.65561E-01 -1.00946E+00 -1.06804E+00 -9.17740E-01 -6.45076E-01 -3.97053E-01 -2.37553E-01 -1.45452E-01 -9.23685E-02
  -5.43118E-02 -2.15688E-02 -3.79229E-03  8.13363E-03  1.64993E-02  2.25742E-02  2.61092E-02  2.75988E-02  2.69401E-02  2.44968E-02
   2.09905E-02  1.68552E-02  1.30838E-02  1.07071E-02  1.03805E-02  1.25798E-02  1.68042E-02  2.21649E-02  2.78095E-02  3.33159E-02
   3.85676E-02  4.36211E-02  4.81905E-02  5.21483E-02  5.53760E-02  5.82263E-02  6.09512E-02  6.36803E-02  6.62555E-02  6.84978E-02
   7.04547E-02  7.22897E-02  7.42745E-02  7.62541E-02  7.80262E-02  7.94803E-02  8.06649E-02  8.18829E-02  8.33321E-02  8.50053E-02
   8.66682E-02  8.78251E-02  8.80909E-02  8.72952E-02  8.56152E-02  8.34355E-02  8.09942E-02  7.81208E-02  7.47123E-02  7.07071E-02
   6.61912E-02  6.11705E-02  5.57447E-02  5.02152E-02  4.47769E-02  3.96345E-02  3.48037E-02  3.00896E-02  2.55237E-02  2.12232E-02
   1.72830E-02  1.37803E-02  1.06220E-02  7.74299E-03  5.04890E-03  2.41449E-03 -9.48398E-06 -2.10384E-03 -3.91104E-03 -5.36621E-03
  -6.46395E-03 -7.08488E-03 -7.07895E-03 -6.32215E-03 -4.92015E-03 -3.09589E-03 -8.12551E-04  2.02056E-03  5.26316E-03  8.53035E-03
   1.14125E-02  1.39116E-02  1.65499E-02  1.99873E-02  2.45137E-02  2.97713E-02  3.53387E-02  4.10777E-02  4.70830E-02  5.37375E-02
   6.11509E-02  6.90532E-02  7.71615E-02  8.51939E-02  9.30278E-02  1.00527E-01  1.07409E-01  1.13204E-01  1.17551E-01  1.20240E-01
   1.21321E-01  1.20899E-01  1.19192E-01  1.16624E-01  1.15212E-01  1.12745E-01  1.10026E-01  1.07328E-01  1.05964E-01  1.09435E-01
   1.16748E-01  1.23456E-01  1.24436E-01  1.16297E-01  1.01655E-01  8.46297E-02  6.92800E-02  5.74913E-02  4.85727E-02  4.16428E-02
   3.62755E-02  3.17909E-02  2.85722E-02  2.65102E-02  2.56521E-02  2.59528E-02  2.71960E-02  2.90773E-02  3.14380E-02  3.42693E-02
   3.74891E-02  4.09385E-02  4.44370E-02  4.77476E-02  5.05203E-02  5.26413E-02  5.43160E-02  5.57728E-02  5.73031E-02  5.86744E-02
   5.94451E-02  5.94641E-02  5.87449E-02  5.74721E-02  5.57098E-02  5.35041E-02  5.10507E-02  4.85063E-02  4.59990E-02  4.34772E-02
   4.08011E-02  3.80420E-02  3.53109E-02  3.25325E-02  2.96175E-02  2.66272E-02  2.37741E-02  2.11511E-02  1.86489E-02  1.60706E-02
   1.32101E-02  9.93745E-03  6.09348E-03  1.47982E-03 -3.91875E-03 -1.00700E-02 -1.67627E-02 -2.41185E-02 -3.25676E-02 -4.23930E-02
  -5.34784E-02 -6.53842E-02 -7.75759E-02 -8.96957E-02 -1.01323E-01 -1.12053E-01 -1.21771E-01 -1.30468E-01 -1.37877E-01 -1.43544E-01
  -1.47117E-01 -1.48633E-01 -1.48409E-01 -1.46733E-01 -1.43737E-01 -1.39453E-01 -1.34145E-01 -1.28454E-01 -1.22705E-01 -1.16897E-01
  -1.10846E-01 -1.04286E-01 -9.71743E-02 -8.95288E-02 -8.15516E-02 -7.33023E-02 -6.48759E-02 -5.66081E-02 -4.86733E-02 -4.10374E-02
  -3.35881E-02 -2.62632E-02 -1.94531E-02 -1.33054E-02 -7.56194E-03 -2.14377E-03  3.01779E-03  7.72737E-03  1.17394E-02  1.52434E-02
   1.84191E-02  2.13619E-02  2.39158E-02  2.59763E-02  2.77834E-02  2.93732E-02  3.07346E-02  3.19654E-02  3.30773E-02  3.41861E-02
   3.54625E-02  3.69897E-02  3.85922E-02  4.00448E-02  4.12593E-02  4.20598E-02  4.24792E-02  4.27570E-02  4.29267E-02  4.30230E-02
   4.30966E-02  4.31774E-02  4.33536E-02  4.34946E-02  4.34915E-02  4.36160E-02  4.40417E-02  4.45104E-02  4.45554E-02  4.39588E-02
   4.31418E-02  4.25237E-02  4.22836E-02  4.24338E-02  4.27196E-02  4.29663E-02  4.30191E-02  4.28250E-02  4.26000E-02  4.26603E-02
   4.32055E-02  4.40896E-02  4.50097E-02  4.59356E-02  4.68770E-02  4.78587E-02  4.87396E-02  4.95563E-02  5.03620E-02  5.10710E-02
   5.15864E-02  5.18214E-02  5.18568E-02  5.20126E-02  5.24519E-02  5.33389E-02  5.46153E-02  5.59390E-02  5.71394E-02  5.81368E-02
   5.91201E-02  6.04799E-02  6.21685E-02  6.38550E-02  6.49766E-02  6.53238E-02  6.53699E-02  6.56333E-02  6.63566E-02  6.73738E-02
   6.81914E-02  6.86590E-02  6.91682E-02  6.99888E-02  7.09935E-02  7.19859E-02  7.29801E-02  7.41405E-02  7.56253E-02  7.72891E-02
   7.89434E-02  8.06134E-02  8.24117E-02  8.43641E-02  8.64982E-02  8.89280E-02  9.18837E-02  9.53116E-02  9.91253E-02  1.02950E-01
   1.06465E-01  1.09804E-01  1.13214E-01  1.16954E-01
 NY background values follow
    -1.651E-02   -1.604E-02   -1.558E-02   -1.511E-02   -1.465E-02   -1.419E-02   -1.372E-02   -1.326E-02   -1.279E-02   -1.233E-02
    -1.186E-02   -1.140E-02   -1.093E-02   -1.047E-02   -1.001E-02   -9.546E-03   -9.084E-03   -8.622E-03   -8.161E-03   -7.701E-03
    -7.241E-03   -6.782E-03   -6.323E-03   -5.865E-03   -5.408E-03   -4.952E-03   -4.496E-03   -4.042E-03   -3.588E-03   -3.136E-03
    -2.684E-03   -2.233E-03   -1.783E-03   -1.335E-03   -8.876E-04   -4.414E-04    3.605E-06    4.473E-04    8.897E-04    1.331E-03
     1.771E-03    2.209E-03    2.646E-03    3.081E-03    3.515E-03    3.947E-03    4.378E-03    4.807E-03    5.234E-03    5.660E-03
     6.084E-03    6.507E-03    6.927E-03    7.346E-03    7.764E-03    8.179E-03    8.593E-03    9.005E-03    9.415E-03    9.823E-03
     1.023E-02    1.063E-02    1.104E-02    1.144E-02    1.183E-02    1.223E-02    1.263E-02    1.302E-02    1.341E-02    1.380E-02
