 
 $NMID
 ID=''
 FMTDAT='(2E13.5)'
 TRAMP=   1.00000E+0
 VOLUME=   1.00000E+0
 $END
  -3.97299E+2   2.81994E+2
  -1.87947E+3   7.68027E+2
   1.75680E+3   4.09545E+3
   2.64251E+3   1.25473E+3
   1.11523E+3  -6.83410E+2
   4.51335E+2   2.35585E+3
   2.26588E+3   1.95361E+3
   2.12309E+3  -1.36839E+3
   3.36373E+3  -2.72435E+2
   3.00348E+3  -6.35929E+2
   3.83605E+3  -7.01650E+2
   1.16246E+3   2.65847E+3
  -8.56158E+2   5.74964E+2
  -1.82840E+3  -1.29522E+3
   2.91358E+1  -5.07650E+3
   2.98640E+3  -1.41180E+3
   1.47819E+3   1.85355E+3
  -2.49091E+3   3.36718E+3
  -1.44115E+3   7.91859E+1
   1.97387E+3  -2.83671E+3
   9.95713E+2   1.94022E+3
  -2.41894E+3   2.71792E+3
  -3.29793E+3  -3.36363E+3
  -2.90192E+2  -4.95396E+3
   2.09171E+3   6.49451E+2
  -1.57608E+3   3.66531E+3
  -4.95174E+3  -7.56602E+2
  -1.43503E+3  -3.44239E+3
   2.13470E+3  -1.01900E+3
   4.23414E+3   8.51435E+2
   5.49389E+2   4.83536E+3
  -3.39372E+3   2.48013E+3
  -1.71689E+3  -3.43255E+3
   1.18867E+3  -2.36067E+3
   1.76414E+3  -1.48830E+3
   1.22684E+3  -4.21796E+3
   5.53682E+3  -1.54293E+3
   3.12112E+3   1.37413E+3
  -1.44173E+1   1.55499E+3
   3.52083E+2  -1.93009E+3
  -4.59469E+3  -1.11213E+3
  -5.30689E+3  -1.91113E+3
   1.33245E+2  -2.64037E+3
   3.41305E+3  -3.95720E+2
   1.13624E+3   4.65461E+3
   3.37867E+2   2.46463E+3
   4.60952E+2   3.28388E+3
  -2.09736E+3   4.59669E+3
  -3.99418E+3   1.05885E+3
  -3.12937E+3  -3.46827E+2
  -2.44645E+3   2.57558E+2
   9.48106E+2  -2.70734E+3
   1.36085E+3   2.47264E+3
  -1.23813E+3   1.89508E+3
  -3.16027E+3   7.86574E+2
  -4.43490E+3   4.00920E+2
  -5.28888E+3  -3.93576E+3
  -6.39128E+3  -3.38604E+3
  -1.60795E+0  -6.03498E+3
   4.69039E+3  -4.26642E+3
   4.61901E+3  -1.96098E+3
   4.49872E+3   1.91817E+3
  -4.23555E+2   1.05656E+3
  -6.82198E+2   4.71258E+2
   2.12100E+3   5.86816E+2
   4.25682E+3   1.42664E+3
  -1.65733E+3   2.49229E+3
  -9.63271E+2   1.10376E+3
   1.03734E+2  -5.26459E+2
  -2.24054E+3   2.22279E+3
   1.20930E+3   3.75990E+3
  -8.48412E+2  -7.56598E+2
  -4.96020E+2  -4.57562E+2
   2.70021E+3  -2.54509E+2
   1.47828E+3  -3.88431E+2
   1.78897E+3   1.94498E+3
  -1.45650E+3  -5.29144E+2
   2.46690E+3  -5.05190E+2
   1.28946E+3   1.37130E+3
  -3.40102E+2   3.46093E+3
  -9.44870E+2   1.82493E+3
  -8.42967E+2   9.33375E+1
   1.29387E+3   3.01643E+3
  -2.10435E+3   3.51578E+3
  -2.21852E+3   1.47725E+3
  -2.29140E+3  -2.48759E+3
  -1.24638E+3  -1.50482E+3
   1.12031E+3  -2.19732E+3
   2.15580E+3  -1.46980E+2
  -1.49498E+3   2.58862E+3
  -1.27170E+3   3.52263E+2
   6.39568E+1   1.81163E+3
  -4.46639E+2   1.49673E+3
  -4.47761E+3   1.36829E+3
  -1.08734E+3  -3.65151E+3
   2.81600E+3  -2.63319E+3
   3.24555E+3  -3.71217E+2
   3.28032E+3   2.90438E+2
  -8.43161E+2  -8.32948E+2
  -1.31547E+2  -2.67920E+3
   2.12697E+3  -2.30791E+3
   4.31813E+3   8.20707E+2
   1.53818E+3   4.65174E+3
   7.76584E+1   2.75044E+3
  -9.87391E+2   9.07042E+2
   1.59256E+3  -1.10281E+3
   1.65605E+3   7.18105E+2
  -2.13192E+2  -1.30466E+3
  -1.03356E+3  -2.80756E+3
   1.79332E+3  -2.57318E+3
   2.07206E+3   5.29731E+2
   1.46122E+3   2.39311E+3
  -8.00123E+2   2.41358E+3
  -1.62438E+3  -7.96605E+1
  -1.79032E+3   2.12720E+3
  -1.00098E+3  -1.35582E+3
  -1.12358E+3  -1.60891E+3
   8.86638E+2  -3.30930E-2
   2.87815E+2  -7.81838E+2
   1.29513E+3   2.45700E+3
   4.45201E+2   2.14468E+3
  -3.60092E+2  -1.05670E+3
   4.21003E+2  -1.00663E+3
   1.45530E+3  -2.76199E+3
   9.89898E+2   3.20382E+2
  -7.51214E+2   5.05298E+2
   3.38009E+1  -2.40667E+3
   1.05230E+3   1.17579E+2
  -2.57937E+3   8.36239E+1
  -1.49863E+3   2.01331E+2
   9.34534E+2  -2.52055E+3
   2.14805E+3  -2.67400E+2
   2.65261E+3   7.65286E+1
  -1.54102E+2   1.66201E+3
  -1.11656E+3   1.27669E+3
  -4.52827E+2  -4.07777E+2
  -1.82788E+2  -1.44735E+3
   1.40072E+3   4.35765E+2
  -1.24812E+2  -2.08650E+3
   8.77755E+2  -9.78576E+2
  -4.92010E+1   1.29572E+3
  -1.00966E+3  -1.69924E+3
   1.18328E+3   2.31490E+3
  -2.28582E+3   2.87369E+2
  -2.44358E+3   1.26304E+3
  -1.32824E+2  -8.45669E+2
  -8.09835E+2  -4.65780E+1
  -1.01514E+3   2.17173E+2
  -2.30571E+2   6.63209E+2
   4.95849E+2   8.17864E+1
  -1.52611E+3  -2.15833E+2
  -3.53163E+2  -2.96075E+3
   1.17218E+3  -2.20667E+3
   9.99456E+2  -7.08266E+2
   1.66008E+3  -1.23766E+3
  -8.73464E+2   6.94424E+2
   5.22035E+2  -2.27624E+3
  -1.00010E+3   7.67512E+1
  -5.86141E+2   2.20381E+3
  -6.52878E+2  -1.62549E+2
  -6.41612E+1  -5.84000E+2
  -1.63640E+3  -1.42768E+2
   1.64852E+2  -2.80231E+2
  -7.86281E+1  -2.07058E+3
  -7.78580E+2  -7.70781E+2
  -9.87980E+1  -8.32626E+2
  -4.11659E+1  -1.76611E+3
   1.15861E+3   4.57072E+2
   1.57526E+3   1.89226E+3
   1.39309E+3   4.14212E+2
  -3.24038E+1  -5.59126E+2
  -1.96826E+3  -8.96931E+2
   6.06526E+2  -2.61834E+3
  -1.09499E+3  -8.40031E+2
   2.44841E+2  -1.85037E+3
  -1.02342E+3  -1.83573E+3
   4.62577E+2  -5.64050E+2
  -1.55751E+3  -4.52376E+2
  -1.40515E+3   3.25346E+2
  -2.40366E+1  -2.02644E+3
   7.45872E+2  -1.59520E+3
  -2.30711E+2  -1.67708E+2
  -5.76202E+2  -1.20671E+3
   1.54086E+3   2.01384E+2
   4.54022E+2  -4.91455E+2
   1.59745E+3   7.71380E+2
  -1.22394E+3   6.98507E+2
  -5.27907E+2  -1.39526E+3
   2.68496E+2  -2.73511E+3
   9.78947E+1  -4.54019E+2
  -2.63499E+2  -9.42420E+2
  -1.38421E+3  -9.38149E+1
   1.25462E+3  -1.24573E+2
   1.95128E+3  -1.11661E+3
  -2.13569E+3  -1.26431E+3
  -3.06241E+1   2.75814E+2
   8.78133E+2   2.17848E+2
  -8.16509E+2  -1.32409E+3
   2.12334E+3   2.88955E+2
   5.43286E+2   2.16626E+2
  -3.24550E+2  -3.36439E+2
   4.88069E+2   9.10459E+2
   1.78896E+3  -3.56064E+1
   3.25510E+3  -5.97452E+2
  -1.30115E+2  -1.94528E+3
   1.72252E+3   6.89661E+2
   2.52994E+3  -6.11054E+2
  -5.84138E+2   5.16702E+2
   1.06674E+3  -2.25566E+2
  -5.80291E+2  -9.22538E+2
  -2.65422E+3  -2.43680E+3
   9.03815E+2  -1.74700E+3
   4.63414E+2   9.75046E+2
  -1.86519E+3   5.55179E+2
  -5.45799E+2   7.86571E+2
   5.19258E+2   1.70303E+2
   1.05091E+3   1.21576E+3
  -7.58685E+2   8.39643E+2
  -7.75249E+2   6.82538E+1
   4.35919E+2  -4.87540E+2
   7.88853E+2   9.95056E+2
  -7.88768E+2   1.09379E+3
   1.01035E+3  -1.14418E+3
   1.49729E+3  -2.33790E+3
   1.73290E+3   1.61737E+2
   1.79578E+3  -7.37577E+2
   2.65194E+2  -1.01764E+3
   1.25806E+3   1.37192E+3
   5.68687E+2  -1.03395E+2
  -2.91742E+2  -9.62235E+2
   1.90882E+3   1.40470E+3
   7.63402E+2   2.72685E+2
   2.57341E+3  -1.33170E+2
   3.69766E+2   1.00024E+3
   2.59400E+3   1.17721E+3
   1.27543E+3  -4.90286E+2
  -7.52201E+2   9.33772E+2
   1.14084E+3   3.91679E+2
   1.25362E+3  -1.06906E+3
   2.11125E+3  -9.19709E+2
   1.23933E+3  -1.05970E+3
  -6.42204E+2   2.92072E+3
  -1.55826E+3   1.92095E+3
  -9.99409E+2   3.36780E+2
   1.12862E+3  -9.10338E+2
   3.89334E+2   8.94340E+2
   1.49561E+3   5.59152E+2
   7.08535E+2   6.67963E+2
   4.99473E+2   2.70571E+3
  -7.83931E+2   9.12579E+2
  -1.13901E+3   1.18906E+3
  -2.13919E+3   3.98150E+2
   1.21298E+3   1.23662E+3
   1.09477E+3  -5.59775E+2
   3.44540E+2  -7.83164E+2
   9.58963E+2   2.01452E+2
   2.34038E+3   1.84986E+3
   2.32365E+2   2.00577E+3
  -2.47153E+3   8.73889E+2
  -1.39822E+3   4.41551E+2
  -4.18885E+2  -5.28897E+2
  -3.74749E+2  -1.98051E+2
  -1.18377E+3  -6.76576E+1
   8.80793E+2   3.17878E+2
   1.10407E+3   5.86387E+2
   6.69104E+2   1.82227E+3
   1.02462E+3   5.80728E+2
   1.62660E+3   8.69185E+2
   8.25619E+2  -2.86665E+2
   1.85994E+3   6.71621E+2
   7.36292E+2   5.79690E+2
   1.21772E+3   1.45731E+3
  -2.26768E+3  -1.72780E+3
  -6.04589E+2  -1.45288E+3
   4.44691E+2  -4.45742E+1
   4.23573E+2   1.80333E+2
   7.58959E+2   1.34910E+2
   9.03203E+2  -7.40939E+1
   1.18241E+3  -1.01718E+3
   8.44128E+2   1.53275E+3
   1.43767E+3   1.56453E+3
   5.93990E+2   1.30765E+3
  -1.02728E+3   8.05586E+2
  -8.58704E+2  -5.49993E+2
   5.89821E+2   6.31795E+2
  -8.90101E+0   7.10937E+2
   4.87204E+2  -2.46304E+2
   2.46229E+2   2.84607E+2
  -4.29480E+2   8.87103E+2
   1.39507E+2  -1.41450E+3
  -5.79363E+2   3.16421E+2
   6.23927E+2   8.01772E+2
  -6.48623E+2  -1.45252E+2
   3.50430E+2   1.45370E+3
  -3.03239E+2   2.99422E+2
  -4.60677E+1   8.04570E+2
   1.05853E+3   8.34364E+2
   3.46305E+2   2.76382E+3
   1.18788E+3   1.11515E+2
  -1.32244E+3  -2.03435E+2
  -3.40178E+2  -9.10482E+2
   5.67940E+2  -3.48235E+2
   6.08215E+2  -5.51809E+2
   1.04422E+3  -4.60202E+1
  -2.70263E+1   1.53997E+2
   1.05642E+3  -3.38693E+2
   1.89435E+3   7.64109E+1
   3.25328E+1   7.47861E-1
   1.59423E+3  -5.77828E+2
   9.37602E+2   2.05270E+3
  -6.47681E+2  -5.04504E+2
   1.15701E+3  -4.04700E+2
  -1.53257E+2   1.01459E+3
   1.36283E+3  -1.27770E+3
   9.71964E+1  -8.60001E+2
   4.35426E+2   1.03368E+3
  -2.47525E+2  -1.72548E+2
  -1.68004E+2   8.73526E+2
   9.95188E+2  -1.21576E+3
   1.57892E+3   4.43714E+2
  -5.49610E+2   1.54069E+3
   1.51156E+3  -6.10377E+2
   5.58522E+2   5.60258E+2
   3.06058E+2   4.75516E+2
   7.02837E+2  -4.01212E+2
   2.16635E+2  -7.98196E+2
  -1.02709E+2  -2.24366E+2
  -1.96258E+2  -9.99154E+1
   1.78846E+2   2.07683E+3
   1.43856E+3   1.48302E+3
  -2.21082E+3  -1.81875E+3
  -1.32531E+3   1.67782E+3
   1.45256E+3  -1.09285E+2
   2.22069E+3   1.18402E+3
  -5.92992E+2   1.17997E+3
  -6.99648E+1  -3.66829E+2
  -4.38483E+2  -4.57323E+2
   2.43972E+3   1.93675E+3
  -1.60568E+2   4.84963E+2
  -1.42961E+3  -7.26975E+1
  -3.36463E+2  -7.19716E+2
   2.12910E+3   3.40240E+2
   6.77634E+2   2.82000E+3
  -6.97665E+2   2.29699E+2
   1.67688E+3   1.34680E+3
   1.02767E+3  -1.03411E+3
  -9.07120E+1  -8.50387E+1
   2.86551E+2   1.82042E+3
  -4.65731E+2   1.12274E+3
  -6.84731E+2  -1.41124E+3
   3.31513E+2   2.94630E+2
  -7.87011E+2   1.82800E+3
  -1.22129E+3   3.41181E+1
   1.06950E+3   5.89660E+1
   1.17386E+3  -1.70841E+3
   1.80254E+3  -4.40331E+2
  -1.30829E+2   3.31755E+2
  -1.80183E+3   8.76260E+0
   1.36570E+3  -7.53278E+2
   8.18352E+2  -2.70954E+3
   3.48926E+2  -1.77422E+3
  -1.82140E+3   2.80658E+3
   1.31191E+3   6.42799E+2
   1.67886E+3  -1.07159E+3
   1.00740E+3   1.88513E+3
   3.89727E+2  -6.21752E+2
   1.11159E+2  -3.72476E+2
