 
 $NMID
 ID=''
 FMTDAT='(2E13.5)'
 TRAMP=   1.00000E+0
 VOLUME=   1.00000E+0
 $END
   4.05744E+2   2.54003E+2
   8.63015E+2   6.99750E+2
   9.48599E+2  -1.89755E+3
  -2.75906E+2  -1.93005E+3
  -3.39140E+2  -2.26948E+2
  -1.52249E+2  -2.60705E+3
  -1.66728E+2   6.25906E+2
  -1.34721E+3   1.45296E+3
   5.11552E+2   7.77257E+0
  -9.69704E+2  -5.04574E+2
  -1.44805E+3  -8.02736E+2
   8.95890E+2  -2.26520E+3
   2.05071E+3   5.68270E+2
  -5.07470E+2   1.65074E+3
   1.10959E+3   2.50812E+2
   6.57888E+2  -6.91721E+2
   1.12941E+3   5.27749E+2
  -9.49905E+2   6.16761E+2
  -1.26246E+3   1.03324E+3
  -2.57682E+3  -1.50837E+3
   2.44394E+3  -3.01279E+2
   3.89301E+3   1.57647E+3
   7.04779E+2  -6.60469E+2
   2.33829E+2  -3.19812E+1
   3.15314E+2   1.19959E+3
  -5.34502E+2   7.34318E+2
  -2.13883E+3  -2.86836E+2
  -2.82981E+3   1.54676E+3
  -1.80341E+3   1.26634E+2
  -2.76945E+1  -2.48260E+3
   1.61718E+3  -2.18996E+3
   1.21941E+3  -1.24617E+2
   6.81219E+2   2.00573E+3
  -9.56734E+2   1.51426E+3
  -1.31106E+3  -4.44061E-2
  -2.21463E+3   1.20343E+3
  -3.56387E+3  -3.68537E+1
  -7.98246E+2  -3.16415E+3
  -1.26219E+3  -1.23243E+3
  -2.61673E+3  -3.29885E+3
   1.51910E+3  -3.94519E+2
   2.83326E+2  -3.44534E+2
  -1.20396E+3   2.78864E+3
  -8.29304E+2  -6.41982E+1
   4.43951E+2  -1.39455E+3
   2.98582E+3  -1.78675E+3
   9.29334E+2  -1.64763E+3
   2.95756E+3   1.68673E+2
   5.39448E+3   4.34872E+2
   3.12092E+3   5.39928E+2
  -6.77331E+2   3.63177E+3
  -1.24877E+3  -9.32748E+1
  -1.92103E+3  -1.22499E+3
  -1.44272E+3  -5.50453E+2
  -8.85268E+2  -1.02896E+3
   1.91278E+3   1.78702E+2
   2.13329E+3  -2.89373E+3
   2.84541E+3   2.44061E+3
   2.01807E+3   3.01016E+3
   4.43311E+2   2.41242E+3
  -2.90864E+3   1.08488E+2
  -1.94363E+3   9.12135E+2
   5.06884E+2   1.74598E+3
   1.93602E+2   1.20487E+3
   8.66099E+2   1.44521E+3
  -1.71077E+3  -1.21633E+3
   2.63888E+3   3.32779E+2
   4.58426E+2   9.93395E+2
   2.42113E+2   4.41845E+2
  -6.99126E+2   4.27681E+2
   1.52909E+3   3.11935E+3
  -8.90381E+2   8.30023E+2
   1.33330E+2   6.53006E+2
   1.68638E+2  -2.29846E+2
  -1.53585E+3   8.62287E+2
  -1.86561E+3  -4.52505E+2
  -5.18099E+2  -1.31858E+3
  -1.18006E+3   1.75930E+3
  -1.52464E+3  -8.40278E+2
  -2.32307E+2  -5.91504E+2
   9.12397E+2   3.39248E+1
  -4.30289E+2   1.29501E+3
  -3.27925E+2   1.42575E+2
  -2.16578E+3  -1.43927E+3
  -2.43135E+3   9.89304E+2
  -6.06582E+2  -4.64031E+2
  -3.18926E+2   4.23410E+2
  -1.48019E+3   1.00039E+3
  -4.17777E+2  -2.89315E+3
   1.12165E+3  -2.56582E+3
   6.90411E+2  -1.36918E+3
   1.16946E+3  -1.43112E+2
  -1.02858E+3  -1.06946E+3
   6.03698E+2  -1.29489E+3
  -1.20546E+3  -7.69725E+2
  -3.50146E+2  -4.29990E+2
  -4.36222E+2  -1.45887E+3
   6.97268E+2  -2.99282E+3
  -7.71644E+2  -1.87880E+3
   1.14066E+2   1.40600E+3
  -1.17840E+3  -6.73388E+2
   2.63301E+2   8.68322E+2
  -2.34675E+2  -1.24099E+3
  -2.46832E+3  -1.71545E+3
  -1.09676E+3   1.84976E+1
   1.56237E+2  -8.78914E+2
   1.23205E+3  -7.52930E+2
   1.76916E+3  -1.00334E+3
   1.00538E+3  -5.76575E+2
   3.62318E+2  -6.48971E+2
  -7.93524E+2   3.87522E+2
  -3.20358E+2  -7.12169E+2
  -5.11885E+2  -9.03857E+2
   2.84694E+2  -1.28508E+3
  -1.70204E+3   6.46059E+2
   1.34843E+3   9.32413E+2
   2.86797E+2   1.57255E+3
   3.47874E+2   4.47213E+2
   1.35800E+3   4.40568E+2
  -4.47521E+2   8.76943E+2
   1.50046E+3  -5.51206E+1
  -1.87070E+2  -2.01708E+3
   1.92231E+3  -7.58012E+2
   1.03785E+3  -4.44888E+2
   1.31888E+3   5.11949E+2
   1.35932E+3   4.16135E+2
  -5.20718E+2   4.20190E+2
   1.35517E+3  -1.11286E+3
   2.12421E+3   1.67474E+3
  -6.42542E+1   9.65588E+2
   6.46124E+2   7.86623E+2
   2.39629E+3  -2.95540E+2
  -1.55056E+3   1.87107E+3
   2.65489E+2   3.21339E+3
   9.82102E+2  -1.22590E+3
  -2.69015E+2   4.59333E+2
   1.26536E+3   6.09060E+2
   3.60131E+2  -3.04797E+2
   7.16139E+1   4.65119E+2
  -2.33996E+2   1.91564E+2
   9.65973E+2   1.19540E+3
  -2.02118E+2   5.79577E+2
   2.50124E+2   1.48552E+3
   1.67628E+3  -4.58601E+2
   8.97048E+2   1.39572E+2
   7.88505E+2   5.19625E+2
  -1.24994E+2   1.62760E+2
  -5.10842E+1  -1.10648E+3
  -6.38738E+2   8.18348E+2
  -8.52401E+2   6.77616E+1
   1.61286E+3  -5.10088E+2
   6.65287E+2   3.05377E+2
   3.90867E+2   1.77180E+2
  -1.69407E+2   5.72539E+1
   1.03678E+3   4.08331E+2
   9.35317E+2   2.19541E+3
  -4.71438E+2   3.80883E+2
  -3.80632E+2  -7.43236E+2
  -2.08232E+3  -1.26515E+3
  -4.22061E+2  -8.86017E+2
  -2.27172E+1  -3.90726E+2
  -3.80288E+2   2.51303E+1
  -8.01373E+2  -7.31279E+2
  -3.43314E+2   1.74191E+2
  -2.24259E+2  -2.26725E+2
  -3.01003E+2  -1.15925E+3
  -9.48034E+2  -8.02903E+2
  -6.11811E+2  -6.41830E+2
  -1.36812E+3  -4.66809E+2
  -5.99359E+2   3.18723E+2
  -4.32098E+2   9.48581E+2
   5.27707E+2   1.88958E+2
  -9.62056E+2   2.46985E+2
  -3.44260E+2   2.11007E+2
  -1.13521E+3   1.12136E+3
  -1.28495E+3   5.69325E+2
  -1.90610E+3  -2.14597E+3
  -6.98820E+1  -1.04651E+3
   2.72604E+2   5.45590E+2
  -1.11595E+3   6.03873E+1
  -2.01516E+3   4.91455E+2
   1.93920E+3   3.54690E+2
  -8.07972E+2   8.12482E+2
   2.94507E+2   9.99294E+2
   7.66111E+2  -8.21410E+2
   6.98128E+2  -6.06076E+1
  -9.17067E+2   9.25921E+2
  -2.32466E+3   1.96662E+3
   2.44934E+2   5.99511E+2
   9.48433E+2   5.36430E+2
  -7.62297E+1  -8.67471E+1
  -9.15037E+2  -9.25268E+2
   7.08608E+2   2.54390E+3
  -1.65230E+3   5.36170E+2
   5.06058E+2  -6.23628E+2
   1.87745E+2  -9.74928E+2
   1.11378E+3  -6.04886E+2
  -9.34271E+2   1.10538E+3
   4.32308E+2   5.99097E+2
   1.46467E+2  -1.23177E+3
   5.24711E+1  -6.12561E+2
  -2.29541E+3   8.42482E+2
   7.27879E+2   3.16323E+2
   5.43782E+2  -1.37099E+3
  -7.95810E+2   5.67614E+2
   7.10517E+2  -1.06142E+3
   9.67913E+2   2.08062E+2
  -8.83294E+2  -3.33273E+2
  -8.87922E+2  -7.98200E+2
  -2.43108E+3  -6.81508E+2
  -1.09503E+3   2.63699E+2
   4.89889E+2   4.45911E+2
   1.48083E+2  -1.21440E+3
  -1.11663E+3   1.01816E+3
  -4.69310E+2   7.06426E+1
   1.83305E+2  -7.88610E+2
   3.52747E+2   1.48118E+2
  -1.64479E+3   4.89014E+2
   8.88120E+2   1.46292E+2
   1.27433E+2  -4.95524E+2
   4.84478E+2  -7.06377E+2
  -1.86176E+3   3.95716E+2
  -8.82659E+2  -3.47633E+2
  -1.06419E+3   6.34019E+1
   3.66729E+2   6.24891E+2
   1.74864E+3  -4.78360E+2
   1.38196E+2  -1.26351E+3
   1.97197E+3   6.74808E+2
  -2.83717E+2  -2.74562E+3
   1.02107E+3  -1.11604E+3
  -1.16627E+2  -2.01391E+3
  -1.35634E+3  -4.47933E+2
   1.20486E+3  -2.57788E+2
  -1.08514E+3   9.20861E+2
  -5.95493E+2  -5.40100E+2
   1.78684E+3  -1.13084E+3
  -9.68227E+2   9.41046E+2
   1.54325E+3   6.42057E+2
  -4.02286E+1  -1.01820E+3
   1.32930E+2   4.56767E+2
   9.76369E+2   7.42024E+1
  -4.15393E+2   9.43303E+2
   8.59105E+2  -9.73328E+1
   3.04402E+2  -1.35939E+3
  -5.79569E+2  -3.01346E+2
  -8.05533E+2   2.59254E+2
  -1.99644E+3   1.38833E+2
   1.38436E+3   2.61503E+2
  -1.13473E+3  -5.14752E+2
  -1.89601E+3  -8.31970E+2
  -2.07434E+1  -6.37609E+2
  -8.47544E+2  -1.41042E+3
  -5.15742E+1  -9.44177E+2
   8.21120E+2  -1.64441E+3
  -1.66928E+3  -5.75720E+2
  -3.44061E+2   8.26368E+2
   2.48000E+3   1.47294E+3
   3.23290E+1   1.43388E+3
   1.84716E+2   2.01336E+2
  -2.88633E+3   1.76309E+3
   5.97535E+2  -2.62027E+3
   2.01813E+2  -7.15783E+2
  -3.60870E+2   1.49885E+3
   1.09995E+3  -2.11792E+2
  -1.91743E+3   1.00609E+2
  -9.79170E+2  -1.59353E+3
  -2.04931E+3  -1.29184E+3
   3.05776E+3  -4.81358E+2
   4.85108E+1  -3.12631E+2
  -5.06817E+2   5.50945E+2
  -1.76191E+3   3.27401E+1
  -6.87202E+2  -9.93601E+2
   7.32901E+2   3.70142E+2
   1.41529E+3   8.58641E+2
   9.89449E+2  -1.50314E+3
  -5.15415E+2  -1.18066E+2
  -6.08205E+2   9.30331E+2
  -7.18342E+2  -1.66442E+3
  -5.36229E+2   1.14526E+3
  -1.39638E+2   5.68764E+2
  -1.37174E+3  -1.60248E+2
  -3.16575E+1  -7.41126E+2
  -1.56109E+3   1.19477E+2
  -2.19846E+3   3.71011E+2
  -3.92491E+2  -8.41695E+1
   3.74474E+2  -3.52088E+2
   3.79065E+2   1.11112E+2
   9.92189E+2  -6.04483E+2
   1.58692E+3   2.52088E+3
  -9.01250E+2   8.74643E+2
  -1.49017E+3   1.91770E+3
   1.68800E+3   1.14896E+0
   1.60038E+3  -2.45969E+2
  -1.24674E+3  -9.30276E+2
  -1.60158E+3   2.61694E+2
   2.60511E+2  -8.66675E+2
  -1.71884E+3   5.31525E+2
  -3.11866E+2  -1.25998E+3
   2.33138E+2   2.20959E+3
  -1.18141E+3   2.19605E+2
   3.13520E+2  -8.59720E+2
   4.98945E+2  -1.26062E+2
   7.22444E+2  -6.16990E+2
   8.92610E+2   2.13780E+3
  -1.31289E+3   4.98391E+2
   5.27692E+2  -2.41341E+2
   5.91270E+2   1.21597E+2
  -2.04344E+3   8.41019E+2
  -4.89399E+2  -1.31024E+2
   2.55053E+2  -1.29670E+3
  -3.74169E+2   1.26987E+3
   3.53964E+2  -9.27593E+2
   4.33986E+2  -1.62348E+2
   7.91459E+2   2.10387E+3
   1.68309E+3  -2.09591E+3
   1.11715E+3  -1.51594E+3
  -1.18005E+3  -2.16902E+3
   8.51193E+2   1.03492E+3
   1.86801E+1  -1.32013E+2
  -2.11432E+2  -1.14217E+3
   5.36180E+1   1.76361E+2
   1.44776E+2  -5.98055E+2
   7.13409E+2  -7.24156E+2
   1.65513E+3  -3.45928E+2
   1.75671E+3  -3.05514E+2
  -3.65937E+2   1.91299E+3
  -6.06095E+2   5.77547E+2
   1.17798E+3  -1.09360E+3
   6.95341E+2  -1.98447E+3
   4.85270E+2  -6.48472E+2
   8.73459E+1   1.26155E+2
   9.86144E+2  -1.03853E+3
   2.18808E+3  -1.24791E+3
  -2.99212E+2  -1.02643E+3
  -1.69853E+3   2.25055E+3
  -1.59278E+3   1.12752E+3
  -4.28690E+2  -7.95072E+2
   8.38586E+2  -9.48260E+2
   9.72690E-1   1.06756E+3
  -5.58057E+2   1.34656E+3
   5.12413E+2   6.68964E+2
  -4.36577E+2   1.05766E+3
   1.63107E+1  -4.85597E+2
  -2.81499E+2  -2.42429E+3
   8.62085E+2   1.10390E+3
   5.06604E+2  -1.33562E+2
  -3.92784E+2  -1.49907E+1
  -2.02719E+2  -1.36867E+3
   4.95837E+2   1.11372E+3
   1.85321E+3  -7.69182E+2
   2.36380E+2   1.25949E+3
  -3.51492E+2  -8.82187E+2
   2.01927E+3  -2.24114E+1
   1.53718E+3   2.86599E+2
  -6.99567E+2   1.07679E+3
   7.95264E+2   6.60643E+0
   6.43229E+2   2.29745E+2
   8.68175E+2   7.57676E+2
  -8.03442E+2   1.75689E+2
  -3.84929E+2  -4.73757E+1
  -1.30407E+2   9.39506E+0
   4.83416E+2  -3.05243E+2
   2.19554E+2   5.44664E+2
  -9.77175E+2   1.29666E+3
  -4.36952E+2  -1.09662E+3
  -8.36565E+2   9.26682E+2
   8.99090E+2  -1.45463E+3
