 
 $NMID
 ID=''
 FMTDAT='(2E13.5)'
 TRAMP=   1.00000E+0
 VOLUME=   1.00000E+0
 $END
  -9.58569E+0   4.26806E+2
  -1.33250E+3   2.55903E+3
   5.02461E+3   3.88766E+2
   3.76573E+3  -7.76704E+1
   1.04399E+3  -1.43781E+3
   2.71148E+3   7.49558E+2
   2.05804E+3   2.20492E+2
   1.49455E+2  -2.45750E+3
   4.08025E+3  -5.95643E+3
   1.08566E+3  -5.94581E+3
   2.30281E+3  -3.10565E+3
   2.86351E+3   1.09395E+3
  -2.29483E+3   3.06196E+3
  -6.46255E+3  -7.96007E+2
  -2.60313E+3  -2.65448E+3
   3.21168E+2  -1.39070E+3
   2.70176E+3   3.63841E+2
   7.95555E+2   2.96514E+3
  -2.75658E+3   1.07662E+3
   2.65922E+2   1.64791E+2
   2.79322E+3   4.37963E+3
   1.57787E+3   6.16140E+3
  -2.67344E+3   2.74034E+3
   1.42047E+3  -2.99761E+3
   3.58952E+3  -2.85304E+3
   1.07988E+3   2.98937E+3
  -2.65719E+3   9.82969E+1
  -8.63818E+2  -4.74739E+3
   6.25504E+2  -3.86178E+3
   4.57287E+3  -4.78425E+2
   2.88869E+3   5.17030E+3
  -5.54617E+3   3.32770E+3
  -7.97363E+3  -3.14588E+3
  -2.30228E+3  -2.46629E+2
  -2.42817E+3  -5.38285E+1
  -3.59871E+3  -3.05173E+3
  -3.50915E+2  -3.67141E+3
   4.29843E+3   8.48235E+2
  -8.52380E+0   3.09314E+3
  -9.37652E+2   4.44959E+3
  -1.92754E+3   5.18511E+3
  -6.24318E+3   2.50354E+3
  -2.79220E+3  -5.19836E+3
   5.56649E+3  -2.76888E+3
   5.89294E+3   9.55732E+2
   1.40242E+3   1.78603E+3
   1.25996E+3   2.51326E+3
   1.41275E+3   3.39905E+3
  -1.60617E+3   4.38052E+3
  -2.80871E+3   2.20761E+3
  -3.28640E+3  -4.58461E+2
   1.82247E+2  -3.12368E+3
   1.82199E+3   1.60941E+3
   1.05766E+3   4.98704E+3
  -9.34937E+2   1.72719E+3
  -8.93199E+2   1.28702E+3
  -4.55942E+3   1.00747E+3
  -3.86942E+3  -2.58977E+3
  -1.08527E+3  -5.63043E+3
   3.50971E+3  -6.58119E+3
   4.31928E+3   3.60477E+2
   4.50595E+3  -2.33645E+2
   1.80551E+3   2.09843E+3
  -2.14869E+3  -9.17215E+2
   3.80737E+2  -2.58753E+3
  -5.25228E+2   3.86083E+3
  -1.82190E+3   3.87220E+3
  -3.49694E+3   1.46639E+3
  -2.11652E+3  -5.49636E+1
   7.90221E+2   3.28241E+2
  -2.54141E+3   7.81048E+2
  -1.48267E+3  -3.34230E+2
  -1.93950E+3  -2.69622E+3
   1.87935E+3  -3.90229E+3
   2.26940E+3  -2.15287E+3
   1.87233E+3  -5.37169E+2
  -7.37242E+2  -1.44094E+3
   4.25660E+2  -2.79781E+3
   2.75620E+3  -1.23625E+3
   1.20296E+2   9.20332E+2
  -1.11364E+3  -9.31122E+2
  -2.04336E+2  -2.38674E+3
  -9.89072E+2  -9.33865E+2
   6.36056E+2  -9.03373E+1
  -2.64581E+3  -2.88384E+3
  -3.84966E+3  -1.61696E+3
  -2.57534E+2  -3.13383E+3
   3.72575E+3  -3.40636E+3
   4.96480E+3   5.49062E+2
   3.50970E+2   1.41663E+3
   1.00017E+3  -7.51577E+2
   1.52791E+3  -1.28942E+3
   2.56598E+2   2.98202E+3
  -2.83729E+3   2.40236E+3
  -3.19026E+3  -8.83491E+2
   1.93638E+3  -2.04482E+3
   2.77206E+3  -7.37924E+2
  -1.04625E+2   2.79295E+3
  -1.62311E+3  -1.53089E+2
  -3.92723E+3  -1.31981E+3
  -2.58823E+2  -4.30558E+3
   4.08809E+3   6.35035E+2
   1.33076E+3   3.03202E+3
  -1.10081E+3   2.53716E+3
  -1.45649E+3  -7.10322E+2
  -1.65898E+3  -4.56642E+2
   7.70872E+2  -7.44808E+2
  -1.19161E+3  -3.44756E+3
  -2.17603E+1  -3.56919E+3
   2.87416E+3  -3.29196E+3
   5.12052E+3   1.70161E+3
   2.29119E+3   3.38690E+3
  -8.62662E+2   3.36414E+3
   5.10488E+1   1.04897E+2
  -1.16993E+3   1.60005E+3
  -1.98767E+3  -1.66641E+3
   1.70719E+2  -2.34869E+3
   8.48728E+1   1.14931E+3
   8.11278E+2   1.20471E+3
   1.25878E+3   1.18886E+3
  -4.99924E+2   2.22630E+3
  -3.98716E+3   8.67269E+1
  -8.38100E+2  -1.79772E+3
   1.89299E+3  -1.19603E+3
  -7.15082E+2   2.27501E+3
  -4.60891E+2   1.42292E+3
   1.57604E+3   4.75276E+2
   9.43650E+2   2.44392E+3
  -2.38891E+3   3.20183E+3
  -2.82459E+3   1.38275E+3
  -1.37519E+3   4.03772E+1
  -1.26278E+3  -8.60755E+2
   2.05794E+3   1.70242E+3
   1.42271E+3   4.50719E+3
  -3.30890E+3   2.98307E+3
  -2.15511E+3  -6.80959E+2
   1.23620E+3  -2.66869E+2
   2.23120E+3  -1.67750E+3
   7.13374E+2   1.79277E+2
  -1.30611E+2   9.40705E+2
   3.33066E+3  -2.25661E+3
   1.08674E+3   1.63732E+3
   6.56969E+2   2.25292E+3
  -2.42904E+2   1.95271E+3
  -9.83847E+2  -2.07245E+2
  -1.19450E+3   1.66308E+3
   5.65893E+2   1.35407E+3
  -4.38069E+2  -1.42578E+3
  -1.45594E+3  -1.09316E+2
  -1.35165E+3  -9.71065E+0
   1.54296E+3   1.58099E+3
  -2.27796E+3  -9.11891E+2
   1.48559E+3  -4.44773E+2
   1.74378E+3  -1.99924E+3
   2.84416E+3   1.84528E+3
   5.11944E+2   2.25755E+3
  -1.21033E+3   1.72169E+3
  -4.04736E+2  -5.76294E+2
   1.35274E+3   4.35172E+2
   3.15378E+2   7.07305E+2
   4.48066E+2   1.16333E+3
  -1.59159E+3   1.06865E+3
  -2.87274E+2  -1.61997E+3
  -2.36304E+2   7.60187E+2
   5.67413E+2  -2.16776E+3
  -1.36512E+3   1.17087E+3
   5.08477E+2  -6.28228E+2
   2.63778E+3   1.19872E+3
   2.68030E+3   3.06410E+3
  -6.47065E+2   2.49522E+3
  -1.00549E+3  -5.71739E+2
   1.45963E+2  -8.07334E+2
   3.69278E+2  -1.06600E+2
   2.55635E+3  -9.50696E+2
   6.17350E+2  -1.24275E+3
   6.14976E+2  -2.07083E+3
   1.22312E+3   1.61940E+3
   2.67322E+3   7.19316E+2
  -6.85811E+2   2.17331E+3
  -1.49425E+3  -1.02671E+3
  -1.47126E+3  -8.65526E+2
   1.45107E+3  -2.02674E+3
   2.11170E+3   1.19836E+3
   1.33042E+2  -5.93410E+2
   1.51040E+2   2.78185E+2
  -1.39561E+3   1.62318E+3
  -1.00306E+3   1.99830E+3
  -9.65922E+2  -1.05765E+2
  -8.55944E+2  -3.10125E+3
   1.31689E+3  -3.04913E+3
   2.91922E+3  -2.82980E+3
  -1.22504E+2  -6.38964E+2
  -6.13926E+1   1.63706E+3
   6.83253E+2  -6.78194E+2
  -1.70958E+3  -3.81092E+2
  -9.28211E+2  -1.41014E+3
   5.67519E+1   2.48651E+2
   2.04018E+3  -1.67950E+3
   2.42235E+3  -9.37431E+2
   6.71720E+2   1.48526E+3
  -1.15506E+3   4.68070E+3
  -3.12229E+3  -7.49771E+2
  -5.91719E+2  -2.48956E+3
   1.71782E+3  -1.23373E+3
   2.25228E+3   3.28805E+2
   1.39600E+2   2.33211E+2
  -9.58893E+2   4.29870E+2
   1.21286E+3   1.02174E+3
  -3.56850E+2   2.33911E+3
  -1.16348E+3   2.44323E+2
  -1.96687E+3  -5.66353E+2
  -2.39192E+2  -2.94860E+3
   2.76574E+3  -2.11314E+2
   7.18328E+2   1.36309E+2
  -3.61080E+3  -1.85504E+3
  -2.45156E+3  -1.88824E+3
  -4.77263E+2  -6.00743E+2
   1.40143E+3   1.08636E+3
  -2.89618E+2   8.12342E+2
   1.50600E+3  -1.22523E+3
   6.58271E+2  -8.69813E+2
  -1.46224E+3   5.77186E+2
  -1.00519E+3  -8.94492E+2
  -1.38815E+3  -3.28000E+3
   3.18776E+3  -1.62485E+3
  -9.39555E+2   6.49742E+2
   1.75348E+3   1.57734E+3
  -1.14089E+3   2.33183E+2
  -2.00857E+3  -1.65967E+3
  -1.83300E+3  -4.31504E+3
  -7.82563E+2   1.22253E+2
  -9.39617E+2  -2.16016E+3
  -4.24339E+2  -1.38249E+3
   5.56424E+2  -1.04785E+3
   1.43869E+3  -1.22201E+3
   3.25283E+3   1.80970E+3
  -1.17446E+3   6.07842E+2
  -1.07775E+3   6.37509E+2
  -1.82186E+3  -2.38832E+3
   7.79654E+2   3.07992E+2
  -2.60350E+1   1.44581E+3
  -4.36496E+2   2.50961E+3
   7.29483E+2   2.00581E+3
  -2.53897E+2   2.09404E+3
  -3.33887E+2   1.03247E+3
  -4.02613E+2   3.09520E+2
   5.72690E+1  -1.48722E+3
   2.29982E+3  -6.44708E+2
   2.79313E+3   2.21934E+3
  -4.02624E+2   5.23793E+2
  -1.54577E+3   2.62884E+2
   6.03203E+2   4.11167E+2
  -8.64391E+2  -2.05927E+3
  -2.69880E+2  -4.18827E+2
   1.06912E+3  -2.47722E+3
   1.16911E+3  -1.74892E+3
   7.80804E+2  -1.58535E+3
   1.31729E+3  -1.28036E+3
   7.13245E+2   7.45108E+2
  -2.34930E+3   5.61668E+1
  -1.34031E+3  -9.35536E+2
  -1.12838E+3   3.25119E+1
  -4.04079E+2   6.10964E+2
   1.40472E+3   1.42905E+3
  -4.77307E+2  -4.85129E+1
  -1.01736E+3  -1.23656E+3
   7.55561E+2   5.18784E+2
  -3.15873E+2   8.69719E+2
  -2.89251E+2  -2.67084E+3
   1.19574E+3  -2.00912E+3
   7.17081E+2   8.56238E+2
   1.18486E+3   1.09795E+3
  -1.37545E+2  -2.42237E+2
  -1.94247E+3  -7.46581E+1
   1.21020E+3  -2.37568E+3
  -1.13523E+3  -5.00336E+2
  -2.56927E+3  -5.94556E+2
  -8.45445E+2   3.44575E+2
  -1.52502E+2  -2.76944E+3
   2.12738E+3  -7.40023E+2
  -3.89479E+1   1.02953E+3
  -2.03528E+2  -4.09655E+2
  -1.11946E+3  -3.52033E+2
  -8.43784E+2  -2.42561E+3
  -9.93712E+2   9.32510E+2
   2.28364E+2   2.40935E+2
  -1.83502E+3  -6.51324E+2
  -1.40900E+3  -1.55101E+3
   1.19157E+3  -1.31997E+3
   1.79242E+3  -1.14506E+3
   1.17807E+2   4.71422E+2
  -1.08281E+3   2.10008E+2
  -9.08011E+2  -7.93854E+2
   5.20726E+2  -2.87076E+2
  -4.92120E+1   2.98439E+2
  -5.21889E+2  -1.95907E+3
   1.95914E+3   1.13255E+3
   5.65594E+2  -1.05858E+3
  -8.84715E+2   2.24701E+3
  -1.58921E+3   2.29473E+3
   1.86252E+2  -9.14924E+2
   9.25777E+2  -4.90330E+2
  -4.24383E+2   4.29450E+2
  -2.97443E+3   1.17144E+3
  -2.19234E+3  -1.36326E+3
   1.18568E+3  -1.11106E+3
   4.09113E+2  -3.17370E+2
   1.22715E+3   2.30642E+3
  -1.31580E+3   9.39371E+2
  -2.32310E+3  -1.10774E+3
   3.24241E+2  -1.47456E+3
   3.66570E+2   2.07329E+2
  -2.46314E+2   9.86341E+2
   1.95910E+3  -5.07637E+2
  -6.37158E+2   1.10246E+3
   6.61246E+2   2.34482E+3
   4.08382E+2   1.11850E+3
   2.47309E+2   1.40502E+1
  -1.30859E+3  -2.45530E+3
  -5.57729E+2  -2.62234E+3
  -5.55491E+2   4.50085E+2
   8.63764E+2   2.99036E+2
  -1.36249E+2   9.14622E+2
   1.46822E+3  -6.22626E+2
  -7.42715E+2   8.92703E+2
   1.10433E+3  -2.68618E+2
  -1.00117E+3  -2.19693E+3
  -7.05117E+2   1.34734E+2
  -4.88299E+2  -1.54540E+3
   1.04301E+3  -7.86555E+2
  -7.76980E+2   2.72515E+3
   2.66580E+2  -2.49237E+3
  -2.71467E+3  -9.58525E+2
  -1.18609E+3  -1.01872E+3
  -9.67154E+1  -1.12167E+2
   2.81732E+2  -2.48558E+3
  -8.27931E+2  -1.12625E+2
  -1.06732E+2  -4.07081E+1
   6.64061E+2   1.65565E+3
  -9.90048E+2   5.33014E+2
   1.22746E+3  -2.30133E+2
  -6.34750E+2  -4.24168E+2
   1.38428E+3   3.75782E+2
   6.90276E+2   3.26715E+3
  -2.38917E+3   1.71244E+3
  -1.32141E+3   6.17469E+2
  -7.42482E+2   4.86101E+2
   1.16901E+3  -6.25113E+2
  -2.35155E+3   4.45680E+2
   1.15890E+3   4.08134E+2
  -9.91960E+2  -4.38103E+2
   3.17760E+2  -2.33065E+3
   1.58279E+3  -5.85369E+1
  -2.88824E+3   5.52341E+2
   7.41426E+2  -5.10372E+2
   1.67464E+3  -7.52053E+2
  -2.65490E+2   2.29084E+3
   1.47502E+3   3.04265E+3
  -3.03081E+2   6.02785E+2
  -8.29746E+2  -1.28997E+3
  -2.71287E+2  -7.85907E+2
  -2.38149E+1   9.80573E+2
  -9.05642E+2   5.37373E+2
   3.16130E+2  -1.62533E+3
   1.00507E+2  -2.79005E+2
   8.16773E+2  -2.31506E+2
  -1.55767E+3  -7.13421E+2
