 
 $NMID
 ID=''
 FMTDAT='(2E13.5)'
 TRAMP=   1.00000E+0
 VOLUME=   1.00000E+0
 $END
   5.43357E+2  -4.72561E+1
   1.37222E+3   1.16852E+3
   1.10504E+3  -5.59746E+3
  -1.72383E+3  -4.29256E+3
  -4.18046E+3  -1.55924E+3
  -2.72998E+3   5.38524E+2
  -3.10105E+3   3.34171E+3
  -3.42822E+3   5.90444E+3
  -1.10445E+3   3.52336E+3
   1.94938E+3  -1.69401E+3
   5.02549E+3  -4.35190E+3
   6.12660E+3  -4.57803E+3
   2.62872E+3   9.21580E+2
  -4.89393E+3   1.33689E+3
  -8.08129E+3  -5.09033E+3
  -2.84606E+3  -3.89127E+3
  -6.83091E+2   3.12848E+2
  -1.44674E+3   3.04504E+3
  -3.80689E+1   3.17387E+3
  -7.59206E+2   1.38700E+2
   4.18134E+3  -3.56125E+3
   4.52894E+3   2.18168E+3
  -2.40785E+3   1.16031E+3
  -2.31425E+3  -4.68571E+3
   6.75428E+2  -2.79184E+3
   1.90018E+3   1.84231E+3
  -2.53783E+3   4.28219E+3
  -3.59154E+3  -2.10601E+3
  -1.90150E+3  -3.52354E+3
   5.11248E+3  -4.34303E+3
   3.57135E+3   1.01212E+3
  -3.97093E+2   8.79235E+3
  -5.89290E+3   5.00120E+3
  -1.03365E+3   3.16525E+2
   3.39973E+3   3.00636E+3
  -8.46619E+2   1.02982E+3
   2.14309E+3  -5.09580E+3
   8.97437E+3   1.78432E+2
   2.94832E+3   8.78213E+2
   1.69817E+3   4.84211E+2
  -6.55561E+2   3.51340E+3
  -5.77198E+3  -8.56497E+2
  -4.68811E+3  -5.42376E+3
   1.01792E+3  -7.72020E+3
   2.28011E+3  -2.61399E+3
   1.60647E+2  -3.46187E+2
   2.93796E+2  -1.31861E+3
   2.74105E+3   1.31454E+3
  -2.75901E+3   1.56415E+3
  -2.39187E+3   2.51504E+3
  -4.47263E+3   7.28634E+2
  -3.63809E+3  -3.56206E+3
   5.66760E+2  -8.18894E+2
   1.93679E+3   1.74454E+3
  -1.24500E+3   3.19757E+3
  -1.22733E+3   3.46192E+3
  -3.16227E+3   3.92616E+3
  -2.56098E+3   5.71186E+2
  -2.55916E+3  -3.02574E+3
   2.49143E+3  -4.27908E+3
   5.82989E+3  -3.02559E+3
   6.63483E+3  -7.32997E+2
   1.68086E+3   8.08644E+2
  -4.50285E+2   2.10449E+3
   1.12387E+3  -3.01093E+3
   2.72313E+3   2.89356E+2
   1.52426E+3   1.65913E+3
  -4.07103E+3   4.47985E+2
  -2.32527E+3  -2.20639E+3
  -5.65073E+2  -2.95544E+3
  -1.59340E+3  -4.64646E-1
  -1.38254E+3  -1.48059E+3
  -1.48488E+3  -2.18279E+3
   1.05799E+3  -3.30084E+3
  -2.51846E+2  -1.13819E+3
  -4.46619E+2   1.20394E+3
  -5.14746E+0  -1.45814E+3
   1.08355E+3  -3.30209E+3
   2.16103E+3  -2.95143E+3
   3.82528E+3  -2.07358E+3
   1.06322E+3  -9.49842E+2
   4.71913E+2  -1.83371E+3
   1.62036E+3  -5.96205E+2
  -9.15926E+1   1.44406E+3
  -2.64248E+3  -5.10984E+2
  -3.94340E+3  -2.98911E+3
  -1.95107E+3  -2.41203E+3
   2.10882E+3  -5.03475E+3
   4.06505E+3  -1.47231E+3
   6.18348E+2   2.13116E+3
   1.00943E+2   2.13776E+3
   9.19716E+2  -1.42210E+2
   2.26867E+3   2.77417E+3
  -1.26207E+3   2.86718E+3
  -6.58691E+3  -3.65093E+2
  -2.51673E+2  -4.74026E+3
   3.03223E+3  -4.45824E+3
   3.15412E+3   2.93095E+2
  -5.91674E+1   3.12462E+3
  -2.32924E+3  -1.37163E+3
  -7.59475E+2  -4.03103E+3
   4.77787E+3  -1.14818E+3
   2.45959E+3   3.12295E+3
  -2.33658E+2   3.58385E+3
  -4.10257E+3   3.47830E+3
   1.52399E+2   9.34592E+2
  -3.06297E+2   1.65986E+3
  -3.12691E+3   7.80922E+2
  -3.57856E+3  -7.20431E+2
  -5.18551E+2  -2.65508E+3
   3.02418E+3  -7.11413E+2
   2.63618E+3   1.36172E+3
   8.59676E+2  -3.24972E+1
   3.08174E+2   3.26783E+3
   2.53420E+2   3.52369E+3
   1.52140E+2   1.74473E+3
  -1.46129E+3   9.63313E+2
  -8.36830E+2  -1.40715E+3
   1.43688E+2  -1.19296E+3
   9.56035E+2  -1.49287E+1
   7.84059E+2   1.50694E+3
  -1.90851E+3   1.14655E+3
  -1.59739E+3  -5.20379E+2
   2.86855E+2  -3.22292E+3
   3.03709E+3   1.77037E+3
   1.46143E+3  -4.54304E+2
   5.31637E+2   1.29891E+3
   9.47713E+2  -5.35770E+2
   1.73668E+3   1.19735E+3
   4.15689E+2  -2.38464E+2
  -2.08368E+3  -2.05367E+3
   3.91007E+2  -1.77845E+3
   9.66674E+2   3.02391E+2
   3.57093E+3   2.63212E+3
  -1.70746E+3   4.93048E+3
  -4.24419E+3  -4.08766E+1
  -2.03695E+3  -2.27523E+3
  -9.72142E+2  -1.46482E+2
   1.89696E+3   1.85626E+2
   5.17748E+1   7.16202E+2
   5.22388E+1  -8.87611E+2
   6.04126E+2  -5.78624E+2
   2.86260E+3   1.40569E+3
   1.40277E+3   3.93480E+3
  -8.62652E+2   8.11035E+2
   9.52395E+2   1.55196E+2
   1.88778E+3   7.72422E+2
  -8.57839E+2   1.62697E+3
   5.42151E+2   1.67474E+3
  -5.10516E+2   1.72066E+3
  -2.54083E+3   1.25960E+3
  -2.35173E+2   3.13822E+2
  -3.95065E+2  -5.23516E+2
   3.04910E+3  -1.94591E+3
   1.92546E+3  -6.91644E+2
   1.50916E+3   3.22379E+3
   3.55574E+2   1.99169E+3
  -6.03893E+2  -2.88294E+2
  -1.27469E+3   1.26021E+3
  -1.00837E+3   1.04955E+3
   1.39277E+3  -1.15318E+3
  -2.45383E+3  -8.56051E+2
  -4.60518E+2   3.92633E+2
  -2.17679E+2  -1.26765E+3
   1.24239E+3   1.70253E+3
  -3.36603E+2   6.37341E+1
  -7.91895E+2  -1.73869E+3
   9.71624E+2  -3.38783E+3
   2.89054E+3   2.51998E+3
   4.49659E+2   3.62064E+3
  -5.86921E+2   2.52051E+3
  -1.73538E+3   2.60545E+2
  -1.09861E+3   8.88903E+1
   1.58693E+3   8.33176E+2
   2.87381E+2   1.41911E+3
   9.14446E+2   1.67684E+3
   1.71649E+3  -4.97852E+2
   1.01084E+3   5.09854E+2
   1.86232E+2   2.72454E+3
  -2.46740E+3   2.19310E+3
  -3.16048E+3  -4.39668E+2
  -2.01738E+2  -1.67930E+3
  -4.21135E+2   5.95176E+2
  -1.32031E+3  -2.92826E+2
   6.06122E+2   1.54372E+2
   4.59299E+2  -2.85536E+2
   2.94938E+2   2.38491E+3
  -7.11707E+2   1.04843E+2
  -2.47717E+3  -1.65737E+3
   2.09018E+3  -1.07770E+3
   9.81401E+2   1.52224E+3
   1.15528E+3   3.19210E+2
  -1.20748E+3  -2.46016E+2
  -2.90984E+3   3.66112E+2
   3.84202E+2  -1.24153E+3
   1.36162E+2   1.89970E+3
  -9.48734E+2   4.56981E+2
   3.72073E+2  -7.83695E+2
  -5.21240E+2  -1.58695E+3
   9.63448E+2   1.56949E+3
   1.27608E+2   2.80418E+3
  -3.26978E+3   2.28216E+3
  -2.83475E+3  -3.56549E+3
   1.31212E+3  -2.13831E+3
   1.39759E+2  -5.11868E+2
  -2.80754E+2   6.46792E+2
  -1.85279E+3  -1.76897E+2
  -1.63338E+3   4.21109E+2
  -5.26239E+2   1.52289E+3
  -9.52617E+2   2.00303E+3
  -3.22794E+2   3.56671E+2
  -1.21218E+3  -3.37323E+3
   1.53113E+3  -1.59254E+3
   5.27978E+3   1.58113E+3
   1.43367E+3   2.78446E+3
   6.19518E+2   1.91469E+3
  -2.17225E+3   7.11096E+2
   1.81365E+3   1.82155E+3
  -5.32914E+2   2.18413E+3
  -2.20622E+3  -8.02002E+2
   2.87990E+2  -1.08727E+3
  -1.06859E+3  -1.16871E+2
   1.35898E+3   1.89332E+3
   1.50254E+1  -7.77227E+2
  -1.23236E+3  -2.19847E+3
   1.46721E+3  -2.06432E+3
   7.73628E+1   1.25680E+3
   1.23763E+3   1.98154E+3
  -1.12809E+3   1.33157E+3
  -1.20333E+3  -5.19073E+2
   8.17756E+0  -8.35922E+2
   1.67313E+3  -8.34454E+2
  -4.14408E+2  -6.21503E+2
  -2.31828E+3  -1.62341E+3
   1.77128E+3  -1.47728E+3
   1.60446E+3  -1.49881E+3
   4.17217E+2   1.91470E+3
  -9.10861E+2  -3.64730E+1
  -2.67520E+3  -6.28903E+2
   1.88987E+3  -1.23882E+3
   1.87226E+3  -4.00582E+1
   3.31782E+2  -2.07344E+0
  -1.57432E+3   1.44560E+3
  -1.40779E+3   1.31076E+3
  -7.28021E+2  -1.14766E+3
   6.28656E+2   8.27672E+2
   1.20519E+2   1.52842E+3
  -1.81319E+3  -2.09110E+3
   1.76547E+3  -4.86820E+2
   1.60043E+3  -1.97293E+2
  -8.47068E+2   2.06794E+3
  -2.45053E+3   1.59657E+3
  -2.10093E+3  -3.41662E+2
   1.12876E+3  -1.22927E+3
   1.67438E+3   1.78162E+2
  -1.69674E+3  -1.87882E+2
  -1.06379E+3  -1.45959E+2
   4.13920E+2   2.08083E+3
   2.24888E+3   2.12187E+3
  -6.34053E+2   7.25959E+2
  -2.04290E+3  -9.02112E+2
   3.18450E+2  -2.83822E+3
   1.15110E+3  -1.07641E+3
   6.00930E+2  -8.15992E+2
   6.78921E+1   1.49860E+3
   4.26583E+2   8.63821E+2
  -9.80723E+2  -2.08770E+3
  -3.78003E+2   5.36155E+2
  -9.25562E+2  -1.60984E+3
  -9.43004E+2  -1.97969E+3
   1.93675E+3  -3.48979E+3
   3.30301E+3   2.68875E+2
  -9.11051E+2   1.43843E+3
  -3.31158E+3   1.06603E+3
  -4.09643E+2  -2.81482E+3
  -1.10785E+3  -2.16126E+3
  -1.27891E+2   5.31996E+2
  -3.90722E+2   2.08446E+3
   6.93815E+2   6.59005E+2
   7.61900E+2  -2.24434E+3
   1.75932E+3  -3.35121E+2
   5.17624E+2   8.78331E+2
  -1.02231E+3  -1.75057E+3
  -7.35571E+2  -2.46146E+2
   1.59984E+3   1.30363E+3
   2.56058E+3  -2.40276E+2
  -2.00064E+3   9.57464E+1
   1.08114E+3  -1.37560E+3
   3.62788E+1  -2.43979E+3
  -9.48021E+2  -1.84736E+3
   1.94334E+3   1.08696E+3
   4.24645E+2  -1.78596E+3
   8.57176E+2  -1.06762E+3
   5.88130E+2   2.01433E+3
   9.23057E+1   4.68408E+2
  -9.88054E+0   1.54793E+3
   9.77497E+2  -2.95648E+3
  -1.21593E+3  -6.13281E+2
   1.94882E+3   1.41057E+3
  -7.24284E+2   1.43416E+0
  -4.47190E+2   3.91240E+2
   1.08693E+3  -1.49417E+3
   1.49611E+3   1.45056E+2
  -7.24456E+2   1.04147E+3
  -9.13807E+1  -1.36027E+3
  -1.09580E+3  -1.57418E+3
   1.37011E+3  -7.34427E+2
   3.35819E+3   8.22000E+2
  -9.18120E+2   7.89128E+2
  -1.46330E+3  -9.35684E+2
  -1.23400E+3  -3.87022E+2
   6.73905E+2  -2.39620E+3
   1.50781E+3  -2.87409E+1
  -6.80345E+2   4.00958E+2
  -2.04551E+2  -1.36320E+3
   3.98243E+2  -8.75492E+1
  -5.55138E+2   1.21937E+3
  -5.64802E+2   1.10418E+3
  -3.06970E+3  -1.06822E+3
  -5.87466E+2  -1.10238E+3
  -9.14931E+2  -8.39653E+2
   9.78033E+2   6.44552E+1
  -1.40558E+3  -1.12410E+3
  -9.96106E+2   5.76661E+2
   9.29575E+2   3.94685E+2
  -1.76612E+2   6.31976E+2
  -1.43289E+3  -1.05970E+3
  -1.59722E+3  -1.92758E+3
  -7.08898E+2  -6.05694E+2
   1.46005E+3  -5.51608E+2
   1.32933E+3  -6.13237E+2
   1.30857E+2   9.89998E+2
  -7.26622E+2   1.21171E+3
  -4.97777E+2  -6.11453E+2
  -1.04236E+3   4.85499E+2
   1.85190E+3  -1.70468E+2
  -7.36759E+2  -6.28801E+2
   2.64480E+1  -2.76195E+3
   2.14657E+3  -3.91001E+2
   8.50282E+2   1.49778E+2
  -1.04302E+3  -4.72096E+2
  -7.90968E+2  -1.80161E+3
  -1.95920E+3  -3.74974E+1
   1.08559E+3   3.08156E+2
   1.02148E+3   2.17579E+3
  -5.95599E+2   2.78325E+2
  -1.54539E+2  -4.32646E+3
   1.48851E+3  -8.61254E+2
   1.05073E+3   1.29412E+3
  -3.65781E+2  -9.31044E+2
  -3.89972E+2  -1.85974E+3
   1.08918E+2  -1.81867E+3
   1.03749E+3   6.26363E+2
  -2.92115E+2   1.00960E+3
  -1.36146E+3  -1.37828E+3
  -1.47519E+2  -2.17215E+2
   1.70966E+3  -1.61971E+3
   1.29889E+3   2.52722E+3
  -6.40680E+1  -1.41089E+3
  -6.85314E+2  -5.68110E+2
   6.37354E+2  -8.22867E+1
  -1.22084E+1  -2.21585E+2
  -2.26634E+3   1.41204E+3
  -5.37644E+2   9.13387E+2
  -9.42251E+2  -2.07930E+3
   9.37692E+2  -5.86885E+2
   2.87502E+3   6.05952E+2
