 
 $NMID
 ID=''
 FMTDAT='(2E13.5)'
 TRAMP=   1.00000E+0
 VOLUME=   1.00000E+0
 $END
  -6.12074E+1   1.63433E+2
  -1.46040E+3   1.88610E+3
   2.37935E+3  -8.69625E+2
   1.99067E+3   1.67440E+3
   3.16605E+3   1.15551E+3
   4.71707E+3  -1.53135E+3
  -2.75554E+2  -1.57220E+3
  -2.65481E+3  -1.89066E+3
  -1.50856E+3  -4.39803E+3
  -1.85365E+3  -1.18495E+3
   3.01715E+3  -1.69504E+3
   3.04976E+3   7.36345E+3
   1.62715E+3   6.08907E+3
  -1.75859E+3   1.46593E+3
   1.30896E+3  -2.76644E+3
   5.02881E+3  -2.19715E+3
   3.43087E+3  -2.84422E+3
  -3.43625E+2  -3.23401E+3
  -2.33062E+3   1.26226E+2
  -3.53580E+3  -1.65050E+3
  -4.61386E+2   1.05571E+3
  -1.92318E+3   4.10745E+3
  -4.56650E+3   4.70244E+3
  -2.78081E+3   2.23204E+3
   1.46874E+3   1.78421E+3
   6.07786E+2   2.78068E+3
   1.01649E+1   1.22357E+3
  -2.74540E+3  -3.56535E+3
  -8.14835E+2  -5.29351E+3
   3.50719E+3  -3.29509E+2
  -4.28823E+2   7.04371E+3
  -9.41807E+3   4.74311E+3
  -7.30169E+3  -6.44943E+2
  -1.97011E+3   6.84029E+2
  -3.26527E+3   4.17653E+3
  -2.10208E+3  -2.96835E+3
   3.62726E+3  -6.45966E+3
   3.57904E+3   3.43146E+3
  -2.45326E+2   4.47734E+3
  -4.60476E+1   3.21428E+3
  -4.39795E+3   2.82999E+3
  -4.81737E+3  -7.26447E+2
  -3.93116E+1  -7.80410E+3
   6.21855E+3  -3.23862E+3
   6.07761E+3  -1.18141E+3
   2.62526E+3  -4.76775E+2
   5.14298E+3  -5.33206E+2
   3.82070E+1   2.69299E+3
  -2.54466E+3   1.05426E+3
  -3.40163E+3  -2.39502E+3
  -1.94248E+3  -4.23897E+3
   3.14581E+2  -6.19931E+3
   1.68460E+3  -4.10416E+3
   9.13770E+2   1.53039E+3
  -4.16910E+2   2.36070E+3
  -1.92343E+3  -6.33336E+1
  -4.61526E+3   1.22393E+3
  -4.01224E+3  -3.88500E+3
  -3.50217E+3  -6.19664E+3
   1.48092E+3  -5.20375E+3
   4.29377E+3  -1.14680E+3
   4.28321E+3   1.02166E+3
   2.59328E+3  -8.37835E+2
  -1.06948E+3   5.13471E+2
   1.84387E+3  -3.32559E+3
   1.71726E+3   1.57413E+3
  -7.26049E+2   6.57920E+2
  -3.54202E+3  -3.92927E+2
   7.72512E+2  -1.36203E+3
   2.90021E+2  -1.65745E+3
  -6.11723E+2  -2.77129E+2
  -1.34644E+3  -1.35327E+3
  -1.33213E+3   5.91614E+1
   2.16530E+3  -1.72851E+3
   2.26856E+3   1.52669E+2
   4.18033E+2   1.49157E+3
  -2.23754E+2   1.23855E+3
  -1.61630E+2  -1.23632E+3
   3.92879E+3   1.47667E+3
   2.63552E+3   5.71013E+2
  -5.54630E+2   2.48251E+3
   1.46740E+3  -1.35188E+3
   1.94864E+3   1.05141E+3
  -5.30135E+2   3.00215E+3
  -1.14716E+3  -7.34583E+2
   2.76763E+2  -4.66505E+3
   1.78745E+3  -2.32471E+3
   4.48763E+3   1.48908E+2
  -4.24765E+2  -9.35918E+1
  -5.47117E+2   1.00223E+3
   9.06406E+1   9.26916E+2
   2.47436E+3   1.76662E+3
  -1.24987E+3   1.76955E+3
  -3.46250E+3   6.47344E+2
  -2.73310E+3   1.13105E+2
   1.94349E+2   4.89333E+1
   9.11550E+2   4.51704E+2
  -2.81836E+3   3.08478E+3
  -3.21028E+3   2.16242E+3
  -2.20654E+3  -1.71539E+3
   2.80995E+3  -2.86075E+3
   2.74944E+3   2.06770E+3
   1.29571E+3   2.75855E+3
  -2.55785E+3   2.91622E+3
  -2.75585E+3  -1.50167E+3
  -2.64131E+3  -1.66003E+3
   1.54249E+2  -1.52079E+3
  -2.47372E+2  -6.60786E+2
   1.71119E+2  -2.73696E+3
   3.21663E+2  -2.47731E+3
   4.32320E+3   3.04268E+1
   3.30708E+3   2.84259E+3
  -1.02741E+3   2.07714E+3
  -2.94522E+2   4.79128E+3
  -9.29078E+2   2.65571E+3
  -5.65266E+2   2.96259E+2
  -5.17409E+2  -1.30344E+3
   3.49541E+3  -2.81359E+3
  -1.21805E+3   9.62424E+1
  -3.32642E+1   1.14163E+3
  -2.75056E+2  -1.90646E+3
  -2.70106E+3  -1.25951E+3
   1.63867E+2  -2.88995E+3
   9.45364E+1  -1.09736E+3
   8.52754E+2   4.72864E+2
   6.10958E+2   8.65065E+2
   1.37680E+3   8.30571E+2
   9.83226E+1   1.07305E+2
  -2.40453E+3   1.83018E+3
  -1.06412E+3  -8.17566E+2
  -1.29703E+3  -2.01867E+3
   2.49884E+3  -1.65741E+3
   2.44990E+3   1.97233E+3
   3.13161E+2   2.74582E+3
  -6.09758E+2   1.64254E+3
  -3.31824E+2   1.57606E+3
  -4.74983E+2  -9.21522E+2
  -6.58115E+2  -1.73658E+3
   1.88421E+3  -1.05320E+3
   6.18934E+2  -8.01427E+1
   6.59275E+2  -8.65489E+2
   3.39140E+3  -1.50249E+3
  -1.32958E+3  -2.10690E+2
  -1.12746E+3   6.11606E+2
   3.07413E+2  -4.81016E+2
   1.72845E+3  -8.04048E+2
  -1.39033E+2   2.02166E+3
  -1.61246E+3  -2.48362E+2
   4.66039E+1   1.74081E+3
  -2.43264E+3  -8.37905E+2
  -2.41830E+3  -4.52397E+2
  -3.28753E+2  -3.57876E+2
   1.97016E+3  -1.78150E+3
   2.46981E+3  -9.84946E+2
   1.34211E+3   2.01855E+3
  -1.78871E+3   1.71367E+3
   9.71526E+2   5.72926E+2
  -1.87487E+3   2.09475E+3
  -8.04566E+2   2.08479E+3
  -1.58324E+3   5.12630E+2
  -2.51019E+2   4.78714E+2
   6.62918E+2   3.39278E+2
  -1.36234E+3  -1.92575E+3
   2.41278E+1   5.85366E+2
  -4.47294E+2   2.65355E+2
  -5.86430E+2  -1.85248E+3
   5.21728E+2  -1.17694E+3
   2.49217E+3  -3.16828E+2
   7.85001E+2   2.14957E+3
  -1.64347E+3   4.16464E+2
  -1.02571E+3  -1.98956E+3
   2.18738E+1  -3.82231E+2
   1.20570E+3  -9.90278E+2
   4.58662E+2  -1.74307E+2
  -2.82017E+2  -2.09200E+3
   6.37415E+2  -7.20459E+2
   7.16088E+2   3.89589E+2
   1.24243E+3   1.04564E+3
  -1.15375E+3   1.14145E+2
  -1.83819E+3   8.26821E+1
  -2.17456E+3  -2.16954E+3
   2.62644E+2  -2.65517E+3
   8.52835E+1   6.79703E+2
   1.35140E+3  -7.22233E+2
  -1.59204E+2   5.07030E+2
   1.85104E+3   6.70855E+2
  -1.79473E+3   2.68460E+3
  -3.27623E+3  -2.01172E+3
   8.13530E+2  -1.69995E+3
  -5.34799E+2  -1.06353E+1
   5.99897E+2   2.35482E+2
  -1.73567E+3   7.94018E+2
   8.65378E+2  -1.52349E+3
   6.72866E+2   1.36505E+3
   1.12275E+3  -6.69485E+2
  -6.12291E+2   1.96194E+3
  -1.17656E+3   2.84048E+2
  -7.69262E+2  -1.63365E+2
   1.02799E+3   7.27407E+2
   1.28919E+3   1.36775E+3
  -2.94248E+3   1.03650E+3
  -2.54036E+3  -1.76607E+3
   4.92286E+2  -2.19885E+3
   1.30619E+3  -7.77250E+1
   1.09259E+3   2.04005E+3
   1.96035E+3   1.53888E+3
  -1.77085E+2   7.75893E+2
   1.66106E+3   1.17786E+3
   1.03980E+3   7.76662E+2
  -8.24186E+2   4.06291E+2
  -2.33820E+3  -5.50496E+2
  -7.63418E+2  -2.07279E+2
   1.11615E+2  -5.37204E+2
   1.23095E+3   5.74514E+2
  -1.86996E+3   1.71359E+3
  -8.85994E+2   1.30711E+3
   3.02595E+2  -4.88417E+2
  -3.71310E+2   1.16076E+3
  -1.31707E+3  -1.14785E+2
  -1.24204E+2   3.32123E+3
   1.10052E+3  -1.59127E+2
  -2.97526E+2   1.74195E+3
  -1.28735E+2   1.69257E+3
   5.21902E+2  -1.77059E+3
   3.84659E+2  -8.68401E+2
   1.15835E+3  -2.57809E+2
   1.45698E+3   2.30281E+3
  -5.43655E+2   2.75912E+3
  -1.04662E+3   2.49998E+2
  -4.64325E+2  -1.29533E+3
  -6.88037E+2  -1.30717E+3
  -1.08641E+3   1.56615E+2
   9.32405E+2   7.69586E+2
   8.13656E+2  -7.48893E+2
   6.88259E+2  -2.15529E+2
   4.55353E+2   3.34681E+3
  -1.44719E+2   1.00424E+3
  -2.49215E+3  -7.15918E+2
   1.44857E+3  -4.47712E+2
   9.66212E+2  -1.35912E+2
   1.12169E+3  -9.77541E+2
  -9.72887E+2   3.39313E+2
  -1.71882E+2   1.59700E+2
   1.09608E+2  -7.81193E+2
  -1.12839E+3  -9.79245E+2
   1.26080E+3  -3.97035E+2
   4.53084E+2   6.62635E+2
   2.76686E+3   1.46081E+3
   2.16751E+3   6.32558E+2
  -1.19260E+3   1.65783E+3
  -6.67464E+2   2.43809E+2
  -8.37299E+2   6.34431E+2
  -1.76568E+3   1.28979E+3
  -3.57550E+2  -6.32109E+2
   5.93623E+2  -2.14872E+3
   1.08700E+3   1.79300E+3
   1.29846E+3   1.17385E+3
   8.67089E+2   1.65555E+3
  -9.51184E+2   6.13544E+2
   7.57658E+2  -5.96868E+2
   9.38597E+2  -2.05339E+3
   1.91338E+3  -2.73576E+2
  -3.78739E+2   1.08564E+3
  -2.16506E+2   1.14395E+3
   1.00474E+3  -5.87155E+1
  -3.32861E+2   5.63878E+2
   4.28714E+2   1.62803E+3
  -6.83324E+2  -9.08797E+2
  -3.24992E+3   9.96842E+1
  -5.26376E+2  -5.60932E+2
   3.95021E+3  -1.00310E+3
   1.90359E+3   1.65199E+3
   2.84276E+2   7.52465E+2
  -1.02528E+3   3.06418E+2
  -2.01634E+2   5.05795E+2
  -7.29474E+2  -1.44335E+2
  -2.62427E+2  -1.55694E+3
   1.97369E+3   2.94201E+2
   1.53175E+3  -1.74193E+3
   4.64623E+2   1.11364E+1
   3.94710E+2   2.03491E+3
  -1.84132E+2   5.12776E+2
  -1.42977E+3   1.29812E+3
  -1.07881E+3  -8.71316E+2
  -4.90310E+2  -1.51732E+2
   3.16617E+3   8.86416E+2
  -5.76665E+2  -1.16224E+3
  -3.58579E+2  -4.47126E+2
   9.28477E+2   1.26866E+2
   3.04454E+3  -1.73876E+3
   1.43201E+2  -1.47191E+3
   5.75953E+1  -4.38262E+2
   1.54552E+3  -9.07196E+1
   2.40857E+2  -2.70576E+2
  -7.12249E+2   8.75826E+2
   8.48243E+0   1.43768E+3
   1.09538E+3  -4.09201E+2
   1.10447E+3   1.58758E+3
   6.77514E+2   1.27216E+3
  -7.18067E+2   1.21756E+3
   2.10092E+3  -2.13582E+2
   1.63909E+3   7.79084E+2
   1.26104E+3  -1.58363E+2
  -1.91525E+3   4.93935E+2
   9.90864E+1  -1.26635E+2
   6.96998E+2  -1.76589E+3
   1.04916E+3   1.16764E+3
  -1.04820E+3  -1.14761E+2
  -6.26306E+2   2.29872E+3
   3.26100E+2  -1.40172E+3
  -1.19036E+3  -1.16014E+3
  -1.14500E+3   2.08285E+2
   1.10002E+3   5.67875E+2
   4.09009E+2   1.86123E+3
  -6.28646E+2   1.47594E+3
  -3.07032E+2   1.02266E+3
   9.87336E+2  -8.22294E+2
  -7.12922E+2   1.41858E+3
  -2.00010E+3  -4.09124E+2
  -5.75048E+2  -6.46915E+2
   1.70173E+3   1.15497E+3
  -1.24640E+3   1.87758E+3
  -1.02628E+3   8.88115E+2
  -9.96219E+2   2.94298E+2
   1.29131E+3   1.32179E+3
  -7.44220E+2   5.87547E+2
  -1.14340E+3   1.16877E+3
  -4.33368E+2  -1.98865E+3
   1.11224E+3   8.33027E+2
  -6.56425E+2   2.18229E+3
  -1.00891E+3   1.19793E+3
  -7.83873E+2   1.29057E+3
  -1.93899E+3   2.54516E+2
   7.98066E+2   7.51600E+2
  -7.76999E+2   9.15844E+0
  -9.60160E+2   2.18414E+2
   1.08905E+3  -2.62277E+3
   6.63118E+2   1.61523E+3
   1.58605E+2  -9.72471E+2
  -2.02154E+3   1.80499E+3
  -6.92867E+2  -4.10231E+2
   1.01638E+3   1.09577E+3
  -4.51437E+2  -6.44782E+2
  -1.96599E+2   2.64776E+3
  -1.66884E+2   2.71221E+2
  -1.60995E+3  -4.96397E+2
  -7.04710E+2   2.58818E+2
   1.47430E+3   1.13985E+3
   3.75373E+2  -1.08318E+3
  -1.74589E+3   3.59873E+2
  -4.72585E+2   2.63842E+2
   8.50274E+2  -3.08879E+2
   2.80157E+2   1.45175E+3
   1.64947E+2  -2.90741E+2
   8.80489E+2  -1.01138E+3
   1.49969E+3  -4.18868E+2
   1.25822E+2  -5.86662E+2
   1.88573E+3   2.78444E+2
   1.59446E+3   6.75168E+2
   3.65848E+2  -3.85263E+2
   1.39411E+0  -9.91311E+2
   1.60175E+2  -7.56110E+1
   8.66404E+2   2.32912E+2
  -4.30728E+2   1.55944E+3
  -2.56883E+2   5.62811E+1
  -1.95638E+3   6.65109E+2
  -3.54330E+2   8.97487E+2
