 LCModel (Version 6.3-1N) Copyright: S.W. Provencher.          Ref.: Magn. Reson. Med. 30:672-679 (1993).                
 Slice_N1@16_19  02-Jun-2023 14:36:44
 27 lines in following concentration table = NCONC+1
    Conc.  %SD /Cr+PCr  Metabolite                                         
 2.09E-06  16% 2.7E-04 Mac                                                 
 4.44E-02  13%   5.704 Cr                                                  
 1.79E-02  31%   2.296 PCr                                                 
 8.71E-02   9%  11.191 Ins                                                 
 8.50E-02   7%  10.931 NAA                                                 
 5.07E-02  13%   6.522 Tau                                                 
 1.00E-02  28%   1.289 PCho                                                
 6.19E-03  42%   0.796 GPC                                                 
 6.67E-02  13%   8.573 Glu                                                 
 1.92E-02  33%   2.471 Gln                                                 
    0.000 999%   0.000 Ala                                                 
    0.000 999%   0.000 Asc                                                 
 8.54E-03  87%   1.098 Asp                                                 
 8.83E-03  45%   1.135 GABA                                                
 9.62E-03  53%   1.236 Glc                                                 
 1.05E-02  32%   1.356 GSH                                                 
    0.000 999%   0.000 Lac                                                 
 9.56E-03  42%   1.229 NAAG                                                
    0.000 999%   0.000 PE                                                  
 1.62E-02  11%   2.085 GPC+PCho                                            
 9.46E-02   8%  12.160 NAA+NAAG                                            
 8.59E-02  12%  11.044 Glu+Gln                                             
 6.22E-02   9%   8.000 Cr+PCr                                              
 9.46E-02   8%  12.160 NAA+NAAG                                            
 6.22E-02   9%   8.000 Cr+PCr                                              
 8.59E-02  12%  11.044 Glu+Gln                                             
   6 lines in following misc. output table
  FWHM = 0.017 ppm    S/N =   7                                            
  Data shift = 0.017 ppm                                                   
  Ph: -31 deg     -12.6 deg/ppm                                            
  alphaB,S = 3.1E+01,   1.0E+00                                            
   18 spline knots.   Ns = 5(1)                                            
   2 inflections.     1 extrema                                            
  654 points on ppm-axis = NY
      4.000000     3.994181     3.988363     3.982544     3.976726     3.970907     3.965088     3.959270     3.953451     3.947633
      3.941814     3.935995     3.930177     3.924358     3.918540     3.912721     3.906902     3.901084     3.895265     3.889446
      3.883628     3.877809     3.871991     3.866172     3.860353     3.854535     3.848716     3.842898     3.837079     3.831260
      3.825442     3.819623     3.813805     3.807986     3.802167     3.796349     3.790530     3.784712     3.778893     3.773074
      3.767256     3.761437     3.755619     3.749800     3.743981     3.738163     3.732344     3.726526     3.720707     3.714888
      3.709070     3.703251     3.697433     3.691614     3.685795     3.679977     3.674158     3.668339     3.662521     3.656702
      3.650884     3.645065     3.639246     3.633428     3.627609     3.621791     3.615972     3.610153     3.604335     3.598516
      3.592698     3.586879     3.581060     3.575242     3.569423     3.563605     3.557786     3.551967     3.546149     3.540330
      3.534512     3.528693     3.522874     3.517056     3.511237     3.505419     3.499600     3.493781     3.487963     3.482144
      3.476326     3.470507     3.464688     3.458870     3.453051     3.447232     3.441414     3.435595     3.429777     3.423958
      3.418139     3.412321     3.406502     3.400684     3.394865     3.389046     3.383228     3.377409     3.371591     3.365772
      3.359953     3.354135     3.348316     3.342498     3.336679     3.330860     3.325042     3.319223     3.313405     3.307586
      3.301767     3.295949     3.290130     3.284312     3.278493     3.272674     3.266856     3.261037     3.255219     3.249400
      3.243581     3.237763     3.231944     3.226125     3.220307     3.214488     3.208670     3.202851     3.197032     3.191214
      3.185395     3.179577     3.173758     3.167939     3.162121     3.156302     3.150484     3.144665     3.138846     3.133028
      3.127209     3.121391     3.115572     3.109753     3.103935     3.098116     3.092298     3.086479     3.080660     3.074842
      3.069023     3.063205     3.057386     3.051567     3.045749     3.039930     3.034111     3.028293     3.022474     3.016656
      3.010837     3.005018     2.999200     2.993381     2.987563     2.981744     2.975925     2.970107     2.964288     2.958470
      2.952651     2.946832     2.941014     2.935195     2.929377     2.923558     2.917739     2.911921     2.906102     2.900284
      2.894465     2.888646     2.882828     2.877009     2.871191     2.865372     2.859553     2.853735     2.847916     2.842098
      2.836279     2.830460     2.824642     2.818823     2.813004     2.807186     2.801367     2.795549     2.789730     2.783911
      2.778093     2.772274     2.766456     2.760637     2.754818     2.749000     2.743181     2.737363     2.731544     2.725725
      2.719907     2.714088     2.708270     2.702451     2.696632     2.690814     2.684995     2.679177     2.673358     2.667539
      2.661721     2.655902     2.650084     2.644265     2.638446     2.632628     2.626809     2.620991     2.615172     2.609353
      2.603535     2.597716     2.591897     2.586079     2.580260     2.574442     2.568623     2.562804     2.556986     2.551167
      2.545349     2.539530     2.533711     2.527893     2.522074     2.516256     2.510437     2.504618     2.498800     2.492981
      2.487163     2.481344     2.475525     2.469707     2.463888     2.458070     2.452251     2.446432     2.440614     2.434795
      2.428977     2.423158     2.417339     2.411521     2.405702     2.399884     2.394065     2.388246     2.382428     2.376609
      2.370790     2.364972     2.359153     2.353335     2.347516     2.341697     2.335879     2.330060     2.324242     2.318423
      2.312604     2.306786     2.300967     2.295149     2.289330     2.283511     2.277693     2.271874     2.266056     2.260237
      2.254418     2.248600     2.242781     2.236963     2.231144     2.225325     2.219507     2.213688     2.207870     2.202051
      2.196232     2.190414     2.184595     2.178777     2.172958     2.167139     2.161321     2.155502     2.149683     2.143865
      2.138046     2.132228     2.126409     2.120590     2.114772     2.108953     2.103135     2.097316     2.091497     2.085679
      2.079860     2.074042     2.068223     2.062404     2.056586     2.050767     2.044949     2.039130     2.033311     2.027493
      2.021674     2.015856     2.010037     2.004218     1.998400     1.992581     1.986763     1.980944     1.975126     1.969307
      1.963489     1.957670     1.951852     1.946033     1.940215     1.934397     1.928578     1.922760     1.916941     1.911123
      1.905304     1.899486     1.893667     1.887849     1.882030     1.876212     1.870393     1.864575     1.858756     1.852938
      1.847119     1.841301     1.835482     1.829664     1.823845     1.818027     1.812208     1.806390     1.800571     1.794753
      1.788934     1.783116     1.777297     1.771479     1.765660     1.759842     1.754023     1.748205     1.742386     1.736568
      1.730749     1.724931     1.719113     1.713294     1.707476     1.701657     1.695839     1.690020     1.684202     1.678383
      1.672565     1.666746     1.660928     1.655109     1.649291     1.643472     1.637654     1.631835     1.626017     1.620198
      1.614380     1.608561     1.602743     1.596924     1.591106     1.585287     1.579469     1.573650     1.567832     1.562013
      1.556195     1.550376     1.544558     1.538739     1.532921     1.527102     1.521284     1.515465     1.509647     1.503829
      1.498010     1.492192     1.486373     1.480555     1.474736     1.468918     1.463099     1.457281     1.451462     1.445644
      1.439825     1.434007     1.428188     1.422370     1.416551     1.410733     1.404914     1.399096     1.393277     1.387459
      1.381640     1.375822     1.370003     1.364185     1.358366     1.352548     1.346729     1.340911     1.335092     1.329274
      1.323455     1.317637     1.311818     1.306000     1.300182     1.294363     1.288545     1.282726     1.276908     1.271089
      1.265271     1.259452     1.253634     1.247815     1.241997     1.236178     1.230360     1.224541     1.218723     1.212904
      1.207086     1.201267     1.195449     1.189630     1.183812     1.177993     1.172175     1.166356     1.160538     1.154719
      1.148901     1.143082     1.137264     1.131445     1.125627     1.119808     1.113990     1.108171     1.102353     1.096534
      1.090716     1.084898     1.079079     1.073261     1.067442     1.061624     1.055805     1.049987     1.044168     1.038350
      1.032531     1.026713     1.020894     1.015076     1.009257     1.003439     0.997620     0.991802     0.985983     0.980165
      0.974346     0.968528     0.962709     0.956891     0.951072     0.945254     0.939435     0.933617     0.927798     0.921980
      0.916161     0.910343     0.904524     0.898706     0.892887     0.887069     0.881251     0.875432     0.869614     0.863795
      0.857977     0.852158     0.846340     0.840521     0.834703     0.828884     0.823066     0.817247     0.811429     0.805610
      0.799792     0.793973     0.788155     0.782336     0.776518     0.770699     0.764881     0.759062     0.753244     0.747425
      0.741607     0.735788     0.729970     0.724151     0.718333     0.712514     0.706696     0.700877     0.695059     0.689240
      0.683422     0.677603     0.671785     0.665967     0.660148     0.654330     0.648511     0.642693     0.636874     0.631056
      0.625237     0.619419     0.613600     0.607782     0.601963     0.596145     0.590326     0.584508     0.578689     0.572871
      0.567052     0.561234     0.555415     0.549597     0.543778     0.537960     0.532141     0.526323     0.520504     0.514686
      0.508867     0.503049     0.497230     0.491412     0.485593     0.479775     0.473956     0.468138     0.462319     0.456501
      0.450682     0.444864     0.439045     0.433227     0.427408     0.421590     0.415771     0.409953     0.404134     0.398316
      0.392497     0.386679     0.380860     0.375042     0.369223     0.363405     0.357586     0.351767     0.345949     0.340130
      0.334312     0.328493     0.322675     0.316856     0.311038     0.305219     0.299401     0.293582     0.287764     0.281945
      0.276127     0.270308     0.264490     0.258671     0.252853     0.247034     0.241216     0.235397     0.229579     0.223760
      0.217942     0.212123     0.206305     0.200486
 NY phased data points follow
  -2.89987E-01 -3.19325E-02 -2.52637E-01 -4.79995E-01 -1.95843E-01 -7.63131E-02  1.80215E-01  8.61684E-02 -2.82349E-01 -2.05924E-01
  -3.03685E-01  1.80374E-01  3.38327E-01  3.46463E-01  3.01303E-01  4.64373E-01  7.00468E-01  1.57099E-01  2.14028E-01  2.12024E-01
   3.21454E-02  1.13146E-02 -9.65422E-02 -3.12348E-01 -1.25710E-01 -3.37814E-01 -1.66646E-01  2.26008E-01 -2.48759E-01  2.21449E-01
  -1.80493E-02 -1.49407E-01  3.51700E-02 -1.93667E-01 -8.22167E-03 -6.39219E-02 -3.49833E-01 -3.87887E-01 -1.81066E-01 -2.77309E-01
   3.40928E-01  5.91324E-01  3.19885E-01  5.55706E-01  6.41855E-01  4.03833E-01  2.15014E-01  3.51471E-02  2.02842E-01  2.89465E-01
  -1.36069E-01  1.03960E-02 -1.10936E-01 -2.14133E-01 -1.00406E-01 -1.19309E-01 -7.18968E-02 -3.98525E-01 -2.95370E-01 -1.96510E-01
  -5.99536E-01 -6.21357E-01 -6.71853E-01 -2.64309E-01 -3.07626E-01 -5.16780E-01  2.32347E-01  1.03246E-01  1.08727E-01  4.67543E-01
   3.14793E-01  2.29644E-01  4.94654E-01  4.00155E-02 -1.22374E-01  2.16879E-01  6.97043E-02 -1.90395E-01 -3.25568E-01 -2.76875E-01
  -8.03561E-01 -1.58185E-01  2.59178E-02 -6.13280E-02  4.15606E-01  3.79868E-01  4.89153E-01  3.08536E-01  1.51625E-01 -7.22729E-02
   4.75932E-02  1.75053E-01  2.38545E-01  8.72850E-02 -6.61568E-02  9.23605E-03  2.90410E-01  1.22374E-02 -6.97922E-02 -1.67610E-02
  -2.08351E-01 -5.15034E-03 -1.13541E-01  4.86004E-01  1.36940E-01  2.74282E-01  6.09100E-01  5.36881E-01  8.39149E-01  3.83059E-01
   4.59943E-01  3.20021E-01  3.72453E-01  4.94856E-01  3.52389E-01  2.59347E-01  1.50518E-01  3.79818E-01  6.57305E-01  1.65078E-01
   8.10257E-02  1.80803E-01 -1.64914E-01  1.92276E-01 -4.49368E-02 -3.61608E-01 -9.90983E-02 -1.08917E-01 -2.77886E-01 -3.68972E-01
  -7.79446E-01 -5.08359E-01 -3.45483E-01 -3.38885E-01 -2.40290E-01 -9.46307E-01 -9.06049E-01 -1.08635E+00 -6.27797E-01 -2.70237E-01
  -6.08653E-01 -2.28653E-02 -3.30745E-02 -2.76499E-01 -2.75865E-01 -5.82312E-02 -4.12960E-02  8.90658E-02  3.50332E-01  1.11900E-01
   2.68500E-01  1.49943E-01  2.70024E-02  3.69427E-01  2.48219E-01 -2.42084E-02  3.27008E-01  2.29531E-01  6.19206E-02  3.46641E-01
   2.17763E-01  5.17233E-01  3.77543E-01  4.72182E-01  7.18769E-01  8.32059E-01  1.08786E+00  3.13431E-01 -6.73301E-01 -1.27059E+00
  -1.05160E+00 -6.46810E-01 -4.35926E-01 -4.51732E-01 -3.40782E-01 -5.40540E-01 -4.94573E-01 -3.41066E-01 -3.99663E-01 -1.08761E-02
  -2.74376E-01 -3.91385E-01 -3.25400E-01 -3.04916E-01 -4.13164E-01 -1.58459E-01 -2.79236E-01 -2.27327E-01  5.37012E-02  5.52568E-02
   2.25383E-01 -2.14441E-01 -4.94471E-02 -8.20684E-02  4.54697E-02 -2.24922E-01 -4.00787E-01 -1.23097E-01 -1.66424E-01  6.05010E-02
  -7.98619E-02 -6.51367E-02 -2.03834E-01 -1.27379E-01  1.13889E-01  1.72444E-01 -1.97792E-01 -1.43122E-01  6.22366E-02 -7.37008E-02
  -7.65374E-02 -1.91692E-01 -1.17029E-02 -8.80696E-02 -1.32063E-01 -7.67855E-02  1.00195E-01  7.56318E-02 -2.10714E-01 -1.35689E-01
   3.42664E-01  2.20035E-01 -1.90183E-01 -5.32508E-02  1.53739E-01  3.31031E-01  3.01965E-01  2.62292E-01  9.22687E-02  3.08713E-01
   4.94626E-01  7.28434E-01  2.47715E-01 -1.75878E-01  2.06759E-01  1.90931E-04  2.73881E-01  3.79123E-02 -1.37091E-01 -1.80062E-02
  -2.06387E-01 -2.73852E-01 -8.16583E-02  4.50201E-02 -1.05945E-01  4.84675E-02 -1.18994E-01 -1.76446E-01 -1.57160E-01 -9.71211E-02
  -5.71116E-02  4.23329E-01  1.08904E-01 -1.00356E-01  1.57383E-01 -3.00510E-01  2.06635E-01 -1.16675E-01 -8.42003E-02  3.24729E-01
   8.98050E-02  1.12373E-01  1.75391E-01 -6.81510E-02  1.84596E-01  3.48078E-01 -2.10869E-01  2.99006E-01  1.45846E-01  2.21077E-01
  -6.63848E-02 -1.36473E-01  2.35293E-01  4.42938E-02  1.96872E-02 -3.23783E-01  9.08566E-02 -1.76395E-01 -9.11351E-02 -3.20201E-03
  -2.66239E-01 -3.72755E-01 -4.30450E-01 -4.88015E-01 -1.05830E-01  5.96902E-01  2.77677E-01  4.68687E-01  2.62472E-01  2.29589E-01
   3.44019E-01  2.48578E-01  2.55048E-01  2.85254E-02  6.56743E-02  1.89503E-01  2.66470E-01  1.61047E-01 -5.62412E-02  6.52372E-02
   1.62384E-01 -3.45832E-03  3.95700E-01  9.92394E-02  3.57299E-01  6.64254E-01  4.05209E-01  5.24317E-01  4.95681E-01  2.80454E-01
   1.68059E-01  2.13975E-01 -5.80098E-04  4.50906E-01  1.30581E-01  1.54362E-03  9.75271E-02 -9.57296E-02 -2.04238E-01 -2.48301E-01
  -1.90659E-03 -1.20575E-01 -8.46768E-02 -4.56589E-01 -2.13663E-01  2.63462E-01  1.70839E-01  7.26283E-02  2.29958E-01 -7.56171E-02
   1.02641E-01  3.13447E-01 -9.02364E-02 -1.94569E-02 -6.82486E-02  8.51542E-02 -4.59946E-01 -4.35224E-01 -2.18082E-01 -5.48641E-01
  -5.28075E-01 -3.88230E-01 -1.74215E+00 -2.72914E+00 -9.24666E-01 -5.85268E-01 -4.92385E-01  3.45040E-01 -2.75703E-03 -2.56810E-01
   8.10725E-02  3.96838E-01  1.18031E-01 -2.07111E-01 -4.82021E-02  6.00542E-03  1.51694E-02  2.12640E-01 -8.63310E-02  1.10523E-01
   3.43607E-01  1.58575E-01  1.59021E-01 -2.80751E-01 -1.30265E-01  2.56989E-02 -2.20901E-01 -2.86969E-02 -1.63235E-02  9.86346E-02
  -1.07734E-02 -7.61798E-03  1.41624E-01  6.31280E-02 -2.74826E-02 -1.32100E-01  1.08385E-01  2.34711E-01  3.75541E-01  2.66787E-01
  -4.32184E-02 -6.90351E-03  2.98320E-01  7.00062E-02  5.32397E-03  4.90496E-01  1.10257E-01  1.45154E-01  3.32002E-01 -1.94181E-01
   1.08490E-01  2.97549E-01  6.57075E-02  1.47428E-01  1.28093E-01  3.78454E-01  2.40445E-01  3.24128E-01  1.28427E-01  1.09843E-01
   3.19640E-01 -2.33856E-01  9.64500E-02  1.65245E-01  8.44856E-02 -5.37613E-02 -8.75866E-02  2.17495E-02  2.19741E-02 -2.07018E-01
  -3.47973E-01  1.70168E-01 -8.13803E-02 -4.16927E-02 -2.63895E-02 -2.22758E-01 -1.03795E-01 -1.26403E-01 -4.57464E-02 -4.60435E-02
  -3.47172E-02  2.16747E-01 -1.15909E-01 -2.40586E-01 -2.10916E-01 -2.97970E-01  2.52532E-01 -3.39834E-02  9.71324E-02 -5.21241E-02
  -3.40941E-01  3.61438E-03  5.68977E-02 -2.02068E-01 -3.83280E-01  1.28520E-01  2.31401E-02  1.42226E-01 -4.53738E-02 -8.73886E-02
   4.78181E-02 -1.30905E-01  1.08970E-01  1.54625E-01  3.69476E-01  4.10379E-01  2.34803E-01  1.17753E-01  3.03128E-01  2.30012E-01
   5.63766E-01  4.32600E-01 -1.18776E-01  1.48535E-03 -2.92834E-01 -8.60340E-02 -6.00123E-02 -3.29061E-01 -1.72828E-01 -7.14508E-02
  -2.49912E-01  4.85538E-03  1.23101E-01 -1.31923E-01  2.34882E-01 -5.08452E-02 -1.86239E-01 -2.46081E-01 -2.39716E-01  1.28445E-01
  -2.31628E-01  3.40379E-02 -4.88241E-02 -2.80600E-01  3.27765E-02 -3.64013E-01 -2.30397E-01  4.40645E-03 -3.56582E-01 -2.47002E-01
  -1.13408E-01  3.14833E-04  1.87349E-01 -2.61257E-01 -2.21354E-01 -1.14504E-01 -2.63979E-03  3.40181E-01 -1.15414E-01  1.01185E-01
   2.16812E-01 -2.10152E-01 -3.27444E-01  2.68836E-02  4.41965E-01  2.07528E-01  1.38987E-01  4.64185E-02 -4.91523E-02  3.07209E-01
   4.70044E-01  1.02986E-01  1.30605E-01 -2.55824E-02  5.73456E-02  2.09996E-01 -1.27184E-01 -1.22388E-02  1.99347E-01  2.20530E-01
  -8.39207E-02  5.67435E-01  2.15167E-01 -2.28302E-01  2.85452E-01  1.25132E-01  1.92216E-01 -1.57367E-03 -2.07569E-02 -3.46986E-01
  -3.38991E-02  9.72531E-02 -8.22969E-02  9.13701E-02 -5.00598E-02 -3.65223E-01 -6.62803E-01 -2.44550E-01 -5.56322E-01 -3.21707E-01
  -3.70568E-01 -3.92796E-01 -1.95610E-01 -3.04145E-01  3.22588E-01 -3.20843E-01 -4.15336E-01 -9.12262E-02 -3.84974E-01 -1.72982E-01
  -4.25148E-02 -2.31047E-01 -2.39407E-01 -2.94519E-02 -2.87825E-01 -3.71002E-01  5.32915E-02 -2.03619E-01 -9.43620E-02  2.21799E-02
  -2.81539E-01  1.41878E-01  9.32251E-02  2.24760E-01  2.73169E-01  2.23163E-01  8.14089E-02  8.61345E-03  3.09669E-01  1.52555E-01
   4.02348E-01  3.50378E-01  3.17904E-01  5.43417E-02 -1.01031E-01  2.57541E-01 -2.87045E-01 -4.70619E-02  3.11259E-01 -2.37402E-01
   3.10375E-02  1.12910E-01  9.69451E-02 -5.60607E-02 -2.57600E-01 -1.27826E-02 -1.08217E-01 -1.05568E-01 -1.41514E-01  3.63042E-01
  -2.16910E-02 -3.34077E-01  1.19820E-01  2.95845E-02 -7.32896E-02 -1.16932E-01  2.38934E-01  2.43719E-01  3.00561E-01 -2.83216E-01
  -2.81217E-01  2.40527E-01  4.59475E-02  5.90247E-02 -3.23238E-02  1.68308E-02  2.70222E-01  3.19075E-01 -1.31114E-01 -2.87084E-02
  -4.24521E-02  2.00273E-02 -1.25500E-01 -1.62798E-01  2.10034E-01 -8.57662E-02  2.18907E-01  1.87601E-01  1.05677E-01  2.20532E-01
  -1.93425E-01 -2.35655E-01  1.28534E-01 -7.11495E-02 -2.02966E-02  1.78145E-01 -2.81521E-02  1.45933E-01  5.44691E-03  2.92575E-01
   1.96365E-01 -1.05483E-01  9.58673E-02 -6.13544E-03  2.23747E-01 -6.48625E-02  1.34837E-02  2.28149E-01 -1.11624E-02  2.55837E-01
   7.30325E-02 -2.17908E-02  1.66755E-01  3.23279E-01  1.91051E-01  1.79767E-01  2.05348E-01  9.18863E-02  2.31832E-01  8.60913E-02
   1.00384E-01 -1.26343E-01  2.47389E-01  1.63946E-01 -9.92546E-02  1.02747E-01 -6.35426E-02  1.58272E-01 -5.88796E-02  1.73362E-01
   1.47831E-01  2.09589E-01  1.44272E-01 -4.66710E-02
 NY points of the fit to the data follow
   2.78041E-03  6.74886E-03  1.22611E-02  1.21015E-02  1.42810E-02  1.78715E-02  3.03687E-02  4.42250E-02  2.67610E-02  7.93883E-02
   6.39173E-02  2.55003E-01  4.78916E-01  3.01804E-01  1.92003E-01  6.22745E-01  8.90194E-01  4.32194E-01  3.02190E-01  2.40761E-01
   3.01189E-03  1.22040E-01  7.08088E-02  2.59055E-02 -1.78356E-03 -2.10997E-02 -4.95535E-02 -6.02937E-02 -6.10942E-02 -8.63590E-02
  -9.21502E-02 -9.26453E-02 -1.19194E-01 -1.43950E-01 -1.80721E-01 -2.05815E-01 -2.36042E-01 -2.35156E-01 -2.30781E-01 -1.73093E-01
   1.46502E-01  2.57751E-01  2.77923E-01  4.23513E-01  3.14859E-01  2.71756E-01  1.98142E-01  7.50310E-02  6.70970E-02  1.63555E-02
   2.93354E-03 -3.35013E-02 -4.19949E-02 -6.70163E-02 -1.04925E-01 -1.46718E-01 -2.06187E-01 -2.34091E-01 -2.37192E-01 -2.80679E-01
  -3.25477E-01 -3.72810E-01 -4.95443E-01 -2.23261E-01 -3.03407E-01 -4.76519E-01  3.50199E-01  2.05589E-01  3.16311E-02  6.96361E-01
   4.26980E-01  3.16826E-01  3.70351E-01  1.30176E-01  9.00831E-02 -2.61308E-07 -8.28581E-02 -2.19548E-01 -2.99264E-01 -5.86936E-01
  -7.76518E-01 -1.73579E-01 -1.28036E-02 -6.98087E-02  4.58017E-01  5.09133E-01  4.23125E-01  4.68985E-01  3.56724E-01  2.91595E-01
   2.67528E-01  2.68190E-01  2.25535E-01  1.89512E-01  1.63316E-01  8.62449E-02  3.33385E-02 -1.15171E-01 -2.12475E-01 -2.73967E-01
  -2.79995E-01 -5.49419E-02  8.28093E-02  2.33653E-01  3.16041E-01  2.61658E-01  3.00029E-01  2.69246E-01  2.70211E-01  2.82586E-01
   2.80058E-01  2.82042E-01  2.83408E-01  2.80026E-01  2.81370E-01  2.81359E-01  2.84185E-01  2.83607E-01  2.78360E-01  2.68936E-01
   2.36447E-01  2.34689E-01  5.51175E-02 -1.57296E-02  3.94020E-02 -3.34739E-01 -1.05337E-01 -1.77795E-01 -5.00690E-01 -3.31991E-01
  -6.27173E-01 -3.80351E-01 -3.74145E-01 -2.11198E-01 -2.10377E-01 -8.43404E-01 -9.07596E-01 -1.16818E+00 -6.89565E-01 -2.91744E-01
  -2.62498E-01 -1.78060E-02 -8.70735E-02 -4.07296E-02 -9.05548E-03  2.10129E-02  4.50734E-02  6.59402E-02  8.81236E-02  1.03064E-01
   1.18984E-01  1.37686E-01  1.52366E-01  1.69117E-01  1.87402E-01  2.08600E-01  2.30462E-01  2.57610E-01  2.89325E-01  3.20362E-01
   3.67170E-01  4.40942E-01  5.05332E-01  5.85443E-01  6.25342E-01  7.20536E-01  9.02587E-01  2.95740E-01 -7.60589E-01 -1.00994E+00
  -8.34495E-01 -6.67090E-01 -4.44896E-01 -3.39635E-01 -3.72034E-01 -3.72833E-01 -3.07368E-01 -2.80693E-01 -2.73107E-01 -2.85045E-01
  -2.61456E-01 -2.27624E-01 -2.25086E-01 -2.11226E-01 -2.06809E-01 -2.13791E-01 -2.04132E-01 -1.90483E-01 -1.82464E-01 -1.78395E-01
  -1.71105E-01 -1.58425E-01 -1.51244E-01 -1.39857E-01 -1.30340E-01 -1.22514E-01 -1.16283E-01 -1.06259E-01 -9.85015E-02 -9.10238E-02
  -8.38398E-02 -7.64245E-02 -6.28891E-02 -5.07795E-02 -5.66330E-02 -7.02023E-02 -6.78515E-02 -5.32985E-02 -3.50687E-02 -4.66708E-02
  -7.30641E-02 -7.45611E-02 -7.22155E-02 -6.84237E-02 -5.79893E-02 -5.13087E-02 -4.33889E-02 -2.36958E-02 -2.52494E-02 -4.80573E-02
  -3.38669E-02 -1.52184E-02  1.79576E-02  2.83900E-02  6.19990E-02  2.35165E-01  2.96628E-01  2.24819E-01  1.45803E-01  1.59986E-01
   4.31350E-01  4.27346E-01  1.61678E-01  9.15056E-02 -1.82479E-02 -8.35769E-02 -4.17316E-02 -6.30323E-02 -7.14768E-02 -8.07815E-02
  -9.30434E-02 -1.02176E-01 -1.05072E-01 -1.11547E-01 -1.09379E-01 -1.15772E-01 -1.19288E-01 -1.14805E-01 -1.24459E-01 -1.17198E-01
  -1.30083E-01 -1.28085E-01 -1.27960E-01 -1.77880E-01 -1.25558E-01 -1.87789E-01 -1.43447E-01  1.34989E-01 -4.53989E-02 -1.17173E-02
   2.11038E-01  8.10755E-02  1.81043E-01  7.80709E-02  8.68509E-02  1.86220E-01  7.22373E-02  1.55841E-01  1.05636E-01  1.15096E-01
   1.26794E-01  6.78281E-02  6.23742E-02 -8.16505E-03 -2.66801E-02 -7.82827E-02 -1.14531E-01 -1.51590E-01 -2.28653E-01 -2.49412E-01
  -3.56070E-01 -4.06548E-01 -3.26263E-01 -3.09851E-01  3.72233E-03  2.44938E-01  2.95647E-01  4.92445E-01  3.88523E-01  2.75910E-01
   2.78541E-01  1.76301E-01  1.61944E-01  1.62081E-01  1.28035E-01  1.52680E-01  1.85837E-01  1.77418E-01  2.11861E-01  2.06027E-01
   1.87848E-01  1.94697E-01  1.74892E-01  1.71604E-01  1.67229E-01  1.56579E-01  1.41707E-01  1.31536E-01  1.08635E-01  6.60495E-02
   6.70674E-02  1.73579E-02 -1.72972E-03  1.31951E-02 -4.20188E-02 -3.17246E-02 -9.38635E-02 -1.52084E-01 -2.06478E-01 -2.32294E-01
  -2.51135E-01 -2.94777E-01 -2.33855E-01 -2.45973E-01 -1.70252E-01 -8.77488E-02 -2.51103E-02  4.95509E-02  9.27643E-02  6.80947E-02
   1.49846E-02 -9.64208E-03 -1.32557E-01 -1.02681E-01 -1.76399E-01 -1.53532E-01 -2.52955E-01 -4.17804E-01 -2.18849E-01 -2.62746E-01
  -4.12987E-01 -3.47612E-01 -1.80771E+00 -2.70757E+00 -1.11464E+00 -6.78057E-01 -4.39989E-01  1.62158E-01 -1.82117E-01 -1.03314E-01
  -7.27243E-02 -4.80752E-02 -2.96171E-02 -1.58455E-02 -5.82542E-03  5.33352E-03  1.33802E-02  2.07086E-02  1.42610E-02  1.98521E-02
  -6.56119E-03 -2.43604E-02 -3.14527E-02 -7.42890E-02 -6.23200E-02 -6.91679E-02 -6.49057E-02 -3.39950E-02 -3.32940E-02 -1.08649E-02
  -4.31526E-03  6.00441E-03  1.71361E-02  2.67625E-02  2.93503E-02  3.45040E-02  3.96869E-02  4.29143E-02  5.00360E-02  5.38528E-02
   5.57692E-02  5.89011E-02  6.33177E-02  6.63782E-02  7.10772E-02  7.38486E-02  7.45377E-02  7.53157E-02  7.84140E-02  8.39826E-02
   8.59689E-02  9.21932E-02  9.37892E-02  9.26520E-02  9.18631E-02  8.75700E-02  8.61429E-02  8.43885E-02  8.21974E-02  7.83305E-02
   7.28353E-02  6.64426E-02  6.19052E-02  5.47334E-02  4.59379E-02  4.14100E-02  3.70184E-02  3.20989E-02  2.53812E-02  2.10018E-02
   1.70712E-02  1.09524E-02  1.08413E-02  6.87452E-03  2.54193E-03  1.92744E-03 -2.50448E-03 -5.38921E-03 -6.51047E-03 -9.12712E-03
  -9.02384E-03 -1.06058E-02 -1.32812E-02 -9.43653E-03 -8.20921E-03 -7.24946E-03 -2.04329E-03  1.20593E-03  5.09657E-03  1.14290E-02
   1.69982E-02  1.77057E-02  1.71160E-02  2.17174E-02  2.75083E-02  3.57365E-02  4.46056E-02  5.03333E-02  5.70038E-02  6.40736E-02
   7.40926E-02  8.63699E-02  9.57045E-02  1.07970E-01  1.19087E-01  1.27509E-01  1.40948E-01  1.50313E-01  1.56450E-01  1.62329E-01
   1.63216E-01  1.63622E-01  1.64227E-01  1.62685E-01  1.60911E-01  1.57702E-01  1.51925E-01  1.42749E-01  1.30668E-01  1.20449E-01
   1.12480E-01  1.03711E-01  9.49972E-02  8.69206E-02  7.59519E-02  6.78220E-02  6.44863E-02  5.62541E-02  5.01901E-02  4.57071E-02
   4.10008E-02  3.75136E-02  3.44106E-02  3.13366E-02  2.92934E-02  3.32954E-02  3.59553E-02  3.61831E-02  4.17528E-02  4.56709E-02
   4.84899E-02  5.51194E-02  6.08539E-02  6.57822E-02  6.88222E-02  7.19018E-02  7.39246E-02  7.43550E-02  7.59463E-02  7.99558E-02
   8.42071E-02  8.25719E-02  8.28260E-02  8.05866E-02  7.70517E-02  7.80167E-02  7.17249E-02  6.81552E-02  6.70340E-02  6.35603E-02
   6.17262E-02  5.74800E-02  5.48753E-02  5.12232E-02  4.77764E-02  4.52530E-02  3.99071E-02  3.60342E-02  3.55677E-02  3.38599E-02
   3.02374E-02  2.66377E-02  2.31517E-02  1.86586E-02  1.08820E-02  3.37890E-03 -3.64584E-03 -1.20077E-02 -1.91472E-02 -3.15508E-02
  -4.62955E-02 -6.27308E-02 -8.10844E-02 -9.42460E-02 -1.09856E-01 -1.26033E-01 -1.38444E-01 -1.49736E-01 -1.59692E-01 -1.69775E-01
  -1.77347E-01 -1.78287E-01 -1.75236E-01 -1.75872E-01 -1.73941E-01 -1.66542E-01 -1.59740E-01 -1.52712E-01 -1.45092E-01 -1.39760E-01
  -1.34751E-01 -1.28688E-01 -1.18544E-01 -1.09892E-01 -1.02158E-01 -8.97226E-02 -7.98856E-02 -7.01788E-02 -6.04238E-02 -5.03049E-02
  -4.21505E-02 -3.58026E-02 -2.33675E-02 -1.56105E-02 -1.16205E-02 -4.49267E-03  5.45759E-04  9.62702E-03  1.61032E-02  1.42034E-02
   2.06494E-02  2.66937E-02  2.58056E-02  3.20956E-02  3.30719E-02  3.23237E-02  3.69846E-02  3.78928E-02  3.83164E-02  3.74425E-02
   4.02918E-02  4.41722E-02  4.40507E-02  4.79994E-02  5.10490E-02  5.09754E-02  5.02961E-02  5.10607E-02  5.22140E-02  4.95680E-02
   5.13277E-02  5.28831E-02  4.93907E-02  5.10127E-02  5.25261E-02  5.08432E-02  5.23625E-02  5.30577E-02  5.43783E-02  5.66404E-02
   5.03978E-02  4.53905E-02  4.98790E-02  5.08658E-02  5.02297E-02  5.01008E-02  5.04263E-02  5.23799E-02  4.85730E-02  4.70408E-02
   4.90347E-02  5.10968E-02  5.30353E-02  5.28112E-02  5.41119E-02  5.45723E-02  5.62968E-02  5.88166E-02  5.76437E-02  5.87702E-02
   6.07693E-02  6.05848E-02  5.88252E-02  5.63619E-02  5.86628E-02  5.92354E-02  6.02113E-02  6.37473E-02  6.37952E-02  6.54462E-02
   6.50313E-02  6.51455E-02  6.98444E-02  7.23409E-02  7.38262E-02  7.46558E-02  7.04840E-02  6.98111E-02  7.10732E-02  7.27795E-02
   7.62511E-02  7.40948E-02  7.28282E-02  7.41619E-02  7.34229E-02  7.59704E-02  7.81244E-02  7.49355E-02  7.54048E-02  8.10903E-02
   8.20970E-02  8.04952E-02  8.33594E-02  8.37034E-02  8.49561E-02  8.83382E-02  8.76826E-02  9.19059E-02  9.84071E-02  1.01409E-01
   1.04432E-01  1.05741E-01  1.08876E-01  1.10008E-01
 NY background values follow
     5.990E-02    5.977E-02    5.964E-02    5.951E-02    5.938E-02    5.924E-02    5.911E-02    5.898E-02    5.885E-02    5.872E-02
     5.859E-02    5.846E-02    5.832E-02    5.819E-02    5.806E-02    5.793E-02    5.780E-02    5.767E-02    5.754E-02    5.740E-02
     5.727E-02    5.714E-02    5.701E-02    5.688E-02    5.675E-02    5.662E-02    5.649E-02    5.635E-02    5.622E-02    5.609E-02
     5.596E-02    5.583E-02    5.570E-02    5.557E-02    5.543E-02    5.530E-02    5.517E-02    5.504E-02    5.491E-02    5.478E-02
     5.465E-02    5.452E-02    5.438E-02    5.425E-02    5.412E-02    5.399E-02    5.386E-02    5.373E-02    5.360E-02    5.346E-02
     5.333E-02    5.320E-02    5.307E-02    5.294E-02    5.281E-02    5.268E-02    5.254E-02    5.241E-02    5.228E-02    5.215E-02
     5.202E-02    5.189E-02    5.176E-02    5.163E-02    5.149E-02    5.136E-02    5.123E-02    5.110E-02    5.097E-02    5.084E-02
