 
 $NMID
 ID=''
 FMTDAT='(2E13.5)'
 TRAMP=   1.00000E+0
 VOLUME=   1.00000E+0
 $END
  -4.76481E+3   1.74921E+4
  -2.37899E+4   3.98527E+4
  -1.54527E+4   4.34791E+4
  -1.32623E+4   4.01462E+4
  -1.44837E+4   4.12428E+4
  -1.18687E+4   4.21962E+4
  -1.07654E+4   4.05607E+4
  -1.11411E+4   4.09552E+4
  -9.31924E+3   4.15389E+4
  -8.30655E+3   4.05730E+4
  -8.23735E+3   4.07259E+4
  -6.52797E+3   4.10120E+4
  -5.41301E+3   4.04833E+4
  -5.28772E+3   4.06064E+4
  -3.85241E+3   4.07178E+4
  -2.84428E+3   4.00888E+4
  -2.28245E+3   4.00174E+4
  -1.03829E+3   3.99103E+4
   5.76277E+0   3.91665E+4
   5.50983E+2   3.89848E+4
   1.70096E+3   3.86604E+4
   2.81533E+3   3.78680E+4
   3.53631E+3   3.76831E+4
   4.53481E+3   3.72913E+4
   5.61790E+3   3.65263E+4
   6.30339E+3   3.61231E+4
   7.31116E+3   3.58978E+4
   8.08247E+3   3.52849E+4
   8.67774E+3   3.48538E+4
   9.57965E+3   3.44285E+4
   1.04572E+4   3.38945E+4
   1.11067E+4   3.34740E+4
   1.18687E+4   3.31859E+4
   1.24709E+4   3.25856E+4
   1.30694E+4   3.20658E+4
   1.37473E+4   3.16641E+4
   1.44027E+4   3.11048E+4
   1.49861E+4   3.04735E+4
   1.58168E+4   2.99385E+4
   1.63629E+4   2.93598E+4
   1.69089E+4   2.88006E+4
   1.74353E+4   2.84199E+4
   1.79200E+4   2.77396E+4
   1.83877E+4   2.70689E+4
   1.89756E+4   2.64081E+4
   1.95247E+4   2.58287E+4
   2.00382E+4   2.52094E+4
   2.05857E+4   2.46702E+4
   2.10312E+4   2.40555E+4
   2.14838E+4   2.33635E+4
   2.18371E+4   2.28447E+4
   2.22977E+4   2.21562E+4
   2.26864E+4   2.14713E+4
   2.31657E+4   2.07670E+4
   2.36034E+4   2.01691E+4
   2.39102E+4   1.94954E+4
   2.42101E+4   1.89333E+4
   2.45044E+4   1.83475E+4
   2.47581E+4   1.76736E+4
   2.50086E+4   1.70212E+4
   2.52448E+4   1.63404E+4
   2.54890E+4   1.56438E+4
   2.57675E+4   1.50459E+4
   2.58936E+4   1.44485E+4
   2.60604E+4   1.38527E+4
   2.61741E+4   1.30452E+4
   2.63225E+4   1.24528E+4
   2.64330E+4   1.18590E+4
   2.65055E+4   1.11523E+4
   2.64966E+4   1.05401E+4
   2.65871E+4   9.87953E+3
   2.65656E+4   9.23704E+3
   2.66922E+4   8.62571E+3
   2.66091E+4   7.94830E+3
   2.66029E+4   7.36160E+3
   2.66132E+4   6.63961E+3
   2.65298E+4   6.08903E+3
   2.63954E+4   5.48557E+3
   2.63717E+4   4.78714E+3
   2.63123E+4   4.18777E+3
   2.62481E+4   3.57031E+3
   2.60700E+4   3.02409E+3
   2.59321E+4   2.37403E+3
   2.58890E+4   1.78036E+3
   2.57106E+4   1.27946E+3
   2.54918E+4   7.13009E+2
   2.52798E+4   1.39433E+2
   2.50943E+4  -3.93796E+2
   2.47809E+4  -1.00755E+3
   2.46531E+4  -1.56238E+3
   2.44013E+4  -2.05960E+3
   2.42431E+4  -2.58267E+3
   2.39676E+4  -3.11663E+3
   2.36495E+4  -3.63370E+3
   2.34643E+4  -4.20213E+3
   2.31122E+4  -4.63998E+3
   2.27488E+4  -5.12983E+3
   2.25751E+4  -5.68123E+3
   2.23052E+4  -6.11983E+3
   2.19450E+4  -6.50667E+3
   2.15893E+4  -6.95261E+3
   2.12354E+4  -7.34918E+3
   2.08948E+4  -7.87600E+3
   2.05868E+4  -8.28729E+3
   2.02287E+4  -8.62705E+3
   1.99345E+4  -9.04171E+3
   1.94840E+4  -9.40017E+3
   1.91095E+4  -9.76169E+3
   1.87708E+4  -1.00858E+4
   1.82821E+4  -1.04284E+4
   1.78385E+4  -1.08108E+4
   1.74474E+4  -1.12447E+4
   1.70402E+4  -1.14456E+4
   1.66858E+4  -1.18072E+4
   1.62866E+4  -1.21223E+4
   1.58439E+4  -1.24952E+4
   1.54508E+4  -1.27834E+4
   1.50145E+4  -1.30167E+4
   1.46319E+4  -1.32383E+4
   1.42049E+4  -1.34821E+4
   1.38090E+4  -1.37939E+4
   1.34544E+4  -1.40268E+4
   1.30621E+4  -1.42020E+4
   1.25711E+4  -1.44880E+4
   1.22135E+4  -1.46584E+4
   1.18480E+4  -1.48463E+4
   1.14557E+4  -1.49876E+4
   1.10396E+4  -1.51771E+4
   1.06276E+4  -1.52768E+4
   1.03398E+4  -1.54997E+4
   9.87765E+3  -1.55347E+4
   9.50453E+3  -1.57778E+4
   9.12478E+3  -1.58531E+4
   8.70886E+3  -1.59954E+4
   8.37689E+3  -1.60710E+4
   8.04648E+3  -1.61326E+4
   7.66434E+3  -1.62180E+4
   7.29302E+3  -1.62397E+4
   6.90833E+3  -1.63765E+4
   6.55602E+3  -1.63750E+4
   6.16993E+3  -1.63734E+4
   5.89824E+3  -1.64831E+4
   5.56179E+3  -1.64532E+4
   5.20477E+3  -1.63993E+4
   4.82190E+3  -1.64284E+4
   4.47151E+3  -1.63236E+4
   4.12072E+3  -1.62743E+4
   3.83551E+3  -1.62486E+4
   3.53956E+3  -1.61266E+4
   3.18493E+3  -1.60809E+4
   2.88743E+3  -1.60119E+4
   2.61361E+3  -1.58706E+4
   2.25677E+3  -1.57669E+4
   1.93053E+3  -1.57294E+4
   1.58351E+3  -1.56383E+4
   1.27020E+3  -1.54063E+4
   1.02545E+3  -1.53022E+4
   7.56749E+2  -1.52141E+4
   3.95256E+2  -1.50448E+4
   1.27928E+2  -1.48518E+4
  -7.85927E+1  -1.47133E+4
  -3.27806E+2  -1.45743E+4
  -5.73870E+2  -1.43951E+4
  -8.38471E+2  -1.42143E+4
  -1.06989E+3  -1.40919E+4
  -1.35673E+3  -1.38585E+4
  -1.57698E+3  -1.35890E+4
  -1.86021E+3  -1.33983E+4
  -1.99189E+3  -1.31699E+4
  -2.23154E+3  -1.29856E+4
  -2.40929E+3  -1.28223E+4
  -2.66767E+3  -1.25727E+4
  -2.90066E+3  -1.23892E+4
  -3.09256E+3  -1.20836E+4
  -3.26083E+3  -1.19071E+4
  -3.43568E+3  -1.16891E+4
  -3.63870E+3  -1.14434E+4
  -3.74126E+3  -1.12197E+4
  -3.93365E+3  -1.09775E+4
  -4.06385E+3  -1.08181E+4
  -4.15647E+3  -1.04596E+4
  -4.32241E+3  -1.02196E+4
  -4.47293E+3  -1.00171E+4
  -4.58565E+3  -9.82381E+3
  -4.71242E+3  -9.51844E+3
  -4.87434E+3  -9.22359E+3
  -4.99445E+3  -9.07901E+3
  -5.07296E+3  -8.85070E+3
  -5.14333E+3  -8.62211E+3
  -5.21044E+3  -8.30499E+3
  -5.30515E+3  -8.05399E+3
  -5.34902E+3  -7.85840E+3
  -5.46968E+3  -7.56820E+3
  -5.47701E+3  -7.34768E+3
  -5.56393E+3  -7.08768E+3
  -5.65189E+3  -6.81121E+3
  -5.68040E+3  -6.59652E+3
  -5.68051E+3  -6.34267E+3
  -5.77868E+3  -6.10742E+3
  -5.77840E+3  -5.95753E+3
  -5.83019E+3  -5.70281E+3
  -5.80774E+3  -5.46578E+3
  -5.79330E+3  -5.19660E+3
  -5.81655E+3  -5.01637E+3
  -5.89834E+3  -4.74237E+3
  -5.85493E+3  -4.56080E+3
  -5.84782E+3  -4.38033E+3
  -5.83102E+3  -4.09795E+3
  -5.75755E+3  -3.90073E+3
  -5.74359E+3  -3.72301E+3
  -5.75558E+3  -3.45838E+3
  -5.73061E+3  -3.27264E+3
  -5.71035E+3  -3.11284E+3
  -5.61475E+3  -2.86978E+3
  -5.59803E+3  -2.65494E+3
  -5.56184E+3  -2.48708E+3
  -5.50999E+3  -2.29473E+3
  -5.41077E+3  -2.07275E+3
  -5.37909E+3  -1.87781E+3
  -5.31673E+3  -1.66520E+3
  -5.32392E+3  -1.53297E+3
  -5.18965E+3  -1.35001E+3
  -5.13662E+3  -1.16480E+3
  -5.03235E+3  -1.05102E+3
  -4.94149E+3  -8.65871E+2
  -4.90982E+3  -7.00561E+2
  -4.78718E+3  -5.33930E+2
  -4.78195E+3  -3.58132E+2
  -4.63750E+3  -3.14764E+2
  -4.59140E+3  -9.13147E+1
  -4.44944E+3   9.97884E+1
  -4.45087E+3   1.70484E+2
  -4.31933E+3   3.64015E+2
  -4.20401E+3   4.55425E+2
  -4.11587E+3   5.86228E+2
  -4.06214E+3   7.11258E+2
  -3.92297E+3   8.04616E+2
  -3.82713E+3   9.77224E+2
  -3.76243E+3   1.01580E+3
  -3.64521E+3   1.13281E+3
  -3.54193E+3   1.21772E+3
  -3.42640E+3   1.25508E+3
  -3.32460E+3   1.45620E+3
  -3.25152E+3   1.50534E+3
  -3.21622E+3   1.55153E+3
  -3.07966E+3   1.63732E+3
  -2.93654E+3   1.68401E+3
  -2.87536E+3   1.76627E+3
  -2.71864E+3   1.87002E+3
  -2.60096E+3   1.80635E+3
  -2.50453E+3   1.97774E+3
  -2.40902E+3   2.01262E+3
  -2.28677E+3   1.99707E+3
  -2.25265E+3   2.02004E+3
  -2.09065E+3   2.11985E+3
  -1.96162E+3   2.10460E+3
  -1.89057E+3   2.16853E+3
  -1.79743E+3   2.19268E+3
  -1.70024E+3   2.23193E+3
  -1.54374E+3   2.29177E+3
  -1.52016E+3   2.22723E+3
  -1.36707E+3   2.26750E+3
  -1.27262E+3   2.31835E+3
  -1.14778E+3   2.25120E+3
  -1.16898E+3   2.31031E+3
  -1.05019E+3   2.23843E+3
  -9.50074E+2   2.29217E+3
  -8.32270E+2   2.24684E+3
  -7.95550E+2   2.29516E+3
  -6.89401E+2   2.18838E+3
  -6.59154E+2   2.20157E+3
  -4.82837E+2   2.21662E+3
  -4.03185E+2   2.16968E+3
  -3.47715E+2   2.14013E+3
  -2.68548E+2   2.12924E+3
  -2.56616E+2   2.11495E+3
  -1.84068E+2   2.05519E+3
  -1.41241E+2   2.02864E+3
  -2.25919E+1   1.98375E+3
   1.24711E+1   1.97454E+3
   6.42944E+1   1.92698E+3
   1.58347E+2   1.87743E+3
   2.15053E+2   1.82076E+3
   2.48642E+2   1.79365E+3
   3.04257E+2   1.78348E+3
   3.75911E+2   1.76120E+3
   3.29581E+2   1.68861E+3
   4.25878E+2   1.63198E+3
   5.17261E+2   1.56596E+3
   5.06786E+2   1.54677E+3
   5.88090E+2   1.45117E+3
   6.01537E+2   1.45389E+3
   6.26871E+2   1.41003E+3
   6.15921E+2   1.31570E+3
   6.79505E+2   1.24935E+3
   7.45282E+2   1.19836E+3
   7.46140E+2   1.18459E+3
   7.08761E+2   1.04708E+3
   7.68783E+2   9.73098E+2
   7.73025E+2   1.03183E+3
   8.56993E+2   9.64808E+2
   8.95052E+2   8.43819E+2
   8.46219E+2   8.10979E+2
   9.35230E+2   7.79656E+2
   8.77787E+2   7.27989E+2
   9.09441E+2   5.98231E+2
   8.90187E+2   5.95560E+2
   9.38496E+2   6.06945E+2
   9.42995E+2   5.20927E+2
   9.34624E+2   5.09028E+2
   9.06103E+2   4.71600E+2
   8.68247E+2   4.04559E+2
   9.33460E+2   2.78290E+2
   9.53903E+2   3.28655E+2
   9.13058E+2   2.90694E+2
   8.88299E+2   2.01651E+2
   8.74289E+2   1.49701E+2
   8.49837E+2   1.34837E+2
   8.39397E+2   1.19031E+2
   8.09171E+2   6.96025E+1
   8.52101E+2  -1.02642E+1
   7.31896E+2  -3.82173E+1
   7.67664E+2  -7.41843E+1
   8.13795E+2  -1.14613E+2
   7.27863E+2  -1.11031E+2
   7.16008E+2  -2.30333E+2
   6.94140E+2  -2.52204E+2
   6.51876E+2  -2.85106E+2
   6.35989E+2  -3.27243E+2
   6.78866E+2  -2.58637E+2
   5.58182E+2  -3.30575E+2
   5.76734E+2  -3.41530E+2
   5.16825E+2  -3.70235E+2
   5.74538E+2  -4.49276E+2
   4.66094E+2  -4.27221E+2
   5.06033E+2  -4.50534E+2
   4.29265E+2  -4.76023E+2
   4.10993E+2  -5.40769E+2
   3.64156E+2  -5.24734E+2
   3.70404E+2  -5.63323E+2
   3.04493E+2  -5.85732E+2
   2.80832E+2  -6.68072E+2
   2.98564E+2  -7.40005E+2
   2.98625E+2  -6.65538E+2
   2.36958E+2  -6.07935E+2
   1.61081E+2  -6.90683E+2
   2.15207E+2  -7.14162E+2
   1.27110E+2  -6.89302E+2
   1.43683E+2  -7.41335E+2
   1.34864E+2  -7.14142E+2
   6.15974E+1  -7.72009E+2
   5.89491E+0  -6.52190E+2
   8.84999E+1  -7.76746E+2
   8.85305E+0  -7.43439E+2
  -2.91255E+0  -7.63974E+2
  -2.04385E+1  -7.28946E+2
  -8.60973E+1  -7.75304E+2
  -1.27031E+2  -7.80320E+2
  -1.35242E+2  -7.36775E+2
  -1.80674E+2  -7.75439E+2
  -1.64070E+2  -7.17616E+2
  -1.69847E+2  -7.45369E+2
  -1.85662E+2  -7.66206E+2
  -2.06860E+2  -7.20895E+2
  -2.35580E+2  -7.27755E+2
  -2.77211E+2  -7.08513E+2
  -3.03729E+2  -6.49653E+2
