 
 $NMID
 ID=''
 FMTDAT='(2E13.5)'
 TRAMP=   1.00000E+0
 VOLUME=   1.00000E+0
 $END
   6.93096E+2  -6.49351E+2
  -1.14423E+3   1.33272E+3
   3.03676E+2  -2.31297E+3
  -3.05368E+3   5.03149E+3
   1.97618E+3   4.69882E+3
   5.78334E+3   4.74648E+2
   2.55001E+3  -1.86832E+3
   2.00021E+3  -3.23750E+3
   1.41183E+3  -4.06493E+3
  -5.02734E+2  -2.27685E+3
  -2.55730E+3   1.24335E+2
  -2.61092E+3   4.27805E+2
  -8.86260E+2   2.41725E+3
  -1.01317E+3   4.03861E+3
  -2.78863E+3   1.99886E+3
   4.82801E+2   1.68949E+3
   6.34931E+3  -3.06002E+2
   5.46967E+3  -9.32897E+2
   1.91277E+3  -1.19255E+3
  -2.07333E+3  -4.83548E+3
  -1.69074E+3  -2.59886E+3
  -9.98506E+2   1.37339E+3
  -7.49401E+3   3.71099E+3
  -2.83678E+3  -2.56405E+3
   2.11988E+3  -2.55114E+3
   2.16387E+3   5.05865E+3
  -9.93089E+2   2.36298E+3
  -8.91868E+2  -2.79502E+3
   3.28124E+3  -3.51198E+3
   4.12406E+3  -2.67503E+3
   6.23166E+3   4.70248E+3
  -3.06158E+3   4.77340E+3
  -2.44652E+3  -3.64643E+3
  -1.86530E+3  -2.96302E+3
   1.31642E+2  -3.52050E+3
  -2.30098E+3  -3.52946E+3
   2.15793E+3  -3.94773E+3
   3.23336E+3   1.89235E+3
   3.15688E+3   6.02530E+3
   1.70074E+3   4.96367E+3
  -1.18110E+3   4.41245E+3
  -3.37959E+3   2.44472E+3
  -2.83870E+3  -3.15770E+3
   2.60561E+3  -3.83105E+3
   4.36145E+3   3.67005E+2
   1.69609E+2   1.82964E+3
   1.79498E+3   5.16932E+3
   1.08586E+3   3.42959E+3
  -1.94302E+3   4.52823E+3
  -2.11859E+3   2.19436E+2
  -1.46114E+3  -1.79229E+3
  -1.60989E+3  -1.55551E+3
   1.32155E+3  -1.38493E+3
   4.85225E+3   2.53283E+3
   5.88276E+2   3.09092E+3
   3.06630E+2   2.78463E+3
  -2.66923E+3   7.99049E+2
  -3.50358E+3  -1.93372E+3
  -5.96992E+3  -7.77736E+3
  -1.00399E+3  -7.04430E+3
   6.58997E+3  -5.75084E+3
   4.29676E+3  -1.20132E+3
   6.82056E+1   2.56720E+3
  -2.20664E+3   3.33115E+1
  -9.08592E+2  -2.18635E+3
   2.17810E+3   2.28109E+3
  -3.06704E+2   4.21518E+3
  -2.67442E+3   4.12064E+3
  -1.47502E+3   1.14800E+3
   1.12071E+3   2.11607E+3
  -3.29181E+2   2.99706E+3
  -1.69430E+3   6.58650E+2
  -1.55050E+3   1.61315E+3
  -1.36959E+3  -2.11088E+3
  -1.18876E+3   3.94675E+2
  -1.61212E+3   1.57831E+3
  -1.31321E+3  -1.83240E+3
  -2.69548E+3  -1.46104E+3
  -1.96994E+2  -1.55748E+2
   6.27885E+2   1.61820E+3
  -3.52035E+3   3.30008E+3
  -2.41415E+3  -2.79874E+2
  -4.51932E+2   1.48164E+3
   1.29949E+3   4.21642E+3
  -1.29764E+3   1.06043E+3
  -4.45988E+3   2.60565E+2
  -3.05332E+3  -3.31098E+3
   3.98066E+2  -5.03527E+3
   2.94845E+3  -2.32825E+3
   6.22077E+2  -4.65789E+2
  -3.86717E+2   1.06061E+3
   1.84872E+3  -1.61411E+3
   3.33560E+3   5.08311E+1
  -1.18121E+3   3.76659E+3
  -3.54133E+3   1.06305E+3
  -1.25179E+3  -3.57009E+3
   2.12037E+3  -5.72741E+3
   1.28750E+3  -5.53786E+1
   1.71516E+3   2.65856E+3
  -4.79295E+3  -2.50801E+3
  -1.46804E+3  -4.42771E+3
   3.55720E+3  -6.90136E+3
   4.45340E+3  -8.40381E+2
   2.29977E+3   1.04934E+2
  -1.25791E+3   1.87308E+3
   9.71056E+2  -6.76046E+2
   1.12604E+3   9.34261E+2
   1.28706E+3   4.45120E+2
  -2.43770E+3  -2.04258E+3
  -2.98370E+2  -4.05314E+3
   2.57485E+3  -4.24464E+3
   1.60281E+3  -1.27208E+3
   2.20527E+3   9.71757E+2
   1.31399E+3  -3.99728E+2
   3.01027E+3   1.36083E+3
  -4.80941E+2   2.61415E+3
  -1.09326E+3   2.13814E+2
  -6.99516E+2   4.31457E+2
  -1.76285E+3   3.61673E+2
  -9.55414E+2  -1.80716E+3
   3.22548E+3   8.88785E+2
  -4.36084E+2   1.86826E+3
  -1.87400E+3   2.92771E+3
  -1.19734E+3   1.03290E+3
   7.15507E+2  -1.24541E+3
   5.57764E+2  -7.59467E+2
  -2.40274E+2   1.49830E+2
   5.73226E+1   1.25079E+3
   2.10183E+3  -7.91694E+2
  -1.05438E+3   2.49779E+2
  -2.42742E+3   1.36792E+3
  -1.49592E+2  -1.63843E+3
   2.70074E+3   2.93838E+2
   2.48291E+3   2.40684E+3
   1.57000E+3   4.60648E+3
  -1.62237E+3   5.87945E+3
  -2.78355E+3   2.69040E+3
  -2.02256E+3   1.55709E+3
   3.08440E+2   1.00480E+3
   6.47142E+2  -4.20438E+2
  -2.95774E+1  -1.03501E+3
  -5.06434E+2  -2.10289E+3
   2.01781E+3  -1.39635E+3
   2.30961E+3  -5.66765E+2
  -7.66127E+2  -1.36253E+3
  -5.70912E+2  -6.79717E+2
  -1.02546E+3  -2.05157E+3
   9.67415E+2  -2.51446E+3
   1.98165E+3   3.84640E+1
  -7.98577E+2   1.42457E+3
   4.87135E+2   1.55127E+3
   1.63059E+2   1.06326E+2
  -2.10947E+3   7.75495E+2
  -5.20555E+2  -1.21790E+3
  -5.22762E+2  -1.72935E+3
   2.28383E+3  -1.91092E+3
   1.50392E+3   1.41365E+3
   2.55769E+3   1.82719E+3
   9.58217E+2  -1.63187E+3
   2.55029E+3  -1.41962E+3
   8.56651E+2  -6.05667E+1
   1.01791E+3   1.19635E+3
  -6.18034E+2  -2.72828E+3
  -2.25102E+3   3.24906E+2
   3.45338E+2  -1.22068E+3
  -3.00951E+2   1.70979E+3
   8.32513E+2   1.86204E+3
  -2.36191E+2  -1.59611E+3
   1.67524E+3  -1.31202E+3
   3.44324E+2   2.13327E+2
   7.22548E+2   7.46864E+2
  -7.24854E+2  -5.22232E+2
  -2.14149E+3   3.53185E+2
  -3.07568E+2  -6.38446E+2
  -4.14536E+1  -3.21872E+2
   1.79946E+2  -8.23151E+1
   6.48538E+1  -4.39409E+2
  -1.16925E+2  -2.15791E+3
  -9.44495E+2  -1.93054E+3
  -1.71365E+3   2.24249E+3
  -1.15873E+3   7.06291E+2
  -8.21159E+2  -7.03039E+2
  -9.24457E+2   6.18843E+2
   9.33265E+2  -1.99264E+2
  -2.96679E+2  -9.03491E+2
   6.40208E+1  -4.44274E+2
   1.82701E+3  -1.09774E+2
   4.10054E+2   9.44238E+1
  -3.62660E+2   1.14177E+3
  -1.62881E+2   2.31321E+3
  -8.65695E+2   1.50410E+3
  -5.01923E+2  -7.23120E+2
  -1.89319E+2  -8.96256E+2
   1.60119E+2  -2.30197E+2
  -1.72799E+3  -7.41389E+2
  -1.65112E+3  -5.27547E+2
  -1.29776E+3   1.16090E+3
  -2.02904E+3  -3.69580E+2
  -1.16256E+3  -6.73515E+2
  -2.28657E+2  -1.70374E+3
   1.25708E+3   5.72255E+2
   1.72167E+3   1.69153E+3
  -1.61982E+3   2.56808E+3
  -2.93976E+3   1.46427E+3
   2.48150E+1   4.36564E+2
  -9.64063E+2  -1.06446E+3
   2.08852E+2   1.02000E+3
  -9.13460E+2  -9.32964E+2
  -1.49805E+3   4.70624E+2
   1.08145E+3  -9.39989E+2
   1.70762E+3   1.00701E+3
  -8.39826E+2   1.03719E+3
  -1.74291E+3   7.99320E+2
  -8.33881E+2  -1.90159E+3
   1.99859E+3  -1.82398E+3
  -3.87960E+2   1.21457E+3
   1.10217E+3   1.97442E+3
  -1.30292E+2  -7.35858E+2
   6.32526E+2   1.23541E+3
  -7.66787E+1  -3.00753E+2
  -1.23962E+3  -5.38990E+2
   5.44401E+2   3.68642E+2
  -2.08355E+3   4.35543E+2
  -1.38320E+2  -2.58847E+2
  -2.02067E+3  -3.39463E+2
  -3.47685E+2  -3.24077E+2
   2.21516E+3  -1.10398E+3
   2.11197E+3  -1.74442E+3
   2.17672E+3  -2.21492E+2
   1.08656E+3   1.03193E+3
   1.45091E+2  -6.35037E+0
  -5.35379E+2  -1.57784E+2
   8.38704E+2   5.43374E+2
   2.84724E+1  -4.52418E+2
  -1.07292E+3   2.01838E+2
   4.28677E+2  -1.31277E+3
   1.80988E+3  -1.52206E+3
  -7.70322E+2  -2.86619E+1
  -4.31542E+2   1.32776E+3
   6.42986E+2  -9.32714E+2
  -6.80874E+2  -1.28043E+3
  -1.34985E+2  -1.81604E+3
   8.43935E+2   3.20738E+3
   1.01282E+2   2.63797E+2
   3.07611E+3  -1.14660E+3
   1.74757E+3  -8.67759E+2
   9.26001E+2  -9.98708E+2
   6.62453E+2   2.04850E+2
   2.91020E+2  -1.17715E+3
   2.29352E+2  -1.70377E+3
   4.97891E+2  -1.86974E+3
   9.44827E+2   1.31556E+3
  -5.02988E+2  -2.36703E+2
  -1.26743E+3   2.81560E+2
   1.39358E+2  -2.15225E+2
  -6.72207E+2   7.68956E+2
  -1.40146E+3  -1.80834E+3
  -1.23869E+3   9.79945E+2
   1.22759E+3  -2.09436E+3
   2.72733E+3   7.07149E+1
  -1.56298E+3  -4.18260E+2
  -6.57128E+2   1.38860E+3
  -1.23749E+3  -8.78196E+1
   1.65118E+3  -1.51857E+3
  -3.98515E+2  -1.80268E+2
   2.47958E+1  -1.70643E+3
  -4.87567E+2   1.19639E+2
  -1.18783E+3   1.50496E+3
  -9.34264E+2  -2.38737E+3
   1.28061E+2   9.16130E+2
  -1.01485E+3   1.61690E+3
  -2.13052E+3  -2.83889E+3
   9.46068E+2  -9.99176E+2
   1.50145E+3  -3.19112E+2
   3.24624E+2   1.30627E+3
  -2.36140E+2   1.03092E+3
  -5.07545E+2   4.80886E+2
  -3.61433E+2   1.28475E+2
   6.68941E+2  -6.45888E+2
  -3.94727E+2   6.93940E+2
   5.27322E+2  -8.64939E+2
  -1.07145E+1  -1.65287E+3
   3.16742E+2   5.66000E+2
   9.05046E+2   4.29380E+2
   7.36048E+2  -7.96867E+2
   4.36017E+0  -2.04923E+1
   1.31367E+3   5.46749E+2
   2.99249E+2   7.70125E+2
   3.33602E+2   8.10963E+2
   1.69959E+2  -3.60804E+2
  -1.29557E+3   7.33779E+1
  -4.01427E+2  -1.81315E+2
  -1.50659E+3  -2.44437E+3
  -1.64626E+3  -5.53814E+2
   8.26084E+2  -1.45401E+3
   2.42032E+3   1.17487E+3
   3.54504E+2   4.96122E+2
   4.85436E+1  -5.83094E+0
   6.12708E+2  -2.73017E+2
  -1.51747E+3   1.00075E+3
  -1.19674E+3   6.26993E+2
  -2.90527E+2  -7.55452E+2
   4.61893E+2   5.17601E+2
  -4.71134E+2   1.41462E+3
   6.43931E+2   3.14496E+3
   1.19055E+3  -1.37814E+3
  -2.70659E+2  -1.27836E+3
  -6.31719E+2  -2.23953E+3
  -2.09506E+2  -1.74454E+3
  -6.17126E+2  -1.31716E+2
  -1.21858E+3  -7.46486E+2
  -3.75691E+2   1.23525E+3
   8.93972E+2  -1.25281E+3
  -5.91126E+2   8.13571E+2
  -7.54157E+1   6.87914E+2
  -6.51846E+2  -6.08924E+2
   1.31674E+3  -8.58525E+2
   1.80656E+3   1.24145E+3
   5.91800E+2   3.94233E+3
  -6.76607E+2   2.20114E+3
  -1.11225E+3  -5.30410E+2
  -1.56571E+2  -9.95108E+2
   1.94301E+3  -9.16864E+2
   1.04029E+3  -5.89382E+2
   1.01196E+3   2.60810E+3
   1.73835E+3  -3.25713E+2
  -4.99679E+2  -4.14592E+2
  -2.38813E+2   1.23613E+3
  -1.62854E+3   1.98273E+3
  -8.94750E+2  -1.38226E+3
   5.73707E+2  -2.40065E+3
   1.79031E+2  -9.68156E+2
  -6.20960E+1  -3.60954E+2
   6.64047E+2   2.26279E+3
  -2.79467E+2  -1.09333E+3
   1.35374E+3  -4.43602E+2
  -8.92436E+2   1.65322E+2
  -4.89631E+2  -4.82108E+2
  -1.27500E+3  -1.50040E+3
  -3.89801E+2  -7.77497E+2
  -1.70738E+3   2.41417E+2
  -2.23536E+2   9.83097E+2
  -3.31588E+2  -4.89245E+2
   8.15135E+2   6.28638E+2
  -1.72192E+2  -1.41085E+2
  -1.26268E+3   4.02351E+2
  -1.91748E+3   5.76198E+1
  -1.31575E+3   1.07070E+3
   7.90219E+2  -2.71322E+3
   9.36342E+2   4.75701E+2
  -1.13540E+3   2.35225E+3
   5.24904E+2  -1.01343E+3
  -7.37642E+2  -1.43834E+3
  -1.75597E+2  -7.46083E+2
  -2.00338E+2   1.16036E+3
   1.12077E+2   1.11724E+2
  -1.15017E+3   7.65103E+2
   8.11828E+2  -8.27111E+1
  -7.81947E+2  -7.37963E+2
  -5.66143E+2  -7.23317E+2
  -1.01122E+3   4.14564E+2
   1.71979E+3   2.60446E+2
  -1.79116E+2  -7.23383E+2
   3.83972E+2   9.30483E+2
   9.51616E+2   2.22451E+2
  -2.80345E+2  -1.62925E+3
   2.47537E+2  -1.45709E+3
