 
 $NMID
 ID=''
 FMTDAT='(2E13.5)'
 TRAMP=   1.00000E+0
 VOLUME=   1.00000E+0
 $END
  -1.98714E+2  -1.08563E+2
   8.97234E+1   1.27773E+3
   6.31102E+1  -1.52740E+3
   1.55186E+3  -2.50275E+2
   2.20259E+3  -2.00090E+3
  -2.45810E+2  -4.27541E+3
  -2.35082E+3   5.00036E+1
  -4.74868E+3  -8.74840E+2
  -6.12033E+3   1.64570E+3
  -3.89220E+3   5.45878E+2
  -4.53072E+2  -7.23924E+1
   4.05192E+3   2.90217E+3
   3.81892E+3   4.26661E+3
   4.29785E+2   3.30820E+3
  -3.40746E+2  -1.47065E+3
   2.58094E+2  -3.72925E+3
   2.95814E+2  -4.53191E+3
  -1.08336E+3  -7.65265E+2
  -4.59485E+3  -2.43764E+3
  -2.30767E+3  -6.51012E+2
  -1.15574E+3   1.86851E+2
   4.49566E+3   3.29313E+3
   1.68461E+3   4.92825E+3
  -2.95933E+3  -8.46599E+2
   2.07368E+3  -4.21759E+3
   4.41246E+3  -1.93349E+3
   9.54370E+2  -5.69990E+2
  -1.37951E+3  -2.26895E+3
  -6.76604E+2  -6.71172E+3
   4.03206E+3  -6.91467E+3
   5.27207E+3  -6.29520E+2
   2.51911E+3   5.11476E+3
  -3.37730E+3  -3.91239E+1
  -1.06862E+3  -2.19582E+2
  -3.93858E+2   5.40565E+2
  -4.97926E+3  -6.19463E+2
   1.31595E+3  -3.68943E+3
   4.02591E+3  -3.25236E+3
   3.22769E+3   1.87820E+3
   4.63700E+3   3.02642E+3
   5.33821E+3   6.12626E+3
   1.11579E+2   5.57365E+3
  -2.08374E+3   9.54819E+2
   2.64439E+3  -4.06528E+3
   6.19914E+3  -1.66696E+3
   2.55724E+3  -2.69325E+1
   1.82751E+3  -1.24363E+3
   1.63519E+3  -5.07036E+2
  -3.76690E+1   2.98293E+3
  -3.23838E+3   2.49524E+3
  -4.72197E+3  -3.70292E+2
  -3.66392E+3  -2.01174E+3
  -1.51114E+3  -2.14779E+3
  -1.16128E+3   1.26358E+3
   6.70632E+2   4.02007E+3
  -2.53460E+3   1.68126E+3
  -7.84185E+2   5.33352E+3
  -2.92537E+3   4.57501E+3
  -5.79438E+3  -4.09294E+2
  -2.14896E+3  -4.02492E+3
   1.31692E+3  -4.56969E+3
   4.26062E+3  -3.49163E+3
   1.58116E+3   1.47174E+3
  -4.44783E+2   1.78807E+3
   9.53632E+2   3.34201E+2
   1.98930E+3   1.01438E+3
   1.24377E+3   3.74051E+3
  -2.16048E+3   4.63918E+3
  -3.35154E+3   8.24739E+2
  -7.44090E+2   1.26761E+3
  -1.51278E+3   6.51270E+2
  -1.44938E+3   3.08541E+2
  -2.28809E+3   1.34591E+3
  -1.99026E+3  -1.41748E+3
   1.36990E+3   2.05731E+0
   1.92626E+3  -7.38570E+2
  -5.30953E+2   2.17018E+3
  -1.97522E+3  -2.73238E+3
   9.28764E+2  -1.35405E+3
   2.86563E+3   1.38563E+3
   1.09767E+3   3.01381E+3
  -1.94528E+3  -1.45807E+2
   1.01365E+3  -1.78974E+3
   2.73726E+3   1.45200E+3
   1.58658E+2   1.26902E+3
  -1.41983E+3   1.59859E+1
  -3.49052E+3  -2.44696E+3
  -3.92716E+2  -2.93282E+3
   1.41163E+3  -1.37797E+3
   2.47031E+3   1.46649E+3
  -8.64448E+2   2.19146E+3
  -1.08899E+3  -4.66597E+2
   1.32327E+3   1.78072E+3
  -8.24151E+2   2.78342E+3
  -3.26684E+3   2.63403E+3
  -2.26489E+3  -2.48296E+3
   1.57009E+3  -1.59208E+2
   2.16490E+3   7.17282E+2
  -2.08534E+1   7.36022E+2
  -2.78976E+3  -7.41597E+2
  -2.70324E+3  -4.00882E+3
   3.35276E+2  -3.90643E+3
   3.66922E+3  -1.53850E+3
   1.50208E+3   2.78165E+3
   9.50918E+2   7.14497E+2
   1.09020E+3  -6.40435E+2
  -4.01335E+2   4.10732E+2
  -5.31297E+3   8.10414E+2
  -1.38552E+3  -4.24480E+2
  -8.21434E+2  -2.57865E+3
   9.77152E+2  -2.39999E+3
   3.98986E+3  -2.23120E+3
   9.22031E+2   1.03920E+3
   2.03930E+3   1.85782E+3
   7.37328E+2   2.22596E+3
   9.77366E+2   1.48579E+3
  -6.48140E+2   4.54377E+2
  -4.54593E+2   9.26399E+2
   1.55210E+3   5.16806E+2
  -5.72554E+2  -6.09775E+2
   2.98862E+3  -1.01636E+3
  -7.25562E+2   1.27391E+3
  -9.10951E+2  -1.04252E+3
   6.36925E+2  -5.11841E+2
   1.30694E+3  -1.75998E+2
  -7.08796E+2   9.07367E+1
  -8.76348E+2  -1.54823E+3
   3.16254E+2  -4.66961E+2
   1.92938E+3  -1.08907E+3
   1.15859E+3   2.51137E+2
  -2.69261E+3  -1.30880E+2
   1.86333E+3  -3.51282E+3
   7.05315E+2  -1.74593E+3
   3.37744E+3   1.02623E+3
   5.04300E+2   2.11201E+3
  -1.73595E+3   6.86112E+2
  -1.64116E+3  -7.00702E+2
   1.39638E+2  -1.43655E+3
   9.76999E+2  -2.80075E+3
  -1.04202E+3  -4.29537E+2
  -1.05881E+2  -1.67945E+3
   1.23992E+3  -9.89361E+2
   2.19318E+3  -1.71866E+3
   8.52188E+1   7.00302E+2
  -1.82372E+3  -2.23291E+2
  -2.31191E+3  -1.55859E+3
   1.88027E+1   1.11141E+2
   5.17826E+2  -1.12467E+3
   1.72021E+3   9.76564E+1
   1.10670E+3  -1.33199E+3
  -1.02428E+3   1.47456E+3
  -2.70783E+3   9.48186E+2
  -2.82932E+3  -4.27110E+3
  -5.21149E+2  -2.53295E+3
  -8.28176E+2  -1.49776E+3
   7.85672E+1   1.71116E+3
   1.19206E+3  -1.02205E+3
  -4.08977E+2   3.53341E+2
   9.95949E+1   2.19275E+3
   2.37507E+2   1.57323E+2
  -3.02404E+3   2.64177E+3
   6.16477E+2  -6.21063E+1
  -1.07194E+3  -6.25969E+2
  -8.14354E+2  -2.32169E+2
   1.32364E+3   9.24597E+2
  -1.35932E+3   1.45692E+3
  -2.35821E+3  -6.46078E+2
  -1.67197E+2  -2.71799E+3
   2.76186E+2  -1.19122E+3
   2.07039E+3   1.10909E+3
  -9.80230E+2  -2.44686E+2
  -2.35065E+0   1.26139E+2
  -1.04852E+3  -1.13348E+3
   7.60116E+2  -2.46630E+3
  -1.03708E+3   4.93153E+1
  -1.00025E+3  -4.16956E+2
   9.50192E+2  -6.93240E+2
   5.87006E+2   9.33411E+2
   1.66358E+3   2.25303E+2
  -1.11852E+3   1.97791E+3
  -1.69261E+3   1.59104E+1
  -6.28723E+2  -1.20738E+3
  -1.42318E+3   1.31795E+2
  -1.70730E+3   1.07711E+3
   2.47324E+2  -6.29377E+2
   1.39565E+3  -1.43314E+3
   1.29280E+3   2.31462E+3
  -1.33090E+3   2.20953E+3
  -2.72618E+3  -2.02766E+2
  -1.26297E+3   6.02744E+2
  -8.99098E+2  -1.15975E+3
   1.56160E+3   7.62695E+2
  -1.85560E+3   1.11120E+3
  -2.19248E+3  -3.57924E+2
  -1.14067E+3  -1.49121E+3
   1.47817E+3   3.89315E+2
   1.54386E+3  -1.95515E+2
  -2.84340E+2  -3.04346E+2
  -2.50690E+3   8.88010E+2
   1.34935E+3  -5.82949E+2
  -1.34512E+2   2.39786E+3
  -2.02736E+3   1.53671E+3
  -2.19246E+3   1.07752E+3
  -6.46756E+2   9.73682E+2
   8.55971E+1  -1.34442E+3
   2.46701E+1  -1.30784E+2
  -9.44421E+2   1.66445E+3
   6.25830E+2   8.23324E+1
  -2.61464E+2  -1.11048E+3
   7.13588E+2   1.49102E+3
  -9.98419E+2   3.17629E+3
  -2.18561E+3  -6.32523E+2
  -2.89916E+2  -9.01880E+2
   1.15750E+3  -1.19845E+3
   1.31528E+3   1.46258E+3
  -1.34000E+3   2.75410E+3
  -4.49958E+2   1.20797E+2
  -6.20838E+1  -5.94262E+2
  -1.96874E+3  -1.81795E+2
  -3.97287E+2   1.98382E+3
   1.06869E+3  -1.76768E+3
   1.34897E+3   6.08333E+2
   1.72765E+2   8.06182E+0
  -1.57625E+2   6.33933E+2
  -1.36777E+3   1.63872E+3
   5.63083E+2   1.62200E+3
   9.17266E+2  -1.54800E+3
   1.02441E+3   4.81732E+2
   4.23661E+2   1.92772E+3
  -1.26910E+3  -5.58325E+2
   1.23737E+3  -3.14791E+2
   4.50999E+2   1.41245E+3
  -2.11056E+3   2.66798E+2
  -6.16807E+2  -1.54152E+3
  -1.91037E+2  -2.02920E+3
   2.12421E+3   1.82483E+1
   1.25271E+3   1.76853E+3
  -1.14347E+3   1.36465E+3
  -5.75059E+2  -1.27062E+3
  -6.62914E+1  -3.32570E+3
   5.42963E+2  -5.35048E+1
   6.59470E+2   1.50214E+3
   9.19372E+2   1.44054E+3
  -9.28870E+2  -8.91327E+2
  -1.92678E+1  -6.14449E+2
  -4.36297E+1   1.64555E+3
  -1.14589E+3   2.08895E+2
   7.03403E+2  -1.28463E+3
   8.21407E+2  -2.45949E+2
  -1.95104E+2   9.12211E+0
   4.30305E+3  -1.93609E+3
   7.96949E+1   2.29162E+3
   1.81381E+2   2.53634E+2
  -5.42354E+2   1.40000E+3
  -8.35057E+2  -9.56789E+2
   9.90687E+1   1.17573E+3
   1.23509E+3  -4.94096E+2
   2.12551E+3   1.38564E+3
   1.98420E+3  -4.71413E+2
   1.23123E+3   3.05773E+3
  -1.47824E+3   2.72087E+3
   1.42420E+3   3.56530E+2
  -1.50906E+3  -1.15485E+3
  -5.22173E+1  -2.00438E+3
  -1.01589E+2   2.71507E+3
  -1.00480E+3   9.60900E+2
   2.04955E+3  -5.72254E+2
   3.73118E+2   6.95697E+2
  -7.11999E+2  -1.44027E+2
  -3.22368E+1   8.75433E+2
   1.72177E+2   1.71857E+2
  -2.68453E+2   7.42774E+2
   1.55584E+3   1.27484E+3
   3.53850E+2  -9.35153E+2
  -7.71905E+2   2.53442E+2
  -1.04421E+2  -1.65364E+2
  -2.09685E+3  -6.10320E+0
  -6.01895E+2   1.79825E+3
  -1.36065E+3  -1.06718E+3
   3.67633E+2  -8.15507E+2
   1.29737E+3  -5.73862E+2
  -2.28482E+2   1.03399E+3
  -1.25617E+3  -3.70418E+2
  -1.39889E+3  -1.49456E+3
   4.03901E+2   1.51288E+3
   1.40539E+3  -1.70509E+3
   5.82010E+2   1.10820E+3
  -6.80903E+2  -1.12957E+3
  -7.76299E+2  -8.75360E+2
   9.40974E+2  -2.86991E+2
   2.89588E+2  -7.29796E+2
  -9.21262E+2  -2.33813E+2
   5.47527E+2  -7.87622E+2
   1.41458E+3  -5.19384E+2
   9.77637E+2  -6.62591E+0
   1.09866E+3   1.36827E+3
  -2.71632E+3  -3.53873E+2
  -1.33198E+3  -3.77809E+3
  -9.24302E+2   8.83841E+2
  -8.51570E+2  -4.89997E+2
   1.65819E+3  -3.79629E+2
   9.51710E+2  -8.16503E+2
   9.26905E+1   1.08165E+3
  -6.05951E+2   6.41491E+2
   6.52197E+2   7.00346E+2
  -1.12902E+3  -2.19798E+2
   1.49980E+3  -1.52186E+3
  -4.33524E+2   7.25804E+2
  -1.40928E+2  -3.62421E+2
  -1.00932E+3   2.04707E+2
  -4.07857E+2   2.22456E+3
   5.38323E+2   2.08827E+1
  -5.36652E+2  -2.61941E+3
  -3.73792E+2   1.97784E+2
  -1.04803E+3  -2.19270E+2
   1.51203E+3   7.06038E+2
   1.93537E+3  -1.95212E+3
   7.38214E+2   1.05329E+3
  -1.90366E+2   4.89787E+2
  -3.85639E+2  -6.27389E+2
   1.43940E+3  -2.08239E+3
   7.12338E+2  -4.19598E+2
   8.08011E+2  -1.92302E+2
   1.22111E+2   5.49251E+2
  -5.88695E+2  -5.07629E+1
   6.84735E+2  -7.78694E+2
  -1.41482E+3   9.87402E+2
   9.51098E+2  -2.42731E+3
   1.20765E+3  -1.36245E+3
  -5.07967E+2  -1.60918E+3
   2.00305E+3   1.79670E+3
   2.48601E+3   8.74766E+2
  -1.70001E+3  -3.43980E+2
  -1.54112E+3  -5.90989E+2
   1.17590E+3   8.35021E+2
   1.26201E+3  -2.60904E+1
   8.75154E+2  -6.23238E+2
   5.22457E+2  -9.84123E+2
   5.12902E+2  -1.21616E+3
  -7.44470E+2   3.13536E+2
  -2.04013E+3   1.21989E+3
  -1.21777E+3  -1.56013E+3
   4.90496E+2  -1.43927E+3
   1.96726E+3   1.09452E+2
  -2.53860E+2   1.16019E+2
  -9.45408E+2   9.60719E+2
  -5.15379E+2  -3.45286E+2
  -7.18675E+2   9.19773E+2
   3.24614E+1   1.43578E+2
  -4.15835E+2   1.70399E+3
   1.24202E+3   9.02038E+2
  -2.55953E+3   4.89478E+2
   9.53014E+1  -7.04037E+1
  -6.17994E+2   4.83794E+2
  -1.43638E+3   8.48119E+2
   6.28984E+2  -1.18900E+3
   1.21279E+3  -7.56612E+2
   1.10347E+3   1.52116E+2
   3.48600E+2  -1.67102E+3
   4.56621E+2   4.55858E+2
  -6.15242E+2  -8.71719E+2
  -8.45962E+2   4.52404E+1
   2.99113E+3   8.23656E+2
  -2.49105E+2   1.53798E+3
  -1.15192E+3  -1.47220E+3
   1.26929E+3  -1.51187E+3
   1.93099E+3  -1.21905E+3
