 
 $NMID
 ID=''
 FMTDAT='(2E13.5)'
 TRAMP=   1.00000E+0
 VOLUME=   1.00000E+0
 $END
  -8.58826E+3   1.81415E+4
  -3.45713E+4   3.85974E+4
  -2.72714E+4   4.38254E+4
  -2.51166E+4   4.03424E+4
  -2.73542E+4   4.10553E+4
  -2.54553E+4   4.22495E+4
  -2.50349E+4   4.01333E+4
  -2.62430E+4   3.99714E+4
  -2.52597E+4   4.05156E+4
  -2.48509E+4   3.92417E+4
  -2.57933E+4   3.89359E+4
  -2.49330E+4   3.91779E+4
  -2.46110E+4   3.83476E+4
  -2.53894E+4   3.80499E+4
  -2.47882E+4   3.81363E+4
  -2.45322E+4   3.73258E+4
  -2.49917E+4   3.71677E+4
  -2.44933E+4   3.70589E+4
  -2.40811E+4   3.64514E+4
  -2.44309E+4   3.61008E+4
  -2.41102E+4   3.58977E+4
  -2.36217E+4   3.53829E+4
  -2.38035E+4   3.51765E+4
  -2.35076E+4   3.49910E+4
  -2.31900E+4   3.42571E+4
  -2.31753E+4   3.40603E+4
  -2.29682E+4   3.38444E+4
  -2.27530E+4   3.31328E+4
  -2.27284E+4   3.27599E+4
  -2.24086E+4   3.25076E+4
  -2.21497E+4   3.20844E+4
  -2.20675E+4   3.18901E+4
  -2.18358E+4   3.16298E+4
  -2.16337E+4   3.12135E+4
  -2.14347E+4   3.08936E+4
  -2.12358E+4   3.06656E+4
  -2.09988E+4   3.02988E+4
  -2.08678E+4   3.00543E+4
  -2.06001E+4   2.99674E+4
  -2.03261E+4   2.95285E+4
  -2.02234E+4   2.92788E+4
  -2.00884E+4   2.90355E+4
  -1.99344E+4   2.86665E+4
  -1.96279E+4   2.83746E+4
  -1.95041E+4   2.80794E+4
  -1.93325E+4   2.77487E+4
  -1.90023E+4   2.74832E+4
  -1.89247E+4   2.73112E+4
  -1.86674E+4   2.70355E+4
  -1.85600E+4   2.68523E+4
  -1.83648E+4   2.65337E+4
  -1.81720E+4   2.62682E+4
  -1.78959E+4   2.60647E+4
  -1.77246E+4   2.59220E+4
  -1.75977E+4   2.56863E+4
  -1.74316E+4   2.55082E+4
  -1.72541E+4   2.52321E+4
  -1.72214E+4   2.49792E+4
  -1.69392E+4   2.48274E+4
  -1.68430E+4   2.45218E+4
  -1.66283E+4   2.42315E+4
  -1.64891E+4   2.40349E+4
  -1.62812E+4   2.37835E+4
  -1.61926E+4   2.35239E+4
  -1.60492E+4   2.32465E+4
  -1.58953E+4   2.30366E+4
  -1.57338E+4   2.27772E+4
  -1.56107E+4   2.25486E+4
  -1.55359E+4   2.22964E+4
  -1.53979E+4   2.20446E+4
  -1.52254E+4   2.17848E+4
  -1.51155E+4   2.15521E+4
  -1.48989E+4   2.13045E+4
  -1.47987E+4   2.10462E+4
  -1.46086E+4   2.08252E+4
  -1.44948E+4   2.06550E+4
  -1.44001E+4   2.03794E+4
  -1.42347E+4   2.01716E+4
  -1.41188E+4   1.99045E+4
  -1.39419E+4   1.96044E+4
  -1.38311E+4   1.94563E+4
  -1.36830E+4   1.92120E+4
  -1.35460E+4   1.89651E+4
  -1.34570E+4   1.88235E+4
  -1.34109E+4   1.85715E+4
  -1.32214E+4   1.82822E+4
  -1.30865E+4   1.79353E+4
  -1.28966E+4   1.77460E+4
  -1.27895E+4   1.74945E+4
  -1.27207E+4   1.73380E+4
  -1.24537E+4   1.71072E+4
  -1.24031E+4   1.69160E+4
  -1.21235E+4   1.66644E+4
  -1.20275E+4   1.65050E+4
  -1.18816E+4   1.62572E+4
  -1.17466E+4   1.60490E+4
  -1.15898E+4   1.58706E+4
  -1.13652E+4   1.57143E+4
  -1.12240E+4   1.55370E+4
  -1.10738E+4   1.52469E+4
  -1.09615E+4   1.50751E+4
  -1.08171E+4   1.48592E+4
  -1.06100E+4   1.47272E+4
  -1.04796E+4   1.45354E+4
  -1.03409E+4   1.43681E+4
  -1.02840E+4   1.41356E+4
  -1.00900E+4   1.40302E+4
  -9.99749E+3   1.37541E+4
  -9.86524E+3   1.35836E+4
  -9.68918E+3   1.33889E+4
  -9.44846E+3   1.31956E+4
  -9.36845E+3   1.30583E+4
  -9.22130E+3   1.29647E+4
  -9.06271E+3   1.26675E+4
  -8.90909E+3   1.25629E+4
  -8.81271E+3   1.24492E+4
  -8.67196E+3   1.21815E+4
  -8.51565E+3   1.20729E+4
  -8.37637E+3   1.19011E+4
  -8.20019E+3   1.16951E+4
  -8.06036E+3   1.15179E+4
  -7.95023E+3   1.14790E+4
  -7.87583E+3   1.12884E+4
  -7.77707E+3   1.11421E+4
  -7.58519E+3   1.10099E+4
  -7.47039E+3   1.08564E+4
  -7.30657E+3   1.06857E+4
  -7.24576E+3   1.05304E+4
  -7.11407E+3   1.04076E+4
  -7.00507E+3   1.02262E+4
  -6.87102E+3   1.01514E+4
  -6.81516E+3   1.00485E+4
  -6.65767E+3   9.79155E+3
  -6.61355E+3   9.63453E+3
  -6.42110E+3   9.53413E+3
  -6.32579E+3   9.46698E+3
  -6.21594E+3   9.22047E+3
  -6.13537E+3   9.16286E+3
  -6.02058E+3   9.03078E+3
  -5.95905E+3   8.85432E+3
  -5.81580E+3   8.68687E+3
  -5.63039E+3   8.56107E+3
  -5.49514E+3   8.46507E+3
  -5.46922E+3   8.38593E+3
  -5.40473E+3   8.22903E+3
  -5.32877E+3   8.06504E+3
  -5.13141E+3   8.02761E+3
  -5.15526E+3   7.84162E+3
  -4.99341E+3   7.82313E+3
  -4.88912E+3   7.67060E+3
  -4.76526E+3   7.49641E+3
  -4.67810E+3   7.43681E+3
  -4.62222E+3   7.28876E+3
  -4.48266E+3   7.18819E+3
  -4.38970E+3   7.08388E+3
  -4.26179E+3   6.94036E+3
  -4.20191E+3   6.87522E+3
  -4.09409E+3   6.79065E+3
  -3.97155E+3   6.64037E+3
  -3.84811E+3   6.53337E+3
  -3.85084E+3   6.45230E+3
  -3.67017E+3   6.32087E+3
  -3.62863E+3   6.26170E+3
  -3.43953E+3   6.11933E+3
  -3.41220E+3   5.99773E+3
  -3.30345E+3   5.96659E+3
  -3.19010E+3   5.81409E+3
  -3.10629E+3   5.75524E+3
  -3.06485E+3   5.64312E+3
  -2.98613E+3   5.58259E+3
  -2.80472E+3   5.51423E+3
  -2.78001E+3   5.39703E+3
  -2.67306E+3   5.32164E+3
  -2.57326E+3   5.18564E+3
  -2.46542E+3   5.06273E+3
  -2.38102E+3   5.06170E+3
  -2.30525E+3   4.88950E+3
  -2.21057E+3   4.92322E+3
  -2.07061E+3   4.77536E+3
  -1.99879E+3   4.71070E+3
  -1.93190E+3   4.51950E+3
  -1.82971E+3   4.51974E+3
  -1.68991E+3   4.46401E+3
  -1.58122E+3   4.38672E+3
  -1.57407E+3   4.25830E+3
  -1.42656E+3   4.26687E+3
  -1.32078E+3   4.16661E+3
  -1.28339E+3   4.12433E+3
  -1.17116E+3   4.06710E+3
  -1.06482E+3   3.92277E+3
  -9.78754E+2   3.89607E+3
  -9.03129E+2   3.85998E+3
  -7.64419E+2   3.68945E+3
  -7.04251E+2   3.69343E+3
  -6.29085E+2   3.66048E+3
  -5.23186E+2   3.57664E+3
  -4.67983E+2   3.59516E+3
  -3.95540E+2   3.39158E+3
  -2.45000E+2   3.45289E+3
  -1.80896E+2   3.36653E+3
  -2.05336E+2   3.33934E+3
  -1.36008E+2   3.26887E+3
  -6.33748E+1   3.21852E+3
   8.14851E+1   3.12852E+3
   1.70842E+2   3.04388E+3
   2.09524E+2   3.08747E+3
   2.64022E+2   3.03491E+3
   3.15540E+2   3.00090E+3
   3.84430E+2   2.87006E+3
   4.59102E+2   2.84554E+3
   5.44817E+2   2.83589E+3
   6.55153E+2   2.77829E+3
   6.20513E+2   2.73054E+3
   7.57160E+2   2.70809E+3
   8.22681E+2   2.68063E+3
   8.60993E+2   2.67828E+3
   8.92966E+2   2.67312E+3
   9.42118E+2   2.56844E+3
   1.00755E+3   2.54648E+3
   1.06895E+3   2.47009E+3
   1.10566E+3   2.48216E+3
   1.17036E+3   2.37944E+3
   1.26948E+3   2.35819E+3
   1.21145E+3   2.36243E+3
   1.32684E+3   2.30732E+3
   1.36359E+3   2.23331E+3
   1.47496E+3   2.18331E+3
   1.48260E+3   2.23918E+3
   1.55773E+3   2.19095E+3
   1.50791E+3   2.12109E+3
   1.58148E+3   2.09732E+3
   1.67440E+3   2.13102E+3
   1.66791E+3   2.12681E+3
   1.71065E+3   2.03972E+3
   1.73739E+3   2.01469E+3
   1.79565E+3   1.97831E+3
   1.87243E+3   1.92820E+3
   1.84731E+3   1.89647E+3
   1.94600E+3   1.92732E+3
   1.90215E+3   1.80846E+3
   1.96870E+3   1.79831E+3
   1.97901E+3   1.79188E+3
   2.05762E+3   1.71112E+3
   2.01563E+3   1.73282E+3
   2.05937E+3   1.70398E+3
   2.12359E+3   1.66081E+3
   2.14832E+3   1.60864E+3
   2.24731E+3   1.58574E+3
   2.19065E+3   1.57743E+3
   2.25293E+3   1.51218E+3
   2.27682E+3   1.52531E+3
   2.26753E+3   1.44176E+3
   2.29574E+3   1.50896E+3
   2.27686E+3   1.46036E+3
   2.31718E+3   1.40923E+3
   2.42740E+3   1.42239E+3
   2.43915E+3   1.37755E+3
   2.43015E+3   1.34028E+3
   2.44273E+3   1.30192E+3
   2.49782E+3   1.30449E+3
   2.47906E+3   1.24418E+3
   2.52290E+3   1.30602E+3
   2.50837E+3   1.22866E+3
   2.54301E+3   1.31474E+3
   2.51634E+3   1.19114E+3
   2.62841E+3   1.27077E+3
   2.57965E+3   1.18875E+3
   2.56732E+3   1.14481E+3
   2.62331E+3   1.21883E+3
   2.59778E+3   1.16121E+3
   2.60741E+3   1.12015E+3
   2.61483E+3   1.06374E+3
   2.67968E+3   1.12831E+3
   2.62274E+3   1.01801E+3
   2.67086E+3   1.02419E+3
   2.60993E+3   1.01786E+3
   2.63620E+3   9.44451E+2
   2.70587E+3   9.42552E+2
   2.65434E+3   9.54504E+2
   2.70199E+3   9.24816E+2
   2.66755E+3   9.17480E+2
   2.70279E+3   9.34566E+2
   2.71213E+3   8.60832E+2
   2.71555E+3   7.99430E+2
   2.69993E+3   8.15663E+2
   2.70150E+3   8.97361E+2
   2.69510E+3   8.52611E+2
   2.70843E+3   7.82264E+2
   2.68096E+3   7.81887E+2
   2.75670E+3   7.59022E+2
   2.70772E+3   7.73911E+2
   2.70835E+3   7.04797E+2
   2.67578E+3   7.77584E+2
   2.69254E+3   7.34568E+2
   2.64955E+3   6.32476E+2
   2.68347E+3   6.69263E+2
   2.69252E+3   6.43393E+2
   2.66687E+3   6.63509E+2
   2.73521E+3   6.80252E+2
   2.72113E+3   6.49219E+2
   2.68231E+3   6.05430E+2
   2.71164E+3   6.46171E+2
   2.71004E+3   6.12264E+2
   2.71309E+3   5.31921E+2
   2.70184E+3   5.29943E+2
   2.67664E+3   5.08285E+2
   2.70350E+3   6.18987E+2
   2.72248E+3   5.61860E+2
   2.69193E+3   5.33294E+2
   2.69641E+3   5.92216E+2
   2.72836E+3   5.51833E+2
   2.66276E+3   5.15532E+2
   2.68192E+3   4.73079E+2
   2.71609E+3   5.48888E+2
   2.66644E+3   4.67275E+2
   2.70976E+3   4.42814E+2
   2.73437E+3   5.14405E+2
   2.70561E+3   4.59354E+2
   2.68867E+3   4.64401E+2
   2.64099E+3   4.89767E+2
   2.66297E+3   4.40797E+2
   2.65413E+3   4.18055E+2
   2.65316E+3   4.67758E+2
   2.64290E+3   3.88313E+2
   2.69058E+3   4.22654E+2
   2.61087E+3   4.63883E+2
   2.61115E+3   4.66428E+2
   2.61554E+3   4.17506E+2
   2.57045E+3   4.53972E+2
   2.59075E+3   4.25218E+2
   2.55821E+3   4.40753E+2
   2.59503E+3   4.45953E+2
   2.51246E+3   5.01882E+2
   2.51962E+3   4.26163E+2
   2.48106E+3   4.30010E+2
   2.48450E+3   3.97235E+2
   2.51234E+3   4.77509E+2
   2.46628E+3   4.15083E+2
   2.45773E+3   4.09217E+2
   2.40366E+3   4.28675E+2
   2.46014E+3   4.40293E+2
   2.46933E+3   4.75893E+2
   2.39115E+3   3.72602E+2
   2.44457E+3   4.41354E+2
   2.44062E+3   4.34538E+2
   2.39994E+3   4.31179E+2
   2.38243E+3   3.60099E+2
   2.37454E+3   3.44588E+2
   2.40134E+3   3.76852E+2
   2.38177E+3   3.67869E+2
   2.28612E+3   2.92270E+2
   2.30630E+3   3.09832E+2
   2.31085E+3   3.48149E+2
   2.27887E+3   3.22323E+2
   2.22422E+3   3.61700E+2
   2.29125E+3   3.64908E+2
   2.26836E+3   2.84004E+2
   2.26186E+3   3.01786E+2
   2.21430E+3   3.18741E+2
   2.28057E+3   2.96024E+2
   2.22760E+3   3.17940E+2
   2.19302E+3   2.71560E+2
   2.23259E+3   2.84524E+2
   2.17021E+3   2.75337E+2
   2.17486E+3   2.62478E+2
   2.20205E+3   2.50528E+2
   2.20219E+3   2.86770E+2
