 
 $NMID
 ID=''
 FMTDAT='(2E13.5)'
 TRAMP=   1.00000E+0
 VOLUME=   1.00000E+0
 $END
   3.39029E+2   1.62881E+4
  -1.09694E+4   4.04276E+4
  -3.53076E+3   4.15254E+4
  -2.86751E+3   3.80331E+4
  -3.77029E+3   3.91584E+4
  -1.68828E+3   3.91993E+4
  -1.66653E+3   3.73459E+4
  -2.34117E+3   3.76261E+4
  -1.05431E+3   3.74667E+4
  -9.84880E+2   3.62072E+4
  -1.29094E+3   3.61475E+4
  -3.52970E+2   3.59187E+4
  -1.26827E+2   3.50333E+4
  -4.68475E+2   3.49966E+4
   2.20116E+2   3.45547E+4
   3.50108E+2   3.37575E+4
   1.78459E+2   3.35015E+4
   7.06658E+2   3.32145E+4
   9.67861E+2   3.23277E+4
   9.27493E+2   3.20751E+4
   1.37314E+3   3.16192E+4
   1.73678E+3   3.09844E+4
   1.75818E+3   3.07003E+4
   2.04506E+3   3.03724E+4
   2.24555E+3   2.95902E+4
   2.19918E+3   2.92592E+4
   2.40389E+3   2.88632E+4
   2.40030E+3   2.82021E+4
   2.27261E+3   2.77398E+4
   2.37890E+3   2.72610E+4
   2.42057E+3   2.65960E+4
   2.41030E+3   2.61595E+4
   2.40405E+3   2.55810E+4
   2.44257E+3   2.48149E+4
   2.49586E+3   2.42070E+4
   2.58891E+3   2.35923E+4
   2.66255E+3   2.27916E+4
   2.70401E+3   2.21988E+4
   2.88398E+3   2.15552E+4
   2.98470E+3   2.09027E+4
   3.01130E+3   2.02727E+4
   3.08870E+3   1.97299E+4
   3.16389E+3   1.90021E+4
   3.26183E+3   1.84141E+4
   3.43063E+3   1.77919E+4
   3.55193E+3   1.71117E+4
   3.62583E+3   1.65792E+4
   3.87277E+3   1.60973E+4
   4.05105E+3   1.55476E+4
   4.20385E+3   1.49846E+4
   4.35175E+3   1.45853E+4
   4.45355E+3   1.40746E+4
   4.64325E+3   1.36379E+4
   4.85909E+3   1.31745E+4
   5.00999E+3   1.28550E+4
   5.04729E+3   1.25409E+4
   5.19748E+3   1.22350E+4
   5.23862E+3   1.19620E+4
   5.21979E+3   1.16765E+4
   5.28252E+3   1.14578E+4
   5.31057E+3   1.12820E+4
   5.25762E+3   1.10093E+4
   5.20938E+3   1.08249E+4
   5.05677E+3   1.06901E+4
   4.91824E+3   1.05073E+4
   4.81327E+3   1.02822E+4
   4.64311E+3   1.01682E+4
   4.45502E+3   9.98270E+3
   4.21286E+3   9.82457E+3
   4.05959E+3   9.63302E+3
   3.80359E+3   9.42286E+3
   3.55546E+3   9.29571E+3
   3.34564E+3   9.05467E+3
   3.05764E+3   8.87535E+3
   2.75538E+3   8.64763E+3
   2.57050E+3   8.50909E+3
   2.26156E+3   8.27794E+3
   2.03056E+3   8.11935E+3
   1.69623E+3   7.93812E+3
   1.49334E+3   7.77129E+3
   1.22214E+3   7.53277E+3
   9.02450E+2   7.36952E+3
   6.94721E+2   7.24491E+3
   3.85410E+2   7.00359E+3
   1.19761E+2   6.81759E+3
  -1.56393E+2   6.61915E+3
  -4.78974E+2   6.42592E+3
  -6.54177E+2   6.05090E+3
  -9.27483E+2   6.00122E+3
  -1.15405E+3   5.70749E+3
  -1.36285E+3   5.52949E+3
  -1.59651E+3   5.26710E+3
  -1.83954E+3   5.06639E+3
  -1.97558E+3   4.93995E+3
  -2.13577E+3   4.73309E+3
  -2.37849E+3   4.39862E+3
  -2.51790E+3   4.30268E+3
  -2.67717E+3   4.07126E+3
  -2.79738E+3   3.87008E+3
  -2.99451E+3   3.68772E+3
  -3.10204E+3   3.51349E+3
  -3.32783E+3   3.33780E+3
  -3.43756E+3   3.17052E+3
  -3.56461E+3   3.03126E+3
  -3.58785E+3   2.86556E+3
  -3.67069E+3   2.71179E+3
  -3.82243E+3   2.58122E+3
  -3.97097E+3   2.36616E+3
  -4.03811E+3   2.20372E+3
  -4.07135E+3   1.97799E+3
  -4.13562E+3   1.85301E+3
  -4.17422E+3   1.72572E+3
  -4.24943E+3   1.58411E+3
  -4.28812E+3   1.40165E+3
  -4.28935E+3   1.19237E+3
  -4.43928E+3   1.07576E+3
  -4.43970E+3   9.30191E+2
  -4.48205E+3   7.59527E+2
  -4.50178E+3   6.93862E+2
  -4.45988E+3   5.44091E+2
  -4.41798E+3   4.72641E+2
  -4.42579E+3   3.30821E+2
  -4.46946E+3   1.65746E+2
  -4.48401E+3   5.24895E+1
  -4.34167E+3  -6.20913E+1
  -4.33206E+3  -1.80139E+2
  -4.28324E+3  -3.32839E+2
  -4.26257E+3  -4.10159E+2
  -4.17068E+3  -4.37087E+2
  -4.09580E+3  -6.51150E+2
  -4.08065E+3  -6.61992E+2
  -4.00162E+3  -7.96648E+2
  -3.92147E+3  -8.48719E+2
  -3.85186E+3  -9.13144E+2
  -3.74968E+3  -9.82283E+2
  -3.68371E+3  -1.07003E+3
  -3.64305E+3  -1.04257E+3
  -3.57447E+3  -1.19083E+3
  -3.44295E+3  -1.20723E+3
  -3.27780E+3  -1.24388E+3
  -3.19159E+3  -1.22314E+3
  -3.13924E+3  -1.31502E+3
  -3.08691E+3  -1.33841E+3
  -3.01532E+3  -1.35839E+3
  -2.92577E+3  -1.40668E+3
  -2.82179E+3  -1.40326E+3
  -2.69108E+3  -1.45489E+3
  -2.68878E+3  -1.40458E+3
  -2.61088E+3  -1.47699E+3
  -2.54569E+3  -1.41534E+3
  -2.38805E+3  -1.45772E+3
  -2.29188E+3  -1.48098E+3
  -2.22647E+3  -1.41847E+3
  -2.09714E+3  -1.48799E+3
  -2.05359E+3  -1.47604E+3
  -1.97136E+3  -1.49619E+3
  -1.90478E+3  -1.46404E+3
  -1.83092E+3  -1.39426E+3
  -1.73517E+3  -1.41151E+3
  -1.68909E+3  -1.36746E+3
  -1.60930E+3  -1.44132E+3
  -1.61701E+3  -1.36645E+3
  -1.48102E+3  -1.31680E+3
  -1.40782E+3  -1.31724E+3
  -1.38327E+3  -1.28694E+3
  -1.34108E+3  -1.33622E+3
  -1.28623E+3  -1.23991E+3
  -1.21630E+3  -1.23755E+3
  -1.22216E+3  -1.20786E+3
  -1.13606E+3  -1.23522E+3
  -1.13108E+3  -1.19427E+3
  -1.07047E+3  -1.18841E+3
  -9.94658E+2  -1.14507E+3
  -9.03361E+2  -1.18910E+3
  -8.86342E+2  -1.21361E+3
  -8.32939E+2  -1.11959E+3
  -8.33065E+2  -1.05838E+3
  -8.72238E+2  -1.13023E+3
  -8.11288E+2  -1.09885E+3
  -7.80406E+2  -1.16455E+3
  -6.50934E+2  -1.04118E+3
  -7.18128E+2  -1.07512E+3
  -6.23939E+2  -1.10270E+3
  -6.25020E+2  -1.02156E+3
  -5.52519E+2  -1.03836E+3
  -5.60300E+2  -1.06476E+3
  -5.16413E+2  -9.88884E+2
  -5.62679E+2  -1.04270E+3
  -4.79164E+2  -1.11560E+3
  -4.81230E+2  -1.01260E+3
  -4.00671E+2  -1.07655E+3
  -4.18333E+2  -1.07051E+3
  -4.20632E+2  -1.02023E+3
  -3.40662E+2  -1.04080E+3
  -3.54818E+2  -9.85282E+2
  -3.12693E+2  -1.05763E+3
  -3.11328E+2  -1.00963E+3
  -2.96901E+2  -9.70632E+2
  -2.45174E+2  -9.86672E+2
  -2.01232E+2  -1.03834E+3
  -1.83663E+2  -9.38956E+2
  -2.33517E+2  -9.47114E+2
  -1.69598E+2  -9.50134E+2
  -1.58611E+2  -9.55327E+2
  -1.48334E+2  -9.64356E+2
  -1.85198E+2  -9.58370E+2
  -1.52812E+2  -9.40652E+2
  -1.19649E+2  -9.14261E+2
  -3.81264E+1  -9.42241E+2
  -5.92597E+1  -9.46946E+2
  -5.95459E+1  -8.94376E+2
  -3.13946E+1  -9.66945E+2
  -8.32965E+1  -9.15912E+2
  -1.70074E+1  -8.37722E+2
  -5.28709E+1  -8.63908E+2
  -7.10876E+1  -9.56462E+2
   3.65934E+1  -9.06737E+2
   3.89926E+1  -8.80713E+2
  -2.58245E+1  -8.54283E+2
   5.61285E+1  -8.48541E+2
  -7.93218E+0  -9.02079E+2
   1.65495E+1  -8.93085E+2
   4.82462E+1  -8.33194E+2
  -1.18001E+1  -8.53273E+2
   1.06895E+2  -7.68129E+2
   2.66860E+0  -8.39772E+2
   3.08973E+1  -7.86546E+2
   4.94247E+1  -7.76061E+2
   4.23386E+1  -7.96320E+2
   1.08643E+2  -8.68750E+2
   1.20757E+2  -7.78189E+2
   6.29948E+1  -7.48106E+2
   5.94644E+1  -8.10612E+2
   1.03006E+2  -7.65953E+2
   1.26278E+2  -7.62132E+2
   8.58763E+1  -7.07787E+2
   1.98892E+2  -7.99589E+2
   1.84578E+2  -7.63729E+2
   1.28699E+2  -8.05943E+2
   1.50067E+2  -7.82733E+2
   1.42785E+2  -7.34751E+2
   2.01890E+2  -8.24171E+2
   1.84673E+2  -7.69855E+2
   1.30579E+2  -7.78822E+2
   2.51599E+2  -7.73948E+2
   2.32639E+2  -8.21683E+2
   2.27438E+2  -7.51958E+2
   2.33651E+2  -7.80948E+2
   2.76516E+2  -8.02714E+2
   2.92165E+2  -7.66407E+2
   3.18385E+2  -7.40496E+2
   4.11750E+2  -7.63525E+2
   3.09061E+2  -7.55888E+2
   3.32451E+2  -7.92975E+2
   3.88515E+2  -7.51818E+2
   3.65426E+2  -7.09731E+2
   3.47039E+2  -7.37918E+2
   3.98692E+2  -7.43471E+2
   3.72982E+2  -7.10571E+2
   4.40464E+2  -7.04951E+2
   3.95495E+2  -6.80450E+2
   3.70793E+2  -6.65901E+2
   4.47205E+2  -7.79474E+2
   4.80652E+2  -7.00329E+2
   4.66154E+2  -6.74299E+2
   5.01635E+2  -6.89552E+2
   5.09781E+2  -6.69264E+2
   5.26243E+2  -6.41533E+2
   4.62171E+2  -7.10182E+2
   5.08421E+2  -6.43615E+2
   5.23890E+2  -6.68531E+2
   4.88949E+2  -5.91850E+2
   5.20504E+2  -6.43033E+2
   5.26483E+2  -6.43148E+2
   6.00391E+2  -6.59556E+2
   5.74139E+2  -5.92154E+2
   5.63436E+2  -5.43494E+2
   5.52496E+2  -6.46252E+2
   5.77900E+2  -5.94374E+2
   6.01024E+2  -5.54989E+2
   5.46301E+2  -5.06567E+2
   5.39716E+2  -5.44101E+2
   5.50407E+2  -5.45833E+2
   6.28915E+2  -5.03776E+2
   5.51607E+2  -5.57900E+2
   5.82378E+2  -5.26847E+2
   5.74434E+2  -5.39766E+2
   6.48446E+2  -5.44505E+2
   5.57804E+2  -4.90211E+2
   6.43985E+2  -5.29574E+2
   6.29776E+2  -4.80205E+2
   6.12112E+2  -5.05102E+2
   6.42121E+2  -5.02240E+2
   6.49910E+2  -5.29943E+2
   6.81804E+2  -4.66494E+2
   7.44763E+2  -4.99762E+2
   7.02472E+2  -4.45174E+2
   6.07211E+2  -4.48739E+2
   6.09176E+2  -4.18657E+2
   6.88083E+2  -4.92312E+2
   7.23856E+2  -4.81198E+2
   6.96148E+2  -4.64710E+2
   7.47014E+2  -4.59800E+2
   7.19302E+2  -4.70615E+2
   6.97764E+2  -4.50254E+2
   6.89232E+2  -4.26795E+2
   7.20681E+2  -4.07413E+2
   6.67279E+2  -4.09911E+2
   7.41427E+2  -4.59745E+2
   6.83489E+2  -3.79615E+2
   7.02524E+2  -4.33449E+2
   7.21007E+2  -3.71984E+2
   7.80007E+2  -3.48388E+2
   7.50004E+2  -3.22981E+2
   7.90038E+2  -3.97432E+2
   7.60334E+2  -3.42120E+2
   7.47903E+2  -3.86400E+2
   7.40483E+2  -3.23802E+2
   6.73656E+2  -2.92759E+2
   7.40264E+2  -3.20637E+2
   6.90446E+2  -3.13545E+2
   7.79004E+2  -3.76205E+2
   7.31309E+2  -2.71976E+2
   7.17567E+2  -2.62471E+2
   7.29522E+2  -1.67423E+2
   7.16937E+2  -2.92160E+2
   7.56747E+2  -2.16388E+2
   8.12959E+2  -2.64606E+2
   7.94427E+2  -2.08136E+2
   7.81164E+2  -2.51918E+2
   7.13509E+2  -2.24234E+2
   7.11415E+2  -1.89982E+2
   8.06314E+2  -2.14315E+2
   8.14478E+2  -1.84342E+2
   7.97570E+2  -2.71670E+2
   8.19472E+2  -2.01467E+2
   7.95397E+2  -2.26350E+2
   7.96846E+2  -2.07421E+2
   8.29640E+2  -2.63603E+2
   7.87967E+2  -1.95465E+2
   7.93647E+2  -2.06756E+2
   7.77808E+2  -2.04952E+2
   8.02579E+2  -2.53225E+2
   8.31578E+2  -1.90550E+2
   8.16905E+2  -1.98865E+2
   7.96766E+2  -1.60240E+2
   8.27561E+2  -1.34082E+2
   7.78208E+2  -1.17154E+2
   7.70338E+2  -1.62227E+2
   8.63921E+2  -1.58713E+2
   7.91395E+2  -1.99062E+2
   8.11446E+2  -1.62967E+2
   8.43330E+2  -1.46466E+2
   8.54864E+2  -1.12430E+2
   7.93197E+2  -1.63800E+2
   8.40430E+2  -1.37016E+2
   8.85339E+2  -1.62259E+2
   7.95129E+2  -1.29111E+2
   8.07562E+2  -1.62350E+2
   8.28783E+2  -6.95251E+1
   8.27315E+2  -8.59389E+1
   8.39795E+2  -9.65037E+1
   7.93117E+2  -1.04087E+2
   8.35792E+2  -1.31952E+2
   8.73489E+2  -8.49140E+1
   8.29756E+2  -1.70817E+2
   8.31492E+2  -1.19516E+2
