 
 $NMID
 ID=''
 FMTDAT='(2E13.5)'
 TRAMP=   1.00000E+0
 VOLUME=   1.00000E+0
 $END
   1.69870E+2  -4.84108E+2
   1.40584E+3   5.77739E+1
  -1.94569E+3  -2.25488E+3
  -8.28156E+2   2.11902E+2
  -1.15042E+3   1.67531E+3
   1.18781E+3  -2.04182E+2
   1.35569E+3  -7.49803E+2
  -5.94979E+2   9.61549E+2
  -8.35350E+2  -1.91549E+3
  -2.27962E+2   1.33728E+3
  -5.16304E+2  -2.26313E+3
   1.02908E+3  -3.29005E+3
   3.60960E+3   2.30617E+2
  -1.00256E+3   2.90700E+3
  -3.56121E+3   3.59094E+2
  -6.94914E+2  -2.70954E+3
   1.04014E+3  -5.10234E+3
   2.54409E+3  -1.15155E+3
  -6.31266E+2   2.30224E+3
  -6.40371E+2   1.26918E+3
   1.27476E+1  -5.18959E+3
   1.45299E+3   9.09246E+2
  -1.59553E+3   6.67308E+2
  -3.85636E+3   4.97832E+2
  -1.38231E+3  -2.29868E+3
   2.55872E+3  -7.49157E+2
   2.21421E+3   6.13071E+2
  -3.24902E+2   2.41222E+3
  -3.49489E+3   1.98319E+3
  -2.18440E+3  -2.85060E+3
   4.22500E+3  -2.30294E+2
   2.13517E+3   3.82961E+3
  -1.20650E+3   3.57915E+3
  -1.55713E+3  -8.56333E+2
   1.79106E+3  -1.03831E+3
  -9.26675E+2   1.87815E+3
  -2.15168E+2  -1.52304E+2
   8.50887E+2   5.54173E+2
   1.18902E+3   8.23070E+2
  -4.57210E+2   9.96396E+2
   3.24905E+3   1.34103E+3
   1.82521E+3   3.75393E+3
  -2.20595E+3   1.34760E+3
  -2.90728E+3  -3.22034E+3
   2.01513E+3  -1.07747E+3
   1.62152E+3  -2.52109E+3
   1.61264E+3  -2.05512E+3
   2.46799E+3  -2.49631E+2
   1.68881E+3   4.25287E+2
  -8.40798E+2   2.14833E+3
  -8.71705E+2   3.60939E+3
  -3.42083E+3   1.08319E+3
  -2.28674E+3  -7.63013E+2
   2.19294E+3  -1.00976E+3
  -1.75494E+2  -2.78421E+3
   1.42381E+3   2.10778E+2
   6.25044E+2   1.80060E+2
  -5.87447E+2   2.75275E+3
  -1.12221E+3   1.51316E+3
  -3.21377E+2   1.81609E+2
  -2.75212E+3   8.68792E+2
  -2.04673E+3  -1.10837E+3
   1.78727E+3  -1.33599E+3
  -4.63405E+2   1.15169E+3
   7.39247E+2   4.84075E+2
   1.53976E+3  -1.78846E+2
  -1.20128E+3  -5.59185E+1
  -5.85636E+2   2.44575E+3
  -2.41877E+3  -1.11364E+3
  -8.97637E+2  -2.57499E+3
   1.20469E+2  -3.10448E+3
   2.25454E+2   2.33476E+2
  -2.66236E+2  -8.36740E+2
  -1.34512E+3  -3.90371E+2
  -1.33348E+2   4.18764E+2
  -2.54525E+3  -5.09018E+1
  -1.13865E+3   1.25578E+3
   7.22818E+1  -2.00919E+3
  -3.80601E+2  -5.18198E+2
   1.57319E+3  -1.43208E+3
   7.51422E+2  -2.31286E+2
   1.11288E+3  -9.19196E+2
   1.21569E+3  -7.81312E+2
  -1.30406E+3  -6.02754E+2
   1.22679E+3   4.85629E+2
  -1.69561E+3  -2.36640E+2
  -1.70386E+3  -2.20010E+3
  -8.72995E+2  -8.62668E+2
   1.29924E+3  -9.58340E+2
  -7.38709E+2   3.63634E+2
   8.18988E+1   1.26767E+3
  -2.24143E+3   2.25955E+1
   1.99672E+3  -2.41386E+3
   2.23309E+2   9.72669E+2
  -3.85933E+2   8.82391E+2
  -1.91113E+3   5.20816E+0
  -2.40129E+2  -1.53941E+3
  -6.07249E+2  -1.97938E+2
   1.04274E+2   4.81314E+2
  -6.38538E+2   8.38952E+2
  -1.08486E+2   1.47181E+3
   1.45250E+3  -1.06488E+3
   6.14750E+2  -6.23885E+1
   2.47896E+3   1.56901E+3
   1.24279E+3   6.86502E+2
  -1.52389E+3  -6.15595E+2
   3.18891E+2  -1.11234E+3
  -2.77285E+2  -7.16894E+2
  -4.15912E+2  -5.91856E+2
   1.77015E+2   3.79361E+2
  -1.09779E+3   9.06804E+2
   1.27862E+3   1.80490E+3
   1.34943E+3  -3.43847E+2
   4.44912E+1   1.13048E+3
  -6.69063E+1  -5.34110E+2
   9.82866E+2   7.06083E+2
   3.21215E+2  -5.37455E+2
  -2.73406E+2   1.37693E+3
  -1.95570E+2  -1.07431E+3
   5.03045E+2   1.52685E+3
   1.49325E+3   6.92551E+2
  -2.62880E+2   2.36464E+3
   2.33691E+3   2.53927E+2
   7.90416E+2  -1.00116E+2
   8.07889E+2  -3.57232E+2
   1.44302E+3   1.95705E+3
   1.06359E+3   1.90338E+3
   1.38477E+3   5.47734E+2
  -7.27517E+2   1.13403E+3
  -1.70060E+3   1.32848E+2
   1.09537E+3   1.76625E+3
  -8.73862E+2   7.75434E+2
  -9.70987E+2   9.06003E+2
   1.77846E+3  -3.23794E+3
  -2.60547E+2  -6.14243E+2
  -6.33051E+2  -4.33720E+2
   1.95194E+3   8.50228E+2
  -8.36162E+2   7.19044E+2
   1.76042E+2   2.38641E+2
   9.01276E+2  -8.33014E+2
   1.05274E+3  -5.18327E+2
   1.95064E+2   7.16308E+2
  -6.50245E+2  -1.52313E+3
   3.51257E+2   1.90767E+2
  -8.45830E+2   9.03432E+1
  -4.60345E+2  -1.27199E+3
   3.63070E+1  -2.55911E+2
   1.54413E+3   2.78016E+3
   2.01950E+2   1.03074E+2
  -1.73052E+3   8.07055E+1
   6.93452E+2  -3.20114E+2
  -1.91487E+3  -1.44055E+2
   1.92453E+3   3.19838E+2
  -1.22499E+3  -1.68858E+3
  -1.15338E+3  -1.23486E+3
  -2.53473E+3  -1.65280E+3
  -3.76544E+2  -2.90378E+2
  -2.77095E+2   1.57392E+3
   2.01040E+3   1.33577E+3
  -1.29935E+3   1.06368E+3
  -1.64709E+3  -1.09437E+3
  -1.23718E+3  -1.39354E+3
  -9.53952E+2  -1.53925E+3
  -8.36965E+2  -8.60798E+2
  -1.20586E+3   1.26221E+2
   1.78071E+3  -5.32834E+2
   2.64908E+2  -3.28403E+2
  -6.96418E+1  -2.10916E+3
  -4.62604E+2  -1.84928E+2
  -1.33866E+3  -2.42264E+2
  -8.35498E+2  -3.25557E+2
   1.28699E+3   1.66960E+3
   2.22812E+2   4.82241E+2
  -7.25931E+2   2.78338E+2
   1.15901E+2   2.44849E+3
   3.49128E+2  -8.31968E+2
   1.54155E+2  -6.91103E+2
   2.35749E+2  -1.16226E+3
  -9.82182E+2   3.12033E+2
  -2.80652E+3   1.25532E+2
  -3.30644E+2  -2.19421E+2
  -3.41828E+2   3.52948E+2
   2.59133E+2  -1.26776E+3
   4.06395E+2   1.27885E+3
   1.99861E+2   4.78546E+2
   1.09492E+3   1.16207E+3
   1.84028E+3   4.92549E+2
  -2.54903E+2  -3.30785E+2
  -1.59570E+3   1.15761E+3
   9.29049E+2   4.21672E+2
   9.20530E+2   1.66528E+2
   2.06918E+3  -4.68885E+2
   4.85393E+2  -1.89892E+3
  -4.94073E+2   1.10652E+3
  -1.11899E+2   7.44407E+2
  -9.80004E+1  -6.96977E+2
   2.24691E+3   3.91594E+2
   7.18463E+2  -5.45063E+2
  -1.54947E+3  -5.55956E+2
  -1.40436E+3   1.14787E+2
   2.43887E+3  -5.05763E+2
   1.37408E+3   6.85629E+2
   1.22327E+3  -2.89170E+2
   3.97956E+2  -1.10167E+3
  -4.41623E+1  -1.59882E+2
   6.64575E+1   3.36464E+2
  -1.11899E+3  -1.03557E+3
  -7.43000E+1  -2.97380E+2
  -4.33190E+2   5.84359E+2
   1.50110E+3   3.06251E+2
   1.21205E+3   1.97079E+3
  -2.45498E+1  -8.54739E+2
   4.91702E+2   4.10490E+2
   8.66435E+2  -1.49066E+3
  -3.66401E+2   5.74995E+2
  -1.00369E+3   1.84002E+3
  -2.18645E+2  -2.13616E+3
   1.82060E+3   4.05549E+2
   2.68165E+3   6.61508E+2
   3.30563E+2  -2.47204E+2
   8.85487E+2  -1.75127E+3
   1.33618E+3  -1.24413E+3
  -1.55002E+2   1.20505E+2
  -1.24328E+3  -2.07843E+3
  -1.07365E+2   1.94533E+2
  -3.32718E+1  -7.19714E+2
   7.84148E+2  -9.87243E+2
   8.37322E+2   9.86915E+2
   7.69367E+1  -6.63813E+2
   8.39812E+2  -3.03181E+3
  -3.41714E+2   6.26076E+1
  -3.05533E+2  -8.22207E+2
   3.72006E+2  -3.11295E+1
   1.55391E+3  -1.02932E+3
  -6.29647E+2  -1.71754E+3
  -1.54144E+3  -6.06107E+2
   9.73320E+2  -8.48875E+2
   7.71182E+1  -7.71197E+2
   5.66454E+2   6.11423E+2
   8.16016E+2  -1.51531E+3
  -4.72519E+2  -7.69001E+2
   1.95110E+3  -6.14972E+2
   5.05667E+2  -1.75181E+2
   1.04119E+3  -2.61300E+3
   5.52049E+2  -2.09835E+3
  -1.06466E+3  -1.27259E+3
  -7.28293E+2   1.30055E+3
   3.39843E+2  -1.25141E+3
  -2.65263E+2   3.21057E+2
   2.03824E+2  -9.75781E+2
   1.58186E+3  -1.33045E+3
   1.15087E+2   3.20624E+1
   3.26797E+2   3.90751E+2
   1.37156E+3   6.70128E+2
  -1.63930E+3  -5.85292E+2
   4.83702E+2   1.77834E+2
  -6.63746E+2  -1.41623E+3
   3.95975E-1  -1.91339E+2
  -6.85404E+2  -2.79080E+3
   2.56581E+2  -2.24451E+3
  -1.31533E+2  -1.28860E+3
  -1.03189E+3  -2.02495E+1
   9.45372E+1  -1.61863E+2
   3.21652E+1   3.03043E+2
  -1.33475E+3  -5.37761E+2
  -6.97612E+2  -9.66188E+2
  -1.02733E+3  -7.61358E+2
  -1.19838E+3  -1.20299E+3
   7.89402E+2   1.52507E+3
  -2.07942E+3  -2.98650E+2
   1.41769E+3   2.16193E+3
  -1.03796E+3  -1.57165E+2
   1.71098E+3  -3.24458E+3
  -3.05121E+2  -1.35848E+3
  -9.70691E+2  -1.51046E+3
   5.69232E+2  -7.68782E+2
   3.12736E+2   1.04298E+2
  -3.91489E+1  -2.32659E+2
  -1.35528E+3   1.17801E+3
  -1.78968E+3  -2.50719E+3
  -1.01029E+3   1.92027E+3
   7.77522E+2  -1.13791E+3
  -4.91083E+2   3.36970E+1
   3.46562E+1   5.90561E+2
  -1.04640E+3   6.27962E+2
  -7.67320E+2   8.06400E+2
  -1.33586E+3  -4.39925E+2
  -1.72007E+3  -4.59916E+2
   2.58631E+2  -9.44818E+2
   9.04529E+2   1.49819E+1
   4.87869E+2   7.51646E+2
  -3.07961E+2   8.53745E+2
  -1.39546E+3  -8.24341E+1
  -3.02811E+2   8.41445E+2
   1.03570E+3   1.14294E+2
  -1.71273E+2  -2.01140E+3
  -2.42325E+3   1.50756E+3
  -1.63623E+3   1.23508E+3
   4.57102E+2   4.07609E+2
  -1.07569E+2   1.22794E+3
   6.88051E+1   1.14786E+3
  -1.35682E+3  -5.51179E+2
   1.22052E+3   1.42293E+3
   8.85489E+2  -1.22934E+1
  -6.88541E+2   9.94578E+2
   9.29550E+2   1.51674E+3
   3.51402E+2  -2.68845E+3
   2.45322E+2  -4.71431E+2
  -7.69936E+2  -1.58137E+3
  -4.27865E+2   1.60994E+3
   1.89816E+3   8.81505E+2
  -5.44260E+2  -1.84745E+3
  -1.82934E+3   1.59196E+3
  -1.82496E+2   1.86512E+2
  -5.56174E+2  -1.51205E+3
  -8.87348E+2  -6.38024E+2
  -1.05206E+3  -5.36485E+2
   3.13146E+2  -2.34165E+1
   1.30376E+3  -1.01125E+3
  -1.99821E+3  -3.53592E+2
   2.84427E+2   1.40925E+3
   7.52455E+1  -2.42091E+2
   6.91914E+2  -1.53281E+2
  -1.10620E+3  -3.30105E+2
   9.82108E+1   1.08865E+3
  -3.61702E+2   6.76155E+2
  -4.10304E+2  -3.13671E+2
   7.64315E+2  -9.00180E+2
  -6.00799E+2   1.79811E+2
   1.62954E+3   4.69377E+2
   1.16790E+3  -2.16869E+2
   3.33257E+2  -1.23488E+3
  -2.28790E+2   7.76693E+2
   2.42045E+2   4.05909E+1
   1.44938E+2  -1.96704E+3
  -2.41784E+3   1.16403E+2
  -9.89414E+2  -2.96302E+1
   1.83342E+3   4.77236E+2
  -3.74229E+2  -2.11390E+2
   4.08072E+2  -8.03816E+2
   6.91456E+2  -1.16400E+3
   8.06749E+2  -1.50098E+2
  -1.02543E+3   1.15893E+3
   1.36300E+3  -1.14102E+3
  -2.35413E+2  -1.06802E+3
   1.96036E+2  -2.89674E+2
  -1.40069E+3   1.91413E+2
   4.60566E+2   9.79153E+2
  -4.79815E+2   2.53385E+2
  -1.01647E+2  -7.82789E+2
  -1.30544E+3   2.86599E+2
   1.64250E+2   1.42872E+3
   1.52514E+3  -1.60512E+3
  -9.39707E+2   9.87008E+2
  -5.94679E+2  -1.53949E+3
   3.27227E+2  -6.42135E+2
   7.89849E+2   1.91026E+3
   4.58963E+2   8.49846E+2
  -2.33087E+3   1.10960E+3
  -7.56844E+1   3.21626E+2
   2.06168E+3  -3.32153E+2
  -9.75164E+2  -1.01418E+3
   1.28816E+3  -1.46625E+2
  -8.59073E+2  -7.79816E+2
   2.90626E+2  -3.51908E+2
   7.23777E+1   1.42059E+3
   1.04696E+3   3.63891E+2
