 LCModel (Version 6.3-1N) Copyright: S.W. Provencher.          Ref.: Magn. Reson. Med. 30:672-679 (1993).                
 Slice_N1@19_18  02-Jun-2023 14:36:54
 27 lines in following concentration table = NCONC+1
    Conc.  %SD /Cr+PCr  Metabolite                                         
 2.64E-06  13% 3.3E-04 Mac                                                 
 3.08E-02  19%   3.896 Cr                                                  
 3.24E-02  17%   4.104 PCr                                                 
 7.19E-02  11%   9.100 Ins                                                 
 8.85E-02   7%  11.201 NAA                                                 
 5.80E-02  11%   7.337 Tau                                                 
 5.90E-03  31%   0.746 PCho                                                
 4.05E-03  47%   0.513 GPC                                                 
 7.41E-02  12%   9.380 Glu                                                 
 2.46E-02  26%   3.117 Gln                                                 
    0.000 999%   0.000 Ala                                                 
 4.17E-02  28%   5.278 Asc                                                 
 9.49E-03  77%   1.202 Asp                                                 
 9.55E-03  40%   1.209 GABA                                                
 9.84E-03  50%   1.245 Glc                                                 
 8.25E-03  41%   1.044 GSH                                                 
 1.49E-03 415%   0.188 Lac                                                 
 1.16E-02  34%   1.474 NAAG                                                
    0.000 999%   0.000 PE                                                  
 9.95E-03  17%   1.260 GPC+PCho                                            
    0.100   7%  12.675 NAA+NAAG                                            
 9.87E-02  11%  12.497 Glu+Gln                                             
 6.32E-02   9%   8.000 Cr+PCr                                              
    0.100   7%  12.675 NAA+NAAG                                            
 6.32E-02   9%   8.000 Cr+PCr                                              
 9.87E-02  11%  12.497 Glu+Gln                                             
   6 lines in following misc. output table
  FWHM = 0.017 ppm    S/N =   7                                            
  Data shift = 0.017 ppm                                                   
  Ph: -31 deg     -13.9 deg/ppm                                            
  alphaB,S = 1.8E-01,   7.3E+00                                            
   18 spline knots.   Ns = 5(1)                                            
  ( 4) 3 infls.   ( 2) 1 extrs.                                            
  654 points on ppm-axis = NY
      4.000000     3.994181     3.988363     3.982544     3.976726     3.970907     3.965088     3.959270     3.953451     3.947633
      3.941814     3.935995     3.930177     3.924358     3.918540     3.912721     3.906902     3.901084     3.895265     3.889446
      3.883628     3.877809     3.871991     3.866172     3.860353     3.854535     3.848716     3.842898     3.837079     3.831260
      3.825442     3.819623     3.813805     3.807986     3.802167     3.796349     3.790530     3.784712     3.778893     3.773074
      3.767256     3.761437     3.755619     3.749800     3.743981     3.738163     3.732344     3.726526     3.720707     3.714888
      3.709070     3.703251     3.697433     3.691614     3.685795     3.679977     3.674158     3.668339     3.662521     3.656702
      3.650884     3.645065     3.639246     3.633428     3.627609     3.621791     3.615972     3.610153     3.604335     3.598516
      3.592698     3.586879     3.581060     3.575242     3.569423     3.563605     3.557786     3.551967     3.546149     3.540330
      3.534512     3.528693     3.522874     3.517056     3.511237     3.505419     3.499600     3.493781     3.487963     3.482144
      3.476326     3.470507     3.464688     3.458870     3.453051     3.447232     3.441414     3.435595     3.429777     3.423958
      3.418139     3.412321     3.406502     3.400684     3.394865     3.389046     3.383228     3.377409     3.371591     3.365772
      3.359953     3.354135     3.348316     3.342498     3.336679     3.330860     3.325042     3.319223     3.313405     3.307586
      3.301767     3.295949     3.290130     3.284312     3.278493     3.272674     3.266856     3.261037     3.255219     3.249400
      3.243581     3.237763     3.231944     3.226125     3.220307     3.214488     3.208670     3.202851     3.197032     3.191214
      3.185395     3.179577     3.173758     3.167939     3.162121     3.156302     3.150484     3.144665     3.138846     3.133028
      3.127209     3.121391     3.115572     3.109753     3.103935     3.098116     3.092298     3.086479     3.080660     3.074842
      3.069023     3.063205     3.057386     3.051567     3.045749     3.039930     3.034111     3.028293     3.022474     3.016656
      3.010837     3.005018     2.999200     2.993381     2.987563     2.981744     2.975925     2.970107     2.964288     2.958470
      2.952651     2.946832     2.941014     2.935195     2.929377     2.923558     2.917739     2.911921     2.906102     2.900284
      2.894465     2.888646     2.882828     2.877009     2.871191     2.865372     2.859553     2.853735     2.847916     2.842098
      2.836279     2.830460     2.824642     2.818823     2.813004     2.807186     2.801367     2.795549     2.789730     2.783911
      2.778093     2.772274     2.766456     2.760637     2.754818     2.749000     2.743181     2.737363     2.731544     2.725725
      2.719907     2.714088     2.708270     2.702451     2.696632     2.690814     2.684995     2.679177     2.673358     2.667539
      2.661721     2.655902     2.650084     2.644265     2.638446     2.632628     2.626809     2.620991     2.615172     2.609353
      2.603535     2.597716     2.591897     2.586079     2.580260     2.574442     2.568623     2.562804     2.556986     2.551167
      2.545349     2.539530     2.533711     2.527893     2.522074     2.516256     2.510437     2.504618     2.498800     2.492981
      2.487163     2.481344     2.475525     2.469707     2.463888     2.458070     2.452251     2.446432     2.440614     2.434795
      2.428977     2.423158     2.417339     2.411521     2.405702     2.399884     2.394065     2.388246     2.382428     2.376609
      2.370790     2.364972     2.359153     2.353335     2.347516     2.341697     2.335879     2.330060     2.324242     2.318423
      2.312604     2.306786     2.300967     2.295149     2.289330     2.283511     2.277693     2.271874     2.266056     2.260237
      2.254418     2.248600     2.242781     2.236963     2.231144     2.225325     2.219507     2.213688     2.207870     2.202051
      2.196232     2.190414     2.184595     2.178777     2.172958     2.167139     2.161321     2.155502     2.149683     2.143865
      2.138046     2.132228     2.126409     2.120590     2.114772     2.108953     2.103135     2.097316     2.091497     2.085679
      2.079860     2.074042     2.068223     2.062404     2.056586     2.050767     2.044949     2.039130     2.033311     2.027493
      2.021674     2.015856     2.010037     2.004218     1.998400     1.992581     1.986763     1.980944     1.975126     1.969307
      1.963489     1.957670     1.951852     1.946033     1.940215     1.934397     1.928578     1.922760     1.916941     1.911123
      1.905304     1.899486     1.893667     1.887849     1.882030     1.876212     1.870393     1.864575     1.858756     1.852938
      1.847119     1.841301     1.835482     1.829664     1.823845     1.818027     1.812208     1.806390     1.800571     1.794753
      1.788934     1.783116     1.777297     1.771479     1.765660     1.759842     1.754023     1.748205     1.742386     1.736568
      1.730749     1.724931     1.719113     1.713294     1.707476     1.701657     1.695839     1.690020     1.684202     1.678383
      1.672565     1.666746     1.660928     1.655109     1.649291     1.643472     1.637654     1.631835     1.626017     1.620198
      1.614380     1.608561     1.602743     1.596924     1.591106     1.585287     1.579469     1.573650     1.567832     1.562013
      1.556195     1.550376     1.544558     1.538739     1.532921     1.527102     1.521284     1.515465     1.509647     1.503829
      1.498010     1.492192     1.486373     1.480555     1.474736     1.468918     1.463099     1.457281     1.451462     1.445644
      1.439825     1.434007     1.428188     1.422370     1.416551     1.410733     1.404914     1.399096     1.393277     1.387459
      1.381640     1.375822     1.370003     1.364185     1.358366     1.352548     1.346729     1.340911     1.335092     1.329274
      1.323455     1.317637     1.311818     1.306000     1.300182     1.294363     1.288545     1.282726     1.276908     1.271089
      1.265271     1.259452     1.253634     1.247815     1.241997     1.236178     1.230360     1.224541     1.218723     1.212904
      1.207086     1.201267     1.195449     1.189630     1.183812     1.177993     1.172175     1.166356     1.160538     1.154719
      1.148901     1.143082     1.137264     1.131445     1.125627     1.119808     1.113990     1.108171     1.102353     1.096534
      1.090716     1.084898     1.079079     1.073261     1.067442     1.061624     1.055805     1.049987     1.044168     1.038350
      1.032531     1.026713     1.020894     1.015076     1.009257     1.003439     0.997620     0.991802     0.985983     0.980165
      0.974346     0.968528     0.962709     0.956891     0.951072     0.945254     0.939435     0.933617     0.927798     0.921980
      0.916161     0.910343     0.904524     0.898706     0.892887     0.887069     0.881251     0.875432     0.869614     0.863795
      0.857977     0.852158     0.846340     0.840521     0.834703     0.828884     0.823066     0.817247     0.811429     0.805610
      0.799792     0.793973     0.788155     0.782336     0.776518     0.770699     0.764881     0.759062     0.753244     0.747425
      0.741607     0.735788     0.729970     0.724151     0.718333     0.712514     0.706696     0.700877     0.695059     0.689240
      0.683422     0.677603     0.671785     0.665967     0.660148     0.654330     0.648511     0.642693     0.636874     0.631056
      0.625237     0.619419     0.613600     0.607782     0.601963     0.596145     0.590326     0.584508     0.578689     0.572871
      0.567052     0.561234     0.555415     0.549597     0.543778     0.537960     0.532141     0.526323     0.520504     0.514686
      0.508867     0.503049     0.497230     0.491412     0.485593     0.479775     0.473956     0.468138     0.462319     0.456501
      0.450682     0.444864     0.439045     0.433227     0.427408     0.421590     0.415771     0.409953     0.404134     0.398316
      0.392497     0.386679     0.380860     0.375042     0.369223     0.363405     0.357586     0.351767     0.345949     0.340130
      0.334312     0.328493     0.322675     0.316856     0.311038     0.305219     0.299401     0.293582     0.287764     0.281945
      0.276127     0.270308     0.264490     0.258671     0.252853     0.247034     0.241216     0.235397     0.229579     0.223760
      0.217942     0.212123     0.206305     0.200486
 NY phased data points follow
  -1.62972E-01 -6.34307E-02 -1.49544E-01  6.43990E-03 -2.59967E-01 -4.15884E-02  6.97522E-02  2.44082E-02  1.00376E-01 -1.26717E-01
   2.04716E-01  5.17218E-01  5.68169E-01  1.04978E-01 -1.34775E-01  5.54709E-01  4.55590E-01  2.12723E-01  3.84965E-02 -9.06465E-02
   3.28054E-01 -1.29474E-01  4.84415E-02 -1.45558E-01 -2.57482E-01  1.66729E-02 -6.95433E-02  1.78917E-01 -1.76636E-01  2.18363E-01
   1.26373E-01 -2.81881E-02 -1.00842E-01 -5.44485E-01 -5.29546E-01 -3.60183E-01 -4.93033E-01 -6.37522E-01 -2.02350E-01 -1.54776E-01
  -5.26942E-02  9.99600E-02  2.27361E-02  8.77789E-02  3.70485E-01  2.60402E-01  5.56130E-01  4.70764E-01  3.48616E-01  4.88820E-01
   1.60615E-01  1.90365E-02 -2.27603E-01  1.61315E-01 -8.61566E-02 -2.94053E-01 -6.06356E-03  2.18021E-02 -2.47883E-02 -1.16620E-01
  -4.51963E-02 -1.87530E-01 -5.43765E-01 -2.11910E-01 -1.15562E-01 -3.10630E-01  5.24844E-01  3.47389E-01  8.19803E-02  5.73246E-01
   4.92590E-01 -1.83383E-01  3.57497E-02  3.32258E-01 -3.06347E-02 -2.05624E-01 -3.34448E-01 -3.24931E-01 -2.53589E-01 -5.78122E-01
  -6.17928E-01  2.17323E-01 -6.91411E-02  2.28698E-01  3.11844E-01  3.14120E-01  4.94293E-01  3.43898E-01  3.01700E-01  1.24557E-01
   2.34110E-01 -2.15195E-01  3.15817E-01 -1.56346E-02  1.93031E-01  5.54151E-02  8.03474E-02  2.44054E-01 -5.66338E-01 -7.14287E-02
  -5.84016E-01 -2.26350E-01  1.56432E-01  1.61334E-01  3.85750E-01  1.47188E-01 -8.09005E-03  4.69105E-01  4.65095E-01  2.41812E-01
   1.97091E-01 -4.17088E-02  4.66619E-01  4.34778E-01  4.69077E-01  2.67299E-01  3.90026E-01  3.53582E-02  1.65571E-01  3.95080E-01
  -1.08653E-01  4.25712E-02 -4.17957E-01 -1.53098E-01 -1.99801E-01 -5.84169E-01 -1.06501E-01 -4.96606E-01 -8.59676E-01 -7.92471E-01
  -1.00077E+00 -4.03352E-01 -6.46551E-01 -4.16618E-01 -2.01703E-01 -5.56225E-01 -6.17690E-01 -8.74377E-01 -1.95306E-01 -2.19263E-01
  -1.10267E-01 -2.01676E-01  1.58262E-01  1.96792E-01 -2.43595E-01  1.41594E-01  3.28550E-01 -1.11314E-01 -3.37440E-01  2.41488E-01
   1.76034E-01  2.62245E-01 -2.33939E-02  3.59133E-01  3.14763E-01 -2.58481E-02  1.59761E-01  1.52871E-01  5.54988E-01  3.52874E-01
   1.19935E-01  2.70713E-01  5.78802E-01  5.41105E-01  7.99439E-01  1.04568E+00  9.72361E-01 -1.07604E-01 -8.75021E-01 -1.06963E+00
  -9.35490E-01 -6.93489E-01 -8.12532E-01 -3.78933E-01 -6.60766E-01 -2.68341E-01 -2.75727E-01 -4.24499E-01 -5.72423E-01 -7.12881E-01
  -7.82397E-02 -2.42106E-02 -2.69326E-01 -4.52807E-01 -4.07667E-01 -4.44201E-01 -2.19726E-01 -4.75557E-01 -2.35583E-01 -1.44470E-01
  -2.61843E-01 -3.62305E-02 -2.23240E-01 -1.55747E-01 -1.09727E-02 -1.54038E-02 -2.24551E-01  5.92965E-02 -3.94023E-02 -2.90687E-01
  -2.68586E-01 -3.92076E-02  3.61009E-02  4.75768E-03 -7.94316E-03 -2.26738E-01  4.04854E-02 -9.62047E-02 -3.08368E-01 -8.77087E-02
   2.62925E-01  3.46243E-02 -1.17081E-01  1.31239E-01  8.07130E-02  5.18265E-02 -6.62982E-02 -3.35563E-02  1.29677E-02  2.84539E-01
   1.24132E-01 -5.47746E-02  3.42313E-01 -2.44182E-02  7.54671E-02  5.98987E-01  6.92389E-01  4.12730E-01  2.70211E-01  4.68174E-01
   3.68967E-01  6.18126E-01  9.55260E-03  1.06437E-01  3.80102E-01 -2.38373E-01 -8.84923E-02 -3.26825E-01 -5.84303E-02  1.11000E-01
   7.76070E-02 -1.32329E-01  1.31893E-01  3.29602E-01 -1.80731E-01  1.69697E-01  6.07875E-02 -4.32372E-02 -7.19298E-02  2.04131E-01
   4.53885E-02 -7.60334E-02  1.25046E-01 -2.32892E-01 -1.59119E-02 -4.75957E-02  5.48313E-02  1.32666E-01  6.79645E-02  2.56419E-01
   2.08470E-01  1.02080E-01  3.07692E-01  1.07149E-01  1.71200E-01  5.58350E-01  5.13512E-01  2.68684E-01 -1.48376E-01  2.45540E-01
   3.26197E-01  3.34898E-01  6.37282E-02  6.68082E-03  2.10240E-01 -1.67072E-02  4.55329E-02 -6.65097E-02 -1.80534E-02 -3.98071E-01
  -6.89413E-02 -1.98534E-01 -4.27209E-01 -1.15715E-01  1.04624E-02  5.81673E-01  5.65708E-01  8.34389E-01  7.78969E-01  1.64762E-01
  -9.68182E-03  4.00321E-01  1.62703E-01 -9.67133E-03  3.71000E-01 -9.99709E-02 -1.84431E-01  4.13391E-01  3.24443E-01  1.51615E-01
   3.16438E-01  3.20752E-01  3.94618E-01  2.05163E-01  5.22957E-01  2.48657E-01  1.94601E-01  3.59301E-01  2.07302E-01  6.15215E-01
   3.04201E-01  1.19164E-01  2.97226E-01  3.55219E-01  6.32992E-02  2.19783E-01 -2.73899E-01 -2.79083E-01  1.23300E-01 -2.40429E-01
  -1.34058E-01 -2.89101E-01 -3.89219E-01 -7.03072E-01 -3.05538E-01 -3.37929E-01 -3.98122E-01  7.62176E-02  2.43795E-01  3.71645E-01
   6.92029E-02  2.48065E-02 -1.46408E-01 -8.89204E-02 -2.82321E-01 -6.10348E-01 -3.91134E-01 -4.72712E-01 -3.43077E-01 -3.89751E-01
  -5.70141E-01 -6.96796E-01 -2.92118E+00 -2.71027E+00 -4.89329E-01 -1.49437E-01  1.08932E-01 -1.10675E-01  4.34331E-01 -4.21309E-03
  -1.01521E-01  2.77115E-01 -1.37883E-01  1.90831E-01 -8.08539E-02 -3.58125E-02  5.99475E-02  2.67724E-02 -5.31800E-02  1.26889E-03
   1.93510E-01  2.48178E-02  2.27948E-01  2.75078E-01 -2.22123E-01 -2.65134E-01 -2.16399E-01  2.53892E-02  4.05571E-01  2.40199E-01
   1.38536E-01 -1.02813E-01 -9.52658E-02  1.59493E-01  1.08659E-01  3.87329E-02  1.94062E-01 -7.83871E-02  9.72176E-02  3.74040E-01
   1.09891E-01  1.31554E-02 -1.47696E-01  8.11900E-02  1.27859E-01  1.82091E-01  2.24150E-01  1.11631E-01  7.38481E-02  9.22519E-02
   1.95163E-01  3.40338E-01  3.74987E-01  3.00680E-01  4.30915E-01  4.08989E-01  1.45141E-01  2.92494E-01  1.51293E-01 -1.84194E-01
   2.01021E-01 -1.99151E-01 -6.31558E-02 -2.92243E-01 -1.93602E-01  5.32501E-01 -2.06004E-01 -1.48636E-01 -1.52660E-01 -2.30777E-02
  -8.11321E-02 -1.23057E-02  2.12202E-01 -2.42810E-01 -1.08455E-01 -3.61007E-02  9.35210E-03  9.58669E-02  1.01608E-01 -2.25186E-01
  -1.35356E-01  2.54290E-01 -1.43856E-01 -1.05449E-01  8.39862E-03 -3.21833E-01  8.02300E-02 -7.84125E-02 -1.69472E-01  1.88257E-01
  -1.51118E-01 -1.02974E-01 -1.05308E-02 -8.65027E-02  8.09590E-02  1.12488E-01  3.27900E-02  1.29864E-01 -2.39236E-02  7.32274E-02
  -8.85452E-02 -4.78245E-02  3.02007E-01  1.46674E-01  7.99351E-02  1.44429E-01  3.03666E-01 -1.37426E-01  3.50123E-01  3.09609E-01
  -1.24626E-01  4.69155E-01  2.55129E-01 -4.44925E-02 -1.24232E-01 -2.14476E-01 -1.51537E-01  4.44342E-02 -2.93528E-01 -2.84655E-02
   3.14301E-01  6.63500E-02  2.13878E-01  5.13288E-02 -1.46512E-01 -1.14789E-01 -2.79179E-01 -2.58841E-01  2.87868E-02 -7.76454E-02
   9.73783E-02 -2.18962E-01 -3.22876E-01  2.23899E-01 -1.11975E-01 -4.02894E-01 -1.42570E-01 -9.28782E-02 -3.28738E-01  4.55523E-03
   2.57897E-02 -2.35811E-02  4.15011E-02  1.14103E-01  2.94168E-01  5.71022E-02  2.35068E-01  4.67838E-02  3.03473E-04  1.26004E-01
   9.28121E-02  3.18105E-01 -1.18625E-01 -9.62047E-02  1.35951E-01  1.19001E-01  7.12152E-02 -8.95527E-02  2.37945E-01  1.49151E-01
   8.46886E-02  1.13249E-01 -1.77481E-02  3.94726E-02  4.86256E-02  4.07878E-01  2.66177E-01 -3.90901E-02  1.08863E-01  1.82756E-01
   1.89210E-01  1.53469E-01  3.19461E-02 -1.14449E-01  1.77211E-01  9.25382E-03 -3.28933E-01 -5.32775E-02 -1.71457E-02 -1.59371E-01
  -2.40161E-01 -8.73355E-02 -8.75133E-02 -1.18922E-01 -3.55983E-01 -6.03506E-01 -4.05855E-01 -4.93771E-01 -3.35782E-01 -1.54117E-01
  -1.36981E-01 -3.45036E-01 -3.81566E-01 -1.80344E-01 -7.89025E-02 -6.41285E-02 -1.46092E-01  1.00664E-01 -2.32385E-01 -2.53268E-01
  -4.50057E-02 -3.17721E-02 -1.79235E-01 -1.78988E-01  8.52822E-02 -6.91654E-02  2.19496E-01  1.45036E-01  2.42470E-01  1.31793E-01
   7.19135E-02  3.97380E-01  2.28231E-01  2.71147E-01  4.52379E-02 -1.44675E-02  1.96966E-01  2.48848E-01  1.52831E-01  4.49022E-01
   2.76534E-01  1.52861E-01  4.96248E-01  1.67855E-01  2.08429E-01  2.39458E-01  5.84553E-02 -3.71629E-02 -7.65065E-02  3.75135E-02
   8.91730E-02 -1.42916E-01 -2.26352E-02  2.50331E-01  5.83030E-02 -8.01094E-02 -1.09793E-02  2.74129E-01  1.22064E-01 -6.34879E-03
   1.25458E-01  2.03042E-01  8.92811E-03 -2.40803E-02  9.65248E-02 -2.45229E-01 -9.17570E-02  1.53127E-02  1.58958E-01  2.04704E-01
  -9.27163E-02 -1.58040E-01  4.85862E-02  3.13330E-01  8.91903E-03  1.28667E-01 -8.88153E-02 -2.69301E-02  5.54547E-02 -1.97245E-01
   3.74559E-01 -1.51524E-01  8.95741E-02  2.38522E-01  3.13524E-02  2.15870E-01  2.05279E-02  3.05119E-01 -1.89605E-01  7.11820E-02
  -3.95041E-02  6.77399E-02  4.03722E-01  4.03679E-02  2.48286E-01 -2.96113E-02  5.54584E-02 -2.94023E-01 -1.27867E-02  2.38907E-01
   1.25873E-02  2.37502E-01  3.68687E-02  1.18178E-01  3.37868E-02 -4.09277E-04 -2.00617E-01 -2.15196E-01  1.09076E-02  2.17695E-02
  -5.53670E-02  1.42292E-01  1.80499E-01  1.29633E-02  1.62097E-01 -6.60874E-02  3.95359E-02 -6.49855E-02 -3.46898E-02  4.10011E-02
  -1.26051E-01  3.38410E-02 -2.27157E-01  5.66212E-02  9.25099E-02 -2.94181E-01 -1.56746E-01 -5.68512E-02 -7.20442E-02 -2.03487E-01
  -2.56210E-01 -3.02264E-01 -2.61560E-01 -1.23592E-01
 NY points of the fit to the data follow
   1.09866E-01  5.45286E-02 -3.98398E-03 -4.32687E-02 -4.74410E-02 -3.88179E-02 -2.83302E-02  5.79154E-03  2.70400E-02  5.86972E-02
   1.62209E-01  4.66019E-01  5.53068E-01  3.17107E-01  2.35801E-01  5.25825E-01  5.55281E-01  1.75175E-01  2.92188E-02  2.58571E-03
   9.86632E-04 -8.62707E-02 -9.54517E-02 -1.22631E-01 -1.38334E-01 -1.56804E-01 -1.71489E-01 -1.79254E-01 -1.88063E-01 -2.02468E-01
  -2.04677E-01 -2.18362E-01 -2.50760E-01 -2.89228E-01 -3.25069E-01 -3.46572E-01 -3.75256E-01 -3.85099E-01 -3.54340E-01 -2.05619E-01
  -5.95139E-02  1.42306E-02  9.06150E-02  1.99894E-01  3.36463E-01  3.99906E-01  4.62171E-01  3.78845E-01  2.99592E-01  2.74161E-01
   1.83612E-01  1.09266E-01  6.28909E-02  3.34774E-02 -3.62845E-02 -9.18350E-02 -1.39481E-01 -1.75549E-01 -1.87484E-01 -2.17614E-01
  -3.08374E-01 -3.48934E-01 -3.22159E-01 -2.51028E-01 -2.62026E-01 -7.23156E-02  2.45803E-01  1.95638E-01  2.91533E-01  4.67886E-01
   3.98863E-01  2.30836E-01  1.36593E-01  1.04153E-01 -1.40740E-02 -1.14296E-01 -1.81109E-01 -2.75390E-01 -4.60719E-01 -6.45928E-01
  -4.73712E-01 -5.31480E-02  3.70458E-02  1.24726E-01  3.91831E-01  4.89041E-01  3.76428E-01  2.81735E-01  2.68359E-01  2.09053E-01
   1.72519E-01  1.52233E-01  1.18446E-01  7.17671E-02  2.07388E-02 -7.32445E-02 -1.79385E-01 -3.46744E-01 -4.22099E-01 -4.47079E-01
  -2.99036E-01 -4.34826E-02  1.23581E-01  2.71784E-01  2.59644E-01  2.72798E-01  2.43085E-01  2.44340E-01  2.23920E-01  2.24017E-01
   2.25947E-01  2.22396E-01  2.17722E-01  2.16019E-01  2.15269E-01  2.16645E-01  2.16527E-01  2.11291E-01  1.93037E-01  1.89593E-01
   1.53304E-01  8.26090E-02 -2.94511E-02 -9.72768E-02 -1.42621E-01 -2.90454E-01 -2.58685E-01 -4.66579E-01 -5.97809E-01 -7.10876E-01
  -6.91131E-01 -4.86563E-01 -4.32635E-01 -2.05538E-01 -3.53416E-01 -5.08329E-01 -7.74814E-01 -6.70414E-01 -3.09363E-01 -1.54393E-01
  -6.68327E-02 -3.33427E-02  5.02035E-02  4.28785E-02  5.93037E-02  8.02544E-02  9.79891E-02  1.14855E-01  1.29997E-01  1.43316E-01
   1.58228E-01  1.73443E-01  1.88434E-01  2.05640E-01  2.24539E-01  2.46882E-01  2.71866E-01  2.98846E-01  3.25871E-01  3.62532E-01
   4.20506E-01  5.07896E-01  6.02848E-01  6.46567E-01  7.04516E-01  8.37873E-01  7.45722E-01 -2.95188E-02 -1.02081E+00 -1.18912E+00
  -7.94858E-01 -5.99457E-01 -5.52429E-01 -4.44020E-01 -3.54599E-01 -3.39952E-01 -3.06633E-01 -2.81739E-01 -2.90567E-01 -2.80632E-01
  -2.48312E-01 -2.22844E-01 -2.17107E-01 -2.07736E-01 -1.99613E-01 -1.96017E-01 -1.83314E-01 -1.69750E-01 -1.59262E-01 -1.57051E-01
  -1.42548E-01 -1.30708E-01 -1.18701E-01 -1.07941E-01 -9.66001E-02 -8.83340E-02 -7.81500E-02 -6.58746E-02 -5.72163E-02 -5.00630E-02
  -3.87520E-02 -2.20367E-02 -1.27034E-02 -2.25311E-02 -3.31536E-02 -2.90817E-02 -8.50699E-03  1.85742E-03 -1.44134E-02 -3.49097E-02
  -3.83709E-02 -2.81459E-02 -2.05619E-02 -1.32572E-02 -2.58409E-03  1.14364E-02  2.76035E-02  3.22124E-02  1.82875E-02  8.96818E-03
   3.83821E-02  7.30436E-02  8.07490E-02  8.88603E-02  1.76159E-01  3.57599E-01  4.42356E-01  3.21321E-01  2.17516E-01  3.74370E-01
   5.15774E-01  3.58748E-01  1.35721E-01  4.07978E-02  9.86137E-03 -2.82621E-02 -4.30640E-02 -3.70055E-02 -3.82824E-02 -4.56319E-02
  -5.35904E-02 -5.94011E-02 -6.04564E-02 -6.34190E-02 -6.64883E-02 -7.07817E-02 -7.12584E-02 -7.33702E-02 -7.84328E-02 -7.59674E-02
  -7.07872E-02 -8.07312E-02 -1.04143E-01 -1.05037E-01 -1.12996E-01 -1.04606E-01 -3.25117E-02  9.06269E-02  7.29352E-02  9.01440E-02
   1.78841E-01  2.27941E-01  2.08916E-01  8.91966E-02  2.00630E-01  2.52751E-01  2.00649E-01  1.85489E-01  1.85451E-01  2.21957E-01
   1.82611E-01  1.58142E-01  1.15668E-01  7.10943E-02  3.50689E-02 -1.48444E-02 -5.45089E-02 -1.16100E-01 -1.62256E-01 -2.29928E-01
  -2.92628E-01 -3.63529E-01 -3.49268E-01 -2.22256E-01 -3.75022E-02  2.56736E-01  4.29698E-01  5.23328E-01  5.62486E-01  4.68795E-01
   3.69894E-01  2.86264E-01  2.60053E-01  2.37805E-01  2.33388E-01  2.66867E-01  2.82862E-01  2.96944E-01  3.04635E-01  2.95749E-01
   2.86180E-01  2.71331E-01  2.63745E-01  2.53513E-01  2.40857E-01  2.27736E-01  2.06745E-01  1.79717E-01  1.42591E-01  1.15853E-01
   9.77328E-02  6.58853E-02  7.46271E-02  6.14324E-02  4.46404E-02  2.48817E-02 -3.39766E-02 -1.04494E-01 -1.77559E-01 -2.18304E-01
  -2.61360E-01 -2.93727E-01 -2.70070E-01 -2.36701E-01 -1.70196E-01 -8.87404E-02  1.77865E-03  9.90322E-02  1.34922E-01  1.48236E-01
   8.64744E-02  1.01501E-02 -7.58846E-02 -1.54510E-01 -2.06242E-01 -3.61887E-01 -3.91531E-01 -2.42305E-01 -3.48131E-01 -2.80137E-01
  -4.27624E-01 -9.93407E-01 -2.76077E+00 -2.77505E+00 -8.67957E-01 -2.16302E-01 -1.15065E-01 -1.23299E-01  2.41450E-01  5.83439E-02
   3.63765E-02  4.24839E-02  5.14323E-02  5.85453E-02  6.64046E-02  7.39748E-02  7.71876E-02  7.77916E-02  6.68712E-02  5.67272E-02
   2.84746E-02  8.87264E-03 -1.93793E-02 -3.72562E-02 -3.16301E-02 -2.94071E-02 -7.08468E-03  5.41309E-03  2.92046E-02  3.96477E-02
   5.34625E-02  6.40920E-02  7.43016E-02  7.87457E-02  8.02700E-02  8.54072E-02  9.01860E-02  9.60037E-02  1.00060E-01  1.02114E-01
   1.03834E-01  1.07447E-01  1.12088E-01  1.15641E-01  1.17750E-01  1.18349E-01  1.18606E-01  1.20557E-01  1.25965E-01  1.29630E-01
   1.33243E-01  1.35042E-01  1.33815E-01  1.29449E-01  1.25024E-01  1.21598E-01  1.17217E-01  1.12787E-01  1.06879E-01  9.88908E-02
   9.04102E-02  8.31182E-02  7.34726E-02  6.24438E-02  5.41987E-02  4.88089E-02  4.11387E-02  3.26765E-02  2.59764E-02  2.05998E-02
   1.43098E-02  1.06097E-02  7.70972E-03  2.70607E-03 -1.43932E-03 -5.27582E-03 -9.69746E-03 -1.32874E-02 -1.48319E-02 -1.61959E-02
  -1.79955E-02 -1.95116E-02 -1.74369E-02 -1.45389E-02 -1.20048E-02 -8.32262E-03 -3.10230E-03  1.39530E-03  8.25386E-03  1.48950E-02
   1.62786E-02  1.63454E-02  1.94604E-02  2.91907E-02  3.89851E-02  4.85520E-02  5.64778E-02  6.43414E-02  7.43766E-02  8.59529E-02
   1.00390E-01  1.14183E-01  1.27806E-01  1.40469E-01  1.54166E-01  1.66545E-01  1.78750E-01  1.86752E-01  1.91155E-01  1.92039E-01
   1.90783E-01  1.89795E-01  1.86191E-01  1.82478E-01  1.76950E-01  1.68026E-01  1.57456E-01  1.42223E-01  1.30190E-01  1.22407E-01
   1.24756E-01  1.19505E-01  1.08952E-01  9.55640E-02  7.39533E-02  6.31444E-02  5.13274E-02  4.45134E-02  3.54941E-02  3.23851E-02
   2.81205E-02  2.39459E-02  2.06669E-02  1.94836E-02  2.25789E-02  2.74488E-02  3.08600E-02  3.44261E-02  4.08151E-02  4.66241E-02
   5.35013E-02  6.22064E-02  6.82241E-02  7.22497E-02  7.51836E-02  7.81495E-02  7.87303E-02  8.05865E-02  8.52119E-02  8.85643E-02
   8.90034E-02  8.63625E-02  8.44839E-02  8.19012E-02  7.90855E-02  7.35614E-02  6.82363E-02  6.57723E-02  6.26366E-02  5.89348E-02
   5.42874E-02  5.09443E-02  4.69025E-02  4.23426E-02  3.79312E-02  3.32061E-02  2.81896E-02  2.66184E-02  2.55933E-02  2.08021E-02
   1.55430E-02  1.17623E-02  6.65508E-03 -2.81738E-03 -1.38446E-02 -2.31932E-02 -3.26265E-02 -4.38735E-02 -5.78509E-02 -7.77714E-02
  -1.00381E-01 -1.21789E-01 -1.39686E-01 -1.58064E-01 -1.77571E-01 -1.94303E-01 -2.07325E-01 -2.18243E-01 -2.30363E-01 -2.38515E-01
  -2.38178E-01 -2.33393E-01 -2.31657E-01 -2.28778E-01 -2.19280E-01 -2.06701E-01 -1.97800E-01 -1.89402E-01 -1.80608E-01 -1.73230E-01
  -1.65164E-01 -1.53028E-01 -1.40528E-01 -1.30360E-01 -1.16733E-01 -1.02544E-01 -8.94673E-02 -7.87226E-02 -6.58534E-02 -5.48832E-02
  -4.62737E-02 -3.45813E-02 -2.25506E-02 -1.60749E-02 -1.14157E-02 -3.22439E-03  6.86387E-03  1.32950E-02  1.38848E-02  1.73064E-02
   2.42405E-02  2.79725E-02  2.89653E-02  3.12101E-02  3.17335E-02  3.37714E-02  3.68118E-02  3.62213E-02  3.39125E-02  3.56682E-02
   4.04361E-02  4.14670E-02  4.35116E-02  4.73582E-02  4.79430E-02  4.60224E-02  4.53719E-02  4.59658E-02  4.41976E-02  4.29522E-02
   4.32162E-02  4.20897E-02  4.06544E-02  4.01896E-02  3.99822E-02  4.01759E-02  4.02321E-02  4.15661E-02  4.15294E-02  3.55434E-02
   2.85149E-02  3.00673E-02  3.43904E-02  3.21623E-02  2.87958E-02  2.83870E-02  2.96078E-02  2.58665E-02  2.17402E-02  2.23024E-02
   2.59533E-02  2.82729E-02  2.60821E-02  2.59594E-02  2.68054E-02  2.83271E-02  2.87280E-02  2.83605E-02  2.80881E-02  2.93444E-02
   2.89060E-02  2.47445E-02  2.11370E-02  2.17430E-02  2.31090E-02  2.25955E-02  2.41355E-02  2.56438E-02  2.55311E-02  2.34934E-02
   2.38226E-02  2.89252E-02  3.12997E-02  3.12424E-02  2.94341E-02  2.44852E-02  2.17523E-02  2.24058E-02  2.45365E-02  2.54076E-02
   2.37626E-02  2.12504E-02  2.00873E-02  2.06787E-02  2.09193E-02  2.14208E-02  1.88186E-02  1.84809E-02  2.18298E-02  2.39084E-02
   2.20779E-02  2.08947E-02  2.32555E-02  2.39583E-02  2.51575E-02  2.58943E-02  2.93317E-02  3.58659E-02  3.92115E-02  4.07930E-02
   4.16736E-02  4.39320E-02  4.58859E-02  4.77611E-02
 NY background values follow
    -1.192E-02   -1.158E-02   -1.123E-02   -1.089E-02   -1.055E-02   -1.020E-02   -9.861E-03   -9.520E-03   -9.179E-03   -8.839E-03
    -8.499E-03   -8.161E-03   -7.823E-03   -7.486E-03   -7.150E-03   -6.815E-03   -6.481E-03   -6.148E-03   -5.816E-03   -5.485E-03
    -5.155E-03   -4.827E-03   -4.500E-03   -4.174E-03   -3.850E-03   -3.527E-03   -3.206E-03   -2.886E-03   -2.567E-03   -2.251E-03
    -1.936E-03   -1.623E-03   -1.311E-03   -1.002E-03   -6.942E-04   -3.885E-04   -8.478E-05    2.169E-04    5.165E-04    8.140E-04
     1.109E-03    1.402E-03    1.693E-03    1.982E-03    2.268E-03    2.552E-03    2.833E-03    3.112E-03    3.389E-03    3.664E-03
     3.936E-03    4.207E-03    4.475E-03    4.742E-03    5.006E-03    5.269E-03    5.530E-03    5.789E-03    6.046E-03    6.301E-03
     6.555E-03    6.808E-03    7.059E-03    7.308E-03    7.556E-03    7.802E-03    8.047E-03    8.291E-03    8.534E-03    8.775E-03
