 
 $NMID
 ID=''
 FMTDAT='(2E13.5)'
 TRAMP=   1.00000E+0
 VOLUME=   1.00000E+0
 $END
   4.61689E+2  -3.88591E+2
   7.01053E+2   2.06792E+3
   4.90842E+2  -4.45766E+3
  -5.93637E+2   5.97910E+2
  -1.23003E+3   1.14207E+3
   1.90995E+3  -6.89506E+2
   1.41748E+3   1.47518E+3
  -5.88458E+2  -3.67482E+2
   4.85000E+2  -2.20632E+3
  -5.33225E+2  -1.41711E+3
  -2.10272E+3  -3.12435E+3
   2.57750E+3  -1.99547E+3
   1.62128E+3   2.35395E+3
  -2.78034E+3   3.68073E+3
  -2.67710E+3   2.52226E+3
  -1.67608E+3  -2.79396E+3
   9.05656E+2  -1.26982E+3
   3.35745E+3   1.22846E+3
   1.23096E+3   3.14998E+3
  -2.06965E+3   1.22803E+3
   1.48789E+3  -3.57704E+3
   1.87527E+3   2.58000E+3
  -2.53009E+3   4.09769E+3
  -9.58535E+2  -1.77071E+3
  -9.59361E+2  -2.34395E+3
   2.94733E+3  -6.48784E+1
   5.99822E+2   3.59869E+3
  -5.85135E+3   6.51920E+2
  -4.87545E+3  -2.01257E+3
   2.45546E+3  -4.60932E+3
   6.19094E+3   5.08720E+2
   8.19482E+2   5.64790E+3
  -5.74707E+3   4.11445E+3
  -6.73213E+2  -2.67027E+3
  -7.26727E+2   2.19721E+3
  -4.82647E+3  -8.45533E+1
  -1.88104E+3  -4.52793E+3
   4.23807E+3  -8.03966E+2
   2.59990E+3   1.26991E+3
   1.08756E+3   2.41017E+3
   8.94585E+2   3.35524E+3
  -3.89385E+3   2.69856E+3
  -4.84195E+3  -2.13516E+3
   2.69827E+3  -4.33131E+3
   4.03124E+3  -9.13317E+2
   4.06006E+3   2.79627E+2
   3.83840E+3   1.90278E+3
   3.76348E+3   2.23405E+3
   2.49497E+3   3.71430E+3
   1.05147E+3   2.12558E+3
   1.46400E+2   1.07702E+3
  -2.39668E+2  -3.61447E+3
   2.51576E+3  -1.07626E+3
   3.71867E+3   9.69689E+2
  -1.77396E+3   2.14100E+3
   4.76846E+2   1.81140E+3
  -2.24297E+3   2.02153E+3
  -4.97646E+3   6.04399E+1
  -5.20050E+3  -5.85813E+3
  -1.10524E+3  -5.17738E+3
   2.49989E+3  -3.16743E+3
   4.67556E+3  -1.64571E+3
   3.35400E+3   2.12133E+3
   6.77816E+1   8.43521E+2
  -3.41540E+2  -2.00958E+3
   1.87026E+3  -1.56695E+3
  -5.29227E+1   3.37126E+3
  -3.29688E+3   1.08496E+3
  -1.92022E+3   5.26166E+2
   1.53508E+3  -1.19794E+2
  -8.03514E+2   8.70902E+2
  -1.93804E+3   2.43817E+3
  -1.27814E+3  -7.95234E+2
  -1.96218E+3  -1.86846E+3
  -3.48804E+2  -1.60461E+3
  -1.65005E+2   4.87000E+2
   7.46889E+2  -1.01106E+3
  -6.61133E+2  -8.07980E+2
   2.04258E+3  -3.13650E+3
   5.11393E+2  -2.79502E+2
  -2.77938E+2  -8.49060E+2
  -2.54728E+3  -2.17678E+2
   1.89013E+2   8.92465E+2
   1.18977E+3   3.14972E+3
  -7.81040E+2   3.22723E+3
  -3.63882E+3   8.28191E+2
  -2.32507E+3  -9.70486E+2
   1.00690E+3  -1.15564E+3
   2.02148E+3   1.06618E+2
   4.04163E+2   7.53976E+2
  -4.86567E+2   2.86992E+3
   7.86897E+2   1.13370E+3
   3.94426E+2   2.39438E+3
  -2.18935E+3   3.46603E+3
  -5.10332E+3   1.00602E+3
  -3.97773E+3  -1.87212E+3
   1.89669E+3  -4.24393E+3
   2.86848E+3   1.88113E+3
  -4.27972E+2   2.80884E+3
  -3.35600E+3  -5.85174E+0
  -3.81458E+2  -3.36319E+3
   3.09407E+3  -3.88594E+3
   4.36870E+3   1.63047E+3
   2.78399E+2   1.60423E+3
   1.87617E+2   2.25542E+3
   1.60977E+3   2.06039E+3
   1.77623E+2   5.61108E+2
   1.69783E+2   1.80102E+3
  -1.13701E+3  -1.11966E+3
  -7.38764E+2  -2.53384E+3
   5.33184E+2  -4.30609E+3
   1.86865E+3   9.72156E+2
   2.92558E+3   8.43867E+2
   9.11794E+2   2.70786E+2
   1.07837E+2   5.20945E+2
  -2.06868E+3   1.86302E+3
  -1.45414E+3   1.16195E+3
  -1.68547E+3  -6.45557E+1
  -5.94041E+2  -1.49972E+3
   1.40544E+3  -2.12236E+3
   2.21483E+3   5.60072E+2
   3.73358E+2   5.97006E+2
  -1.60943E+3  -1.86119E+3
  -5.41117E+2  -1.65663E+3
  -1.80745E+2  -1.75032E+3
   1.43815E+3  -5.21661E+2
  -3.77875E+2  -1.03198E+3
   1.61019E+3  -1.59630E+3
   2.06098E+3   9.57473E+2
  -1.10527E+3  -5.16469E+2
  -1.04673E+3  -1.66962E+3
  -2.02543E+2  -6.40369E+2
   2.27511E+3  -1.16505E+3
   2.41228E+3   2.43801E+3
  -1.19666E+3   3.66984E+2
  -2.34425E+3   9.36864E+2
  -8.44997E+2   2.13957E+3
  -5.75378E+2  -4.52865E+2
  -4.02517E+2  -1.39084E+3
   2.76732E+3  -6.42612E+2
   1.10271E+3  -1.95958E+3
   1.21679E+3  -3.12912E+3
   3.89197E+2   9.87734E+2
   2.16509E+3   1.92397E+3
   8.33060E+2  -1.48519E+2
   1.03770E+3  -2.16387E+3
   6.31325E+2   8.33965E+2
  -2.42572E+3   2.94086E+2
   7.99355E+2   8.10028E+2
   9.57356E+2   4.56420E+2
   4.76967E+2   2.22047E+3
  -2.35627E+3  -1.50416E+3
   3.00573E+2  -3.63070E+3
  -2.01500E+2  -1.41208E+3
   1.98401E+3  -3.04602E+3
   2.50396E+3  -1.43948E+3
   1.96000E+2   3.89369E+2
   2.25507E+2  -1.24276E+3
  -2.73231E+2  -1.47998E+3
   7.58816E+2  -3.28464E+2
   8.76094E+2  -2.79201E+2
  -1.63612E+3  -4.19224E+2
  -1.02458E+3  -1.32849E+3
   1.10842E+3   2.52433E+2
   1.19393E+2   1.27497E+3
  -7.84947E+2   8.03973E+2
  -3.55593E+2  -1.85358E+3
   1.53098E+3  -5.82864E+2
   8.08600E+2  -5.24120E+2
   3.28568E+3   6.72591E+2
  -1.02774E+3  -5.33679E+1
  -2.02949E+3  -1.92155E+3
  -4.14215E+0  -1.62038E+3
   7.72547E+2  -1.43054E+3
   4.66445E+2   3.29575E+2
  -2.80468E+2  -4.58276E+2
   5.58322E+2  -1.09005E+3
  -3.94434E+2   1.05334E+3
  -5.78033E+2  -3.65452E+2
  -5.02261E+1   8.54180E+2
  -2.47311E+2  -1.03230E+3
   9.96678E+1  -2.16382E+2
   1.28471E+3  -1.71643E+3
  -1.30556E+3  -1.50802E+3
  -1.36496E+3   1.54690E+3
  -4.74519E+2  -5.12543E+2
  -7.18431E+1   4.05436E+3
  -2.00307E+3  -1.68926E+1
   4.89744E+2   3.15558E+2
   1.00115E+3  -7.20698E+2
  -5.01883E+2  -6.84211E+2
   1.32490E+3   9.81023E+2
   9.06806E+2   5.21739E+2
  -1.65593E+3  -1.35506E+3
   1.43654E+2  -1.70145E+3
   6.98538E+2  -3.30536E+2
   1.81928E+3   6.55559E+2
   1.23247E+3   1.01702E+2
   1.36977E+3  -1.12664E+3
   6.93526E+2   1.03403E+3
  -1.42037E+2   1.20193E+3
  -4.14819E+2   7.25863E+1
  -6.17381E+2  -2.42431E+0
   6.61745E+2  -1.20134E+2
  -1.54981E+2   3.78022E+2
  -1.25650E+3  -3.88724E+2
  -4.90520E+2   7.87551E+2
   3.21176E+2  -7.86478E+2
   7.69736E+2  -6.80156E+2
   1.02948E+3   1.60883E+3
  -3.22214E+3  -1.02806E+3
  -1.63643E+3  -9.83956E+2
  -7.93936E+2   3.09903E+2
  -5.70640E+2  -3.79460E+2
   6.58351E+2   8.20475E+2
  -1.63200E+3   6.83698E+2
  -1.13723E+3  -1.05864E+3
  -7.22872E+2  -1.40084E+3
   9.80697E+2   6.64805E+2
  -1.12458E+3   1.73067E+3
   2.90038E+2  -9.89036E+2
   4.05728E+2  -1.96125E+2
   1.54702E+2   1.12655E+3
   6.82561E+2   1.63937E+2
   1.97668E+3   8.48821E+2
  -1.59154E+3   9.08744E+1
  -1.34737E+2  -1.14303E+3
  -1.02963E+3  -1.61547E+3
  -6.72784E+2   1.27934E+3
  -7.68549E+2  -7.14810E+2
   9.23556E+2   1.24422E+3
  -8.67431E+2   4.03165E+2
  -7.99968E+2  -4.62154E+2
  -1.05305E+3  -9.35835E+2
   1.21092E+3   1.30327E+3
   2.90065E+3  -6.14417E+2
  -7.36665E+2   5.66248E+2
  -1.96597E+3  -1.87450E+2
  -1.20258E+2  -8.35667E+2
   1.69698E+3   3.72259E+2
   7.87702E+2  -7.94435E+2
  -4.09257E+2   6.86788E+2
  -1.76471E+3   2.11019E+2
  -9.45719E+2   1.99592E+3
  -4.81476E+2   7.83232E+2
   6.44982E+2   5.92307E+2
  -9.57196E+2   1.56170E+2
   1.29333E+2  -2.15340E+2
   5.22426E+2  -6.42924E+2
   1.17273E+3   1.22339E+3
   4.06707E+2  -4.84103E+2
  -2.02143E+3   1.07931E+3
  -1.27402E+3   3.34992E+2
   8.11510E+2  -2.45092E+2
   4.67945E+2   6.10927E+2
  -1.44017E+3  -1.00437E+3
   5.96670E+2  -1.06158E+3
  -1.01207E+3   9.24646E+2
  -7.16020E+2   1.32750E+2
  -6.78129E+2   1.43602E+3
  -2.58777E+2  -1.45223E+3
   5.18436E+0  -9.77950E+2
   5.07848E+2   1.00162E+3
   4.29450E+2   6.61789E+2
   1.88613E+2   8.13035E+2
  -5.55988E+2   1.79140E+3
   1.89817E+3   7.68399E+1
   4.18322E+2   2.30743E+3
  -1.69792E+2   2.07287E+3
  -1.71419E+3  -3.07638E+2
   6.33911E+2   4.84495E+1
   1.65386E+3  -9.21923E+2
   5.82339E+1   1.47185E+3
  -9.26132E+2   1.73335E+3
  -1.23813E+3   1.67062E+3
  -1.92148E+3  -2.61947E+3
  -2.24255E+3   3.13910E+2
  -1.74642E+2  -1.12579E+3
   2.11935E+2   7.56230E+1
   2.30604E+2   7.38158E+2
  -9.85522E+2   9.21251E+2
   8.42042E+2   8.26414E+2
  -5.77149E+2   7.15066E+1
   4.50318E+2  -1.37820E+3
  -2.23417E+3  -2.72732E+2
  -5.21645E+2  -1.17306E+2
   3.59364E+2   1.81525E+3
  -1.88527E+3   3.01339E+3
   2.22374E+3  -8.84331E+1
   1.31446E+3  -2.28012E+3
  -4.30341E+2   4.60932E+2
  -5.13997E+2   1.09083E+3
  -5.43021E+2  -4.46992E+2
  -2.18832E+2   1.38482E+3
  -1.38974E+2   5.17843E+2
  -4.65983E+2   1.07743E+3
  -4.97032E+2  -1.08764E+3
  -5.22734E+2   2.31617E+2
  -8.49005E-1   1.47082E+3
  -1.91475E+3   1.88459E+3
   4.91577E+2   2.52068E+2
  -4.42424E+1  -8.18849E+2
   7.33692E+2   3.60443E+2
   3.90061E+2   5.58298E+2
  -7.55457E+2  -4.23171E+2
  -8.90320E+2  -2.82829E+2
   4.43334E+2  -2.16814E+3
   1.42780E+3   7.90262E+2
  -5.63806E+2   1.12999E+3
  -1.71862E+3   5.47024E+2
  -1.01517E+2   8.32531E+1
   1.14380E+3  -6.01125E+2
   1.89498E+2   3.17135E+2
  -9.25081E+2   8.96711E+1
  -5.47727E+2   4.74521E+2
  -1.52875E+3   1.98353E+3
   7.69806E+2   1.29357E+3
  -9.28835E+2   1.17096E+3
  -1.80879E+2  -1.70411E+3
  -1.06923E+2   1.65357E+2
  -2.62018E+2  -1.33607E+3
   5.94568E+2   9.90338E+2
   1.62256E+3   3.49501E+2
   9.09962E+1   1.74620E+3
   7.35315E+2  -1.95113E+1
   8.44820E+1  -8.27336E+2
  -9.87892E+2   8.24913E+1
   6.76480E+1  -1.85100E+3
   1.41146E+2   1.08096E+3
   4.13448E+2  -3.19771E+3
  -9.19557E+1   1.31477E+3
   1.66515E+3   1.24154E+3
  -1.11514E+3   2.55983E+3
  -6.15249E+2  -5.08901E+2
   1.39140E+3  -6.08262E+2
   5.37731E+2  -1.70893E+2
  -8.72631E+2   1.24715E+3
   2.16300E+3   8.65623E+2
   1.51446E+3  -1.60045E+2
  -1.19965E+3   7.71699E+2
   2.55222E+2   8.65377E+2
  -8.24350E+1  -6.68113E+2
   1.82572E+3   6.07645E+1
   1.97900E+3   3.57042E+2
  -7.13284E+2  -1.70311E+3
   1.26212E+3   2.03553E+3
   2.85427E+2   1.33739E+3
  -1.26545E+3   1.01558E+3
   1.28231E+3   4.64901E+0
   8.34696E+2   6.38864E+2
  -1.07451E+3  -3.60591E+2
  -5.40524E+1  -1.08901E+3
   1.40206E+3   2.88376E+3
   1.09386E+3  -8.12278E+2
  -5.93739E+2   1.17937E+3
  -8.14997E+2  -3.78992E+1
  -1.14185E+2   5.32992E+2
   7.64594E+2   7.52057E+2
  -8.70040E+2   1.52235E+3
   3.52037E+2   6.13464E+2
  -1.02696E+3  -2.27665E+2
  -3.23763E+2  -9.22429E+1
  -2.31949E+2   3.46669E+2
  -2.21576E+2   2.41903E+3
  -3.67947E+2   7.01540E+2
  -5.44456E+2   5.88930E+1
   4.75822E+2   1.68201E+3
