 
 $NMID
 ID=''
 FMTDAT='(2E13.5)'
 TRAMP=   1.00000E+0
 VOLUME=   1.00000E+0
 $END
   2.03622E+2  -3.33025E+2
   8.66658E+2   5.02857E+2
  -5.33992E+2  -2.35031E+3
  -1.12647E+3  -4.38001E+2
  -4.64723E+2   3.73304E+2
   1.56041E+2  -5.48182E+2
  -1.42641E+3  -3.82741E+2
  -1.14156E+3   1.88144E+3
  -1.59660E+3   5.01516E+2
   4.59243E+2   7.32172E+1
  -2.25187E+3  -1.13330E+3
   1.96296E+3   3.26146E+2
   2.07071E+3   1.40287E+3
  -2.05212E+3   3.42899E+3
  -1.99592E+3   5.72390E+2
   1.05002E+3   2.08649E+2
   2.73513E+3  -1.03882E+3
   1.01969E+3  -7.79760E+1
   7.68389E+2  -3.41001E+2
  -1.04522E+3   3.97733E+2
   6.83070E+2  -3.19351E+2
   3.36161E+3   2.88820E+3
  -6.24781E+2   9.35158E+2
  -2.60410E+2  -1.51476E+3
   1.10267E+3  -4.10633E+3
   2.50728E+3   2.65418E+2
   2.31374E+3   1.28809E+3
  -3.38854E+3   1.80979E+3
  -3.35684E+3  -7.95368E+2
   6.02006E+2  -5.03904E+3
   7.24533E+3  -3.70428E+2
  -4.79445E+2   4.86912E+3
  -2.19281E+3   1.77281E+3
  -5.10367E+2  -1.74444E+3
   2.01395E+3   3.73666E+2
  -1.79888E+3   3.93655E+2
  -1.22202E+3  -4.94845E+3
   2.06820E+3  -3.27945E+3
   1.66335E+3  -5.29244E+2
  -2.45061E+2  -4.71391E+2
  -2.53856E+3   2.44659E+3
  -2.77191E+3   2.04913E+3
  -5.22510E+3  -9.45368E+2
  -3.93276E+2  -5.18806E+3
   1.88015E+3  -1.71462E+3
  -5.98333E+2  -9.49799E+2
  -2.21144E+1  -1.56016E+2
  -3.27338E+2   9.14106E+2
  -9.59271E+2   4.90668E+2
   4.75301E+2   2.19618E+3
  -5.06328E+3   2.05557E+2
  -3.49567E+3  -9.30972E+2
  -7.03970E+2  -3.68718E+3
   1.60476E+3  -1.79077E+3
   1.26598E+3   8.79113E+2
   1.17496E+3   1.57523E+3
   3.78600E+2   4.47874E+3
  -7.57908E+2   2.42368E+3
  -2.22665E+3   8.26494E+2
  -1.92007E+3  -4.37418E+2
   8.93845E+2  -5.39665E+1
   3.46362E+3   1.84349E+2
   2.67289E+3   7.34339E+2
   1.96200E+3   1.85883E+3
  -1.01390E+3  -5.90049E+2
   8.36357E+2   1.07392E+3
   1.90364E+3   1.60816E+3
  -5.21510E+2   1.61259E+3
  -1.68419E+3   2.44866E+2
  -9.86062E+2   4.78332E+2
   1.22485E+3   3.69600E+2
   1.31784E+3  -6.79522E+2
   7.62875E+2  -1.17190E+2
   1.94900E+3   4.03883E+2
  -1.90700E+3  -7.50918E+2
  -3.73152E+1   1.71797E+3
   2.20096E+2   1.91171E+2
   8.62752E+2  -7.10860E+2
   9.25947E+2   1.60763E+1
   1.98191E+3  -4.50967E+2
   2.89035E+2   1.26064E+2
  -1.08140E+3   5.37729E+2
   5.67440E+2  -1.30855E+3
   1.31363E+3  -1.20165E+2
  -9.43708E+2   1.22457E+3
   1.79537E+2  -1.01006E+3
   7.04224E+1   1.90913E+2
   2.23854E+3  -1.07207E+3
   1.06542E+3  -2.39429E+3
   1.10592E+3   9.31907E+2
   1.42404E+3  -2.92266E+2
   4.68944E+2  -2.34190E+3
   5.00670E+2   9.63960E+2
  -6.79373E+2   2.35958E+3
  -1.40824E+2   1.32599E+3
  -1.44663E+3   7.41864E+2
   3.59135E+2  -1.38385E+3
   2.40245E+3  -1.44664E+3
   7.40946E+2   9.87028E+2
  -1.57709E+3  -9.96327E+2
  -2.78240E+2  -1.51621E+2
  -2.37364E+3  -7.49011E+2
  -4.43185E+2  -3.61323E+2
  -6.85171E+2   5.40561E+2
   2.59853E+2  -7.94101E+2
  -1.87845E+3  -1.10523E+3
  -2.84789E+2   5.70472E+2
   9.39407E+1  -1.01522E+3
   3.59112E+2  -6.12725E+2
  -9.48443E+2   1.14564E+2
  -5.74388E+2  -8.20109E+2
  -7.67273E+2  -8.91716E+2
  -8.67163E+1  -8.52781E+0
  -1.57705E+3   6.36764E+1
  -6.36928E+2  -2.69436E+2
  -4.58000E+2  -1.53284E+3
  -5.99423E+2  -9.68720E+2
   1.29520E+3  -8.76821E+2
   1.49686E+3   1.77670E+3
  -1.20184E+2  -1.43602E+3
  -8.09090E+2   2.92106E+2
   3.29588E+1  -2.87713E+2
   7.35715E+2   1.12795E+3
   1.96882E+3  -9.78632E+2
   2.23413E+3   6.43865E+2
  -2.21635E+3   6.57497E+2
  -1.53922E+3  -8.09604E+2
   2.83397E+2   5.83500E+2
   1.38580E+2   1.55568E+2
  -9.71227E+2  -1.30818E+3
  -3.41706E+2   1.24379E+3
   2.29194E+2  -4.15028E+2
  -8.08301E+2  -6.87303E+2
  -7.40613E+2   3.56423E+2
  -1.61039E+3   3.68869E+2
  -1.97331E+2   5.29744E+2
  -5.10452E+2  -6.53106E+2
   2.00871E+3  -8.50412E+2
   2.65812E+2  -1.65428E+2
  -6.55258E+2  -4.69751E+2
   1.07002E+3   1.84018E+3
   1.19404E+3   5.86903E+2
   4.80193E+2   5.40269E+1
   2.79177E+2   1.26290E+3
   1.74905E+3  -3.10310E+2
  -7.63278E+2   2.95208E+2
  -3.48495E+2   9.42486E+2
   1.57038E+3  -7.18250E+2
  -7.62392E+2   5.87658E+2
  -1.40615E+3   1.09546E+3
  -5.24067E+2   1.91656E+3
   4.55655E+2  -3.03190E+2
   1.08067E+3   1.06855E+3
  -5.94352E+2  -1.57491E+3
  -2.52234E+2   1.17353E+3
   4.08692E+2   2.01875E+2
  -3.55562E+2   1.39198E+3
  -7.61931E+2  -7.57329E+2
   3.65384E+2   5.79000E+2
   6.08376E+2   1.41004E+3
  -9.57044E+2  -6.11398E+2
   2.38685E+2  -7.84549E+2
  -1.87982E+2   1.02550E+3
   5.40003E+2   3.23675E+2
   6.73808E+2  -4.45089E+2
  -1.48723E+3   1.00561E+3
   4.77004E+2  -8.25449E+2
   1.82125E+3   1.65585E+3
  -2.85161E+2   3.02204E+2
  -2.22658E+2   1.27828E+3
  -3.45401E+2   3.26313E+1
  -3.37540E+2   1.58239E+3
  -1.73296E+1   2.04554E+2
   2.07152E+3   1.74123E+3
  -5.80844E+2   1.26248E+3
  -1.90646E+2   6.24744E+2
  -4.52891E+2   2.39925E+2
   1.78479E+3   3.90700E+2
   1.08806E+3   4.92317E+2
   2.48281E+2   2.89456E+2
   7.81437E+2  -8.34822E+2
   2.47979E+3   1.43082E+3
   2.19775E+2  -2.90599E+1
   1.22604E+3  -1.70938E+3
  -8.39357E+2  -1.20443E+3
   4.47107E+2   7.55677E+2
  -1.09222E+3   4.83597E+2
   1.54869E+3   2.13200E+2
  -7.70304E+2  -1.74776E+3
  -2.45495E+3  -2.98807E+2
  -1.91365E+2   4.87991E+2
  -4.36045E+2  -2.76161E+2
   2.60334E+2  -9.97652E+2
   4.46952E+2  -1.07175E+2
  -1.73619E+2   5.66877E+2
   2.52928E+2  -1.00783E+3
   6.98600E+2   2.40981E+2
   3.32912E+2   1.15171E+3
  -1.22715E+2   7.15887E+2
   4.05246E+2  -1.15945E+3
   8.52754E+2   3.97422E+2
   8.40588E+2   1.04014E+2
   1.56226E+2  -1.03609E+2
   3.85732E+2   9.00210E+2
  -8.36481E+1   3.92497E+2
  -4.90619E+2   8.18887E+2
  -5.55502E+2   1.31642E+3
   1.08757E+2   3.86125E+3
   6.48135E+2   5.53960E+1
  -1.14172E+3   1.57467E+3
  -5.20771E+2  -4.64971E+2
   5.05333E+2  -1.77147E+3
   1.10927E+3  -5.55947E+2
  -7.91069E+2  -1.07805E+3
   5.70798E+1   1.84666E+3
  -4.06782E+2   7.67665E+2
  -2.56898E+2   2.44492E+2
   2.99441E+2   1.16395E+3
  -7.77130E+2  -1.97372E+3
  -2.50604E+3  -6.94630E+2
  -7.39808E+2   6.62221E+2
  -1.15847E+2   1.53495E+3
   1.80542E+2   1.63882E+3
   2.19547E+1  -2.27802E+3
  -9.19551E+2  -7.56427E+2
  -1.83679E+2  -3.71837E+1
  -7.48863E+2   1.13939E+3
  -3.52771E+2  -9.19350E+2
   2.72752E+2  -1.55887E+3
  -1.68479E+3  -6.92926E+2
  -1.57067E+3   2.38894E+2
   1.76739E+1   1.24415E+3
  -1.20979E+3   5.89719E+2
  -6.84775E+2   1.70696E+2
  -4.23398E+2  -2.63851E+1
  -3.16015E+2  -3.71015E+2
  -6.96312E+1  -1.04346E+3
  -2.16220E+2  -3.59453E+2
  -7.52298E+2   5.38570E+2
  -2.93263E+2  -8.23824E+2
   3.00714E+2   3.50593E+2
  -9.26368E+2   9.16040E+2
  -3.13027E+3   1.09155E+3
   1.25483E+3  -1.98403E+3
  -1.24603E+3  -1.94818E+3
   3.35680E+2  -6.80500E+2
  -5.70435E+2  -5.58298E+2
  -6.91898E+2  -1.12138E+3
  -2.25896E+3  -1.68915E+3
  -1.31500E+3  -2.28245E+2
  -8.60329E+2   3.55141E+2
  -8.22262E+1   1.28791E+3
  -3.14429E+2  -1.71029E+1
   1.43010E+3   8.11934E+1
   2.86465E+2  -1.70549E+3
  -6.15163E+2   1.33015E+3
   8.90292E+2  -1.50371E+2
   1.50183E+3  -1.24709E+3
  -7.62722E+2   7.77081E+2
  -1.70333E+2   8.31427E+2
  -3.35964E+2   2.91560E+2
  -1.50967E+2  -1.39816E+3
  -4.16000E+1  -1.12433E+3
  -1.72575E+3  -5.97839E+2
  -1.05844E+2   1.16539E+3
  -1.40556E+2   5.90783E+2
  -7.48970E+2   1.46062E+2
  -3.67719E+1   8.27285E+2
   8.17376E+2  -1.97478E+3
  -7.15662E+1  -5.57997E+2
  -1.35402E+3   1.18537E+3
   8.99247E+2   1.08834E+2
   2.42632E+3   5.93954E+2
   3.27022E+2  -1.00644E+3
   5.99736E+2   7.08516E+2
   3.58295E+2  -1.62631E+2
  -6.23916E+2   4.43753E+2
  -2.75466E+3   2.80804E+2
  -1.22384E+3  -9.04358E+2
   1.55096E+3  -6.74719E+2
   6.73973E+2   3.53124E+2
  -1.40019E+3  -5.41570E+2
  -2.06365E+3  -9.33388E+1
   1.21301E+3  -6.53346E+2
  -2.23453E+3   1.56233E+2
   2.82658E+2  -5.93662E+2
  -1.91087E+2  -1.61467E+3
  -3.54973E+2   3.35645E+2
  -1.24607E+3  -6.77488E+2
   2.06978E+1   6.29342E+1
   6.15201E+0  -1.53206E+2
  -1.82115E+3  -2.66065E+3
   9.75923E+2   4.74726E+2
  -2.30332E+3   4.46684E+2
   4.54642E+2  -1.12989E+2
   2.22261E+3   4.17666E+2
  -4.76302E+2  -1.35021E+3
   3.82111E+2  -8.18009E+2
  -2.57875E+3  -3.48505E+1
   1.45900E+3   2.23362E+1
   5.97946E+2  -4.61514E+2
   2.98659E+2   2.96770E+2
   7.79203E+2   2.43419E+2
   2.36041E+2   7.69606E+2
  -2.15896E+3   8.52345E+2
  -1.29852E+3   1.56283E+2
  -1.04266E+3  -2.01716E+3
   1.79687E+3   4.10153E+2
  -3.08759E+2  -6.32105E+1
  -3.32118E+2   6.12275E+2
  -2.38697E+3   1.57125E+3
  -1.42777E+3   8.26771E+2
   1.66812E+3   3.79758E+2
   1.50093E+3   1.25355E+3
  -1.10444E+3  -6.64975E+2
   8.53079E+2  -1.53523E+3
   7.64484E+2  -4.93322E+2
   5.19936E+2  -1.52955E+3
   8.41154E+1   2.04298E+2
  -5.40075E+2  -2.23210E+3
  -2.05743E+2  -8.15295E+2
   1.52512E+2  -1.09656E+3
   2.14913E+3  -4.43019E+2
  -1.91704E+3  -1.16070E+3
  -9.05098E+1   1.34521E+3
  -7.31672E+2   1.45640E+3
   3.49486E+1  -2.26417E+3
  -2.32721E+2  -5.45750E+0
  -3.50560E+2  -2.10729E+3
   4.19571E+2   1.08823E+2
   1.02379E+3  -1.38538E+3
  -9.31429E+2   1.37194E+3
   1.60038E+3  -9.34306E+2
   3.60842E+2   2.82022E+2
   6.50508E+2   1.80275E+2
   1.20665E+3   2.80320E+1
   1.02877E+3  -1.75752E+1
   2.08966E+3  -8.59724E+2
   5.99765E+1  -2.28007E+3
  -1.03485E+3   1.34278E+3
  -7.63807E+2   5.32316E+2
  -2.53261E+2   5.54488E+2
   1.20723E+3  -2.31713E+2
  -8.44154E+2   2.06827E+2
   7.20828E+2  -1.08003E+3
  -1.35534E+3  -5.90593E+2
  -1.31044E+3  -8.59463E+1
   1.93562E+3   2.64598E+2
  -6.92687E+2  -4.32209E+2
   4.13051E+2   1.65525E+3
   1.10153E+3   5.69969E+2
  -5.93733E+2  -7.99827E+2
   4.23169E+2  -4.81158E+2
   5.70213E+2  -2.39714E+2
  -1.49620E+3  -1.45359E+3
   5.16038E+2   7.72204E+2
  -2.11275E+2   8.25257E+2
  -5.51260E+2   6.65378E+2
  -1.92688E+3  -1.12851E+3
   9.39463E+2  -1.03947E+3
   3.10019E+2   2.19078E+3
  -2.34464E+2   1.25236E+3
   6.76409E+1   7.77980E+2
  -7.66178E+2   3.31957E+2
   1.14174E+3  -1.15936E+3
  -4.29194E+2   1.78081E+2
   1.74847E+3  -5.13224E+2
