 
 $NMID
 ID=''
 FMTDAT='(2E13.5)'
 TRAMP=   1.00000E+0
 VOLUME=   1.00000E+0
 $END
  -9.94492E+3   4.48438E+3
  -2.81755E+4   4.11979E+3
  -2.72687E+4   9.13989E+3
  -2.53772E+4   8.78295E+3
  -2.68543E+4   8.45074E+3
  -2.65325E+4   9.57739E+3
  -2.56648E+4   9.05763E+3
  -2.61608E+4   8.63286E+3
  -2.60189E+4   9.37283E+3
  -2.53529E+4   8.84696E+3
  -2.55773E+4   8.48240E+3
  -2.52353E+4   8.97676E+3
  -2.48403E+4   8.79354E+3
  -2.49884E+4   8.45940E+3
  -2.46558E+4   8.63156E+3
  -2.42819E+4   8.55018E+3
  -2.44056E+4   8.53947E+3
  -2.40780E+4   8.72513E+3
  -2.37568E+4   8.70840E+3
  -2.38411E+4   8.53239E+3
  -2.36124E+4   8.66772E+3
  -2.32362E+4   8.77611E+3
  -2.33993E+4   8.69984E+3
  -2.32828E+4   8.69162E+3
  -2.29376E+4   8.65175E+3
  -2.29369E+4   8.59422E+3
  -2.29398E+4   8.54936E+3
  -2.27001E+4   8.33808E+3
  -2.25955E+4   8.11443E+3
  -2.24181E+4   8.03696E+3
  -2.21219E+4   8.04863E+3
  -2.20094E+4   8.09605E+3
  -2.18749E+4   8.01740E+3
  -2.14827E+4   7.81361E+3
  -2.13518E+4   7.83116E+3
  -2.10725E+4   7.83739E+3
  -2.08435E+4   7.86640E+3
  -2.05887E+4   8.01511E+3
  -2.04673E+4   8.15682E+3
  -2.02434E+4   8.21657E+3
  -2.01861E+4   8.19572E+3
  -2.00473E+4   8.25500E+3
  -1.98485E+4   8.19837E+3
  -1.96999E+4   8.17291E+3
  -1.95680E+4   8.30919E+3
  -1.94491E+4   8.25964E+3
  -1.93676E+4   8.26450E+3
  -1.92112E+4   8.24951E+3
  -1.91605E+4   8.35597E+3
  -1.90410E+4   8.28735E+3
  -1.89381E+4   8.23529E+3
  -1.87349E+4   8.19851E+3
  -1.85745E+4   8.21973E+3
  -1.84894E+4   8.19607E+3
  -1.83369E+4   8.27764E+3
  -1.82313E+4   8.25281E+3
  -1.80941E+4   8.24546E+3
  -1.79292E+4   8.16448E+3
  -1.77843E+4   8.16786E+3
  -1.76601E+4   8.07646E+3
  -1.74752E+4   8.09005E+3
  -1.73449E+4   8.16342E+3
  -1.72134E+4   8.17098E+3
  -1.71125E+4   8.19301E+3
  -1.69442E+4   8.15851E+3
  -1.68724E+4   8.18502E+3
  -1.68082E+4   8.22487E+3
  -1.66738E+4   8.15775E+3
  -1.64777E+4   8.17221E+3
  -1.63290E+4   8.13112E+3
  -1.62842E+4   8.10033E+3
  -1.61056E+4   8.18708E+3
  -1.60326E+4   8.19645E+3
  -1.58097E+4   8.08673E+3
  -1.56764E+4   8.11698E+3
  -1.55239E+4   8.17584E+3
  -1.54241E+4   8.17529E+3
  -1.52827E+4   8.15767E+3
  -1.50949E+4   8.09601E+3
  -1.49630E+4   8.19991E+3
  -1.48372E+4   8.14428E+3
  -1.46987E+4   8.17411E+3
  -1.45950E+4   8.15895E+3
  -1.44492E+4   8.15846E+3
  -1.42824E+4   8.20941E+3
  -1.41894E+4   8.11668E+3
  -1.40635E+4   8.09675E+3
  -1.39218E+4   8.06360E+3
  -1.37643E+4   8.04525E+3
  -1.36266E+4   8.03536E+3
  -1.35751E+4   7.97443E+3
  -1.34034E+4   8.00705E+3
  -1.33170E+4   8.03631E+3
  -1.31209E+4   8.02322E+3
  -1.30281E+4   7.95605E+3
  -1.29110E+4   7.96550E+3
  -1.26920E+4   7.95681E+3
  -1.25461E+4   7.99881E+3
  -1.25524E+4   7.94759E+3
  -1.24025E+4   7.99194E+3
  -1.22995E+4   7.79531E+3
  -1.20706E+4   7.87240E+3
  -1.19419E+4   7.90278E+3
  -1.19654E+4   7.85572E+3
  -1.17319E+4   7.87594E+3
  -1.16867E+4   7.81047E+3
  -1.15399E+4   7.79670E+3
  -1.13258E+4   7.73218E+3
  -1.12996E+4   7.72178E+3
  -1.11140E+4   7.64854E+3
  -1.10177E+4   7.58274E+3
  -1.08841E+4   7.74073E+3
  -1.07432E+4   7.72931E+3
  -1.05791E+4   7.69643E+3
  -1.05015E+4   7.66446E+3
  -1.03901E+4   7.62462E+3
  -1.02340E+4   7.63647E+3
  -1.00588E+4   7.62092E+3
  -9.92745E+3   7.69330E+3
  -9.89113E+3   7.67249E+3
  -9.68531E+3   7.68895E+3
  -9.59816E+3   7.72102E+3
  -9.50628E+3   7.64787E+3
  -9.37624E+3   7.59410E+3
  -9.27336E+3   7.69845E+3
  -9.14019E+3   7.70571E+3
  -8.97833E+3   7.69597E+3
  -8.92630E+3   7.75640E+3
  -8.74561E+3   7.75605E+3
  -8.65439E+3   7.73615E+3
  -8.56960E+3   7.74247E+3
  -8.50112E+3   7.76820E+3
  -8.35576E+3   7.73300E+3
  -8.14088E+3   7.82062E+3
  -8.11541E+3   7.84635E+3
  -8.03332E+3   7.78737E+3
  -7.92937E+3   7.79868E+3
  -7.77823E+3   7.86708E+3
  -7.65778E+3   7.90224E+3
  -7.56273E+3   7.89921E+3
  -7.50349E+3   7.90607E+3
  -7.42189E+3   7.93486E+3
  -7.29202E+3   7.87051E+3
  -7.23640E+3   7.91418E+3
  -7.17815E+3   7.90106E+3
  -7.04765E+3   7.89535E+3
  -6.94350E+3   7.95416E+3
  -6.88799E+3   8.02137E+3
  -6.81264E+3   8.04165E+3
  -6.81786E+3   8.05056E+3
  -6.64018E+3   8.07489E+3
  -6.60232E+3   8.01476E+3
  -6.56077E+3   8.04722E+3
  -6.45322E+3   8.00434E+3
  -6.26672E+3   8.00983E+3
  -6.29107E+3   8.02903E+3
  -6.19485E+3   8.02313E+3
  -6.13285E+3   7.99259E+3
  -6.06454E+3   8.00111E+3
  -5.99297E+3   8.00098E+3
  -5.88787E+3   8.00959E+3
  -5.78950E+3   7.96796E+3
  -5.74046E+3   7.95932E+3
  -5.67162E+3   8.00938E+3
  -5.62426E+3   7.96734E+3
  -5.54182E+3   8.00581E+3
  -5.46522E+3   7.95270E+3
  -5.40157E+3   7.90792E+3
  -5.33043E+3   7.91486E+3
  -5.30523E+3   7.95859E+3
  -5.16656E+3   8.02855E+3
  -5.17214E+3   7.88848E+3
  -5.08995E+3   7.86443E+3
  -5.02653E+3   7.95206E+3
  -4.96942E+3   7.85277E+3
  -4.92985E+3   7.91618E+3
  -4.78433E+3   7.86852E+3
  -4.74925E+3   7.86313E+3
  -4.69156E+3   7.89965E+3
  -4.64902E+3   7.83370E+3
  -4.69609E+3   7.82298E+3
  -4.57050E+3   7.78704E+3
  -4.48965E+3   7.81034E+3
  -4.42495E+3   7.78550E+3
  -4.35803E+3   7.75635E+3
  -4.23926E+3   7.80641E+3
  -4.24705E+3   7.74787E+3
  -4.17108E+3   7.74791E+3
  -4.14689E+3   7.71178E+3
  -4.10437E+3   7.70670E+3
  -4.05322E+3   7.67340E+3
  -3.99066E+3   7.64484E+3
  -4.00263E+3   7.61773E+3
  -3.85481E+3   7.64761E+3
  -3.85271E+3   7.57798E+3
  -3.80043E+3   7.61918E+3
  -3.69927E+3   7.58494E+3
  -3.66789E+3   7.50979E+3
  -3.61344E+3   7.55635E+3
  -3.60934E+3   7.52240E+3
  -3.56109E+3   7.54338E+3
  -3.51818E+3   7.50245E+3
  -3.49489E+3   7.47866E+3
  -3.39913E+3   7.37438E+3
  -3.40720E+3   7.40637E+3
  -3.35597E+3   7.35336E+3
  -3.30866E+3   7.36089E+3
  -3.23936E+3   7.28746E+3
  -3.20864E+3   7.29330E+3
  -3.13104E+3   7.17382E+3
  -3.08196E+3   7.19891E+3
  -3.00803E+3   7.19149E+3
  -2.99162E+3   7.15000E+3
  -2.98747E+3   7.14505E+3
  -2.93739E+3   7.10777E+3
  -2.80489E+3   7.12762E+3
  -2.84819E+3   7.08428E+3
  -2.86979E+3   7.02311E+3
  -2.72822E+3   7.00353E+3
  -2.74995E+3   6.93980E+3
  -2.67294E+3   6.89552E+3
  -2.65075E+3   6.89892E+3
  -2.62715E+3   6.82661E+3
  -2.52929E+3   6.82191E+3
  -2.52925E+3   6.74663E+3
  -2.45807E+3   6.68923E+3
  -2.39911E+3   6.75735E+3
  -2.38242E+3   6.69961E+3
  -2.31519E+3   6.68106E+3
  -2.30446E+3   6.63028E+3
  -2.29853E+3   6.59586E+3
  -2.25122E+3   6.60725E+3
  -2.14970E+3   6.49573E+3
  -2.15713E+3   6.46713E+3
  -2.14675E+3   6.42911E+3
  -2.15299E+3   6.43698E+3
  -2.03895E+3   6.40822E+3
  -2.01775E+3   6.37566E+3
  -1.96978E+3   6.36518E+3
  -1.93296E+3   6.29805E+3
  -1.89174E+3   6.25890E+3
  -1.79485E+3   6.14755E+3
  -1.81184E+3   6.15382E+3
  -1.82277E+3   6.17691E+3
  -1.73140E+3   6.11370E+3
  -1.68672E+3   6.10603E+3
  -1.70142E+3   6.03421E+3
  -1.66603E+3   6.01937E+3
  -1.68544E+3   5.99618E+3
  -1.53466E+3   5.93929E+3
  -1.57334E+3   5.95081E+3
  -1.46698E+3   5.86853E+3
  -1.47956E+3   5.83058E+3
  -1.45573E+3   5.86528E+3
  -1.37213E+3   5.76847E+3
  -1.40093E+3   5.72017E+3
  -1.33630E+3   5.71712E+3
  -1.30343E+3   5.63782E+3
  -1.28063E+3   5.65289E+3
  -1.24280E+3   5.62902E+3
  -1.19529E+3   5.53302E+3
  -1.15916E+3   5.52204E+3
  -1.12377E+3   5.44822E+3
  -1.10544E+3   5.45818E+3
  -1.17586E+3   5.43496E+3
  -1.10553E+3   5.39013E+3
  -1.04679E+3   5.32334E+3
  -9.44649E+2   5.36270E+3
  -9.94171E+2   5.27606E+3
  -9.10645E+2   5.29206E+3
  -9.34075E+2   5.22157E+3
  -8.30490E+2   5.18330E+3
  -8.54573E+2   5.19402E+3
  -7.84257E+2   5.16684E+3
  -8.59816E+2   5.09311E+3
  -8.17836E+2   5.12582E+3
  -7.14542E+2   5.06336E+3
  -8.15007E+2   5.01553E+3
  -7.20206E+2   4.98628E+3
  -7.25038E+2   4.92010E+3
  -6.74070E+2   4.96315E+3
  -6.87939E+2   4.93667E+3
  -5.69119E+2   4.90647E+3
  -6.24794E+2   4.80305E+3
  -5.50598E+2   4.79798E+3
  -5.30960E+2   4.78160E+3
  -5.30568E+2   4.80287E+3
  -5.23276E+2   4.76968E+3
  -3.93762E+2   4.72121E+3
  -4.42899E+2   4.65853E+3
  -4.43628E+2   4.57967E+3
  -4.03185E+2   4.59998E+3
  -4.34687E+2   4.58357E+3
  -4.00715E+2   4.53803E+3
  -3.37882E+2   4.56567E+3
  -3.09018E+2   4.50407E+3
  -3.33951E+2   4.43748E+3
  -2.87333E+2   4.39536E+3
  -2.49462E+2   4.41576E+3
  -2.06136E+2   4.42364E+3
  -2.88531E+2   4.37757E+3
  -2.07369E+2   4.29648E+3
  -2.01072E+2   4.33179E+3
  -1.72785E+2   4.29082E+3
  -1.89726E+2   4.27174E+3
  -1.84054E+2   4.16487E+3
  -1.23660E+2   4.18304E+3
  -1.06818E+2   4.15822E+3
  -9.11676E+1   4.09292E+3
  -9.32414E+1   4.08640E+3
  -8.15825E+1   4.06462E+3
  -3.39352E+1   3.95604E+3
  -3.03000E+1   3.99955E+3
  -2.90353E+1   3.96518E+3
   1.89827E+0   3.97449E+3
  -1.06722E+1   3.86799E+3
   7.94497E+1   3.94783E+3
   6.54309E+0   3.87290E+3
   7.81185E+1   3.87568E+3
   1.45301E+2   3.80588E+3
   1.07890E+2   3.81593E+3
   8.97291E+1   3.83804E+3
   9.62862E+1   3.77296E+3
   8.60132E+1   3.71984E+3
   1.59117E+2   3.75220E+3
   1.76604E+2   3.69317E+3
   2.23032E+2   3.60413E+3
   2.26783E+2   3.58799E+3
   2.62554E+2   3.57130E+3
   2.43493E+2   3.61463E+3
   3.12542E+2   3.48199E+3
   2.22199E+2   3.52087E+3
   2.38015E+2   3.46399E+3
   2.63022E+2   3.47106E+3
   2.47467E+2   3.42539E+3
   2.89853E+2   3.42039E+3
   3.17948E+2   3.34984E+3
   3.21466E+2   3.43525E+3
   3.26733E+2   3.34758E+3
   3.90709E+2   3.30751E+3
   3.14429E+2   3.26252E+3
   3.80704E+2   3.26325E+3
   4.51992E+2   3.24884E+3
   4.37183E+2   3.23515E+3
   4.37470E+2   3.19953E+3
   4.32013E+2   3.17066E+3
   4.95094E+2   3.18445E+3
   4.72030E+2   3.17903E+3
   5.20918E+2   3.11276E+3
   4.25526E+2   3.08310E+3
   4.65662E+2   3.02867E+3
   5.61556E+2   3.05891E+3
   5.61468E+2   3.00106E+3
   5.13611E+2   2.98894E+3
   5.22607E+2   3.03565E+3
   5.61616E+2   2.95733E+3
   6.05898E+2   2.87987E+3
   5.16551E+2   2.91729E+3
   6.00396E+2   2.90339E+3
   6.07186E+2   2.87653E+3
   6.64771E+2   2.81436E+3
   5.67720E+2   2.77452E+3
   6.03030E+2   2.84479E+3
   6.23399E+2   2.74017E+3
   6.22728E+2   2.70755E+3
   6.39520E+2   2.69876E+3
   6.01064E+2   2.68236E+3
