 
 $NMID
 ID=''
 FMTDAT='(2E13.5)'
 TRAMP=   1.00000E+0
 VOLUME=   1.00000E+0
 $END
  -4.05651E+3   1.82099E+4
  -2.24582E+4   4.22814E+4
  -1.38939E+4   4.58056E+4
  -1.18141E+4   4.22605E+4
  -1.27826E+4   4.33681E+4
  -9.91623E+3   4.40818E+4
  -8.98702E+3   4.21059E+4
  -9.21393E+3   4.23287E+4
  -7.25649E+3   4.24485E+4
  -6.35014E+3   4.11446E+4
  -6.17996E+3   4.10170E+4
  -4.45064E+3   4.09559E+4
  -3.51300E+3   3.98255E+4
  -3.31750E+3   3.96312E+4
  -1.96229E+3   3.94235E+4
  -1.09107E+3   3.84255E+4
  -8.28988E+2   3.80689E+4
   3.49611E+2   3.77085E+4
   1.16869E+3   3.67344E+4
   1.58555E+3   3.62782E+4
   2.54548E+3   3.56823E+4
   3.37248E+3   3.47912E+4
   3.81869E+3   3.42167E+4
   4.61806E+3   3.36688E+4
   5.37171E+3   3.25408E+4
   5.95426E+3   3.19669E+4
   6.59263E+3   3.13214E+4
   7.26369E+3   3.04065E+4
   7.57531E+3   2.97067E+4
   8.23574E+3   2.90220E+4
   9.03076E+3   2.82283E+4
   9.42530E+3   2.75233E+4
   9.94699E+3   2.70437E+4
   1.04988E+4   2.61407E+4
   1.09355E+4   2.54461E+4
   1.14441E+4   2.48222E+4
   1.18938E+4   2.40809E+4
   1.22445E+4   2.35153E+4
   1.26045E+4   2.29493E+4
   1.29515E+4   2.22492E+4
   1.30955E+4   2.17281E+4
   1.32995E+4   2.12165E+4
   1.32824E+4   2.05220E+4
   1.33409E+4   2.00108E+4
   1.33417E+4   1.94038E+4
   1.34022E+4   1.88051E+4
   1.33527E+4   1.82115E+4
   1.33411E+4   1.76902E+4
   1.31989E+4   1.70320E+4
   1.30829E+4   1.64826E+4
   1.29075E+4   1.59615E+4
   1.27391E+4   1.53127E+4
   1.25655E+4   1.47123E+4
   1.24369E+4   1.40787E+4
   1.21104E+4   1.35989E+4
   1.18782E+4   1.30679E+4
   1.16619E+4   1.25110E+4
   1.13851E+4   1.20222E+4
   1.10630E+4   1.14448E+4
   1.07799E+4   1.08482E+4
   1.04626E+4   1.03702E+4
   1.01918E+4   9.85324E+3
   9.79227E+3   9.34939E+3
   9.58704E+3   8.92078E+3
   9.20333E+3   8.49209E+3
   8.87190E+3   8.09486E+3
   8.61141E+3   7.66737E+3
   8.22929E+3   7.23686E+3
   7.85741E+3   6.90369E+3
   7.48344E+3   6.52304E+3
   7.17671E+3   6.12522E+3
   6.74480E+3   5.75144E+3
   6.52312E+3   5.49596E+3
   6.13734E+3   5.11250E+3
   5.80138E+3   4.78809E+3
   5.42379E+3   4.56568E+3
   5.13773E+3   4.24209E+3
   4.76024E+3   4.03869E+3
   4.40074E+3   3.74774E+3
   4.05401E+3   3.54424E+3
   3.82796E+3   3.21602E+3
   3.50464E+3   3.11242E+3
   3.24061E+3   2.91761E+3
   2.97924E+3   2.74586E+3
   2.69444E+3   2.55543E+3
   2.43097E+3   2.36222E+3
   2.20956E+3   2.25338E+3
   1.99604E+3   2.10518E+3
   1.74400E+3   1.98368E+3
   1.61947E+3   1.86654E+3
   1.42364E+3   1.67144E+3
   1.18448E+3   1.65685E+3
   1.12481E+3   1.56646E+3
   1.01137E+3   1.48467E+3
   8.40794E+2   1.48353E+3
   6.85677E+2   1.45357E+3
   6.37036E+2   1.34991E+3
   5.69475E+2   1.33906E+3
   5.22101E+2   1.32788E+3
   4.58072E+2   1.30276E+3
   4.17544E+2   1.28349E+3
   3.88116E+2   1.38246E+3
   3.81293E+2   1.34561E+3
   3.86386E+2   1.36781E+3
   3.84041E+2   1.46193E+3
   4.01584E+2   1.46934E+3
   3.99621E+2   1.55141E+3
   5.13419E+2   1.63288E+3
   5.07913E+2   1.73616E+3
   5.15566E+2   1.85172E+3
   5.62249E+2   1.84984E+3
   6.07064E+2   1.98154E+3
   6.57562E+2   2.05981E+3
   6.92470E+2   2.19711E+3
   7.56855E+2   2.30916E+3
   8.80727E+2   2.42825E+3
   9.05745E+2   2.55656E+3
   9.21705E+2   2.64564E+3
   1.00686E+3   2.84094E+3
   1.02976E+3   2.88901E+3
   1.00719E+3   2.95606E+3
   1.12470E+3   3.15900E+3
   1.15449E+3   3.22387E+3
   1.20003E+3   3.40301E+3
   1.24579E+3   3.42793E+3
   1.29485E+3   3.61616E+3
   1.25926E+3   3.71310E+3
   1.25344E+3   3.76410E+3
   1.30146E+3   3.87682E+3
   1.33124E+3   3.98823E+3
   1.36618E+3   4.00554E+3
   1.37110E+3   4.09969E+3
   1.33733E+3   4.17332E+3
   1.32352E+3   4.22308E+3
   1.31007E+3   4.29320E+3
   1.32402E+3   4.34752E+3
   1.30924E+3   4.42239E+3
   1.29421E+3   4.41994E+3
   1.31839E+3   4.38435E+3
   1.29942E+3   4.47360E+3
   1.22511E+3   4.46703E+3
   1.21351E+3   4.44606E+3
   1.16035E+3   4.42026E+3
   1.17414E+3   4.36831E+3
   1.17267E+3   4.37635E+3
   1.15471E+3   4.35582E+3
   1.09933E+3   4.33463E+3
   1.10643E+3   4.29035E+3
   1.06612E+3   4.24332E+3
   1.07274E+3   4.15522E+3
   1.06284E+3   4.11167E+3
   1.06995E+3   4.04431E+3
   1.02144E+3   3.98538E+3
   9.77870E+2   3.97524E+3
   9.58274E+2   3.78614E+3
   9.83382E+2   3.69134E+3
   8.96501E+2   3.64482E+3
   8.79729E+2   3.56388E+3
   9.09119E+2   3.47866E+3
   8.85581E+2   3.33564E+3
   8.82667E+2   3.27900E+3
   8.12060E+2   3.17875E+3
   7.78971E+2   3.13742E+3
   8.02298E+2   3.00502E+3
   7.93673E+2   3.02459E+3
   8.35167E+2   2.91859E+3
   7.97055E+2   2.80112E+3
   7.39889E+2   2.71560E+3
   8.04603E+2   2.58808E+3
   7.14745E+2   2.54351E+3
   6.66842E+2   2.44899E+3
   7.11191E+2   2.37472E+3
   7.21378E+2   2.39714E+3
   6.62445E+2   2.23774E+3
   6.82920E+2   2.14286E+3
   6.54945E+2   2.05420E+3
   6.20276E+2   2.01353E+3
   6.24889E+2   1.95128E+3
   5.58430E+2   1.88780E+3
   5.64324E+2   1.78466E+3
   5.02349E+2   1.75314E+3
   5.30858E+2   1.77894E+3
   5.06794E+2   1.68931E+3
   4.55691E+2   1.55158E+3
   4.75097E+2   1.56975E+3
   4.24134E+2   1.51309E+3
   3.35093E+2   1.44747E+3
   3.28998E+2   1.39144E+3
   3.10386E+2   1.40559E+3
   2.65052E+2   1.30125E+3
   1.92424E+2   1.24194E+3
   2.06716E+2   1.25570E+3
   1.74049E+2   1.19892E+3
   1.02060E+2   1.21695E+3
   1.28594E+2   1.17408E+3
   7.76008E+1   1.12681E+3
   3.15952E+1   1.08850E+3
   7.65480E+0   1.06598E+3
  -7.83150E+1   1.11542E+3
  -1.53655E+2   9.94487E+2
  -1.19516E+2   1.04265E+3
  -1.67184E+2   1.06331E+3
  -9.21756E+1   1.01584E+3
  -2.06860E+2   9.22774E+2
  -2.44389E+2   9.81832E+2
  -2.06054E+2   1.01373E+3
  -2.79296E+2   8.96817E+2
  -3.28355E+2   9.62311E+2
  -3.43297E+2   9.04227E+2
  -3.63763E+2   9.21029E+2
  -3.93843E+2   9.32277E+2
  -4.42250E+2   8.48799E+2
  -4.22699E+2   8.97819E+2
  -4.56400E+2   8.37200E+2
  -4.11169E+2   8.60881E+2
  -4.48964E+2   8.56401E+2
  -4.84443E+2   7.64748E+2
  -4.65595E+2   7.92612E+2
  -5.64556E+2   7.77010E+2
  -5.15764E+2   7.92658E+2
  -4.95181E+2   8.17763E+2
  -6.25314E+2   8.23037E+2
  -5.75661E+2   7.81225E+2
  -5.27956E+2   8.52997E+2
  -5.27396E+2   8.32479E+2
  -5.77982E+2   8.09587E+2
  -5.84309E+2   8.51365E+2
  -5.73323E+2   8.51336E+2
  -5.37036E+2   8.46056E+2
  -5.55580E+2   8.45079E+2
  -5.93543E+2   8.69817E+2
  -5.66575E+2   8.93921E+2
  -5.82383E+2   9.23052E+2
  -5.18712E+2   8.96155E+2
  -5.34877E+2   9.20509E+2
  -5.77007E+2   8.48459E+2
  -5.76700E+2   9.12788E+2
  -5.20357E+2   8.72964E+2
  -5.25896E+2   9.51700E+2
  -5.16827E+2   9.11522E+2
  -5.30185E+2   9.89471E+2
  -5.04458E+2   9.69936E+2
  -5.28106E+2   9.61489E+2
  -4.67337E+2   9.57492E+2
  -4.28995E+2   1.03537E+3
  -5.38910E+2   1.05397E+3
  -4.73979E+2   1.04319E+3
  -4.03806E+2   1.05281E+3
  -4.89249E+2   1.00755E+3
  -4.62823E+2   9.96834E+2
  -5.13200E+2   9.79548E+2
  -5.24407E+2   1.05803E+3
  -4.31508E+2   9.81895E+2
  -4.38305E+2   9.95169E+2
  -4.12090E+2   1.05046E+3
  -4.39136E+2   1.06076E+3
  -4.04515E+2   1.05412E+3
  -3.91270E+2   1.08033E+3
  -4.19184E+2   1.04462E+3
  -4.11773E+2   1.02514E+3
  -4.24183E+2   1.01784E+3
  -3.85410E+2   1.02039E+3
  -4.13757E+2   1.01972E+3
  -3.40476E+2   1.01906E+3
  -3.63222E+2   9.92654E+2
  -4.59481E+2   1.00473E+3
  -3.44680E+2   1.03382E+3
  -3.32102E+2   9.89101E+2
  -3.38386E+2   9.64119E+2
  -3.86934E+2   9.94537E+2
  -3.48794E+2   9.97968E+2
  -3.76055E+2   1.03096E+3
  -3.00809E+2   1.01077E+3
  -2.88343E+2   8.90662E+2
  -3.02488E+2   9.22336E+2
  -2.98017E+2   9.65182E+2
  -2.99708E+2   9.48034E+2
  -3.06227E+2   9.18761E+2
  -2.69029E+2   9.06724E+2
  -3.08830E+2   9.60914E+2
  -3.01709E+2   8.94124E+2
  -3.38884E+2   8.96163E+2
  -2.48458E+2   8.91563E+2
  -2.61497E+2   8.60890E+2
  -2.79124E+2   9.25929E+2
  -2.36280E+2   9.00941E+2
  -2.91904E+2   8.23585E+2
  -2.01768E+2   8.57989E+2
  -2.76735E+2   7.92761E+2
  -2.29069E+2   8.91268E+2
  -2.25019E+2   7.69458E+2
  -2.69225E+2   8.28227E+2
  -2.29640E+2   8.58405E+2
  -2.50461E+2   7.55587E+2
  -2.86094E+2   7.38319E+2
  -2.49557E+2   7.50100E+2
  -2.42999E+2   8.02179E+2
  -2.49381E+2   7.30699E+2
  -2.54740E+2   7.49526E+2
  -2.25609E+2   6.86856E+2
  -1.42864E+2   7.44264E+2
  -2.25671E+2   7.23276E+2
  -2.49968E+2   6.94433E+2
  -3.01205E+2   7.14000E+2
  -2.77673E+2   7.07330E+2
  -1.85437E+2   7.05836E+2
  -2.09796E+2   7.23046E+2
  -2.68581E+2   6.44075E+2
  -2.49895E+2   7.37464E+2
  -2.91820E+2   6.58664E+2
  -2.15469E+2   6.58907E+2
  -2.54756E+2   6.46073E+2
  -2.57835E+2   6.65202E+2
  -3.15651E+2   6.05330E+2
  -2.38238E+2   5.90901E+2
  -2.40277E+2   6.83054E+2
  -2.78879E+2   6.19772E+2
  -3.19376E+2   5.67154E+2
  -2.71440E+2   6.59430E+2
  -2.75874E+2   6.92036E+2
  -2.20508E+2   6.29120E+2
  -2.81781E+2   6.45776E+2
  -2.89492E+2   6.67911E+2
  -2.55993E+2   6.50219E+2
  -2.82526E+2   6.44831E+2
  -2.70118E+2   6.35013E+2
  -2.79307E+2   6.09063E+2
  -2.81741E+2   6.54667E+2
  -3.32010E+2   6.73677E+2
  -2.46279E+2   5.79079E+2
  -2.38862E+2   6.63885E+2
  -2.88295E+2   6.46065E+2
  -2.96123E+2   6.43289E+2
  -2.59574E+2   6.51435E+2
  -2.42286E+2   6.60341E+2
  -2.44374E+2   6.38081E+2
  -2.25749E+2   7.32285E+2
  -2.50322E+2   6.47273E+2
  -2.51499E+2   6.58328E+2
  -2.23973E+2   6.95682E+2
  -1.67381E+2   6.90042E+2
  -2.61983E+2   7.02511E+2
  -2.41445E+2   6.66728E+2
  -2.37347E+2   6.88910E+2
  -2.47549E+2   7.00763E+2
  -2.47425E+2   6.58438E+2
  -2.87697E+2   7.27804E+2
  -2.54579E+2   7.17553E+2
  -2.29764E+2   7.76283E+2
  -1.77213E+2   7.67878E+2
  -2.83127E+2   7.46573E+2
  -2.94847E+2   7.29028E+2
  -3.09117E+2   7.16505E+2
  -2.14761E+2   7.80258E+2
  -2.73930E+2   7.07441E+2
  -2.97613E+2   7.02768E+2
  -1.78075E+2   7.18463E+2
  -2.20282E+2   7.10774E+2
  -1.76396E+2   7.29844E+2
  -2.08545E+2   6.50262E+2
  -2.34388E+2   7.19439E+2
  -2.08936E+2   7.25126E+2
  -2.56164E+2   7.12793E+2
  -2.29097E+2   7.71456E+2
  -2.57031E+2   7.05946E+2
  -2.50958E+2   7.09667E+2
  -1.80104E+2   7.12686E+2
