 
 $NMID
 ID=''
 FMTDAT='(2E13.5)'
 TRAMP=   1.00000E+0
 VOLUME=   1.00000E+0
 $END
  -2.17668E+4  -2.79136E+3
  -5.18758E+4  -2.25753E+4
  -5.49615E+4  -1.29389E+4
  -5.08358E+4  -1.17056E+4
  -5.24481E+4  -1.35727E+4
  -5.29739E+4  -1.10973E+4
  -5.09189E+4  -1.09550E+4
  -5.13960E+4  -1.21189E+4
  -5.17589E+4  -1.05639E+4
  -5.04401E+4  -1.04354E+4
  -5.04896E+4  -1.11222E+4
  -5.06524E+4  -9.79863E+3
  -4.98410E+4  -9.49541E+3
  -4.99326E+4  -1.00619E+4
  -4.98959E+4  -9.28125E+3
  -4.90701E+4  -8.85580E+3
  -4.90716E+4  -9.25196E+3
  -4.89148E+4  -8.47987E+3
  -4.82983E+4  -8.16075E+3
  -4.82745E+4  -8.34929E+3
  -4.81157E+4  -7.70092E+3
  -4.75473E+4  -7.15239E+3
  -4.75707E+4  -7.19532E+3
  -4.74068E+4  -6.79700E+3
  -4.67440E+4  -6.39101E+3
  -4.66895E+4  -6.19931E+3
  -4.65661E+4  -5.93025E+3
  -4.60874E+4  -5.76654E+3
  -4.58587E+4  -5.76478E+3
  -4.55983E+4  -5.37257E+3
  -4.52458E+4  -5.08427E+3
  -4.52362E+4  -4.97413E+3
  -4.49655E+4  -4.82659E+3
  -4.46153E+4  -4.54699E+3
  -4.43775E+4  -4.41050E+3
  -4.41962E+4  -4.17966E+3
  -4.37830E+4  -3.87245E+3
  -4.35931E+4  -3.74675E+3
  -4.33685E+4  -3.32827E+3
  -4.30401E+4  -3.13768E+3
  -4.29453E+4  -3.02445E+3
  -4.26598E+4  -2.97968E+3
  -4.22533E+4  -2.91414E+3
  -4.19484E+4  -2.76402E+3
  -4.17388E+4  -2.49558E+3
  -4.14307E+4  -2.37234E+3
  -4.12454E+4  -2.31538E+3
  -4.09496E+4  -2.10727E+3
  -4.06918E+4  -1.94333E+3
  -4.04277E+4  -1.80580E+3
  -4.01470E+4  -1.68835E+3
  -3.97821E+4  -1.58513E+3
  -3.94543E+4  -1.33373E+3
  -3.92468E+4  -1.07050E+3
  -3.90180E+4  -1.02604E+3
  -3.87395E+4  -8.66853E+2
  -3.85744E+4  -7.49887E+2
  -3.83216E+4  -5.80807E+2
  -3.79440E+4  -5.37709E+2
  -3.76903E+4  -3.41975E+2
  -3.73627E+4  -2.13147E+2
  -3.71105E+4   1.42854E+1
  -3.68425E+4   1.06559E+2
  -3.66798E+4   2.94735E+2
  -3.63604E+4   3.12636E+2
  -3.60696E+4   5.76073E+2
  -3.58832E+4   7.63071E+2
  -3.56807E+4   8.68643E+2
  -3.53335E+4   1.06870E+3
  -3.51079E+4   1.15646E+3
  -3.49302E+4   1.34784E+3
  -3.46203E+4   1.43418E+3
  -3.43821E+4   1.56735E+3
  -3.41481E+4   1.78484E+3
  -3.39323E+4   1.95587E+3
  -3.36580E+4   2.13380E+3
  -3.34370E+4   2.31904E+3
  -3.31771E+4   2.47640E+3
  -3.29811E+4   2.56627E+3
  -3.27507E+4   2.87098E+3
  -3.25871E+4   2.97828E+3
  -3.24003E+4   3.16616E+3
  -3.20967E+4   3.24559E+3
  -3.19373E+4   3.38383E+3
  -3.18056E+4   3.50771E+3
  -3.15999E+4   3.58174E+3
  -3.12626E+4   3.64067E+3
  -3.11216E+4   3.77083E+3
  -3.08241E+4   3.94702E+3
  -3.07075E+4   4.14849E+3
  -3.05049E+4   4.24491E+3
  -3.02991E+4   4.26488E+3
  -3.00693E+4   4.49733E+3
  -2.99392E+4   4.62684E+3
  -2.96769E+4   4.62641E+3
  -2.94474E+4   4.75948E+3
  -2.91871E+4   4.89744E+3
  -2.90655E+4   5.02289E+3
  -2.89028E+4   5.13585E+3
  -2.86318E+4   5.20017E+3
  -2.84234E+4   5.24980E+3
  -2.82318E+4   5.35987E+3
  -2.80936E+4   5.48501E+3
  -2.78255E+4   5.64011E+3
  -2.76638E+4   5.70711E+3
  -2.74692E+4   5.73330E+3
  -2.72510E+4   5.81797E+3
  -2.71468E+4   5.90964E+3
  -2.69224E+4   5.98323E+3
  -2.66224E+4   6.12033E+3
  -2.64778E+4   6.18726E+3
  -2.63178E+4   6.34182E+3
  -2.61096E+4   6.39768E+3
  -2.59461E+4   6.44824E+3
  -2.57792E+4   6.52236E+3
  -2.55682E+4   6.55550E+3
  -2.53524E+4   6.60430E+3
  -2.51120E+4   6.64549E+3
  -2.48598E+4   6.70654E+3
  -2.47076E+4   6.73921E+3
  -2.45811E+4   6.86257E+3
  -2.44419E+4   6.91547E+3
  -2.41562E+4   6.94638E+3
  -2.39172E+4   6.96154E+3
  -2.37507E+4   7.09186E+3
  -2.35534E+4   7.12174E+3
  -2.33534E+4   7.11870E+3
  -2.31570E+4   7.20775E+3
  -2.29912E+4   7.23430E+3
  -2.27201E+4   7.28442E+3
  -2.24970E+4   7.27461E+3
  -2.23251E+4   7.36262E+3
  -2.20856E+4   7.41959E+3
  -2.18674E+4   7.47097E+3
  -2.17234E+4   7.53462E+3
  -2.15281E+4   7.60564E+3
  -2.14366E+4   7.59163E+3
  -2.12234E+4   7.65283E+3
  -2.09730E+4   7.67248E+3
  -2.07627E+4   7.74267E+3
  -2.05069E+4   7.70392E+3
  -2.03809E+4   7.79855E+3
  -2.02329E+4   7.85710E+3
  -2.00649E+4   7.83072E+3
  -1.98922E+4   7.91811E+3
  -1.96983E+4   7.93875E+3
  -1.94429E+4   7.96052E+3
  -1.93596E+4   7.96196E+3
  -1.91399E+4   7.94469E+3
  -1.90015E+4   7.97004E+3
  -1.88007E+4   8.06279E+3
  -1.85363E+4   7.99510E+3
  -1.83676E+4   8.11237E+3
  -1.82602E+4   8.04609E+3
  -1.80467E+4   8.03722E+3
  -1.79189E+4   8.02176E+3
  -1.77658E+4   8.08745E+3
  -1.75994E+4   8.10369E+3
  -1.73634E+4   8.12036E+3
  -1.72687E+4   8.07149E+3
  -1.70483E+4   8.09861E+3
  -1.68821E+4   8.04757E+3
  -1.66887E+4   8.04829E+3
  -1.65749E+4   8.06842E+3
  -1.64009E+4   8.06079E+3
  -1.62733E+4   8.02817E+3
  -1.60852E+4   8.00478E+3
  -1.58419E+4   8.09275E+3
  -1.56757E+4   8.01962E+3
  -1.55164E+4   8.01562E+3
  -1.54132E+4   8.02092E+3
  -1.52033E+4   8.02001E+3
  -1.50117E+4   8.00228E+3
  -1.49162E+4   7.96990E+3
  -1.47530E+4   7.97121E+3
  -1.45004E+4   8.00491E+3
  -1.43082E+4   7.89490E+3
  -1.42248E+4   7.97300E+3
  -1.40815E+4   7.99807E+3
  -1.39331E+4   7.91903E+3
  -1.37827E+4   7.82949E+3
  -1.35941E+4   7.91506E+3
  -1.33971E+4   7.83120E+3
  -1.33248E+4   7.84035E+3
  -1.31278E+4   7.81345E+3
  -1.29784E+4   7.85505E+3
  -1.28004E+4   7.84377E+3
  -1.27306E+4   7.79143E+3
  -1.25587E+4   7.73893E+3
  -1.23857E+4   7.67393E+3
  -1.22100E+4   7.67032E+3
  -1.20519E+4   7.73492E+3
  -1.19168E+4   7.69496E+3
  -1.18276E+4   7.72169E+3
  -1.16398E+4   7.58807E+3
  -1.15468E+4   7.61039E+3
  -1.14324E+4   7.62211E+3
  -1.12796E+4   7.58852E+3
  -1.11147E+4   7.55760E+3
  -1.09781E+4   7.52573E+3
  -1.09049E+4   7.56899E+3
  -1.08197E+4   7.45021E+3
  -1.06729E+4   7.44489E+3
  -1.05615E+4   7.34801E+3
  -1.03350E+4   7.42359E+3
  -1.02563E+4   7.39799E+3
  -1.01872E+4   7.33630E+3
  -1.00068E+4   7.39348E+3
  -9.89267E+3   7.30661E+3
  -9.81782E+3   7.28732E+3
  -9.71968E+3   7.32540E+3
  -9.61656E+3   7.25247E+3
  -9.46140E+3   7.20930E+3
  -9.37592E+3   7.24435E+3
  -9.24525E+3   7.19823E+3
  -9.14502E+3   7.19939E+3
  -9.07827E+3   7.16268E+3
  -8.88927E+3   7.13707E+3
  -8.77502E+3   7.09685E+3
  -8.71673E+3   7.02076E+3
  -8.61678E+3   7.06646E+3
  -8.50121E+3   7.05821E+3
  -8.45824E+3   7.06494E+3
  -8.35244E+3   6.99237E+3
  -8.20634E+3   6.99828E+3
  -8.12940E+3   6.95577E+3
  -8.03440E+3   6.91002E+3
  -7.95009E+3   6.93558E+3
  -7.89299E+3   6.91220E+3
  -7.80082E+3   6.90531E+3
  -7.68981E+3   6.83990E+3
  -7.57229E+3   6.84011E+3
  -7.50954E+3   6.84980E+3
  -7.43618E+3   6.80977E+3
  -7.29182E+3   6.73527E+3
  -7.20506E+3   6.76509E+3
  -7.16326E+3   6.74646E+3
  -7.06181E+3   6.70259E+3
  -6.99653E+3   6.66372E+3
  -6.92368E+3   6.65243E+3
  -6.79911E+3   6.57990E+3
  -6.75019E+3   6.61017E+3
  -6.64874E+3   6.60875E+3
  -6.59053E+3   6.60346E+3
  -6.52463E+3   6.53873E+3
  -6.45969E+3   6.56327E+3
  -6.32645E+3   6.56310E+3
  -6.29930E+3   6.48822E+3
  -6.13746E+3   6.45977E+3
  -6.12779E+3   6.45867E+3
  -6.09614E+3   6.44575E+3
  -5.99487E+3   6.41965E+3
  -5.87219E+3   6.29181E+3
  -5.83477E+3   6.39006E+3
  -5.75774E+3   6.34133E+3
  -5.67593E+3   6.36112E+3
  -5.56554E+3   6.24691E+3
  -5.53028E+3   6.28757E+3
  -5.45927E+3   6.27473E+3
  -5.36555E+3   6.19056E+3
  -5.33493E+3   6.17819E+3
  -5.29938E+3   6.19786E+3
  -5.21963E+3   6.18205E+3
  -5.12368E+3   6.11543E+3
  -5.01802E+3   6.07726E+3
  -4.91632E+3   5.99110E+3
  -4.94378E+3   6.07461E+3
  -4.83333E+3   5.96542E+3
  -4.83585E+3   6.00398E+3
  -4.74449E+3   5.92280E+3
  -4.65647E+3   5.90077E+3
  -4.52261E+3   5.89703E+3
  -4.49935E+3   5.87644E+3
  -4.43339E+3   5.88408E+3
  -4.39408E+3   5.83073E+3
  -4.38523E+3   5.79176E+3
  -4.26697E+3   5.79865E+3
  -4.23203E+3   5.80099E+3
  -4.21630E+3   5.74074E+3
  -4.12354E+3   5.71210E+3
  -4.05338E+3   5.74738E+3
  -3.94249E+3   5.66273E+3
  -3.94865E+3   5.63856E+3
  -3.91894E+3   5.61217E+3
  -3.90449E+3   5.61687E+3
  -3.79872E+3   5.62456E+3
  -3.70685E+3   5.59989E+3
  -3.75342E+3   5.49412E+3
  -3.60426E+3   5.48195E+3
  -3.54216E+3   5.52315E+3
  -3.48142E+3   5.50036E+3
  -3.47100E+3   5.47055E+3
  -3.39578E+3   5.40220E+3
  -3.39116E+3   5.38210E+3
  -3.38686E+3   5.38693E+3
  -3.31394E+3   5.42625E+3
  -3.22476E+3   5.29757E+3
  -3.16033E+3   5.30548E+3
  -3.15667E+3   5.24737E+3
  -3.07800E+3   5.23414E+3
  -3.08797E+3   5.18569E+3
  -3.02885E+3   5.20992E+3
  -2.90061E+3   5.15082E+3
  -2.89860E+3   5.08991E+3
  -2.82499E+3   5.07734E+3
  -2.80310E+3   5.09778E+3
  -2.72529E+3   5.04056E+3
  -2.74585E+3   5.13171E+3
  -2.69139E+3   4.98587E+3
  -2.62580E+3   5.02938E+3
  -2.55769E+3   4.94295E+3
  -2.49405E+3   4.94145E+3
  -2.51178E+3   4.89667E+3
  -2.46608E+3   4.94123E+3
  -2.41382E+3   4.83707E+3
  -2.33922E+3   4.86049E+3
  -2.35067E+3   4.82429E+3
  -2.32772E+3   4.73350E+3
  -2.24299E+3   4.79650E+3
  -2.22272E+3   4.70832E+3
  -2.14089E+3   4.66531E+3
  -2.18718E+3   4.68116E+3
  -2.16890E+3   4.58641E+3
  -2.11884E+3   4.55753E+3
  -2.02706E+3   4.57817E+3
  -1.98577E+3   4.58185E+3
  -1.96720E+3   4.56930E+3
  -1.89604E+3   4.51354E+3
  -1.91470E+3   4.51096E+3
  -1.85003E+3   4.44218E+3
  -1.79491E+3   4.47426E+3
  -1.77998E+3   4.49606E+3
  -1.71781E+3   4.43726E+3
  -1.69958E+3   4.37989E+3
  -1.67322E+3   4.34857E+3
  -1.60377E+3   4.36287E+3
  -1.54959E+3   4.38504E+3
  -1.59040E+3   4.32883E+3
  -1.53835E+3   4.25098E+3
  -1.52013E+3   4.26340E+3
  -1.49598E+3   4.20656E+3
  -1.42334E+3   4.18467E+3
  -1.39699E+3   4.20575E+3
  -1.37888E+3   4.13029E+3
  -1.37836E+3   4.12859E+3
  -1.28144E+3   4.06325E+3
  -1.30157E+3   4.05625E+3
  -1.26580E+3   4.03795E+3
  -1.22358E+3   4.03653E+3
  -1.24457E+3   4.01421E+3
  -1.16084E+3   3.98666E+3
  -1.15546E+3   3.90449E+3
  -1.16327E+3   3.97088E+3
  -1.10411E+3   3.93436E+3
  -1.07634E+3   3.91424E+3
  -1.03560E+3   3.84272E+3
  -1.01725E+3   3.85680E+3
  -9.99487E+2   3.83917E+3
  -1.02929E+3   3.83497E+3
  -9.11770E+2   3.79593E+3
  -9.36699E+2   3.77150E+3
  -8.70007E+2   3.72031E+3
  -9.13149E+2   3.70430E+3
  -8.95301E+2   3.66269E+3
  -8.07141E+2   3.68019E+3
  -8.01652E+2   3.63731E+3
  -7.70469E+2   3.65694E+3
