 LCModel (Version 6.3-1N) Copyright: S.W. Provencher.          Ref.: Magn. Reson. Med. 30:672-679 (1993).                
 Slice_N1@25_23  02-Jun-2023 14:38:01
 27 lines in following concentration table = NCONC+1
    Conc.  %SD /Cr+PCr  Metabolite                                         
 3.05E-06  13% 1.0E-03 Mac                                                 
 2.37E-02  31%   8.000 Cr                                                  
    0.000 999%   0.000 PCr                                                 
 4.04E-02  30%  13.622 Ins                                                 
 7.47E-02  17%  25.188 NAA                                                 
 4.44E-02  25%  14.966 Tau                                                 
    0.000 999%   0.000 PCho                                                
 5.19E-03  48%   1.750 GPC                                                 
 6.49E-02  20%  21.893 Glu                                                 
 1.27E-02  52%   4.276 Gln                                                 
 7.03E-03 113%   2.371 Ala                                                 
    0.000 999%   0.000 Asc                                                 
 4.52E-03 100%   1.522 Asp                                                 
 3.55E-03  76%   1.197 GABA                                                
 3.91E-03  72%   1.318 Glc                                                 
 5.33E-03  60%   1.796 GSH                                                 
    0.000 999%   0.000 Lac                                                 
    0.000 999%   0.000 NAAG                                                
    0.000 999%   0.000 PE                                                  
 5.19E-03  48%   1.750 GPC+PCho                                            
 7.47E-02  17%  25.188 NAA+NAAG                                            
 7.76E-02  20%  26.169 Glu+Gln                                             
 2.37E-02  31%   8.000 Cr+PCr                                              
 7.47E-02  17%  25.188 NAA+NAAG                                            
 2.37E-02  31%   8.000 Cr+PCr                                              
 7.76E-02  20%  26.169 Glu+Gln                                             
   6 lines in following misc. output table
  FWHM = 0.070 ppm    S/N =   2                                            
  Data shift = 0.169 ppm                                                   
  Ph:  -3 deg     -20.1 deg/ppm                                            
  alphaB,S = 3.1E+01,   1.2E+01                                            
   18 spline knots.   Ns = 6(2)                                            
   4 inflections.     2 extrema                                            
  654 points on ppm-axis = NY
      4.000000     3.994181     3.988363     3.982544     3.976726     3.970907     3.965088     3.959270     3.953451     3.947633
      3.941814     3.935995     3.930177     3.924358     3.918540     3.912721     3.906902     3.901084     3.895265     3.889446
      3.883628     3.877809     3.871991     3.866172     3.860353     3.854535     3.848716     3.842898     3.837079     3.831260
      3.825442     3.819623     3.813805     3.807986     3.802167     3.796349     3.790530     3.784712     3.778893     3.773074
      3.767256     3.761437     3.755619     3.749800     3.743981     3.738163     3.732344     3.726526     3.720707     3.714888
      3.709070     3.703251     3.697433     3.691614     3.685795     3.679977     3.674158     3.668339     3.662521     3.656702
      3.650884     3.645065     3.639246     3.633428     3.627609     3.621791     3.615972     3.610153     3.604335     3.598516
      3.592698     3.586879     3.581060     3.575242     3.569423     3.563605     3.557786     3.551967     3.546149     3.540330
      3.534512     3.528693     3.522874     3.517056     3.511237     3.505419     3.499600     3.493781     3.487963     3.482144
      3.476326     3.470507     3.464688     3.458870     3.453051     3.447232     3.441414     3.435595     3.429777     3.423958
      3.418139     3.412321     3.406502     3.400684     3.394865     3.389046     3.383228     3.377409     3.371591     3.365772
      3.359953     3.354135     3.348316     3.342498     3.336679     3.330860     3.325042     3.319223     3.313405     3.307586
      3.301767     3.295949     3.290130     3.284312     3.278493     3.272674     3.266856     3.261037     3.255219     3.249400
      3.243581     3.237763     3.231944     3.226125     3.220307     3.214488     3.208670     3.202851     3.197032     3.191214
      3.185395     3.179577     3.173758     3.167939     3.162121     3.156302     3.150484     3.144665     3.138846     3.133028
      3.127209     3.121391     3.115572     3.109753     3.103935     3.098116     3.092298     3.086479     3.080660     3.074842
      3.069023     3.063205     3.057386     3.051567     3.045749     3.039930     3.034111     3.028293     3.022474     3.016656
      3.010837     3.005018     2.999200     2.993381     2.987563     2.981744     2.975925     2.970107     2.964288     2.958470
      2.952651     2.946832     2.941014     2.935195     2.929377     2.923558     2.917739     2.911921     2.906102     2.900284
      2.894465     2.888646     2.882828     2.877009     2.871191     2.865372     2.859553     2.853735     2.847916     2.842098
      2.836279     2.830460     2.824642     2.818823     2.813004     2.807186     2.801367     2.795549     2.789730     2.783911
      2.778093     2.772274     2.766456     2.760637     2.754818     2.749000     2.743181     2.737363     2.731544     2.725725
      2.719907     2.714088     2.708270     2.702451     2.696632     2.690814     2.684995     2.679177     2.673358     2.667539
      2.661721     2.655902     2.650084     2.644265     2.638446     2.632628     2.626809     2.620991     2.615172     2.609353
      2.603535     2.597716     2.591897     2.586079     2.580260     2.574442     2.568623     2.562804     2.556986     2.551167
      2.545349     2.539530     2.533711     2.527893     2.522074     2.516256     2.510437     2.504618     2.498800     2.492981
      2.487163     2.481344     2.475525     2.469707     2.463888     2.458070     2.452251     2.446432     2.440614     2.434795
      2.428977     2.423158     2.417339     2.411521     2.405702     2.399884     2.394065     2.388246     2.382428     2.376609
      2.370790     2.364972     2.359153     2.353335     2.347516     2.341697     2.335879     2.330060     2.324242     2.318423
      2.312604     2.306786     2.300967     2.295149     2.289330     2.283511     2.277693     2.271874     2.266056     2.260237
      2.254418     2.248600     2.242781     2.236963     2.231144     2.225325     2.219507     2.213688     2.207870     2.202051
      2.196232     2.190414     2.184595     2.178777     2.172958     2.167139     2.161321     2.155502     2.149683     2.143865
      2.138046     2.132228     2.126409     2.120590     2.114772     2.108953     2.103135     2.097316     2.091497     2.085679
      2.079860     2.074042     2.068223     2.062404     2.056586     2.050767     2.044949     2.039130     2.033311     2.027493
      2.021674     2.015856     2.010037     2.004218     1.998400     1.992581     1.986763     1.980944     1.975126     1.969307
      1.963489     1.957670     1.951852     1.946033     1.940215     1.934397     1.928578     1.922760     1.916941     1.911123
      1.905304     1.899486     1.893667     1.887849     1.882030     1.876212     1.870393     1.864575     1.858756     1.852938
      1.847119     1.841301     1.835482     1.829664     1.823845     1.818027     1.812208     1.806390     1.800571     1.794753
      1.788934     1.783116     1.777297     1.771479     1.765660     1.759842     1.754023     1.748205     1.742386     1.736568
      1.730749     1.724931     1.719113     1.713294     1.707476     1.701657     1.695839     1.690020     1.684202     1.678383
      1.672565     1.666746     1.660928     1.655109     1.649291     1.643472     1.637654     1.631835     1.626017     1.620198
      1.614380     1.608561     1.602743     1.596924     1.591106     1.585287     1.579469     1.573650     1.567832     1.562013
      1.556195     1.550376     1.544558     1.538739     1.532921     1.527102     1.521284     1.515465     1.509647     1.503829
      1.498010     1.492192     1.486373     1.480555     1.474736     1.468918     1.463099     1.457281     1.451462     1.445644
      1.439825     1.434007     1.428188     1.422370     1.416551     1.410733     1.404914     1.399096     1.393277     1.387459
      1.381640     1.375822     1.370003     1.364185     1.358366     1.352548     1.346729     1.340911     1.335092     1.329274
      1.323455     1.317637     1.311818     1.306000     1.300182     1.294363     1.288545     1.282726     1.276908     1.271089
      1.265271     1.259452     1.253634     1.247815     1.241997     1.236178     1.230360     1.224541     1.218723     1.212904
      1.207086     1.201267     1.195449     1.189630     1.183812     1.177993     1.172175     1.166356     1.160538     1.154719
      1.148901     1.143082     1.137264     1.131445     1.125627     1.119808     1.113990     1.108171     1.102353     1.096534
      1.090716     1.084898     1.079079     1.073261     1.067442     1.061624     1.055805     1.049987     1.044168     1.038350
      1.032531     1.026713     1.020894     1.015076     1.009257     1.003439     0.997620     0.991802     0.985983     0.980165
      0.974346     0.968528     0.962709     0.956891     0.951072     0.945254     0.939435     0.933617     0.927798     0.921980
      0.916161     0.910343     0.904524     0.898706     0.892887     0.887069     0.881251     0.875432     0.869614     0.863795
      0.857977     0.852158     0.846340     0.840521     0.834703     0.828884     0.823066     0.817247     0.811429     0.805610
      0.799792     0.793973     0.788155     0.782336     0.776518     0.770699     0.764881     0.759062     0.753244     0.747425
      0.741607     0.735788     0.729970     0.724151     0.718333     0.712514     0.706696     0.700877     0.695059     0.689240
      0.683422     0.677603     0.671785     0.665967     0.660148     0.654330     0.648511     0.642693     0.636874     0.631056
      0.625237     0.619419     0.613600     0.607782     0.601963     0.596145     0.590326     0.584508     0.578689     0.572871
      0.567052     0.561234     0.555415     0.549597     0.543778     0.537960     0.532141     0.526323     0.520504     0.514686
      0.508867     0.503049     0.497230     0.491412     0.485593     0.479775     0.473956     0.468138     0.462319     0.456501
      0.450682     0.444864     0.439045     0.433227     0.427408     0.421590     0.415771     0.409953     0.404134     0.398316
      0.392497     0.386679     0.380860     0.375042     0.369223     0.363405     0.357586     0.351767     0.345949     0.340130
      0.334312     0.328493     0.322675     0.316856     0.311038     0.305219     0.299401     0.293582     0.287764     0.281945
      0.276127     0.270308     0.264490     0.258671     0.252853     0.247034     0.241216     0.235397     0.229579     0.223760
      0.217942     0.212123     0.206305     0.200486
 NY phased data points follow
  -1.90819E-01 -7.80169E-02  5.15530E-02 -5.28093E-01 -1.84897E-01 -3.33733E-01 -5.04425E-01 -2.92238E-01 -2.40613E-01 -4.60461E-01
  -1.11576E-01  1.39845E-01  1.84942E-01 -2.20752E-01  1.50404E-01  3.97038E-01  2.45804E-01  5.95494E-01  1.67799E-02 -2.28202E-01
   4.54163E-01  3.24109E-01 -2.17876E-01  4.28425E-01  3.55640E-01  2.01682E-01  1.47183E-01 -1.73174E-01  6.97395E-02  1.28432E-01
  -2.45271E-01 -3.87866E-01 -5.25835E-01 -4.15828E-01 -3.62226E-01 -7.29577E-01 -4.74409E-02 -2.09958E-01 -1.85508E-01 -1.70315E-01
  -3.05748E-02 -6.67051E-03 -2.40944E-01  2.40704E-01  9.05046E-02  1.94192E-01 -3.10977E-01  3.42505E-01  5.29792E-01  2.09946E-01
   4.87793E-01  1.26361E-01  1.92259E-01  3.53861E-01  4.66309E-01  2.88654E-01  2.37329E-01 -1.97126E-01  4.37187E-02  2.04514E-01
   2.08345E-02 -3.39376E-02 -2.24844E-01 -4.75434E-02  4.30773E-02 -3.49420E-02 -1.29859E-01 -1.80579E-02  3.64389E-02  2.03743E-01
  -7.79001E-02 -1.56519E-01 -4.00712E-01  1.84349E-02  1.82777E-01 -1.17262E-01  8.34603E-02 -3.81688E-01  1.85201E-01  5.45913E-02
  -4.37085E-01 -3.83257E-01  6.00351E-02  1.69159E-02 -2.66347E-01  3.97439E-01  2.51623E-01 -2.89940E-02 -9.96556E-02  3.14407E-01
   2.69070E-01 -6.97106E-02  9.25004E-02  4.51114E-01  3.79106E-01  7.51084E-02  3.18871E-01 -1.29027E-01 -4.58259E-01 -1.70455E-01
  -8.36997E-02 -1.72513E-01 -2.36429E-01 -4.04110E-01  1.47086E-02  1.09891E-01 -1.79924E-01 -1.11286E-01  1.56611E-01  4.08875E-01
  -4.55272E-02  1.76566E-01  3.23515E-01 -1.79928E-01 -1.02893E-01  3.75268E-01  1.75676E-01  1.99050E-01  4.08163E-01  7.83576E-01
   8.52287E-01  4.73701E-02  4.05012E-01  3.88283E-01  4.00524E-01  2.54672E-01  3.89226E-01  4.35901E-01 -1.69819E-01 -2.11094E-01
  -4.24327E-01 -1.61832E-01 -5.98427E-01 -5.24139E-01 -5.34035E-01 -5.79359E-01 -5.65677E-01 -8.95251E-01 -2.32384E-01 -1.43227E-01
  -5.19671E-01 -7.48606E-01 -4.60833E-01 -3.16818E-01 -1.01025E-01 -2.73154E-01 -4.45659E-01 -2.40520E-01 -1.72455E-01 -3.19925E-01
  -9.05256E-02  2.62698E-01 -3.98824E-01 -6.24013E-02 -5.82041E-02 -2.45333E-01 -8.12347E-02 -6.80001E-02  1.78132E-01  2.74793E-01
   3.47446E-01  2.36762E-01  1.94498E-01  1.91210E-01  4.70285E-01  3.44206E-01  2.54250E-01  2.83443E-01  4.49800E-01  1.02541E-01
   1.42661E-01  4.23201E-01 -1.61065E-01 -3.56281E-01 -3.34657E-01  3.38312E-02 -2.56656E-01 -7.60966E-02 -1.64483E-02 -2.86483E-01
  -4.28403E-01 -3.63954E-01 -2.29303E-01 -5.80949E-01 -3.08256E-01 -5.80503E-01 -4.59492E-01 -1.80147E-01  3.49944E-01 -7.09160E-02
  -3.39909E-01 -2.48576E-01 -6.80780E-01  3.53595E-02 -4.08079E-01 -1.70615E-01 -3.37240E-02 -5.34629E-01 -3.25616E-01 -1.94852E-01
  -3.97318E-01 -7.71325E-02  3.68250E-01 -2.01374E-01 -1.68971E-01 -2.80860E-01 -2.84866E-01 -3.10565E-01  1.32518E-01  1.08656E-01
  -4.16498E-01 -2.57722E-02 -1.18031E-02 -1.73905E-01 -1.99080E-01 -1.46612E-01 -2.47866E-01  1.74426E-01 -2.17929E-01 -4.11567E-01
   9.09817E-02 -1.70240E-01 -3.01350E-01  1.42884E-01  8.65764E-01  2.10378E-01 -2.37723E-01  5.16771E-01  6.72715E-01 -4.60576E-02
  -2.01373E-01  2.07151E-01  1.18657E-01 -1.13938E-01  2.86268E-01  5.81015E-01  3.51762E-01  2.46956E-01 -1.15723E-02  2.93789E-01
   8.96226E-02 -3.36618E-01  1.19692E-01  5.86388E-02  5.67678E-02  3.57091E-01  8.60358E-02  9.19639E-03 -3.93724E-02 -2.83301E-01
  -5.41022E-02  1.75979E-02  9.63662E-02 -7.53692E-02 -1.94460E-01 -2.14304E-01 -2.98747E-01 -5.18061E-01 -4.79797E-01  2.38491E-01
   1.69135E-01 -4.01447E-02 -5.54559E-02  1.35665E-01  1.54575E-01  2.03414E-01  4.35734E-01  1.93691E-01  2.97315E-01  2.96629E-01
  -9.44107E-02  1.89185E-01  9.10256E-01  6.37565E-02 -1.75599E-02  1.81305E-01 -3.50062E-01 -4.98377E-02 -2.83227E-01  4.68931E-02
  -2.33721E-01 -1.27665E-01 -2.68295E-01 -7.50215E-01  2.00808E-01 -1.64489E-01  4.53939E-03  9.86192E-02 -3.10203E-02 -1.39449E-01
  -1.93137E-01  2.71069E-01  1.74947E-01  4.41318E-01 -1.32631E-02  4.40816E-01  6.54763E-01  7.99754E-02  1.30136E-01 -2.48531E-02
   1.41839E-01 -1.65568E-01 -1.27499E-02  5.89895E-02  5.29422E-01  1.03390E+00  3.53877E-01  3.64097E-01  4.91887E-01  3.86948E-01
   4.11763E-01  6.06231E-01  7.45418E-01  5.31108E-01  3.45787E-01  6.15892E-01  3.16981E-01  8.84476E-02  4.16335E-01  2.86830E-01
   6.55319E-01  6.48939E-02 -1.15983E-01  3.31138E-02 -3.56224E-01  2.37888E-01 -1.89806E-01 -3.45849E-01 -1.01707E-01 -2.04919E-01
   1.44428E-01  1.65242E-01  8.37870E-02  1.63402E-01 -8.70344E-03  1.57713E-01  1.39885E-01 -1.21144E-01 -4.36857E-02 -3.54843E-01
  -4.24355E-01 -8.28911E-01 -4.26852E-01 -6.48955E-01 -9.58915E-01 -6.44347E-01 -1.02169E+00 -5.70289E-01 -1.28691E+00 -1.07238E+00
  -6.82595E-01 -8.79834E-01 -3.73715E-01 -4.59594E-01 -4.70285E-01 -3.34518E-01 -1.85138E-01 -2.24877E-01 -2.00391E-01 -4.00762E-01
  -1.34014E-01 -5.06458E-02  2.36710E-01 -3.98445E-02 -8.26983E-02  5.26054E-01 -8.52805E-02  1.77595E-01  2.90195E-01  7.17954E-02
  -1.79972E-01  2.51478E-01  5.94509E-01 -4.11604E-01  4.59450E-02  3.22581E-01 -5.09151E-01 -1.75355E-01  3.65329E-01  1.74203E-01
  -8.82001E-02 -3.58382E-01 -3.34552E-01  1.74950E-01  1.15377E-01  1.34814E-01  1.37100E-01 -1.02372E-01  4.13978E-01  2.67943E-01
   2.53216E-01 -1.58400E-01  9.62355E-02  2.63940E-01 -3.19858E-01  4.17188E-01  2.96612E-01  2.95644E-01  3.95080E-02  3.63990E-01
   3.40361E-01 -2.58996E-01  3.45309E-01 -4.06667E-02 -1.88036E-01  3.32806E-01  1.43640E-01  2.16112E-01  4.40227E-01 -3.16143E-01
   2.24749E-01  5.87704E-01 -7.34388E-02 -1.02373E-01 -6.49909E-02  1.34446E-01  2.01566E-01  1.48226E-01  3.25996E-01  8.32878E-02
  -1.12797E-01 -6.92210E-02 -2.88464E-01 -3.76063E-01 -5.94832E-01  2.60914E-02 -3.73530E-01 -3.75462E-01  5.01843E-01  2.10814E-01
  -4.58919E-02  1.47568E-02  2.03542E-01  2.53813E-02  4.98177E-02 -3.19945E-01 -1.71440E-01 -1.93936E-01 -6.30526E-02 -2.73671E-01
  -2.24393E-01  4.43867E-04 -3.05466E-01  2.94321E-02 -1.32831E-01  1.97932E-01 -9.68063E-02 -3.67579E-02 -9.08857E-02  4.22387E-02
   1.71065E-01  1.08047E-02 -1.52432E-02 -4.35992E-02  6.87356E-03 -9.92735E-03  4.14850E-01 -6.56660E-02  1.95618E-01 -2.65913E-01
   1.33725E-01  1.85505E-01 -3.67304E-02  1.24221E-01 -6.35005E-02 -6.15899E-02 -5.55259E-01  2.36937E-01 -3.67229E-01 -2.79213E-01
  -1.24724E-01  2.43941E-01  2.75308E-01 -3.60019E-01  7.00666E-03  3.16960E-02 -2.93404E-02 -4.88424E-01 -1.02839E-01  2.22618E-01
   3.06032E-01 -1.18084E-01 -1.05090E-01 -3.45394E-01 -2.23263E-01  1.90271E-01  2.51434E-01  9.16160E-02 -1.66794E-01 -2.37971E-01
  -3.16986E-01  5.11514E-01 -8.55089E-02 -1.91143E-01 -4.70389E-02  3.38559E-01  1.67322E-01 -3.34064E-01  1.46795E-01  1.48263E-02
  -2.36360E-01  2.63632E-01  4.88502E-01 -3.18701E-01  4.06083E-01  3.87447E-02  3.67879E-03  2.09803E-01  4.22362E-01  3.40768E-01
  -2.94445E-01 -2.12663E-02 -1.11799E-01  4.89652E-01 -5.13005E-01 -1.32883E-01  2.66336E-01 -4.01244E-01  6.89938E-02 -3.56359E-02
   3.28257E-02 -2.65685E-01 -4.61095E-01 -1.18873E-01 -1.18482E-01 -3.14089E-01 -7.73727E-02 -3.21192E-01 -5.79479E-01 -3.31346E-01
  -1.90273E-01 -5.67612E-01 -6.96572E-01 -5.12738E-01 -2.34037E-01 -3.04069E-01 -4.44296E-01 -3.11918E-01 -6.53302E-01 -6.05927E-01
  -7.00850E-01 -6.43647E-01 -1.56730E-01 -4.22903E-01 -1.01584E+00 -3.44636E-01 -4.70445E-01 -2.99996E-01  1.13528E-01 -3.41018E-01
  -4.41937E-01 -9.50829E-01 -3.52093E-02 -1.54561E-01 -1.52635E-01 -2.61153E-01 -5.58129E-01 -1.40167E-01 -5.05501E-01  1.62373E-02
  -5.72552E-01 -1.39099E-01  2.44943E-01 -2.53307E-01  2.54309E-01  6.17637E-02  8.98545E-02  1.78027E-01  1.77195E-01  4.91513E-01
   2.49195E-01 -2.20005E-01  6.33987E-02 -3.64627E-02 -2.89537E-02  3.98252E-01  8.90476E-02  6.39481E-02  3.19875E-01  3.09295E-01
   1.61150E-01  5.10212E-02  1.17570E-01  1.88266E-01  1.70513E-01  1.12554E-02  9.38754E-02 -5.41322E-02  1.48031E-01  2.92735E-01
  -3.35902E-01 -2.39315E-01 -2.34871E-02 -3.31466E-02 -7.87200E-02  1.41429E-02 -4.61093E-02 -1.28932E-01  8.87198E-02 -2.34546E-01
  -4.50870E-01  1.94278E-01  5.05112E-01  1.46766E-01  3.37563E-02 -3.30073E-01  1.88981E-01  4.56155E-01 -3.08201E-01 -4.39726E-01
   1.00604E-01  1.95915E-01 -1.94690E-02  3.57831E-01  5.06091E-02  4.34940E-01  3.21150E-01  1.58768E-01  6.85437E-01  9.39354E-02
   1.47100E-03 -4.64788E-02  1.77776E-01  1.27344E-01 -1.11738E-01  1.89861E-01  2.34225E-01  2.46458E-01  6.64455E-01  3.64108E-01
  -1.72893E-01  5.13805E-01  2.95573E-01 -3.07824E-01 -1.63264E-01  9.24596E-02 -1.21116E-01  5.67541E-02  2.50832E-01 -5.61855E-02
   2.17892E-01 -1.37222E-01 -2.25243E-03 -8.15047E-02 -2.52948E-01  2.98121E-01 -6.33344E-03 -1.09802E-01 -9.11104E-02  1.65361E-02
   6.66104E-02 -1.00997E-01 -1.97421E-01 -1.82733E-03
 NY points of the fit to the data follow
   1.30364E-01  1.14629E-01  8.53337E-02 -8.10795E-03  3.65154E-02 -6.50549E-02  3.11997E-02 -2.05489E-02  6.13593E-02  5.59948E-02
   1.04144E-01  1.42871E-01  1.53045E-01  2.40983E-01  1.98115E-01  3.09654E-01  2.30990E-01  3.63118E-01  2.50338E-01  3.87427E-01
   2.53215E-01  3.96346E-01  2.39687E-01  3.37920E-01  2.01787E-01  2.51145E-01  1.50238E-01  1.66155E-01  6.46034E-02  3.26059E-02
  -3.83718E-02 -9.55123E-02 -1.45625E-01 -2.27249E-01 -2.26700E-01 -2.91010E-01 -2.52109E-01 -2.83139E-01 -2.26140E-01 -2.25350E-01
  -1.66540E-01 -1.37155E-01 -8.23805E-02 -2.97480E-02  1.77820E-02  8.11597E-02  1.14483E-01  1.79966E-01  1.82625E-01  2.55807E-01
   2.31215E-01  3.05277E-01  2.27811E-01  2.87145E-01  2.13022E-01  1.53370E-01  1.36094E-01  2.87799E-02 -8.13652E-03 -8.44384E-02
  -1.25843E-01 -1.56917E-01 -1.83730E-01 -1.80983E-01 -1.98539E-01 -1.52338E-01 -1.59285E-01 -9.51803E-02 -6.64130E-02  1.06483E-02
  -6.40973E-03  8.20021E-02  2.17384E-02  8.47517E-02  2.35350E-02  3.32343E-02  1.56008E-02 -1.37253E-02 -2.37415E-02 -6.73584E-02
  -4.85271E-02 -1.17395E-01 -8.58145E-02 -1.12548E-01 -7.97461E-02 -6.36506E-02 -1.09904E-02  5.34138E-02  9.76834E-02  1.63511E-01
   1.46550E-01  1.89732E-01  1.37119E-01  1.42634E-01  9.35582E-02  5.85213E-02  8.83658E-03 -5.16925E-02 -6.19308E-02 -1.48241E-01
  -1.21381E-01 -2.02826E-01 -1.47051E-01 -2.22343E-01 -1.41703E-01 -2.00487E-01 -9.79963E-02 -1.23219E-01 -1.93345E-02 -1.72938E-02
   6.22483E-02  9.08493E-02  1.32497E-01  1.62736E-01  2.09910E-01  1.97747E-01  2.87272E-01  2.43367E-01  3.93307E-01  2.82247E-01
   4.24759E-01  2.67569E-01  3.40806E-01  3.14187E-01  2.25670E-01  2.75048E-01  6.42635E-02  1.36221E-01 -1.38564E-01 -4.22917E-02
  -3.35828E-01 -2.18214E-01 -5.10326E-01 -3.92098E-01 -6.36760E-01 -5.18196E-01 -6.88322E-01 -5.83553E-01 -6.44712E-01 -5.86928E-01
  -5.33828E-01 -5.57153E-01 -4.21724E-01 -4.45928E-01 -2.95843E-01 -3.16688E-01 -2.04010E-01 -2.10149E-01 -1.35376E-01 -9.97918E-02
  -7.10599E-02 -5.77370E-02 -4.26681E-02 -4.46924E-02 -5.68434E-02 -2.24589E-02  7.62183E-02  9.08857E-02  2.23527E-01  2.11769E-01
   3.10990E-01  2.91629E-01  3.47246E-01  3.35735E-01  3.43421E-01  3.36863E-01  2.76241E-01  2.92760E-01  1.95149E-01  2.21961E-01
   8.55144E-02  1.25386E-01 -3.39162E-02  5.02214E-03 -1.88579E-01 -1.30169E-01 -2.84151E-01 -2.24286E-01 -3.18598E-01 -2.73623E-01
  -3.28270E-01 -2.88197E-01 -2.75612E-01 -2.66496E-01 -2.56854E-01 -2.56576E-01 -2.42567E-01 -2.45256E-01 -2.27921E-01 -2.30454E-01
  -2.15021E-01 -2.15284E-01 -1.98803E-01 -1.93998E-01 -1.78899E-01 -1.74114E-01 -1.60339E-01 -1.50328E-01 -1.38139E-01 -1.25182E-01
  -1.15058E-01 -1.03474E-01 -9.56169E-02 -8.71572E-02 -8.04457E-02 -7.28767E-02 -6.87399E-02 -6.22685E-02 -6.06744E-02 -5.53499E-02
  -5.73711E-02 -5.44957E-02 -6.38041E-02 -9.83287E-02 -1.06309E-01 -1.28165E-01 -1.23335E-01 -1.33718E-01 -1.57546E-01 -1.60215E-01
  -1.53390E-01 -1.36866E-01 -9.66020E-02 -5.71182E-02 -1.08293E-02  3.09532E-02  6.97353E-02  1.17062E-01  1.50615E-01  1.96232E-01
   2.07697E-01  2.51992E-01  2.46469E-01  2.63591E-01  2.40841E-01  2.39468E-01  2.14842E-01  1.99947E-01  1.50429E-01  1.18443E-01
   6.55031E-02  5.12069E-02  1.43637E-02  4.80268E-03 -2.85106E-02 -8.42445E-02 -5.98663E-02 -1.21680E-01 -1.27645E-01 -1.59789E-01
  -1.94266E-01 -1.78487E-01 -2.44033E-01 -1.99543E-01 -2.56330E-01 -2.03027E-01 -2.35800E-01 -1.97107E-01 -1.99285E-01 -1.59515E-01
  -1.50521E-01 -1.02373E-01 -8.10768E-02 -1.52680E-02  3.57534E-03  5.44121E-02  9.42058E-02  1.25418E-01  1.63948E-01  1.97292E-01
   2.01002E-01  2.20424E-01  1.78209E-01  1.51757E-01  6.84832E-02 -1.35548E-02 -9.45553E-02 -1.72440E-01 -2.38482E-01 -2.96641E-01
  -3.21307E-01 -3.56541E-01 -3.45320E-01 -3.57737E-01 -3.21534E-01 -3.10466E-01 -2.58639E-01 -2.25353E-01 -1.65307E-01 -1.02991E-01
  -4.83587E-02  4.18966E-02  7.58630E-02  1.61153E-01  1.75714E-01  2.27006E-01  2.18088E-01  2.37815E-01  2.16546E-01  2.13784E-01
   1.93347E-01  1.94150E-01  1.79775E-01  1.94889E-01  1.95906E-01  2.15082E-01  2.26478E-01  2.48718E-01  2.57867E-01  2.83166E-01
   2.74037E-01  2.97872E-01  2.67489E-01  2.66586E-01  2.14549E-01  1.73934E-01  1.12970E-01  4.54835E-02 -1.49162E-03 -7.61490E-02
  -9.72164E-02 -1.54995E-01 -1.68678E-01 -1.89706E-01 -2.16439E-01 -2.02505E-01 -2.39344E-01 -2.07994E-01 -2.31427E-01 -1.73042E-01
   1.05021E-01  1.35743E-01  3.23189E-01  2.62139E-01  2.82365E-01  1.50533E-01  9.57500E-02 -7.23153E-02 -1.50261E-01 -3.33483E-01
  -4.50094E-01 -6.11496E-01 -6.71629E-01 -7.81947E-01 -8.41960E-01 -8.89402E-01 -9.36937E-01 -9.22820E-01 -9.99430E-01 -9.21086E-01
  -8.51901E-01 -7.33246E-01 -5.94850E-01 -4.82579E-01 -3.61676E-01 -2.70293E-01 -1.15023E-01 -6.31115E-02 -4.60512E-02 -2.59499E-02
  -2.54574E-02 -1.44992E-02 -1.93758E-02 -1.24710E-02 -1.86036E-02 -1.32804E-02 -1.86974E-02 -1.52863E-02 -1.66834E-02 -1.46540E-02
  -1.14475E-02 -1.04511E-02 -3.44061E-03 -3.01156E-03  6.64157E-03  7.00152E-03  1.81236E-02  1.84869E-02  2.88021E-02  2.94919E-02
   3.75077E-02  3.85444E-02  4.56657E-02  4.90726E-02  5.51918E-02  6.07876E-02  6.61723E-02  7.28803E-02  7.80462E-02  8.67788E-02
   9.17049E-02  1.00984E-01  1.06036E-01  1.14677E-01  1.18967E-01  1.26076E-01  1.29847E-01  1.34164E-01  1.36110E-01  1.37045E-01
   1.36630E-01  1.33032E-01  1.30109E-01  1.22852E-01  1.16852E-01  1.07955E-01  9.92403E-02  8.91096E-02  7.88547E-02  6.83619E-02
   5.71698E-02  4.66055E-02  3.46864E-02  2.47661E-02  1.24277E-02  2.86146E-03 -9.27309E-03 -1.82947E-02 -3.11164E-02 -3.85033E-02
  -5.11332E-02 -5.98730E-02 -8.43973E-02 -8.13148E-02 -1.15605E-01 -9.54100E-02 -1.16029E-01 -9.34392E-02 -9.63974E-02 -8.19847E-02
  -7.12567E-02 -6.78589E-02 -4.36044E-02 -5.27201E-02 -1.95144E-02 -3.87909E-02 -5.73675E-04 -2.54652E-02  1.62161E-02 -9.48668E-03
   3.56739E-02  8.86386E-03  5.06630E-02  2.82038E-02  5.90956E-02  5.04825E-02  7.62465E-02  8.18038E-02  1.02140E-01  1.19893E-01
   1.38652E-01  1.60362E-01  1.80161E-01  1.98363E-01  2.12153E-01  2.23863E-01  2.30899E-01  2.34524E-01  2.35289E-01  2.31115E-01
   2.26294E-01  2.15386E-01  2.06570E-01  1.89565E-01  1.77449E-01  1.55720E-01  1.41954E-01  1.17620E-01  1.03688E-01  7.95053E-02
   6.52023E-02  4.28122E-02  3.02527E-02  1.17859E-02  2.03083E-03 -1.14964E-02 -1.72769E-02 -2.61092E-02 -2.85355E-02 -3.26167E-02
  -3.15819E-02 -3.08762E-02 -2.56936E-02 -2.13879E-02 -1.33003E-02 -5.42165E-03  3.56987E-03  1.35269E-02  2.24178E-02  3.28578E-02
   3.99131E-02  4.89898E-02  5.41412E-02  6.12879E-02  6.41694E-02  6.92230E-02  7.06693E-02  7.14743E-02  7.18724E-02  6.95032E-02
   6.84966E-02  6.40445E-02  6.23397E-02  5.71203E-02  5.53867E-02  5.05108E-02  4.90974E-02  4.51580E-02  4.43193E-02  4.28903E-02
   4.39252E-02  4.49765E-02  4.62441E-02  4.81839E-02  4.83801E-02  5.00264E-02  4.75008E-02  4.59012E-02  4.00867E-02  3.32439E-02
   2.05134E-02  6.87701E-03 -1.20555E-02 -3.27781E-02 -5.82520E-02 -8.48024E-02 -1.14360E-01 -1.45133E-01 -1.75841E-01 -2.05967E-01
  -2.34107E-01 -2.62332E-01 -2.85642E-01 -3.09431E-01 -3.26675E-01 -3.43422E-01 -3.54651E-01 -3.63077E-01 -3.68995E-01 -3.68175E-01
  -3.69309E-01 -3.61907E-01 -3.58259E-01 -3.45126E-01 -3.37479E-01 -3.20757E-01 -3.11941E-01 -2.92918E-01 -2.80364E-01 -2.61083E-01
  -2.46200E-01 -2.27369E-01 -2.10018E-01 -1.92458E-01 -1.72977E-01 -1.57980E-01 -1.37811E-01 -1.25155E-01 -1.05723E-01 -9.50120E-02
  -7.80557E-02 -6.93685E-02 -5.63498E-02 -4.89407E-02 -3.89620E-02 -3.22618E-02 -2.53145E-02 -1.93126E-02 -1.41940E-02 -8.91898E-03
  -4.64672E-03 -4.85423E-04  2.30112E-03  6.84081E-03  9.24103E-03  1.19886E-02  1.41157E-02  1.54020E-02  1.79318E-02  1.99605E-02
   2.32738E-02  2.35955E-02  2.63438E-02  2.59203E-02  2.82201E-02  2.69169E-02  2.81806E-02  2.83698E-02  2.82419E-02  2.85781E-02
   2.67782E-02  2.76634E-02  2.51252E-02  2.56613E-02  2.32777E-02  2.29263E-02  2.10103E-02  1.93189E-02  1.78091E-02  1.60453E-02
   1.59837E-02  1.47006E-02  1.58587E-02  1.42546E-02  1.68493E-02  1.49223E-02  1.80642E-02  1.56064E-02  1.89310E-02  1.86938E-02
   2.04136E-02  1.95137E-02  2.11240E-02  1.94217E-02  2.23412E-02  2.12679E-02  2.40347E-02  2.37688E-02  2.57331E-02  2.52096E-02
   2.75110E-02  2.80444E-02  3.02080E-02  3.14971E-02  3.31990E-02  3.42195E-02  3.71266E-02  3.69023E-02  3.99032E-02  3.91461E-02
   4.18338E-02  4.03587E-02  4.26135E-02  4.01950E-02  4.22781E-02  4.08591E-02  4.08428E-02  3.91561E-02  3.86255E-02  3.68801E-02
   3.70764E-02  3.62892E-02  3.71101E-02  3.66837E-02  3.65833E-02  3.72774E-02  3.75910E-02  3.92409E-02  3.99525E-02  4.21608E-02
   4.30171E-02  4.49810E-02  4.58240E-02  4.64618E-02
 NY background values follow
     7.553E-02    7.529E-02    7.504E-02    7.480E-02    7.456E-02    7.432E-02    7.407E-02    7.383E-02    7.359E-02    7.334E-02
     7.310E-02    7.286E-02    7.262E-02    7.237E-02    7.213E-02    7.189E-02    7.164E-02    7.140E-02    7.116E-02    7.092E-02
     7.067E-02    7.043E-02    7.019E-02    6.995E-02    6.970E-02    6.946E-02    6.922E-02    6.897E-02    6.873E-02    6.849E-02
     6.825E-02    6.800E-02    6.776E-02    6.752E-02    6.727E-02    6.703E-02    6.679E-02    6.655E-02    6.630E-02    6.606E-02
     6.582E-02    6.557E-02    6.533E-02    6.509E-02    6.485E-02    6.460E-02    6.436E-02    6.412E-02    6.387E-02    6.363E-02
     6.339E-02    6.315E-02    6.290E-02    6.266E-02    6.242E-02    6.217E-02    6.193E-02    6.169E-02    6.145E-02    6.120E-02
     6.096E-02    6.072E-02    6.047E-02    6.023E-02    5.999E-02    5.974E-02    5.950E-02    5.926E-02    5.902E-02    5.877E-02
