 LCModel (Version 6.3-1N) Copyright: S.W. Provencher.          Ref.: Magn. Reson. Med. 30:672-679 (1993).                
 Slice_N1@12_22  02-Jun-2023 14:36:35
 27 lines in following concentration table = NCONC+1
    Conc.  %SD /Cr+PCr  Metabolite                                         
 2.28E-06  27% 2.2E-04 Mac                                                 
 2.67E-02  67%   2.596 Cr                                                  
 5.56E-02  32%   5.404 PCr                                                 
    0.100  14%   9.706 Ins                                                 
    0.121   9%  11.804 NAA                                                 
 6.01E-02  21%   5.845 Tau                                                 
 1.43E-02  23%   1.387 PCho                                                
    0.000 999%   0.000 GPC                                                 
    0.120  13%  11.695 Glu                                                 
 1.82E-02  58%   1.769 Gln                                                 
 1.83E-02  66%   1.777 Ala                                                 
 9.12E-03 234%   0.887 Asc                                                 
 1.85E-02  55%   1.796 Asp                                                 
 1.02E-02  55%   0.996 GABA                                                
 8.90E-03  73%   0.865 Glc                                                 
 5.21E-03  99%   0.507 GSH                                                 
    0.000 999%   0.000 Lac                                                 
 2.02E-02  39%   1.968 NAAG                                                
    0.000 999%   0.000 PE                                                  
 1.43E-02  23%   1.387 GPC+PCho                                            
    0.142   9%  13.772 NAA+NAAG                                            
    0.138  13%  13.464 Glu+Gln                                             
 8.23E-02  11%   8.000 Cr+PCr                                              
    0.142   9%  13.772 NAA+NAAG                                            
 8.23E-02  11%   8.000 Cr+PCr                                              
    0.138  13%  13.464 Glu+Gln                                             
   6 lines in following misc. output table
  FWHM = 0.029 ppm    S/N =   4                                            
  Data shift = 0.017 ppm                                                   
  Ph: -19 deg      -3.5 deg/ppm                                            
  alphaB,S = 3.1E+01,   2.0E+01                                            
   18 spline knots.   Ns = 5(1)                                            
   2 inflections.     2 extrema                                            
  654 points on ppm-axis = NY
      4.000000     3.994181     3.988363     3.982544     3.976726     3.970907     3.965088     3.959270     3.953451     3.947633
      3.941814     3.935995     3.930177     3.924358     3.918540     3.912721     3.906902     3.901084     3.895265     3.889446
      3.883628     3.877809     3.871991     3.866172     3.860353     3.854535     3.848716     3.842898     3.837079     3.831260
      3.825442     3.819623     3.813805     3.807986     3.802167     3.796349     3.790530     3.784712     3.778893     3.773074
      3.767256     3.761437     3.755619     3.749800     3.743981     3.738163     3.732344     3.726526     3.720707     3.714888
      3.709070     3.703251     3.697433     3.691614     3.685795     3.679977     3.674158     3.668339     3.662521     3.656702
      3.650884     3.645065     3.639246     3.633428     3.627609     3.621791     3.615972     3.610153     3.604335     3.598516
      3.592698     3.586879     3.581060     3.575242     3.569423     3.563605     3.557786     3.551967     3.546149     3.540330
      3.534512     3.528693     3.522874     3.517056     3.511237     3.505419     3.499600     3.493781     3.487963     3.482144
      3.476326     3.470507     3.464688     3.458870     3.453051     3.447232     3.441414     3.435595     3.429777     3.423958
      3.418139     3.412321     3.406502     3.400684     3.394865     3.389046     3.383228     3.377409     3.371591     3.365772
      3.359953     3.354135     3.348316     3.342498     3.336679     3.330860     3.325042     3.319223     3.313405     3.307586
      3.301767     3.295949     3.290130     3.284312     3.278493     3.272674     3.266856     3.261037     3.255219     3.249400
      3.243581     3.237763     3.231944     3.226125     3.220307     3.214488     3.208670     3.202851     3.197032     3.191214
      3.185395     3.179577     3.173758     3.167939     3.162121     3.156302     3.150484     3.144665     3.138846     3.133028
      3.127209     3.121391     3.115572     3.109753     3.103935     3.098116     3.092298     3.086479     3.080660     3.074842
      3.069023     3.063205     3.057386     3.051567     3.045749     3.039930     3.034111     3.028293     3.022474     3.016656
      3.010837     3.005018     2.999200     2.993381     2.987563     2.981744     2.975925     2.970107     2.964288     2.958470
      2.952651     2.946832     2.941014     2.935195     2.929377     2.923558     2.917739     2.911921     2.906102     2.900284
      2.894465     2.888646     2.882828     2.877009     2.871191     2.865372     2.859553     2.853735     2.847916     2.842098
      2.836279     2.830460     2.824642     2.818823     2.813004     2.807186     2.801367     2.795549     2.789730     2.783911
      2.778093     2.772274     2.766456     2.760637     2.754818     2.749000     2.743181     2.737363     2.731544     2.725725
      2.719907     2.714088     2.708270     2.702451     2.696632     2.690814     2.684995     2.679177     2.673358     2.667539
      2.661721     2.655902     2.650084     2.644265     2.638446     2.632628     2.626809     2.620991     2.615172     2.609353
      2.603535     2.597716     2.591897     2.586079     2.580260     2.574442     2.568623     2.562804     2.556986     2.551167
      2.545349     2.539530     2.533711     2.527893     2.522074     2.516256     2.510437     2.504618     2.498800     2.492981
      2.487163     2.481344     2.475525     2.469707     2.463888     2.458070     2.452251     2.446432     2.440614     2.434795
      2.428977     2.423158     2.417339     2.411521     2.405702     2.399884     2.394065     2.388246     2.382428     2.376609
      2.370790     2.364972     2.359153     2.353335     2.347516     2.341697     2.335879     2.330060     2.324242     2.318423
      2.312604     2.306786     2.300967     2.295149     2.289330     2.283511     2.277693     2.271874     2.266056     2.260237
      2.254418     2.248600     2.242781     2.236963     2.231144     2.225325     2.219507     2.213688     2.207870     2.202051
      2.196232     2.190414     2.184595     2.178777     2.172958     2.167139     2.161321     2.155502     2.149683     2.143865
      2.138046     2.132228     2.126409     2.120590     2.114772     2.108953     2.103135     2.097316     2.091497     2.085679
      2.079860     2.074042     2.068223     2.062404     2.056586     2.050767     2.044949     2.039130     2.033311     2.027493
      2.021674     2.015856     2.010037     2.004218     1.998400     1.992581     1.986763     1.980944     1.975126     1.969307
      1.963489     1.957670     1.951852     1.946033     1.940215     1.934397     1.928578     1.922760     1.916941     1.911123
      1.905304     1.899486     1.893667     1.887849     1.882030     1.876212     1.870393     1.864575     1.858756     1.852938
      1.847119     1.841301     1.835482     1.829664     1.823845     1.818027     1.812208     1.806390     1.800571     1.794753
      1.788934     1.783116     1.777297     1.771479     1.765660     1.759842     1.754023     1.748205     1.742386     1.736568
      1.730749     1.724931     1.719113     1.713294     1.707476     1.701657     1.695839     1.690020     1.684202     1.678383
      1.672565     1.666746     1.660928     1.655109     1.649291     1.643472     1.637654     1.631835     1.626017     1.620198
      1.614380     1.608561     1.602743     1.596924     1.591106     1.585287     1.579469     1.573650     1.567832     1.562013
      1.556195     1.550376     1.544558     1.538739     1.532921     1.527102     1.521284     1.515465     1.509647     1.503829
      1.498010     1.492192     1.486373     1.480555     1.474736     1.468918     1.463099     1.457281     1.451462     1.445644
      1.439825     1.434007     1.428188     1.422370     1.416551     1.410733     1.404914     1.399096     1.393277     1.387459
      1.381640     1.375822     1.370003     1.364185     1.358366     1.352548     1.346729     1.340911     1.335092     1.329274
      1.323455     1.317637     1.311818     1.306000     1.300182     1.294363     1.288545     1.282726     1.276908     1.271089
      1.265271     1.259452     1.253634     1.247815     1.241997     1.236178     1.230360     1.224541     1.218723     1.212904
      1.207086     1.201267     1.195449     1.189630     1.183812     1.177993     1.172175     1.166356     1.160538     1.154719
      1.148901     1.143082     1.137264     1.131445     1.125627     1.119808     1.113990     1.108171     1.102353     1.096534
      1.090716     1.084898     1.079079     1.073261     1.067442     1.061624     1.055805     1.049987     1.044168     1.038350
      1.032531     1.026713     1.020894     1.015076     1.009257     1.003439     0.997620     0.991802     0.985983     0.980165
      0.974346     0.968528     0.962709     0.956891     0.951072     0.945254     0.939435     0.933617     0.927798     0.921980
      0.916161     0.910343     0.904524     0.898706     0.892887     0.887069     0.881251     0.875432     0.869614     0.863795
      0.857977     0.852158     0.846340     0.840521     0.834703     0.828884     0.823066     0.817247     0.811429     0.805610
      0.799792     0.793973     0.788155     0.782336     0.776518     0.770699     0.764881     0.759062     0.753244     0.747425
      0.741607     0.735788     0.729970     0.724151     0.718333     0.712514     0.706696     0.700877     0.695059     0.689240
      0.683422     0.677603     0.671785     0.665967     0.660148     0.654330     0.648511     0.642693     0.636874     0.631056
      0.625237     0.619419     0.613600     0.607782     0.601963     0.596145     0.590326     0.584508     0.578689     0.572871
      0.567052     0.561234     0.555415     0.549597     0.543778     0.537960     0.532141     0.526323     0.520504     0.514686
      0.508867     0.503049     0.497230     0.491412     0.485593     0.479775     0.473956     0.468138     0.462319     0.456501
      0.450682     0.444864     0.439045     0.433227     0.427408     0.421590     0.415771     0.409953     0.404134     0.398316
      0.392497     0.386679     0.380860     0.375042     0.369223     0.363405     0.357586     0.351767     0.345949     0.340130
      0.334312     0.328493     0.322675     0.316856     0.311038     0.305219     0.299401     0.293582     0.287764     0.281945
      0.276127     0.270308     0.264490     0.258671     0.252853     0.247034     0.241216     0.235397     0.229579     0.223760
      0.217942     0.212123     0.206305     0.200486
 NY phased data points follow
   1.37930E-01 -1.44969E-01 -4.05126E-01 -7.51391E-01 -4.77081E-01 -2.38431E-01 -5.97546E-01  6.56215E-02 -2.27646E-01  2.93346E-01
   4.55506E-02 -4.14670E-01  7.73334E-01  1.13429E+00  3.40379E-02 -1.92399E-01  2.37533E-01  1.94722E-01 -1.55453E-01  1.58311E-01
   6.08526E-01 -5.02037E-01  3.69155E-02  3.44953E-01  1.74937E-02  2.09472E-01 -2.73087E-01 -4.60350E-01 -2.72878E-01 -2.05598E-02
  -2.30614E-01  7.07092E-02  1.84168E-01 -5.55801E-01 -1.87527E-01  2.06021E-01 -3.01552E-01  9.31977E-03  2.07919E-01 -5.37533E-02
  -4.08272E-01  2.57029E-01  7.87568E-01  2.13853E-01 -6.77320E-02  2.82354E-01  7.34889E-01  2.79655E-01  4.76658E-01 -4.36787E-01
   1.82894E-01  1.12230E+00 -2.20311E-01  1.79106E-01 -2.48607E-01 -2.06534E-01  2.33206E-01 -2.75629E-01 -2.54596E-01 -4.45617E-01
  -3.12898E-01 -6.07527E-01 -8.07067E-01 -6.09639E-01 -5.69076E-01 -5.17010E-01 -3.54052E-01  4.52787E-01  4.04637E-02 -1.02086E-01
   8.19462E-01  4.55906E-01  3.56584E-01  2.38196E-01  1.68001E-01  9.26787E-02 -1.02059E-01 -1.57148E-01 -2.85726E-01 -3.50521E-01
  -8.28290E-01 -9.79956E-02  1.01085E-01 -8.88773E-02  2.09485E-01  2.58670E-01  5.09176E-01  1.81650E-01  6.16841E-01  2.21823E-01
   2.19904E-02  4.65646E-01 -1.58556E-01  5.90638E-01  6.08588E-01  6.98291E-02 -1.07167E-01 -1.15035E-01  1.40564E-01 -5.29600E-01
  -1.61395E-01  1.71128E-01  6.23763E-03  2.01220E-01  6.69104E-01  4.13949E-01  2.46069E-01  4.48097E-01 -1.75624E-01  3.57846E-01
   4.36097E-01  5.58060E-01  4.12982E-01 -1.16521E-01  5.14893E-02  2.61864E-01  5.22106E-01 -1.68394E-01  2.68748E-02  2.99776E-01
   1.69677E-01  3.14235E-01  3.41189E-01 -1.62329E-01 -7.84431E-02  7.62370E-02 -3.59608E-01  1.58966E-02 -1.66040E-01 -7.98986E-01
  -1.22484E+00 -3.08789E-01 -2.32336E-01 -9.13925E-01 -4.86689E-01 -3.44354E-01 -9.30548E-01 -1.16883E+00 -5.88725E-01 -4.93781E-02
  -6.39312E-02 -6.07154E-01  1.02116E-01 -3.72247E-01  6.92486E-03  6.87314E-01 -3.34180E-01  1.51503E-01 -2.03736E-03 -1.26136E-01
   4.05964E-01  4.85252E-01  4.01307E-01  1.71525E-01 -2.70320E-01  5.69226E-01  9.06677E-01  2.73983E-01  4.30005E-01 -1.11139E-01
   4.49009E-01  9.78350E-01  6.16661E-01  1.50768E+00  1.40807E+00  9.31441E-01  6.26795E-01 -3.20550E-01 -9.60833E-01 -1.59074E+00
  -9.79788E-01 -1.44901E+00 -7.75594E-01 -2.64807E-01 -1.36273E+00 -7.30536E-01 -9.15419E-01 -5.52351E-01 -4.98347E-01 -6.43474E-01
  -9.74023E-01 -3.64012E-01 -6.80033E-01 -7.10047E-01  1.13882E-01 -7.95615E-01  2.30575E-01 -9.56034E-01 -7.82683E-01  1.78077E-01
  -7.32160E-01 -1.67045E-01  1.03473E-01 -2.86796E-03 -7.12306E-02  3.25170E-01 -4.27117E-02 -1.35667E-01 -7.88025E-02 -2.82021E-01
  -2.91618E-02 -6.15031E-01 -5.81908E-02  6.70533E-01  1.74332E-02  3.04929E-01 -2.95356E-01  5.61580E-01  6.74204E-01  1.99575E-03
   4.20370E-01 -4.29370E-01  7.71913E-02 -8.50237E-01  7.16873E-03  6.96194E-01  3.04861E-01  6.08772E-01 -2.24475E-01  1.18086E-01
  -4.47033E-02  2.56845E-01  3.82853E-01  4.52998E-01  2.91338E-01  6.69899E-02  6.55719E-01  6.45806E-01  5.57443E-01  8.90515E-01
   3.19139E-01  3.40331E-01  7.43549E-01  5.04241E-02  3.87293E-01  5.97750E-01  7.84319E-02 -4.78599E-01 -4.18905E-01 -3.11977E-01
   6.43978E-02 -3.13659E-01 -3.69090E-01 -2.72792E-01 -3.54328E-01  1.93568E-01 -2.61128E-01  6.83303E-02 -2.23792E-01 -1.56896E-01
  -2.34118E-01 -2.97381E-01  5.44587E-01  2.41156E-01 -2.24605E-01  6.58017E-02  9.14558E-02 -9.31761E-03  4.30255E-01  1.42559E-01
   9.14013E-02  1.41735E-01  3.08575E-01 -6.78516E-03 -1.28989E-01 -9.97755E-02 -7.24128E-02  1.77283E-01  6.13905E-01  6.66463E-01
   3.57963E-01  4.74858E-01 -3.80540E-01  7.80908E-02  1.15069E-02 -2.95900E-01 -5.24648E-01 -6.79035E-01 -5.50700E-01 -7.08758E-01
  -5.57545E-01 -1.08280E+00 -1.03676E-01 -1.81458E-01 -4.23393E-01  8.19958E-01  1.10260E+00  1.15800E+00  1.12163E+00  1.99410E-01
   6.08488E-01  4.95234E-01  2.18368E-01  5.80207E-01 -2.57047E-02 -3.05816E-02 -6.61705E-01  3.79338E-01  2.30302E-02  4.59186E-03
   1.06131E+00  7.45517E-01  7.09181E-01 -3.18579E-02  4.65927E-01  4.69931E-01  4.06690E-01  1.49777E-01  6.28030E-01  7.05224E-01
   3.83208E-01  7.31421E-01  2.94215E-01  4.30930E-01 -1.06205E-01 -8.76613E-02 -3.12082E-01 -4.44648E-01 -1.81480E-01 -4.39007E-01
  -3.38260E-02  1.66604E-01 -1.02425E-01 -4.82093E-01 -4.23460E-01 -1.43611E-01 -5.01653E-02  3.54573E-01  6.01465E-01  4.49288E-01
   3.62802E-01 -7.94636E-02 -6.95349E-01 -2.39620E-01 -9.94455E-02 -1.33576E+00 -9.21742E-01 -3.67196E-01 -6.11453E-01 -3.34730E-01
  -5.83346E-01 -2.01566E+00 -2.68803E+00 -2.53927E+00 -2.22382E+00 -2.15416E-01  3.42034E-01  4.60743E-01 -3.05833E-02 -3.95486E-01
   1.34759E-01  2.72766E-02  5.76560E-01  4.20634E-01  5.42510E-01  3.94329E-01  3.25927E-01  1.27081E-01  6.17668E-02  3.04803E-01
   4.98592E-02  4.52559E-01  3.02576E-01  2.18179E-02  3.27264E-01  1.93424E-01  3.26926E-02 -7.38235E-03 -3.81707E-02  1.44796E-01
  -4.53947E-02 -5.59695E-02 -3.86017E-01  1.13430E-01 -4.98495E-01 -3.64385E-01  4.31529E-01 -2.21550E-01  5.41597E-01 -2.91999E-01
   3.33745E-01  3.72322E-01 -1.37161E-01  4.63376E-01  1.78816E-01  4.68155E-01 -1.55935E-01  5.73006E-01  4.26196E-01 -1.22973E-01
   3.43959E-01  3.13918E-01  2.16801E-01 -6.22501E-02  2.99689E-01  4.42192E-02  1.66751E-01  3.94377E-01 -1.87811E-01  1.73615E-01
  -2.38679E-02  5.55694E-02 -3.19699E-01 -4.54416E-01  6.16280E-01 -3.38583E-01 -4.29125E-02  1.74546E-02 -1.76181E-01  5.43455E-02
   1.38330E-01  6.34419E-01 -1.95295E-01 -2.81628E-01 -5.77746E-01 -4.53252E-01  8.02924E-02  1.25728E-01 -8.16016E-02 -5.00704E-02
  -6.47365E-02 -2.22742E-01 -2.42523E-01 -8.98515E-02  1.77003E-01  4.92231E-02  2.78319E-01 -1.39157E-01 -1.10321E-01 -5.44336E-01
  -2.21297E-01  4.37514E-01  4.95980E-01  3.21301E-01 -1.19702E-01  1.91865E-01  2.87521E-01  7.21568E-01 -2.69904E-01  2.08666E-01
   7.38575E-01 -1.19461E-01  3.65172E-03  1.31849E-01  3.70821E-01  4.13799E-02  3.39272E-01  6.87300E-01  2.07752E-01 -5.55396E-02
   4.52888E-02  1.16496E-03  2.59643E-01  1.45670E-01 -1.52561E-01 -1.59429E-01 -7.64817E-02 -6.01259E-01 -3.02979E-01  5.10860E-01
  -2.09986E-02  6.14442E-02 -1.77031E-01 -1.53202E-01  1.47667E-01 -7.46768E-02 -5.75551E-01 -5.76907E-01 -3.96513E-01 -5.07171E-01
  -3.84826E-01  1.88555E-01  1.61684E-01 -4.81590E-01 -1.84518E-02 -4.96920E-01 -2.78345E-01  1.75873E-01 -1.87146E-01 -4.10635E-01
  -2.37214E-01  2.07376E-01  5.53198E-01  2.97952E-01 -1.21986E-01  3.17752E-01  1.61810E-01  2.67349E-01  3.51330E-02  2.96130E-01
   2.50661E-01 -2.13922E-01 -6.14949E-01  2.18991E-01  5.24789E-01 -3.46515E-01 -2.95804E-02 -2.26623E-01  6.69970E-01  1.90651E-01
  -3.89744E-02 -2.39272E-01  4.98519E-02  1.21536E-01 -1.87254E-01  6.10368E-01 -1.43165E-01  4.08500E-01  5.31813E-02  2.77637E-01
   3.48306E-01 -1.15465E-02  1.37349E-01 -1.01678E-02 -1.96368E-02 -1.91486E-01  1.19007E-01  2.55445E-01  5.81872E-01 -6.40260E-02
   6.99898E-02 -2.37082E-01 -2.89422E-01 -1.24339E-01 -2.57719E-01 -7.45046E-01 -8.78039E-01  4.39199E-02 -8.42129E-01 -6.61044E-01
  -7.19512E-01 -4.47324E-01 -6.75560E-03 -2.31812E-01 -2.43443E-01 -6.24133E-01  1.09037E-01  2.63168E-01 -1.60837E-01 -2.90597E-01
   2.85958E-02  1.48772E-02 -1.07336E-01  2.25426E-01 -7.99539E-03  1.69295E-02  1.00405E-01  2.34193E-01  1.90116E-01 -7.42197E-02
   4.07257E-01 -2.68300E-01 -3.13701E-03  5.36841E-01  7.80978E-02  7.86127E-01  3.97832E-01 -1.05462E-02  3.72592E-01  1.53132E-01
  -3.38589E-01  4.95146E-01  6.74174E-01  3.15298E-01  4.85596E-01 -9.49001E-02 -3.37107E-02  5.05955E-02  4.72768E-01 -7.32284E-02
  -3.17864E-01 -1.34375E-01 -6.87468E-01  2.47264E-01  4.14341E-01  1.18581E-01 -1.41652E-01 -2.94924E-01  3.31207E-01 -3.25147E-01
  -3.26676E-01  3.32861E-01 -2.91799E-01 -1.46844E-01  4.88613E-01 -3.88795E-03 -7.10565E-01 -1.90654E-01 -2.35855E-01 -5.39337E-01
   3.29280E-01 -1.79791E-01 -3.71012E-01  1.20650E-01  1.00940E-01  7.96100E-01 -2.65479E-01 -4.87513E-01  4.82373E-01  7.04917E-02
   2.24762E-01 -7.19464E-01 -7.09308E-01  5.66376E-02  6.38063E-02  3.29819E-01 -3.35155E-01  1.66444E-01  3.58726E-01 -6.35580E-01
  -1.44983E-01 -2.48335E-01 -4.54996E-01  4.96926E-02 -3.36036E-01  6.68606E-02 -1.56995E-01 -2.41096E-01  4.13347E-03 -1.41465E-01
   6.31147E-01  4.68508E-01  3.31762E-01  3.64549E-01 -2.31841E-01 -8.08929E-01 -1.14330E-01  3.52424E-01 -8.51125E-03 -8.03113E-02
  -7.20991E-02 -1.05708E-02 -5.20682E-01  6.60725E-02  8.33418E-02 -9.71591E-02  2.01362E-01 -5.31924E-01  3.22436E-02  1.69800E-01
   4.82437E-01  2.41901E-01 -4.80571E-01  5.49849E-01 -2.78320E-01 -6.93246E-02 -4.37279E-01 -5.64453E-01  7.44511E-01 -3.22072E-01
   2.18093E-01  1.26258E-01  3.79289E-03  3.20147E-01
 NY points of the fit to the data follow
   4.90088E-02  4.02530E-02  3.09239E-02  2.38679E-02  1.98402E-02  1.84235E-02  1.84369E-02  2.60253E-02  7.10813E-02  1.89899E-01
   3.73483E-01  5.92384E-01  7.70789E-01  8.07483E-01  6.91498E-01  5.07274E-01  3.46323E-01  2.27350E-01  1.53235E-01  1.05809E-01
   7.65602E-02  5.27495E-02  1.80798E-02 -2.12193E-02 -5.43257E-02 -7.78014E-02 -9.32387E-02 -1.04454E-01 -1.14432E-01 -1.25042E-01
  -1.38088E-01 -1.55124E-01 -1.78139E-01 -2.08070E-01 -2.39763E-01 -2.65753E-01 -2.73602E-01 -2.57543E-01 -2.07748E-01 -1.19609E-01
   5.85470E-03  1.62972E-01  3.26129E-01  4.67887E-01  5.41031E-01  5.33446E-01  4.49955E-01  3.35097E-01  2.27632E-01  1.53643E-01
   1.08170E-01  7.43316E-02  4.06730E-02  1.74568E-03 -4.32534E-02 -9.48693E-02 -1.54641E-01 -2.19298E-01 -2.84828E-01 -3.47330E-01
  -3.88412E-01 -4.06671E-01 -4.18249E-01 -3.91077E-01 -3.19709E-01 -2.14096E-01 -3.74948E-02  1.85640E-01  3.74010E-01  4.79874E-01
   5.21522E-01  4.88568E-01  3.89352E-01  2.63190E-01  1.36869E-01  3.43494E-02 -8.21585E-02 -2.45977E-01 -4.22047E-01 -5.57438E-01
  -5.90114E-01 -4.53276E-01 -1.76386E-01  1.28332E-01  3.68215E-01  5.22944E-01  5.81938E-01  5.52146E-01  4.72492E-01  3.86295E-01
   3.30178E-01  2.96762E-01  2.65107E-01  2.25351E-01  1.67538E-01  8.48125E-02 -3.35593E-02 -1.66702E-01 -2.78733E-01 -3.21324E-01
  -2.53875E-01 -9.35121E-02  1.10537E-01  2.77396E-01  3.74365E-01  3.91338E-01  3.71397E-01  3.46884E-01  3.33845E-01  3.31360E-01
   3.30253E-01  3.27760E-01  3.24364E-01  3.20951E-01  3.18577E-01  3.17564E-01  3.17639E-01  3.17912E-01  3.15693E-01  3.02101E-01
   2.68889E-01  2.13401E-01  1.22919E-01  1.56483E-02 -8.26579E-02 -1.80049E-01 -2.70351E-01 -3.64500E-01 -4.64587E-01 -5.55627E-01
  -5.76696E-01 -4.98674E-01 -4.03023E-01 -3.77932E-01 -4.89853E-01 -6.94019E-01 -8.51626E-01 -8.05267E-01 -5.47391E-01 -2.47855E-01
  -4.96976E-02  2.27991E-02  3.77045E-02  5.54882E-02  8.03559E-02  1.04840E-01  1.27646E-01  1.48595E-01  1.67742E-01  1.85657E-01
   2.03133E-01  2.21081E-01  2.39990E-01  2.60578E-01  2.83837E-01  3.10223E-01  3.40089E-01  3.74130E-01  4.14381E-01  4.64982E-01
   5.33798E-01  6.34870E-01  7.93960E-01  1.01082E+00  1.11434E+00  9.66339E-01  4.81713E-01 -3.16446E-01 -1.08777E+00 -1.43054E+00
  -1.23296E+00 -8.52548E-01 -5.65583E-01 -4.78494E-01 -4.66618E-01 -4.38481E-01 -4.02718E-01 -3.70414E-01 -3.45481E-01 -3.25664E-01
  -3.06723E-01 -2.87139E-01 -2.69934E-01 -2.56577E-01 -2.45832E-01 -2.35266E-01 -2.24117E-01 -2.12420E-01 -2.01428E-01 -1.91254E-01
  -1.81562E-01 -1.71497E-01 -1.61153E-01 -1.50930E-01 -1.41152E-01 -1.31740E-01 -1.22324E-01 -1.12383E-01 -1.00667E-01 -8.63274E-02
  -7.03252E-02 -5.62501E-02 -4.83594E-02 -4.84440E-02 -5.24991E-02 -5.26243E-02 -4.56565E-02 -3.80963E-02 -4.24782E-02 -6.27687E-02
  -8.75645E-02 -1.00559E-01 -9.57756E-02 -7.89515E-02 -5.77012E-02 -3.85397E-02 -2.48247E-02 -1.81427E-02 -1.83904E-02 -1.92080E-02
  -1.13610E-02  1.52934E-02  6.61011E-02  1.41164E-01  2.31753E-01  3.12157E-01  3.63186E-01  3.84738E-01  4.04865E-01  4.50164E-01
   4.79025E-01  4.11614E-01  2.37858E-01  4.77834E-02 -7.15180E-02 -1.10492E-01 -1.10145E-01 -1.11237E-01 -1.19123E-01 -1.29098E-01
  -1.39776E-01 -1.49423E-01 -1.57757E-01 -1.65326E-01 -1.73290E-01 -1.82404E-01 -1.91939E-01 -1.98820E-01 -2.02311E-01 -2.04385E-01
  -2.06149E-01 -2.15219E-01 -2.33073E-01 -2.39746E-01 -2.20279E-01 -1.72630E-01 -9.09943E-02 -2.41524E-03  7.04238E-02  1.24025E-01
   1.65704E-01  1.93108E-01  1.90910E-01  1.75578E-01  1.60222E-01  1.61270E-01  1.52269E-01  1.26615E-01  9.84760E-02  6.94740E-02
   4.04263E-02 -1.70824E-03 -5.13738E-02 -1.04426E-01 -1.55692E-01 -2.09039E-01 -2.68335E-01 -3.39826E-01 -4.32359E-01 -5.42399E-01
  -6.57389E-01 -7.31131E-01 -6.99165E-01 -5.23974E-01 -2.06905E-01  1.76346E-01  5.09991E-01  7.00405E-01  7.26771E-01  6.33699E-01
   4.92832E-01  3.77005E-01  3.08098E-01  2.82417E-01  2.81691E-01  2.88555E-01  2.97931E-01  3.01944E-01  2.97772E-01  2.85961E-01
   2.69280E-01  2.52488E-01  2.36348E-01  2.20781E-01  2.03105E-01  1.78430E-01  1.46488E-01  1.06455E-01  6.16700E-02  2.38729E-02
  -1.50909E-03 -8.46177E-03  1.00114E-03  1.68618E-02  2.08294E-02 -1.66901E-03 -5.68757E-02 -1.40835E-01 -2.30172E-01 -3.04429E-01
  -3.50828E-01 -3.68391E-01 -3.57771E-01 -3.19577E-01 -2.52027E-01 -1.64017E-01 -6.50089E-02  1.76737E-02  6.71921E-02  5.86489E-02
  -4.03338E-03 -1.10403E-01 -2.50208E-01 -4.01842E-01 -5.38513E-01 -6.21435E-01 -6.09972E-01 -4.84582E-01 -3.82116E-01 -5.85203E-01
  -1.14343E+00 -1.91209E+00 -2.54924E+00 -2.57610E+00 -1.88300E+00 -8.89471E-01 -2.14213E-01  1.95311E-02 -2.57184E-02 -7.24163E-02
  -5.88443E-02 -3.95333E-02 -2.17261E-02 -6.06565E-03  7.59765E-03  1.89171E-02  2.64574E-02  2.68469E-02  1.84956E-02 -3.61266E-04
  -2.69916E-02 -5.65884E-02 -8.35857E-02 -1.01561E-01 -1.08082E-01 -1.01729E-01 -8.71559E-02 -6.67140E-02 -4.57716E-02 -2.62536E-02
  -9.71278E-03  3.82827E-03  1.50551E-02  2.36472E-02  3.00747E-02  3.52813E-02  4.04201E-02  4.56823E-02  5.06437E-02  5.48887E-02
   5.85300E-02  6.22935E-02  6.62403E-02  7.01026E-02  7.31413E-02  7.53554E-02  7.70842E-02  7.94456E-02  8.30393E-02  8.74703E-02
   9.16972E-02  9.43833E-02  9.50199E-02  9.35810E-02  9.09948E-02  8.80619E-02  8.53267E-02  8.24446E-02  7.87178E-02  7.37239E-02
   6.74801E-02  6.04820E-02  5.32525E-02  4.60609E-02  3.92392E-02  3.30957E-02  2.76411E-02  2.22027E-02  1.67490E-02  1.16433E-02
   7.35105E-03  3.89456E-03  9.48081E-04 -1.84002E-03 -4.65070E-03 -7.32712E-03 -9.78424E-03 -1.18178E-02 -1.33961E-02 -1.44411E-02
  -1.49066E-02 -1.46952E-02 -1.34281E-02 -1.07058E-02 -6.59158E-03 -1.20976E-03  5.71648E-03  1.43963E-02  2.51244E-02  4.06182E-02
   6.91956E-02  1.14952E-01  1.77457E-01  2.46522E-01  2.92653E-01  2.91605E-01  2.41111E-01  1.64787E-01  9.37747E-02  5.47907E-02
   5.18001E-02  6.86403E-02  9.00366E-02  1.06409E-01  1.19032E-01  1.30801E-01  1.41477E-01  1.50122E-01  1.55964E-01  1.59064E-01
   1.59985E-01  1.59601E-01  1.58403E-01  1.56134E-01  1.52155E-01  1.45767E-01  1.36839E-01  1.25892E-01  1.14282E-01  1.03208E-01
   9.31176E-02  8.33796E-02  7.36635E-02  6.40018E-02  5.49725E-02  4.71043E-02  4.03279E-02  3.41677E-02  2.83580E-02  2.31928E-02
   1.87244E-02  1.51261E-02  1.25122E-02  1.12441E-02  1.17970E-02  1.40930E-02  1.73483E-02  2.10204E-02  2.51790E-02  3.00783E-02
   3.55916E-02  4.14329E-02  4.69897E-02  5.15414E-02  5.47042E-02  5.67302E-02  5.84392E-02  6.03779E-02  6.27822E-02  6.52386E-02
   6.66943E-02  6.64953E-02  6.46795E-02  6.18957E-02  5.87323E-02  5.52742E-02  5.15555E-02  4.78095E-02  4.45295E-02  4.14271E-02
   3.81252E-02  3.44628E-02  3.05419E-02  2.65241E-02  2.23654E-02  1.82290E-02  1.43978E-02  1.12476E-02  8.73827E-03  6.21358E-03
   2.86125E-03 -1.64316E-03 -7.20309E-03 -1.37722E-02 -2.12409E-02 -2.93224E-02 -3.78695E-02 -4.73734E-02 -5.89714E-02 -7.33003E-02
  -9.00307E-02 -1.07993E-01 -1.25795E-01 -1.42605E-01 -1.58209E-01 -1.72775E-01 -1.85997E-01 -1.97592E-01 -2.07036E-01 -2.13928E-01
  -2.17666E-01 -2.17971E-01 -2.15471E-01 -2.11208E-01 -2.05408E-01 -1.97916E-01 -1.89342E-01 -1.80943E-01 -1.73446E-01 -1.66479E-01
  -1.59174E-01 -1.50674E-01 -1.40839E-01 -1.30058E-01 -1.18792E-01 -1.07294E-01 -9.58154E-02 -8.48621E-02 -7.44470E-02 -6.44612E-02
  -5.48299E-02 -4.55341E-02 -3.68294E-02 -2.89209E-02 -2.18456E-02 -1.52149E-02 -8.75530E-03 -2.63895E-03  2.31773E-03  6.14672E-03
   9.70610E-03  1.33446E-02  1.65912E-02  1.90854E-02  2.09483E-02  2.24171E-02  2.37793E-02  2.49404E-02  2.58842E-02  2.71279E-02
   2.91730E-02  3.19485E-02  3.47394E-02  3.70000E-02  3.85668E-02  3.92348E-02  3.92722E-02  3.91942E-02  3.91838E-02  3.92222E-02
   3.92848E-02  3.92962E-02  3.92534E-02  3.94220E-02  3.99751E-02  4.09514E-02  4.21193E-02  4.28505E-02  4.26155E-02  4.12124E-02
   3.90979E-02  3.77043E-02  3.80721E-02  3.96094E-02  4.08043E-02  4.10165E-02  4.06367E-02  4.00727E-02  3.96092E-02  3.96748E-02
   4.09044E-02  4.29283E-02  4.48804E-02  4.63267E-02  4.75490E-02  4.90223E-02  5.07511E-02  5.24102E-02  5.37272E-02  5.46202E-02
   5.50710E-02  5.49526E-02  5.44313E-02  5.44318E-02  5.55700E-02  5.78028E-02  6.02378E-02  6.22757E-02  6.37751E-02  6.51931E-02
   6.70437E-02  6.97901E-02  7.31423E-02  7.59572E-02  7.71988E-02  7.69275E-02  7.63717E-02  7.67969E-02  7.85876E-02  8.08866E-02
   8.25881E-02  8.33839E-02  8.40041E-02  8.52434E-02  8.70427E-02  8.90626E-02  9.10050E-02  9.29715E-02  9.55642E-02  9.88070E-02
   1.01893E-01  1.04399E-01  1.06699E-01  1.09410E-01  1.12900E-01  1.17202E-01  1.22414E-01  1.28631E-01  1.35358E-01  1.41470E-01
   1.46452E-01  1.50964E-01  1.55983E-01  1.62055E-01
 NY background values follow
     8.003E-02    7.975E-02    7.947E-02    7.919E-02    7.891E-02    7.863E-02    7.835E-02    7.807E-02    7.779E-02    7.752E-02
     7.724E-02    7.696E-02    7.668E-02    7.640E-02    7.612E-02    7.584E-02    7.556E-02    7.528E-02    7.500E-02    7.473E-02
     7.445E-02    7.417E-02    7.389E-02    7.361E-02    7.333E-02    7.305E-02    7.277E-02    7.249E-02    7.221E-02    7.194E-02
     7.166E-02    7.138E-02    7.110E-02    7.082E-02    7.054E-02    7.026E-02    6.998E-02    6.970E-02    6.942E-02    6.915E-02
     6.887E-02    6.859E-02    6.831E-02    6.803E-02    6.775E-02    6.747E-02    6.719E-02    6.691E-02    6.663E-02    6.636E-02
     6.608E-02    6.580E-02    6.552E-02    6.524E-02    6.496E-02    6.468E-02    6.440E-02    6.412E-02    6.384E-02    6.357E-02
     6.329E-02    6.301E-02    6.273E-02    6.245E-02    6.217E-02    6.189E-02    6.161E-02    6.133E-02    6.105E-02    6.077E-02
