 
 $NMID
 ID=''
 FMTDAT='(2E13.5)'
 TRAMP=   1.00000E+0
 VOLUME=   1.00000E+0
 $END
   2.67848E+2  -4.76396E+2
   6.97679E+2   1.43982E+3
  -1.74330E+3  -3.28294E+3
  -1.32213E+3   1.73759E+3
   1.86441E+3   3.45894E+3
   2.66896E+3  -1.31427E+3
   3.22027E+3  -9.07797E+2
  -4.76252E+2   3.25221E+2
   4.65865E+2  -4.73840E+3
  -2.29367E+3  -3.32426E+3
  -3.00187E+3  -2.53458E+3
  -1.07765E+3   3.14064E+2
  -3.79343E+2   3.27403E+3
  -2.23462E+3   4.77920E+3
  -9.87483E+2   1.84791E+3
   1.48303E+3   2.13222E+3
   2.95019E+3   1.06896E+3
   3.16740E+3  -7.63936E+2
   1.68439E+3   1.25621E+3
   2.42250E+3   9.10987E+2
   2.88570E+3  -4.01418E+3
   1.16539E+3  -3.88562E+2
  -2.49828E+3   7.79718E+2
  -4.19738E+3  -3.59755E+3
   1.48093E+3  -2.03302E+3
   1.52123E+3   2.64982E+3
  -3.27621E+3   3.37657E+3
  -3.42681E+3   7.32729E+2
  -8.51625E+2  -4.28549E+3
   3.71463E+3  -2.43552E+3
   3.16044E+3   2.47619E+3
  -2.42086E+3   2.44797E+3
  -3.68601E+3  -6.03041E+2
  -1.61846E+3  -1.52681E+3
  -7.79211E+2   1.21969E+3
  -3.81409E+3  -3.67876E+3
   2.04904E+3  -3.18204E+3
   4.29176E+3   5.73691E+2
  -5.61525E+2   1.53272E+3
  -1.31829E+3   1.47053E+2
   1.01135E+3   2.97932E+3
  -5.45522E+3   1.38347E+3
  -4.60527E+3  -5.32447E+3
   2.33249E+3  -5.81935E+3
   3.30919E+3  -1.51102E+3
   2.02944E+3   1.28777E+3
  -6.34080E+2  -2.54739E+3
   4.95390E+2   2.18197E+3
   3.03702E+2   2.07597E+3
   1.07556E+3   1.65470E+3
  -2.33779E+3   4.79892E+2
   1.21158E+3  -1.78533E+3
   4.06604E+3  -1.04807E+3
   2.07274E+3   7.41979E+2
   1.63219E+3   3.03077E+3
  -3.28294E+2   3.23438E+3
  -2.50717E+3   9.18824E+1
  -3.57861E+3   9.64951E+2
  -3.48061E+3  -4.32769E+3
  -1.73628E+3  -3.90042E+3
   2.97510E+3  -1.90357E+3
   3.48637E+3   2.67329E+2
   2.05435E+3   1.63193E+2
  -1.14276E+2  -6.92297E+2
   1.62972E+2  -2.78474E+3
   1.40484E+3  -6.77599E+2
   5.07701E+2   1.56192E+3
  -6.27199E+2   1.84794E+3
  -1.37968E+3  -1.18277E+3
   2.94872E+2   1.22986E+3
   1.03647E+3   2.48904E+3
  -3.67637E+1   8.47791E+2
  -1.00568E+3   1.14685E+3
   3.21135E+1  -1.13276E+1
  -7.81916E+2   5.65386E+2
   7.54128E+2   1.93345E+3
   6.94956E+1   3.98908E+2
  -4.93820E+2  -1.24239E+3
   1.33980E+3  -4.95230E+2
   6.07204E+2   2.15997E+3
  -1.56936E+3   1.79473E+3
   1.31700E+3  -1.04197E+3
  -8.44976E+2  -6.87039E+2
  -7.73279E+2   2.44762E+3
  -2.82713E+3   1.67286E+3
  -3.36537E+3  -1.02784E+3
  -1.00762E+3  -3.41096E+3
   2.45601E+3  -3.13326E+3
   3.52679E+3   5.98429E+2
  -9.69004E+1   4.68831E+2
   5.62922E+2  -6.31518E+1
   4.36183E+2   1.09885E+1
   2.46466E+3   4.69125E+3
  -3.20446E+3   3.71532E+3
  -2.34228E+3  -6.25493E+2
   9.51384E+2  -3.01243E+3
   2.96883E+3   2.58540E+2
   4.32233E+3   3.09409E+3
  -8.38414E+2   3.12617E+3
  -1.42894E+3   1.91509E+3
   2.14621E+3  -2.64178E+3
   2.99257E+3  -7.56375E+2
   3.46145E+3   2.50760E+3
   4.39176E+2   4.33540E+3
  -9.76186E+2   2.26433E+3
  -2.31495E+3   9.72271E+2
   6.43713E+2   2.42797E+3
  -1.96148E+3   2.79650E+3
  -9.32557E+1  -1.28529E+3
   2.97194E+3  -2.25525E+3
   2.63684E+3  -1.67212E+3
   2.84625E+3   3.23294E+3
   8.43206E+2   3.63127E+3
  -2.74665E+2   1.50756E+3
  -3.94317E+2   1.31467E+3
  -2.60162E+2   1.83105E+3
  -9.39566E+2   7.67761E+2
  -3.03429E+2  -2.18474E+3
   1.33142E+3  -1.08877E+3
   9.74518E+2  -1.00622E+3
   5.05748E+2   9.18996E+2
  -7.57108E+1   1.40005E+3
  -2.00294E+3  -4.31015E+2
   9.40362E+2  -2.76738E+3
   1.85020E+3   6.56762E+2
  -6.12930E+2   1.51339E+3
  -1.50862E+3  -2.63820E+3
   7.21846E+2   1.03328E+3
   1.80892E+1   2.60072E+3
  -2.38313E+3   1.44837E+1
  -2.79800E+3   1.23744E+3
  -8.33752E+2  -1.02904E+3
   1.70029E+3  -2.02329E+3
   7.44167E+2   2.48721E+3
  -1.11382E+3   2.98932E+3
  -2.75294E+3  -1.75134E+3
  -9.01931E+2  -2.72940E+3
  -1.12084E+3  -1.85889E+3
   2.21992E+2  -5.04441E+2
  -3.38298E+2  -1.77721E+3
  -5.33734E+2  -9.88671E+2
   1.79458E+3  -1.91274E+3
   7.13063E+2   5.87684E+2
  -1.45409E+2   1.87405E+3
  -2.12509E+3   1.18429E+3
  -9.37052E+2  -1.91920E+3
   6.71978E+2   6.57426E+2
  -1.92779E+3   2.71722E+3
  -2.61600E+3  -8.12751E+2
  -1.46675E+3  -2.87092E+2
  -2.39171E+3  -1.31992E+3
  -2.30452E+3  -9.33877E+2
   3.00970E+2  -7.90723E+2
   8.61043E+2  -2.77325E+3
   3.09947E+3  -3.61006E+3
   1.27050E+3  -1.63506E+3
  -6.72203E+2   4.71901E+2
  -1.31840E+3   6.69022E+1
  -1.78137E+3   1.56879E+3
   1.15110E+3   1.88739E+3
  -5.70471E+2  -1.61147E+2
   2.98480E+2  -6.64673E+2
   6.36422E+1  -5.26863E+2
   1.78838E+3   1.49894E+3
  -2.62966E+2   3.61926E+2
  -1.12221E+3  -3.64715E+2
  -3.32784E+2  -2.57991E+3
   2.62423E+3  -2.54774E+3
   9.40319E+2  -2.06231E+2
  -7.09388E+1   3.08048E+3
  -2.57815E+3  -1.04146E+3
  -1.62038E+3  -2.01466E+3
  -2.06993E+3   3.68150E+2
  -3.46948E+2  -1.09061E+3
   2.59831E+3  -1.40050E+3
  -4.95389E+2  -1.08432E+3
   7.32976E+2  -4.05896E+2
   3.47711E+3   3.72333E+2
   7.46980E+2   2.44920E+3
  -1.00836E+3   3.01879E+2
  -1.22088E+3  -9.77532E+2
  -2.07788E+3  -1.61596E+3
  -1.39559E+2  -3.00211E+2
   2.27204E+3  -1.13120E+3
   9.87145E+2   1.79267E+3
   1.96692E+3  -1.21774E+2
   5.75427E+2   7.47101E+1
  -1.67204E+3  -1.02464E+3
  -3.79403E+2  -1.62223E+3
  -5.04626E+2  -5.54204E+3
   2.02988E+3  -2.26892E+3
   3.38771E+2   1.90960E+3
   7.69031E+2   1.71241E+3
  -6.99215E+2  -5.15618E+2
   4.61197E+2  -2.22611E+3
   8.55743E+2   6.18566E+2
   9.44357E+2   2.98166E+3
  -1.23567E+3   1.51473E+3
   6.49597E+2  -1.89404E+3
   1.25406E+3   1.35812E+3
   3.97820E+2   1.38778E+3
  -7.28714E+2  -1.18289E+3
   8.98339E+2  -3.41704E+3
   8.65408E+2  -3.82099E+3
   1.20639E+3  -2.00379E+3
   1.00003E+3   3.90124E+2
  -2.35610E+3  -1.18192E+3
   6.27248E+2  -8.17247E+1
  -3.09582E+2   6.89834E+2
  -1.78666E+2   6.21950E+2
  -3.58272E+3   3.04645E+2
  -1.48592E+3  -1.13214E+3
   1.38818E+3  -2.59764E+2
   2.27722E+3  -1.25862E+2
   5.90115E+1   6.07618E+2
  -5.05617E+2  -3.86516E+2
  -1.27172E+3   1.07163E+3
  -1.06389E+2  -1.18427E+3
  -5.99190E+2  -1.92654E+3
   7.21581E+2   1.88442E+2
   4.51763E+2   7.31290E+0
   1.55453E+3  -1.27908E+3
   2.03365E+2  -1.37888E+3
  -8.22421E+2  -1.57916E+3
   6.70249E+2   5.08924E+2
  -3.59307E+2  -4.00213E+2
   7.47517E+1  -1.60286E+3
   2.68386E+2   6.05014E+1
  -1.18222E+3   2.13667E+3
  -1.29504E+3  -4.78296E+2
  -1.17004E+3   6.43296E+2
   5.97168E+1   1.40413E+2
  -1.79874E+3  -1.86774E+3
   1.00943E+3  -2.11316E+3
   1.52412E+3  -9.49129E+2
   1.84248E+3   1.64349E+3
   9.75982E+2   1.71880E+3
  -1.50928E+3   1.28045E+3
  -9.48737E+2  -6.50721E+2
   1.29919E+3   5.42624E+2
   6.94752E+2   2.00368E+2
  -1.85964E+2  -2.70779E+0
  -1.23128E+3   7.68029E+2
   1.61464E+3   1.09991E+2
  -1.02922E+3   3.12905E+2
  -8.72895E+1   3.05568E+2
  -1.31417E+3   5.13329E+2
   1.05760E+3  -2.39908E+2
   1.20753E+3   1.08766E+3
   2.47663E+3   9.45126E+2
  -1.07134E+3   2.68131E+3
  -2.42621E+3   5.66364E+2
  -9.75465E+1   3.35227E+2
   2.21972E+3  -1.47346E+3
   6.01251E+2   4.98632E+2
  -3.18371E+2  -1.87575E+3
   2.00205E+3   4.74454E+1
  -8.31500E+2   1.76895E+3
   7.08720E+2   2.67621E+3
  -2.70365E+3   1.45393E+3
  -1.92234E+3  -1.23261E+2
   7.78179E+2  -3.09540E+2
   1.03238E+3  -1.48631E+2
  -1.52480E+3   9.00165E+2
  -3.01578E+3   9.25243E+2
  -7.15626E+2   2.24014E+2
  -2.20220E+2   2.48644E+2
  -2.14874E+3  -4.72482E+2
  -2.68939E+3   1.93668E+3
  -2.44812E+1   8.59249E+1
   1.09455E+3  -7.05958E+2
   1.63063E+3   1.18879E+3
   1.57797E+2   3.52909E+2
  -2.95193E+2   7.50823E+2
  -2.10879E+3   2.28728E+3
  -1.26367E+3  -8.56382E+1
   6.75967E+2  -7.51938E+2
  -8.36516E+1  -1.22030E+3
   7.38125E+2   2.93383E+2
   1.22243E+3  -1.81805E+3
   1.13140E+2  -8.24914E+1
   1.91336E+3   4.22406E+2
  -1.90374E+3   8.50358E+2
  -4.33898E+1  -1.27138E+3
  -2.39720E+1  -2.19912E+3
  -2.28884E+2  -5.73414E+2
  -2.52609E+2  -1.35726E+3
   1.10469E+3   1.31778E+3
   8.25400E+2  -1.32742E+2
  -4.07339E+2  -5.99459E+1
  -5.72293E+2   3.03946E+1
   1.74645E+3  -2.28135E+2
   1.00264E+3  -9.53751E+2
   1.09460E+3   3.57038E+2
   4.84982E+1  -3.11227E+2
  -1.03517E+3   1.11249E+3
  -1.99357E+3  -4.11680E+2
   3.19678E+2  -1.28662E+3
   3.00078E+2   6.54692E+1
  -5.98076E+2   1.60619E+3
  -1.97190E+3   8.24063E+2
   8.84413E+2  -1.55078E+3
   1.04427E+3  -4.78447E+2
   3.95883E+2   6.03021E+2
  -9.49472E+2   1.25731E+3
   5.10309E+2  -2.29121E+3
  -1.10172E+3  -1.78629E+2
   1.45818E+3   1.66562E+2
   1.36862E+3   2.89048E+3
   2.76508E+2   1.64262E+2
  -1.75865E+3  -1.67646E+2
  -1.14887E+3  -1.03060E+3
  -1.91418E+2   9.28307E+2
   1.26212E+0   1.24560E+3
   5.46090E+2   9.05975E+2
   3.03472E+2   3.25132E+2
  -2.08659E+0  -3.27908E+2
   1.40332E+1  -1.41896E+3
  -3.28532E+3   7.04541E+2
   7.36530E+2  -2.68631E+2
   1.25954E+2  -1.64478E+3
   2.27607E+2   1.75011E+2
  -5.47263E+2  -8.00597E+2
  -9.48376E+2   2.20505E+2
  -1.35957E+3   2.47154E+2
   7.93507E+2   5.78729E+2
  -4.36095E+2   1.28789E+2
   5.61978E+2   7.52591E+2
  -6.44185E+2  -6.86233E+2
   6.35804E+2  -1.45927E+3
   9.58440E+2   6.44753E+2
  -3.90569E+2   8.19186E+2
  -1.31764E+3   2.45763E+3
  -1.68069E+3  -4.84664E+2
   1.34852E+3  -3.57370E+2
  -3.44231E+2  -7.71677E+2
   1.01990E+3  -7.92256E+2
  -3.76065E+2  -2.06427E+3
   1.42514E+3  -1.16468E+3
  -8.20378E+2   5.51263E+2
  -8.66413E+2  -1.05432E+3
  -1.81813E+3  -6.04294E+2
   1.83924E+2  -1.06142E+3
   2.31044E+2   2.67311E+2
  -1.72364E+3   2.92175E+3
  -1.13570E+3   2.88196E+2
   7.41367E+2  -5.74899E+2
   3.58163E+2  -1.39186E+3
   3.58579E+2   1.20600E+3
   1.10786E+3   3.18236E+2
  -9.10723E+2  -8.04121E+2
   8.85287E+2  -5.76192E+2
  -5.53585E+2  -1.06453E+3
  -1.49349E+3   1.60092E+3
   4.27384E+0  -3.90870E+2
   9.25202E+2  -2.54190E+2
   2.62875E+3   1.48276E+3
   7.74097E+2   1.62438E+3
   6.98947E+2   5.09537E+2
  -4.76776E+2  -4.27973E+2
   2.31617E+2   1.69964E+3
  -5.46697E+2   7.58160E+2
  -7.48864E+2   9.14689E+2
   5.44731E+2  -3.37118E+2
  -5.21403E+2  -1.02964E+3
   7.95645E+2   1.52996E+3
  -7.90959E+2   6.21617E+2
