 
 $NMID
 ID=''
 FMTDAT='(2E13.5)'
 TRAMP=   1.00000E+0
 VOLUME=   1.00000E+0
 $END
  -8.44555E+3   1.54302E+4
  -3.15654E+4   3.22925E+4
  -2.45562E+4   3.78254E+4
  -2.16234E+4   3.53034E+4
  -2.28441E+4   3.61818E+4
  -2.04714E+4   3.77260E+4
  -1.91374E+4   3.63771E+4
  -1.94353E+4   3.66474E+4
  -1.76978E+4   3.75388E+4
  -1.65127E+4   3.67674E+4
  -1.65851E+4   3.67567E+4
  -1.51269E+4   3.73048E+4
  -1.39667E+4   3.69229E+4
  -1.38550E+4   3.70030E+4
  -1.27479E+4   3.72849E+4
  -1.17615E+4   3.67117E+4
  -1.14039E+4   3.67819E+4
  -1.02709E+4   3.69679E+4
  -9.14909E+3   3.64428E+4
  -8.73456E+3   3.62161E+4
  -7.73783E+3   3.62482E+4
  -6.59526E+3   3.57996E+4
  -5.91081E+3   3.56031E+4
  -5.01566E+3   3.55284E+4
  -3.94031E+3   3.49932E+4
  -3.13753E+3   3.48977E+4
  -2.35177E+3   3.48278E+4
  -1.50221E+3   3.44060E+4
  -9.58402E+2   3.41195E+4
  -2.94292E+1   3.39231E+4
   7.94346E+2   3.34920E+4
   1.44783E+3   3.33368E+4
   2.16182E+3   3.31179E+4
   2.85623E+3   3.25478E+4
   3.51889E+3   3.21397E+4
   4.19265E+3   3.18335E+4
   5.00483E+3   3.13039E+4
   5.75504E+3   3.08665E+4
   6.52382E+3   3.03744E+4
   7.20232E+3   2.98721E+4
   7.94530E+3   2.93875E+4
   8.50779E+3   2.89613E+4
   9.07348E+3   2.85140E+4
   9.72382E+3   2.78880E+4
   1.04608E+4   2.74241E+4
   1.11123E+4   2.69642E+4
   1.17073E+4   2.64526E+4
   1.23501E+4   2.59988E+4
   1.29764E+4   2.54736E+4
   1.35488E+4   2.49772E+4
   1.40179E+4   2.44742E+4
   1.46542E+4   2.39238E+4
   1.51590E+4   2.33555E+4
   1.57231E+4   2.27365E+4
   1.62319E+4   2.23149E+4
   1.66564E+4   2.17954E+4
   1.71258E+4   2.12992E+4
   1.75159E+4   2.07739E+4
   1.78884E+4   2.02087E+4
   1.83511E+4   1.96486E+4
   1.86764E+4   1.91411E+4
   1.88906E+4   1.85901E+4
   1.93172E+4   1.81195E+4
   1.95684E+4   1.75815E+4
   1.97778E+4   1.70159E+4
   2.00617E+4   1.64234E+4
   2.03472E+4   1.58936E+4
   2.05269E+4   1.53613E+4
   2.06287E+4   1.48808E+4
   2.08009E+4   1.43388E+4
   2.09634E+4   1.37666E+4
   2.10022E+4   1.31775E+4
   2.10977E+4   1.26348E+4
   2.11959E+4   1.20938E+4
   2.12662E+4   1.15025E+4
   2.12616E+4   1.09071E+4
   2.12317E+4   1.04172E+4
   2.11854E+4   9.76419E+3
   2.11791E+4   9.24807E+3
   2.12147E+4   8.64860E+3
   2.11856E+4   8.06543E+3
   2.11622E+4   7.59929E+3
   2.10039E+4   6.92667E+3
   2.08949E+4   6.48101E+3
   2.08303E+4   6.01698E+3
   2.06605E+4   5.52948E+3
   2.05577E+4   4.95114E+3
   2.03640E+4   4.46256E+3
   2.02181E+4   3.99257E+3
   2.01111E+4   3.49394E+3
   1.98874E+4   2.96473E+3
   1.97826E+4   2.48471E+3
   1.95892E+4   2.04399E+3
   1.94542E+4   1.62498E+3
   1.92837E+4   1.09907E+3
   1.89683E+4   6.58527E+2
   1.87413E+4   2.46930E+2
   1.85977E+4  -2.07046E+2
   1.83777E+4  -6.08222E+2
   1.80760E+4  -1.00242E+3
   1.78633E+4  -1.35873E+3
   1.75992E+4  -1.79077E+3
   1.74051E+4  -2.19075E+3
   1.71528E+4  -2.52164E+3
   1.68928E+4  -2.88026E+3
   1.66562E+4  -3.17448E+3
   1.63388E+4  -3.46871E+3
   1.60861E+4  -3.77301E+3
   1.58209E+4  -4.13785E+3
   1.54938E+4  -4.47961E+3
   1.51595E+4  -4.75522E+3
   1.48791E+4  -5.08697E+3
   1.45989E+4  -5.43247E+3
   1.43650E+4  -5.58946E+3
   1.40381E+4  -5.87885E+3
   1.36569E+4  -6.13941E+3
   1.34259E+4  -6.38372E+3
   1.30859E+4  -6.65900E+3
   1.28647E+4  -6.81322E+3
   1.25062E+4  -7.08981E+3
   1.23163E+4  -7.29867E+3
   1.20288E+4  -7.41961E+3
   1.17200E+4  -7.58298E+3
   1.14538E+4  -7.77178E+3
   1.10565E+4  -7.95057E+3
   1.08328E+4  -8.12985E+3
   1.05698E+4  -8.26455E+3
   1.02902E+4  -8.44363E+3
   9.99169E+3  -8.48870E+3
   9.78059E+3  -8.60207E+3
   9.44739E+3  -8.64174E+3
   9.24053E+3  -8.70251E+3
   8.88938E+3  -8.83640E+3
   8.64800E+3  -9.02718E+3
   8.43970E+3  -9.01087E+3
   8.21184E+3  -9.03862E+3
   8.02220E+3  -9.07688E+3
   7.75277E+3  -9.11418E+3
   7.51425E+3  -9.13252E+3
   7.27840E+3  -9.10453E+3
   7.06603E+3  -9.16900E+3
   6.76356E+3  -9.20524E+3
   6.57115E+3  -9.15817E+3
   6.43215E+3  -9.13692E+3
   6.22550E+3  -9.09875E+3
   6.01752E+3  -9.00454E+3
   5.82245E+3  -9.00416E+3
   5.65129E+3  -8.90271E+3
   5.40132E+3  -8.88488E+3
   5.28759E+3  -8.88025E+3
   5.13783E+3  -8.73154E+3
   5.01942E+3  -8.63469E+3
   4.78611E+3  -8.59674E+3
   4.66778E+3  -8.51323E+3
   4.50729E+3  -8.42575E+3
   4.31536E+3  -8.34936E+3
   4.19081E+3  -8.29016E+3
   4.08457E+3  -8.16878E+3
   3.95647E+3  -8.12654E+3
   3.86188E+3  -8.02621E+3
   3.75106E+3  -7.97463E+3
   3.57653E+3  -7.84798E+3
   3.43798E+3  -7.73941E+3
   3.30091E+3  -7.52511E+3
   3.24997E+3  -7.50182E+3
   3.19139E+3  -7.41259E+3
   3.06081E+3  -7.15968E+3
   3.00531E+3  -7.10878E+3
   2.87861E+3  -7.08700E+3
   2.83524E+3  -6.90982E+3
   2.76266E+3  -6.82927E+3
   2.68890E+3  -6.65057E+3
   2.54520E+3  -6.54101E+3
   2.50985E+3  -6.42334E+3
   2.48052E+3  -6.33647E+3
   2.45849E+3  -6.30333E+3
   2.37543E+3  -6.08690E+3
   2.28489E+3  -6.00580E+3
   2.23100E+3  -5.94067E+3
   2.30208E+3  -5.79230E+3
   2.19219E+3  -5.70202E+3
   2.13041E+3  -5.62001E+3
   2.08886E+3  -5.49954E+3
   2.07535E+3  -5.34396E+3
   2.06999E+3  -5.21901E+3
   2.04023E+3  -5.15003E+3
   2.05153E+3  -4.97102E+3
   2.04551E+3  -4.98901E+3
   1.97571E+3  -4.84942E+3
   1.96375E+3  -4.74242E+3
   1.94028E+3  -4.65456E+3
   1.86509E+3  -4.54271E+3
   1.92892E+3  -4.50583E+3
   1.90833E+3  -4.37325E+3
   1.92262E+3  -4.32965E+3
   1.92632E+3  -4.21845E+3
   1.91671E+3  -4.15402E+3
   1.96103E+3  -4.07908E+3
   2.00950E+3  -3.98281E+3
   1.88391E+3  -3.95415E+3
   1.98527E+3  -3.88106E+3
   2.05603E+3  -3.80383E+3
   1.96867E+3  -3.70611E+3
   1.98730E+3  -3.76608E+3
   2.05669E+3  -3.59392E+3
   2.01422E+3  -3.52120E+3
   2.08169E+3  -3.43837E+3
   2.07799E+3  -3.37174E+3
   2.08469E+3  -3.35720E+3
   2.12561E+3  -3.28831E+3
   2.17286E+3  -3.20420E+3
   2.17270E+3  -3.16341E+3
   2.14492E+3  -3.15740E+3
   2.23049E+3  -3.11560E+3
   2.20044E+3  -3.11103E+3
   2.22771E+3  -2.99208E+3
   2.26583E+3  -3.03770E+3
   2.25778E+3  -2.95145E+3
   2.30764E+3  -2.86463E+3
   2.26172E+3  -2.85153E+3
   2.37146E+3  -2.83788E+3
   2.31200E+3  -2.84958E+3
   2.34566E+3  -2.83880E+3
   2.37014E+3  -2.81757E+3
   2.41981E+3  -2.78407E+3
   2.41732E+3  -2.71977E+3
   2.42995E+3  -2.69655E+3
   2.48850E+3  -2.64116E+3
   2.44676E+3  -2.68547E+3
   2.43210E+3  -2.71547E+3
   2.43908E+3  -2.68972E+3
   2.52832E+3  -2.68082E+3
   2.48042E+3  -2.56499E+3
   2.55561E+3  -2.60871E+3
   2.45901E+3  -2.60020E+3
   2.50830E+3  -2.69625E+3
   2.54128E+3  -2.66823E+3
   2.59400E+3  -2.61476E+3
   2.54267E+3  -2.57685E+3
   2.54660E+3  -2.57704E+3
   2.52287E+3  -2.67729E+3
   2.54623E+3  -2.64029E+3
   2.55720E+3  -2.63315E+3
   2.52334E+3  -2.57099E+3
   2.52942E+3  -2.64090E+3
   2.57628E+3  -2.67703E+3
   2.57500E+3  -2.67988E+3
   2.59125E+3  -2.67546E+3
   2.48684E+3  -2.71505E+3
   2.54567E+3  -2.69140E+3
   2.60481E+3  -2.71905E+3
   2.61359E+3  -2.71342E+3
   2.59041E+3  -2.73082E+3
   2.60875E+3  -2.73800E+3
   2.61195E+3  -2.77632E+3
   2.62475E+3  -2.75503E+3
   2.53920E+3  -2.76218E+3
   2.55556E+3  -2.79080E+3
   2.55178E+3  -2.80619E+3
   2.48796E+3  -2.82942E+3
   2.47931E+3  -2.89143E+3
   2.50624E+3  -2.89672E+3
   2.48884E+3  -2.91073E+3
   2.46711E+3  -2.88751E+3
   2.44109E+3  -2.91832E+3
   2.47577E+3  -2.82844E+3
   2.41975E+3  -2.91578E+3
   2.43488E+3  -2.92427E+3
   2.36594E+3  -2.97162E+3
   2.34810E+3  -2.90805E+3
   2.36995E+3  -2.98897E+3
   2.31661E+3  -3.04387E+3
   2.33757E+3  -3.03517E+3
   2.26221E+3  -3.08866E+3
   2.27122E+3  -3.02739E+3
   2.27595E+3  -3.06461E+3
   2.20822E+3  -3.06955E+3
   2.22759E+3  -3.11097E+3
   2.15460E+3  -3.03968E+3
   2.15155E+3  -3.05196E+3
   2.12548E+3  -3.12793E+3
   2.10642E+3  -3.15292E+3
   2.07072E+3  -3.18606E+3
   2.09260E+3  -3.10277E+3
   2.05179E+3  -3.14993E+3
   2.02534E+3  -3.20014E+3
   1.99236E+3  -3.20375E+3
   1.99278E+3  -3.24509E+3
   1.94002E+3  -3.25822E+3
   1.89098E+3  -3.20860E+3
   1.90337E+3  -3.22292E+3
   1.91904E+3  -3.26208E+3
   1.83569E+3  -3.28048E+3
   1.86688E+3  -3.33022E+3
   1.72232E+3  -3.29318E+3
   1.79027E+3  -3.30580E+3
   1.68713E+3  -3.29237E+3
   1.66522E+3  -3.32559E+3
   1.73298E+3  -3.41462E+3
   1.72353E+3  -3.38859E+3
   1.58588E+3  -3.28180E+3
   1.59279E+3  -3.39434E+3
   1.57733E+3  -3.36272E+3
   1.59119E+3  -3.38575E+3
   1.54771E+3  -3.35643E+3
   1.57992E+3  -3.34931E+3
   1.50031E+3  -3.41021E+3
   1.56036E+3  -3.42876E+3
   1.47003E+3  -3.39233E+3
   1.45940E+3  -3.41587E+3
   1.37030E+3  -3.44843E+3
   1.31944E+3  -3.35076E+3
   1.33033E+3  -3.42083E+3
   1.20734E+3  -3.38727E+3
   1.21539E+3  -3.42787E+3
   1.24806E+3  -3.42872E+3
   1.19014E+3  -3.41712E+3
   1.17697E+3  -3.42993E+3
   1.20444E+3  -3.36661E+3
   1.10263E+3  -3.41338E+3
   1.01630E+3  -3.38910E+3
   1.04689E+3  -3.43664E+3
   1.02575E+3  -3.39761E+3
   9.90248E+2  -3.41707E+3
   9.85683E+2  -3.36465E+3
   8.91175E+2  -3.46994E+3
   8.79460E+2  -3.40796E+3
   8.05203E+2  -3.36384E+3
   8.09842E+2  -3.40678E+3
   8.26562E+2  -3.39857E+3
   7.98274E+2  -3.40845E+3
   7.75276E+2  -3.41247E+3
   6.96065E+2  -3.41957E+3
   6.51884E+2  -3.38426E+3
   6.36444E+2  -3.32495E+3
   6.57828E+2  -3.33671E+3
   6.18258E+2  -3.33495E+3
   5.55251E+2  -3.32883E+3
   5.75750E+2  -3.36755E+3
   6.06571E+2  -3.29492E+3
   5.08229E+2  -3.31681E+3
   4.77710E+2  -3.33210E+3
   3.93029E+2  -3.31105E+3
   4.06333E+2  -3.23985E+3
   4.64452E+2  -3.26925E+3
   3.72854E+2  -3.29336E+3
   2.94871E+2  -3.27052E+3
   2.64631E+2  -3.23153E+3
   3.03920E+2  -3.21859E+3
   2.85126E+2  -3.18866E+3
   2.25957E+2  -3.16014E+3
   2.71437E+2  -3.14910E+3
   1.72363E+2  -3.16212E+3
   1.69872E+2  -3.13780E+3
   1.21253E+2  -3.10893E+3
   1.02089E+2  -3.10031E+3
   7.46955E+1  -3.09541E+3
   6.99928E+1  -3.11839E+3
   1.10859E+2  -3.05714E+3
   3.07462E+1  -3.03837E+3
  -5.09634E+1  -3.03358E+3
  -8.14792E+0  -2.95912E+3
  -1.18099E+1  -2.96011E+3
  -2.65672E+1  -2.93495E+3
  -6.57168E+1  -2.89233E+3
  -5.52420E+1  -2.85772E+3
  -1.62708E+2  -2.88640E+3
