 LCModel (Version 6.3-1N) Copyright: S.W. Provencher.          Ref.: Magn. Reson. Med. 30:672-679 (1993).                
 Slice_N1@24_23  02-Jun-2023 14:37:40
 27 lines in following concentration table = NCONC+1
    Conc.  %SD /Cr+PCr  Metabolite                                         
 2.83E-06  14% 6.1E-04 Mac                                                 
 3.70E-02  21%   8.000 Cr                                                  
    0.000 999%   0.000 PCr                                                 
 4.99E-02  23%  10.789 Ins                                                 
 8.71E-02  11%  18.840 NAA                                                 
 4.63E-02  23%  10.011 Tau                                                 
    0.000 999%   0.000 PCho                                                
 1.16E-02  25%   2.508 GPC                                                 
 6.00E-02  21%  12.985 Glu                                                 
 9.09E-04 809%   0.197 Gln                                                 
    0.000 999%   0.000 Ala                                                 
 2.70E-02  62%   5.834 Asc                                                 
 8.16E-03  62%   1.765 Asp                                                 
 5.49E-03  54%   1.187 GABA                                                
 5.49E-03  57%   1.188 Glc                                                 
 3.29E-04 904% 7.1E-02 GSH                                                 
    0.000 999%   0.000 Lac                                                 
    0.000 999%   0.000 NAAG                                                
    0.000 999%   0.000 PE                                                  
 1.16E-02  25%   2.508 GPC+PCho                                            
 8.71E-02  11%  18.840 NAA+NAAG                                            
 6.09E-02  23%  13.181 Glu+Gln                                             
 3.70E-02  21%   8.000 Cr+PCr                                              
 8.71E-02  11%  18.840 NAA+NAAG                                            
 3.70E-02  21%   8.000 Cr+PCr                                              
 6.09E-02  23%  13.181 Glu+Gln                                             
   6 lines in following misc. output table
  FWHM = 0.047 ppm    S/N =   2                                            
  Data shift = 0.128 ppm                                                   
  Ph:   7 deg     -11.0 deg/ppm                                            
  alphaB,S = 3.1E+01,   8.9E+01                                            
   18 spline knots.   Ns = 9(1)                                            
   2 inflections.     2 extrema                                            
  654 points on ppm-axis = NY
      4.000000     3.994181     3.988363     3.982544     3.976726     3.970907     3.965088     3.959270     3.953451     3.947633
      3.941814     3.935995     3.930177     3.924358     3.918540     3.912721     3.906902     3.901084     3.895265     3.889446
      3.883628     3.877809     3.871991     3.866172     3.860353     3.854535     3.848716     3.842898     3.837079     3.831260
      3.825442     3.819623     3.813805     3.807986     3.802167     3.796349     3.790530     3.784712     3.778893     3.773074
      3.767256     3.761437     3.755619     3.749800     3.743981     3.738163     3.732344     3.726526     3.720707     3.714888
      3.709070     3.703251     3.697433     3.691614     3.685795     3.679977     3.674158     3.668339     3.662521     3.656702
      3.650884     3.645065     3.639246     3.633428     3.627609     3.621791     3.615972     3.610153     3.604335     3.598516
      3.592698     3.586879     3.581060     3.575242     3.569423     3.563605     3.557786     3.551967     3.546149     3.540330
      3.534512     3.528693     3.522874     3.517056     3.511237     3.505419     3.499600     3.493781     3.487963     3.482144
      3.476326     3.470507     3.464688     3.458870     3.453051     3.447232     3.441414     3.435595     3.429777     3.423958
      3.418139     3.412321     3.406502     3.400684     3.394865     3.389046     3.383228     3.377409     3.371591     3.365772
      3.359953     3.354135     3.348316     3.342498     3.336679     3.330860     3.325042     3.319223     3.313405     3.307586
      3.301767     3.295949     3.290130     3.284312     3.278493     3.272674     3.266856     3.261037     3.255219     3.249400
      3.243581     3.237763     3.231944     3.226125     3.220307     3.214488     3.208670     3.202851     3.197032     3.191214
      3.185395     3.179577     3.173758     3.167939     3.162121     3.156302     3.150484     3.144665     3.138846     3.133028
      3.127209     3.121391     3.115572     3.109753     3.103935     3.098116     3.092298     3.086479     3.080660     3.074842
      3.069023     3.063205     3.057386     3.051567     3.045749     3.039930     3.034111     3.028293     3.022474     3.016656
      3.010837     3.005018     2.999200     2.993381     2.987563     2.981744     2.975925     2.970107     2.964288     2.958470
      2.952651     2.946832     2.941014     2.935195     2.929377     2.923558     2.917739     2.911921     2.906102     2.900284
      2.894465     2.888646     2.882828     2.877009     2.871191     2.865372     2.859553     2.853735     2.847916     2.842098
      2.836279     2.830460     2.824642     2.818823     2.813004     2.807186     2.801367     2.795549     2.789730     2.783911
      2.778093     2.772274     2.766456     2.760637     2.754818     2.749000     2.743181     2.737363     2.731544     2.725725
      2.719907     2.714088     2.708270     2.702451     2.696632     2.690814     2.684995     2.679177     2.673358     2.667539
      2.661721     2.655902     2.650084     2.644265     2.638446     2.632628     2.626809     2.620991     2.615172     2.609353
      2.603535     2.597716     2.591897     2.586079     2.580260     2.574442     2.568623     2.562804     2.556986     2.551167
      2.545349     2.539530     2.533711     2.527893     2.522074     2.516256     2.510437     2.504618     2.498800     2.492981
      2.487163     2.481344     2.475525     2.469707     2.463888     2.458070     2.452251     2.446432     2.440614     2.434795
      2.428977     2.423158     2.417339     2.411521     2.405702     2.399884     2.394065     2.388246     2.382428     2.376609
      2.370790     2.364972     2.359153     2.353335     2.347516     2.341697     2.335879     2.330060     2.324242     2.318423
      2.312604     2.306786     2.300967     2.295149     2.289330     2.283511     2.277693     2.271874     2.266056     2.260237
      2.254418     2.248600     2.242781     2.236963     2.231144     2.225325     2.219507     2.213688     2.207870     2.202051
      2.196232     2.190414     2.184595     2.178777     2.172958     2.167139     2.161321     2.155502     2.149683     2.143865
      2.138046     2.132228     2.126409     2.120590     2.114772     2.108953     2.103135     2.097316     2.091497     2.085679
      2.079860     2.074042     2.068223     2.062404     2.056586     2.050767     2.044949     2.039130     2.033311     2.027493
      2.021674     2.015856     2.010037     2.004218     1.998400     1.992581     1.986763     1.980944     1.975126     1.969307
      1.963489     1.957670     1.951852     1.946033     1.940215     1.934397     1.928578     1.922760     1.916941     1.911123
      1.905304     1.899486     1.893667     1.887849     1.882030     1.876212     1.870393     1.864575     1.858756     1.852938
      1.847119     1.841301     1.835482     1.829664     1.823845     1.818027     1.812208     1.806390     1.800571     1.794753
      1.788934     1.783116     1.777297     1.771479     1.765660     1.759842     1.754023     1.748205     1.742386     1.736568
      1.730749     1.724931     1.719113     1.713294     1.707476     1.701657     1.695839     1.690020     1.684202     1.678383
      1.672565     1.666746     1.660928     1.655109     1.649291     1.643472     1.637654     1.631835     1.626017     1.620198
      1.614380     1.608561     1.602743     1.596924     1.591106     1.585287     1.579469     1.573650     1.567832     1.562013
      1.556195     1.550376     1.544558     1.538739     1.532921     1.527102     1.521284     1.515465     1.509647     1.503829
      1.498010     1.492192     1.486373     1.480555     1.474736     1.468918     1.463099     1.457281     1.451462     1.445644
      1.439825     1.434007     1.428188     1.422370     1.416551     1.410733     1.404914     1.399096     1.393277     1.387459
      1.381640     1.375822     1.370003     1.364185     1.358366     1.352548     1.346729     1.340911     1.335092     1.329274
      1.323455     1.317637     1.311818     1.306000     1.300182     1.294363     1.288545     1.282726     1.276908     1.271089
      1.265271     1.259452     1.253634     1.247815     1.241997     1.236178     1.230360     1.224541     1.218723     1.212904
      1.207086     1.201267     1.195449     1.189630     1.183812     1.177993     1.172175     1.166356     1.160538     1.154719
      1.148901     1.143082     1.137264     1.131445     1.125627     1.119808     1.113990     1.108171     1.102353     1.096534
      1.090716     1.084898     1.079079     1.073261     1.067442     1.061624     1.055805     1.049987     1.044168     1.038350
      1.032531     1.026713     1.020894     1.015076     1.009257     1.003439     0.997620     0.991802     0.985983     0.980165
      0.974346     0.968528     0.962709     0.956891     0.951072     0.945254     0.939435     0.933617     0.927798     0.921980
      0.916161     0.910343     0.904524     0.898706     0.892887     0.887069     0.881251     0.875432     0.869614     0.863795
      0.857977     0.852158     0.846340     0.840521     0.834703     0.828884     0.823066     0.817247     0.811429     0.805610
      0.799792     0.793973     0.788155     0.782336     0.776518     0.770699     0.764881     0.759062     0.753244     0.747425
      0.741607     0.735788     0.729970     0.724151     0.718333     0.712514     0.706696     0.700877     0.695059     0.689240
      0.683422     0.677603     0.671785     0.665967     0.660148     0.654330     0.648511     0.642693     0.636874     0.631056
      0.625237     0.619419     0.613600     0.607782     0.601963     0.596145     0.590326     0.584508     0.578689     0.572871
      0.567052     0.561234     0.555415     0.549597     0.543778     0.537960     0.532141     0.526323     0.520504     0.514686
      0.508867     0.503049     0.497230     0.491412     0.485593     0.479775     0.473956     0.468138     0.462319     0.456501
      0.450682     0.444864     0.439045     0.433227     0.427408     0.421590     0.415771     0.409953     0.404134     0.398316
      0.392497     0.386679     0.380860     0.375042     0.369223     0.363405     0.357586     0.351767     0.345949     0.340130
      0.334312     0.328493     0.322675     0.316856     0.311038     0.305219     0.299401     0.293582     0.287764     0.281945
      0.276127     0.270308     0.264490     0.258671     0.252853     0.247034     0.241216     0.235397     0.229579     0.223760
      0.217942     0.212123     0.206305     0.200486
 NY phased data points follow
   1.77612E-01 -1.93248E-01 -3.61080E-01 -1.91678E-01 -1.01045E-01  2.46997E-01 -7.25898E-03 -6.75400E-02 -2.19556E-01  1.59978E-02
  -2.71736E-01 -1.32705E-02  3.23488E-01  6.11011E-02 -6.41092E-02 -5.76446E-02  4.89622E-01  5.61181E-01  5.13835E-01  5.71310E-02
   3.71971E-01  3.76657E-01 -2.70446E-01 -2.08579E-01 -3.78779E-02  6.98303E-02 -6.36733E-02  9.00487E-02  4.56712E-01  9.41333E-02
  -3.20257E-01  2.93056E-02 -1.49459E-01 -2.92897E-01  1.79170E-01 -1.81583E-01 -3.15032E-01 -1.27420E-01 -3.31953E-01  7.44423E-02
  -3.62368E-01 -2.78952E-01 -2.84702E-01 -2.96719E-01  3.81980E-01  7.69084E-02 -6.35106E-02 -1.41507E-01  5.21349E-01  3.63674E-01
  -6.57938E-02 -5.58307E-03  2.77793E-01 -4.27202E-02 -2.58660E-01  2.47238E-01 -2.02544E-01  1.51609E-01  2.88590E-01 -1.47341E-01
  -1.42283E-01  9.10467E-02 -3.40608E-01  1.47167E-01  2.03364E-01 -2.89172E-01  1.23792E-01 -2.66637E-03  3.09491E-01  2.68284E-01
   2.14900E-01  3.00156E-01  4.40172E-02 -3.39071E-01  2.00343E-01  2.64615E-01 -1.34120E-02  2.05275E-02 -2.48146E-01 -1.68584E-01
  -2.00528E-01  4.91821E-02 -9.76443E-02  5.69264E-02 -5.42816E-02 -1.15871E-01 -1.88037E-02 -1.25161E-01  3.45364E-02 -4.71306E-02
   1.03750E-01  3.50528E-01  2.28557E-01 -3.37603E-02  3.92536E-01  2.23102E-01 -1.76962E-01 -3.08101E-02 -4.29260E-02 -1.59344E-01
  -2.23698E-01 -7.24422E-02  2.74676E-02 -1.54669E-02  2.08961E-01  1.76190E-01  1.23751E-01 -2.32284E-02 -6.67186E-02  3.46509E-01
   1.90979E-01  5.39052E-01  1.32717E-01  6.83357E-02  5.55640E-01  1.31428E-01  1.54043E-01  2.11697E-01  1.72314E-01 -7.05308E-03
   3.37236E-01  2.88946E-01  1.16143E-01  1.89207E-01 -2.08176E-01 -4.74128E-01 -9.83095E-02  3.06881E-01 -1.74624E-01 -3.01958E-01
  -6.31103E-01 -6.02208E-01 -1.93858E-01 -5.55498E-01 -3.27442E-01 -5.97416E-01 -5.79231E-01 -4.14299E-01 -8.08640E-01 -1.97149E-01
  -4.37246E-01 -2.48007E-01  9.06574E-02 -3.84498E-01 -2.06176E-01 -1.40289E-01 -9.57602E-02 -2.48073E-01 -7.65795E-02  2.75513E-01
   3.01105E-01 -4.22462E-02 -1.78077E-01  9.23082E-02 -1.29910E-01 -1.82029E-01  7.50101E-02 -1.59578E-01 -1.01770E-01  2.70059E-01
   2.79205E-01  4.04896E-01  4.38810E-01  3.24412E-01  1.90664E-01  3.26955E-01  2.80989E-01  5.70825E-01  6.04635E-01 -4.54272E-02
  -2.09941E-01 -2.81660E-01 -1.34799E-01 -1.75337E-01 -1.25953E-01 -2.33496E-01 -3.59925E-01 -6.16473E-01 -6.29465E-01 -1.58987E-01
  -4.28265E-01 -3.76696E-01 -2.74832E-01 -3.90099E-01 -3.72646E-01 -4.75511E-01 -3.51962E-01 -1.29892E-01 -6.28910E-01 -2.94507E-01
   2.75101E-01 -5.75802E-02  2.54206E-01  6.54515E-02 -4.09994E-02 -1.63084E-01 -1.67499E-01 -4.41913E-02 -1.52523E-01 -8.03398E-02
  -2.48694E-01  2.41513E-01 -2.35766E-01 -4.38365E-01  1.86283E-01  4.95404E-02 -1.35769E-01 -1.69515E-01  8.50937E-02  4.61232E-01
   3.47206E-01 -1.09381E-01  7.77175E-03  1.89669E-03 -2.26039E-03 -1.36223E-01  2.04976E-01  1.43973E-01  7.11680E-02  2.62508E-01
  -2.15179E-01  1.53194E-01 -3.05086E-01 -1.09211E-01  2.40120E-01  7.14110E-02  3.60442E-01  4.62632E-01  5.12415E-01  4.04324E-01
   3.75997E-01  1.50182E-01  3.62915E-01  2.20209E-01  1.20482E-01  5.62039E-02  2.57662E-01 -1.34161E-01 -1.22206E-01  1.46663E-01
  -5.82567E-01  6.43651E-02  2.03288E-01  9.73093E-02 -1.41136E-01 -1.44852E-01  2.84863E-02 -7.12573E-02  1.52577E-01 -5.37943E-02
  -1.87620E-01 -1.95682E-02  2.21861E-01 -2.98586E-01 -3.09802E-01  7.54208E-02  2.02001E-01  2.05402E-01  1.02762E-02  1.27034E-01
   3.16041E-01 -6.50597E-02  5.42845E-02  2.70675E-01 -1.61788E-01  1.50044E-01 -5.09617E-02 -6.09685E-02  1.96897E-01  2.13033E-01
   3.37748E-01  3.12636E-01  2.58582E-01 -3.94522E-02  1.16444E-01  7.72438E-02 -2.69602E-01 -1.56258E-01 -2.88765E-01 -5.15436E-01
   3.77947E-02 -7.97870E-02 -5.79531E-01 -2.82328E-01  1.23191E-01 -6.47149E-03 -5.97497E-02  2.74880E-01  3.08419E-01  4.17325E-01
   2.82879E-01  3.47652E-01  2.74473E-01 -3.79863E-02  1.08930E-01  1.21749E-01 -1.20844E-01 -1.01671E-03  3.69127E-01  1.28953E-01
  -1.67188E-01  5.55287E-02  3.74799E-01  2.90212E-01  2.80009E-01  5.30870E-01  5.63531E-01  1.64802E-02  3.63379E-01  6.52523E-01
   2.09433E-01  4.30060E-01  2.11491E-01  3.88149E-01  4.99667E-01  4.14857E-01  7.12057E-02  1.65002E-01  1.41191E-02 -4.13328E-01
   2.22719E-01 -3.52500E-01 -5.06479E-02  2.27314E-01 -6.52815E-02 -3.05801E-01 -5.59120E-01 -1.30913E-01 -1.16697E-01 -6.22362E-02
  -5.40970E-02  2.96043E-01 -3.12213E-01 -2.37042E-01  3.66993E-01  2.78655E-01  3.05016E-01 -2.90222E-01 -4.04278E-01 -4.82623E-01
  -3.17693E-01 -6.96314E-01 -9.83326E-01 -6.59084E-01 -1.11279E+00 -9.11159E-01 -6.19509E-01 -5.95555E-01 -7.23161E-01 -6.51098E-01
  -1.11088E-01 -1.99322E-01  7.14731E-03 -1.78747E-01 -2.24487E-01  5.37437E-02 -2.08333E-02  1.20594E-02 -4.77222E-01  7.29085E-02
   3.92125E-01  9.16812E-02  1.45853E-01  1.13872E-01  2.23934E-01  6.42686E-02 -7.25488E-02  2.00901E-01  2.12835E-01  2.80077E-02
   2.07949E-01  1.34955E-01  6.24276E-02 -2.21817E-01 -1.69660E-01  1.13969E-01  2.51090E-01 -1.07521E-01 -2.06511E-01  1.96191E-01
   1.38660E-01  3.63908E-01  3.09000E-01  2.23018E-01  1.46853E-01  7.78941E-02  1.71758E-01  3.05638E-01 -1.88211E-01 -6.62524E-02
   9.29625E-02  1.49460E-01  2.53230E-01 -1.14906E-01  3.92696E-01  2.63248E-01  1.05195E-01  1.50640E-01  4.16548E-01  4.67946E-02
   5.21327E-02 -3.34740E-02 -2.66963E-01  1.29626E-01  3.05889E-01 -1.34193E-01 -1.87021E-01  6.96926E-01 -4.35673E-01  2.37005E-01
   1.10299E-02 -1.27142E-01  4.59881E-01 -2.50028E-01 -2.18727E-02 -2.37022E-01 -1.50406E-01 -5.73366E-01  1.20144E-01  8.86567E-02
  -1.09605E-01 -5.00966E-02  1.55066E-01 -1.54250E-01 -5.12724E-01 -1.98496E-01 -4.22749E-01  2.68210E-01  6.40065E-03 -2.06812E-01
  -3.80845E-01  6.97424E-02 -1.02657E-01 -4.34768E-01 -3.08632E-01 -2.52330E-01 -3.03909E-01 -2.13087E-01  2.25883E-01 -3.07334E-01
  -3.24672E-01 -8.19076E-02  4.91496E-01 -1.10920E-01 -1.92033E-01  2.92450E-01  2.37533E-01  1.91611E-02  1.25386E-01 -1.45402E-01
   1.70540E-02  5.88629E-01 -6.31848E-03  3.19956E-01  2.26921E-01  5.91257E-01  7.87365E-02  3.14853E-01  3.29643E-01  1.59347E-01
   4.92090E-01 -5.57022E-02  4.30946E-01  1.85701E-01  9.92173E-02 -2.08859E-01  4.38136E-01  1.95964E-01 -5.28956E-02  1.21993E-01
  -6.26843E-01 -3.10827E-01 -5.09242E-02 -3.94646E-01 -2.27432E-01  1.13535E-01 -7.00719E-01 -1.85329E-01 -2.40312E-01 -1.90640E-01
  -3.01505E-02 -5.26387E-01 -1.81101E-01 -3.78492E-01 -3.27065E-02  9.04581E-02 -1.30533E-01 -6.12936E-02 -2.60069E-01 -2.68562E-01
  -1.94385E-02  8.48453E-02 -4.09775E-02 -6.64719E-02  3.89925E-01  1.24719E-01 -1.18934E-01 -1.73166E-01 -5.04884E-02  1.90131E-01
   2.82715E-01  5.52891E-01  2.31124E-01  5.57626E-01  2.73667E-01  9.71485E-02  3.86289E-01 -3.74560E-02 -1.53555E-01 -7.74233E-02
   2.23197E-01  3.85552E-01  1.37427E-01  3.06174E-01  5.32958E-01  1.28297E-01  2.00842E-02  1.41966E-01 -1.44425E-01  4.90429E-02
   3.75479E-01 -1.98756E-01 -2.35366E-01 -3.30237E-01 -2.17887E-01 -3.05863E-01 -2.30753E-01  1.88602E-02 -3.52525E-01 -1.49704E-01
  -4.31700E-01 -3.87269E-01 -4.61187E-01 -2.74677E-01 -4.82418E-01 -3.01117E-01 -2.39217E-01 -4.88389E-01 -1.75335E-01 -3.64584E-01
   2.04224E-01 -4.03997E-01 -3.30996E-01 -2.90128E-01 -3.97659E-01 -1.42455E-01 -1.78198E-01  1.78726E-01 -9.24663E-02  1.87155E-01
   1.07355E-02 -1.42528E-01 -7.19085E-02  1.63723E-01  2.52347E-01 -1.58803E-01 -3.43862E-02  3.60711E-01  1.25017E-01 -1.15104E-01
   2.65101E-01  7.49589E-02 -3.65454E-02  2.52252E-01  3.27553E-01  1.40016E-01 -3.37359E-02  1.26100E-01  6.92345E-03 -1.11922E-01
   3.38929E-01  3.79333E-01  3.87616E-01 -4.20638E-01 -3.64232E-01  2.80433E-01 -4.36618E-02  2.49569E-01 -1.03234E-01  1.69712E-01
  -2.40754E-02 -4.39025E-01 -3.44347E-01 -3.30217E-02  1.23501E-01 -5.21186E-01 -1.24481E-01  8.52479E-02  5.75124E-02 -1.80533E-01
  -6.69722E-02  8.11321E-02  5.51997E-02 -1.15408E-01 -5.55497E-02  1.00000E-01 -1.16012E-01  1.95038E-01 -1.90228E-02 -1.78800E-02
  -3.47341E-01 -4.40346E-02  1.65457E-01 -5.89845E-02  1.26706E-01  2.56577E-01  3.24854E-01 -1.53221E-01  3.18639E-01  3.61751E-02
   4.87530E-02  1.24651E-01 -1.20071E-01  2.10841E-01  8.27199E-02  2.20651E-01 -2.01921E-01 -2.41857E-01 -8.43703E-02 -2.08826E-01
  -5.06342E-02  1.72351E-01  2.54417E-02 -4.06340E-02  2.98130E-01  1.36228E-01 -3.83396E-01 -3.14113E-01  2.60893E-02 -1.43023E-01
   2.13988E-02  4.62119E-01  3.84541E-01 -1.24425E-01  1.16828E-01 -4.34016E-02 -1.02843E-01  1.22460E-01 -2.26910E-02 -4.21916E-02
  -4.00391E-01  8.08938E-02 -1.21129E-01  6.85049E-02  1.53839E-01 -1.12211E-01  4.51127E-01 -1.13920E-01 -1.37346E-01  1.23419E-01
   2.45379E-03 -1.47465E-01 -3.36482E-02  1.51393E-01
 NY points of the fit to the data follow
   1.23536E-01  1.22416E-01  1.19929E-01  1.15039E-01  1.09428E-01  1.03813E-01  9.59494E-02  7.42650E-02  5.66080E-02  5.72488E-02
   7.88576E-02  1.14094E-01  1.55289E-01  1.99427E-01  2.45435E-01  2.89052E-01  3.21968E-01  3.36381E-01  3.29407E-01  3.03087E-01
   2.65065E-01  2.21780E-01  1.74874E-01  1.25561E-01  7.58940E-02  2.90249E-02 -8.85144E-03 -3.21896E-02 -5.06158E-02 -6.60829E-02
  -7.92720E-02 -9.06185E-02 -1.03191E-01 -1.18518E-01 -1.38669E-01 -1.60082E-01 -1.81325E-01 -1.96020E-01 -2.01853E-01 -1.94379E-01
  -1.73616E-01 -1.40190E-01 -9.49884E-02 -4.18833E-02  1.33569E-02  6.48935E-02  1.07919E-01  1.40280E-01  1.60629E-01  1.66685E-01
   1.56247E-01  1.32077E-01  1.01343E-01  7.04432E-02  4.27444E-02  1.55848E-02 -6.53589E-03 -2.86407E-02 -5.30292E-02 -7.48463E-02
  -9.49445E-02 -1.12704E-01 -1.23939E-01 -1.23770E-01 -1.09077E-01 -7.99124E-02 -3.94368E-02  6.94123E-03  5.47509E-02  1.00038E-01
   1.39748E-01  1.73092E-01  1.88164E-01  1.75036E-01  1.41668E-01  9.34863E-02  3.29129E-02 -2.85148E-02 -8.19320E-02 -1.21261E-01
  -1.37514E-01 -1.29365E-01 -1.00541E-01 -5.61211E-02 -3.14742E-03  5.10503E-02  1.01790E-01  1.45205E-01  1.79609E-01  2.02524E-01
   2.12834E-01  2.03188E-01  1.76811E-01  1.34301E-01  7.75902E-02  1.73674E-02 -3.76739E-02 -8.31111E-02 -1.15196E-01 -1.30271E-01
  -1.26255E-01 -1.04067E-01 -6.75379E-02 -2.32744E-02  2.26837E-02  6.62900E-02  1.04833E-01  1.36618E-01  1.59933E-01  1.74319E-01
   1.79469E-01  1.79174E-01  1.75128E-01  1.71197E-01  1.70318E-01  1.69017E-01  1.66646E-01  1.63987E-01  1.57494E-01  1.51605E-01
   1.41071E-01  1.27641E-01  1.01878E-01  6.18512E-02  7.10472E-03 -5.79525E-02 -1.13682E-01 -1.56102E-01 -2.02856E-01 -2.62700E-01
  -3.30636E-01 -3.94345E-01 -4.46653E-01 -4.89154E-01 -5.25497E-01 -5.51382E-01 -5.59172E-01 -5.42306E-01 -4.99236E-01 -4.40199E-01
  -3.74504E-01 -3.10740E-01 -2.46325E-01 -1.82921E-01 -1.19982E-01 -6.25153E-02 -2.09092E-02  6.58136E-03  2.81861E-02  4.60436E-02
   6.12528E-02  7.46941E-02  8.67824E-02  9.77355E-02  1.07650E-01  1.16797E-01  1.25172E-01  1.32368E-01  1.37052E-01  1.46721E-01
   1.85881E-01  2.42560E-01  2.93232E-01  3.22998E-01  3.27716E-01  3.10740E-01  2.72082E-01  2.07858E-01  1.17822E-01  1.12491E-02
  -9.61279E-02 -1.89504E-01 -2.60079E-01 -3.09573E-01 -3.42680E-01 -3.60447E-01 -3.62874E-01 -3.49293E-01 -3.20960E-01 -2.88645E-01
  -2.66440E-01 -2.48448E-01 -2.32341E-01 -2.17626E-01 -2.03588E-01 -1.90475E-01 -1.78175E-01 -1.66517E-01 -1.55430E-01 -1.44844E-01
  -1.34803E-01 -1.25270E-01 -1.16231E-01 -1.07852E-01 -9.98161E-02 -9.13635E-02 -8.23361E-02 -7.32281E-02 -6.49383E-02 -5.73554E-02
  -4.94990E-02 -4.13007E-02 -3.35147E-02 -2.70838E-02 -2.25317E-02 -1.95163E-02 -1.76578E-02 -1.68282E-02 -1.70091E-02 -1.81698E-02
  -1.98952E-02 -2.16886E-02 -2.28609E-02 -2.32324E-02 -2.32296E-02 -2.38296E-02 -2.91745E-02 -3.65890E-02 -3.75772E-02 -2.82284E-02
  -1.15978E-02  4.85936E-03  2.10520E-02  4.65295E-02  8.46279E-02  1.30375E-01  1.74849E-01  2.11537E-01  2.38672E-01  2.57140E-01
   2.66440E-01  2.63479E-01  2.45892E-01  2.14848E-01  1.75135E-01  1.33774E-01  9.66446E-02  6.33923E-02  3.19980E-02  2.91230E-03
  -2.13268E-02 -3.77048E-02 -4.77982E-02 -5.55425E-02 -6.16657E-02 -6.67411E-02 -7.10357E-02 -7.53040E-02 -8.65729E-02 -1.00648E-01
  -1.12374E-01 -1.24468E-01 -1.36066E-01 -1.44255E-01 -1.43237E-01 -1.33690E-01 -1.15822E-01 -8.93925E-02 -5.54053E-02 -1.62746E-02
   2.36554E-02  6.10501E-02  9.35552E-02  1.18475E-01  1.34647E-01  1.41386E-01  1.38137E-01  1.26583E-01  1.11032E-01  9.05183E-02
   6.71554E-02  4.45706E-02  2.36094E-02  1.11675E-03 -2.50707E-02 -5.41412E-02 -9.01513E-02 -1.30770E-01 -1.72671E-01 -2.10570E-01
  -2.36520E-01 -2.45387E-01 -2.34357E-01 -2.03268E-01 -1.54800E-01 -9.32316E-02 -2.59566E-02  3.99231E-02  9.78472E-02  1.43974E-01
   1.77151E-01  1.97427E-01  2.05964E-01  2.05855E-01  1.99255E-01  1.89505E-01  1.80393E-01  1.72796E-01  1.68338E-01  1.66761E-01
   1.66669E-01  1.67563E-01  1.68814E-01  1.70025E-01  1.70976E-01  1.71114E-01  1.70658E-01  1.69330E-01  1.67461E-01  1.64563E-01
   1.60214E-01  1.53469E-01  1.44188E-01  1.31624E-01  1.15670E-01  9.60780E-02  7.20407E-02  4.30807E-02  9.86161E-03 -2.51920E-02
  -5.89176E-02 -8.76814E-02 -1.08873E-01 -1.21019E-01 -1.22748E-01 -1.16532E-01 -1.02770E-01 -8.70904E-02 -7.19138E-02 -6.14950E-02
  -5.68504E-02 -5.80994E-02 -6.13351E-02 -3.25013E-02  1.73798E-02  3.26793E-02 -1.46815E-02 -1.17311E-01 -2.50559E-01 -3.96903E-01
  -5.51457E-01 -7.08427E-01 -8.47764E-01 -9.41226E-01 -9.69998E-01 -9.32046E-01 -8.46897E-01 -7.38613E-01 -6.21442E-01 -4.98720E-01
  -3.74774E-01 -2.54129E-01 -1.51242E-01 -8.94102E-02 -5.87481E-02 -3.91658E-02 -2.56458E-02 -1.65926E-02 -1.10929E-02 -8.37975E-03
  -7.55120E-03 -7.90255E-03 -8.79747E-03 -9.64205E-03 -1.00386E-02 -9.64034E-03 -7.95499E-03 -4.92357E-03 -6.75030E-04  4.44347E-03
   1.01226E-02  1.61078E-02  2.23804E-02  2.87082E-02  3.47593E-02  4.04159E-02  4.54835E-02  5.03230E-02  5.49973E-02  5.96319E-02
   6.40077E-02  6.80805E-02  7.17956E-02  7.52672E-02  7.86700E-02  8.20855E-02  8.55611E-02  8.90850E-02  9.25939E-02  9.60989E-02
   9.95625E-02  1.02848E-01  1.05785E-01  1.08148E-01  1.09721E-01  1.10527E-01  1.10522E-01  1.09566E-01  1.07496E-01  1.04303E-01
   1.00121E-01  9.49822E-02  8.90425E-02  8.24358E-02  7.52406E-02  6.76152E-02  5.97250E-02  5.17747E-02  4.39490E-02  3.63780E-02
   2.91475E-02  2.23203E-02  1.59050E-02  9.99094E-03  4.54343E-03 -6.25336E-04 -5.54520E-03 -1.01622E-02 -1.44233E-02 -1.83336E-02
  -2.17613E-02 -2.47287E-02 -2.70765E-02 -2.85099E-02 -2.88171E-02 -2.80609E-02 -2.65395E-02 -2.44196E-02 -2.18051E-02 -1.86056E-02
  -1.48887E-02 -1.07799E-02 -6.43523E-03 -1.86479E-03  3.08929E-03  8.68158E-03  1.50187E-02  2.20778E-02  2.98898E-02  3.85199E-02
   4.81898E-02  5.90935E-02  7.12392E-02  8.43645E-02  9.81072E-02  1.12203E-01  1.26297E-01  1.40021E-01  1.53055E-01  1.64988E-01
   1.75556E-01  1.84407E-01  1.91303E-01  1.96018E-01  1.98548E-01  1.98805E-01  1.96901E-01  1.92783E-01  1.86598E-01  1.78662E-01
   1.69346E-01  1.58996E-01  1.47829E-01  1.36158E-01  1.24294E-01  1.12532E-01  1.01139E-01  9.01686E-02  7.97040E-02  6.98697E-02
   6.07816E-02  5.25750E-02  4.54001E-02  3.92966E-02  3.42977E-02  3.06052E-02  2.83191E-02  2.75945E-02  2.83248E-02  3.04389E-02
   3.36851E-02  3.77868E-02  4.25514E-02  4.77872E-02  5.32883E-02  5.88207E-02  6.41221E-02  6.91046E-02  7.37975E-02  7.80669E-02
   8.17451E-02  8.46515E-02  8.66801E-02  8.78623E-02  8.82131E-02  8.77363E-02  8.65172E-02  8.46316E-02  8.21851E-02  7.92493E-02
   7.58451E-02  7.20709E-02  6.80764E-02  6.39696E-02  5.97683E-02  5.55272E-02  5.14160E-02  4.75221E-02  4.37611E-02  4.00708E-02
   3.63137E-02  3.24285E-02  2.84086E-02  2.42549E-02  1.97117E-02  1.43782E-02  7.96013E-03  2.63829E-04 -8.93511E-03 -1.98738E-02
  -3.26834E-02 -4.73305E-02 -6.37008E-02 -8.16923E-02 -1.00975E-01 -1.20980E-01 -1.41187E-01 -1.61189E-01 -1.80520E-01 -1.98536E-01
  -2.14590E-01 -2.28156E-01 -2.38945E-01 -2.46905E-01 -2.52208E-01 -2.54926E-01 -2.55281E-01 -2.53543E-01 -2.50074E-01 -2.45212E-01
  -2.39154E-01 -2.32182E-01 -2.24267E-01 -2.15396E-01 -2.05753E-01 -1.95511E-01 -1.84634E-01 -1.73126E-01 -1.61128E-01 -1.49005E-01
  -1.36817E-01 -1.24554E-01 -1.12429E-01 -1.00678E-01 -8.93723E-02 -7.86383E-02 -6.84671E-02 -5.88183E-02 -4.97990E-02 -4.15543E-02
  -3.40336E-02 -2.70827E-02 -2.08369E-02 -1.53341E-02 -1.05063E-02 -6.38895E-03 -2.94506E-03  2.04043E-05  2.70669E-03  5.22526E-03
   7.57043E-03  9.81318E-03  1.20478E-02  1.43051E-02  1.65244E-02  1.85765E-02  2.04287E-02  2.20077E-02  2.32753E-02  2.42343E-02
   2.47944E-02  2.50247E-02  2.52864E-02  2.56743E-02  2.59146E-02  2.59467E-02  2.58695E-02  2.57674E-02  2.56083E-02  2.53185E-02
   2.49187E-02  2.44070E-02  2.38493E-02  2.31156E-02  2.22626E-02  2.13900E-02  2.04653E-02  1.94985E-02  1.85248E-02  1.76282E-02
   1.69913E-02  1.66228E-02  1.63945E-02  1.63089E-02  1.65894E-02  1.71892E-02  1.79232E-02  1.86857E-02  1.94122E-02  1.99921E-02
   2.03425E-02  2.04435E-02  2.04571E-02  2.03906E-02  2.00484E-02  1.95660E-02  1.90826E-02  1.88399E-02  1.90352E-02  1.95306E-02
   2.01581E-02  2.07939E-02  2.14862E-02  2.22718E-02  2.30440E-02  2.35974E-02  2.37932E-02  2.35998E-02  2.31618E-02  2.27410E-02
   2.22634E-02  2.15405E-02  2.04778E-02  1.93462E-02  1.82957E-02  1.73379E-02  1.64941E-02  1.56349E-02  1.47796E-02  1.38750E-02
   1.28418E-02  1.18134E-02  1.08334E-02  1.00130E-02  9.35725E-03  8.95569E-03  8.77174E-03  8.75862E-03  8.86453E-03  9.03078E-03
   9.29585E-03  9.64467E-03  9.96863E-03  1.01690E-02
 NY background values follow
     6.513E-02    6.502E-02    6.490E-02    6.479E-02    6.467E-02    6.456E-02    6.445E-02    6.433E-02    6.422E-02    6.410E-02
     6.399E-02    6.387E-02    6.376E-02    6.364E-02    6.353E-02    6.341E-02    6.330E-02    6.318E-02    6.307E-02    6.295E-02
     6.284E-02    6.272E-02    6.261E-02    6.249E-02    6.237E-02    6.226E-02    6.214E-02    6.203E-02    6.191E-02    6.180E-02
     6.168E-02    6.156E-02    6.145E-02    6.133E-02    6.122E-02    6.110E-02    6.098E-02    6.087E-02    6.075E-02    6.064E-02
     6.052E-02    6.040E-02    6.029E-02    6.017E-02    6.005E-02    5.994E-02    5.982E-02    5.970E-02    5.959E-02    5.947E-02
     5.935E-02    5.924E-02    5.912E-02    5.900E-02    5.888E-02    5.877E-02    5.865E-02    5.853E-02    5.842E-02    5.830E-02
     5.818E-02    5.806E-02    5.795E-02    5.783E-02    5.771E-02    5.759E-02    5.748E-02    5.736E-02    5.724E-02    5.712E-02
