 
 $NMID
 ID=''
 FMTDAT='(2E13.5)'
 TRAMP=   1.00000E+0
 VOLUME=   1.00000E+0
 $END
   3.46536E+2   1.83475E+4
  -1.17343E+4   4.57288E+4
  -2.26795E+3   4.73906E+4
  -4.77158E+2   4.36685E+4
  -3.36113E+2   4.50514E+4
   3.20087E+3   4.51784E+4
   4.20568E+3   4.30110E+4
   4.51119E+3   4.31192E+4
   6.90247E+3   4.27755E+4
   7.87193E+3   4.11975E+4
   8.23165E+3   4.09917E+4
   1.01617E+4   4.06168E+4
   1.12976E+4   3.94098E+4
   1.17413E+4   3.93597E+4
   1.33262E+4   3.90647E+4
   1.43744E+4   3.80086E+4
   1.51017E+4   3.77833E+4
   1.65443E+4   3.73535E+4
   1.76289E+4   3.63375E+4
   1.83303E+4   3.58795E+4
   1.96460E+4   3.52673E+4
   2.06666E+4   3.40664E+4
   2.14937E+4   3.35217E+4
   2.25180E+4   3.27992E+4
   2.35141E+4   3.15947E+4
   2.42487E+4   3.07585E+4
   2.52326E+4   2.99619E+4
   2.60743E+4   2.88498E+4
   2.66622E+4   2.80747E+4
   2.75771E+4   2.71022E+4
   2.85284E+4   2.59342E+4
   2.92025E+4   2.50311E+4
   2.99281E+4   2.40728E+4
   3.05473E+4   2.30278E+4
   3.10972E+4   2.20578E+4
   3.18811E+4   2.10783E+4
   3.23500E+4   1.99462E+4
   3.28360E+4   1.88017E+4
   3.33505E+4   1.77672E+4
   3.37295E+4   1.66773E+4
   3.39929E+4   1.56806E+4
   3.42704E+4   1.47806E+4
   3.43563E+4   1.37724E+4
   3.44886E+4   1.25634E+4
   3.46627E+4   1.15023E+4
   3.47968E+4   1.04061E+4
   3.48317E+4   9.31575E+3
   3.50072E+4   8.28524E+3
   3.49727E+4   7.17112E+3
   3.49982E+4   6.05921E+3
   3.49132E+4   5.01432E+3
   3.48671E+4   3.86884E+3
   3.48031E+4   2.65895E+3
   3.46687E+4   1.51595E+3
   3.45427E+4   4.97676E+2
   3.43852E+4  -5.83981E+2
   3.42840E+4  -1.66159E+3
   3.40225E+4  -2.71786E+3
   3.37503E+4  -3.69494E+3
   3.34789E+4  -4.72122E+3
   3.31391E+4  -5.73140E+3
   3.28439E+4  -6.74350E+3
   3.25678E+4  -7.81249E+3
   3.23150E+4  -8.71708E+3
   3.19014E+4  -9.61146E+3
   3.15682E+4  -1.06004E+4
   3.11794E+4  -1.15428E+4
   3.07902E+4  -1.24059E+4
   3.03642E+4  -1.32487E+4
   2.99338E+4  -1.41222E+4
   2.94610E+4  -1.49145E+4
   2.90566E+4  -1.56205E+4
   2.84693E+4  -1.63120E+4
   2.80481E+4  -1.71418E+4
   2.74373E+4  -1.78312E+4
   2.69159E+4  -1.85144E+4
   2.64454E+4  -1.91737E+4
   2.58120E+4  -1.97527E+4
   2.52400E+4  -2.03588E+4
   2.46509E+4  -2.09753E+4
   2.40448E+4  -2.15031E+4
   2.34215E+4  -2.19633E+4
   2.27213E+4  -2.24153E+4
   2.20452E+4  -2.28509E+4
   2.14975E+4  -2.32453E+4
   2.08128E+4  -2.35887E+4
   2.00905E+4  -2.38332E+4
   1.93990E+4  -2.41677E+4
   1.86382E+4  -2.44119E+4
   1.78999E+4  -2.47159E+4
   1.71756E+4  -2.48991E+4
   1.64546E+4  -2.51046E+4
   1.57273E+4  -2.54073E+4
   1.49665E+4  -2.55863E+4
   1.41684E+4  -2.56802E+4
   1.33767E+4  -2.57088E+4
   1.25904E+4  -2.58682E+4
   1.17853E+4  -2.59106E+4
   1.10396E+4  -2.59937E+4
   1.02455E+4  -2.59474E+4
   9.46500E+3  -2.58965E+4
   8.70374E+3  -2.57997E+4
   7.89319E+3  -2.57413E+4
   7.13101E+3  -2.56866E+4
   6.41228E+3  -2.55469E+4
   5.58676E+3  -2.53918E+4
   4.83070E+3  -2.52647E+4
   4.09888E+3  -2.51446E+4
   3.34604E+3  -2.48676E+4
   2.55211E+3  -2.46690E+4
   1.76266E+3  -2.44167E+4
   9.81154E+2  -2.41131E+4
   2.22518E+2  -2.39758E+4
  -4.66216E+2  -2.36405E+4
  -1.15098E+3  -2.33357E+4
  -1.83855E+3  -2.30070E+4
  -2.56702E+3  -2.26626E+4
  -3.18065E+3  -2.22985E+4
  -3.81367E+3  -2.19200E+4
  -4.47947E+3  -2.16074E+4
  -5.15012E+3  -2.11964E+4
  -5.64212E+3  -2.08069E+4
  -6.26136E+3  -2.03607E+4
  -6.91241E+3  -1.99155E+4
  -7.44349E+3  -1.94540E+4
  -8.00913E+3  -1.90139E+4
  -8.49936E+3  -1.85401E+4
  -9.09861E+3  -1.80930E+4
  -9.60567E+3  -1.75726E+4
  -1.00639E+4  -1.71128E+4
  -1.06012E+4  -1.66569E+4
  -1.10681E+4  -1.60590E+4
  -1.14928E+4  -1.56103E+4
  -1.20245E+4  -1.52037E+4
  -1.24313E+4  -1.47056E+4
  -1.27814E+4  -1.41769E+4
  -1.31182E+4  -1.35896E+4
  -1.35184E+4  -1.31258E+4
  -1.38537E+4  -1.25462E+4
  -1.42088E+4  -1.20418E+4
  -1.45243E+4  -1.15653E+4
  -1.48240E+4  -1.10476E+4
  -1.50999E+4  -1.04989E+4
  -1.53400E+4  -9.95312E+3
  -1.56229E+4  -9.44922E+3
  -1.57374E+4  -8.95342E+3
  -1.59179E+4  -8.44211E+3
  -1.61817E+4  -7.92482E+3
  -1.63321E+4  -7.35592E+3
  -1.63465E+4  -6.86989E+3
  -1.65462E+4  -6.38788E+3
  -1.65741E+4  -5.94851E+3
  -1.67251E+4  -5.36272E+3
  -1.67545E+4  -4.80115E+3
  -1.67835E+4  -4.32264E+3
  -1.67659E+4  -3.85994E+3
  -1.68036E+4  -3.32045E+3
  -1.68734E+4  -2.94558E+3
  -1.68118E+4  -2.39647E+3
  -1.67657E+4  -2.02568E+3
  -1.66883E+4  -1.44611E+3
  -1.66620E+4  -1.04439E+3
  -1.65405E+4  -6.08209E+2
  -1.64868E+4  -1.53729E+2
  -1.64299E+4   3.15367E+2
  -1.62525E+4   6.67407E+2
  -1.60820E+4   1.13202E+3
  -1.59235E+4   1.60997E+3
  -1.58285E+4   2.04225E+3
  -1.56460E+4   2.37131E+3
  -1.55036E+4   2.77900E+3
  -1.52990E+4   3.12552E+3
  -1.51312E+4   3.46184E+3
  -1.48781E+4   3.91418E+3
  -1.46719E+4   4.22338E+3
  -1.44656E+4   4.51791E+3
  -1.42188E+4   4.87626E+3
  -1.39811E+4   5.14560E+3
  -1.37824E+4   5.54292E+3
  -1.35328E+4   5.72835E+3
  -1.32765E+4   6.00286E+3
  -1.29526E+4   6.30506E+3
  -1.26648E+4   6.51338E+3
  -1.24237E+4   6.77340E+3
  -1.20858E+4   7.01082E+3
  -1.18445E+4   7.23730E+3
  -1.16252E+4   7.42704E+3
  -1.12472E+4   7.54105E+3
  -1.09957E+4   7.76818E+3
  -1.06512E+4   7.90439E+3
  -1.04016E+4   8.03518E+3
  -1.00403E+4   8.20079E+3
  -9.78265E+3   8.29862E+3
  -9.45050E+3   8.43986E+3
  -9.12836E+3   8.62187E+3
  -8.76839E+3   8.67004E+3
  -8.43811E+3   8.77686E+3
  -8.19536E+3   8.86155E+3
  -7.76106E+3   8.86281E+3
  -7.39319E+3   8.94752E+3
  -7.15503E+3   9.04308E+3
  -6.79801E+3   9.10180E+3
  -6.48507E+3   9.09707E+3
  -6.08265E+3   9.10854E+3
  -5.78590E+3   9.12098E+3
  -5.49400E+3   9.18232E+3
  -5.18344E+3   9.13206E+3
  -4.82437E+3   9.11990E+3
  -4.52305E+3   9.07086E+3
  -4.24016E+3   9.05911E+3
  -3.92315E+3   9.12896E+3
  -3.52009E+3   8.94236E+3
  -3.28698E+3   8.93043E+3
  -2.88894E+3   8.83247E+3
  -2.64969E+3   8.72093E+3
  -2.40690E+3   8.81007E+3
  -2.13170E+3   8.62686E+3
  -1.82523E+3   8.53277E+3
  -1.60922E+3   8.55321E+3
  -1.24157E+3   8.32820E+3
  -1.02333E+3   8.23239E+3
  -7.27151E+2   8.19991E+3
  -5.02945E+2   7.99642E+3
  -2.53234E+2   7.98188E+3
  -4.39740E+1   7.78951E+3
   1.39131E+2   7.72306E+3
   5.17916E+2   7.57827E+3
   6.76724E+2   7.42058E+3
   8.08066E+2   7.25238E+3
   1.08648E+3   7.12422E+3
   1.22198E+3   6.89904E+3
   1.50685E+3   6.80823E+3
   1.67830E+3   6.58489E+3
   1.83706E+3   6.42012E+3
   2.05439E+3   6.20168E+3
   2.22911E+3   6.06093E+3
   2.36161E+3   5.91782E+3
   2.51509E+3   5.69910E+3
   2.68401E+3   5.54115E+3
   2.87343E+3   5.41692E+3
   2.98844E+3   5.17689E+3
   3.14089E+3   4.95167E+3
   3.22215E+3   4.81060E+3
   3.36859E+3   4.59991E+3
   3.45979E+3   4.43440E+3
   3.54978E+3   4.27522E+3
   3.65337E+3   4.00077E+3
   3.71853E+3   3.82839E+3
   3.82873E+3   3.61228E+3
   3.90435E+3   3.44292E+3
   4.05942E+3   3.25471E+3
   4.08689E+3   3.04153E+3
   4.13186E+3   2.88289E+3
   4.22968E+3   2.64500E+3
   4.26482E+3   2.44009E+3
   4.32976E+3   2.26806E+3
   4.36780E+3   2.10864E+3
   4.38257E+3   1.89358E+3
   4.45950E+3   1.72980E+3
   4.52409E+3   1.60895E+3
   4.47937E+3   1.36898E+3
   4.48153E+3   1.24926E+3
   4.53933E+3   1.03442E+3
   4.53455E+3   9.17823E+2
   4.54597E+3   7.58417E+2
   4.52634E+3   5.83787E+2
   4.52719E+3   4.13655E+2
   4.52085E+3   2.50130E+2
   4.43369E+3   1.13421E+2
   4.42835E+3  -1.09797E+2
   4.41143E+3  -2.29084E+2
   4.29420E+3  -3.28847E+2
   4.31496E+3  -5.09387E+2
   4.29147E+3  -6.43149E+2
   4.25999E+3  -7.71911E+2
   4.21482E+3  -9.60128E+2
   4.17746E+3  -1.05299E+3
   4.09690E+3  -1.21849E+3
   3.94140E+3  -1.35826E+3
   3.99629E+3  -1.39287E+3
   3.83822E+3  -1.63165E+3
   3.94340E+3  -1.64302E+3
   3.79533E+3  -1.73760E+3
   3.68476E+3  -1.91210E+3
   3.63215E+3  -2.01381E+3
   3.61971E+3  -2.11704E+3
   3.48274E+3  -2.16731E+3
   3.39285E+3  -2.30351E+3
   3.29811E+3  -2.42760E+3
   3.25432E+3  -2.48609E+3
   3.17675E+3  -2.55675E+3
   3.07753E+3  -2.70950E+3
   3.02031E+3  -2.78850E+3
   2.93721E+3  -2.80844E+3
   2.92190E+3  -2.88629E+3
   2.77960E+3  -2.97582E+3
   2.71011E+3  -3.09072E+3
   2.59284E+3  -3.10375E+3
   2.46046E+3  -3.10506E+3
   2.39700E+3  -3.19861E+3
   2.29974E+3  -3.25500E+3
   2.25855E+3  -3.31188E+3
   2.07517E+3  -3.31575E+3
   2.14592E+3  -3.34157E+3
   1.94197E+3  -3.40191E+3
   1.91346E+3  -3.45587E+3
   1.79934E+3  -3.44533E+3
   1.71791E+3  -3.42822E+3
   1.61256E+3  -3.51979E+3
   1.58214E+3  -3.58050E+3
   1.47105E+3  -3.54156E+3
   1.30380E+3  -3.58821E+3
   1.26103E+3  -3.63968E+3
   1.22506E+3  -3.57672E+3
   1.08945E+3  -3.64886E+3
   1.00292E+3  -3.66538E+3
   9.09335E+2  -3.66461E+3
   8.46798E+2  -3.67413E+3
   7.68856E+2  -3.67288E+3
   6.52523E+2  -3.68145E+3
   5.17074E+2  -3.60166E+3
   4.82117E+2  -3.65171E+3
   4.25840E+2  -3.64141E+3
   3.31774E+2  -3.68517E+3
   2.37038E+2  -3.58980E+3
   1.87642E+2  -3.57398E+3
   4.55897E+1  -3.55790E+3
   3.99155E+1  -3.50221E+3
  -7.84126E+1  -3.45751E+3
  -1.44583E+2  -3.51292E+3
  -2.23741E+2  -3.48091E+3
  -3.18886E+2  -3.53139E+3
  -3.45421E+2  -3.52565E+3
  -3.77881E+2  -3.45059E+3
  -5.12821E+2  -3.44276E+3
  -5.95998E+2  -3.38709E+3
  -6.55501E+2  -3.33640E+3
  -7.38297E+2  -3.35932E+3
  -7.61772E+2  -3.29748E+3
  -8.00031E+2  -3.29221E+3
  -8.92261E+2  -3.26263E+3
  -9.19807E+2  -3.17813E+3
  -9.91825E+2  -3.11520E+3
  -9.89808E+2  -3.12874E+3
  -1.11070E+3  -3.06283E+3
  -1.10896E+3  -3.00888E+3
  -1.15345E+3  -2.98467E+3
  -1.24630E+3  -2.93811E+3
  -1.27060E+3  -2.89698E+3
  -1.25601E+3  -2.94232E+3
  -1.33952E+3  -2.87570E+3
  -1.43903E+3  -2.82662E+3
  -1.47822E+3  -2.75863E+3
  -1.43399E+3  -2.75086E+3
  -1.47023E+3  -2.71927E+3
  -1.53897E+3  -2.63139E+3
  -1.51519E+3  -2.60937E+3
  -1.56030E+3  -2.57014E+3
  -1.58621E+3  -2.46159E+3
  -1.63913E+3  -2.49651E+3
  -1.72822E+3  -2.49814E+3
  -1.70793E+3  -2.43243E+3
  -1.75069E+3  -2.41680E+3
  -1.77866E+3  -2.35498E+3
  -1.78810E+3  -2.30713E+3
  -1.82348E+3  -2.22684E+3
  -1.82588E+3  -2.22656E+3
