 LCModel (Version 6.3-1N) Copyright: S.W. Provencher.          Ref.: Magn. Reson. Med. 30:672-679 (1993).                
 Slice_N1@15_11  02-Jun-2023 14:36:55
 27 lines in following concentration table = NCONC+1
    Conc.  %SD /Cr+PCr  Metabolite                                         
 1.78E-06  23% 1.7E-04 Mac                                                 
 3.57E-02  70%   3.372 Cr                                                  
 4.90E-02  51%   4.628 PCr                                                 
 9.61E-02  13%   9.078 Ins                                                 
    0.108   9%  10.165 NAA                                                 
 8.71E-02  13%   8.226 Tau                                                 
 1.02E-02  28%   0.962 PCho                                                
    0.000 999%   0.000 GPC                                                 
 7.57E-02  16%   7.149 Glu                                                 
 1.56E-02  52%   1.470 Gln                                                 
    0.000 999%   0.000 Ala                                                 
 3.22E-03 506%   0.305 Asc                                                 
 6.83E-03 127%   0.645 Asp                                                 
 6.10E-03  78%   0.576 GABA                                                
 5.43E-03 102%   0.513 Glc                                                 
 6.63E-03  59%   0.626 GSH                                                 
    0.000 999%   0.000 Lac                                                 
    0.000 999%   0.000 NAAG                                                
    0.000 999%   0.000 PE                                                  
 1.02E-02  28%   0.962 GPC+PCho                                            
    0.108   9%  10.165 NAA+NAAG                                            
 9.12E-02  16%   8.619 Glu+Gln                                             
 8.47E-02  10%   8.000 Cr+PCr                                              
    0.108   9%  10.165 NAA+NAAG                                            
 8.47E-02  10%   8.000 Cr+PCr                                              
 9.12E-02  16%   8.619 Glu+Gln                                             
   6 lines in following misc. output table
  FWHM = 0.047 ppm    S/N =   3                                            
  Data shift = 0.000 ppm                                                   
  Ph: -66 deg      -9.9 deg/ppm                                            
  alphaB,S = 3.1E+01,   7.0E+01                                            
   18 spline knots.   Ns = 9(1)                                            
   2 inflections.     1 extrema                                            
  654 points on ppm-axis = NY
      4.000000     3.994181     3.988363     3.982544     3.976726     3.970907     3.965088     3.959270     3.953451     3.947633
      3.941814     3.935995     3.930177     3.924358     3.918540     3.912721     3.906902     3.901084     3.895265     3.889446
      3.883628     3.877809     3.871991     3.866172     3.860353     3.854535     3.848716     3.842898     3.837079     3.831260
      3.825442     3.819623     3.813805     3.807986     3.802167     3.796349     3.790530     3.784712     3.778893     3.773074
      3.767256     3.761437     3.755619     3.749800     3.743981     3.738163     3.732344     3.726526     3.720707     3.714888
      3.709070     3.703251     3.697433     3.691614     3.685795     3.679977     3.674158     3.668339     3.662521     3.656702
      3.650884     3.645065     3.639246     3.633428     3.627609     3.621791     3.615972     3.610153     3.604335     3.598516
      3.592698     3.586879     3.581060     3.575242     3.569423     3.563605     3.557786     3.551967     3.546149     3.540330
      3.534512     3.528693     3.522874     3.517056     3.511237     3.505419     3.499600     3.493781     3.487963     3.482144
      3.476326     3.470507     3.464688     3.458870     3.453051     3.447232     3.441414     3.435595     3.429777     3.423958
      3.418139     3.412321     3.406502     3.400684     3.394865     3.389046     3.383228     3.377409     3.371591     3.365772
      3.359953     3.354135     3.348316     3.342498     3.336679     3.330860     3.325042     3.319223     3.313405     3.307586
      3.301767     3.295949     3.290130     3.284312     3.278493     3.272674     3.266856     3.261037     3.255219     3.249400
      3.243581     3.237763     3.231944     3.226125     3.220307     3.214488     3.208670     3.202851     3.197032     3.191214
      3.185395     3.179577     3.173758     3.167939     3.162121     3.156302     3.150484     3.144665     3.138846     3.133028
      3.127209     3.121391     3.115572     3.109753     3.103935     3.098116     3.092298     3.086479     3.080660     3.074842
      3.069023     3.063205     3.057386     3.051567     3.045749     3.039930     3.034111     3.028293     3.022474     3.016656
      3.010837     3.005018     2.999200     2.993381     2.987563     2.981744     2.975925     2.970107     2.964288     2.958470
      2.952651     2.946832     2.941014     2.935195     2.929377     2.923558     2.917739     2.911921     2.906102     2.900284
      2.894465     2.888646     2.882828     2.877009     2.871191     2.865372     2.859553     2.853735     2.847916     2.842098
      2.836279     2.830460     2.824642     2.818823     2.813004     2.807186     2.801367     2.795549     2.789730     2.783911
      2.778093     2.772274     2.766456     2.760637     2.754818     2.749000     2.743181     2.737363     2.731544     2.725725
      2.719907     2.714088     2.708270     2.702451     2.696632     2.690814     2.684995     2.679177     2.673358     2.667539
      2.661721     2.655902     2.650084     2.644265     2.638446     2.632628     2.626809     2.620991     2.615172     2.609353
      2.603535     2.597716     2.591897     2.586079     2.580260     2.574442     2.568623     2.562804     2.556986     2.551167
      2.545349     2.539530     2.533711     2.527893     2.522074     2.516256     2.510437     2.504618     2.498800     2.492981
      2.487163     2.481344     2.475525     2.469707     2.463888     2.458070     2.452251     2.446432     2.440614     2.434795
      2.428977     2.423158     2.417339     2.411521     2.405702     2.399884     2.394065     2.388246     2.382428     2.376609
      2.370790     2.364972     2.359153     2.353335     2.347516     2.341697     2.335879     2.330060     2.324242     2.318423
      2.312604     2.306786     2.300967     2.295149     2.289330     2.283511     2.277693     2.271874     2.266056     2.260237
      2.254418     2.248600     2.242781     2.236963     2.231144     2.225325     2.219507     2.213688     2.207870     2.202051
      2.196232     2.190414     2.184595     2.178777     2.172958     2.167139     2.161321     2.155502     2.149683     2.143865
      2.138046     2.132228     2.126409     2.120590     2.114772     2.108953     2.103135     2.097316     2.091497     2.085679
      2.079860     2.074042     2.068223     2.062404     2.056586     2.050767     2.044949     2.039130     2.033311     2.027493
      2.021674     2.015856     2.010037     2.004218     1.998400     1.992581     1.986763     1.980944     1.975126     1.969307
      1.963489     1.957670     1.951852     1.946033     1.940215     1.934397     1.928578     1.922760     1.916941     1.911123
      1.905304     1.899486     1.893667     1.887849     1.882030     1.876212     1.870393     1.864575     1.858756     1.852938
      1.847119     1.841301     1.835482     1.829664     1.823845     1.818027     1.812208     1.806390     1.800571     1.794753
      1.788934     1.783116     1.777297     1.771479     1.765660     1.759842     1.754023     1.748205     1.742386     1.736568
      1.730749     1.724931     1.719113     1.713294     1.707476     1.701657     1.695839     1.690020     1.684202     1.678383
      1.672565     1.666746     1.660928     1.655109     1.649291     1.643472     1.637654     1.631835     1.626017     1.620198
      1.614380     1.608561     1.602743     1.596924     1.591106     1.585287     1.579469     1.573650     1.567832     1.562013
      1.556195     1.550376     1.544558     1.538739     1.532921     1.527102     1.521284     1.515465     1.509647     1.503829
      1.498010     1.492192     1.486373     1.480555     1.474736     1.468918     1.463099     1.457281     1.451462     1.445644
      1.439825     1.434007     1.428188     1.422370     1.416551     1.410733     1.404914     1.399096     1.393277     1.387459
      1.381640     1.375822     1.370003     1.364185     1.358366     1.352548     1.346729     1.340911     1.335092     1.329274
      1.323455     1.317637     1.311818     1.306000     1.300182     1.294363     1.288545     1.282726     1.276908     1.271089
      1.265271     1.259452     1.253634     1.247815     1.241997     1.236178     1.230360     1.224541     1.218723     1.212904
      1.207086     1.201267     1.195449     1.189630     1.183812     1.177993     1.172175     1.166356     1.160538     1.154719
      1.148901     1.143082     1.137264     1.131445     1.125627     1.119808     1.113990     1.108171     1.102353     1.096534
      1.090716     1.084898     1.079079     1.073261     1.067442     1.061624     1.055805     1.049987     1.044168     1.038350
      1.032531     1.026713     1.020894     1.015076     1.009257     1.003439     0.997620     0.991802     0.985983     0.980165
      0.974346     0.968528     0.962709     0.956891     0.951072     0.945254     0.939435     0.933617     0.927798     0.921980
      0.916161     0.910343     0.904524     0.898706     0.892887     0.887069     0.881251     0.875432     0.869614     0.863795
      0.857977     0.852158     0.846340     0.840521     0.834703     0.828884     0.823066     0.817247     0.811429     0.805610
      0.799792     0.793973     0.788155     0.782336     0.776518     0.770699     0.764881     0.759062     0.753244     0.747425
      0.741607     0.735788     0.729970     0.724151     0.718333     0.712514     0.706696     0.700877     0.695059     0.689240
      0.683422     0.677603     0.671785     0.665967     0.660148     0.654330     0.648511     0.642693     0.636874     0.631056
      0.625237     0.619419     0.613600     0.607782     0.601963     0.596145     0.590326     0.584508     0.578689     0.572871
      0.567052     0.561234     0.555415     0.549597     0.543778     0.537960     0.532141     0.526323     0.520504     0.514686
      0.508867     0.503049     0.497230     0.491412     0.485593     0.479775     0.473956     0.468138     0.462319     0.456501
      0.450682     0.444864     0.439045     0.433227     0.427408     0.421590     0.415771     0.409953     0.404134     0.398316
      0.392497     0.386679     0.380860     0.375042     0.369223     0.363405     0.357586     0.351767     0.345949     0.340130
      0.334312     0.328493     0.322675     0.316856     0.311038     0.305219     0.299401     0.293582     0.287764     0.281945
      0.276127     0.270308     0.264490     0.258671     0.252853     0.247034     0.241216     0.235397     0.229579     0.223760
      0.217942     0.212123     0.206305     0.200486
 NY phased data points follow
  -2.88352E-01 -1.99265E-01 -1.22567E-02 -3.91728E-01 -1.75114E-02  8.61898E-02 -2.81790E-01  8.55233E-02 -1.37391E-01 -3.39706E-01
   2.11513E-01 -1.07551E-01  1.05952E-01  2.05416E-01  2.34326E-01  4.62552E-01  5.72261E-02  2.64830E-01  1.81226E-02  3.11100E-01
  -4.66567E-02 -3.64127E-01 -1.68969E-01 -3.23139E-02  3.10577E-01  3.33525E-02  2.80896E-01 -2.52040E-01 -1.47191E-01  2.27411E-01
   2.00458E-01 -6.67247E-02 -3.73611E-02  2.53353E-02 -5.96326E-01 -3.49535E-02 -2.72990E-01  2.01775E-01  4.59637E-01 -2.57719E-01
  -1.72062E-01 -3.58533E-01 -1.48030E-01  2.74295E-01  6.61567E-01  5.72139E-01  3.78428E-01 -1.95476E-01 -3.97115E-01 -2.09060E-01
  -6.24475E-02  4.34532E-01  3.79676E-01  2.32768E-01 -1.25458E-01 -3.42274E-01 -2.99913E-01 -1.64076E-01 -3.69190E-01  6.67636E-02
   4.74670E-01 -9.52845E-02 -2.51313E-01 -5.73895E-01 -5.65655E-01 -3.04463E-01 -1.09649E-01 -3.47924E-01  7.95630E-02  5.28615E-01
   3.11817E-01  5.64973E-01  2.99956E-01  1.73140E-01 -5.53996E-01 -7.84278E-01 -2.26224E-01 -8.98110E-02  3.23448E-01  4.61194E-01
   2.57184E-01 -1.63448E-02 -1.38793E-01 -3.44532E-01 -4.34517E-01 -4.06238E-01  5.08885E-02  4.04173E-01  3.41528E-01  7.85930E-01
   8.08460E-01  5.66884E-01  5.21932E-01  2.54553E-01 -1.70389E-03 -1.18572E-01 -2.06394E-01 -3.85783E-01 -3.58440E-01 -3.57141E-01
  -1.87604E-01  6.64542E-02  1.96016E-01  6.03428E-01  5.65987E-01  5.25025E-01  5.85366E-01  4.07359E-01  7.29629E-02  8.66900E-02
   4.22157E-02 -1.94424E-01 -8.16107E-03 -6.36285E-02  1.76230E-01  8.21068E-02  2.76339E-01  6.01008E-01  6.52544E-01  7.11057E-01
   3.73033E-01  4.17820E-01  1.93622E-01  2.89451E-01  2.05743E-01 -6.28050E-02 -2.10836E-01 -5.65688E-01 -6.74061E-01 -9.93697E-01
  -8.28587E-01 -5.84459E-01 -5.79445E-01 -3.65267E-01 -5.56282E-01 -7.31306E-01 -3.02201E-01  2.46945E-03 -3.59645E-01 -2.42203E-01
   2.85122E-02 -2.62375E-01 -1.14578E-01 -3.36578E-01 -1.98991E-01 -1.80664E-01 -5.26455E-01 -3.45210E-01 -3.53774E-01 -7.46145E-02
  -1.31549E-01  1.23472E-02  1.12813E-01  2.43528E-02  2.04438E-01  5.96367E-01  4.87291E-01  3.72032E-01  7.76090E-01  5.09637E-01
   8.69324E-01  1.00159E+00  7.48572E-01  8.32736E-01  6.80756E-01  6.75476E-01  6.75069E-01  2.98051E-01  2.63953E-01  1.33776E-01
  -3.19400E-01 -4.44702E-01 -8.53543E-01 -8.98029E-01 -7.88720E-01 -8.06335E-01 -7.99263E-01 -7.33554E-01 -6.55874E-01 -5.88121E-01
  -5.62931E-01 -3.91921E-01 -2.00007E-01 -1.44402E-01 -2.55478E-01 -3.20854E-01 -6.81343E-03 -1.20870E-01  1.43662E-01 -9.15965E-02
  -5.11589E-01 -1.97355E-01  9.46008E-02 -8.47418E-02 -1.73580E-01 -7.80835E-02 -2.79960E-01  4.01615E-02 -5.38084E-03  6.60546E-02
   6.74901E-02 -1.52933E-02 -1.89544E-01 -1.99683E-01  2.69626E-03 -1.08829E-01 -1.29413E-01 -2.59235E-01 -2.44708E-01 -4.28228E-01
  -2.08009E-02 -2.36152E-02 -1.83859E-01 -1.14829E-01 -2.10457E-01 -2.13672E-01 -3.90163E-01 -2.76874E-01 -2.97696E-01 -2.51429E-01
  -2.50180E-01 -6.19863E-02 -1.38897E-01 -2.63158E-01 -1.02245E-01  1.32407E-01  3.03401E-01  3.75534E-01  5.76041E-01  1.96534E-01
   3.95409E-01  4.99038E-01  2.12348E-01  4.93829E-01  3.20900E-01  4.19701E-01  1.92926E-01 -1.28326E-01  9.60392E-02  8.28557E-02
   2.18227E-01 -1.78010E-02  1.72049E-01 -3.28522E-02 -9.57369E-02  3.57564E-02 -3.94311E-02  1.92146E-01 -5.75243E-02  2.23712E-01
  -1.77854E-01  1.19886E-01  7.49098E-02 -2.52594E-01  1.26724E-01  5.20347E-02  2.93622E-01 -6.83499E-02 -3.44375E-02  1.20615E-02
   4.05167E-01  7.45937E-02 -3.07431E-02  4.74112E-01 -1.19702E-02  2.86771E-02  1.68696E-02  1.15269E-01 -3.55327E-02  2.58427E-01
   3.60758E-01 -2.38246E-02  2.95281E-01  3.75534E-01  2.93840E-01  4.43122E-02 -3.90939E-01 -1.03531E-01  5.47094E-02 -3.27871E-01
  -1.11799E-01 -1.98626E-01 -1.42672E-01 -2.43767E-01 -3.19888E-01  2.03306E-01 -9.01771E-02  1.08016E-01  3.41794E-01  2.13894E-01
   7.43319E-01  4.99455E-01  4.34981E-01  4.97106E-01  3.43737E-02  3.31591E-01  1.28127E-01  3.99815E-02  1.51300E-01 -2.45642E-02
   1.03745E-01  1.00312E-03  2.22860E-01  2.09116E-01  1.32685E-01  3.60225E-01 -1.00690E-02  1.46919E-02  5.14189E-01  2.39090E-01
   1.63291E-01  1.85666E-01  1.34420E-01  3.52507E-01  8.69928E-02  3.18733E-01  3.21344E-01 -3.77763E-02  1.68435E-01 -2.34637E-01
  -2.27539E-01 -5.39967E-02 -2.21624E-01 -3.63313E-02 -3.87257E-01 -2.99367E-01 -1.88442E-01  8.34976E-02  1.65793E-01 -2.42590E-01
   5.81722E-03  9.48408E-02  2.77483E-01 -1.40731E-01 -1.52587E-01 -2.87643E-01 -3.94818E-01 -2.67396E-01 -5.19299E-01 -4.29364E-01
  -7.03722E-01 -5.66691E-01 -1.09102E+00 -7.87935E-01 -9.58659E-01 -1.56601E+00 -1.09550E+00 -9.13344E-01 -5.64617E-01 -5.79907E-01
  -1.50412E-01  5.82031E-02  2.59488E-01 -7.34069E-02 -4.16597E-02  8.95003E-02  6.54644E-02  1.22613E-01 -6.00001E-02  4.31409E-01
   4.13503E-03  3.56737E-02 -5.15617E-02  1.27616E-01  8.85477E-02 -2.37948E-01  4.40599E-02  8.10992E-02  2.45358E-01  3.75521E-02
  -1.18387E-02  2.51381E-01  4.16724E-01 -4.64911E-02  2.44888E-01  3.76087E-01  4.02164E-01  3.34472E-01  1.60406E-01  1.48810E-01
  -1.26051E-01  3.21045E-01  2.19446E-01  2.85563E-01  2.69034E-01  2.75794E-01  1.85214E-01  1.98566E-01  3.41569E-01  3.71699E-01
   4.64085E-01  3.79033E-01  3.61461E-01  1.14051E-01  4.80976E-01  1.73172E-01  6.84562E-02  2.25306E-01  1.54641E-01  3.43739E-01
   3.03798E-01  4.21324E-01  1.46802E-01 -5.99396E-02  3.10319E-01  3.02170E-01 -7.52814E-02 -7.01223E-02 -4.97417E-02 -6.42129E-02
  -4.28225E-02  1.91345E-01  9.89907E-02  1.65192E-01 -6.29442E-02 -2.50460E-01 -2.26047E-01 -2.66554E-01  3.01723E-02 -4.16965E-01
  -2.19847E-01 -2.26659E-01 -2.89892E-01 -2.48095E-01 -2.87118E-01 -8.90702E-02 -2.00688E-01 -2.20359E-01 -2.59532E-01 -2.07394E-01
  -2.59261E-01  2.23282E-03 -3.11633E-01 -2.85727E-01  1.36272E-03 -2.97206E-02  7.46347E-02 -2.97249E-01 -1.00805E-01  1.59653E-01
  -2.13371E-01 -2.06121E-01  6.30157E-02 -1.37992E-01 -1.21144E-01  2.63420E-02  8.20911E-02  2.11021E-01  2.45075E-05  6.64062E-02
   1.60082E-01 -8.19478E-02  2.47724E-01 -2.34420E-01 -5.50266E-01 -2.50784E-03 -3.50890E-02 -3.92077E-02  4.94563E-02  2.46238E-01
  -7.78793E-02 -1.98832E-01 -1.42922E-01  2.62205E-02  6.79090E-02  3.67103E-02  2.42236E-02 -1.48886E-01  1.86432E-01 -4.96268E-03
  -8.72584E-02 -2.36421E-01  3.30302E-02  2.73745E-01 -3.42968E-02 -1.06459E-01 -2.16983E-01 -2.00365E-01 -3.31542E-01 -1.41998E-01
   1.62589E-01  1.06687E-01 -4.76863E-02  1.12434E-02  2.14234E-01  1.48555E-02 -2.59712E-01  3.16888E-01  2.99868E-01  1.68865E-01
   1.91888E-01 -7.73939E-02  6.55549E-02  3.09422E-03  1.13108E-01 -1.25773E-01  1.75881E-02  1.69625E-01 -6.45834E-02 -1.46324E-01
  -1.38286E-01  2.83119E-01  1.95237E-01 -1.64074E-02  3.28529E-01  1.41961E-01 -2.92665E-02  9.69273E-02 -1.45532E-01  2.58177E-01
   1.46063E-01  2.26645E-01  3.58074E-01 -1.98417E-02  3.79802E-02 -9.28625E-02  7.34814E-02 -8.49376E-03 -1.57370E-01  2.06857E-01
   2.05277E-01 -6.00798E-02  5.79196E-02 -2.45059E-01 -7.15079E-02 -1.64632E-01 -4.12161E-01 -2.74076E-02 -2.81487E-01 -2.85738E-01
  -3.11034E-01 -2.58445E-01 -3.99107E-01 -3.35531E-01 -1.89082E-01 -3.57697E-01 -3.66288E-01 -2.56941E-01 -2.05266E-01 -1.21124E-01
  -1.06160E-02 -3.95202E-01 -1.69202E-01 -1.28507E-01 -1.75078E-01 -1.25407E-01 -1.71418E-01 -1.33659E-01 -5.65633E-02  1.82492E-01
   5.27434E-02  1.58237E-01  6.19041E-02  2.13211E-01  3.77226E-01  2.30697E-01  2.77286E-01  2.44283E-01  2.38469E-01  1.13711E-01
  -1.24867E-02 -3.31731E-02 -5.23524E-02  8.69180E-02  2.21087E-01 -8.26010E-02  1.35056E-01  2.85440E-01  6.71940E-02  2.66171E-01
   5.35000E-02  1.74631E-02  4.36071E-02 -5.05729E-02  2.93543E-01  2.45441E-01  2.92860E-01  3.01572E-01  1.11433E-01  2.05518E-01
   9.44269E-02  3.07227E-02 -4.62434E-02  1.60950E-01 -1.64109E-02 -2.24774E-01 -6.11348E-02 -4.13949E-02  4.66835E-01  2.05790E-01
  -2.67795E-01 -9.90104E-03  2.13603E-01  4.92300E-02 -8.64747E-02 -1.98024E-01 -2.07550E-01 -2.85535E-02 -1.38983E-01  8.75778E-02
   3.37895E-02  5.95747E-02 -1.80513E-01 -3.64790E-01  2.46188E-02 -9.89361E-02  1.05901E-01 -4.84937E-02 -5.35573E-02  2.61885E-02
  -1.52268E-01 -8.29323E-02 -1.54583E-01  1.77284E-01  5.46471E-02 -1.71382E-01  3.48775E-02  2.26289E-01 -9.55397E-02 -1.01357E-01
   2.05742E-01 -2.57478E-01  1.15897E-01  2.66012E-01  9.18497E-03 -7.97113E-02 -1.58036E-01 -5.29317E-02 -2.74080E-01  1.61935E-01
   3.04652E-01  2.64666E-01  5.40938E-02 -2.15616E-02  1.91799E-01  2.79028E-03  4.52752E-02 -3.78895E-02  3.49697E-02  1.65147E-02
   1.69215E-01 -1.77035E-02 -5.09734E-03 -3.28574E-02 -6.01918E-02  3.17718E-01  3.97464E-02  1.84124E-01  1.19859E-01  2.44457E-01
   5.42929E-02 -9.36889E-03  2.13089E-01 -1.02541E-01
 NY points of the fit to the data follow
   1.58217E-03  7.65268E-03  1.26385E-02  1.08466E-02  5.17846E-03  1.09113E-02  2.64834E-02  5.07448E-02  8.77556E-02  1.37751E-01
   1.98625E-01  2.66710E-01  3.37855E-01  4.08120E-01  4.69320E-01  5.06712E-01  5.08552E-01  4.73391E-01  4.06918E-01  3.19865E-01
   2.26965E-01  1.42978E-01  7.60976E-02  2.63023E-02 -9.33128E-03 -3.30790E-02 -5.04319E-02 -6.50823E-02 -7.76912E-02 -8.90457E-02
  -9.98732E-02 -1.12961E-01 -1.28339E-01 -1.42886E-01 -1.56497E-01 -1.65381E-01 -1.68611E-01 -1.62165E-01 -1.44189E-01 -1.13864E-01
  -7.16915E-02 -1.87756E-02  4.16943E-02  1.02590E-01  1.55241E-01  1.91882E-01  2.07443E-01  2.00858E-01  1.75081E-01  1.36752E-01
   9.33770E-02  5.08532E-02  1.14048E-02 -2.40583E-02 -5.63452E-02 -9.37888E-02 -1.32906E-01 -1.68244E-01 -2.15956E-01 -2.66015E-01
  -3.07502E-01 -3.42680E-01 -3.64511E-01 -3.66880E-01 -3.45831E-01 -2.98941E-01 -2.29100E-01 -1.42852E-01 -4.34783E-02  6.21864E-02
   1.59753E-01  2.37767E-01  2.82929E-01  2.78309E-01  2.31224E-01  1.54522E-01  5.85665E-02 -4.06891E-02 -1.32671E-01 -2.05341E-01
  -2.51507E-01 -2.69624E-01 -2.53870E-01 -1.96236E-01 -9.85796E-02  2.33393E-02  1.49832E-01  2.63260E-01  3.42535E-01  3.79479E-01
   3.65122E-01  3.12508E-01  2.31631E-01  1.36008E-01  4.04146E-02 -4.71306E-02 -1.25279E-01 -1.90046E-01 -2.33864E-01 -2.46499E-01
  -2.18889E-01 -1.48207E-01 -4.28565E-02  7.96762E-02  1.96192E-01  2.87604E-01  3.44467E-01  3.69637E-01  3.72205E-01  3.64518E-01
   3.53753E-01  3.44824E-01  3.37738E-01  3.32114E-01  3.29838E-01  3.27227E-01  3.21786E-01  3.20833E-01  3.20275E-01  3.08465E-01
   2.90223E-01  2.49407E-01  1.84266E-01  9.31542E-02 -1.90646E-02 -1.45096E-01 -2.76361E-01 -4.02854E-01 -5.08088E-01 -5.94090E-01
  -6.53624E-01 -6.73658E-01 -6.44645E-01 -5.73585E-01 -4.82145E-01 -3.98412E-01 -3.40275E-01 -3.13015E-01 -3.10941E-01 -3.14996E-01
  -2.97697E-01 -2.49529E-01 -1.75889E-01 -9.27626E-02 -1.51411E-02  4.63098E-02  8.88331E-02  1.17623E-01  1.41235E-01  1.61814E-01
   1.80520E-01  1.98141E-01  2.15168E-01  2.32021E-01  2.49154E-01  2.67044E-01  2.85832E-01  3.04822E-01  3.25348E-01  3.99830E-01
   4.94677E-01  5.69886E-01  6.09075E-01  6.20426E-01  6.10765E-01  5.74500E-01  4.95767E-01  3.65774E-01  1.81835E-01 -5.75971E-02
  -3.29360E-01 -5.73837E-01 -7.34386E-01 -7.88162E-01 -7.51326E-01 -6.58490E-01 -5.51691E-01 -4.63968E-01 -4.07589E-01 -3.66126E-01
  -3.33360E-01 -3.06552E-01 -2.84070E-01 -2.64663E-01 -2.47747E-01 -2.32801E-01 -2.19487E-01 -2.07509E-01 -1.96526E-01 -1.86127E-01
  -1.75956E-01 -1.65931E-01 -1.56128E-01 -1.46713E-01 -1.37453E-01 -1.28099E-01 -1.18713E-01 -1.09672E-01 -1.01410E-01 -9.36734E-02
  -8.59081E-02 -7.82297E-02 -7.11770E-02 -6.51839E-02 -6.04654E-02 -5.70452E-02 -5.49432E-02 -5.38546E-02 -5.33184E-02 -5.31736E-02
  -5.35640E-02 -5.46028E-02 -5.59513E-02 -5.71210E-02 -5.76334E-02 -5.76309E-02 -6.00798E-02 -6.16931E-02 -5.62953E-02 -4.31988E-02
  -2.65173E-02 -1.06183E-02  8.49104E-03  4.02524E-02  8.43438E-02  1.34856E-01  1.85647E-01  2.31413E-01  2.65851E-01  2.84140E-01
   2.86403E-01  2.76841E-01  2.57710E-01  2.26856E-01  1.82636E-01  1.28280E-01  7.01655E-02  1.67790E-02 -2.51148E-02 -5.27933E-02
  -6.90414E-02 -7.92280E-02 -8.71298E-02 -9.36377E-02 -9.91476E-02 -1.03874E-01 -1.08247E-01 -1.12877E-01 -1.23586E-01 -1.34271E-01
  -1.41803E-01 -1.50232E-01 -1.58425E-01 -1.63118E-01 -1.59351E-01 -1.49005E-01 -1.31042E-01 -1.02145E-01 -6.16741E-02 -1.21286E-02
   3.74952E-02  8.31015E-02  1.22108E-01  1.52011E-01  1.70107E-01  1.77315E-01  1.76827E-01  1.70158E-01  1.57006E-01  1.40146E-01
   1.21579E-01  1.00845E-01  7.82573E-02  5.06463E-02  1.76184E-02 -2.32041E-02 -7.19684E-02 -1.21388E-01 -1.68005E-01 -2.06087E-01
  -2.31138E-01 -2.40567E-01 -2.31603E-01 -2.00840E-01 -1.46043E-01 -6.75006E-02  2.80195E-02  1.28518E-01  2.19110E-01  2.86891E-01
   3.24507E-01  3.32478E-01  3.18309E-01  2.92521E-01  2.65209E-01  2.42420E-01  2.26264E-01  2.16876E-01  2.11736E-01  2.08653E-01
   2.06003E-01  2.02656E-01  1.98273E-01  1.93029E-01  1.87301E-01  1.81572E-01  1.75598E-01  1.69426E-01  1.62681E-01  1.54345E-01
   1.43631E-01  1.29143E-01  1.11228E-01  8.79645E-02  6.01824E-02  2.67890E-02 -1.11401E-02 -5.31834E-02 -9.68197E-02 -1.38937E-01
  -1.75324E-01 -2.01688E-01 -2.16470E-01 -2.17654E-01 -2.06156E-01 -1.83798E-01 -1.52452E-01 -1.17150E-01 -8.10114E-02 -5.05006E-02
  -2.90157E-02 -2.01369E-02 -2.06419E-02 -2.91473E-03  1.03754E-02 -2.23711E-02 -1.01514E-01 -2.04962E-01 -3.16550E-01 -4.38182E-01
  -5.79233E-01 -7.39133E-01 -9.06237E-01 -1.06428E+00 -1.18132E+00 -1.20801E+00 -1.11489E+00 -9.19915E-01 -6.75923E-01 -4.40033E-01
  -2.54016E-01 -1.35561E-01 -7.54568E-02 -4.42549E-02 -2.32825E-02 -8.69838E-03  1.60540E-03  8.38170E-03  1.23662E-02  1.40285E-02
   1.38709E-02  1.23244E-02  9.94759E-03  7.36977E-03  5.22247E-03  4.17011E-03  4.73598E-03  7.09931E-03  1.11656E-02  1.64936E-02
   2.24981E-02  2.86431E-02  3.45344E-02  3.98776E-02  4.46652E-02  4.88573E-02  5.26026E-02  5.59733E-02  5.90667E-02  6.19834E-02
   6.47160E-02  6.72964E-02  6.97096E-02  7.19831E-02  7.41472E-02  7.62586E-02  7.83691E-02  8.04195E-02  8.23480E-02  8.41408E-02
   8.58248E-02  8.74227E-02  8.89054E-02  9.01170E-02  9.08526E-02  9.09762E-02  9.03559E-02  8.89566E-02  8.68306E-02  8.41529E-02
   8.10034E-02  7.73819E-02  7.33000E-02  6.87914E-02  6.39183E-02  5.88147E-02  5.36244E-02  4.84883E-02  4.35409E-02  3.88398E-02
   3.43862E-02  3.01932E-02  2.62858E-02  2.27058E-02  1.94361E-02  1.64435E-02  1.37164E-02  1.12160E-02  8.91064E-03  6.81751E-03
   5.01420E-03  3.51916E-03  2.48469E-03  2.03325E-03  2.19676E-03  2.94771E-03  4.18671E-03  5.88931E-03  8.03268E-03  1.06167E-02
   1.35208E-02  1.66289E-02  1.98270E-02  2.30991E-02  2.64792E-02  3.01358E-02  3.42899E-02  3.90533E-02  4.44634E-02  5.04644E-02
   5.70147E-02  6.40477E-02  7.15831E-02  7.95697E-02  8.78892E-02  9.63873E-02  1.04769E-01  1.12797E-01  1.20248E-01  1.26906E-01
   1.32540E-01  1.36895E-01  1.39804E-01  1.41207E-01  1.41195E-01  1.39858E-01  1.37345E-01  1.33633E-01  1.28798E-01  1.22928E-01
   1.16186E-01  1.08788E-01  1.01017E-01  9.31582E-02  8.54431E-02  7.80083E-02  7.08925E-02  6.41293E-02  5.78189E-02  5.20386E-02
   4.68470E-02  4.22661E-02  3.83585E-02  3.51179E-02  3.25838E-02  3.08551E-02  3.00222E-02  3.01150E-02  3.10999E-02  3.29012E-02
   3.53279E-02  3.81866E-02  4.13629E-02  4.47668E-02  4.82892E-02  5.17741E-02  5.49997E-02  5.78508E-02  6.03089E-02  6.23209E-02
   6.38957E-02  6.50745E-02  6.58838E-02  6.62408E-02  6.60353E-02  6.52269E-02  6.38732E-02  6.20632E-02  5.98974E-02  5.74807E-02
   5.48559E-02  5.21176E-02  4.93466E-02  4.65543E-02  4.37231E-02  4.08689E-02  3.80261E-02  3.52177E-02  3.24210E-02  2.96204E-02
   2.68167E-02  2.40010E-02  2.11050E-02  1.80040E-02  1.44625E-02  1.02827E-02  5.34255E-03 -4.34051E-04 -7.10158E-03 -1.47033E-02
  -2.32870E-02 -3.28345E-02 -4.33647E-02 -5.48776E-02 -6.71191E-02 -7.96096E-02 -9.19113E-02 -1.03704E-01 -1.14698E-01 -1.24554E-01
  -1.33021E-01 -1.39921E-01 -1.45105E-01 -1.48465E-01 -1.50047E-01 -1.49928E-01 -1.48325E-01 -1.45453E-01 -1.41552E-01 -1.36863E-01
  -1.31582E-01 -1.25905E-01 -1.19876E-01 -1.13545E-01 -1.06885E-01 -9.98170E-02 -9.22981E-02 -8.44276E-02 -7.63572E-02 -6.82844E-02
  -6.02679E-02 -5.23592E-02 -4.47018E-02 -3.73882E-02 -3.04374E-02 -2.38429E-02 -1.76383E-02 -1.18638E-02 -6.56266E-03 -1.72104E-03
   2.71368E-03  6.71716E-03  1.02413E-02  1.33115E-02  1.59926E-02  1.82936E-02  2.02677E-02  2.19923E-02  2.35357E-02  2.49103E-02
   2.61826E-02  2.74033E-02  2.85969E-02  2.98283E-02  3.11007E-02  3.23413E-02  3.35221E-02  3.45507E-02  3.53082E-02  3.57786E-02
   3.60046E-02  3.61029E-02  3.62237E-02  3.63647E-02  3.64179E-02  3.63889E-02  3.63544E-02  3.63587E-02  3.63655E-02  3.63439E-02
   3.63162E-02  3.61979E-02  3.59011E-02  3.53830E-02  3.48273E-02  3.44062E-02  3.41605E-02  3.40117E-02  3.38854E-02  3.37584E-02
   3.36295E-02  3.35259E-02  3.35672E-02  3.38593E-02  3.44668E-02  3.52641E-02  3.61044E-02  3.69065E-02  3.76399E-02  3.82853E-02
   3.88641E-02  3.93628E-02  3.98418E-02  4.02039E-02  4.03647E-02  4.04442E-02  4.05781E-02  4.09390E-02  4.16048E-02  4.24717E-02
   4.34461E-02  4.44198E-02  4.53765E-02  4.63510E-02  4.73890E-02  4.84096E-02  4.93067E-02  4.99658E-02  5.03642E-02  5.05964E-02
   5.07166E-02  5.08378E-02  5.10857E-02  5.14777E-02  5.19087E-02  5.23370E-02  5.27669E-02  5.32583E-02  5.38792E-02  5.45539E-02
   5.52728E-02  5.61243E-02  5.71358E-02  5.83141E-02  5.96074E-02  6.10527E-02  6.26503E-02  6.44262E-02  6.64323E-02  6.87331E-02
   7.13153E-02  7.40998E-02  7.69561E-02  7.97872E-02
 NY background values follow
     6.430E-02    6.412E-02    6.394E-02    6.375E-02    6.357E-02    6.339E-02    6.321E-02    6.303E-02    6.285E-02    6.267E-02
     6.249E-02    6.231E-02    6.213E-02    6.195E-02    6.177E-02    6.159E-02    6.141E-02    6.122E-02    6.104E-02    6.086E-02
     6.068E-02    6.050E-02    6.032E-02    6.014E-02    5.996E-02    5.978E-02    5.959E-02    5.941E-02    5.923E-02    5.905E-02
     5.887E-02    5.869E-02    5.851E-02    5.832E-02    5.814E-02    5.796E-02    5.778E-02    5.760E-02    5.742E-02    5.724E-02
     5.705E-02    5.687E-02    5.669E-02    5.651E-02    5.633E-02    5.614E-02    5.596E-02    5.578E-02    5.560E-02    5.542E-02
     5.523E-02    5.505E-02    5.487E-02    5.469E-02    5.451E-02    5.432E-02    5.414E-02    5.396E-02    5.378E-02    5.360E-02
     5.341E-02    5.323E-02    5.305E-02    5.287E-02    5.268E-02    5.250E-02    5.232E-02    5.214E-02    5.195E-02    5.177E-02
