 
 $NMID
 ID=''
 FMTDAT='(2E13.5)'
 TRAMP=   1.00000E+0
 VOLUME=   1.00000E+0
 $END
   5.30116E+1   1.87977E+1
   1.74522E+3   1.59315E+3
  -5.40225E+1  -3.98611E+3
   1.47471E+3  -2.79065E+3
  -1.50062E+3  -2.85085E+3
  -5.70820E+2  -2.28537E+3
  -1.29489E+3  -1.23291E+2
  -5.02919E+3  -2.27449E+2
  -4.80025E+3   6.26015E+2
  -4.83904E+3  -3.52578E+2
  -1.16391E+3  -1.86249E+3
   5.82163E+3   2.42322E+3
   7.08529E+2   3.41274E+3
  -5.31642E+2   3.75357E+3
  -2.42631E+3  -8.13652E+1
   1.76262E+3  -1.75796E+3
   2.08015E+3   3.78881E+1
   9.50332E+2   3.23548E+2
   2.47769E+3   2.26618E+2
   1.69246E+3  -7.04886E+2
   1.74514E+3  -2.54705E+3
   2.72372E+3   1.02354E+3
   1.97306E+3   1.66752E+3
  -3.33941E+2  -3.41027E+2
   1.59434E+3  -4.36317E+3
   3.15768E+3  -4.66165E+2
   2.31034E+2   1.97148E+3
  -2.40485E+3   4.70956E+2
  -3.96179E+3  -4.38041E+3
   2.78638E+3  -3.44770E+3
   4.63460E+3   3.15003E+3
  -8.74135E+2   7.67828E+3
  -3.39540E+3   3.59191E+3
  -1.15962E+3  -3.57988E+1
   1.35908E+3   1.32882E+3
  -2.24105E+2   8.86553E+2
   3.10902E+3  -2.77536E+3
   3.26690E+3   1.08432E+3
   3.08640E+3   1.81492E+3
   1.32040E+3   9.16023E+2
  -3.21695E+1   3.33685E+3
  -4.04566E+3   1.86207E+2
  -5.45306E+3  -3.75049E+3
  -1.07351E+2  -7.45530E+3
   1.65053E+3  -2.51384E+3
   3.30238E+1   1.40745E+3
  -2.05434E+3  -2.19527E+3
   4.71792E+2   2.50749E+3
  -9.43209E+2   9.50812E+2
  -1.11306E+3   1.83547E+3
  -2.51219E+3  -6.13053E+2
  -1.55636E+3  -7.33933E+2
   2.33351E+3  -4.08401E+2
   4.39900E+3   1.01785E+3
   5.01089E+2   2.30321E+2
  -1.31899E+3   2.56611E+3
  -2.29705E+3   3.61248E+3
  -5.74299E+3   4.65467E+3
  -5.68702E+3  -1.21461E+3
  -2.81671E+3  -4.03426E+3
   1.35807E+3  -3.60137E+3
   5.51572E+3  -8.78718E+1
   1.22832E+3   2.10480E+3
  -6.53589E+2   3.45159E+3
   5.87707E+2  -3.43565E+2
   1.32728E+3   1.34624E+3
   2.68190E+3   2.28370E+3
  -1.46659E+3   8.66899E+2
  -6.51727E+2   9.95936E+2
   2.41746E+2   7.67794E+2
  -2.17676E+3   7.58517E+2
  -1.31348E+3   7.47591E+2
  -4.43539E+2   1.88092E+1
  -2.03022E+3  -6.57054E+2
   1.30781E+2  -6.62507E+2
  -1.31167E+3   1.57298E+3
  -2.12254E+3   5.17053E+2
  -1.15957E+3  -1.19292E+3
   3.69240E+2   5.74883E+2
  -7.62846E+2   1.52474E+3
  -5.59588E+2   1.42468E+3
   5.64030E+2  -1.86765E+3
  -9.92362E+2  -2.55051E+2
  -1.88854E+3   1.52487E+3
  -2.39853E+3   6.03399E+2
  -2.37739E+3  -2.47405E+3
  -1.13418E+3  -3.91364E+3
   1.52215E+3  -2.61492E+3
   8.37777E+2  -4.88295E+3
   1.67554E+3   5.37209E+2
  -6.88595E+2  -3.32317E+3
   3.09229E+3  -2.08011E+2
   5.24215E+2   9.94580E+2
  -1.38752E+3   9.80525E+2
  -4.32673E+3   9.63404E+2
  -1.49014E+3  -1.86549E+3
   3.96060E+3  -2.50653E+3
   7.39567E+2   1.16715E+3
  -1.06874E+3   1.67569E+3
  -3.09052E+3  -1.06170E+3
  -4.94218E+2  -3.89773E+3
   2.42420E+3  -1.64826E+3
   2.79136E+3   3.84984E+2
  -5.27932E+2   2.00171E+3
  -8.51065E+2  -9.47724E+2
  -1.27442E+3  -2.54451E+3
  -1.04740E+3  -5.83220E+2
  -2.69099E+3   1.58412E+2
  -1.24994E+3  -1.44151E+3
  -5.50864E+2  -2.53523E+3
   3.30185E+3  -2.61168E+3
   2.43166E+2  -5.30407E+2
   2.22008E+3   2.22507E+3
   2.09394E+3   1.76572E+3
  -1.96691E+3   2.00916E+2
  -1.22628E+3   6.20827E+2
   1.10730E+3  -2.42268E+3
   1.96526E+1  -6.07278E+2
  -1.40736E+3   5.57975E+2
  -4.94255E+2  -1.71338E+3
   2.58816E+2   1.73097E+3
   6.18787E+2   6.54768E+2
  -2.11474E+2   5.18826E+2
   4.34970E+2  -4.73241E+2
   1.73916E+3   8.10015E+1
  -1.50319E+3   1.76431E+3
  -5.43285E+2   8.16503E+2
  -4.66331E+2  -3.26492E+2
  -4.95741E+2  -8.01208E+1
  -8.61890E+1  -5.21900E+2
  -7.70846E+2   6.97252E+2
   7.49828E+2   1.79554E+2
   2.37521E+3  -2.03906E+2
   4.75692E+2   1.97075E+3
  -8.78086E+2   6.47003E+2
  -1.56072E+3   4.54911E+2
  -1.88069E+3  -1.88639E+3
  -5.77192E+1  -2.81671E+2
  -4.50290E+2  -1.71321E+3
   5.11947E+2   9.35719E+2
   1.21368E+3   1.21134E+3
   6.06941E+2  -1.57963E+3
   1.06532E+3   6.49625E+1
  -1.29031E+2  -1.43187E+2
  -1.13950E+3  -1.25119E+2
   1.68820E+3  -1.91210E+2
  -1.71650E+3   1.95082E+3
   1.03368E+2   6.17803E+2
   8.52088E+2   1.36914E+3
   5.61339E+2   1.32051E+3
   8.40198E+2   2.06617E+3
  -1.10040E+3   5.31248E+2
  -2.94709E+2   9.80446E+2
   7.06223E+2   2.27822E+3
   6.35831E+2  -1.93737E+2
   1.09762E+3  -4.60384E+2
   1.35449E+3   1.50141E+3
  -1.58584E+2   9.82105E+2
   1.53197E+3  -9.72267E+1
   2.87606E+1  -7.44982E+2
   1.35203E+3   2.29229E+3
   2.18219E+3  -2.27462E+2
   6.67477E+2   3.04946E+2
   1.71045E+3   3.09174E+2
   2.33903E+3   1.82988E+3
  -2.55323E+3   5.40634E+2
  -6.93927E+2   4.50730E+2
   1.09382E+3  -1.28737E+3
   6.72706E+2  -1.10701E+3
  -1.16257E+3  -9.05641E+2
  -1.14868E+3   1.24323E+2
   3.03870E+2  -8.61795E+2
   8.89760E+2  -7.29594E+2
   1.32032E+3  -2.33352E+3
  -3.26342E+2  -1.37509E+3
   9.59726E+2  -1.23169E+3
   1.11726E+3  -3.26286E+3
   1.10944E+2   2.25629E+3
   7.56062E+2   7.17089E+1
  -1.33463E+3  -6.12512E+2
  -9.34895E+2  -8.68916E+1
   8.24071E+1   3.75849E+2
   1.22142E+3   5.68926E+2
  -8.25564E+2  -4.11462E+2
   1.48670E+2   1.11777E+3
   1.62071E+3  -9.27270E+2
   1.17642E+3  -1.41118E+3
   1.84468E+2   1.51708E+3
  -5.21672E+2  -5.32242E+2
  -1.48861E+3  -1.96705E+3
   2.70595E+2  -1.00770E+3
  -3.59408E+1  -1.41206E+3
   9.65864E+2  -1.07279E+3
   8.53056E+2  -1.10072E+3
   1.30903E+3  -6.11062E+2
   3.29968E+3   6.98277E+2
  -1.03089E+2   3.56360E+2
   2.67058E+3  -1.67629E+3
   5.06347E+2   2.37897E+2
   1.77567E+3   1.82252E+2
  -1.33019E+3   5.49949E+2
  -5.04252E+2   1.60350E+3
  -2.26525E+3  -2.88966E+2
   7.14990E+2  -1.21962E+3
  -7.71293E+1  -3.91285E+2
  -9.03073E+2   2.81360E+2
  -4.91446E+1  -1.83121E+2
   1.60584E+3   8.96261E+2
  -3.65352E+2   3.31567E+2
  -1.09877E+3   1.46513E+2
  -1.11382E+3   9.20280E+2
  -1.10477E+3  -6.13722E+2
   1.54821E+3   1.16131E+3
   1.47540E+3   1.29402E+3
  -1.29620E+3   9.09324E+2
   2.79503E+2   1.09656E+3
  -1.52452E+3  -3.16166E+2
  -6.10428E+2   6.99666E+2
  -1.89633E+3   9.95796E+2
  -9.28885E+2  -1.83557E+2
  -4.96467E+2  -2.20580E+3
   1.32548E+2  -3.71445E+2
   2.09297E+3  -5.86552E+2
   4.63321E+1  -9.28289E+2
  -1.59043E+3   4.27942E+2
  -2.20033E+2   9.09026E+2
  -1.10935E+3  -6.36979E+2
  -1.12057E+3  -1.24035E+3
   4.70268E+2   3.63794E+2
  -1.20720E+3   3.74240E+2
   1.66214E+3  -8.10302E+1
  -4.61248E+2  -7.25291E+2
  -1.65838E+3  -2.96451E+2
  -2.97759E+2  -1.53240E+2
   2.82278E+3  -5.53864E+1
   2.55256E+3   9.27717E+2
  -5.62270E+2   3.87389E+2
   4.20909E+2   1.07406E+3
  -7.17263E+2  -1.58994E+3
   6.68314E+2  -1.68814E+3
   6.80225E+2   3.87710E+2
  -1.09777E+3   5.92844E+1
   2.43390E+2  -4.62951E+2
   1.75708E+3   4.70095E+2
  -7.79096E+1  -6.47424E+0
  -5.01170E+2   1.16048E+3
  -6.39428E+2   3.54270E+2
   4.96679E+2  -2.23272E+3
   2.74944E+2  -5.86457E+2
  -6.12316E+1   7.84834E+1
   1.64267E+2   4.24181E+2
   1.49940E+3   7.66555E+2
   4.66368E+2   5.74730E+2
   2.07050E+2  -1.26866E+3
   1.32145E+3   7.79055E+1
   9.46011E+2  -3.05958E+2
   1.33414E+3   1.23569E+3
  -1.43721E+3  -1.85856E+3
   1.06756E+3   6.49220E+2
   4.00318E+2   9.23228E+2
   2.25149E+2   8.39158E+1
   2.39996E+2   5.06339E+2
  -2.04479E+3   3.11056E+2
   1.14183E+3  -2.19079E+3
  -1.00356E+3   7.21432E+2
  -2.25509E+2   1.77444E+2
  -9.81583E+2  -3.39308E+2
   7.34163E+2  -6.37291E+2
   5.91955E+2  -4.79806E+2
  -7.30402E+2  -4.01261E+0
   1.15632E+3  -1.64174E+3
   1.01419E+2  -9.69570E+2
   2.52958E+3  -8.39700E+2
   5.63276E+2  -6.11273E+1
  -1.49740E+3   2.87805E+2
   6.55296E+2  -1.54860E+3
   9.07988E+2  -1.65659E+3
  -1.37722E+3   1.56703E+3
  -8.48642E+2   1.27364E+3
   4.11264E+2  -9.44506E+2
   1.68254E+3   5.45557E+2
   1.34215E+3  -3.97738E+2
   7.59060E+1  -1.58672E+3
  -9.28352E+2  -3.86032E+2
   2.92707E+2  -1.17019E+2
  -1.13603E+3  -3.37071E+3
  -2.38215E+1  -2.52369E+2
   1.36934E+3  -2.34460E+3
   1.11004E+3   1.28441E+2
   3.62229E+1   1.18166E+3
  -2.49116E+3   2.01644E+3
   1.14315E+3   2.97913E+2
  -1.23829E+3   1.21636E+3
  -6.01288E+2   5.06193E+2
  -5.19711E+2   8.46306E+2
  -1.12133E+3   6.31860E+2
  -2.05646E+2   2.92219E+2
  -1.93990E+3  -2.23853E+2
   1.24744E+3  -9.46269E+2
   9.85093E+2   3.34515E+2
   1.03517E+3  -1.32472E+2
  -5.71743E+2   1.26023E+3
  -3.68862E+2   8.93943E+2
  -9.25735E+2  -4.29092E+2
  -9.45213E+0   3.87309E+2
  -1.37079E+3   5.45317E+2
  -5.69055E+2  -6.63609E+2
   7.24443E+2  -4.78707E+2
   9.67029E+2  -1.31883E+2
   8.74233E+2  -9.49670E+2
  -1.74046E+2  -4.88159E+2
   6.25397E+2   8.85218E+2
   3.85736E+2   7.73993E+2
   2.10673E+3   3.88313E+2
   1.50940E+3   5.57294E+2
  -3.23869E+2   4.24311E+2
  -1.95023E+3  -1.33269E+2
   4.35017E+2  -5.86449E+2
   4.76278E+2   2.85958E+2
  -1.07692E+3  -1.38161E+3
  -2.38519E+3  -1.19751E+3
   1.63485E+3  -5.21208E+2
   6.18793E+2  -2.07976E+2
   9.50931E+2   5.29946E+2
  -6.48342E+2  -3.41220E+1
   4.50297E+2  -6.32945E+2
  -3.68230E+2  -8.34545E+2
  -2.07957E+3   1.74523E+3
   1.12842E+3   4.47674E+2
  -1.26289E+3  -4.90994E+1
   5.03755E+2   1.80319E+2
   1.02376E+3  -2.71503E+1
  -1.28605E+3   1.32758E+3
  -8.18797E+1  -1.03305E+3
   1.69760E+2   8.29590E+2
  -1.51191E+1   2.45530E+1
  -1.79259E+3   1.21141E+3
  -1.56022E+3  -6.17370E+2
  -8.84656E+2   1.70767E+3
  -8.40058E+2   4.89191E+2
   1.18904E+3   1.03131E+3
  -2.13027E+2   1.36537E+3
   5.77657E+2   2.02382E+3
   2.79642E+2   6.83803E+2
  -1.01112E+3   1.02223E+3
  -8.64347E+1   1.39700E+3
  -1.62407E+3   1.81199E+2
   4.46411E+2   4.28376E+2
  -3.92026E+3   4.56772E+2
   1.53087E+3  -8.96836E+2
  -7.97922E+2   2.25592E+3
  -3.77792E+2  -1.24151E+3
   1.28068E+3   5.13964E+2
   9.07053E+1   6.51800E+2
   8.38505E+2   2.45515E+3
   1.65218E+3  -1.80990E+2
  -9.63625E+2   1.86185E+3
  -5.53608E+2   5.54645E+2
  -2.01907E+2  -8.33291E+2
  -9.99175E+2  -6.72977E+2
  -5.37228E+2   1.54233E+3
   8.81610E+2   1.09274E+3
   1.88869E+2   8.63396E+2
   1.23565E+3  -6.79374E+2
   3.86447E+2   3.81934E+2
  -1.49039E+3   4.20777E+2
   1.23986E+2   3.12384E+2
