 
 $NMID
 ID=''
 FMTDAT='(2E13.5)'
 TRAMP=   1.00000E+0
 VOLUME=   1.00000E+0
 $END
  -1.51269E+4   1.61032E+4
  -4.90226E+4   2.86901E+4
  -4.31208E+4   3.68050E+4
  -3.96909E+4   3.38824E+4
  -4.23875E+4   3.39312E+4
  -4.08787E+4   3.58059E+4
  -3.97183E+4   3.40543E+4
  -4.11320E+4   3.38020E+4
  -4.01459E+4   3.48651E+4
  -3.93283E+4   3.37998E+4
  -4.00086E+4   3.34984E+4
  -3.90418E+4   3.43560E+4
  -3.83397E+4   3.36985E+4
  -3.89140E+4   3.33763E+4
  -3.82577E+4   3.38355E+4
  -3.75711E+4   3.31693E+4
  -3.79296E+4   3.30137E+4
  -3.74391E+4   3.33263E+4
  -3.68241E+4   3.29926E+4
  -3.71374E+4   3.27334E+4
  -3.66041E+4   3.28612E+4
  -3.60365E+4   3.26246E+4
  -3.61672E+4   3.25484E+4
  -3.58251E+4   3.25411E+4
  -3.53234E+4   3.22706E+4
  -3.53012E+4   3.21586E+4
  -3.50809E+4   3.22708E+4
  -3.46780E+4   3.18125E+4
  -3.46444E+4   3.16055E+4
  -3.42723E+4   3.16385E+4
  -3.38005E+4   3.14893E+4
  -3.37988E+4   3.14484E+4
  -3.36163E+4   3.13925E+4
  -3.32560E+4   3.10934E+4
  -3.29919E+4   3.10679E+4
  -3.27661E+4   3.11195E+4
  -3.23320E+4   3.08713E+4
  -3.21232E+4   3.08484E+4
  -3.18183E+4   3.08424E+4
  -3.15080E+4   3.07302E+4
  -3.13059E+4   3.05395E+4
  -3.12313E+4   3.03967E+4
  -3.08860E+4   3.01328E+4
  -3.05981E+4   2.99240E+4
  -3.02830E+4   2.98487E+4
  -3.00647E+4   2.96874E+4
  -2.98789E+4   2.95545E+4
  -2.95860E+4   2.93617E+4
  -2.93937E+4   2.93054E+4
  -2.91042E+4   2.90783E+4
  -2.88687E+4   2.88986E+4
  -2.85533E+4   2.87461E+4
  -2.82170E+4   2.86103E+4
  -2.78554E+4   2.84478E+4
  -2.76249E+4   2.82909E+4
  -2.73786E+4   2.81669E+4
  -2.71490E+4   2.80217E+4
  -2.68824E+4   2.78036E+4
  -2.65615E+4   2.76040E+4
  -2.63471E+4   2.74358E+4
  -2.59519E+4   2.72211E+4
  -2.56831E+4   2.71585E+4
  -2.54744E+4   2.70651E+4
  -2.51853E+4   2.69703E+4
  -2.49513E+4   2.68316E+4
  -2.46372E+4   2.66464E+4
  -2.42519E+4   2.66540E+4
  -2.40219E+4   2.64944E+4
  -2.37186E+4   2.63951E+4
  -2.34941E+4   2.61818E+4
  -2.32933E+4   2.61198E+4
  -2.29397E+4   2.59970E+4
  -2.27519E+4   2.59449E+4
  -2.24197E+4   2.57533E+4
  -2.21023E+4   2.57029E+4
  -2.18114E+4   2.56254E+4
  -2.16141E+4   2.55871E+4
  -2.13598E+4   2.54440E+4
  -2.10584E+4   2.53575E+4
  -2.08113E+4   2.53033E+4
  -2.06558E+4   2.52635E+4
  -2.04059E+4   2.51787E+4
  -2.01563E+4   2.51378E+4
  -1.99616E+4   2.50451E+4
  -1.97742E+4   2.48953E+4
  -1.95962E+4   2.48572E+4
  -1.94071E+4   2.46203E+4
  -1.91811E+4   2.45641E+4
  -1.89506E+4   2.45380E+4
  -1.87492E+4   2.44663E+4
  -1.86362E+4   2.43186E+4
  -1.84190E+4   2.42582E+4
  -1.82230E+4   2.42319E+4
  -1.80447E+4   2.41923E+4
  -1.78552E+4   2.40949E+4
  -1.77380E+4   2.39335E+4
  -1.74839E+4   2.38244E+4
  -1.73650E+4   2.37976E+4
  -1.71535E+4   2.37236E+4
  -1.70748E+4   2.35944E+4
  -1.68622E+4   2.34372E+4
  -1.66668E+4   2.33101E+4
  -1.64832E+4   2.32392E+4
  -1.63174E+4   2.32305E+4
  -1.62343E+4   2.30710E+4
  -1.61270E+4   2.30003E+4
  -1.59605E+4   2.28674E+4
  -1.58037E+4   2.27703E+4
  -1.56991E+4   2.25760E+4
  -1.55188E+4   2.24057E+4
  -1.53451E+4   2.23293E+4
  -1.51669E+4   2.22550E+4
  -1.50203E+4   2.21172E+4
  -1.49295E+4   2.20482E+4
  -1.47821E+4   2.18492E+4
  -1.46522E+4   2.17198E+4
  -1.45332E+4   2.15955E+4
  -1.43597E+4   2.14381E+4
  -1.42710E+4   2.12917E+4
  -1.40748E+4   2.11745E+4
  -1.39917E+4   2.10624E+4
  -1.38118E+4   2.09310E+4
  -1.37218E+4   2.07773E+4
  -1.36252E+4   2.05926E+4
  -1.34060E+4   2.05059E+4
  -1.33343E+4   2.03761E+4
  -1.32565E+4   2.01644E+4
  -1.30480E+4   2.00802E+4
  -1.29642E+4   1.99383E+4
  -1.28596E+4   1.98688E+4
  -1.27573E+4   1.96614E+4
  -1.25969E+4   1.95603E+4
  -1.24381E+4   1.94715E+4
  -1.23225E+4   1.93080E+4
  -1.22181E+4   1.92059E+4
  -1.21586E+4   1.91236E+4
  -1.20356E+4   1.89506E+4
  -1.18756E+4   1.88282E+4
  -1.17454E+4   1.87616E+4
  -1.15758E+4   1.86251E+4
  -1.15193E+4   1.84578E+4
  -1.14157E+4   1.83933E+4
  -1.13414E+4   1.82919E+4
  -1.11713E+4   1.82378E+4
  -1.11282E+4   1.80546E+4
  -1.09274E+4   1.80253E+4
  -1.07754E+4   1.78711E+4
  -1.07794E+4   1.77424E+4
  -1.06325E+4   1.76844E+4
  -1.05745E+4   1.75887E+4
  -1.04307E+4   1.74479E+4
  -1.03844E+4   1.73589E+4
  -1.02477E+4   1.72486E+4
  -1.01436E+4   1.72068E+4
  -1.00007E+4   1.70994E+4
  -9.86412E+3   1.70124E+4
  -9.81685E+3   1.69412E+4
  -9.76178E+3   1.69049E+4
  -9.63923E+3   1.67243E+4
  -9.51299E+3   1.67224E+4
  -9.47996E+3   1.66387E+4
  -9.36549E+3   1.65259E+4
  -9.23579E+3   1.64264E+4
  -9.20326E+3   1.63260E+4
  -9.07043E+3   1.62702E+4
  -8.98403E+3   1.62067E+4
  -8.83968E+3   1.61657E+4
  -8.79263E+3   1.60825E+4
  -8.70285E+3   1.59746E+4
  -8.63615E+3   1.58679E+4
  -8.57578E+3   1.58705E+4
  -8.43460E+3   1.57750E+4
  -8.32129E+3   1.56148E+4
  -8.31335E+3   1.56424E+4
  -8.14951E+3   1.54867E+4
  -8.00826E+3   1.54252E+4
  -7.97185E+3   1.53867E+4
  -7.80515E+3   1.53212E+4
  -7.77321E+3   1.52934E+4
  -7.64593E+3   1.51730E+4
  -7.61419E+3   1.50571E+4
  -7.51477E+3   1.50187E+4
  -7.47703E+3   1.49650E+4
  -7.36334E+3   1.48795E+4
  -7.17870E+3   1.48688E+4
  -7.12628E+3   1.47239E+4
  -7.09322E+3   1.46896E+4
  -7.05575E+3   1.46007E+4
  -6.88300E+3   1.45988E+4
  -6.80946E+3   1.44875E+4
  -6.69722E+3   1.44373E+4
  -6.67801E+3   1.42928E+4
  -6.50750E+3   1.42777E+4
  -6.47408E+3   1.41548E+4
  -6.34565E+3   1.40347E+4
  -6.29273E+3   1.40385E+4
  -6.21094E+3   1.39472E+4
  -6.13928E+3   1.38845E+4
  -6.02916E+3   1.38446E+4
  -5.93349E+3   1.37648E+4
  -5.89623E+3   1.36834E+4
  -5.79768E+3   1.35992E+4
  -5.74281E+3   1.35617E+4
  -5.57966E+3   1.34771E+4
  -5.48993E+3   1.34499E+4
  -5.44341E+3   1.33700E+4
  -5.31251E+3   1.33067E+4
  -5.31801E+3   1.32478E+4
  -5.17953E+3   1.31535E+4
  -5.06968E+3   1.30835E+4
  -4.98765E+3   1.30401E+4
  -4.95903E+3   1.29370E+4
  -4.89499E+3   1.28610E+4
  -4.79336E+3   1.27818E+4
  -4.66351E+3   1.27232E+4
  -4.66425E+3   1.26516E+4
  -4.56980E+3   1.25660E+4
  -4.47763E+3   1.25454E+4
  -4.43711E+3   1.24045E+4
  -4.31276E+3   1.23648E+4
  -4.21587E+3   1.22747E+4
  -4.17462E+3   1.22717E+4
  -4.05328E+3   1.21798E+4
  -3.98944E+3   1.20790E+4
  -3.94180E+3   1.20256E+4
  -3.87627E+3   1.19511E+4
  -3.84052E+3   1.18425E+4
  -3.71862E+3   1.17607E+4
  -3.63729E+3   1.17254E+4
  -3.68460E+3   1.17031E+4
  -3.57931E+3   1.15643E+4
  -3.52718E+3   1.14483E+4
  -3.39064E+3   1.14410E+4
  -3.40356E+3   1.12853E+4
  -3.28830E+3   1.12120E+4
  -3.21945E+3   1.12249E+4
  -3.18267E+3   1.11232E+4
  -3.10508E+3   1.10083E+4
  -3.08619E+3   1.08805E+4
  -2.95211E+3   1.09014E+4
  -2.85464E+3   1.07522E+4
  -2.89126E+3   1.07502E+4
  -2.84192E+3   1.06230E+4
  -2.79733E+3   1.05844E+4
  -2.71753E+3   1.04868E+4
  -2.60696E+3   1.04404E+4
  -2.53492E+3   1.03918E+4
  -2.49919E+3   1.03517E+4
  -2.42753E+3   1.01752E+4
  -2.36628E+3   1.02132E+4
  -2.30084E+3   1.00359E+4
  -2.30887E+3   9.94631E+3
  -2.21899E+3   9.90250E+3
  -2.14674E+3   9.81118E+3
  -2.15077E+3   9.69518E+3
  -2.10777E+3   9.61315E+3
  -2.00160E+3   9.57313E+3
  -1.95276E+3   9.52219E+3
  -1.93106E+3   9.45654E+3
  -1.85673E+3   9.38112E+3
  -1.85087E+3   9.34280E+3
  -1.80811E+3   9.29466E+3
  -1.72909E+3   9.20204E+3
  -1.67708E+3   9.09682E+3
  -1.69388E+3   9.05323E+3
  -1.61452E+3   9.03084E+3
  -1.52130E+3   8.94630E+3
  -1.56355E+3   8.81035E+3
  -1.48889E+3   8.80987E+3
  -1.46974E+3   8.70907E+3
  -1.39753E+3   8.56964E+3
  -1.34439E+3   8.58070E+3
  -1.38478E+3   8.51536E+3
  -1.27166E+3   8.46107E+3
  -1.29948E+3   8.39529E+3
  -1.23238E+3   8.31637E+3
  -1.21919E+3   8.28620E+3
  -1.22080E+3   8.15224E+3
  -1.12011E+3   8.15339E+3
  -1.20999E+3   8.05286E+3
  -1.04887E+3   8.00789E+3
  -1.01686E+3   7.91410E+3
  -1.01637E+3   7.85335E+3
  -9.97323E+2   7.83006E+3
  -9.61009E+2   7.80926E+3
  -9.37857E+2   7.70860E+3
  -9.27525E+2   7.71466E+3
  -9.11700E+2   7.56741E+3
  -9.29911E+2   7.48393E+3
  -8.80211E+2   7.47327E+3
  -8.65111E+2   7.44978E+3
  -7.67475E+2   7.40609E+3
  -7.64121E+2   7.24362E+3
  -7.82096E+2   7.28108E+3
  -7.09102E+2   7.21871E+3
  -7.34823E+2   7.14588E+3
  -7.07421E+2   7.05953E+3
  -6.63939E+2   7.04413E+3
  -6.24475E+2   6.98518E+3
  -5.74482E+2   6.95475E+3
  -5.78417E+2   6.86549E+3
  -5.41981E+2   6.86231E+3
  -5.72293E+2   6.84904E+3
  -5.40129E+2   6.73411E+3
  -5.50747E+2   6.71107E+3
  -5.71208E+2   6.60564E+3
  -5.25314E+2   6.59508E+3
  -4.45998E+2   6.53250E+3
  -5.30038E+2   6.52630E+3
  -5.49286E+2   6.50821E+3
  -4.38461E+2   6.40676E+3
  -3.99632E+2   6.37391E+3
  -3.66833E+2   6.29104E+3
  -3.68437E+2   6.23368E+3
  -3.72451E+2   6.22168E+3
  -3.94256E+2   6.15029E+3
  -3.36055E+2   6.10333E+3
  -2.90964E+2   6.05553E+3
  -3.92317E+2   6.02507E+3
  -3.10937E+2   5.95290E+3
  -3.19937E+2   5.93560E+3
  -2.46558E+2   5.89988E+3
  -2.16451E+2   5.82616E+3
  -3.14179E+2   5.80258E+3
  -2.52276E+2   5.79731E+3
  -2.06778E+2   5.70759E+3
  -1.96972E+2   5.67311E+3
  -1.88152E+2   5.68280E+3
  -2.25616E+2   5.63887E+3
  -1.51500E+2   5.57614E+3
  -1.70874E+2   5.54978E+3
  -1.70370E+2   5.47304E+3
  -1.29394E+2   5.42814E+3
  -7.45884E+1   5.38864E+3
  -1.11740E+2   5.38947E+3
  -1.61457E+2   5.33516E+3
  -1.12473E+2   5.28918E+3
  -1.51937E+2   5.30418E+3
  -1.06035E+2   5.18658E+3
  -6.46843E+1   5.16221E+3
  -5.54481E+1   5.19988E+3
  -8.91996E+1   5.14722E+3
   4.87865E+1   5.07843E+3
  -3.66991E+1   5.08735E+3
  -1.41081E+1   5.02299E+3
  -1.55299E+1   5.03846E+3
  -6.32131E+0   4.98781E+3
   3.50050E+1   4.89557E+3
   8.42960E+1   4.86765E+3
   8.72043E+1   4.88457E+3
   6.20215E+1   4.82042E+3
   6.12617E+1   4.85789E+3
   1.27221E+2   4.80047E+3
   1.42694E+2   4.74109E+3
   1.31939E+2   4.69491E+3
   1.30541E+2   4.65917E+3
   1.11830E+2   4.64464E+3
   1.81316E+2   4.64076E+3
   1.59045E+2   4.66609E+3
   1.72812E+2   4.61176E+3
   1.77024E+2   4.56201E+3
   1.73115E+2   4.53679E+3
   2.54270E+2   4.48021E+3
   1.79363E+2   4.44249E+3
   2.11631E+2   4.49698E+3
   1.60882E+2   4.45331E+3
   1.96628E+2   4.42472E+3
