 LCModel (Version 6.3-1N) Copyright: S.W. Provencher.          Ref.: Magn. Reson. Med. 30:672-679 (1993).                
 Slice_N1@24_14  02-Jun-2023 14:37:44
 27 lines in following concentration table = NCONC+1
    Conc.  %SD /Cr+PCr  Metabolite                                         
 2.24E-06  14% 3.9E-04 Mac                                                 
 4.64E-02  13%   8.000 Cr                                                  
    0.000 999%   0.000 PCr                                                 
 8.96E-02  11%  15.464 Ins                                                 
 7.24E-02  10%  12.502 NAA                                                 
 5.18E-02  16%   8.942 Tau                                                 
 1.05E-02  20%   1.817 PCho                                                
    0.000 999%   0.000 GPC                                                 
 7.01E-02  13%  12.102 Glu                                                 
 2.17E-02  31%   3.738 Gln                                                 
    0.000 999%   0.000 Ala                                                 
 7.24E-03 172%   1.249 Asc                                                 
 3.83E-03 153%   0.662 Asp                                                 
 6.42E-03  52%   1.108 GABA                                                
 5.49E-03  69%   0.947 Glc                                                 
 4.71E-03  81%   0.813 GSH                                                 
    0.000 999%   0.000 Lac                                                 
 3.07E-03 180%   0.530 NAAG                                                
    0.000 999%   0.000 PE                                                  
 1.05E-02  20%   1.817 GPC+PCho                                            
 7.55E-02  10%  13.032 NAA+NAAG                                            
 9.18E-02  13%  15.840 Glu+Gln                                             
 4.64E-02  13%   8.000 Cr+PCr                                              
 7.55E-02  10%  13.032 NAA+NAAG                                            
 4.64E-02  13%   8.000 Cr+PCr                                              
 9.18E-02  13%  15.840 Glu+Gln                                             
   6 lines in following misc. output table
  FWHM = 0.058 ppm    S/N =   3                                            
  Data shift = 0.029 ppm                                                   
  Ph:  -6 deg      -5.3 deg/ppm                                            
  alphaB,S = 3.1E+01,   8.7E+00                                            
   18 spline knots.   Ns = 8(1)                                            
   2 inflections.     2 extrema                                            
  654 points on ppm-axis = NY
      4.000000     3.994181     3.988363     3.982544     3.976726     3.970907     3.965088     3.959270     3.953451     3.947633
      3.941814     3.935995     3.930177     3.924358     3.918540     3.912721     3.906902     3.901084     3.895265     3.889446
      3.883628     3.877809     3.871991     3.866172     3.860353     3.854535     3.848716     3.842898     3.837079     3.831260
      3.825442     3.819623     3.813805     3.807986     3.802167     3.796349     3.790530     3.784712     3.778893     3.773074
      3.767256     3.761437     3.755619     3.749800     3.743981     3.738163     3.732344     3.726526     3.720707     3.714888
      3.709070     3.703251     3.697433     3.691614     3.685795     3.679977     3.674158     3.668339     3.662521     3.656702
      3.650884     3.645065     3.639246     3.633428     3.627609     3.621791     3.615972     3.610153     3.604335     3.598516
      3.592698     3.586879     3.581060     3.575242     3.569423     3.563605     3.557786     3.551967     3.546149     3.540330
      3.534512     3.528693     3.522874     3.517056     3.511237     3.505419     3.499600     3.493781     3.487963     3.482144
      3.476326     3.470507     3.464688     3.458870     3.453051     3.447232     3.441414     3.435595     3.429777     3.423958
      3.418139     3.412321     3.406502     3.400684     3.394865     3.389046     3.383228     3.377409     3.371591     3.365772
      3.359953     3.354135     3.348316     3.342498     3.336679     3.330860     3.325042     3.319223     3.313405     3.307586
      3.301767     3.295949     3.290130     3.284312     3.278493     3.272674     3.266856     3.261037     3.255219     3.249400
      3.243581     3.237763     3.231944     3.226125     3.220307     3.214488     3.208670     3.202851     3.197032     3.191214
      3.185395     3.179577     3.173758     3.167939     3.162121     3.156302     3.150484     3.144665     3.138846     3.133028
      3.127209     3.121391     3.115572     3.109753     3.103935     3.098116     3.092298     3.086479     3.080660     3.074842
      3.069023     3.063205     3.057386     3.051567     3.045749     3.039930     3.034111     3.028293     3.022474     3.016656
      3.010837     3.005018     2.999200     2.993381     2.987563     2.981744     2.975925     2.970107     2.964288     2.958470
      2.952651     2.946832     2.941014     2.935195     2.929377     2.923558     2.917739     2.911921     2.906102     2.900284
      2.894465     2.888646     2.882828     2.877009     2.871191     2.865372     2.859553     2.853735     2.847916     2.842098
      2.836279     2.830460     2.824642     2.818823     2.813004     2.807186     2.801367     2.795549     2.789730     2.783911
      2.778093     2.772274     2.766456     2.760637     2.754818     2.749000     2.743181     2.737363     2.731544     2.725725
      2.719907     2.714088     2.708270     2.702451     2.696632     2.690814     2.684995     2.679177     2.673358     2.667539
      2.661721     2.655902     2.650084     2.644265     2.638446     2.632628     2.626809     2.620991     2.615172     2.609353
      2.603535     2.597716     2.591897     2.586079     2.580260     2.574442     2.568623     2.562804     2.556986     2.551167
      2.545349     2.539530     2.533711     2.527893     2.522074     2.516256     2.510437     2.504618     2.498800     2.492981
      2.487163     2.481344     2.475525     2.469707     2.463888     2.458070     2.452251     2.446432     2.440614     2.434795
      2.428977     2.423158     2.417339     2.411521     2.405702     2.399884     2.394065     2.388246     2.382428     2.376609
      2.370790     2.364972     2.359153     2.353335     2.347516     2.341697     2.335879     2.330060     2.324242     2.318423
      2.312604     2.306786     2.300967     2.295149     2.289330     2.283511     2.277693     2.271874     2.266056     2.260237
      2.254418     2.248600     2.242781     2.236963     2.231144     2.225325     2.219507     2.213688     2.207870     2.202051
      2.196232     2.190414     2.184595     2.178777     2.172958     2.167139     2.161321     2.155502     2.149683     2.143865
      2.138046     2.132228     2.126409     2.120590     2.114772     2.108953     2.103135     2.097316     2.091497     2.085679
      2.079860     2.074042     2.068223     2.062404     2.056586     2.050767     2.044949     2.039130     2.033311     2.027493
      2.021674     2.015856     2.010037     2.004218     1.998400     1.992581     1.986763     1.980944     1.975126     1.969307
      1.963489     1.957670     1.951852     1.946033     1.940215     1.934397     1.928578     1.922760     1.916941     1.911123
      1.905304     1.899486     1.893667     1.887849     1.882030     1.876212     1.870393     1.864575     1.858756     1.852938
      1.847119     1.841301     1.835482     1.829664     1.823845     1.818027     1.812208     1.806390     1.800571     1.794753
      1.788934     1.783116     1.777297     1.771479     1.765660     1.759842     1.754023     1.748205     1.742386     1.736568
      1.730749     1.724931     1.719113     1.713294     1.707476     1.701657     1.695839     1.690020     1.684202     1.678383
      1.672565     1.666746     1.660928     1.655109     1.649291     1.643472     1.637654     1.631835     1.626017     1.620198
      1.614380     1.608561     1.602743     1.596924     1.591106     1.585287     1.579469     1.573650     1.567832     1.562013
      1.556195     1.550376     1.544558     1.538739     1.532921     1.527102     1.521284     1.515465     1.509647     1.503829
      1.498010     1.492192     1.486373     1.480555     1.474736     1.468918     1.463099     1.457281     1.451462     1.445644
      1.439825     1.434007     1.428188     1.422370     1.416551     1.410733     1.404914     1.399096     1.393277     1.387459
      1.381640     1.375822     1.370003     1.364185     1.358366     1.352548     1.346729     1.340911     1.335092     1.329274
      1.323455     1.317637     1.311818     1.306000     1.300182     1.294363     1.288545     1.282726     1.276908     1.271089
      1.265271     1.259452     1.253634     1.247815     1.241997     1.236178     1.230360     1.224541     1.218723     1.212904
      1.207086     1.201267     1.195449     1.189630     1.183812     1.177993     1.172175     1.166356     1.160538     1.154719
      1.148901     1.143082     1.137264     1.131445     1.125627     1.119808     1.113990     1.108171     1.102353     1.096534
      1.090716     1.084898     1.079079     1.073261     1.067442     1.061624     1.055805     1.049987     1.044168     1.038350
      1.032531     1.026713     1.020894     1.015076     1.009257     1.003439     0.997620     0.991802     0.985983     0.980165
      0.974346     0.968528     0.962709     0.956891     0.951072     0.945254     0.939435     0.933617     0.927798     0.921980
      0.916161     0.910343     0.904524     0.898706     0.892887     0.887069     0.881251     0.875432     0.869614     0.863795
      0.857977     0.852158     0.846340     0.840521     0.834703     0.828884     0.823066     0.817247     0.811429     0.805610
      0.799792     0.793973     0.788155     0.782336     0.776518     0.770699     0.764881     0.759062     0.753244     0.747425
      0.741607     0.735788     0.729970     0.724151     0.718333     0.712514     0.706696     0.700877     0.695059     0.689240
      0.683422     0.677603     0.671785     0.665967     0.660148     0.654330     0.648511     0.642693     0.636874     0.631056
      0.625237     0.619419     0.613600     0.607782     0.601963     0.596145     0.590326     0.584508     0.578689     0.572871
      0.567052     0.561234     0.555415     0.549597     0.543778     0.537960     0.532141     0.526323     0.520504     0.514686
      0.508867     0.503049     0.497230     0.491412     0.485593     0.479775     0.473956     0.468138     0.462319     0.456501
      0.450682     0.444864     0.439045     0.433227     0.427408     0.421590     0.415771     0.409953     0.404134     0.398316
      0.392497     0.386679     0.380860     0.375042     0.369223     0.363405     0.357586     0.351767     0.345949     0.340130
      0.334312     0.328493     0.322675     0.316856     0.311038     0.305219     0.299401     0.293582     0.287764     0.281945
      0.276127     0.270308     0.264490     0.258671     0.252853     0.247034     0.241216     0.235397     0.229579     0.223760
      0.217942     0.212123     0.206305     0.200486
 NY phased data points follow
  -1.60766E-01  1.56242E-02 -3.18927E-02  5.45091E-03 -1.32139E-02  2.02051E-01 -1.52531E-01 -2.81491E-01 -7.99952E-03 -6.59010E-02
  -3.80409E-02 -1.82761E-02  2.61434E-01  2.07226E-01  2.49028E-01  1.59208E-01  3.75180E-01  2.93624E-01  1.99643E-01  2.08925E-01
   3.73153E-02  9.30866E-02  4.21590E-03 -2.22853E-01 -1.38898E-01 -2.88907E-01 -5.39422E-01  3.66853E-02 -3.19591E-01 -2.42400E-01
  -4.58713E-03 -1.46398E-01  1.65757E-01  3.53837E-02 -4.72808E-02  2.14258E-01 -5.86139E-02 -3.15485E-01 -1.13862E-01 -2.13879E-01
   2.17054E-01  6.08690E-02 -5.92164E-02  3.37113E-01  4.95359E-01  5.03629E-01  2.97112E-01  9.60145E-02  2.52145E-01  2.66820E-01
   7.04876E-02  2.54155E-01 -6.65821E-02  1.36094E-01 -2.87413E-02 -5.77108E-02  1.00063E-01 -4.06218E-01 -3.17812E-01 -1.87500E-01
  -4.29146E-01 -5.14634E-01  3.38240E-02 -1.52570E-01 -4.52362E-01 -2.33475E-01 -6.42078E-02 -2.24323E-01 -3.34480E-01 -9.11115E-02
  -7.66995E-03  1.03603E-01  3.84097E-01  5.26349E-01  1.70528E-01  2.41358E-02 -4.77304E-02 -1.17758E-01 -2.16039E-01 -1.95419E-01
  -2.29299E-01 -4.13420E-01 -3.38421E-01 -2.51773E-01  5.09384E-02  1.57571E-01  2.67750E-01  5.25091E-01  3.84109E-01  2.84432E-01
   4.50696E-01  3.88600E-01  1.83206E-01  1.49653E-02 -1.19683E-01 -2.42896E-02  2.14730E-01  1.41807E-01  1.60867E-01  1.55333E-01
  -1.44586E-02 -1.03225E-02 -2.02938E-01 -2.37193E-02  1.12038E-02 -1.91659E-01  1.13631E-01  1.97912E-01  2.84868E-01  7.35551E-01
   6.37999E-01  4.82398E-01  1.92266E-01  2.16335E-01  6.45220E-01  4.19592E-01  4.70633E-01  1.75449E-01  2.21242E-01  3.13442E-01
   2.56195E-01  3.63195E-01 -7.61367E-02  8.32219E-02  1.54173E-01 -3.05416E-02 -8.97416E-02 -1.17587E-01 -2.49329E-01 -1.75985E-01
  -2.81342E-01 -4.69074E-01 -4.66847E-01 -7.25004E-01 -6.48355E-01 -3.90272E-01 -3.07916E-01 -3.98829E-01 -5.11380E-01 -4.83955E-01
  -2.22985E-01 -2.60938E-01 -1.21319E-01 -2.84186E-01 -7.20683E-02  1.23013E-02 -3.04339E-01  2.39205E-01  3.99246E-02  1.12074E-01
   7.79085E-02  1.47938E-01  2.06248E-01  1.62646E-01  3.00225E-01 -6.02199E-02  8.33765E-02  3.75674E-01  2.66433E-01  5.83096E-02
   3.14260E-01  2.98624E-01  5.71588E-01  3.94113E-01  6.15652E-01  5.19399E-01  1.58288E-01  1.84342E-01 -3.74676E-01  1.87519E-01
  -3.58174E-01 -3.64995E-01 -2.92855E-01 -4.98614E-01 -3.68815E-01 -6.85939E-01 -3.59560E-01 -2.99365E-01 -1.50157E-01 -6.49883E-01
  -5.69396E-01 -3.41936E-01 -4.22805E-01 -2.32555E-01 -1.84691E-01 -1.75884E-01 -1.15273E-01  2.00667E-02 -1.03936E-01 -2.29390E-01
  -1.71102E-01  2.65304E-02 -1.07998E-01  8.59208E-02 -1.25417E-01 -2.14365E-01 -7.66407E-02 -5.81965E-02 -8.12625E-02  3.49671E-02
   1.25790E-01 -1.86692E-01  1.61669E-01 -8.27934E-02 -2.75695E-02  1.03972E-02 -1.83587E-01  9.13144E-03 -1.00426E-01 -1.27356E-01
   8.07420E-03 -4.37832E-02 -2.60101E-01 -4.27641E-02 -9.33490E-04  7.52935E-02  6.13089E-02 -8.04528E-02 -1.24341E-01  2.29910E-02
  -1.38345E-01  2.17181E-02  3.40919E-01  6.77208E-02  1.72239E-01  2.61560E-01  1.90148E-01 -2.32923E-01  2.21915E-01  4.35620E-01
   2.58843E-01  4.12112E-01  2.46620E-02  1.17878E-01  1.45831E-01  1.74741E-01  4.70587E-02  1.38194E-01  1.69034E-01  1.60730E-02
  -1.22336E-02 -5.42065E-02  1.28724E-02 -5.59195E-01 -2.48230E-02 -7.25742E-02 -2.64636E-01  1.26327E-01 -5.13184E-01 -2.33338E-02
  -1.64206E-01 -4.28857E-02  5.34321E-02 -2.89180E-01  5.39108E-02 -3.70999E-01 -1.72458E-02 -7.69277E-02 -2.36708E-02 -3.37318E-02
  -2.87562E-01 -1.91362E-02  2.65004E-02  4.37022E-01  6.72979E-02  5.29311E-02  1.23811E-01  1.91637E-01  4.64943E-01 -8.66875E-03
   1.15934E-01  2.11174E-01  1.42887E-01  1.28500E-01  1.45007E-01  2.18459E-01 -1.13062E-01 -1.39497E-01 -1.27271E-01  5.63929E-02
   2.81550E-02 -4.85060E-01 -4.51998E-01 -2.37752E-01 -6.42112E-02  8.25604E-02 -1.57935E-01 -1.25193E-01  2.82318E-01  2.93451E-01
   4.64841E-01  3.07064E-01  3.68721E-01  3.85030E-01  1.59700E-01  3.16394E-02 -2.18969E-01  2.98473E-01  1.52455E-01  2.76449E-01
   7.69283E-02 -1.74273E-01  9.87687E-02  1.61508E-01  4.48135E-01  2.22877E-01  2.38830E-01  1.23551E-01  3.78318E-01  4.01337E-01
   3.25184E-01  5.51039E-01  5.98800E-01  4.27891E-01  2.35130E-01  9.77268E-02 -1.10388E-01  1.04437E-01  6.56388E-02 -5.97670E-02
  -2.24441E-01  1.21152E-02 -6.79889E-02 -1.36009E-01 -3.44716E-01 -2.24543E-01 -1.80411E-01 -2.16957E-01  1.76832E-01 -1.50880E-01
   3.46123E-01 -1.05430E-01 -2.15773E-01 -2.24847E-02 -1.24808E-01 -8.10189E-02 -1.95635E-01 -2.42420E-01 -7.59214E-01 -5.89447E-01
  -8.49194E-01 -6.44807E-01 -8.14896E-01 -1.01667E+00 -6.53263E-01 -6.50231E-01 -7.52835E-01 -5.54504E-01 -2.77490E-01 -1.12379E-01
   3.30847E-01 -1.10819E-01  1.32565E-01  7.92880E-02  2.35132E-01  3.35718E-01 -6.41735E-02  3.50416E-01  1.86896E-02  8.20253E-02
   2.22935E-01  1.58052E-01  2.64082E-01  1.87810E-01  3.55458E-01  3.08387E-01 -2.44787E-01 -2.24596E-01  1.52685E-01  1.69406E-03
  -2.69018E-02  2.56865E-01 -6.17931E-02 -1.40794E-01  1.12868E-01 -9.06156E-02  2.09831E-01  2.42485E-01  1.77212E-01  2.09833E-02
   6.30948E-03  2.69802E-01 -1.88255E-02 -3.09637E-02  8.00020E-02  1.32348E-01  1.19310E-01 -7.58278E-02  2.08700E-01  4.79802E-01
   3.26221E-01  2.68235E-01  4.25671E-02  1.66087E-01  8.56295E-02  1.93307E-01  4.60860E-01  1.79333E-01  1.95299E-01  4.59982E-02
   3.08179E-01  3.31826E-01  1.25254E-01  3.46399E-02 -2.03969E-01  1.06560E-01 -3.23739E-02 -1.09072E-01 -6.98916E-03 -2.12974E-01
   1.61332E-02 -2.55067E-01 -3.89266E-01 -6.59223E-02 -2.49701E-01 -3.27464E-01 -4.46434E-02 -1.01868E-01 -4.01888E-01 -5.26456E-02
  -1.68927E-01 -9.16466E-02 -6.82014E-02 -2.58940E-01 -1.85826E-02 -1.20617E-01  7.68708E-02 -2.60484E-03  5.82478E-02 -1.01435E-01
  -1.29214E-01 -1.64742E-01 -3.26103E-01 -9.05182E-03 -1.77995E-01 -8.54633E-02  1.51428E-02  1.26332E-02 -1.19261E-01 -1.91220E-02
   2.25161E-01 -2.19486E-02  1.09471E-02  1.36774E-01  9.28974E-02  2.65040E-01 -1.79330E-02  3.64385E-02  4.12776E-01  1.17584E-01
   2.52247E-01  1.69383E-01  2.06699E-01  2.28915E-01 -7.05517E-02 -9.17965E-02  3.83780E-03  2.65871E-01  2.27140E-01  4.16547E-02
   1.47611E-01  3.57262E-01  6.46644E-02  6.86304E-02 -1.08858E-01 -1.43557E-01  1.11527E-01 -1.07376E-01 -4.62714E-02 -3.30059E-01
  -2.50436E-01 -1.45733E-01 -4.75793E-01 -3.53255E-01 -2.87435E-01 -2.93219E-01 -1.53563E-01 -1.99915E-01 -1.93974E-01  5.09572E-02
  -3.35957E-02 -6.44569E-02 -1.47911E-02 -1.09651E-01 -7.60994E-02  2.78681E-02  1.29885E-01  1.76626E-01 -5.79765E-02 -2.78180E-01
   1.03355E-01  1.18634E-01 -9.53481E-02  1.56802E-01  2.25731E-01  1.19351E-01  3.01810E-01  1.38922E-01 -1.85800E-02  3.00458E-01
  -7.10455E-03  2.15138E-01  2.53454E-01 -2.19292E-02  7.89483E-02 -9.56949E-02  2.56544E-01  1.64817E-01  9.43503E-02  1.77932E-01
   3.33477E-02  2.17516E-02  2.52207E-01  3.04036E-01 -2.10424E-02  1.92479E-01  1.28618E-01 -1.23987E-01  1.35812E-01  1.82363E-02
  -2.91182E-01  1.20136E-01 -8.15791E-02 -2.01801E-01 -2.34432E-01 -2.58699E-01 -8.78189E-02 -6.77366E-01 -2.46780E-01 -2.13916E-01
  -5.83743E-01 -2.27903E-01  1.67737E-02 -2.54888E-01 -2.19041E-01 -6.04517E-02 -4.69521E-01 -1.71764E-01 -2.64254E-01 -1.45675E-01
   2.49597E-02 -3.07966E-01 -2.06228E-01 -2.28596E-02 -5.42664E-02 -1.05856E-01  8.64513E-02  8.26447E-02  1.41575E-01  7.77269E-02
   1.20033E-01  1.57577E-01  6.22188E-02  9.60334E-02  1.75711E-01 -5.68321E-02 -2.42251E-01  1.84298E-01  9.57004E-02  6.34376E-02
   4.00186E-01  3.05192E-01  1.28537E-01  1.18687E-01 -2.56008E-02  8.06910E-02 -8.80497E-02 -2.32244E-01  2.86306E-01  1.55890E-01
  -1.39170E-01 -6.85394E-02 -4.69612E-02 -1.91709E-01 -4.98364E-02  1.32598E-01  3.10685E-01  2.38617E-02 -4.40916E-02  2.28241E-01
  -3.63868E-02  3.49256E-01 -1.27030E-01 -9.56519E-02  2.20253E-01 -1.79201E-01  2.35641E-01  2.26094E-01  2.79366E-02 -7.36876E-02
   6.91349E-02  1.81393E-02 -1.74153E-01 -9.16684E-02  7.28788E-02 -4.38706E-02 -9.22021E-02 -1.62686E-02 -3.42363E-02  1.30151E-01
   8.67683E-02  2.15541E-01  1.45744E-01  2.72434E-01  2.17640E-01 -1.00269E-01 -6.32733E-02 -6.34932E-02  1.82345E-01  4.21668E-01
   8.64629E-02  1.75757E-02  1.46166E-01 -1.79055E-02  1.38538E-01  3.40171E-02  3.18461E-01  1.27699E-01 -2.35283E-01 -2.83457E-02
  -7.17446E-02  8.07460E-02  2.59907E-01  6.18484E-02 -4.35624E-01 -1.46860E-02 -1.30212E-01 -1.56245E-01  5.26125E-01  2.74660E-01
   7.00335E-02  9.86021E-02  1.89348E-02 -1.64440E-01 -1.15987E-01  2.49866E-02  1.69721E-02 -9.53024E-02  9.59039E-02  1.95527E-01
  -1.45502E-01  2.13393E-02  1.65326E-02 -1.18482E-01 -6.34840E-02  2.66299E-02  2.11316E-01 -2.99674E-01 -2.59764E-01 -8.95503E-02
  -5.61901E-02  5.29359E-02 -2.21458E-01 -4.11487E-02
 NY points of the fit to the data follow
   4.02833E-02  6.21658E-02  6.47172E-02  6.39853E-02  6.18211E-02  5.70638E-02  5.26541E-02  4.47862E-02  2.33879E-02  3.07107E-02
   8.83016E-02  1.49944E-01  1.94832E-01  2.50038E-01  2.74482E-01  2.94816E-01  3.11645E-01  3.31914E-01  3.17768E-01  2.74904E-01
   2.36560E-01  1.60435E-01  6.36068E-02 -3.56166E-02 -4.91740E-02 -3.84089E-02 -4.77810E-02 -5.85391E-02 -6.95999E-02 -8.14388E-02
  -9.31379E-02 -1.06526E-01 -1.20848E-01 -1.41466E-01 -1.55732E-01 -1.66625E-01 -1.71214E-01 -1.67679E-01 -1.41969E-01 -1.13819E-01
  -5.55667E-02 -5.30960E-03  6.41187E-02  1.12250E-01  1.64974E-01  2.04739E-01  2.19176E-01  2.28256E-01  1.97981E-01  1.79838E-01
   1.24476E-01  8.17679E-02  2.76554E-02 -1.48476E-02 -5.24151E-02 -8.57689E-02 -1.21209E-01 -1.76806E-01 -2.18153E-01 -2.42061E-01
  -3.13475E-01 -3.63774E-01 -3.40747E-01 -3.49227E-01 -3.31423E-01 -2.33256E-01 -1.60361E-01 -7.22833E-02  1.38591E-02  1.33375E-01
   1.99798E-01  2.37935E-01  2.94372E-01  3.08437E-01  2.53184E-01  7.44778E-02 -9.05641E-03 -9.95592E-02 -2.41703E-01 -2.87003E-01
  -2.71626E-01 -2.59789E-01 -2.13700E-01 -1.30311E-01 -2.21161E-02  7.68974E-02  1.95031E-01  3.40761E-01  4.20331E-01  4.31017E-01
   3.95640E-01  3.92480E-01  3.35342E-01  2.46827E-01  1.84258E-01  1.16970E-01  4.76409E-02 -9.89574E-03 -5.92356E-02 -6.92441E-02
  -8.89730E-02 -6.84280E-02 -5.46177E-02 -4.95001E-03  5.32182E-02  1.23362E-01  2.11744E-01  2.62885E-01  3.17429E-01  3.07007E-01
   3.07959E-01  2.80826E-01  2.71653E-01  2.69244E-01  2.68050E-01  2.68018E-01  2.73580E-01  2.66979E-01  2.50760E-01  2.47757E-01
   2.18340E-01  1.62581E-01  1.39904E-01  9.30096E-02  1.47765E-02 -5.31948E-02 -1.44566E-01 -2.32313E-01 -2.98101E-01 -3.00462E-01
  -3.24806E-01 -4.40482E-01 -4.82337E-01 -5.20168E-01 -5.44635E-01 -5.36707E-01 -5.20883E-01 -4.43338E-01 -4.61345E-01 -3.75886E-01
  -3.40587E-01 -3.01129E-01 -1.98683E-01 -7.46128E-02  6.93611E-02  4.19920E-02  5.16363E-02  6.77749E-02  8.38330E-02  9.88215E-02
   1.12959E-01  1.26625E-01  1.39942E-01  1.53316E-01  1.66245E-01  1.79943E-01  1.94644E-01  2.10944E-01  2.28672E-01  2.47520E-01
   2.81111E-01  4.02727E-01  4.85505E-01  4.56179E-01  4.01201E-01  3.53313E-01  2.13887E-01  1.55776E-01  4.16437E-02 -5.45687E-02
  -2.38155E-01 -3.43591E-01 -4.19055E-01 -5.32349E-01 -5.28002E-01 -4.57680E-01 -2.42645E-01 -2.43388E-01 -2.38630E-01 -2.30687E-01
  -2.15011E-01 -2.04347E-01 -1.90052E-01 -1.79636E-01 -1.71626E-01 -1.63590E-01 -1.53360E-01 -1.44513E-01 -1.37737E-01 -1.30810E-01
  -1.23714E-01 -1.15890E-01 -1.09024E-01 -1.00531E-01 -9.39782E-02 -8.71628E-02 -8.03241E-02 -7.20607E-02 -6.50971E-02 -5.92469E-02
  -5.43096E-02 -5.00030E-02 -4.49061E-02 -4.04210E-02 -3.72381E-02 -3.55927E-02 -3.50390E-02 -3.44606E-02 -3.46081E-02 -3.44935E-02
  -3.46278E-02 -3.34661E-02 -3.12225E-02 -2.98897E-02 -2.99866E-02 -2.97929E-02 -2.75140E-02 -2.59175E-02 -3.05946E-02 -2.56505E-02
   6.06374E-05  2.74599E-02  4.30067E-02  6.30216E-02  8.90070E-02  1.26104E-01  1.65955E-01  2.02209E-01  2.20466E-01  2.18500E-01
   2.10938E-01  1.94394E-01  1.57717E-01  1.12318E-01  8.74985E-02  7.15622E-02  3.16781E-02 -2.05506E-02 -5.30213E-02 -6.24086E-02
  -5.83586E-02 -6.33670E-02 -6.85441E-02 -7.42008E-02 -7.98711E-02 -8.42352E-02 -8.83582E-02 -9.22801E-02 -9.78303E-02 -1.07285E-01
  -1.24684E-01 -1.31464E-01 -1.30329E-01 -1.35687E-01 -1.35957E-01 -1.17090E-01 -1.01275E-01 -8.41825E-02 -6.29774E-02 -2.29448E-02
   1.62282E-03  3.07839E-02  7.14175E-02  8.18324E-02  9.60640E-02  9.15077E-02  1.22182E-01  1.16389E-01  1.02257E-01  1.06128E-01
   1.00737E-01  9.50595E-02  5.61467E-02  4.45699E-02  1.66609E-02 -1.64357E-02 -5.88551E-02 -1.14366E-01 -1.67461E-01 -2.30552E-01
  -2.64478E-01 -2.80184E-01 -2.70774E-01 -2.25627E-01 -1.69988E-01 -1.00359E-01 -1.98274E-02  6.62012E-02  1.58478E-01  2.34481E-01
   3.02093E-01  3.30249E-01  3.26731E-01  2.92817E-01  2.49150E-01  2.20660E-01  1.92660E-01  1.92700E-01  1.96200E-01  1.97407E-01
   2.02057E-01  2.01949E-01  2.02016E-01  1.98384E-01  1.91760E-01  1.86522E-01  1.77364E-01  1.68820E-01  1.59257E-01  1.48019E-01
   1.36315E-01  1.22933E-01  1.02642E-01  7.84924E-02  4.45374E-02  7.49116E-03 -3.76962E-02 -8.13107E-02 -1.29819E-01 -1.69933E-01
  -2.10215E-01 -2.33113E-01 -2.48228E-01 -2.41264E-01 -2.18868E-01 -1.80264E-01 -1.33590E-01 -9.25442E-02 -5.31398E-02 -3.12297E-02
  -9.54029E-03 -2.17097E-02 -2.77355E-02 -5.81527E-02 -5.46715E-02 -1.60816E-02 -7.99915E-02 -2.85925E-01 -4.51004E-01 -5.58348E-01
  -7.25125E-01 -7.28910E-01 -8.06670E-01 -8.18717E-01 -8.93623E-01 -8.20876E-01 -7.20969E-01 -6.45612E-01 -4.13029E-01 -1.68757E-01
   1.02431E-01  2.82700E-02 -4.10576E-03 -8.48582E-04  7.04281E-03  1.42047E-02  1.92272E-02  2.22952E-02  2.25108E-02  2.00841E-02
   1.69528E-02  1.11219E-02  7.93435E-03  1.33525E-03 -9.34789E-04 -4.84655E-03 -4.57676E-03 -2.42027E-03  1.89689E-03  1.01307E-02
   1.65168E-02  2.76282E-02  3.34046E-02  4.17724E-02  4.69083E-02  5.22512E-02  5.67225E-02  6.06701E-02  6.46850E-02  6.81133E-02
   7.17386E-02  7.48063E-02  7.81969E-02  8.10327E-02  8.36355E-02  8.62783E-02  8.89353E-02  9.24247E-02  9.52612E-02  9.82871E-02
   1.00134E-01  1.02279E-01  1.03530E-01  1.05144E-01  1.05993E-01  1.05818E-01  1.04465E-01  1.01943E-01  9.86910E-02  9.40730E-02
   8.94478E-02  8.44276E-02  7.89702E-02  7.30298E-02  6.67205E-02  5.98899E-02  5.30233E-02  4.68221E-02  4.10194E-02  3.51329E-02
   3.01716E-02  2.53503E-02  2.11665E-02  1.65392E-02  1.27012E-02  9.23590E-03  6.03218E-03  2.92805E-03  2.04530E-04 -2.21524E-03
  -4.58007E-03 -5.88363E-03 -6.81421E-03 -7.09187E-03 -6.18196E-03 -4.14186E-03 -2.01664E-03  3.88076E-04  3.23276E-03  6.60498E-03
   1.03144E-02  1.44253E-02  1.88826E-02  2.34260E-02  2.78764E-02  3.29122E-02  3.87170E-02  4.49233E-02  5.27257E-02  6.16635E-02
   7.12326E-02  8.11780E-02  9.15017E-02  1.02551E-01  1.13839E-01  1.25357E-01  1.36113E-01  1.45990E-01  1.54377E-01  1.61793E-01
   1.67672E-01  1.72252E-01  1.74552E-01  1.74788E-01  1.72664E-01  1.69078E-01  1.64261E-01  1.58321E-01  1.51307E-01  1.42829E-01
   1.33358E-01  1.23609E-01  1.13464E-01  1.03422E-01  9.42179E-02  8.55691E-02  7.78908E-02  7.00635E-02  6.29381E-02  5.59147E-02
   5.05194E-02  4.58024E-02  4.21214E-02  3.91863E-02  3.70668E-02  3.61671E-02  3.64660E-02  3.80506E-02  4.05041E-02  4.40170E-02
   4.83568E-02  5.31268E-02  5.72946E-02  6.13693E-02  6.56911E-02  7.01457E-02  7.39058E-02  7.72236E-02  8.00827E-02  8.18163E-02
   8.33544E-02  8.42408E-02  8.45772E-02  8.44636E-02  8.35556E-02  8.24411E-02  8.00282E-02  7.72929E-02  7.39888E-02  7.09541E-02
   6.80404E-02  6.43727E-02  6.09507E-02  5.73722E-02  5.44997E-02  5.10765E-02  4.77301E-02  4.46209E-02  4.15181E-02  3.82714E-02
   3.48008E-02  3.10745E-02  2.69418E-02  2.27877E-02  1.81275E-02  1.21643E-02  4.40200E-03 -4.50973E-03 -1.44976E-02 -2.60108E-02
  -3.91262E-02 -5.29901E-02 -6.78789E-02 -8.34552E-02 -1.00364E-01 -1.17131E-01 -1.33262E-01 -1.47732E-01 -1.60481E-01 -1.71642E-01
  -1.80470E-01 -1.87663E-01 -1.91815E-01 -1.93529E-01 -1.93205E-01 -1.91749E-01 -1.88160E-01 -1.83041E-01 -1.77394E-01 -1.71787E-01
  -1.64937E-01 -1.57345E-01 -1.49707E-01 -1.41997E-01 -1.33595E-01 -1.24781E-01 -1.15788E-01 -1.05471E-01 -9.52265E-02 -8.53821E-02
  -7.59761E-02 -6.66096E-02 -5.73780E-02 -4.90138E-02 -4.11986E-02 -3.35550E-02 -2.67027E-02 -2.04873E-02 -1.43275E-02 -8.88672E-03
  -4.79811E-03 -4.93868E-04  3.81594E-03  7.11992E-03  9.23145E-03  1.12128E-02  1.34225E-02  1.52713E-02  1.68841E-02  1.83600E-02
   2.01063E-02  2.15494E-02  2.33089E-02  2.50838E-02  2.59810E-02  2.76339E-02  2.93173E-02  3.01909E-02  3.05583E-02  3.06737E-02
   3.07080E-02  3.01030E-02  2.97740E-02  3.01788E-02  3.06497E-02  3.04454E-02  3.00060E-02  2.99291E-02  2.95335E-02  2.90522E-02
   2.89144E-02  2.85489E-02  2.78725E-02  2.69633E-02  2.59351E-02  2.49037E-02  2.37532E-02  2.35984E-02  2.39954E-02  2.41963E-02
   2.32049E-02  2.29609E-02  2.35610E-02  2.37808E-02  2.42362E-02  2.49015E-02  2.65071E-02  2.71391E-02  2.73320E-02  2.71858E-02
   2.72378E-02  2.71849E-02  2.72903E-02  2.70429E-02  2.67379E-02  2.62604E-02  2.60544E-02  2.60634E-02  2.61227E-02  2.74886E-02
   2.87740E-02  2.98011E-02  2.99887E-02  3.03431E-02  3.06726E-02  3.10384E-02  3.12256E-02  3.12780E-02  3.09641E-02  3.00780E-02
   2.91090E-02  2.83971E-02  2.75515E-02  2.69713E-02  2.70040E-02  2.65330E-02  2.57117E-02  2.50308E-02  2.45704E-02  2.43119E-02
   2.42152E-02  2.36683E-02  2.32421E-02  2.30411E-02  2.33051E-02  2.41682E-02  2.43690E-02  2.47011E-02  2.50278E-02  2.59608E-02
   2.69877E-02  2.77998E-02  2.88026E-02  2.98525E-02
 NY background values follow
     8.268E-02    8.252E-02    8.236E-02    8.221E-02    8.205E-02    8.189E-02    8.173E-02    8.157E-02    8.141E-02    8.125E-02
     8.109E-02    8.093E-02    8.078E-02    8.062E-02    8.046E-02    8.030E-02    8.014E-02    7.998E-02    7.982E-02    7.966E-02
     7.950E-02    7.935E-02    7.919E-02    7.903E-02    7.887E-02    7.871E-02    7.855E-02    7.839E-02    7.823E-02    7.807E-02
     7.791E-02    7.776E-02    7.760E-02    7.744E-02    7.728E-02    7.712E-02    7.696E-02    7.680E-02    7.664E-02    7.648E-02
     7.632E-02    7.617E-02    7.601E-02    7.585E-02    7.569E-02    7.553E-02    7.537E-02    7.521E-02    7.505E-02    7.489E-02
     7.473E-02    7.457E-02    7.441E-02    7.426E-02    7.410E-02    7.394E-02    7.378E-02    7.362E-02    7.346E-02    7.330E-02
     7.314E-02    7.298E-02    7.282E-02    7.266E-02    7.250E-02    7.235E-02    7.219E-02    7.203E-02    7.187E-02    7.171E-02
