 
 $NMID
 ID=''
 FMTDAT='(2E13.5)'
 TRAMP=   1.00000E+0
 VOLUME=   1.00000E+0
 $END
  -1.68313E+4   1.05234E+4
  -4.91992E+4   1.37453E+4
  -4.57905E+4   2.22762E+4
  -4.20955E+4   2.05399E+4
  -4.41652E+4   2.01198E+4
  -4.31806E+4   2.22168E+4
  -4.17233E+4   2.09420E+4
  -4.26274E+4   2.04712E+4
  -4.20260E+4   2.17333E+4
  -4.09025E+4   2.10836E+4
  -4.12833E+4   2.07233E+4
  -4.05712E+4   2.15959E+4
  -3.97278E+4   2.12727E+4
  -4.01582E+4   2.08620E+4
  -3.95249E+4   2.13487E+4
  -3.87200E+4   2.12000E+4
  -3.88545E+4   2.09585E+4
  -3.82723E+4   2.13608E+4
  -3.75420E+4   2.13024E+4
  -3.76034E+4   2.10984E+4
  -3.69641E+4   2.14360E+4
  -3.62417E+4   2.15221E+4
  -3.61328E+4   2.14541E+4
  -3.58147E+4   2.16400E+4
  -3.51710E+4   2.15615E+4
  -3.50801E+4   2.16442E+4
  -3.48015E+4   2.18339E+4
  -3.43372E+4   2.16739E+4
  -3.41994E+4   2.15792E+4
  -3.39515E+4   2.17872E+4
  -3.34389E+4   2.18174E+4
  -3.33596E+4   2.18847E+4
  -3.32559E+4   2.19090E+4
  -3.28609E+4   2.17962E+4
  -3.26447E+4   2.18164E+4
  -3.24517E+4   2.18718E+4
  -3.20159E+4   2.18103E+4
  -3.17567E+4   2.18154E+4
  -3.15042E+4   2.18980E+4
  -3.11147E+4   2.19003E+4
  -3.08375E+4   2.18334E+4
  -3.06963E+4   2.17934E+4
  -3.03903E+4   2.15277E+4
  -3.00043E+4   2.14296E+4
  -2.96960E+4   2.15443E+4
  -2.93749E+4   2.14795E+4
  -2.91007E+4   2.14286E+4
  -2.88199E+4   2.14632E+4
  -2.85229E+4   2.16093E+4
  -2.82585E+4   2.14751E+4
  -2.80132E+4   2.14830E+4
  -2.77239E+4   2.14357E+4
  -2.73996E+4   2.14178E+4
  -2.71420E+4   2.15900E+4
  -2.68862E+4   2.15798E+4
  -2.66810E+4   2.15135E+4
  -2.64976E+4   2.15540E+4
  -2.62430E+4   2.14652E+4
  -2.59906E+4   2.13836E+4
  -2.57223E+4   2.13307E+4
  -2.54399E+4   2.12953E+4
  -2.51146E+4   2.13154E+4
  -2.48982E+4   2.13284E+4
  -2.46998E+4   2.12760E+4
  -2.44968E+4   2.12546E+4
  -2.41557E+4   2.13091E+4
  -2.38853E+4   2.13229E+4
  -2.37082E+4   2.13638E+4
  -2.34715E+4   2.12737E+4
  -2.31751E+4   2.12633E+4
  -2.29932E+4   2.12907E+4
  -2.27724E+4   2.12853E+4
  -2.25360E+4   2.13224E+4
  -2.23511E+4   2.13211E+4
  -2.20897E+4   2.14086E+4
  -2.18565E+4   2.13194E+4
  -2.16034E+4   2.13358E+4
  -2.14512E+4   2.13357E+4
  -2.11476E+4   2.13223E+4
  -2.09151E+4   2.13832E+4
  -2.06803E+4   2.13783E+4
  -2.05427E+4   2.14812E+4
  -2.02303E+4   2.13602E+4
  -2.00373E+4   2.13363E+4
  -1.98443E+4   2.13787E+4
  -1.96683E+4   2.13767E+4
  -1.94699E+4   2.12621E+4
  -1.92765E+4   2.11827E+4
  -1.90010E+4   2.12210E+4
  -1.88277E+4   2.12730E+4
  -1.85937E+4   2.12595E+4
  -1.83854E+4   2.12296E+4
  -1.80596E+4   2.12009E+4
  -1.79412E+4   2.12744E+4
  -1.77120E+4   2.12056E+4
  -1.75128E+4   2.12072E+4
  -1.72502E+4   2.11760E+4
  -1.71103E+4   2.11734E+4
  -1.68031E+4   2.11721E+4
  -1.67289E+4   2.10906E+4
  -1.65591E+4   2.10383E+4
  -1.62219E+4   2.10602E+4
  -1.59460E+4   2.10935E+4
  -1.58746E+4   2.11006E+4
  -1.57006E+4   2.10488E+4
  -1.54562E+4   2.09600E+4
  -1.53668E+4   2.10644E+4
  -1.51312E+4   2.08910E+4
  -1.49564E+4   2.08680E+4
  -1.46893E+4   2.07848E+4
  -1.44857E+4   2.07646E+4
  -1.43222E+4   2.08135E+4
  -1.40856E+4   2.07672E+4
  -1.38641E+4   2.07015E+4
  -1.37141E+4   2.07373E+4
  -1.35979E+4   2.06991E+4
  -1.34011E+4   2.06108E+4
  -1.32201E+4   2.06041E+4
  -1.30109E+4   2.05581E+4
  -1.28256E+4   2.05425E+4
  -1.26576E+4   2.04802E+4
  -1.24728E+4   2.04073E+4
  -1.23666E+4   2.03661E+4
  -1.21900E+4   2.02775E+4
  -1.19958E+4   2.02943E+4
  -1.18514E+4   2.01829E+4
  -1.16464E+4   2.01159E+4
  -1.14355E+4   2.00813E+4
  -1.13258E+4   1.99628E+4
  -1.11603E+4   1.99218E+4
  -1.10087E+4   1.98477E+4
  -1.08138E+4   1.98195E+4
  -1.06210E+4   1.96520E+4
  -1.04882E+4   1.97022E+4
  -1.03172E+4   1.95966E+4
  -1.01436E+4   1.94683E+4
  -9.98554E+3   1.93128E+4
  -9.79244E+3   1.92904E+4
  -9.60420E+3   1.92147E+4
  -9.39364E+3   1.91391E+4
  -9.28438E+3   1.90383E+4
  -9.09217E+3   1.89530E+4
  -8.95905E+3   1.88638E+4
  -8.79274E+3   1.87712E+4
  -8.63771E+3   1.86959E+4
  -8.50169E+3   1.86035E+4
  -8.34067E+3   1.86082E+4
  -8.16180E+3   1.84336E+4
  -8.02393E+3   1.83187E+4
  -7.93263E+3   1.82255E+4
  -7.84738E+3   1.81898E+4
  -7.61500E+3   1.80309E+4
  -7.43820E+3   1.79332E+4
  -7.32191E+3   1.78136E+4
  -7.21714E+3   1.78484E+4
  -7.04623E+3   1.76110E+4
  -6.90629E+3   1.76326E+4
  -6.78866E+3   1.75479E+4
  -6.71289E+3   1.73774E+4
  -6.49753E+3   1.72336E+4
  -6.38827E+3   1.72248E+4
  -6.28998E+3   1.71198E+4
  -6.10047E+3   1.70740E+4
  -5.98414E+3   1.69222E+4
  -5.86298E+3   1.68757E+4
  -5.71640E+3   1.67698E+4
  -5.68621E+3   1.66216E+4
  -5.49996E+3   1.65491E+4
  -5.28787E+3   1.64704E+4
  -5.24533E+3   1.64277E+4
  -5.12134E+3   1.63508E+4
  -4.98645E+3   1.62946E+4
  -4.90390E+3   1.61082E+4
  -4.80108E+3   1.60194E+4
  -4.68682E+3   1.58967E+4
  -4.57012E+3   1.59085E+4
  -4.39436E+3   1.57692E+4
  -4.36091E+3   1.57125E+4
  -4.18616E+3   1.56813E+4
  -4.12047E+3   1.55559E+4
  -3.99683E+3   1.54866E+4
  -3.91813E+3   1.53449E+4
  -3.76357E+3   1.52418E+4
  -3.70234E+3   1.51959E+4
  -3.64364E+3   1.51219E+4
  -3.47525E+3   1.49969E+4
  -3.36989E+3   1.49839E+4
  -3.29482E+3   1.49165E+4
  -3.24101E+3   1.47350E+4
  -3.10721E+3   1.46813E+4
  -3.07614E+3   1.45416E+4
  -2.93190E+3   1.45216E+4
  -2.85757E+3   1.43983E+4
  -2.78668E+3   1.43564E+4
  -2.73055E+3   1.42799E+4
  -2.57886E+3   1.41642E+4
  -2.56797E+3   1.40177E+4
  -2.44178E+3   1.39887E+4
  -2.36989E+3   1.38349E+4
  -2.25743E+3   1.37993E+4
  -2.20933E+3   1.38041E+4
  -2.13805E+3   1.36748E+4
  -2.09939E+3   1.35561E+4
  -1.93661E+3   1.34948E+4
  -1.90482E+3   1.34217E+4
  -1.76752E+3   1.33549E+4
  -1.72915E+3   1.32850E+4
  -1.62623E+3   1.32380E+4
  -1.52673E+3   1.31152E+4
  -1.48146E+3   1.31206E+4
  -1.40379E+3   1.30188E+4
  -1.37428E+3   1.29330E+4
  -1.32144E+3   1.28044E+4
  -1.14408E+3   1.28086E+4
  -1.09865E+3   1.28021E+4
  -1.10301E+3   1.26261E+4
  -9.73382E+2   1.25586E+4
  -8.50991E+2   1.25547E+4
  -8.41217E+2   1.24731E+4
  -7.52991E+2   1.24016E+4
  -7.37891E+2   1.23420E+4
  -5.95757E+2   1.22564E+4
  -6.04599E+2   1.21738E+4
  -5.39936E+2   1.21369E+4
  -4.91479E+2   1.20557E+4
  -3.94479E+2   1.20123E+4
  -3.02893E+2   1.19292E+4
  -2.74007E+2   1.18499E+4
  -2.71649E+2   1.18554E+4
  -1.60736E+2   1.17530E+4
  -1.15913E+2   1.17166E+4
  -3.28533E+1   1.16394E+4
  -4.81312E+0   1.15948E+4
   5.37117E+1   1.14761E+4
   9.90081E+1   1.14045E+4
   1.73481E+2   1.12762E+4
   2.55882E+2   1.12802E+4
   2.66767E+2   1.12546E+4
   3.30662E+2   1.11919E+4
   4.24276E+2   1.11070E+4
   4.67851E+2   1.10639E+4
   5.22114E+2   1.09524E+4
   5.40892E+2   1.09619E+4
   5.81769E+2   1.08278E+4
   6.87615E+2   1.07797E+4
   6.85121E+2   1.07965E+4
   7.25201E+2   1.06285E+4
   7.67890E+2   1.05478E+4
   8.50899E+2   1.05275E+4
   9.34392E+2   1.05075E+4
   9.85940E+2   1.04147E+4
   9.58128E+2   1.03225E+4
   1.01035E+3   1.03170E+4
   1.05098E+3   1.02106E+4
   1.12857E+3   1.01122E+4
   1.19777E+3   1.00279E+4
   1.24118E+3   1.00614E+4
   1.25124E+3   9.98000E+3
   1.29321E+3   9.95064E+3
   1.38627E+3   9.85807E+3
   1.43454E+3   9.76804E+3
   1.45292E+3   9.69764E+3
   1.50379E+3   9.62086E+3
   1.54738E+3   9.63889E+3
   1.66518E+3   9.53368E+3
   1.61947E+3   9.47293E+3
   1.67223E+3   9.37183E+3
   1.71307E+3   9.37383E+3
   1.78035E+3   9.24578E+3
   1.76238E+3   9.19156E+3
   1.83253E+3   9.15194E+3
   1.85660E+3   9.15763E+3
   1.91864E+3   9.02264E+3
   1.87823E+3   8.99205E+3
   1.97547E+3   8.85158E+3
   2.00744E+3   8.87026E+3
   2.01362E+3   8.82636E+3
   2.04780E+3   8.75983E+3
   2.15148E+3   8.66416E+3
   2.18576E+3   8.62727E+3
   2.19563E+3   8.51307E+3
   2.19927E+3   8.43669E+3
   2.25551E+3   8.46612E+3
   2.20134E+3   8.32209E+3
   2.25557E+3   8.26215E+3
   2.31080E+3   8.23954E+3
   2.34197E+3   8.23430E+3
   2.32227E+3   8.15346E+3
   2.34798E+3   7.99180E+3
   2.41209E+3   8.00357E+3
   2.45441E+3   7.96531E+3
   2.36563E+3   7.86119E+3
   2.45150E+3   7.85046E+3
   2.52526E+3   7.76920E+3
   2.53559E+3   7.71438E+3
   2.53183E+3   7.69007E+3
   2.60238E+3   7.61215E+3
   2.51866E+3   7.55317E+3
   2.65028E+3   7.46041E+3
   2.61683E+3   7.38809E+3
   2.70228E+3   7.33486E+3
   2.64390E+3   7.30697E+3
   2.74041E+3   7.27243E+3
   2.76949E+3   7.26103E+3
   2.76502E+3   7.09658E+3
   2.74043E+3   7.07826E+3
   2.69065E+3   7.03654E+3
   2.75925E+3   6.99187E+3
   2.84038E+3   6.91296E+3
   2.80133E+3   6.91011E+3
   2.79952E+3   6.82464E+3
   2.80054E+3   6.73862E+3
   2.86090E+3   6.70035E+3
   2.84633E+3   6.72362E+3
   2.92104E+3   6.62010E+3
   2.96353E+3   6.58065E+3
   2.97371E+3   6.59503E+3
   2.97563E+3   6.47938E+3
   3.04947E+3   6.41957E+3
   2.96848E+3   6.39627E+3
   2.98926E+3   6.28276E+3
   3.03244E+3   6.27008E+3
   3.04980E+3   6.20248E+3
   3.00993E+3   6.16627E+3
   3.08303E+3   6.11224E+3
   3.05408E+3   6.04112E+3
   3.03381E+3   6.02753E+3
   3.10567E+3   5.95995E+3
   3.08810E+3   5.92589E+3
   3.08441E+3   5.79672E+3
   3.17365E+3   5.79374E+3
   3.17082E+3   5.70470E+3
   3.11918E+3   5.75583E+3
   3.10721E+3   5.64254E+3
   3.13794E+3   5.58669E+3
   3.18202E+3   5.54419E+3
   3.17558E+3   5.49597E+3
   3.21334E+3   5.42553E+3
   3.20025E+3   5.36311E+3
   3.21903E+3   5.31839E+3
   3.17349E+3   5.28254E+3
   3.24401E+3   5.22391E+3
   3.23095E+3   5.17887E+3
   3.18278E+3   5.16685E+3
   3.19842E+3   5.14950E+3
   3.29579E+3   5.08948E+3
   3.30053E+3   5.04707E+3
   3.30404E+3   4.95504E+3
   3.31005E+3   4.83975E+3
   3.24369E+3   4.87966E+3
   3.28557E+3   4.79808E+3
   3.25170E+3   4.74490E+3
   3.28455E+3   4.66428E+3
   3.26209E+3   4.64599E+3
   3.33449E+3   4.64383E+3
   3.33953E+3   4.55424E+3
   3.28113E+3   4.58072E+3
   3.27486E+3   4.51416E+3
   3.37333E+3   4.42294E+3
   3.28628E+3   4.43330E+3
   3.32475E+3   4.36339E+3
   3.28362E+3   4.29761E+3
   3.37277E+3   4.32336E+3
   3.33691E+3   4.25120E+3
   3.37755E+3   4.19322E+3
   3.38576E+3   4.07154E+3
   3.30446E+3   4.11261E+3
