 LCModel (Version 6.3-1N) Copyright: S.W. Provencher.          Ref.: Magn. Reson. Med. 30:672-679 (1993).                
 Slice_N1@13_10  02-Jun-2023 14:36:37
 27 lines in following concentration table = NCONC+1
    Conc.  %SD /Cr+PCr  Metabolite                                         
 3.11E-06  13% 3.2E-04 Mac                                                 
 6.45E-02  23%   6.539 Cr                                                  
 1.44E-02 106%   1.461 PCr                                                 
 9.13E-02  13%   9.260 Ins                                                 
    0.128   7%  12.986 NAA                                                 
 7.81E-02  14%   7.920 Tau                                                 
 1.91E-02  14%   1.937 PCho                                                
    0.000 999%   0.000 GPC                                                 
    0.111  11%  11.267 Glu                                                 
 4.00E-02  23%   4.056 Gln                                                 
    0.000 999%   0.000 Ala                                                 
 2.70E-02  62%   2.733 Asc                                                 
 9.57E-03 100%   0.971 Asp                                                 
 5.40E-03  97%   0.548 GABA                                                
 8.85E-03  70%   0.897 Glc                                                 
 1.16E-02  49%   1.173 GSH                                                 
    0.000 999%   0.000 Lac                                                 
    0.000 999%   0.000 NAAG                                                
    0.000 999%   0.000 PE                                                  
 1.91E-02  14%   1.937 GPC+PCho                                            
    0.128   7%  12.986 NAA+NAAG                                            
    0.151  10%  15.323 Glu+Gln                                             
 7.89E-02  11%   8.000 Cr+PCr                                              
    0.128   7%  12.986 NAA+NAAG                                            
 7.89E-02  11%   8.000 Cr+PCr                                              
    0.151  10%  15.323 Glu+Gln                                             
   6 lines in following misc. output table
  FWHM = 0.035 ppm    S/N =   4                                            
  Data shift = 0.017 ppm                                                   
  Ph: -90 deg      -6.5 deg/ppm                                            
  alphaB,S = 6.4E-01,   1.5E+01                                            
   18 spline knots.   Ns = 8(1)                                            
  ( 7) 4 infls.   ( 1) 1 extrs.                                            
  654 points on ppm-axis = NY
      4.000000     3.994181     3.988363     3.982544     3.976726     3.970907     3.965088     3.959270     3.953451     3.947633
      3.941814     3.935995     3.930177     3.924358     3.918540     3.912721     3.906902     3.901084     3.895265     3.889446
      3.883628     3.877809     3.871991     3.866172     3.860353     3.854535     3.848716     3.842898     3.837079     3.831260
      3.825442     3.819623     3.813805     3.807986     3.802167     3.796349     3.790530     3.784712     3.778893     3.773074
      3.767256     3.761437     3.755619     3.749800     3.743981     3.738163     3.732344     3.726526     3.720707     3.714888
      3.709070     3.703251     3.697433     3.691614     3.685795     3.679977     3.674158     3.668339     3.662521     3.656702
      3.650884     3.645065     3.639246     3.633428     3.627609     3.621791     3.615972     3.610153     3.604335     3.598516
      3.592698     3.586879     3.581060     3.575242     3.569423     3.563605     3.557786     3.551967     3.546149     3.540330
      3.534512     3.528693     3.522874     3.517056     3.511237     3.505419     3.499600     3.493781     3.487963     3.482144
      3.476326     3.470507     3.464688     3.458870     3.453051     3.447232     3.441414     3.435595     3.429777     3.423958
      3.418139     3.412321     3.406502     3.400684     3.394865     3.389046     3.383228     3.377409     3.371591     3.365772
      3.359953     3.354135     3.348316     3.342498     3.336679     3.330860     3.325042     3.319223     3.313405     3.307586
      3.301767     3.295949     3.290130     3.284312     3.278493     3.272674     3.266856     3.261037     3.255219     3.249400
      3.243581     3.237763     3.231944     3.226125     3.220307     3.214488     3.208670     3.202851     3.197032     3.191214
      3.185395     3.179577     3.173758     3.167939     3.162121     3.156302     3.150484     3.144665     3.138846     3.133028
      3.127209     3.121391     3.115572     3.109753     3.103935     3.098116     3.092298     3.086479     3.080660     3.074842
      3.069023     3.063205     3.057386     3.051567     3.045749     3.039930     3.034111     3.028293     3.022474     3.016656
      3.010837     3.005018     2.999200     2.993381     2.987563     2.981744     2.975925     2.970107     2.964288     2.958470
      2.952651     2.946832     2.941014     2.935195     2.929377     2.923558     2.917739     2.911921     2.906102     2.900284
      2.894465     2.888646     2.882828     2.877009     2.871191     2.865372     2.859553     2.853735     2.847916     2.842098
      2.836279     2.830460     2.824642     2.818823     2.813004     2.807186     2.801367     2.795549     2.789730     2.783911
      2.778093     2.772274     2.766456     2.760637     2.754818     2.749000     2.743181     2.737363     2.731544     2.725725
      2.719907     2.714088     2.708270     2.702451     2.696632     2.690814     2.684995     2.679177     2.673358     2.667539
      2.661721     2.655902     2.650084     2.644265     2.638446     2.632628     2.626809     2.620991     2.615172     2.609353
      2.603535     2.597716     2.591897     2.586079     2.580260     2.574442     2.568623     2.562804     2.556986     2.551167
      2.545349     2.539530     2.533711     2.527893     2.522074     2.516256     2.510437     2.504618     2.498800     2.492981
      2.487163     2.481344     2.475525     2.469707     2.463888     2.458070     2.452251     2.446432     2.440614     2.434795
      2.428977     2.423158     2.417339     2.411521     2.405702     2.399884     2.394065     2.388246     2.382428     2.376609
      2.370790     2.364972     2.359153     2.353335     2.347516     2.341697     2.335879     2.330060     2.324242     2.318423
      2.312604     2.306786     2.300967     2.295149     2.289330     2.283511     2.277693     2.271874     2.266056     2.260237
      2.254418     2.248600     2.242781     2.236963     2.231144     2.225325     2.219507     2.213688     2.207870     2.202051
      2.196232     2.190414     2.184595     2.178777     2.172958     2.167139     2.161321     2.155502     2.149683     2.143865
      2.138046     2.132228     2.126409     2.120590     2.114772     2.108953     2.103135     2.097316     2.091497     2.085679
      2.079860     2.074042     2.068223     2.062404     2.056586     2.050767     2.044949     2.039130     2.033311     2.027493
      2.021674     2.015856     2.010037     2.004218     1.998400     1.992581     1.986763     1.980944     1.975126     1.969307
      1.963489     1.957670     1.951852     1.946033     1.940215     1.934397     1.928578     1.922760     1.916941     1.911123
      1.905304     1.899486     1.893667     1.887849     1.882030     1.876212     1.870393     1.864575     1.858756     1.852938
      1.847119     1.841301     1.835482     1.829664     1.823845     1.818027     1.812208     1.806390     1.800571     1.794753
      1.788934     1.783116     1.777297     1.771479     1.765660     1.759842     1.754023     1.748205     1.742386     1.736568
      1.730749     1.724931     1.719113     1.713294     1.707476     1.701657     1.695839     1.690020     1.684202     1.678383
      1.672565     1.666746     1.660928     1.655109     1.649291     1.643472     1.637654     1.631835     1.626017     1.620198
      1.614380     1.608561     1.602743     1.596924     1.591106     1.585287     1.579469     1.573650     1.567832     1.562013
      1.556195     1.550376     1.544558     1.538739     1.532921     1.527102     1.521284     1.515465     1.509647     1.503829
      1.498010     1.492192     1.486373     1.480555     1.474736     1.468918     1.463099     1.457281     1.451462     1.445644
      1.439825     1.434007     1.428188     1.422370     1.416551     1.410733     1.404914     1.399096     1.393277     1.387459
      1.381640     1.375822     1.370003     1.364185     1.358366     1.352548     1.346729     1.340911     1.335092     1.329274
      1.323455     1.317637     1.311818     1.306000     1.300182     1.294363     1.288545     1.282726     1.276908     1.271089
      1.265271     1.259452     1.253634     1.247815     1.241997     1.236178     1.230360     1.224541     1.218723     1.212904
      1.207086     1.201267     1.195449     1.189630     1.183812     1.177993     1.172175     1.166356     1.160538     1.154719
      1.148901     1.143082     1.137264     1.131445     1.125627     1.119808     1.113990     1.108171     1.102353     1.096534
      1.090716     1.084898     1.079079     1.073261     1.067442     1.061624     1.055805     1.049987     1.044168     1.038350
      1.032531     1.026713     1.020894     1.015076     1.009257     1.003439     0.997620     0.991802     0.985983     0.980165
      0.974346     0.968528     0.962709     0.956891     0.951072     0.945254     0.939435     0.933617     0.927798     0.921980
      0.916161     0.910343     0.904524     0.898706     0.892887     0.887069     0.881251     0.875432     0.869614     0.863795
      0.857977     0.852158     0.846340     0.840521     0.834703     0.828884     0.823066     0.817247     0.811429     0.805610
      0.799792     0.793973     0.788155     0.782336     0.776518     0.770699     0.764881     0.759062     0.753244     0.747425
      0.741607     0.735788     0.729970     0.724151     0.718333     0.712514     0.706696     0.700877     0.695059     0.689240
      0.683422     0.677603     0.671785     0.665967     0.660148     0.654330     0.648511     0.642693     0.636874     0.631056
      0.625237     0.619419     0.613600     0.607782     0.601963     0.596145     0.590326     0.584508     0.578689     0.572871
      0.567052     0.561234     0.555415     0.549597     0.543778     0.537960     0.532141     0.526323     0.520504     0.514686
      0.508867     0.503049     0.497230     0.491412     0.485593     0.479775     0.473956     0.468138     0.462319     0.456501
      0.450682     0.444864     0.439045     0.433227     0.427408     0.421590     0.415771     0.409953     0.404134     0.398316
      0.392497     0.386679     0.380860     0.375042     0.369223     0.363405     0.357586     0.351767     0.345949     0.340130
      0.334312     0.328493     0.322675     0.316856     0.311038     0.305219     0.299401     0.293582     0.287764     0.281945
      0.276127     0.270308     0.264490     0.258671     0.252853     0.247034     0.241216     0.235397     0.229579     0.223760
      0.217942     0.212123     0.206305     0.200486
 NY phased data points follow
   2.79384E-01 -2.98834E-01  1.40686E-01  2.92572E-02 -3.41687E-01  3.32343E-02 -2.57669E-01 -5.71043E-02 -3.62357E-01 -4.43652E-02
   2.21266E-01  1.83696E-01  3.14638E-01 -3.73167E-02  2.96107E-01  1.60399E-01  3.80904E-01  3.75939E-01  2.71008E-01  7.46797E-02
   1.33957E-02  6.40388E-02 -4.20202E-02  3.47166E-01 -1.22556E-01  2.21475E-01 -3.62883E-03 -1.37305E-01 -7.85543E-02 -1.53324E-01
   2.14758E-01 -2.13853E-01 -2.15943E-01 -5.09924E-01 -3.66172E-01 -1.60252E-01 -3.81634E-01 -3.60635E-01 -2.00080E-01 -5.05458E-01
  -2.80126E-01  2.58423E-01  1.52979E-01  3.31454E-01  3.50190E-01  3.47541E-01  4.04574E-01  3.99780E-01  2.62764E-01  3.66672E-01
   1.61810E-01  2.24273E-01  1.57702E-01  3.07624E-02  2.66974E-01 -1.58607E-01 -1.19033E-01 -2.70266E-02 -2.73827E-01 -2.32573E-01
  -2.28420E-01 -3.47363E-01 -6.29627E-02 -1.14937E-01  1.35088E-01 -1.25528E-01 -2.87145E-01 -7.23149E-02 -1.02532E-01  5.42392E-01
   7.36691E-02  2.82464E-02 -1.52010E-01 -2.73258E-01  1.04485E-01  2.47439E-01  1.13164E-01 -2.13140E-01  3.21172E-02 -6.13891E-01
  -4.41781E-01 -1.93495E-01 -2.04233E-01 -2.39157E-01 -2.16313E-01  3.29384E-01  3.44116E-01  3.83625E-01  2.97370E-01  3.11359E-01
   1.09255E-01  4.31718E-01  2.27752E-01  8.76443E-02  4.21715E-01  7.92567E-02 -2.60850E-01 -3.03776E-01 -1.79039E-01 -7.08933E-01
   7.68742E-02  1.57352E-01 -1.61573E-01  2.20118E-02  2.70538E-01  5.25012E-01  8.56873E-02  3.58516E-01  2.69648E-01  7.92672E-01
   2.22835E-01  3.98613E-01  7.78910E-01  1.04742E-01  4.03924E-01  5.53758E-02  4.38351E-01  5.83104E-01  7.12497E-01  5.90027E-01
   4.44252E-01 -4.27309E-02 -2.16966E-01  1.76592E-01 -4.02037E-01 -4.31278E-01 -5.99620E-01 -2.59931E-01 -1.60494E-01 -5.22573E-01
  -7.21913E-01 -7.87306E-01 -4.14402E-01 -6.30623E-01 -5.13502E-01 -3.58431E-01 -9.36770E-01 -9.38966E-01 -5.37403E-01 -6.11430E-01
  -9.21061E-01 -3.92248E-01 -2.23667E-01 -2.98128E-01  3.08935E-02 -1.44632E-01  1.26017E-01  1.40634E-02  2.71852E-01  3.06524E-01
   2.69126E-01  1.11164E-01  1.11665E-01  2.22233E-01  1.20313E-01  8.05179E-01  1.06725E-01  4.82842E-01  5.22486E-01  2.27984E-01
   5.94304E-01  5.01661E-01  4.60578E-01  5.71860E-01  1.00071E+00  8.18854E-01  9.24937E-01  4.55156E-01  3.34894E-01 -3.00312E-01
  -7.65992E-01 -4.70032E-01 -7.08119E-01 -7.34925E-01 -6.72591E-01 -7.72026E-01 -5.62308E-01 -2.52725E-01 -4.12765E-01 -2.93263E-01
  -6.50253E-01 -2.36425E-01 -1.52101E-01 -2.12890E-01 -2.57633E-01 -4.19242E-01 -4.46073E-01 -4.59277E-01 -6.29049E-02 -6.08248E-01
  -3.52923E-01 -3.61103E-01 -1.39142E-01 -3.66966E-01 -6.15224E-01 -7.67746E-02 -9.39671E-02  9.70981E-02 -2.60154E-01  1.24903E-02
  -1.42739E-01 -3.45509E-01  1.07787E-01 -1.62014E-01 -5.39324E-02 -1.23509E-02 -7.52732E-02 -5.94998E-03 -2.04437E-01  9.90868E-02
   1.83310E-02  2.42678E-01  2.49592E-01 -1.02362E-01  6.34692E-02 -1.69751E-01 -6.49636E-04  1.13686E-01  5.25810E-01 -1.10913E-01
  -5.09694E-01  5.12908E-01 -4.09588E-02 -4.16140E-01  5.76804E-02  2.70033E-01  6.13427E-01  5.93931E-01  7.21249E-01  5.14174E-01
   1.66406E-01  2.88042E-01  1.84076E-01  5.17603E-01  3.19073E-01 -4.42753E-02  2.53982E-02  1.20578E-01 -6.21713E-02  5.70406E-02
  -1.20223E-01 -3.15456E-01  2.18033E-01  5.53626E-02 -4.40306E-02 -3.83486E-01 -1.30681E-02 -5.33497E-02  1.25337E-02  2.13713E-01
  -3.78392E-01 -2.23818E-01 -9.17084E-02  5.22203E-02 -1.80919E-01 -6.54253E-02 -4.62421E-02  8.77876E-02  1.04996E-01 -7.70983E-02
   1.43654E-01  1.28321E-01  4.83487E-02  4.33607E-02  1.98672E-01  1.15788E-01  1.54349E-01  3.67813E-01  3.35182E-01  1.39784E-01
   1.90438E-01 -1.39994E-02  1.31301E-01  8.59209E-02 -1.34773E-01 -1.71980E-02  2.20001E-01  1.46015E-01 -1.61668E-01 -2.69160E-01
  -5.74384E-01 -1.50394E-01 -3.62490E-01 -2.21740E-01 -9.22435E-03  1.19236E-01  5.11749E-01  5.05627E-01  6.98735E-01  8.02941E-01
   7.67140E-01  1.76127E-01  5.24832E-01  4.06223E-01  3.65248E-01  3.64282E-01  5.36319E-02  2.72022E-01  3.31718E-02  1.68804E-01
   2.43090E-01  3.89927E-01  2.84376E-01  1.08079E-01  2.64562E-01  3.59548E-01  4.59368E-02  2.60515E-01  5.51132E-01  5.13666E-01
   6.88252E-01  5.61044E-01  5.69581E-01  2.28803E-01  1.77573E-01  4.65668E-02  1.09433E-01  6.67776E-02 -1.62069E-01 -7.87368E-02
  -7.47745E-01 -4.73031E-01 -4.35993E-01 -7.52414E-01 -4.14919E-01 -6.37633E-01 -5.35664E-01 -3.38557E-01  8.58335E-02  3.02344E-01
   2.45467E-01  2.48127E-01 -6.13191E-02  2.14318E-01 -3.39382E-03 -3.23711E-01 -2.90150E-01 -4.44707E-01 -5.34836E-01 -7.92773E-01
  -1.08628E+00 -1.13374E+00 -1.24502E+00 -1.69655E+00 -1.49130E+00 -1.16032E+00 -1.01757E+00 -7.68472E-01 -4.58622E-01 -3.11253E-01
  -7.59185E-02  1.08833E-01 -6.33051E-02  3.94440E-01  1.41100E-01  8.82089E-04  4.41932E-01  3.22351E-02 -6.06478E-02  5.43546E-02
   3.82158E-01  3.20414E-01 -3.62721E-02  2.31240E-01 -1.02130E-01 -9.46281E-02 -4.46167E-02 -1.27123E-01  3.63876E-01  3.75045E-01
   3.81078E-01  4.18917E-01  3.31085E-01  8.43910E-02  4.04822E-01  7.38306E-01  4.94613E-01  4.01620E-01  3.99334E-02  9.47564E-02
   4.14752E-01  1.00395E-01  2.35287E-01  5.73198E-01  2.29863E-01  4.00111E-02 -1.93025E-02  4.64688E-01  4.93587E-01  1.23512E-01
   2.08744E-01  3.56004E-01  4.02250E-01 -2.88899E-02  1.90941E-01  5.44217E-01  5.58869E-01  1.19693E-01 -1.20751E-01 -6.20618E-02
   9.05441E-02  1.69404E-01  1.13484E-01  1.39504E-01 -4.23170E-01 -1.66489E-01  2.13386E-02  7.50310E-02 -4.86926E-02 -4.09667E-01
  -6.38317E-02  3.18476E-01  1.69946E-01 -1.57418E-01 -1.24583E-01 -4.61520E-01 -3.10629E-01 -4.94096E-01 -8.31345E-01 -4.43218E-01
  -2.18227E-01 -3.79903E-01 -2.64493E-01 -2.32820E-01 -7.85337E-01 -4.51587E-01  3.83482E-03 -1.51690E-01 -2.21143E-01  1.79558E-02
  -5.66567E-03  2.16439E-01 -1.27589E-01 -2.70148E-01  2.42269E-01  3.79263E-02  3.93842E-01  4.40479E-01  8.49676E-02 -4.07325E-01
  -2.56709E-01  5.92527E-02  5.68792E-02  1.36831E-01  9.65988E-02  5.24928E-01  1.65848E-02 -1.05094E-01  3.04038E-01  2.71404E-01
   4.28159E-01  2.61419E-01  5.38945E-01  4.82166E-01 -2.20416E-01  2.78951E-01  3.36491E-01  5.71741E-04  2.71258E-01 -1.49477E-01
  -1.18207E-01  2.57290E-01  1.88348E-01  2.54744E-02  1.20117E-01  2.87105E-01  1.00809E-01 -5.51476E-02  4.55816E-02 -1.52327E-01
  -4.28795E-01 -6.60614E-01 -4.49939E-01 -2.12068E-02 -4.53470E-01 -1.21817E-01 -1.27891E-01 -1.55656E-01 -9.34314E-02 -4.23080E-01
   3.91864E-02 -3.31473E-01 -1.65612E-01  2.48284E-01  1.18490E-01  1.01514E-01  2.39923E-01  2.35990E-01 -4.38359E-02  1.33585E-01
   1.96722E-01  1.55238E-01 -1.07565E-01  2.99502E-02  2.49176E-02 -1.28569E-02  2.72856E-01 -1.32546E-01 -1.86407E-01  1.90866E-01
   2.25577E-01 -1.11258E-01 -1.95955E-01  5.79637E-02  2.62510E-01 -5.36757E-02 -8.50845E-02  2.56599E-01 -2.86089E-02  2.01752E-01
   3.24734E-01  1.62931E-01  3.51480E-01  3.10696E-01  1.48505E-01  2.20143E-01  4.38573E-01  1.11194E-02  4.68819E-02  7.57379E-02
  -2.69215E-01  1.33096E-01 -2.36222E-01 -4.75261E-01 -1.77821E-01 -3.27139E-01 -2.99908E-01 -2.31832E-01 -2.90028E-01 -4.50609E-01
  -6.05311E-01 -4.82741E-01 -2.33003E-01 -3.07112E-01 -3.25403E-01 -3.93522E-01 -1.02278E-01 -1.91059E-01 -4.14874E-01  1.45138E-01
   3.11101E-02 -1.00160E-01 -5.37360E-01 -1.26032E-01  2.54940E-01 -1.74564E-01 -9.19443E-02 -3.22848E-01  9.43907E-02  6.05152E-02
   1.66447E-01  2.60494E-01  1.77763E-01  3.10638E-01  2.78709E-02 -3.23748E-02  6.58899E-02  5.46390E-01  2.35562E-01  2.94704E-01
   2.06830E-01  3.39495E-02  5.04590E-01  1.71710E-01 -3.90852E-02 -1.29287E-01 -4.25804E-02  4.13783E-01  4.73375E-01  1.02987E-01
   1.65746E-01  1.32490E-01  4.20358E-01  2.89650E-01 -4.67626E-02  3.29168E-01 -6.83239E-02 -1.84392E-01 -2.00671E-01 -6.34179E-02
  -9.97571E-02 -1.98865E-01  2.16531E-01 -1.01067E-01 -1.10672E-01  3.77334E-01  1.30582E-01 -2.19339E-01  6.43089E-02 -3.47325E-02
   1.05101E-01  3.88482E-01 -9.80625E-02  3.35081E-02  3.33980E-01  1.51179E-01  1.31610E-02  3.40317E-02  3.00963E-01  1.80405E-01
   9.86451E-02  3.69338E-01  9.77916E-02 -5.15072E-02  1.31532E-01  1.84042E-01  1.25615E-01 -8.79696E-03  1.63542E-01 -6.41373E-02
  -2.55743E-01  9.12799E-02  4.00646E-05  1.72867E-01  3.14591E-01 -3.01855E-02  1.10544E-01  2.67619E-01 -1.85665E-01 -2.85545E-01
   2.14652E-01  2.15169E-01 -2.56612E-01 -5.40902E-02 -1.02198E-01 -2.53583E-01  3.06352E-01 -1.96440E-01  1.02801E-01  3.17508E-01
  -6.17982E-02  5.19168E-02 -2.25114E-01  3.70074E-01 -6.56238E-02 -4.46770E-03  2.49226E-01 -1.92601E-01  7.03351E-02 -5.31766E-02
   1.99168E-01  1.63557E-01 -1.99622E-01 -2.31849E-01  1.07612E-01  4.09335E-02 -1.58510E-02  1.20363E-01  3.90962E-01 -6.39807E-02
  -6.32696E-01  1.95244E-01 -5.15742E-02 -1.11365E-01
 NY points of the fit to the data follow
   7.46397E-02  7.35938E-02  6.44998E-02  5.11302E-02  3.49230E-02  3.01490E-02  2.65760E-02  2.31284E-02  1.95415E-02  6.70903E-02
   1.04286E-01  1.43713E-01  2.22193E-01  2.95344E-01  3.60432E-01  4.27798E-01  5.32136E-01  5.34500E-01  4.29659E-01  3.32335E-01
   2.41451E-01  1.35794E-01  4.18360E-02 -2.52645E-02 -1.03092E-01 -1.22855E-01 -1.40609E-01 -1.60803E-01 -1.78506E-01 -1.95135E-01
  -2.12128E-01 -2.31148E-01 -2.51967E-01 -2.80209E-01 -2.97890E-01 -3.24023E-01 -3.30934E-01 -3.26168E-01 -2.89780E-01 -2.22805E-01
  -1.20098E-01  2.26363E-02  1.52152E-01  2.76342E-01  3.66723E-01  4.28042E-01  4.39073E-01  4.17865E-01  3.73865E-01  3.10595E-01
   2.58156E-01  1.89003E-01  1.33584E-01  7.18381E-02  2.21840E-02 -3.97065E-02 -9.84920E-02 -1.48213E-01 -2.07208E-01 -2.65861E-01
  -2.84968E-01 -3.07166E-01 -3.06541E-01 -2.74990E-01 -2.13490E-01 -1.49691E-01 -7.58657E-02  5.92594E-02  1.63570E-01  2.31159E-01
   3.03691E-01  3.33024E-01  2.96759E-01  2.42584E-01  1.65945E-01  7.18059E-02 -2.95516E-02 -1.44640E-01 -2.31153E-01 -2.99276E-01
  -3.46206E-01 -3.11283E-01 -1.81800E-01 -6.62786E-02  5.03513E-02  2.11222E-01  3.28618E-01  3.73682E-01  4.02088E-01  3.92788E-01
   3.32929E-01  3.00188E-01  2.16151E-01  1.39994E-01  5.39657E-02 -3.82486E-02 -1.27233E-01 -2.26342E-01 -2.67891E-01 -2.91425E-01
  -2.29046E-01 -1.26830E-01 -6.51874E-03  1.15174E-01  2.15900E-01  2.88428E-01  3.25229E-01  3.62059E-01  3.45781E-01  3.52136E-01
   3.37024E-01  3.33469E-01  3.30139E-01  3.26979E-01  3.24644E-01  3.24505E-01  3.13161E-01  3.08987E-01  3.04475E-01  2.76654E-01
   2.49747E-01  2.10673E-01  1.38636E-01  4.56054E-02 -4.79695E-02 -1.49378E-01 -2.85117E-01 -4.02543E-01 -4.58789E-01 -5.89916E-01
  -6.27296E-01 -5.86207E-01 -5.84065E-01 -5.83232E-01 -6.04431E-01 -6.67420E-01 -8.36099E-01 -8.63327E-01 -7.37399E-01 -6.20770E-01
  -5.19029E-01 -3.60275E-01 -2.15256E-01 -1.15955E-01  1.44811E-02  4.02799E-02  6.98614E-02  9.86571E-02  1.24804E-01  1.48273E-01
   1.69392E-01  1.89888E-01  2.09561E-01  2.28764E-01  2.48818E-01  2.70621E-01  2.93848E-01  3.19707E-01  3.49497E-01  3.88436E-01
   4.37429E-01  5.34342E-01  5.51327E-01  5.97985E-01  6.54456E-01  6.41737E-01  5.79176E-01  4.26810E-01  2.01308E-01 -2.06929E-01
  -5.22665E-01 -6.34321E-01 -7.06997E-01 -7.54442E-01 -7.04356E-01 -6.18147E-01 -5.52887E-01 -4.19774E-01 -3.90610E-01 -3.66748E-01
  -3.42302E-01 -3.20796E-01 -2.98692E-01 -2.84282E-01 -2.70228E-01 -2.58679E-01 -2.47123E-01 -2.36372E-01 -2.24042E-01 -2.13927E-01
  -2.03972E-01 -1.90318E-01 -1.78438E-01 -1.65044E-01 -1.53130E-01 -1.40029E-01 -1.28385E-01 -1.16348E-01 -1.05060E-01 -9.47192E-02
  -8.43220E-02 -7.45570E-02 -6.59496E-02 -5.97179E-02 -5.60050E-02 -5.36311E-02 -5.10982E-02 -4.83796E-02 -4.72582E-02 -4.97048E-02
  -5.36196E-02 -5.50799E-02 -5.51348E-02 -5.47650E-02 -5.42547E-02 -5.29551E-02 -5.14718E-02 -5.26090E-02 -4.16263E-02 -2.56873E-02
  -1.24353E-02  1.13999E-02  4.87905E-02  1.03629E-01  1.70736E-01  2.43879E-01  3.06253E-01  3.28862E-01  3.39884E-01  3.63759E-01
   3.80929E-01  3.64516E-01  2.97565E-01  2.12303E-01  1.46269E-01  8.49613E-02  2.28655E-02 -2.53525E-02 -6.36398E-02 -8.74079E-02
  -9.46950E-02 -1.05494E-01 -1.15433E-01 -1.22491E-01 -1.30139E-01 -1.36740E-01 -1.42496E-01 -1.50271E-01 -1.56467E-01 -1.73010E-01
  -1.72263E-01 -1.84312E-01 -2.05180E-01 -2.04513E-01 -2.00745E-01 -1.84393E-01 -1.59859E-01 -9.00581E-02 -3.19081E-02 -2.74289E-03
   6.20810E-02  1.23031E-01  1.41823E-01  1.50918E-01  1.75115E-01  1.82193E-01  1.81306E-01  1.83180E-01  1.85687E-01  1.84078E-01
   1.82342E-01  1.72858E-01  1.40133E-01  1.02311E-01  5.24459E-02 -9.68801E-03 -7.72518E-02 -1.52977E-01 -2.19821E-01 -2.84537E-01
  -3.29334E-01 -3.44458E-01 -3.14082E-01 -2.26664E-01 -1.00545E-01  6.94716E-02  2.32947E-01  3.68333E-01  4.73776E-01  5.25732E-01
   5.24380E-01  5.08551E-01  4.71259E-01  4.22587E-01  3.91113E-01  3.61162E-01  3.44375E-01  3.36348E-01  3.28019E-01  3.22634E-01
   3.16405E-01  3.10337E-01  3.04937E-01  2.96717E-01  2.90509E-01  2.82766E-01  2.73748E-01  2.63509E-01  2.50641E-01  2.34735E-01
   2.11150E-01  1.85878E-01  1.47712E-01  1.06601E-01  4.94912E-02 -1.40761E-02 -8.79508E-02 -1.73941E-01 -2.53754E-01 -3.35160E-01
  -3.97336E-01 -4.47130E-01 -4.62935E-01 -4.50257E-01 -4.05003E-01 -3.28515E-01 -2.40725E-01 -1.41188E-01 -7.31960E-02 -1.37155E-02
  -3.22785E-03 -5.90409E-03 -3.38040E-02 -7.02978E-02 -6.60371E-02 -1.65121E-01 -2.48858E-01 -3.05771E-01 -4.35499E-01 -6.33802E-01
  -8.77483E-01 -1.14400E+00 -1.51454E+00 -1.68377E+00 -1.50070E+00 -1.23038E+00 -1.01050E+00 -7.22757E-01 -4.45829E-01 -2.58339E-01
  -6.94502E-02 -1.00976E-02 -7.94518E-03  9.22719E-03  2.35876E-02  3.53948E-02  4.31993E-02  4.89909E-02  5.15328E-02  5.30295E-02
   5.28796E-02  5.19155E-02  5.14911E-02  5.07115E-02  5.16672E-02  5.40442E-02  5.87146E-02  6.39314E-02  7.03489E-02  7.68202E-02
   8.37302E-02  9.08495E-02  9.69261E-02  1.03566E-01  1.08628E-01  1.13440E-01  1.18203E-01  1.22809E-01  1.27129E-01  1.31250E-01
   1.35017E-01  1.38196E-01  1.42186E-01  1.45558E-01  1.48806E-01  1.51951E-01  1.54516E-01  1.57165E-01  1.59828E-01  1.63184E-01
   1.65936E-01  1.68630E-01  1.70445E-01  1.71023E-01  1.70132E-01  1.68078E-01  1.65003E-01  1.60640E-01  1.55752E-01  1.49581E-01
   1.42642E-01  1.34694E-01  1.26182E-01  1.17305E-01  1.07499E-01  9.80431E-02  8.91957E-02  8.04779E-02  7.19951E-02  6.40301E-02
   5.68400E-02  4.99990E-02  4.39902E-02  3.84379E-02  3.31794E-02  2.81327E-02  2.38970E-02  1.97690E-02  1.59403E-02  1.29897E-02
   1.04127E-02  8.62375E-03  7.52101E-03  7.78199E-03  9.36511E-03  1.14873E-02  1.46813E-02  1.91530E-02  2.40154E-02  2.93953E-02
   3.51051E-02  4.02622E-02  4.50769E-02  5.07986E-02  5.77713E-02  6.56083E-02  7.43593E-02  8.40108E-02  9.42492E-02  1.05744E-01
   1.18523E-01  1.32076E-01  1.46272E-01  1.60825E-01  1.75778E-01  1.90426E-01  2.04479E-01  2.17446E-01  2.28329E-01  2.36815E-01
   2.43098E-01  2.46658E-01  2.47901E-01  2.47192E-01  2.44024E-01  2.38725E-01  2.31301E-01  2.21530E-01  2.09624E-01  1.96795E-01
   1.83410E-01  1.69681E-01  1.55855E-01  1.42332E-01  1.29402E-01  1.16986E-01  1.06053E-01  9.55819E-02  8.58110E-02  7.71930E-02
   6.97706E-02  6.32483E-02  5.80795E-02  5.40698E-02  5.14073E-02  5.09081E-02  5.21681E-02  5.43084E-02  5.77154E-02  6.26907E-02
   6.80969E-02  7.39884E-02  8.03816E-02  8.66814E-02  9.21165E-02  9.70953E-02  1.01460E-01  1.04838E-01  1.07996E-01  1.10634E-01
   1.12843E-01  1.13939E-01  1.13839E-01  1.12962E-01  1.10805E-01  1.08055E-01  1.04332E-01  9.97863E-02  9.52739E-02  9.09314E-02
   8.61430E-02  8.11464E-02  7.63959E-02  7.12170E-02  6.61738E-02  6.10243E-02  5.58822E-02  5.06849E-02  4.58882E-02  4.14811E-02
   3.64495E-02  3.09748E-02  2.50570E-02  1.81580E-02  1.00071E-02  2.72150E-04 -1.04307E-02 -2.25164E-02 -3.63026E-02 -5.21047E-02
  -7.01506E-02 -8.99574E-02 -1.11217E-01 -1.33048E-01 -1.55015E-01 -1.76477E-01 -1.97046E-01 -2.15649E-01 -2.31971E-01 -2.46018E-01
  -2.57129E-01 -2.64808E-01 -2.68573E-01 -2.69649E-01 -2.68331E-01 -2.64007E-01 -2.57105E-01 -2.49326E-01 -2.40510E-01 -2.31155E-01
  -2.21528E-01 -2.11260E-01 -1.99973E-01 -1.87918E-01 -1.75724E-01 -1.62331E-01 -1.48139E-01 -1.34054E-01 -1.20104E-01 -1.06185E-01
  -9.26994E-02 -7.98334E-02 -6.74143E-02 -5.55874E-02 -4.46470E-02 -3.48911E-02 -2.53444E-02 -1.62712E-02 -8.25785E-03 -1.42810E-03
   4.42464E-03  1.05692E-02  1.55130E-02  1.94375E-02  2.32899E-02  2.60909E-02  2.84871E-02  3.11716E-02  3.31074E-02  3.44481E-02
   3.64775E-02  3.90116E-02  4.12253E-02  4.34076E-02  4.58391E-02  4.76990E-02  4.86874E-02  4.95828E-02  5.01466E-02  4.99739E-02
   4.97502E-02  4.97044E-02  4.95454E-02  4.91842E-02  4.91222E-02  4.92511E-02  4.92506E-02  4.93810E-02  4.93067E-02  4.88129E-02
   4.79305E-02  4.60571E-02  4.48747E-02  4.46796E-02  4.39367E-02  4.31088E-02  4.26226E-02  4.24957E-02  4.20114E-02  4.13845E-02
   4.12250E-02  4.17713E-02  4.24692E-02  4.32576E-02  4.43139E-02  4.54685E-02  4.67256E-02  4.80157E-02  4.89448E-02  4.93498E-02
   4.99935E-02  5.02905E-02  5.00139E-02  4.94126E-02  4.92672E-02  4.96486E-02  5.02792E-02  5.12311E-02  5.25132E-02  5.38373E-02
   5.50781E-02  5.66469E-02  5.82374E-02  6.02465E-02  6.15139E-02  6.21247E-02  6.22838E-02  6.20317E-02  6.20434E-02  6.23917E-02
   6.24597E-02  6.21419E-02  6.19297E-02  6.20518E-02  6.22633E-02  6.24256E-02  6.28770E-02  6.30786E-02  6.33731E-02  6.45209E-02
   6.59351E-02  6.66654E-02  6.76053E-02  6.90598E-02  7.05017E-02  7.24389E-02  7.47365E-02  7.71627E-02  8.08278E-02  8.48254E-02
   8.81173E-02  9.15008E-02  9.49026E-02  9.81975E-02
 NY background values follow
     3.833E-02    3.858E-02    3.882E-02    3.907E-02    3.931E-02    3.956E-02    3.980E-02    4.005E-02    4.029E-02    4.054E-02
     4.078E-02    4.103E-02    4.127E-02    4.152E-02    4.176E-02    4.201E-02    4.225E-02    4.250E-02    4.274E-02    4.299E-02
     4.323E-02    4.348E-02    4.372E-02    4.396E-02    4.421E-02    4.445E-02    4.470E-02    4.494E-02    4.518E-02    4.542E-02
     4.567E-02    4.591E-02    4.615E-02    4.639E-02    4.663E-02    4.687E-02    4.712E-02    4.736E-02    4.760E-02    4.784E-02
     4.807E-02    4.831E-02    4.855E-02    4.879E-02    4.903E-02    4.927E-02    4.950E-02    4.974E-02    4.998E-02    5.021E-02
     5.045E-02    5.068E-02    5.092E-02    5.115E-02    5.138E-02    5.162E-02    5.185E-02    5.208E-02    5.231E-02    5.254E-02
     5.277E-02    5.300E-02    5.323E-02    5.346E-02    5.369E-02    5.391E-02    5.414E-02    5.437E-02    5.459E-02    5.481E-02
