 
 $NMID
 ID=''
 FMTDAT='(2E13.5)'
 TRAMP=   1.00000E+0
 VOLUME=   1.00000E+0
 $END
  -8.71917E+3   1.18834E+4
  -3.23308E+4   2.15926E+4
  -3.01183E+4   2.36632E+4
  -3.04730E+4   1.88237E+4
  -3.40224E+4   1.61237E+4
  -3.42899E+4   1.40596E+4
  -3.48470E+4   9.48525E+3
  -3.63992E+4   6.02739E+3
  -3.60747E+4   3.27433E+3
  -3.56941E+4  -9.87980E+2
  -3.57442E+4  -4.45086E+3
  -3.45763E+4  -7.16395E+3
  -3.33246E+4  -1.07618E+4
  -3.23057E+4  -1.40371E+4
  -3.03746E+4  -1.65695E+4
  -2.82781E+4  -1.94929E+4
  -2.65657E+4  -2.19600E+4
  -2.40078E+4  -2.38840E+4
  -2.14642E+4  -2.61402E+4
  -1.90048E+4  -2.79655E+4
  -1.60801E+4  -2.90338E+4
  -1.31732E+4  -3.04831E+4
  -1.04264E+4  -3.15679E+4
  -7.15330E+3  -3.19014E+4
  -4.06060E+3  -3.22725E+4
  -1.19575E+3  -3.25145E+4
   2.13034E+3  -3.21310E+4
   5.23021E+3  -3.16042E+4
   8.19498E+3  -3.07174E+4
   1.10873E+4  -2.93806E+4
   1.37855E+4  -2.80476E+4
   1.61645E+4  -2.64239E+4
   1.86158E+4  -2.44583E+4
   2.07213E+4  -2.22567E+4
   2.23824E+4  -2.00623E+4
   2.39410E+4  -1.76016E+4
   2.53421E+4  -1.51079E+4
   2.62417E+4  -1.25529E+4
   2.70743E+4  -9.86293E+3
   2.75550E+4  -7.27821E+3
   2.77885E+4  -4.62062E+3
   2.79017E+4  -1.80167E+3
   2.74750E+4   9.61127E+2
   2.69622E+4   3.41308E+3
   2.62290E+4   5.89345E+3
   2.52410E+4   8.25452E+3
   2.40384E+4   1.04903E+4
   2.26386E+4   1.25704E+4
   2.11406E+4   1.44235E+4
   1.94896E+4   1.61502E+4
   1.75471E+4   1.76869E+4
   1.56483E+4   1.89959E+4
   1.35972E+4   2.00771E+4
   1.16557E+4   2.08851E+4
   9.49563E+3   2.15469E+4
   7.40449E+3   2.20836E+4
   5.26241E+3   2.24084E+4
   3.13436E+3   2.24746E+4
   9.91338E+2   2.23459E+4
  -9.87367E+2   2.20909E+4
  -2.78372E+3   2.15571E+4
  -4.66413E+3   2.09591E+4
  -6.37399E+3   2.02100E+4
  -8.09069E+3   1.93861E+4
  -9.53189E+3   1.83457E+4
  -1.09728E+4   1.72257E+4
  -1.22191E+4   1.61272E+4
  -1.33872E+4   1.48278E+4
  -1.43791E+4   1.33690E+4
  -1.52511E+4   1.19873E+4
  -1.59330E+4   1.05606E+4
  -1.65276E+4   9.24945E+3
  -1.69045E+4   7.71604E+3
  -1.72210E+4   6.33918E+3
  -1.74648E+4   4.96373E+3
  -1.75944E+4   3.57204E+3
  -1.75231E+4   2.22393E+3
  -1.74166E+4   9.28906E+2
  -1.71419E+4  -3.03837E+2
  -1.68614E+4  -1.46559E+3
  -1.64780E+4  -2.55297E+3
  -1.60497E+4  -3.63824E+3
  -1.55186E+4  -4.61858E+3
  -1.49706E+4  -5.53783E+3
  -1.43774E+4  -6.38962E+3
  -1.36554E+4  -7.17955E+3
  -1.29805E+4  -7.90994E+3
  -1.22001E+4  -8.48081E+3
  -1.14733E+4  -9.05418E+3
  -1.07340E+4  -9.51705E+3
  -1.00916E+4  -9.91002E+3
  -9.30150E+3  -1.02409E+4
  -8.64086E+3  -1.05289E+4
  -7.88674E+3  -1.07864E+4
  -7.18461E+3  -1.09636E+4
  -6.47860E+3  -1.10575E+4
  -5.78797E+3  -1.11341E+4
  -5.19688E+3  -1.11945E+4
  -4.52052E+3  -1.12035E+4
  -3.87444E+3  -1.12277E+4
  -3.29268E+3  -1.11262E+4
  -2.76475E+3  -1.09772E+4
  -2.33676E+3  -1.08357E+4
  -1.80995E+3  -1.07159E+4
  -1.29311E+3  -1.05506E+4
  -8.40515E+2  -1.02895E+4
  -3.73303E+2  -1.00725E+4
   5.84570E+1  -9.80957E+3
   4.19874E+2  -9.61223E+3
   7.29888E+2  -9.31239E+3
   1.12681E+3  -9.06387E+3
   1.41340E+3  -8.80730E+3
   1.68665E+3  -8.51887E+3
   2.01301E+3  -8.21868E+3
   2.17514E+3  -7.91830E+3
   2.49061E+3  -7.54846E+3
   2.64238E+3  -7.19143E+3
   2.81071E+3  -6.92000E+3
   2.94831E+3  -6.54740E+3
   3.11792E+3  -6.28377E+3
   3.21127E+3  -5.96229E+3
   3.34539E+3  -5.69688E+3
   3.43762E+3  -5.33247E+3
   3.53236E+3  -5.03657E+3
   3.55249E+3  -4.67189E+3
   3.61013E+3  -4.32486E+3
   3.63085E+3  -4.07562E+3
   3.57967E+3  -3.80330E+3
   3.60530E+3  -3.42428E+3
   3.47807E+3  -3.16074E+3
   3.45463E+3  -2.89899E+3
   3.39538E+3  -2.58942E+3
   3.31275E+3  -2.37567E+3
   3.22943E+3  -2.16473E+3
   3.12061E+3  -1.88606E+3
   3.01653E+3  -1.66875E+3
   2.91775E+3  -1.40971E+3
   2.75853E+3  -1.23603E+3
   2.62226E+3  -1.10050E+3
   2.52364E+3  -9.23537E+2
   2.32706E+3  -6.83406E+2
   2.20030E+3  -6.93000E+2
   2.08329E+3  -5.06916E+2
   1.93417E+3  -3.56175E+2
   1.80616E+3  -2.36401E+2
   1.61774E+3  -1.42562E+2
   1.50117E+3  -1.11143E+2
   1.38459E+3   5.70928E+1
   1.20358E+3   1.00131E+2
   1.09888E+3   1.84236E+2
   9.72693E+2   1.86894E+2
   8.13856E+2   2.13852E+2
   7.46802E+2   2.98295E+2
   6.05252E+2   3.07797E+2
   5.77927E+2   3.37417E+2
   4.54393E+2   2.89713E+2
   3.80052E+2   3.60925E+2
   3.01356E+2   3.02396E+2
   2.17338E+2   4.12760E+2
   1.77782E+2   3.74900E+2
   1.02330E+2   3.79772E+2
   6.32739E+1   4.69714E+2
   1.97429E+1   5.27720E+2
   1.76078E+1   5.36819E+2
  -3.50296E+1   5.53943E+2
  -1.28960E+2   5.35201E+2
  -7.22441E+1   5.08810E+2
  -1.43124E+2   5.21162E+2
  -1.97747E+2   5.59849E+2
  -2.18053E+2   6.56741E+2
  -1.65745E+2   6.47712E+2
  -2.61991E+2   6.31168E+2
  -2.78125E+2   7.15165E+2
  -2.70401E+2   7.99920E+2
  -3.63264E+2   8.27054E+2
  -3.60386E+2   8.13508E+2
  -3.93840E+2   9.26498E+2
  -4.75216E+2   8.51768E+2
  -5.68788E+2   9.67731E+2
  -4.74323E+2   1.03977E+3
  -5.63381E+2   1.00567E+3
  -5.45873E+2   1.08309E+3
  -6.12486E+2   1.09662E+3
  -6.29110E+2   1.11893E+3
  -6.93070E+2   1.20684E+3
  -7.60757E+2   1.20204E+3
  -8.32078E+2   1.30246E+3
  -9.35782E+2   1.24662E+3
  -9.58985E+2   1.26936E+3
  -9.85548E+2   1.28609E+3
  -1.01470E+3   1.31753E+3
  -1.06934E+3   1.37483E+3
  -1.16660E+3   1.34613E+3
  -1.17627E+3   1.32851E+3
  -1.29669E+3   1.32468E+3
  -1.33039E+3   1.30254E+3
  -1.31037E+3   1.26662E+3
  -1.37615E+3   1.22265E+3
  -1.38251E+3   1.18884E+3
  -1.48775E+3   1.25613E+3
  -1.53444E+3   1.22164E+3
  -1.57175E+3   1.17061E+3
  -1.61959E+3   1.09095E+3
  -1.64530E+3   1.09864E+3
  -1.66815E+3   1.13738E+3
  -1.66359E+3   1.08908E+3
  -1.65843E+3   1.05572E+3
  -1.70663E+3   9.94859E+2
  -1.71155E+3   9.78455E+2
  -1.74675E+3   9.62455E+2
  -1.73321E+3   9.12622E+2
  -1.80360E+3   8.09071E+2
  -1.75601E+3   7.94185E+2
  -1.72145E+3   7.88294E+2
  -1.72297E+3   7.70344E+2
  -1.71495E+3   7.36196E+2
  -1.67167E+3   6.91340E+2
  -1.72600E+3   6.71770E+2
  -1.73677E+3   6.89773E+2
  -1.66662E+3   5.85521E+2
  -1.65346E+3   6.44622E+2
  -1.66109E+3   6.54838E+2
  -1.56264E+3   5.63676E+2
  -1.58938E+3   5.83938E+2
  -1.54320E+3   5.69061E+2
  -1.54187E+3   5.52749E+2
  -1.57078E+3   4.97351E+2
  -1.51738E+3   4.94179E+2
  -1.49190E+3   5.13150E+2
  -1.57639E+3   5.16015E+2
  -1.52549E+3   5.13722E+2
  -1.53430E+3   5.54202E+2
  -1.53513E+3   5.07722E+2
  -1.46871E+3   4.57741E+2
  -1.42395E+3   4.32714E+2
  -1.46771E+3   4.44486E+2
  -1.49687E+3   4.05138E+2
  -1.43837E+3   4.85435E+2
  -1.44089E+3   4.47843E+2
  -1.38997E+3   4.13504E+2
  -1.38841E+3   5.01415E+2
  -1.40378E+3   4.36104E+2
  -1.35632E+3   4.36265E+2
  -1.34773E+3   3.62901E+2
  -1.33136E+3   3.69449E+2
  -1.30717E+3   3.94996E+2
  -1.30338E+3   3.95087E+2
  -1.26161E+3   4.24199E+2
  -1.22656E+3   4.26225E+2
  -1.31214E+3   3.96928E+2
  -1.21876E+3   3.77757E+2
  -1.22442E+3   3.59096E+2
  -1.19058E+3   3.31606E+2
  -1.21674E+3   4.15311E+2
  -1.20159E+3   3.98114E+2
  -1.18728E+3   3.63290E+2
  -1.14937E+3   3.63951E+2
  -1.10468E+3   3.64938E+2
  -1.10655E+3   3.23573E+2
  -1.05563E+3   3.08846E+2
  -1.14480E+3   3.77184E+2
  -1.06437E+3   3.57936E+2
  -9.96613E+2   3.38181E+2
  -1.04562E+3   4.06280E+2
  -1.02383E+3   4.03825E+2
  -1.04860E+3   3.81914E+2
  -1.05732E+3   3.51931E+2
  -1.07859E+3   3.86531E+2
  -1.00676E+3   3.92503E+2
  -1.00571E+3   3.58794E+2
  -1.02843E+3   3.20183E+2
  -9.73776E+2   3.29858E+2
  -9.85593E+2   3.37620E+2
  -1.01058E+3   3.04981E+2
  -9.61892E+2   3.53991E+2
  -9.89611E+2   3.37913E+2
  -1.01766E+3   3.02269E+2
  -1.01880E+3   3.07543E+2
  -9.40158E+2   3.73321E+2
  -1.03113E+3   3.47778E+2
  -9.49868E+2   2.37621E+2
  -9.53359E+2   2.83194E+2
  -9.90960E+2   2.49223E+2
  -9.35626E+2   1.60382E+2
  -9.66692E+2   2.41039E+2
  -9.63432E+2   2.56479E+2
  -9.03677E+2   1.87729E+2
  -9.18253E+2   1.72590E+2
  -8.08770E+2   2.18317E+2
  -8.95932E+2   1.06947E+2
  -8.32264E+2   1.30531E+2
  -8.69075E+2   1.75768E+2
  -7.85042E+2   7.26345E+1
  -8.18337E+2   1.66121E+2
  -7.85663E+2   1.16056E+2
  -7.81779E+2   1.10949E+2
  -7.37507E+2   9.07313E+1
  -6.76785E+2   9.28271E+1
  -6.61694E+2   1.25967E+2
  -6.70654E+2   5.16026E+1
  -6.12915E+2   5.98121E+1
  -6.00009E+2   5.06914E+1
  -6.56136E+2   7.39841E+1
  -5.83057E+2   8.38438E+1
  -5.36306E+2   4.59332E+1
  -5.68815E+2   2.06797E+1
  -4.61323E+2   8.35181E+1
  -4.56213E+2   4.83171E+1
  -4.48433E+2   1.07808E+2
  -4.41870E+2   4.83025E+1
  -4.71494E+2   6.93770E+1
  -3.69107E+2   5.20973E+1
  -3.91422E+2   1.47794E+2
  -3.66383E+2   1.67424E+2
  -3.41104E+2   1.30261E+2
  -3.81871E+2   2.11037E+2
  -3.26261E+2   2.03737E+2
  -2.76659E+2   1.80418E+2
  -3.16293E+2   1.85419E+2
  -3.43508E+2   1.78128E+2
  -2.99024E+2   2.35402E+2
  -2.58455E+2   2.07056E+2
  -3.38798E+2   2.22740E+2
  -2.35154E+2   2.54699E+2
  -3.08582E+2   1.25826E+2
  -2.70248E+2   2.27915E+2
  -2.71891E+2   2.37072E+2
  -2.65162E+2   1.73829E+2
  -2.07386E+2   2.61508E+2
  -2.20567E+2   2.55148E+2
  -2.06529E+2   2.42028E+2
  -2.67349E+2   2.82857E+2
  -2.83685E+2   2.68372E+2
  -2.46170E+2   1.83660E+2
  -2.80142E+2   2.19955E+2
  -2.47112E+2   2.38931E+2
  -2.84294E+2   2.59221E+2
  -2.43585E+2   2.64371E+2
  -2.66164E+2   2.55047E+2
  -2.57906E+2   2.17434E+2
  -3.02076E+2   2.27338E+2
  -2.80506E+2   2.32345E+2
  -2.26274E+2   2.91779E+2
  -2.46520E+2   1.94402E+2
  -2.59403E+2   2.77384E+2
  -2.96582E+2   2.56302E+2
  -2.72827E+2   1.67378E+2
  -2.23976E+2   1.64868E+2
  -1.93122E+2   1.83190E+2
  -1.83940E+2   1.74730E+2
  -2.41762E+2   1.62200E+2
  -2.17514E+2   2.14400E+2
  -1.90116E+2   1.06427E+2
  -1.99464E+2   1.02815E+2
  -1.57637E+2   1.66213E+2
  -1.74035E+2   1.11205E+2
  -1.89962E+2   9.40976E+1
  -1.50329E+2   1.25554E+2
  -1.81232E+2   8.79515E+1
  -1.40777E+2   8.58990E+1
  -1.52155E+2   8.37803E+1
  -1.25824E+2   1.34449E+2
  -8.11819E+1   6.20280E+1
  -1.43405E+2   1.33970E+1
  -1.11714E+2   9.05677E+1
  -1.33488E+2   1.22493E+2
  -1.38539E+2   1.25030E+2
