 
 $NMID
 ID=''
 FMTDAT='(2E13.5)'
 TRAMP=   1.00000E+0
 VOLUME=   1.00000E+0
 $END
   6.95794E+2   8.21577E+1
   6.52119E+1   6.30824E+2
   7.97984E+1  -3.38292E+3
  -6.97764E+2   1.01197E+3
  -5.99179E+2  -6.53076E+1
   2.51708E+3  -2.03213E+2
  -7.05948E+2   2.30284E+2
  -6.86620E+2   7.18225E+2
  -5.67839E+2  -1.34105E+3
  -1.32197E+3  -2.18424E+3
   1.49311E+2  -1.77357E+3
   4.04598E+3   7.89640E+2
  -1.88526E+2   1.84166E+3
  -1.66827E+3   1.39241E+3
  -1.69390E+3  -1.06448E+3
   8.07723E+2  -6.69598E+2
   1.33802E+3   5.04905E+2
   1.30163E+3  -5.56438E+1
   1.13203E+3   6.08216E+2
   8.64981E+2  -2.92664E+3
   2.92794E+3   8.89212E+2
  -1.89239E+3   1.42055E+3
  -3.08897E+3   2.98274E+2
   2.64591E+2  -3.37324E+3
   2.27743E+3   1.45130E+3
  -1.53013E+3   2.42968E+3
  -2.92642E+3   1.13413E+3
  -3.60713E+2  -1.97382E+3
   3.52118E+3  -7.91520E+2
   2.54890E+3   2.90132E+3
  -3.91757E+3   3.85582E+3
  -5.05692E+3   2.69969E+2
   7.65995E+2  -3.49448E+3
   2.02305E+3   2.24454E+3
  -1.56560E+3  -1.26816E+3
  -3.62249E+2  -2.84707E+3
   2.79113E+3   3.13206E+3
  -2.13063E+3   5.94049E+2
  -4.02193E+3  -1.38127E+3
   4.58475E+2   9.75567E+2
  -2.24721E+3  -1.99674E+3
   1.76597E+3  -5.23858E+3
   7.81716E+3   1.58347E+3
   9.30837E+2   4.11250E+3
  -2.24169E+3   5.27850E+2
  -1.61987E+2  -1.83620E+3
   9.24451E+2   2.26562E+3
  -1.59735E+3  -3.36854E+3
   1.49026E+3  -3.83982E+3
   1.04021E+3  -3.62088E+3
   1.19798E+3  -1.07756E+3
   8.95298E+2   3.41968E+2
  -4.89794E+2  -5.70672E+1
  -6.24852E+2   4.51793E+1
  -3.83590E+2   3.85978E+2
   3.74477E+2  -1.23684E+3
   2.30296E+3   6.43242E+2
   1.42890E+3   1.07526E+3
   2.50243E+1   3.58611E+3
  -1.83985E+3   2.75842E+3
  -3.33333E+3   2.57319E+3
  -1.70261E+3  -1.57541E+3
   2.53440E+2  -9.99003E+2
   8.70373E+2   1.02302E+3
  -7.37906E+2   1.26465E+2
  -3.00750E+3  -2.60174E+3
  -2.06497E+2  -1.58089E+3
   1.01902E+3  -8.72787E+2
  -1.06187E+3   9.02682E+2
   7.56322E+0  -1.17181E+3
   5.31015E+2  -2.24016E+3
  -1.70273E+3   2.81425E+2
   5.04445E+2  -1.09598E+3
  -1.72383E+3  -1.94787E+3
   1.33916E+3  -3.54247E+2
   5.32448E+2  -4.91315E+2
   1.16347E+3   1.74183E+3
  -7.87305E+2   7.92202E+2
   6.92248E+2  -8.21068E+2
   2.70861E+3  -5.29691E+2
   1.22821E+3   3.12084E+2
   9.54059E+2   7.82484E+1
  -1.75101E+2   1.14988E+2
   2.92739E+3  -1.02315E+1
  -1.12780E+3   2.51291E+3
  -2.33750E+3   2.54836E+3
  -2.44100E+3  -7.71968E+2
  -4.65918E+2  -2.95220E+3
   1.15959E+3  -1.83282E+3
   5.81322E+2   3.40922E+2
  -1.19940E+3  -4.74375E+2
   2.33013E+2   9.74119E+0
   1.10748E+3  -1.32481E+3
  -1.12347E+3   2.45947E+3
   9.55349E+2  -1.78967E+2
  -1.85630E+3  -2.23782E+3
   2.27619E+3  -1.36965E+3
   1.82645E+3  -2.62351E+2
  -1.06954E+3   1.85815E+3
  -2.81587E+3  -1.54100E+3
  -5.74437E+2  -1.06834E+3
   4.19666E+2  -1.75620E+3
   1.51530E+3   1.84743E+3
  -1.00567E+3   2.57406E+3
  -1.29647E+3   1.25592E+3
  -1.30179E+3   1.84360E+1
   1.44187E+2  -2.25200E+3
  -6.55658E+2  -7.81950E+2
  -3.86439E+1  -6.83618E+2
   3.52706E+2  -1.08018E+3
   9.04118E+2  -1.92410E+3
   1.49560E+3  -4.71909E+2
  -1.25882E+3   6.74024E+2
   5.78974E+2  -6.00398E+2
   4.09778E+2   8.70417E+2
  -1.64762E+3   3.75506E+2
   7.73466E+2  -5.09980E+2
   5.67559E+2  -8.25997E+2
  -4.67949E+2  -7.77919E+2
   1.35039E+3   2.54316E+3
   3.28374E+2  -8.52912E+2
  -1.01339E+3   6.45576E+2
  -4.59818E+2   1.19472E+3
   7.63003E+2  -1.62989E+2
  -1.94195E+2   1.73344E+3
  -5.33502E+2   3.88645E+2
   7.47398E+2   2.06503E+3
   7.27612E+2   1.13520E+3
  -3.06843E+2   2.21983E+3
  -8.05853E+2  -2.14294E+2
  -4.52193E+2  -1.32684E+3
   1.44566E+3  -8.16364E+2
  -4.88118E+2   1.14211E+3
  -1.20947E+2   2.41618E+3
  -1.59311E+3  -7.83805E+2
   8.24497E+2  -1.20430E+3
   2.45419E+3  -2.13744E+2
  -2.43674E+2   2.57442E+3
  -9.53578E+2   1.10107E+3
   3.49047E+2  -1.06589E+1
  -6.71669E+2   1.52478E+2
  -2.73860E+3   7.94318E+2
  -1.91799E+3   1.62099E+3
  -1.16345E+3   9.55905E+2
  -9.51784E+1  -6.29676E+2
  -7.39633E+2   4.77420E+2
   3.50338E+2  -5.62556E+1
   1.48408E+2  -6.56214E+2
  -3.50760E+1  -5.02352E+2
  -1.68436E+3  -1.00340E+3
   3.08324E+2  -7.32891E+2
  -4.44010E+2  -1.70749E+3
   1.25012E+3   7.61865E+2
  -3.33459E+2   8.38415E+2
  -9.85184E+2   1.01487E+3
  -4.56911E+2  -1.04744E+3
   4.84169E+2   9.18667E+2
   5.41717E+2  -9.79418E+2
   3.24286E+2   7.02583E+2
   1.22510E+3   4.36108E+2
  -6.05729E+2  -5.74990E+2
   1.33364E+3  -2.92615E+2
   4.96740E+2  -2.64400E+2
   1.16930E+3   9.29079E+2
   9.96583E+2  -1.44337E+3
  -2.23553E+2   1.57215E+3
   9.98567E+2  -7.69214E+2
   9.63223E+1  -6.26335E+2
  -4.80826E+2  -1.05935E+3
  -8.36593E+2  -4.13939E+2
  -5.02299E+2  -1.02654E+3
   1.43833E+3   5.53798E+2
  -5.72531E+1   1.44203E+3
  -8.00260E+2  -5.11848E+2
   9.04241E+2  -5.12569E+2
  -7.14147E+1   3.48837E+3
   2.16649E+2   9.80657E+2
   7.48606E+2   8.71481E+2
   2.24392E+3  -5.40714E+2
  -5.11406E+2   1.69357E+2
   7.09578E+2   6.07902E+2
   2.73158E+2   8.12687E+2
   2.02535E+3   1.55931E+2
   1.17597E+3   7.35800E+2
   3.20425E+2  -1.75450E+3
  -5.23146E+2  -1.31351E+2
  -1.76159E+3  -2.47482E+3
   8.91315E+2   5.33283E+2
   2.11605E+2  -1.17056E+3
  -3.09026E+2   1.19526E+3
   1.93483E+3   7.75382E+2
   1.49559E+2   4.50957E+2
   3.24675E+2  -3.00262E+1
   2.00039E+3   1.22683E+3
  -2.65042E+2   8.00318E+2
  -4.13040E+2  -2.98663E+2
  -1.14822E+3   8.29327E+2
  -6.25815E+2   8.73527E+2
   1.28052E+3  -4.90040E+2
  -9.20883E+2  -1.47255E+1
   1.09529E+3  -2.29401E+2
  -4.21177E+2   8.69555E+2
   2.39909E+3  -7.62140E+2
   2.99589E+2   1.64363E+1
   4.46086E+2   1.63768E+3
  -4.07767E+2   1.59810E+3
   2.15648E+2  -1.89103E+2
  -6.99435E+2   1.48329E+3
   8.47000E+1  -1.58658E+2
  -1.37334E+3   1.53405E+3
  -1.00061E+3   1.19189E+3
  -9.97170E+2   2.36835E+3
  -3.66860E+2   3.21215E+2
  -2.01681E+3  -3.31140E+2
   7.10402E+2  -2.69389E+2
  -6.98932E+2  -3.75613E+2
   2.68634E+3   3.09800E+2
  -1.17986E+3  -2.90691E+2
  -1.46716E+3  -2.76420E+2
  -7.15998E+2  -5.84239E+0
  -2.15945E+1   1.39995E+3
  -1.79697E+3  -8.63689E+2
  -7.50522E+2  -5.05251E+2
   6.15148E+2   7.05768E+2
  -1.40317E+3  -2.53902E+2
   2.38530E+2  -1.67786E+2
   1.11893E+3   8.82943E+2
  -6.23969E+2   3.12412E+2
   8.17937E+2   4.59732E+2
   9.62525E+1   2.69091E+3
   1.14319E+3   1.04853E+3
  -2.16447E+2  -6.82339E+2
  -3.77007E+2  -1.46413E+3
   1.12235E+2   1.12931E+3
  -8.51868E+2   3.43375E+3
  -3.69468E+2   1.44473E+3
  -3.93603E+2   1.57951E+3
  -1.71044E+3   1.23854E+3
   7.23774E+2   9.43549E+2
   8.41719E+2   1.36879E+3
  -5.86046E+2   1.74957E+3
  -3.68655E+2   4.32040E+2
   5.75937E+2   1.72902E+3
  -4.86702E+2  -1.19972E+3
  -5.50706E+2  -1.29436E+3
   7.72246E+2   2.61074E+3
  -3.89503E+2   8.61708E+2
  -3.87553E+2  -2.33303E+2
  -3.04389E+2   1.67038E+3
  -2.62053E+2  -2.08707E+3
  -3.24998E+3  -1.92397E+0
   2.99948E+2  -7.80746E+2
   5.06977E+2   1.60525E+3
   3.07242E+2   1.13910E+3
  -1.06347E+3   4.86520E+2
  -2.15735E+3  -7.53879E+2
   1.28776E+2   6.38537E+2
  -1.89468E+3  -8.61330E+2
  -1.58087E+2  -1.73766E+2
  -2.03743E+3  -8.56281E+2
  -1.81073E+3   3.45323E+2
  -1.04238E+3  -1.50215E+3
  -9.10546E+2  -4.14006E+2
  -7.01307E+2  -1.65048E+3
  -2.81703E+3  -1.36541E+3
  -4.24682E+2  -1.22414E+3
   5.76214E+2  -8.10719E+2
   6.50724E+2   9.35414E+2
  -9.31879E+2  -9.24327E+2
  -8.39840E+2   2.38640E+3
   3.06575E+2  -4.71290E+2
  -2.10660E+2   7.91483E+2
  -1.00281E+3  -3.63853E+2
  -7.85778E+2  -1.33173E+3
   1.00498E+3   1.34036E+3
  -1.18189E+3   6.09897E+2
  -1.66629E+2  -2.70237E+2
   6.19249E+2  -9.17203E+2
  -4.85828E+2  -6.24440E+2
   1.39520E+3  -9.55918E+2
   7.97781E+2  -1.14623E+3
  -2.07681E+2  -2.04260E+3
   3.11454E+2  -5.84943E+2
   1.24081E+3  -3.08006E+2
   3.15304E+2  -1.95686E+2
   1.29333E+3  -1.69240E+1
   4.29361E+2   9.27861E+2
  -1.35170E+2  -7.46758E+2
   2.93965E+2  -2.32406E+2
   1.30801E+3  -1.49314E+2
   8.33976E+2  -7.72598E+2
   5.24142E+2  -2.24105E+2
   2.31581E+3  -1.05163E+2
   9.35790E+2   1.76732E+2
   1.15320E+3  -2.04985E+2
   1.27434E+3   6.14776E+2
  -7.92123E+2  -1.21362E+3
   7.77677E+2  -2.54070E+2
   1.42288E+3   3.31821E+2
  -9.89297E+2  -9.46938E+2
   1.12528E+3   1.02622E+3
   8.09218E+2   8.45182E+1
   2.03741E+2   6.29054E+2
  -1.76766E+3  -1.20432E+3
   1.07782E+3   8.86744E+2
  -2.58427E+2   1.14457E+2
   1.26791E+3   1.43516E+3
   4.17551E+1   6.91325E+2
   1.07330E+2   1.50193E+1
  -6.97072E+2   1.53794E+1
  -3.39465E+2  -1.94546E+3
   3.74941E+2   7.98515E+1
  -1.73106E+3   6.58530E+2
  -1.87200E+1   8.18336E+1
   1.09184E+3  -8.51223E+2
  -7.23958E+2   2.41190E+3
  -1.29823E+3   6.30339E+1
  -1.14274E+3  -1.34952E+1
  -7.47289E+1  -8.87286E+2
  -9.65049E+2  -2.24314E+3
   5.49687E+2   5.55335E+2
  -6.50755E+2   7.77172E+2
   3.46828E+2   1.16158E+3
   1.32220E+3   1.19282E+3
  -3.18122E+2   3.46882E+2
   2.35226E+2   9.00200E+2
   1.60011E+2  -2.62577E+3
  -1.17561E+3  -3.77097E+2
  -1.29051E+3   1.40569E+3
   9.22391E+2   1.52527E+3
  -1.25152E+3   3.88635E+2
   7.52432E+2  -4.63313E+2
   1.46376E+3  -3.36494E+2
  -1.32711E+2  -5.67102E+2
  -4.28005E-1   1.29907E+3
   1.42263E+3   5.88655E+2
  -1.45902E+3   4.78132E+2
   1.24909E+3  -2.65124E+1
   3.95076E+2  -1.12296E+2
  -1.69351E+3   2.38400E+2
   9.62523E+2  -3.47472E+1
   3.02889E+2  -1.69419E+1
   3.36598E+2   7.17784E+2
  -3.88677E+2   1.00847E+2
   1.11461E+3  -6.02483E+2
   3.74808E+2  -1.56582E+3
   1.63410E+3  -5.36964E+2
   1.02335E+3  -5.27248E+1
  -2.75716E+2  -4.49176E+2
  -5.68076E+1  -1.46443E+3
  -6.60354E+1  -1.24091E+3
   1.89787E+3  -2.87990E+3
  -2.13858E+2  -2.86673E+2
   1.98936E+3   7.01201E+2
   2.46244E+3  -2.12670E+3
  -7.65761E+2   9.52868E+2
  -2.32199E+3   1.50885E+3
  -2.62053E+3   2.21807E+3
  -5.33422E+2   1.12534E+3
   3.45737E+2   2.61912E+3
   1.25586E+3   9.14432E+2
   2.32781E+2  -1.00720E+3
   1.03373E+3   1.10846E+3
  -1.52158E+3  -1.04339E-2
  -4.58809E+1   7.71337E+2
  -6.41242E+2  -1.47879E+2
   2.51788E+2   1.82805E+2
