 
 $NMID
 ID=''
 FMTDAT='(2E13.5)'
 TRAMP=   1.00000E+0
 VOLUME=   1.00000E+0
 $END
  -5.64762E+1   3.04846E+2
   9.75405E+1   5.32311E+2
   2.07352E+3  -2.41064E+2
   1.21586E+3  -1.87483E+3
  -4.28506E+2  -2.60680E+3
  -1.67084E+3  -6.49948E+2
  -1.46480E+3  -6.61194E+2
  -1.20995E+3   2.33443E+3
   8.07045E+2   1.30404E+3
   1.68826E+3   2.52476E+2
   8.24181E+2  -1.83116E+3
   9.98992E+1  -2.32384E+3
   3.87203E+2  -3.11045E+3
   2.83620E+2   8.57606E+0
  -5.72628E+2  -2.34656E+1
  -2.21562E+3   2.93869E+3
  -1.92842E+3   1.02603E+3
   1.77641E+3  -9.02376E+2
   2.59515E+3   4.08051E+2
  -3.61842E+2  -1.60161E+3
  -7.03957E+2  -2.91590E+2
   1.37362E+3  -1.16453E+3
   1.37035E+3  -7.95286E+2
   7.62100E+2   2.43856E+3
  -3.44242E+3   1.11737E+3
  -7.70063E+2  -1.22491E+3
  -1.14385E+3  -1.50620E+3
  -1.14273E+3   1.75874E+3
  -9.29670E+2   2.19275E+3
  -1.13532E+3   7.55936E+2
   1.01557E+2  -1.80730E+3
  -1.29883E+3   2.89348E+2
   1.52843E+3   3.13805E+3
   7.98264E+2   3.20971E+3
   1.28089E+3   2.52988E+3
   1.02328E+3   1.46834E+3
  -1.18961E+3   6.96411E+2
  -9.92851E+2  -1.82650E+3
  -6.68016E+2  -1.28926E+3
  -4.47128E+1  -3.96075E+2
   2.13340E+3  -7.60628E+2
   1.53429E+3   7.28028E+1
   1.13404E+3   1.20600E+3
  -1.42391E+3   2.46820E+2
  -2.86194E+3   1.35248E+3
   9.20644E+2  -3.36109E+2
   1.02686E+3  -8.73845E+2
   1.49135E+3  -6.47899E+2
   6.10220E+3  -2.25174E+3
   2.75498E+3  -1.64598E+3
   1.13325E+3  -2.92792E+2
   1.47251E+2   1.53964E+3
  -1.41234E+3  -1.65874E+3
  -3.90016E+3  -1.18070E+3
  -9.67079E+2   8.91756E+2
   3.88144E+2  -2.69462E+3
  -1.30082E+3   5.08420E+1
  -2.76015E+3  -7.16108E+2
  -1.23431E+3   1.70493E+3
   5.80037E+2   6.57662E+2
  -8.87615E+2   1.47472E+3
  -9.16589E+2  -9.88560E+2
  -1.48909E+3  -7.42172E+2
  -8.38048E+2  -1.79869E+3
  -9.11916E+2  -3.85382E+2
   1.24303E+1  -1.24201E+3
   4.55981E+2  -2.03030E+3
   1.44781E+3  -2.35081E+3
   7.86798E+2   1.45428E+3
   4.26746E+2   1.66974E+3
  -3.93213E+3   1.19609E+3
  -2.70882E+3   8.13099E+2
  -7.23233E+2   9.99482E+2
  -2.98249E+2   1.20382E+3
  -9.38692E+1   4.98709E+2
  -3.14725E+3   8.43970E+2
  -1.18571E+2   9.75999E+2
   3.77240E+2   5.81216E+2
  -1.91259E+3   1.89401E+1
  -1.24482E+3  -1.68929E+2
  -9.51541E+2  -9.36722E+2
   1.53197E+2  -2.44331E+2
  -8.47410E+1  -3.46642E+3
  -1.69933E+2  -2.68493E+3
   2.24260E+3  -2.01327E+3
   2.02771E+3  -7.54918E+2
   3.10358E+3  -2.72888E+3
   1.32578E+3   1.14060E+3
   3.97742E+2  -7.86338E+1
   2.79658E+2   6.79809E+2
  -3.05151E+1  -1.47984E+3
   2.94983E+3   2.07743E+3
   1.70620E+3   7.01442E+2
   2.92285E+1  -3.14619E+2
   7.66529E+2  -3.39096E+3
   2.28239E+3  -3.29280E+1
   3.16547E+3   7.94175E+2
  -2.40198E+3   1.16912E+3
   1.95740E+2  -2.34938E+3
  -5.13189E+0  -5.81319E+2
   3.22568E+2   8.31572E+2
   2.20195E+3   1.14049E+3
  -3.12940E+2   8.79294E+2
  -1.96228E+3   1.58224E+3
   2.00745E+3  -1.04739E+3
  -1.57088E+3  -1.29173E+3
   4.13028E+2  -8.88821E+2
  -1.66537E+1  -1.55906E+3
   4.36139E+2  -5.35556E+2
   2.04146E+3  -7.65478E+2
  -3.69061E+2   2.63882E+3
  -2.46313E+3  -2.23939E+1
  -5.62212E+2   1.07451E+3
  -1.88704E+3   1.42036E+3
  -1.18587E+3   7.05805E+2
  -2.74493E+3   1.56802E+1
   1.39559E+2   1.71903E+3
  -4.73928E+2  -1.34970E+2
   9.96960E+2  -6.00674E+1
   4.29295E+2   1.04824E+3
   1.39125E+3   1.38347E+3
  -8.99285E+2   2.43481E+3
  -2.47739E+3   5.78975E+0
  -1.73448E+3   3.25226E+3
   3.81884E+2  -4.92434E+2
  -1.51043E+3  -1.52156E+3
   9.08472E+2  -8.82513E+2
  -6.03983E+2  -7.54607E+2
  -3.36999E+2   2.06180E+3
  -5.03078E+2   8.68963E+2
   4.99011E+2   1.86542E+2
   3.27443E+2  -1.70389E+3
   2.24857E+3   1.00463E+3
   1.72946E+2   3.28473E+2
  -6.06297E+2   6.89168E+2
  -1.12197E+3   5.09429E+2
   6.54343E+1  -2.03772E+3
   1.29868E+3   5.67664E+2
  -3.51101E+2  -3.66917E+2
   2.20769E+3  -6.61202E+2
   2.26259E+2   8.73398E+2
  -7.73312E+2  -8.89334E+2
  -7.67769E+2   1.32468E+3
  -2.59018E+2  -1.44700E+3
  -1.59472E+3  -5.17527E+2
   1.69527E+3  -1.68724E+3
   8.85937E+2  -2.69146E+3
   1.56203E+3   1.03300E+3
  -9.84862E+2   5.14780E+2
  -1.33114E+3  -2.90306E+2
  -5.50548E+2  -1.47211E+3
  -9.48313E+2  -6.43379E+2
  -1.75666E+3  -2.38038E+3
  -4.40042E+2  -1.93083E+3
  -1.33104E+3  -8.11770E+2
   9.72263E+2  -5.58788E+2
   1.78292E+3  -2.48219E+2
   5.48089E+1  -1.67713E+3
  -1.11660E+2  -1.32057E+3
  -9.96985E+1   1.99369E+2
  -1.16277E+3  -1.73196E+3
   2.02213E+0   1.71038E+3
   1.22290E+3  -7.31128E+2
  -5.61682E+2  -6.39148E+2
   1.95949E+3   1.96567E+2
  -7.57000E+2  -1.10775E+3
   3.53084E+2  -1.78010E+2
   1.76413E+3  -1.13865E+2
   1.28819E+3  -2.68427E+1
   1.42759E+3   2.33257E+3
  -1.03863E+3   1.58154E+3
  -1.31820E+3  -8.94668E+1
   1.38598E+3   7.19966E+2
   9.44809E+0  -1.55322E+2
  -7.05652E+2  -4.37924E+2
  -1.20801E+3  -1.47670E+3
  -1.85764E+3  -3.17673E+2
   1.40377E+2   4.07619E+2
   1.51065E+3   9.12490E+2
   7.41932E+2   3.22920E+2
  -9.66299E+2   7.88551E+2
  -3.06530E+2  -5.57373E+2
   8.45122E+1   1.70883E+3
   1.28518E+2   1.20666E+3
   2.90270E+1   1.67246E+2
   1.06165E+3   1.10799E+3
   2.51297E+3   1.06792E+3
  -3.48404E+2   6.45190E+2
   5.75599E+2   1.04578E+3
   1.76847E+2   1.07344E+3
   1.27632E+3  -1.38858E+3
   4.90262E+2   1.88283E+3
   5.06426E+2   2.02196E+3
   1.38080E+2   1.34025E+3
  -2.34651E+3   4.70447E+2
   2.49201E+3  -1.23169E+3
   2.23953E+3   3.26942E+2
   1.66008E+3   1.28294E+3
   2.89808E+3  -4.56931E+2
   1.18310E+2   5.30134E+2
  -9.04023E+1  -3.66525E+2
   9.13342E+1  -1.01961E+3
   7.38362E+2   3.28062E+2
  -9.02812E+2   2.49055E+2
  -1.81953E+3   1.41399E+3
  -1.83801E+2  -5.76116E+2
  -2.30515E+3   5.85452E+2
  -1.02822E+2  -2.93902E+3
  -2.06822E+2  -5.45191E+2
   3.14258E+2   4.55556E+1
   1.64937E+3   4.50574E+2
  -7.35615E+2   2.70440E+3
  -1.07112E+3   5.57129E+1
   6.45593E+2  -2.74070E+1
   5.91115E+2  -1.18299E+3
   1.22695E+3  -1.26248E+2
   5.96621E+2   3.12428E+2
   1.81181E+3   8.90298E+2
   9.33567E+2  -1.09322E+3
   4.26183E+2  -2.20895E+3
  -5.82287E+2  -1.03652E+3
   1.01767E+3   1.25808E+3
   6.00822E+2   7.27339E+2
   8.53269E+2  -2.24915E+2
  -9.73381E+2   2.01517E+3
   2.10855E+2  -1.30248E+2
   2.44656E+2  -3.12949E+1
  -7.63112E+2  -5.48627E+2
   1.25024E+3  -5.72260E+2
   4.30670E+2   1.98535E+3
  -2.48534E+2  -1.13997E+3
   1.14464E+3  -2.31557E+3
  -1.41319E+3   2.66655E+2
   2.32833E+3  -1.62106E+3
  -1.16569E+3   1.06048E+3
   4.94071E+2   5.55574E+2
   2.25932E+3  -9.63441E+2
   5.49971E+2  -2.21980E+2
   7.84872E+2  -1.44876E+2
   8.02324E+2   1.51971E+3
   3.84395E+2   1.79716E+3
  -1.29661E+3   8.98441E+2
  -1.49134E+3   1.63140E+3
   6.41876E+2  -4.48482E+2
   4.84289E+2   8.01653E+2
  -1.19587E+3  -2.67494E+2
   2.98679E+2  -1.13291E+3
   6.75963E+2   1.11515E+3
   1.21491E+3  -3.39207E+2
  -1.15040E+3   1.20912E+3
   7.69103E+2  -2.07452E+3
   9.47014E+2   1.21970E+3
   1.53834E+2   1.04183E+3
   3.65729E+2   1.25786E+3
  -2.30969E+3   1.14807E+3
  -8.89867E+2  -2.29067E+2
   8.88084E+2  -1.07414E+3
   9.76335E+1  -9.53669E+2
   1.03033E+3  -6.94893E+1
   3.71292E+2   1.08637E+3
   5.24467E+2  -1.82689E+3
   6.67619E+1   3.62822E+3
   1.19256E+3   1.29592E+2
  -1.13062E+3  -8.57302E+1
  -6.22176E+2   2.00501E+2
   8.94505E+2   8.21074E+2
   2.25009E+2  -9.86506E+2
  -9.27398E+2  -1.01706E+3
  -1.17594E+3  -6.21542E+1
   6.89353E+2   7.17270E+2
   1.54493E+3   5.48702E+2
   1.60666E+2   1.61283E+3
   1.14752E+3   1.49110E+3
  -6.14524E+2  -7.72080E+2
   4.04470E+3   3.85353E+2
   1.81978E+3  -4.72578E+2
   1.23748E+3  -7.42733E+1
   5.24708E+2   5.32997E+2
  -2.92727E+2  -5.07361E+2
   5.46229E+2   2.11383E+3
  -3.11402E+3   1.45240E+3
  -2.07159E+2   2.05436E+3
   4.63150E+2   3.72652E+2
   1.77703E+3   1.16422E+3
   2.61549E+3   1.20009E+2
  -6.46156E+2  -4.27878E+2
  -1.86381E+3   9.41048E+2
  -6.84720E+2  -8.17223E+2
   2.24917E+2   1.68124E+3
  -4.85036E+2   2.18395E+3
  -2.21161E+2   2.30452E+2
  -6.81890E+1   1.42303E+3
  -1.70450E+3   3.29960E+3
  -4.93410E+2  -1.60255E+1
   5.44357E+1   1.72983E+2
  -2.54708E+2   5.44947E+2
   4.54220E+2  -1.75192E+3
   4.77450E+2  -5.01125E+2
   3.81161E+2   2.90126E+3
   6.54838E+2   1.43623E+3
   3.09086E+2  -3.13074E+2
   2.12977E+3   1.36618E+2
  -3.72862E+2   1.39802E+3
   3.28397E+2   2.54786E+2
  -8.02058E+2  -1.56168E+3
  -7.34327E+2  -5.63323E+2
   5.84007E+2  -1.73813E+2
  -9.87094E+2   4.10708E+2
   3.14456E+2  -7.62262E+2
  -2.03647E+2   4.34119E+2
   1.29414E+2  -9.01592E+2
  -9.76399E+2   1.74371E+3
   1.60708E+3  -3.59364E+2
   1.71193E+2   6.49722E+2
  -2.50636E+2  -2.43318E+3
   5.71143E+2   1.22230E+3
   8.62975E+1   5.61172E+2
  -4.91515E+2   5.35110E+2
  -2.32032E+3   1.88926E+3
  -2.39322E+3  -1.16009E+3
   1.18394E+3   7.35561E+2
   2.24908E+2   3.12716E+2
  -2.73734E+0  -2.12592E+2
   8.57054E+2   1.04571E+3
   5.62046E+1   6.45146E+1
   4.48109E+2  -7.34987E+1
  -8.94684E+2  -1.24340E+2
  -8.32563E+2   1.30662E+2
   1.02134E+3   3.68648E+2
   5.54345E+2  -7.85839E+2
  -1.62268E+2   1.24535E+3
  -1.79786E+2  -7.48981E+1
  -1.71506E+3  -2.77358E+2
   8.12356E+2  -3.24697E+2
   5.08516E+2  -4.93446E+2
  -2.60145E+2  -1.76357E+3
   2.25609E+2  -2.05174E+3
   1.57007E+3  -9.38048E+2
  -7.81446E+2   2.08801E+3
  -1.12787E+3   1.51086E+3
  -1.06265E+3   1.71542E+3
  -2.39370E+2  -3.09998E+3
  -1.02920E+3  -1.30866E+3
  -1.04335E+2  -4.51164E+2
   2.74733E+2   8.88244E+2
  -1.32731E+2  -7.77501E+2
   1.66791E+3   1.33210E+3
   2.45955E+2   1.68952E+3
   1.45030E+3  -1.65263E+3
  -5.11285E+2  -3.23714E+2
  -5.70146E+2  -8.91790E+2
   1.63926E+3  -2.64466E+3
   5.36878E+2  -2.29416E+2
  -1.27434E+3   1.40168E+3
  -1.31338E+3  -1.32525E+3
  -1.99889E+0  -9.17181E+1
  -7.81548E+2  -5.64342E+2
  -1.25578E+3   7.24172E+2
   9.23387E+1  -1.59944E+3
   1.03406E+3   1.80137E+3
  -1.29822E+2   5.88442E+2
   1.69222E+3   2.08206E+2
  -2.38192E+2   3.39214E+2
  -9.28142E+2  -1.03917E+3
   2.57697E+2  -8.73315E+2
  -1.14703E+3  -6.95066E+2
  -1.06408E+3  -5.19954E+1
