 LCModel (Version 6.3-1N) Copyright: S.W. Provencher.          Ref.: Magn. Reson. Med. 30:672-679 (1993).                
 Slice_N1@23_14  02-Jun-2023 14:37:27
 27 lines in following concentration table = NCONC+1
    Conc.  %SD /Cr+PCr  Metabolite                                         
 1.57E-06  21% 1.9E-04 Mac                                                 
 4.40E-02  35%   5.296 Cr                                                  
 2.25E-02  67%   2.704 PCr                                                 
 7.25E-02  13%   8.732 Ins                                                 
 8.85E-02   8%  10.654 NAA                                                 
 6.95E-02  12%   8.364 Tau                                                 
 1.75E-02  13%   2.106 PCho                                                
    0.000 999%   0.000 GPC                                                 
 8.38E-02  12%  10.084 Glu                                                 
 2.97E-02  25%   3.578 Gln                                                 
    0.000 999%   0.000 Ala                                                 
 1.00E-03 999%   0.121 Asc                                                 
 7.74E-03  93%   0.932 Asp                                                 
 7.62E-03  52%   0.917 GABA                                                
 5.77E-03  80%   0.695 Glc                                                 
 1.17E-02  39%   1.406 GSH                                                 
    0.000 999%   0.000 Lac                                                 
    0.000 999%   0.000 NAAG                                                
    0.000 999%   0.000 PE                                                  
 1.75E-02  13%   2.106 GPC+PCho                                            
 8.85E-02   8%  10.654 NAA+NAAG                                            
    0.114  11%  13.662 Glu+Gln                                             
 6.65E-02  10%   8.000 Cr+PCr                                              
 8.85E-02   8%  10.654 NAA+NAAG                                            
 6.65E-02  10%   8.000 Cr+PCr                                              
    0.114  11%  13.662 Glu+Gln                                             
   6 lines in following misc. output table
  FWHM = 0.041 ppm    S/N =   3                                            
  Data shift = 0.023 ppm                                                   
  Ph: -20 deg      -8.5 deg/ppm                                            
  alphaB,S = 7.8E-01,   2.9E+01                                            
   18 spline knots.   Ns = 7(1)                                            
  ( 7) 4 infls.   ( 3) 1 extrs.                                            
  654 points on ppm-axis = NY
      4.000000     3.994181     3.988363     3.982544     3.976726     3.970907     3.965088     3.959270     3.953451     3.947633
      3.941814     3.935995     3.930177     3.924358     3.918540     3.912721     3.906902     3.901084     3.895265     3.889446
      3.883628     3.877809     3.871991     3.866172     3.860353     3.854535     3.848716     3.842898     3.837079     3.831260
      3.825442     3.819623     3.813805     3.807986     3.802167     3.796349     3.790530     3.784712     3.778893     3.773074
      3.767256     3.761437     3.755619     3.749800     3.743981     3.738163     3.732344     3.726526     3.720707     3.714888
      3.709070     3.703251     3.697433     3.691614     3.685795     3.679977     3.674158     3.668339     3.662521     3.656702
      3.650884     3.645065     3.639246     3.633428     3.627609     3.621791     3.615972     3.610153     3.604335     3.598516
      3.592698     3.586879     3.581060     3.575242     3.569423     3.563605     3.557786     3.551967     3.546149     3.540330
      3.534512     3.528693     3.522874     3.517056     3.511237     3.505419     3.499600     3.493781     3.487963     3.482144
      3.476326     3.470507     3.464688     3.458870     3.453051     3.447232     3.441414     3.435595     3.429777     3.423958
      3.418139     3.412321     3.406502     3.400684     3.394865     3.389046     3.383228     3.377409     3.371591     3.365772
      3.359953     3.354135     3.348316     3.342498     3.336679     3.330860     3.325042     3.319223     3.313405     3.307586
      3.301767     3.295949     3.290130     3.284312     3.278493     3.272674     3.266856     3.261037     3.255219     3.249400
      3.243581     3.237763     3.231944     3.226125     3.220307     3.214488     3.208670     3.202851     3.197032     3.191214
      3.185395     3.179577     3.173758     3.167939     3.162121     3.156302     3.150484     3.144665     3.138846     3.133028
      3.127209     3.121391     3.115572     3.109753     3.103935     3.098116     3.092298     3.086479     3.080660     3.074842
      3.069023     3.063205     3.057386     3.051567     3.045749     3.039930     3.034111     3.028293     3.022474     3.016656
      3.010837     3.005018     2.999200     2.993381     2.987563     2.981744     2.975925     2.970107     2.964288     2.958470
      2.952651     2.946832     2.941014     2.935195     2.929377     2.923558     2.917739     2.911921     2.906102     2.900284
      2.894465     2.888646     2.882828     2.877009     2.871191     2.865372     2.859553     2.853735     2.847916     2.842098
      2.836279     2.830460     2.824642     2.818823     2.813004     2.807186     2.801367     2.795549     2.789730     2.783911
      2.778093     2.772274     2.766456     2.760637     2.754818     2.749000     2.743181     2.737363     2.731544     2.725725
      2.719907     2.714088     2.708270     2.702451     2.696632     2.690814     2.684995     2.679177     2.673358     2.667539
      2.661721     2.655902     2.650084     2.644265     2.638446     2.632628     2.626809     2.620991     2.615172     2.609353
      2.603535     2.597716     2.591897     2.586079     2.580260     2.574442     2.568623     2.562804     2.556986     2.551167
      2.545349     2.539530     2.533711     2.527893     2.522074     2.516256     2.510437     2.504618     2.498800     2.492981
      2.487163     2.481344     2.475525     2.469707     2.463888     2.458070     2.452251     2.446432     2.440614     2.434795
      2.428977     2.423158     2.417339     2.411521     2.405702     2.399884     2.394065     2.388246     2.382428     2.376609
      2.370790     2.364972     2.359153     2.353335     2.347516     2.341697     2.335879     2.330060     2.324242     2.318423
      2.312604     2.306786     2.300967     2.295149     2.289330     2.283511     2.277693     2.271874     2.266056     2.260237
      2.254418     2.248600     2.242781     2.236963     2.231144     2.225325     2.219507     2.213688     2.207870     2.202051
      2.196232     2.190414     2.184595     2.178777     2.172958     2.167139     2.161321     2.155502     2.149683     2.143865
      2.138046     2.132228     2.126409     2.120590     2.114772     2.108953     2.103135     2.097316     2.091497     2.085679
      2.079860     2.074042     2.068223     2.062404     2.056586     2.050767     2.044949     2.039130     2.033311     2.027493
      2.021674     2.015856     2.010037     2.004218     1.998400     1.992581     1.986763     1.980944     1.975126     1.969307
      1.963489     1.957670     1.951852     1.946033     1.940215     1.934397     1.928578     1.922760     1.916941     1.911123
      1.905304     1.899486     1.893667     1.887849     1.882030     1.876212     1.870393     1.864575     1.858756     1.852938
      1.847119     1.841301     1.835482     1.829664     1.823845     1.818027     1.812208     1.806390     1.800571     1.794753
      1.788934     1.783116     1.777297     1.771479     1.765660     1.759842     1.754023     1.748205     1.742386     1.736568
      1.730749     1.724931     1.719113     1.713294     1.707476     1.701657     1.695839     1.690020     1.684202     1.678383
      1.672565     1.666746     1.660928     1.655109     1.649291     1.643472     1.637654     1.631835     1.626017     1.620198
      1.614380     1.608561     1.602743     1.596924     1.591106     1.585287     1.579469     1.573650     1.567832     1.562013
      1.556195     1.550376     1.544558     1.538739     1.532921     1.527102     1.521284     1.515465     1.509647     1.503829
      1.498010     1.492192     1.486373     1.480555     1.474736     1.468918     1.463099     1.457281     1.451462     1.445644
      1.439825     1.434007     1.428188     1.422370     1.416551     1.410733     1.404914     1.399096     1.393277     1.387459
      1.381640     1.375822     1.370003     1.364185     1.358366     1.352548     1.346729     1.340911     1.335092     1.329274
      1.323455     1.317637     1.311818     1.306000     1.300182     1.294363     1.288545     1.282726     1.276908     1.271089
      1.265271     1.259452     1.253634     1.247815     1.241997     1.236178     1.230360     1.224541     1.218723     1.212904
      1.207086     1.201267     1.195449     1.189630     1.183812     1.177993     1.172175     1.166356     1.160538     1.154719
      1.148901     1.143082     1.137264     1.131445     1.125627     1.119808     1.113990     1.108171     1.102353     1.096534
      1.090716     1.084898     1.079079     1.073261     1.067442     1.061624     1.055805     1.049987     1.044168     1.038350
      1.032531     1.026713     1.020894     1.015076     1.009257     1.003439     0.997620     0.991802     0.985983     0.980165
      0.974346     0.968528     0.962709     0.956891     0.951072     0.945254     0.939435     0.933617     0.927798     0.921980
      0.916161     0.910343     0.904524     0.898706     0.892887     0.887069     0.881251     0.875432     0.869614     0.863795
      0.857977     0.852158     0.846340     0.840521     0.834703     0.828884     0.823066     0.817247     0.811429     0.805610
      0.799792     0.793973     0.788155     0.782336     0.776518     0.770699     0.764881     0.759062     0.753244     0.747425
      0.741607     0.735788     0.729970     0.724151     0.718333     0.712514     0.706696     0.700877     0.695059     0.689240
      0.683422     0.677603     0.671785     0.665967     0.660148     0.654330     0.648511     0.642693     0.636874     0.631056
      0.625237     0.619419     0.613600     0.607782     0.601963     0.596145     0.590326     0.584508     0.578689     0.572871
      0.567052     0.561234     0.555415     0.549597     0.543778     0.537960     0.532141     0.526323     0.520504     0.514686
      0.508867     0.503049     0.497230     0.491412     0.485593     0.479775     0.473956     0.468138     0.462319     0.456501
      0.450682     0.444864     0.439045     0.433227     0.427408     0.421590     0.415771     0.409953     0.404134     0.398316
      0.392497     0.386679     0.380860     0.375042     0.369223     0.363405     0.357586     0.351767     0.345949     0.340130
      0.334312     0.328493     0.322675     0.316856     0.311038     0.305219     0.299401     0.293582     0.287764     0.281945
      0.276127     0.270308     0.264490     0.258671     0.252853     0.247034     0.241216     0.235397     0.229579     0.223760
      0.217942     0.212123     0.206305     0.200486
 NY phased data points follow
  -2.91097E-01 -5.50769E-01 -3.40001E-01 -1.17291E-01 -2.13042E-01  6.22666E-02 -9.12983E-02 -1.24712E-01 -1.53940E-01 -1.70662E-01
   1.47598E-01  2.22096E-01 -9.73885E-02  2.14674E-01  2.90355E-01  2.61661E-01  3.77041E-01  1.87559E-01  2.58280E-01  1.83132E-01
   2.94395E-01  8.49677E-02 -1.35376E-02  2.94878E-02  3.40965E-02  2.16879E-01 -3.77243E-02 -3.42462E-01 -2.37358E-01 -1.12895E-02
   1.52914E-01  8.01660E-02 -5.96418E-02 -2.71437E-02  2.52224E-01  5.39145E-02 -6.53531E-01 -4.20933E-01 -4.45006E-01 -1.21389E-01
  -3.10445E-02 -4.10719E-01 -8.17295E-03  9.87464E-02  3.60818E-01  3.17589E-01  3.21987E-01  2.53902E-01  3.97799E-01  3.99675E-01
   2.14170E-01  2.28304E-01  8.95938E-03 -3.56391E-02 -5.06166E-02  9.35957E-02 -3.61622E-01 -2.40076E-01  2.38761E-02 -1.52772E-01
  -1.21989E-01 -2.70565E-01 -3.85388E-01 -4.88287E-01 -3.05572E-01 -2.88914E-01 -4.65209E-02  5.03164E-02 -1.83913E-01  7.00188E-02
   3.33367E-01  1.94375E-01  1.22038E-01  4.52158E-02  6.96586E-02 -1.13214E-02 -3.36781E-01 -3.96589E-02  1.50747E-01  9.27405E-02
  -6.43060E-02 -2.13927E-01 -4.41862E-02  1.28360E-01  2.37583E-01  1.48549E-01  1.57283E-02  3.17178E-01  3.59172E-01  8.58782E-03
   1.94399E-01  1.56623E-01  3.11026E-01  1.33316E-01  1.13815E-03  2.28237E-01 -1.84495E-01  1.64909E-02 -7.51139E-02 -1.03398E-01
   8.65255E-02 -2.31447E-01 -4.25113E-01 -3.83493E-01 -1.01682E-01  1.18096E-01  5.04380E-01  6.63662E-01  5.92441E-01  5.51068E-01
   4.78823E-01  2.90550E-01  5.48917E-01  6.21589E-01  3.08109E-01  6.30527E-01  4.92579E-01  1.28998E-01  2.84674E-01  3.39807E-01
   3.06336E-01  4.03426E-01  1.13887E-01 -4.96030E-02  1.16336E-01 -1.14377E-02 -7.01804E-02 -1.14123E-01  2.63833E-02 -2.20966E-03
  -5.65194E-01 -4.35998E-01 -2.12901E-01 -5.58192E-01 -5.36506E-01 -7.85805E-01 -6.03281E-01 -5.45438E-01 -1.12512E+00 -4.97548E-01
  -4.06774E-01 -7.33123E-01 -1.09424E-01 -1.46214E-01 -2.27831E-02 -1.22348E-02 -7.98358E-02  2.33072E-01 -4.28442E-02  3.03332E-01
   7.00808E-02 -1.97926E-01  6.07020E-03  1.07270E-02  3.50373E-01  3.02402E-01  7.64708E-02  1.43163E-01  3.96063E-01  2.54079E-01
   4.28038E-01  2.33511E-01  2.67811E-01  5.21810E-01  5.83468E-01  6.38181E-01  2.80208E-01  4.24626E-01  5.32215E-01  1.51246E-01
  -5.85011E-01 -4.75609E-01 -5.17348E-01 -3.52887E-01 -2.45145E-01 -5.44127E-01 -2.89948E-01 -4.13099E-01 -5.18549E-01 -6.50104E-01
  -2.90497E-01 -4.39178E-01 -4.34354E-01 -1.20888E-01 -2.65981E-01 -3.91785E-01 -5.22741E-01 -4.19236E-01 -5.24325E-01 -5.18081E-01
  -3.77985E-01 -3.30174E-01 -2.22560E-01  1.22015E-01 -1.27863E-01 -3.91687E-01 -2.58361E-01 -3.03231E-01 -2.47012E-01 -1.50626E-01
  -1.54632E-01 -8.85591E-02  5.30286E-02 -5.40491E-02 -9.23365E-02 -2.06182E-01 -1.77693E-01  1.91053E-01  2.34640E-03 -2.76194E-01
   1.41979E-03 -2.63605E-01 -2.55932E-02  1.20402E-01 -3.45414E-01 -3.07763E-01 -2.25534E-01  1.46012E-01 -6.49992E-02 -1.15788E-01
   1.67758E-01 -5.89490E-02 -3.42625E-02  1.64248E-01  2.04815E-01  3.72999E-01  3.41389E-01  4.13440E-01  4.34123E-01  2.09256E-01
   3.14687E-01  1.16829E-01  1.80377E-01  2.01779E-01  6.88835E-02 -1.48292E-01 -7.95829E-02  1.83348E-01 -4.99601E-02 -1.11307E-01
  -2.20600E-01 -2.87917E-01 -5.00642E-02  1.73657E-01  2.69892E-01  1.01435E-01 -4.33057E-01 -5.69684E-02  9.94232E-02 -3.91963E-02
   1.31843E-01 -1.99292E-01  1.90981E-01  1.94521E-01  3.25225E-02  2.07323E-02 -2.41143E-01  7.08176E-02  1.22515E-01 -7.97018E-02
  -2.61811E-01  2.73485E-02  3.38056E-01 -2.76687E-02  1.74666E-01  1.80179E-01  6.17116E-02  2.85192E-01  1.30309E-01  2.02331E-01
   1.02741E-01  2.25526E-01  3.26989E-01  3.82840E-02  6.54375E-02 -1.15618E-01 -1.25750E-01 -1.15353E-01 -1.72200E-01 -2.14618E-01
  -4.54827E-01 -1.11343E-01  9.11105E-02 -2.83496E-01 -2.09067E-01  2.95880E-01  2.20368E-01  3.63479E-01  5.46385E-01  2.88708E-01
   4.63450E-01  4.09399E-01  3.94814E-01  2.85325E-01  3.83863E-01  1.28333E-01  1.63799E-01  4.34195E-01 -1.55488E-01  9.36103E-02
   2.81199E-01  2.50477E-01  2.31050E-01  1.49050E-01  2.43751E-01  3.12407E-01  2.49756E-01  3.15309E-01  2.77436E-01  3.38893E-01
   3.68389E-01  1.45327E-01  3.02928E-01  8.75340E-02  2.37578E-01  1.87394E-01  9.41565E-02 -1.16922E-01 -1.14321E-01  1.19062E-01
  -3.64000E-01 -2.68639E-01 -2.48613E-01 -6.32400E-01 -5.18051E-01 -4.53368E-02 -4.15510E-01 -2.28287E-01  1.95039E-01 -1.37543E-02
   1.06695E-01  9.73957E-02  2.04281E-02 -9.70013E-02 -1.13267E-01  1.23203E-02  1.97862E-02 -2.09531E-01 -2.64591E-01 -3.86434E-01
  -5.87427E-01 -7.24331E-01 -9.13322E-01 -1.25478E+00 -1.06798E+00 -8.78359E-01 -1.07703E+00 -5.51373E-01 -1.04682E-01 -3.71732E-02
   2.70582E-01  2.50572E-01  2.15326E-04  1.78287E-01  1.08218E-02  3.50255E-02  1.51317E-01  9.85202E-02  4.12597E-02  3.14401E-01
   2.63370E-01 -4.92084E-02  2.96026E-01  2.54807E-01  3.27500E-01 -4.71067E-03 -1.44695E-01  4.93812E-02  2.54436E-01 -2.66824E-02
  -2.06712E-01  2.06360E-01  1.57266E-01  2.52353E-01  1.03851E-01  1.05020E-01  5.17575E-02  1.18989E-01  1.61385E-01  2.29012E-01
   6.00356E-02  2.04105E-01  3.33180E-01  1.15978E-02  4.15780E-01  1.12396E-01  2.42453E-01  3.42884E-01 -5.67884E-02  1.51612E-01
   1.92359E-01  2.54584E-03  7.61262E-02  9.03842E-02 -1.73657E-02  4.88469E-02  1.60136E-01  3.78956E-01  4.96433E-02 -2.56075E-02
   2.91105E-01  1.47121E-01  6.34298E-02 -7.82196E-02 -3.04599E-01 -6.49833E-02 -1.99182E-01 -3.62524E-01  3.84412E-03 -1.67324E-01
  -3.82369E-01 -8.71012E-02 -2.15458E-01 -4.04219E-01 -1.19861E-01 -5.24414E-02 -4.59703E-02 -9.60624E-02  2.55009E-02 -1.01819E-01
   2.67282E-02 -7.84069E-02 -2.86683E-01  9.55997E-02 -3.14788E-01  4.36364E-02  8.66578E-02 -9.57879E-02  1.13632E-01 -1.28673E-01
   1.00211E-01 -1.88033E-01  1.77249E-02  1.39508E-01 -2.05341E-01  8.03656E-02 -8.50002E-02 -6.38542E-02  1.56870E-01 -1.28184E-01
   1.50552E-01  1.34339E-01 -4.55816E-01 -8.10765E-02 -8.20366E-02  5.80204E-02  3.79114E-01  2.69233E-01  2.65930E-01  1.19104E-02
   2.01705E-01  3.13967E-01  2.39863E-01 -2.86885E-02  1.49065E-01 -7.43092E-03  8.76789E-02  5.56434E-02 -4.48514E-01  9.13561E-02
  -3.96324E-01 -6.96220E-02  3.50356E-01  1.61877E-01  1.97632E-01  1.33360E-01  1.49260E-01 -4.46237E-02  7.24185E-02 -3.13389E-01
  -3.97726E-01 -2.68213E-01 -6.30767E-02 -7.52628E-02 -1.62534E-01 -2.08067E-01  1.41054E-02 -9.54976E-02 -4.82362E-01  1.73421E-01
  -4.49169E-03 -1.20342E-01 -2.27465E-04 -5.02806E-02  2.07947E-01 -2.14011E-01 -9.69192E-02  2.59644E-01 -1.10678E-01  1.01470E-01
   1.35277E-01 -6.00585E-03  1.32261E-01  2.94072E-01  2.28326E-01  5.59531E-02  1.54478E-01  1.00400E-01  8.08385E-02 -2.97552E-01
  -8.47815E-02  2.25603E-01  2.34479E-01 -1.34292E-01  3.44399E-02  3.20031E-01  2.67112E-02  1.54806E-01  8.70250E-02  2.12001E-01
  -1.25079E-01  2.82340E-01  5.52942E-02 -4.18500E-02  3.51667E-01 -1.90249E-01 -8.20630E-02 -4.73241E-02  1.00900E-01 -4.37785E-02
  -2.04255E-01 -3.58255E-01  1.29077E-01  1.49130E-01 -2.43974E-01  7.02003E-02 -3.93218E-01 -3.97765E-01 -2.31006E-01 -4.13585E-01
  -3.63725E-01 -2.79223E-01 -1.32685E-01 -2.23691E-01 -2.28546E-01 -7.12835E-02 -2.65612E-01 -3.58624E-01  2.66420E-02 -1.38890E-02
  -5.06359E-01 -2.83938E-01 -9.18315E-02 -1.10248E-02 -6.35729E-02  3.03593E-02  1.67168E-01  2.19314E-01  1.60232E-01 -3.47974E-02
   2.76104E-01 -1.13135E-02  4.05328E-01  3.23207E-02 -1.57954E-02  4.67379E-01 -1.81891E-01  8.63256E-02  9.58301E-02 -3.57014E-03
   1.03304E-02  2.15082E-02  7.49217E-02  2.89885E-01 -5.65910E-02 -1.04190E-01  1.29114E-01 -1.30486E-01 -2.15296E-01 -1.24964E-01
   1.63517E-03  1.81993E-01  3.26425E-01 -1.02675E-02  2.27168E-01 -1.06695E-01 -4.43679E-04  8.67708E-02 -2.79488E-02  2.34113E-02
   3.98042E-02  4.81207E-01  6.20473E-02  1.79564E-01  1.07941E-01  3.26771E-02  1.45011E-01 -4.87498E-02 -1.49488E-02  3.28105E-01
  -7.93489E-03 -1.97032E-02  1.51713E-01 -1.62735E-01  1.13948E-01 -1.36692E-01 -5.55537E-03  5.72867E-02  3.23629E-02 -2.04030E-01
   3.09299E-02  2.27585E-01 -2.63712E-03  1.80815E-01  8.40577E-03  1.68970E-02 -1.86201E-03  1.38832E-01 -8.85221E-02  2.26583E-02
  -2.00394E-01 -2.36454E-01  3.46686E-02 -1.43630E-02  6.58967E-02 -8.97551E-02  1.78183E-01 -1.06910E-01 -1.07837E-02  2.27296E-01
   2.60444E-01  4.79144E-02 -1.77776E-01 -9.57270E-02 -7.58579E-02  1.58852E-01  1.48667E-03 -1.80301E-01 -1.05728E-01  2.29184E-01
  -1.01358E-02  1.92272E-01 -5.35853E-02 -1.98800E-01  1.81249E-01 -2.70091E-01 -5.60140E-02 -8.47505E-02  1.49921E-01 -6.33351E-02
   3.72436E-02  2.34166E-01 -2.97084E-01  1.97254E-03  2.44902E-01 -9.73320E-03 -2.57694E-01  1.36418E-01 -2.27071E-01 -3.02663E-02
  -4.94183E-02 -2.91040E-01  1.93340E-01 -1.27390E-01
 NY points of the fit to the data follow
  -3.00976E-02 -2.93370E-02 -2.92910E-02 -2.96498E-02 -3.02426E-02 -2.80311E-02 -2.13416E-02 -1.57541E-02 -6.24826E-03  2.48031E-02
   6.51179E-02  1.01170E-01  1.56487E-01  2.34822E-01  3.05241E-01  3.52616E-01  3.87617E-01  4.07639E-01  3.79163E-01  3.05726E-01
   2.26487E-01  1.39726E-01  6.11548E-02  1.79151E-02 -7.20494E-03 -3.02497E-02 -5.08357E-02 -6.93331E-02 -8.56422E-02 -1.00248E-01
  -1.14856E-01 -1.31171E-01 -1.48720E-01 -1.67441E-01 -1.83705E-01 -1.97964E-01 -2.09508E-01 -2.08873E-01 -1.89813E-01 -1.51439E-01
  -9.01995E-02 -3.41264E-03  1.02778E-01  2.05369E-01  2.82789E-01  3.29797E-01  3.35391E-01  3.04336E-01  2.51869E-01  1.92070E-01
   1.35372E-01  8.60460E-02  4.64595E-02  1.28845E-02 -1.97116E-02 -5.46081E-02 -9.31824E-02 -1.29978E-01 -1.66493E-01 -2.09015E-01
  -2.38289E-01 -2.47333E-01 -2.54888E-01 -2.46880E-01 -2.08766E-01 -1.58578E-01 -1.05862E-01 -4.31200E-02  4.33182E-02  1.28369E-01
   1.85617E-01  2.37378E-01  2.57929E-01  2.22804E-01  1.69786E-01  1.12526E-01  3.82783E-02 -4.64303E-02 -1.16691E-01 -1.68221E-01
  -2.14511E-01 -2.40168E-01 -2.14062E-01 -1.31740E-01 -2.48929E-02  8.74770E-02  2.03637E-01  2.84551E-01  3.15468E-01  3.23121E-01
   3.06355E-01  2.64818E-01  2.21033E-01  1.75619E-01  1.24400E-01  6.91063E-02  3.61969E-03 -6.87306E-02 -1.40143E-01 -2.06141E-01
  -2.47982E-01 -2.51685E-01 -2.07474E-01 -1.11705E-01  6.72583E-03  1.29974E-01  2.27209E-01  2.81403E-01  3.07275E-01  3.11756E-01
   3.07972E-01  3.06800E-01  3.06673E-01  3.07096E-01  3.08043E-01  3.09248E-01  3.08082E-01  3.06292E-01  3.06834E-01  2.98834E-01
   2.83325E-01  2.69401E-01  2.40242E-01  1.91926E-01  1.36295E-01  7.49966E-02  7.64684E-03 -6.94840E-02 -1.42205E-01 -2.32423E-01
  -3.44985E-01 -4.15486E-01 -4.72262E-01 -5.53930E-01 -6.01098E-01 -6.23374E-01 -6.74628E-01 -7.61893E-01 -8.02175E-01 -7.25339E-01
  -5.98241E-01 -4.28996E-01 -2.45498E-01 -1.37446E-01 -8.54850E-02 -4.45785E-02 -1.08781E-02  1.77394E-02  4.27831E-02  6.53026E-02
   8.59876E-02  1.05434E-01  1.24349E-01  1.43252E-01  1.62781E-01  1.83799E-01  2.07003E-01  2.33479E-01  2.65374E-01  3.06672E-01
   3.63010E-01  4.06819E-01  4.30894E-01  4.76364E-01  5.22173E-01  5.12359E-01  4.55955E-01  3.66157E-01  2.11115E-01 -3.95534E-02
  -3.17788E-01 -5.04552E-01 -5.96444E-01 -5.93263E-01 -4.99765E-01 -4.05872E-01 -3.54602E-01 -3.21388E-01 -2.92759E-01 -2.69691E-01
  -2.51902E-01 -2.37108E-01 -2.24938E-01 -2.13909E-01 -2.04060E-01 -1.96110E-01 -1.90082E-01 -1.86553E-01 -1.82333E-01 -1.76232E-01
  -1.69505E-01 -1.62034E-01 -1.53928E-01 -1.45686E-01 -1.37261E-01 -1.28257E-01 -1.19283E-01 -1.11213E-01 -1.03575E-01 -9.57681E-02
  -8.79888E-02 -8.07232E-02 -7.44775E-02 -6.90690E-02 -6.46134E-02 -6.21857E-02 -6.14294E-02 -6.11245E-02 -6.07108E-02 -6.07668E-02
  -6.27038E-02 -6.60645E-02 -6.94448E-02 -7.20001E-02 -7.26651E-02 -7.16065E-02 -7.01713E-02 -6.85678E-02 -6.29482E-02 -5.26169E-02
  -4.34373E-02 -3.09595E-02 -4.12840E-03  3.39190E-02  7.46928E-02  1.18866E-01  1.70151E-01  2.16139E-01  2.36328E-01  2.36563E-01
   2.30926E-01  2.17839E-01  1.95337E-01  1.59873E-01  1.09359E-01  5.24151E-02  1.28481E-03 -3.28354E-02 -5.10414E-02 -6.32240E-02
  -7.35156E-02 -8.22038E-02 -9.00879E-02 -9.68764E-02 -1.02442E-01 -1.07541E-01 -1.12020E-01 -1.16575E-01 -1.22211E-01 -1.28075E-01
  -1.31377E-01 -1.35208E-01 -1.43538E-01 -1.48372E-01 -1.43828E-01 -1.37846E-01 -1.27960E-01 -9.95690E-02 -5.47298E-02 -1.51384E-02
   1.59510E-02  5.25956E-02  8.06595E-02  9.19830E-02  1.00339E-01  1.09773E-01  1.15371E-01  1.15996E-01  1.22038E-01  1.28584E-01
   1.24750E-01  1.18725E-01  1.05282E-01  7.80333E-02  3.98379E-02 -6.90750E-03 -5.64807E-02 -1.08290E-01 -1.57660E-01 -2.01545E-01
  -2.39346E-01 -2.60470E-01 -2.58799E-01 -2.26573E-01 -1.54864E-01 -5.12280E-02  7.44066E-02  1.97911E-01  2.94398E-01  3.57798E-01
   3.76512E-01  3.59909E-01  3.30572E-01  2.96002E-01  2.67353E-01  2.50410E-01  2.41273E-01  2.38579E-01  2.39049E-01  2.39863E-01
   2.40073E-01  2.37211E-01  2.31868E-01  2.25542E-01  2.18412E-01  2.11410E-01  2.04430E-01  1.96615E-01  1.87435E-01  1.76267E-01
   1.61338E-01  1.42394E-01  1.18368E-01  8.79280E-02  4.98562E-02  4.33415E-03 -4.77513E-02 -1.05824E-01 -1.66553E-01 -2.23310E-01
  -2.71288E-01 -3.06288E-01 -3.22436E-01 -3.18093E-01 -2.91321E-01 -2.45914E-01 -1.85754E-01 -1.17495E-01 -5.38748E-02 -4.10852E-03
   2.41323E-02  2.80532E-02  1.31350E-02 -1.17882E-02 -4.07276E-02 -1.02874E-01 -1.77669E-01 -2.13908E-01 -2.77615E-01 -4.20114E-01
  -5.76187E-01 -7.32415E-01 -9.20731E-01 -1.11937E+00 -1.19411E+00 -1.05772E+00 -8.29870E-01 -5.54082E-01 -2.81714E-01 -1.36804E-01
  -8.69069E-02 -5.57430E-02 -3.19708E-02 -1.38198E-02 -2.02075E-04  1.00772E-02  1.76060E-02  2.25478E-02  2.51908E-02  2.53545E-02
   2.31573E-02  1.90259E-02  1.32531E-02  7.38344E-03  2.48809E-03 -5.31346E-04  7.22369E-05  3.55109E-03  9.72804E-03  1.75219E-02
   2.52957E-02  3.26434E-02  3.89212E-02  4.42044E-02  4.88730E-02  5.28750E-02  5.63312E-02  5.94915E-02  6.24194E-02  6.51730E-02
   6.78689E-02  7.03727E-02  7.26999E-02  7.49111E-02  7.70151E-02  7.90803E-02  8.10991E-02  8.29044E-02  8.45415E-02  8.61777E-02
   8.78880E-02  8.95941E-02  9.10863E-02  9.21603E-02  9.24746E-02  9.19708E-02  9.07625E-02  8.89108E-02  8.66412E-02  8.40799E-02
   8.11105E-02  7.75924E-02  7.35476E-02  6.91832E-02  6.45822E-02  5.98047E-02  5.51291E-02  5.07008E-02  4.64316E-02  4.23738E-02
   3.85348E-02  3.49038E-02  3.14946E-02  2.83868E-02  2.56260E-02  2.29911E-02  2.05133E-02  1.82828E-02  1.61394E-02  1.41944E-02
   1.26340E-02  1.14208E-02  1.05861E-02  1.02183E-02  1.04023E-02  1.11154E-02  1.23048E-02  1.40818E-02  1.63182E-02  1.87228E-02
   2.13019E-02  2.40127E-02  2.66454E-02  2.92041E-02  3.20374E-02  3.54073E-02  3.94218E-02  4.42008E-02  4.95272E-02  5.51387E-02
   6.11132E-02  6.75298E-02  7.44335E-02  8.17806E-02  8.93430E-02  9.68773E-02  1.04100E-01  1.10831E-01  1.16921E-01  1.22007E-01
   1.25879E-01  1.28422E-01  1.29591E-01  1.29613E-01  1.28608E-01  1.26535E-01  1.23438E-01  1.19311E-01  1.14057E-01  1.07887E-01
   1.01148E-01  9.41327E-02  8.71439E-02  8.04039E-02  7.38966E-02  6.75500E-02  6.14550E-02  5.58426E-02  5.07667E-02  4.61460E-02
   4.20240E-02  3.83935E-02  3.53341E-02  3.29354E-02  3.11966E-02  3.02307E-02  3.01709E-02  3.09382E-02  3.23476E-02  3.43579E-02
   3.68366E-02  3.94906E-02  4.23466E-02  4.54291E-02  4.83824E-02  5.09691E-02  5.32313E-02  5.51238E-02  5.65950E-02  5.77770E-02
   5.87675E-02  5.95539E-02  5.99479E-02  5.97266E-02  5.88776E-02  5.74424E-02  5.56183E-02  5.35533E-02  5.12218E-02  4.88372E-02
   4.64271E-02  4.39491E-02  4.15041E-02  3.89809E-02  3.63157E-02  3.36188E-02  3.09772E-02  2.83199E-02  2.56178E-02  2.30295E-02
   2.05325E-02  1.78760E-02  1.48968E-02  1.14669E-02  7.43394E-03  2.68580E-03 -2.75807E-03 -8.86205E-03 -1.57607E-02 -2.35249E-02
  -3.21372E-02 -4.17437E-02 -5.23544E-02 -6.36712E-02 -7.51647E-02 -8.63268E-02 -9.70297E-02 -1.07049E-01 -1.15999E-01 -1.23705E-01
  -1.30126E-01 -1.35089E-01 -1.38336E-01 -1.39811E-01 -1.39775E-01 -1.38449E-01 -1.35924E-01 -1.32550E-01 -1.28620E-01 -1.24158E-01
  -1.19413E-01 -1.14623E-01 -1.09614E-01 -1.04137E-01 -9.81848E-02 -9.18318E-02 -8.50512E-02 -7.80528E-02 -7.11544E-02 -6.43001E-02
  -5.75206E-02 -5.10258E-02 -4.49228E-02 -3.91040E-02 -3.34148E-02 -2.81737E-02 -2.34867E-02 -1.90816E-02 -1.49840E-02 -1.12656E-02
  -7.97373E-03 -5.12385E-03 -2.60059E-03 -4.70845E-04  1.40850E-03  3.14680E-03  4.45637E-03  5.53517E-03  6.62428E-03  7.53328E-03
   8.35189E-03  9.31162E-03  1.03905E-02  1.14518E-02  1.25498E-02  1.36403E-02  1.43828E-02  1.47787E-02  1.49963E-02  1.49988E-02
   1.48387E-02  1.46953E-02  1.46580E-02  1.45356E-02  1.42899E-02  1.42188E-02  1.42714E-02  1.42028E-02  1.40683E-02  1.39172E-02
   1.36794E-02  1.31365E-02  1.22320E-02  1.14734E-02  1.11061E-02  1.08524E-02  1.06843E-02  1.06092E-02  1.04417E-02  1.01414E-02
   9.85699E-03  9.81759E-03  1.00165E-02  1.04334E-02  1.10569E-02  1.16853E-02  1.21980E-02  1.26779E-02  1.32039E-02  1.36316E-02
   1.38880E-02  1.40920E-02  1.41771E-02  1.40721E-02  1.39128E-02  1.38865E-02  1.41473E-02  1.46179E-02  1.53128E-02  1.61622E-02
   1.69345E-02  1.76641E-02  1.84213E-02  1.92406E-02  2.01152E-02  2.08357E-02  2.13318E-02  2.15456E-02  2.14224E-02  2.13156E-02
   2.14260E-02  2.16638E-02  2.20054E-02  2.23107E-02  2.24632E-02  2.25911E-02  2.29386E-02  2.35184E-02  2.40969E-02  2.46658E-02
   2.54518E-02  2.64397E-02  2.74408E-02  2.84871E-02  2.96473E-02  3.09097E-02  3.24286E-02  3.42408E-02  3.63391E-02  3.88155E-02
   4.14328E-02  4.40148E-02  4.66002E-02  4.90934E-02
 NY background values follow
     1.858E-02    1.875E-02    1.892E-02    1.909E-02    1.926E-02    1.943E-02    1.961E-02    1.978E-02    1.995E-02    2.012E-02
     2.029E-02    2.046E-02    2.063E-02    2.080E-02    2.097E-02    2.114E-02    2.131E-02    2.149E-02    2.166E-02    2.183E-02
     2.200E-02    2.217E-02    2.234E-02    2.251E-02    2.268E-02    2.284E-02    2.301E-02    2.318E-02    2.335E-02    2.352E-02
     2.369E-02    2.386E-02    2.403E-02    2.419E-02    2.436E-02    2.453E-02    2.470E-02    2.486E-02    2.503E-02    2.520E-02
     2.536E-02    2.553E-02    2.569E-02    2.586E-02    2.602E-02    2.619E-02    2.635E-02    2.652E-02    2.668E-02    2.684E-02
     2.701E-02    2.717E-02    2.733E-02    2.749E-02    2.765E-02    2.781E-02    2.797E-02    2.813E-02    2.829E-02    2.845E-02
     2.861E-02    2.877E-02    2.893E-02    2.908E-02    2.924E-02    2.940E-02    2.955E-02    2.971E-02    2.986E-02    3.002E-02
