 
 $NMID
 ID=''
 FMTDAT='(2E13.5)'
 TRAMP=   1.00000E+0
 VOLUME=   1.00000E+0
 $END
  -1.31395E+2  -5.81307E+2
  -8.70944E+2   1.29261E+3
  -1.42192E+3  -1.62800E+3
  -4.84783E-1   3.92419E+3
   1.78155E+3   4.40368E+3
   5.02084E+3   5.26976E+2
   3.23462E+3   3.39472E+1
   7.02616E+1  -3.28938E+3
  -5.02145E+2  -5.16636E+3
  -3.16013E+3  -3.64878E+3
  -7.00580E+2   3.86800E+2
  -2.59350E+3   1.61069E+3
  -1.01103E+3   7.99765E+3
  -4.07838E+3   5.10635E+3
   1.07699E+3   2.32190E+3
   2.03075E+3   6.41576E+2
   4.43423E+3  -3.43325E+1
   1.33125E+3  -7.90976E+2
  -1.33932E+3  -4.73631E+2
  -1.87642E+3  -1.76982E+3
   9.81774E+2  -3.14134E+3
  -1.28040E+3   3.10617E+3
  -5.62924E+3   4.86630E+3
  -5.15071E+3  -5.38388E+2
   4.02476E+2  -3.61542E+3
   2.27691E+3   2.80682E+3
  -2.59838E+3   1.71058E+3
  -3.62264E+3  -3.04446E+3
   7.29445E+1  -6.05276E+3
   5.32970E+3  -4.20110E+3
   6.82583E+3   3.68475E+3
  -3.89282E+3   4.15532E+3
  -6.63728E+3  -3.45728E+3
  -1.07590E+3  -5.89995E+3
  -2.71071E+3  -2.96519E+3
  -4.50174E+3  -6.21840E+3
   1.09787E+3  -6.47207E+3
   3.44103E+3   2.21079E+3
   1.20493E+3   4.22436E+3
   1.38672E+3   2.48896E+3
  -2.14413E+3   6.02110E+3
  -4.75270E+3   2.02114E+3
  -1.69199E+3  -4.79337E+3
   5.57129E+3  -2.81232E+3
   6.56764E+3   2.71840E+3
   5.08468E+3   3.85953E+3
   6.03021E+3   1.44770E+3
   3.67929E+3   3.38458E+3
  -1.77845E+3   6.09900E+3
  -1.32872E+3   1.04130E+3
  -1.67659E+3  -2.38115E+3
   2.62297E+2  -4.38257E+3
   4.33286E+3  -2.03811E+2
   4.46275E+3   4.56218E+3
  -1.04246E+3   3.04396E+3
  -2.10590E+3   6.02318E+2
  -4.76576E+3   3.85439E+2
  -4.06347E+3  -5.97767E+3
  -2.25797E+3  -9.03356E+3
   1.39891E+3  -1.02734E+4
   3.42206E+3  -2.63274E+3
   3.74637E+3   9.56167E+2
  -6.55639E+2   2.89961E+3
  -3.18710E+3   6.10613E+1
  -1.00313E+3  -1.25454E+3
   4.16422E+3   2.34836E+3
  -2.69258E+3   5.79647E+3
  -5.25792E+3   1.28826E+3
  -6.79935E+2  -1.82340E+3
   1.62044E+3  -2.21414E+3
   1.63801E+3   2.20039E+3
  -1.29110E+3  -6.22887E+2
  -6.56171E+2  -1.49394E+3
  -3.03732E+2  -3.88229E+3
   3.23669E+3  -2.44425E+3
   2.58037E+3   5.96023E+2
  -1.88452E+3  -2.36505E+3
  -2.00117E+3  -2.03467E+3
   2.08494E+3  -1.47945E+3
   1.82315E+3   2.91619E+3
  -2.49201E+0   1.25439E+3
   7.85069E+2   1.14350E+3
   4.52718E+2   3.62792E+3
  -4.42099E+2   4.51639E+3
  -5.16457E+3   1.75098E+3
  -4.09299E+3  -2.94234E+3
   1.31092E+3  -4.54616E+3
   5.52020E+3  -1.23549E+3
   5.50318E+3  -6.52777E+1
   3.54137E+3   2.43765E+3
   2.81233E+3  -2.17627E+3
   3.40036E+3   8.23453E+2
   1.85857E+3   5.75385E+2
  -2.36513E+3   1.47248E+3
  -2.44979E+3  -3.82217E+3
   3.26265E+3  -6.53403E+3
   2.43989E+3   7.45981E+2
   2.20997E+3   3.80780E+3
  -1.36242E+3   2.76178E+3
  -3.12667E+3  -1.04779E+3
   3.03600E+3  -5.30486E+3
   6.68163E+3   3.54431E+2
   2.66529E+3   5.62800E+3
  -8.80149E+2   3.26999E+3
  -5.87612E+3   4.65200E+2
  -5.17348E+2  -2.59194E+3
  -8.85095E+2  -7.28930E+2
  -2.26873E+3  -7.59869E+2
  -8.14273E+1  -3.45402E+3
   3.07422E+3  -4.37687E+3
   6.01409E+3   1.51451E+3
   4.42782E+3   2.32486E+3
   2.19074E+3   2.02228E+3
   5.54674E+2   2.06292E+3
  -2.63718E+3   1.80799E+3
  -3.76973E+3  -1.09827E+3
  -1.60295E+1  -1.18115E+3
  -7.93613E+2  -1.35403E+3
   1.14740E+3  -4.25087E+2
   1.61547E+3   7.29148E+2
   1.44096E+3   1.85580E+3
  -3.26832E+2  -5.29317E+1
   6.97144E+2  -1.77366E+3
   1.18419E+3  -3.67879E+3
   4.89635E+2   2.24159E+3
  -3.68628E+2   1.03179E+3
  -1.02948E+2  -4.34046E+0
  -7.99196E+2   1.05598E+3
  -9.76441E+1   1.24225E+3
  -2.35890E+2   8.52600E+2
  -1.42930E+3  -1.19138E+3
   1.85115E+3   3.36963E+2
   3.82842E+3   1.78567E+3
  -1.23325E+3   1.73066E+3
  -3.19166E+3   2.70954E+3
  -3.54082E+3  -3.25033E+3
   3.29642E+2  -1.83983E+3
   2.20696E+3  -3.71692E+3
   3.15358E+3  -7.10354E+2
   9.30925E+2  -3.38156E+2
   2.73961E+3  -5.06742E+2
   1.16990E+3   1.31962E+3
   1.76309E+2   5.66638E+2
  -1.95383E+3   2.35575E+3
  -2.22911E+3  -1.45191E+1
  -1.93679E+2  -3.63566E+0
  -4.65737E+2   1.56545E+3
  -9.66440E+2  -1.94531E+3
  -8.47373E+2  -9.91452E+2
  -3.30534E+3  -2.90914E+2
  -6.07208E+2  -9.09899E+2
  -1.23311E+3  -1.96361E+3
   1.40014E+3  -3.23023E+3
   1.44826E+3  -1.23012E+3
   3.43124E+3   5.61008E+2
  -1.06149E+3   3.70331E+2
  -5.11485E+2   3.88936E+2
  -4.45538E+3  -3.53030E+2
  -4.15133E+2   6.82012E+2
   4.79536E+2  -3.91734E+2
  -1.87815E+3   1.14786E+2
  -4.39218E+2  -2.27076E+3
   3.19964E+2   3.55796E+1
   4.12603E+2  -1.57205E+3
  -2.10019E+3   8.50618E+2
  -1.12579E+3   9.30206E+0
  -7.54602E+2  -1.79774E+3
   2.84859E+3   5.57725E+2
  -1.37083E+2   3.97317E+3
  -3.59835E+3   1.86914E+3
  -3.53387E+3  -1.38394E+2
  -3.59147E+3  -1.95410E+3
  -1.61411E+3  -1.89469E+3
  -1.51194E+3  -2.51782E+3
   2.32603E+3  -1.44090E+3
   7.08759E+2   3.84602E+2
   5.69353E+2  -2.51548E+2
  -8.36116E+2   3.65677E+3
  -1.07576E+3   8.80192E+2
  -2.72738E+3  -1.77148E+3
  -1.33732E+3  -1.91248E+3
  -1.27709E+3  -6.49719E+2
  -7.59515E+2   2.37531E+2
  -1.06210E+3   2.10196E+3
   1.13288E+3  -5.76861E+2
   4.99171E+2   6.82131E+2
  -1.97688E+3   1.21810E+3
  -2.48926E+3   1.02452E+3
   7.45831E+2  -2.09666E+3
   2.48076E+2  -2.09647E+1
   9.01894E+2   6.53738E+2
  -1.42082E+3   1.28294E+3
  -2.22234E+3   1.78709E+3
  -6.89622E+2  -1.54442E+3
   8.15458E+2  -1.50559E+3
   1.19423E+3   3.16287E+2
  -1.16868E+3   1.92254E+3
  -2.44559E+2  -3.22027E+3
   1.05177E+3  -2.88431E+1
  -5.91021E+2   3.42541E+3
  -2.76291E+3   3.75546E+2
  -1.80827E+3  -2.40792E+3
   1.24798E+3  -3.43688E+3
   2.90921E+3   3.33059E+1
   1.78862E+3   3.93399E+2
   2.71511E+2   2.58804E+3
   6.52214E+2  -3.97905E+2
   7.40262E+2   9.94191E+2
   1.15533E+3   6.89406E+2
  -1.87996E+3  -3.96193E+2
  -1.94897E+3  -2.21046E+3
   3.08766E+3  -2.29256E+3
   3.19564E+3   9.96961E+2
   7.47448E+2   3.34228E+3
  -5.92611E+2   2.42471E+3
  -1.48158E+3  -1.54121E+3
  -1.42802E+3   1.02888E+3
  -1.94034E+3  -4.51529E+2
  -1.83529E+3   8.20020E+2
  -1.51891E+3  -5.60165E+2
  -7.07327E+2  -1.04801E+3
   6.61656E+2  -1.38048E+2
  -1.78042E+3   1.06823E+2
  -7.61303E+2   6.73674E+2
  -1.09320E+3  -3.98291E+0
   2.43890E+2   9.36322E+1
   9.53597E+1   1.03291E+3
  -1.04689E+3   1.58867E+3
  -1.77758E+3  -5.62648E+2
  -4.85833E+2  -7.70427E+2
  -7.04538E+2   3.73320E+2
   2.52487E+2  -6.25932E+2
  -1.38576E+3  -6.01346E+2
  -1.91763E+2  -2.40251E+3
   1.13644E+3   5.88415E+2
   1.89970E+2   4.11676E+3
  -2.81969E+3   3.40347E+3
  -2.77836E+3  -1.66578E+3
  -8.03354E+1  -2.37604E+3
   1.27075E+3  -7.69833E+2
  -2.19518E+2  -5.52469E+2
  -2.05985E+3  -3.13825E+2
   2.63612E+2   1.27535E+2
   3.94718E+2  -1.86726E+3
  -7.72795E+2  -1.11053E+3
  -1.33983E+3  -1.23352E+3
  -5.84590E+2  -1.03088E+3
   7.33979E+2  -2.33000E+3
   6.00063E+2   6.87410E+2
  -5.08647E+2   2.63938E+3
  -1.31984E+3   7.27724E+2
  -1.99252E+3  -1.53627E+2
  -1.33859E+3  -1.85246E+3
   2.15935E+3  -1.25149E+3
  -2.55390E+2  -1.15563E+3
  -1.33314E+3   1.22556E+1
   2.73934E+3   1.18513E+3
   1.09714E+3   1.26848E+3
   1.69114E+2   4.27900E+2
  -1.73320E+3  -6.26994E+2
   1.68868E+3  -4.11757E+3
   2.70211E+2  -2.41865E+3
   2.51186E+3   1.76884E+3
  -7.92149E+2   1.68181E+3
   7.45298E+1   6.94236E+2
  -3.77328E+2   9.69332E+1
   1.76968E+3   2.44999E+2
   6.22437E+2   5.45542E+2
  -9.43523E+2  -2.08107E+3
   3.67443E+3  -2.85845E+3
   1.53157E+3  -2.22122E+1
   6.24285E+1   2.67831E+3
  -2.70147E+3   2.71082E+3
  -1.57224E+2   8.99218E+1
  -6.62418E+2  -9.41715E+2
  -2.60232E+2   2.11961E+0
   6.09466E+2  -1.03999E+3
   3.36261E+2   7.62455E+1
   1.44211E+3  -1.56634E+2
   3.60700E+2   1.69065E+3
   5.05820E+2   2.27479E+3
  -1.73424E+3   1.77215E+3
  -2.32794E+3  -1.60853E+3
   1.40135E+3  -8.04847E+2
  -1.07246E+2  -7.02822E+2
   1.19806E+2   7.22337E+2
   2.02544E+2  -1.02764E+3
   1.60150E+3  -1.33565E+3
   1.49090E+3   8.06364E+2
   1.55462E+3   8.97571E+2
   6.94338E+2   1.06475E+3
   7.91846E+1  -1.42010E+3
   2.38656E+3   3.01036E+2
  -8.35341E+2   8.94454E+2
  -1.50262E+3   2.46645E+2
  -1.26511E+3  -9.48105E+2
  -2.06625E+2  -2.74661E+3
   3.53891E-1  -6.67146E+2
  -2.46617E+2   1.51290E+3
  -2.95017E+2   2.07625E+2
  -6.02450E+2  -1.75079E+2
   4.24547E+2  -1.73089E+3
   2.12082E+3   4.74084E+2
  -6.12641E+2  -3.30905E+2
   1.68160E+2  -2.40654E+3
   1.38608E+3  -4.22482E+2
   2.53316E+3   2.94414E+2
   8.48628E+2   1.56322E+3
  -3.24105E+3   1.20503E+3
  -1.66424E+3  -3.13046E+2
  -5.36317E+2  -1.22975E+3
  -6.93539E+1   8.21056E+2
   1.25590E+3   1.53268E+3
   2.16824E+2  -2.21504E+2
  -1.31480E+3  -6.63041E+2
   1.43304E+3   2.07750E+3
  -1.81801E+3   1.73283E+3
   1.05541E+3  -1.38579E+3
  -1.00045E+3  -3.13476E+3
   3.04554E+3  -5.40513E+2
   1.21747E+3   1.08257E+3
   9.50958E+2   2.14542E+3
  -1.21097E+3  -1.05748E+3
  -2.00078E+3   2.47101E+3
   2.43978E+2  -4.56467E+2
  -5.38627E+2  -6.16375E+2
   2.00486E+2  -2.26949E+3
   1.37437E+2  -3.00132E+2
   1.41083E+3   2.62334E+3
   1.01923E+2   3.60845E+2
  -1.99886E+3   1.77832E+3
  -1.14806E+3   8.08176E+2
   1.33236E+3  -1.70527E+2
  -5.46280E+2  -8.77552E+2
  -5.05887E+2   1.18163E+3
   6.22473E+2  -2.73333E+3
   2.15384E+3   1.36883E+3
  -5.20364E+2  -7.38853E+2
   7.62307E+1   2.09652E+3
  -2.06924E+3   8.74615E+2
  -1.76614E+2  -1.81823E+3
   3.96698E+3  -1.26288E+3
   1.03178E+3   1.23599E+3
   8.56423E+2   2.38145E+3
  -7.79723E+2   4.38437E+2
  -2.20063E+2   1.18414E+3
   7.13605E+2  -9.43060E+2
   8.25357E+1   1.00369E+3
  -6.61322E+2   1.72235E+3
  -6.05289E+2  -7.27589E+2
   1.80300E+3  -4.18672E+2
   3.81788E+2   1.33542E+2
   4.59697E+1  -2.25136E+2
  -1.24087E+3   5.15652E+2
   1.08611E+3  -1.08880E+3
   1.85004E+3  -9.73541E+2
  -6.25414E+2   4.76053E+1
  -2.38763E+3   8.95905E+2
  -1.99831E+3   2.51053E+2
  -2.02156E+3  -2.06690E+3
  -1.35332E+3  -6.65530E+2
   1.29328E+1   1.34016E+2
  -2.17249E+3  -2.24625E+3
   1.13204E+3  -8.80318E+2
   7.59871E+2  -3.34529E+2
   4.06387E+2   2.07315E+3
  -6.24684E+2   2.04023E+3
