 LCModel (Version 6.3-1N) Copyright: S.W. Provencher.          Ref.: Magn. Reson. Med. 30:672-679 (1993).                
 Slice_N1@23_21  02-Jun-2023 14:37:49
 27 lines in following concentration table = NCONC+1
    Conc.  %SD /Cr+PCr  Metabolite                                         
 3.28E-06  11% 4.9E-04 Mac                                                 
 3.22E-02  53%   4.778 Cr                                                  
 2.17E-02  77%   3.222 PCr                                                 
 6.72E-02  14%   9.970 Ins                                                 
 8.27E-02  10%  12.270 NAA                                                 
 5.17E-02  17%   7.660 Tau                                                 
 8.64E-03  75%   1.282 PCho                                                
 7.07E-03  89%   1.048 GPC                                                 
 6.06E-02  16%   8.986 Glu                                                 
 1.59E-02  45%   2.356 Gln                                                 
    0.000 999%   0.000 Ala                                                 
 3.89E-02  36%   5.766 Asc                                                 
 1.16E-02  62%   1.718 Asp                                                 
    0.000 999%   0.000 GABA                                                
 6.19E-03  76%   0.919 Glc                                                 
 8.33E-03  48%   1.235 GSH                                                 
    0.000 999%   0.000 Lac                                                 
    0.000 999%   0.000 NAAG                                                
    0.000 999%   0.000 PE                                                  
 1.57E-02  16%   2.330 GPC+PCho                                            
 8.27E-02  10%  12.270 NAA+NAAG                                            
 7.65E-02  16%  11.342 Glu+Gln                                             
 5.39E-02  13%   8.000 Cr+PCr                                              
 8.27E-02  10%  12.270 NAA+NAAG                                            
 5.39E-02  13%   8.000 Cr+PCr                                              
 7.65E-02  16%  11.342 Glu+Gln                                             
   6 lines in following misc. output table
  FWHM = 0.035 ppm    S/N =   3                                            
  Data shift = 0.047 ppm                                                   
  Ph:  28 deg     -11.6 deg/ppm                                            
  alphaB,S = 1.6E+01,   1.3E+01                                            
   18 spline knots.   Ns = 7(1)                                            
  ( 7) 1 infls.   ( 2) 2 extrs.                                            
  654 points on ppm-axis = NY
      4.000000     3.994181     3.988363     3.982544     3.976726     3.970907     3.965088     3.959270     3.953451     3.947633
      3.941814     3.935995     3.930177     3.924358     3.918540     3.912721     3.906902     3.901084     3.895265     3.889446
      3.883628     3.877809     3.871991     3.866172     3.860353     3.854535     3.848716     3.842898     3.837079     3.831260
      3.825442     3.819623     3.813805     3.807986     3.802167     3.796349     3.790530     3.784712     3.778893     3.773074
      3.767256     3.761437     3.755619     3.749800     3.743981     3.738163     3.732344     3.726526     3.720707     3.714888
      3.709070     3.703251     3.697433     3.691614     3.685795     3.679977     3.674158     3.668339     3.662521     3.656702
      3.650884     3.645065     3.639246     3.633428     3.627609     3.621791     3.615972     3.610153     3.604335     3.598516
      3.592698     3.586879     3.581060     3.575242     3.569423     3.563605     3.557786     3.551967     3.546149     3.540330
      3.534512     3.528693     3.522874     3.517056     3.511237     3.505419     3.499600     3.493781     3.487963     3.482144
      3.476326     3.470507     3.464688     3.458870     3.453051     3.447232     3.441414     3.435595     3.429777     3.423958
      3.418139     3.412321     3.406502     3.400684     3.394865     3.389046     3.383228     3.377409     3.371591     3.365772
      3.359953     3.354135     3.348316     3.342498     3.336679     3.330860     3.325042     3.319223     3.313405     3.307586
      3.301767     3.295949     3.290130     3.284312     3.278493     3.272674     3.266856     3.261037     3.255219     3.249400
      3.243581     3.237763     3.231944     3.226125     3.220307     3.214488     3.208670     3.202851     3.197032     3.191214
      3.185395     3.179577     3.173758     3.167939     3.162121     3.156302     3.150484     3.144665     3.138846     3.133028
      3.127209     3.121391     3.115572     3.109753     3.103935     3.098116     3.092298     3.086479     3.080660     3.074842
      3.069023     3.063205     3.057386     3.051567     3.045749     3.039930     3.034111     3.028293     3.022474     3.016656
      3.010837     3.005018     2.999200     2.993381     2.987563     2.981744     2.975925     2.970107     2.964288     2.958470
      2.952651     2.946832     2.941014     2.935195     2.929377     2.923558     2.917739     2.911921     2.906102     2.900284
      2.894465     2.888646     2.882828     2.877009     2.871191     2.865372     2.859553     2.853735     2.847916     2.842098
      2.836279     2.830460     2.824642     2.818823     2.813004     2.807186     2.801367     2.795549     2.789730     2.783911
      2.778093     2.772274     2.766456     2.760637     2.754818     2.749000     2.743181     2.737363     2.731544     2.725725
      2.719907     2.714088     2.708270     2.702451     2.696632     2.690814     2.684995     2.679177     2.673358     2.667539
      2.661721     2.655902     2.650084     2.644265     2.638446     2.632628     2.626809     2.620991     2.615172     2.609353
      2.603535     2.597716     2.591897     2.586079     2.580260     2.574442     2.568623     2.562804     2.556986     2.551167
      2.545349     2.539530     2.533711     2.527893     2.522074     2.516256     2.510437     2.504618     2.498800     2.492981
      2.487163     2.481344     2.475525     2.469707     2.463888     2.458070     2.452251     2.446432     2.440614     2.434795
      2.428977     2.423158     2.417339     2.411521     2.405702     2.399884     2.394065     2.388246     2.382428     2.376609
      2.370790     2.364972     2.359153     2.353335     2.347516     2.341697     2.335879     2.330060     2.324242     2.318423
      2.312604     2.306786     2.300967     2.295149     2.289330     2.283511     2.277693     2.271874     2.266056     2.260237
      2.254418     2.248600     2.242781     2.236963     2.231144     2.225325     2.219507     2.213688     2.207870     2.202051
      2.196232     2.190414     2.184595     2.178777     2.172958     2.167139     2.161321     2.155502     2.149683     2.143865
      2.138046     2.132228     2.126409     2.120590     2.114772     2.108953     2.103135     2.097316     2.091497     2.085679
      2.079860     2.074042     2.068223     2.062404     2.056586     2.050767     2.044949     2.039130     2.033311     2.027493
      2.021674     2.015856     2.010037     2.004218     1.998400     1.992581     1.986763     1.980944     1.975126     1.969307
      1.963489     1.957670     1.951852     1.946033     1.940215     1.934397     1.928578     1.922760     1.916941     1.911123
      1.905304     1.899486     1.893667     1.887849     1.882030     1.876212     1.870393     1.864575     1.858756     1.852938
      1.847119     1.841301     1.835482     1.829664     1.823845     1.818027     1.812208     1.806390     1.800571     1.794753
      1.788934     1.783116     1.777297     1.771479     1.765660     1.759842     1.754023     1.748205     1.742386     1.736568
      1.730749     1.724931     1.719113     1.713294     1.707476     1.701657     1.695839     1.690020     1.684202     1.678383
      1.672565     1.666746     1.660928     1.655109     1.649291     1.643472     1.637654     1.631835     1.626017     1.620198
      1.614380     1.608561     1.602743     1.596924     1.591106     1.585287     1.579469     1.573650     1.567832     1.562013
      1.556195     1.550376     1.544558     1.538739     1.532921     1.527102     1.521284     1.515465     1.509647     1.503829
      1.498010     1.492192     1.486373     1.480555     1.474736     1.468918     1.463099     1.457281     1.451462     1.445644
      1.439825     1.434007     1.428188     1.422370     1.416551     1.410733     1.404914     1.399096     1.393277     1.387459
      1.381640     1.375822     1.370003     1.364185     1.358366     1.352548     1.346729     1.340911     1.335092     1.329274
      1.323455     1.317637     1.311818     1.306000     1.300182     1.294363     1.288545     1.282726     1.276908     1.271089
      1.265271     1.259452     1.253634     1.247815     1.241997     1.236178     1.230360     1.224541     1.218723     1.212904
      1.207086     1.201267     1.195449     1.189630     1.183812     1.177993     1.172175     1.166356     1.160538     1.154719
      1.148901     1.143082     1.137264     1.131445     1.125627     1.119808     1.113990     1.108171     1.102353     1.096534
      1.090716     1.084898     1.079079     1.073261     1.067442     1.061624     1.055805     1.049987     1.044168     1.038350
      1.032531     1.026713     1.020894     1.015076     1.009257     1.003439     0.997620     0.991802     0.985983     0.980165
      0.974346     0.968528     0.962709     0.956891     0.951072     0.945254     0.939435     0.933617     0.927798     0.921980
      0.916161     0.910343     0.904524     0.898706     0.892887     0.887069     0.881251     0.875432     0.869614     0.863795
      0.857977     0.852158     0.846340     0.840521     0.834703     0.828884     0.823066     0.817247     0.811429     0.805610
      0.799792     0.793973     0.788155     0.782336     0.776518     0.770699     0.764881     0.759062     0.753244     0.747425
      0.741607     0.735788     0.729970     0.724151     0.718333     0.712514     0.706696     0.700877     0.695059     0.689240
      0.683422     0.677603     0.671785     0.665967     0.660148     0.654330     0.648511     0.642693     0.636874     0.631056
      0.625237     0.619419     0.613600     0.607782     0.601963     0.596145     0.590326     0.584508     0.578689     0.572871
      0.567052     0.561234     0.555415     0.549597     0.543778     0.537960     0.532141     0.526323     0.520504     0.514686
      0.508867     0.503049     0.497230     0.491412     0.485593     0.479775     0.473956     0.468138     0.462319     0.456501
      0.450682     0.444864     0.439045     0.433227     0.427408     0.421590     0.415771     0.409953     0.404134     0.398316
      0.392497     0.386679     0.380860     0.375042     0.369223     0.363405     0.357586     0.351767     0.345949     0.340130
      0.334312     0.328493     0.322675     0.316856     0.311038     0.305219     0.299401     0.293582     0.287764     0.281945
      0.276127     0.270308     0.264490     0.258671     0.252853     0.247034     0.241216     0.235397     0.229579     0.223760
      0.217942     0.212123     0.206305     0.200486
 NY phased data points follow
  -1.16249E-01 -1.50173E-01  1.61472E-01 -2.00643E-01 -3.46327E-02  7.22662E-02 -1.62576E-01  2.03449E-01  1.49301E-02 -2.19125E-01
  -1.68677E-01  1.33875E-02  4.14218E-01  5.74434E-01  4.49104E-01  6.01476E-01  3.79208E-01  1.05556E-01  2.79126E-01  2.86563E-01
   3.34834E-01  7.25145E-02  3.22776E-01  6.08732E-02 -1.20624E-01  2.21693E-01 -2.76407E-01 -1.46484E-01 -1.95598E-01 -2.53300E-01
   8.05077E-02 -1.53701E-01 -1.35669E-01 -2.40529E-01 -4.17801E-01 -2.73367E-01 -5.68160E-01 -5.30234E-01 -5.73875E-01 -3.57421E-01
  -4.51400E-02 -4.00174E-01 -8.88112E-02  9.43210E-02  1.02318E-01  3.05192E-01  6.02824E-01  3.12863E-01  1.48057E-01  3.58003E-01
   9.13212E-03  1.45948E-02  8.84973E-02  3.15451E-01  5.08976E-02  7.35050E-02  3.65153E-01 -1.80768E-01  5.12297E-02  1.96145E-01
  -2.88409E-01 -1.63059E-01 -7.74538E-02 -2.96178E-01 -2.63701E-01 -2.49880E-01 -1.21563E-01 -1.20201E-01 -7.74672E-02  3.29245E-01
   2.06390E-01 -1.27015E-02  4.03835E-01  5.38880E-01  3.41083E-01  4.87239E-01  2.96237E-01  5.82668E-02 -1.27889E-01 -3.10484E-01
  -2.50543E-01 -2.60845E-01 -2.26908E-01 -1.47792E-01  1.19214E-01  1.44080E-01  3.02291E-01  2.19936E-01 -5.65383E-02  3.51326E-02
   3.42269E-01  5.89085E-01  3.13580E-01  1.78906E-01  2.75512E-02  2.02991E-01  4.56473E-02 -4.85982E-02 -1.51257E-01 -2.68878E-01
  -2.04228E-01 -5.04008E-01 -6.00867E-02 -2.04084E-02  4.05499E-02  8.65792E-02  1.71966E-01  2.04699E-01  3.07791E-01  3.52283E-01
  -1.16367E-01  1.86056E-01  4.34445E-01  5.01733E-01  4.16468E-01  2.58040E-01 -1.47823E-01  1.81583E-01  2.50446E-01  8.16290E-02
   4.76130E-01  4.56971E-02  5.86830E-02  2.03119E-02 -2.29011E-01 -4.46094E-02 -6.28398E-02 -1.07475E-01  6.37254E-02 -8.43911E-02
  -2.92311E-01 -6.20230E-01 -4.39150E-01 -3.08173E-01 -7.17637E-01 -6.69011E-01 -6.01877E-01 -6.84199E-01 -8.57602E-01 -7.27788E-01
  -6.03122E-01 -2.94122E-01 -5.07656E-01 -5.49836E-01 -1.65688E-01 -3.78675E-02  5.48508E-02 -1.26694E-01 -2.33717E-01 -6.42123E-02
   1.91056E-01 -1.67602E-01  1.44725E-01  4.71747E-01  1.76613E-01  6.91821E-02  9.64413E-02 -2.62145E-02  2.94173E-01  4.13497E-01
   1.78418E-01  5.35519E-01  4.10432E-01  5.93924E-01  8.44709E-01  6.68911E-01  5.85841E-01  6.33935E-01  9.42896E-02 -2.79698E-01
  -5.98577E-01 -6.25569E-01 -3.59390E-01 -5.66158E-01 -3.76081E-01 -4.84224E-01 -3.14022E-02 -3.47288E-02 -5.90227E-01 -7.10348E-01
  -4.65434E-01 -2.08438E-01 -3.24545E-01 -2.42234E-01 -1.57881E-01 -5.21470E-01 -4.50144E-01 -4.95535E-03 -3.50966E-01 -3.63492E-01
  -5.21085E-01 -4.22591E-01 -2.82021E-01 -8.97233E-02  1.58064E-01 -1.68961E-01 -2.71123E-01 -3.90690E-02  2.37660E-02 -4.09124E-01
  -2.51413E-01 -1.75280E-01 -1.69813E-01  4.27975E-02  2.85540E-01  3.70255E-01 -2.98521E-03 -1.24796E-01  1.20755E-01  2.31362E-03
   2.36999E-02 -1.37614E-01 -1.61648E-01  8.82754E-02 -7.03839E-02 -1.53049E-01 -1.67152E-01  3.87058E-01 -7.56287E-02 -6.97941E-02
  -1.32191E-01 -2.56837E-01  8.54623E-02  3.99330E-02  2.80699E-01 -2.19602E-02  4.50175E-01  3.31711E-01  3.74122E-01  4.74282E-01
   2.03768E-01  3.07823E-01  3.80183E-01  2.19644E-01  1.43521E-01  7.36988E-02 -1.68213E-01  2.23960E-01 -1.41463E-01  2.97062E-02
  -2.36355E-01 -4.92020E-01  7.04966E-02 -4.03373E-02  3.16671E-02 -1.23266E-01 -1.10546E-01  2.48693E-01 -2.63795E-01 -2.66774E-01
  -4.93119E-03 -1.65691E-01 -1.01647E-02 -1.77919E-01  2.59352E-01  1.11947E-01  1.47566E-01  1.18018E-01  9.18638E-02  4.89100E-02
   5.16019E-02  4.06511E-01 -1.33247E-01  1.56418E-01 -1.13335E-01  7.10112E-02  6.14042E-02 -4.46526E-02  1.35886E-02  1.05925E-03
   3.31505E-01  7.06650E-02  3.58636E-01  2.21636E-01  1.50118E-01 -7.67232E-04  4.46263E-02 -2.90517E-01 -5.07316E-01 -1.45370E-01
  -1.95074E-01 -3.35984E-01 -3.69249E-01  2.41906E-02 -2.23143E-01 -4.35180E-02  5.33849E-01  5.80926E-02  7.04874E-03  6.38586E-01
   4.34943E-01  7.22889E-01  6.67441E-01  1.93212E-01  3.73061E-01  3.42850E-02  2.71666E-01  3.32223E-01  9.37575E-02  1.76305E-01
   1.41934E-01  1.36236E-01 -3.05231E-01  5.56993E-02  3.44292E-01  4.21443E-02  3.72669E-01  1.85790E-01  2.91279E-01  5.69979E-01
   4.67183E-01  3.69239E-01  5.11223E-01  4.13521E-01  2.36412E-01  2.15688E-01  2.16629E-02  3.14772E-01 -1.71001E-01  1.94053E-01
   2.99495E-01 -6.89916E-01 -4.47597E-01 -1.46446E-01  8.38506E-02 -2.68587E-01 -3.71811E-01  6.25480E-02 -1.84713E-01  1.18552E-01
  -1.98723E-01 -3.71991E-01  2.67928E-01  2.36541E-01  6.83614E-01  1.03278E-01  2.12922E-02  1.81888E-01 -2.48020E-01 -3.51267E-01
  -9.16002E-01 -7.23595E-01 -1.16892E+00 -1.43771E+00 -1.04255E+00 -9.85965E-01 -9.58384E-01 -6.12007E-01 -4.02511E-01 -3.50486E-01
  -1.96507E-01 -6.58542E-02  9.96473E-02 -9.66039E-02 -5.25619E-02  1.23337E-01 -1.32075E-01 -3.00261E-01  4.67121E-01  4.33454E-02
  -4.27303E-01  3.17615E-02 -6.70633E-02  1.63976E-01  1.24640E-02 -1.46847E-01  3.81273E-01  3.52095E-01  2.96686E-01  3.87852E-01
   1.43531E-01  2.44302E-01  2.53571E-01  3.96996E-01  6.85450E-02  5.71862E-02  3.34343E-03  3.89364E-02  4.41229E-02 -5.07792E-02
   5.53642E-01  9.52264E-02  7.18584E-02  3.62807E-01  4.25083E-01 -1.10479E-01  2.06175E-03  1.69285E-01  1.30832E-01  3.86167E-01
   1.58837E-01  1.39809E-01 -1.38739E-01 -1.80248E-02 -9.32764E-02  2.86249E-01  2.15260E-01  2.36865E-01  3.52167E-01  1.63985E-01
   1.48053E-01  9.86994E-02  6.73205E-02  5.19584E-02  1.80195E-01  1.49652E-02  2.30569E-01 -3.44686E-01  1.12759E-01  3.26838E-02
  -1.81070E-01 -2.42583E-02 -5.46939E-01 -1.85859E-01 -3.69985E-02 -8.85547E-02 -2.94341E-01  1.88745E-02 -2.15290E-01 -3.54162E-01
  -3.63247E-01 -5.01532E-01 -4.75399E-01 -3.85621E-01 -6.14525E-01 -4.77416E-01 -4.77338E-01 -5.03006E-01 -7.91063E-02 -4.14458E-01
   9.37844E-02 -2.28434E-01  2.13655E-01  4.42509E-02 -1.83561E-01  3.12928E-01 -2.87575E-01  6.81975E-02 -1.82588E-01 -1.38206E-02
   1.82825E-01 -1.48164E-01  1.73435E-02  2.66007E-01  3.07565E-01  1.95362E-01  1.59110E-02  5.19782E-01  3.97698E-01  2.45930E-01
   3.91591E-01  2.48407E-01  4.77196E-01  1.80171E-01  5.02127E-01  6.67796E-02  1.19802E-01  1.08841E-01 -1.24089E-01  2.80667E-01
   1.49807E-01  2.15668E-01 -1.30183E-01 -1.92756E-01 -4.69090E-02  6.38397E-02  1.68933E-01  5.66379E-02 -2.42291E-01  1.42648E-01
  -3.92469E-01 -5.38183E-01  4.14230E-02 -2.55858E-01 -1.00507E-01 -4.12210E-01 -2.89956E-01 -3.80240E-02 -1.70002E-01 -2.93754E-01
  -3.83348E-02 -1.18267E-01 -1.17669E-01  6.08265E-02 -5.45059E-02  1.71466E-01  1.19841E-01  1.94545E-01 -1.52763E-01  2.45055E-01
   5.18502E-01  1.90613E-02 -1.47426E-01 -2.03937E-01 -6.97432E-02 -5.53868E-02  8.28611E-02 -5.68281E-02  2.09173E-01  8.11552E-02
   1.12003E-01  5.19897E-01 -1.54901E-01 -1.66365E-01  3.32299E-02  2.93104E-01  1.78272E-01 -8.07352E-02  2.79866E-01 -3.33677E-02
   1.04436E-01  4.03547E-01  2.02818E-01  2.05912E-02  1.88450E-01  2.13104E-01  5.21381E-02  1.23416E-01 -1.30945E-02 -2.07383E-01
  -1.00121E-01  1.83774E-01  7.30402E-02 -1.43187E-01 -4.31320E-01 -2.65961E-01 -4.21979E-01 -3.68423E-01 -2.53312E-01 -6.30851E-01
  -2.42083E-01 -3.74544E-01 -3.24165E-01 -1.69702E-01 -2.76998E-01 -1.14625E-01 -8.53380E-02 -3.06025E-01 -3.34749E-01 -1.84011E-01
  -3.09697E-01 -2.44066E-01 -2.86097E-01 -2.89234E-01  8.66648E-03 -1.56302E-01 -1.21411E-01 -4.13225E-02 -1.99081E-01  2.09675E-01
  -1.11994E-01  8.38766E-03 -4.18630E-02 -1.87820E-01  1.95421E-02 -1.66365E-01  2.33854E-01  1.71217E-01  2.35502E-01 -5.52065E-02
   1.89619E-01  1.62254E-01  9.71768E-02  4.49248E-01  3.59215E-02  2.29962E-01  1.78227E-01  1.47021E-01 -1.30777E-02  8.35640E-03
   5.54213E-02  8.96095E-02  9.54835E-02 -1.67876E-01 -5.10193E-03  3.93394E-02  1.97144E-01  3.55316E-01  5.86790E-02 -1.80412E-01
  -1.45728E-01  2.99282E-01  1.42087E-01 -5.22012E-01  1.50852E-01  2.36432E-01  4.90594E-02  1.32493E-01 -5.25737E-03  5.16399E-02
   4.53017E-01  6.08205E-01 -3.67480E-02  2.34442E-01  3.11752E-01  1.01252E-01  1.15841E-01  2.52367E-01 -3.41127E-02 -7.26119E-02
   4.38368E-01  2.20486E-01 -1.26259E-02  3.00870E-02 -9.54501E-02 -2.82664E-01  1.02509E-03 -7.50371E-02  1.28815E-01  4.34922E-01
   3.63829E-01  8.51685E-03 -9.89505E-02  1.64038E-01  9.14928E-02  1.31591E-02  1.58339E-01  3.35326E-02 -2.38663E-01  7.18316E-02
  -2.85877E-02  2.68168E-01  1.50206E-01  2.91087E-02  8.34871E-02  1.03972E-01  4.87823E-01  2.09660E-01  2.22764E-01  1.70118E-01
   1.03545E-01  1.98490E-01  3.15300E-01 -1.69522E-01 -1.45402E-01 -8.18834E-03 -3.61002E-02  4.59598E-02  2.09440E-01  2.73655E-01
  -1.50538E-01  3.22207E-01  6.37208E-02 -6.26922E-02 -5.68090E-03 -5.30491E-02 -9.85628E-02 -2.07483E-01 -6.47492E-03  2.98661E-01
   3.08991E-01 -1.04657E-01  4.07100E-01  1.57483E-01
 NY points of the fit to the data follow
   1.78330E-01  1.66292E-01  1.48670E-01  1.25260E-01  1.04397E-01  7.16916E-02  4.29941E-02  4.08678E-02  9.62009E-03  4.28464E-02
   1.07172E-01  1.86951E-01  2.94287E-01  3.98647E-01  4.49195E-01  4.91258E-01  4.97670E-01  4.46093E-01  3.75195E-01  2.93939E-01
   2.29211E-01  1.62152E-01  1.05105E-01  4.78676E-02  8.72814E-03 -2.27232E-02 -4.95583E-02 -7.18816E-02 -9.02766E-02 -1.04490E-01
  -1.16445E-01 -1.29015E-01 -1.44690E-01 -1.80526E-01 -2.15429E-01 -2.55623E-01 -2.87053E-01 -3.15906E-01 -3.12535E-01 -3.05378E-01
  -2.46725E-01 -1.56022E-01 -5.96280E-02  4.15746E-02  1.48010E-01  2.29228E-01  2.92636E-01  3.30124E-01  3.25162E-01  3.11477E-01
   2.85143E-01  2.45797E-01  1.91030E-01  1.38410E-01  8.23613E-02  3.71805E-02  3.98877E-03 -4.73831E-02 -7.99048E-02 -8.54337E-02
  -1.59085E-01 -2.00708E-01 -2.21608E-01 -2.83798E-01 -2.73479E-01 -2.22237E-01 -1.87717E-01 -8.60882E-02  4.98226E-02  1.39021E-01
   2.21212E-01  2.84632E-01  3.21032E-01  3.32568E-01  3.17266E-01  2.33542E-01  1.39710E-01  3.49702E-02 -1.07882E-01 -2.11639E-01
  -2.78626E-01 -3.16140E-01 -2.67380E-01 -1.54524E-01 -4.69515E-02  6.54647E-02  1.71823E-01  2.53828E-01  3.00057E-01  3.16052E-01
   3.13948E-01  3.16983E-01  2.96415E-01  2.88689E-01  2.20792E-01  1.54500E-01  4.87778E-02 -6.22118E-02 -1.63374E-01 -2.22404E-01
  -2.56620E-01 -2.27624E-01 -1.59536E-01 -7.49050E-02  2.43227E-02  9.65660E-02  1.59889E-01  1.94626E-01  2.24618E-01  2.32573E-01
   2.36631E-01  2.31270E-01  2.26079E-01  2.21134E-01  2.16559E-01  2.13063E-01  2.18442E-01  2.22233E-01  2.17528E-01  2.34155E-01
   2.15502E-01  1.93433E-01  1.84476E-01  1.47420E-01  9.56566E-02  3.57354E-02 -6.73880E-02 -1.85186E-01 -2.49604E-01 -2.77621E-01
  -2.87930E-01 -3.34574E-01 -3.88852E-01 -4.75070E-01 -5.68463E-01 -6.59754E-01 -7.53243E-01 -8.18575E-01 -7.90975E-01 -6.80070E-01
  -5.53310E-01 -4.38057E-01 -3.36751E-01 -2.32558E-01 -1.40919E-01 -7.08512E-02 -2.62647E-02  8.11935E-03  3.57282E-02  5.91748E-02
   7.82571E-02  9.47542E-02  1.10016E-01  1.24885E-01  1.38435E-01  1.51642E-01  1.63462E-01  1.73599E-01  1.79420E-01  1.74422E-01
   1.71072E-01  3.73532E-01  5.15527E-01  6.37594E-01  6.99668E-01  6.22943E-01  4.63041E-01  3.15053E-01  2.02013E-02 -3.00468E-01
  -4.76466E-01 -5.42609E-01 -5.35239E-01 -5.42813E-01 -5.15522E-01 -4.75331E-01 -4.02305E-01 -3.61185E-01 -3.32895E-01 -3.14405E-01
  -3.00730E-01 -2.87269E-01 -2.73475E-01 -2.61815E-01 -2.51811E-01 -2.42055E-01 -2.32075E-01 -2.21599E-01 -2.11739E-01 -2.01205E-01
  -1.91247E-01 -1.80742E-01 -1.70137E-01 -1.58911E-01 -1.48400E-01 -1.39189E-01 -1.28517E-01 -1.15208E-01 -1.01158E-01 -8.70468E-02
  -7.70532E-02 -6.82980E-02 -5.63766E-02 -4.52451E-02 -3.69931E-02 -3.24668E-02 -3.17246E-02 -3.00569E-02 -3.04520E-02 -3.64903E-02
  -4.45875E-02 -5.03672E-02 -5.16141E-02 -5.09999E-02 -5.03453E-02 -5.00495E-02 -4.90097E-02 -5.14689E-02 -7.30548E-02 -8.53110E-02
  -7.25346E-02 -4.70119E-02 -1.20308E-02  2.27043E-02  5.84526E-02  1.20147E-01  1.89266E-01  2.39452E-01  2.64906E-01  2.78353E-01
   2.91867E-01  2.87008E-01  2.43894E-01  1.80102E-01  1.21239E-01  7.42041E-02  3.35400E-02 -4.18358E-03 -3.51566E-02 -5.60504E-02
  -7.06583E-02 -8.08496E-02 -8.98603E-02 -9.62057E-02 -9.99573E-02 -1.01776E-01 -1.01765E-01 -9.96511E-02 -9.82267E-02 -1.00835E-01
  -1.26340E-01 -1.37532E-01 -1.53070E-01 -1.71558E-01 -1.78937E-01 -1.70112E-01 -1.47292E-01 -1.10514E-01 -6.32507E-02 -2.43594E-02
   6.83816E-03  5.19070E-02  8.37732E-02  8.95548E-02  9.86557E-02  1.11143E-01  1.18120E-01  1.20005E-01  1.14866E-01  1.12999E-01
   1.09380E-01  9.70699E-02  8.00234E-02  5.73115E-02  3.91250E-02  1.52226E-02 -1.45416E-02 -5.01803E-02 -1.10920E-01 -1.83865E-01
  -2.51855E-01 -3.16264E-01 -3.40421E-01 -3.17448E-01 -2.59194E-01 -1.59253E-01 -3.56436E-02  7.90961E-02  1.78487E-01  2.45701E-01
   2.78435E-01  2.86944E-01  2.78513E-01  2.59448E-01  2.33740E-01  2.08888E-01  1.86675E-01  1.71039E-01  1.60331E-01  1.53515E-01
   1.49478E-01  1.48425E-01  1.49296E-01  1.50487E-01  1.52279E-01  1.54521E-01  1.56348E-01  1.57398E-01  1.55501E-01  1.52782E-01
   1.45177E-01  1.35324E-01  1.19071E-01  9.50292E-02  6.37105E-02  2.44821E-02 -2.36835E-02 -7.38989E-02 -1.33176E-01 -1.87617E-01
  -2.38393E-01 -2.75255E-01 -2.97915E-01 -2.99052E-01 -2.77809E-01 -2.41682E-01 -1.84951E-01 -1.35771E-01 -8.49676E-02 -5.80080E-02
  -4.30804E-02 -5.24085E-02 -6.93750E-02 -9.46998E-02 -9.54518E-02  8.96590E-02  1.17764E-01  5.00091E-02 -1.15001E-01 -4.07308E-01
  -7.19453E-01 -9.30405E-01 -1.20670E+00 -1.36935E+00 -1.26963E+00 -1.04348E+00 -7.97172E-01 -6.22831E-01 -4.48627E-01 -2.93817E-01
  -1.49203E-01 -7.89880E-02 -4.47716E-02 -2.31889E-02 -9.09314E-03 -2.17659E-05  6.37972E-03  1.12872E-02  1.55136E-02  1.93583E-02
   2.36729E-02  2.81378E-02  3.35282E-02  3.83097E-02  4.25218E-02  4.58061E-02  4.81099E-02  5.04922E-02  5.31464E-02  5.53957E-02
   5.84691E-02  6.19346E-02  6.55610E-02  6.97745E-02  7.44502E-02  7.84871E-02  8.27046E-02  8.64985E-02  9.03340E-02  9.45930E-02
   9.86146E-02  1.02763E-01  1.06189E-01  1.09765E-01  1.12531E-01  1.15381E-01  1.17793E-01  1.20742E-01  1.24175E-01  1.28470E-01
   1.32765E-01  1.36880E-01  1.40156E-01  1.42266E-01  1.43596E-01  1.43125E-01  1.41491E-01  1.39345E-01  1.35951E-01  1.31071E-01
   1.24627E-01  1.17142E-01  1.08641E-01  9.95848E-02  9.00966E-02  7.98714E-02  6.95546E-02  6.00160E-02  5.05906E-02  4.11437E-02
   3.28426E-02  2.51974E-02  1.83719E-02  1.21419E-02  6.35812E-03  1.23467E-03 -3.71852E-03 -8.67618E-03 -1.31858E-02 -1.75536E-02
  -2.13904E-02 -2.43949E-02 -2.65919E-02 -2.84097E-02 -2.79385E-02 -2.55441E-02 -2.17858E-02 -1.67920E-02 -1.16397E-02 -6.72093E-03
  -1.78382E-03  3.62619E-03  8.57397E-03  1.39168E-02  1.95748E-02  2.68549E-02  3.48096E-02  4.38059E-02  5.35400E-02  6.39402E-02
   7.59287E-02  8.93602E-02  1.04259E-01  1.20294E-01  1.37882E-01  1.55561E-01  1.73270E-01  1.90408E-01  2.05420E-01  2.18247E-01
   2.28789E-01  2.36875E-01  2.42648E-01  2.46089E-01  2.46446E-01  2.43926E-01  2.38698E-01  2.30510E-01  2.20335E-01  2.07115E-01
   1.93113E-01  1.78260E-01  1.63171E-01  1.47864E-01  1.32941E-01  1.18202E-01  1.04790E-01  9.26348E-02  8.08548E-02  6.96157E-02
   5.92509E-02  5.01903E-02  4.23397E-02  3.60268E-02  3.12152E-02  2.80492E-02  2.68996E-02  2.78058E-02  3.01900E-02  3.44138E-02
   4.02752E-02  4.74052E-02  5.47124E-02  6.20712E-02  6.91152E-02  7.54689E-02  8.12820E-02  8.71177E-02  9.17598E-02  9.61663E-02
   1.00603E-01  1.03659E-01  1.05407E-01  1.05529E-01  1.04302E-01  1.02278E-01  9.94490E-02  9.52907E-02  9.07449E-02  8.61895E-02
   8.18496E-02  7.70494E-02  7.13503E-02  6.56276E-02  6.00624E-02  5.44491E-02  4.88116E-02  4.36256E-02  3.89015E-02  3.50550E-02
   3.12967E-02  2.69233E-02  2.17285E-02  1.62403E-02  1.05545E-02  4.45795E-03 -3.38788E-03 -1.26466E-02 -2.36120E-02 -3.70597E-02
  -5.34383E-02 -7.25246E-02 -9.43332E-02 -1.17230E-01 -1.40826E-01 -1.65501E-01 -1.89997E-01 -2.13297E-01 -2.34730E-01 -2.53703E-01
  -2.70023E-01 -2.83092E-01 -2.91521E-01 -2.95202E-01 -2.95211E-01 -2.92452E-01 -2.87138E-01 -2.78805E-01 -2.69725E-01 -2.60159E-01
  -2.50044E-01 -2.39320E-01 -2.27462E-01 -2.14628E-01 -2.00387E-01 -1.85800E-01 -1.70578E-01 -1.54675E-01 -1.38101E-01 -1.22110E-01
  -1.06031E-01 -9.12581E-02 -7.64065E-02 -6.18339E-02 -4.83913E-02 -3.56444E-02 -2.42108E-02 -1.35411E-02 -3.00521E-03  6.60140E-03
   1.41904E-02  2.11783E-02  2.79942E-02  3.41578E-02  3.88274E-02  4.27556E-02  4.58712E-02  4.81643E-02  5.05163E-02  5.26980E-02
   5.46616E-02  5.69870E-02  6.02107E-02  6.31972E-02  6.57950E-02  6.85965E-02  7.08020E-02  7.19037E-02  7.31780E-02  7.39151E-02
   7.39082E-02  7.39533E-02  7.33350E-02  7.29888E-02  7.40669E-02  7.50549E-02  7.53336E-02  7.57143E-02  7.55661E-02  7.52706E-02
   7.46346E-02  7.34159E-02  7.23622E-02  7.21622E-02  7.26917E-02  7.21875E-02  7.11747E-02  7.03042E-02  6.99100E-02  6.92895E-02
   6.87320E-02  6.86436E-02  6.97295E-02  7.09440E-02  7.21107E-02  7.33656E-02  7.56032E-02  7.79149E-02  7.99302E-02  8.13738E-02
   8.21292E-02  8.25665E-02  8.30388E-02  8.27250E-02  8.30541E-02  8.35963E-02  8.39125E-02  8.48773E-02  8.53635E-02  8.69460E-02
   8.98176E-02  9.22918E-02  9.47269E-02  9.73471E-02  9.94840E-02  1.01249E-01  1.02299E-01  1.02469E-01  1.02731E-01  1.02939E-01
   1.03700E-01  1.04709E-01  1.04657E-01  1.04479E-01  1.04805E-01  1.05502E-01  1.06288E-01  1.07511E-01  1.08149E-01  1.09356E-01
   1.11429E-01  1.12778E-01  1.13374E-01  1.14327E-01  1.15709E-01  1.18266E-01  1.21400E-01  1.25046E-01  1.28969E-01  1.33651E-01
   1.38008E-01  1.41872E-01  1.45643E-01  1.49945E-01
 NY background values follow
     7.035E-02    7.018E-02    7.001E-02    6.984E-02    6.967E-02    6.951E-02    6.934E-02    6.917E-02    6.900E-02    6.883E-02
     6.866E-02    6.849E-02    6.832E-02    6.816E-02    6.799E-02    6.782E-02    6.765E-02    6.748E-02    6.731E-02    6.714E-02
     6.698E-02    6.681E-02    6.664E-02    6.647E-02    6.630E-02    6.613E-02    6.596E-02    6.579E-02    6.563E-02    6.546E-02
     6.529E-02    6.512E-02    6.495E-02    6.478E-02    6.461E-02    6.444E-02    6.428E-02    6.411E-02    6.394E-02    6.377E-02
     6.360E-02    6.343E-02    6.326E-02    6.309E-02    6.292E-02    6.276E-02    6.259E-02    6.242E-02    6.225E-02    6.208E-02
     6.191E-02    6.174E-02    6.157E-02    6.140E-02    6.124E-02    6.107E-02    6.090E-02    6.073E-02    6.056E-02    6.039E-02
     6.022E-02    6.005E-02    5.988E-02    5.971E-02    5.955E-02    5.938E-02    5.921E-02    5.904E-02    5.887E-02    5.870E-02
