 
 $NMID
 ID=''
 FMTDAT='(2E13.5)'
 TRAMP=   1.00000E+0
 VOLUME=   1.00000E+0
 $END
   2.90407E+2  -7.48723E+2
   6.08507E+2   1.64791E+3
   1.09004E+3  -5.10295E+3
   6.23341E+2  -2.13795E+2
  -6.96004E+2   3.76832E+2
  -8.86921E+2  -1.41113E+3
  -1.97072E+1   2.22495E+3
  -2.56856E+3  -1.93054E+2
  -9.08947E+2  -4.29098E+3
   4.18328E+2  -1.32055E+3
   6.54655E+2   3.63124E+2
   2.33457E+3   4.51692E+2
   8.21925E+1   5.99631E+2
  -3.09216E+3   1.26433E+2
  -1.64669E+3   2.33318E+2
  -1.58351E+3   1.89876E+3
   1.05486E+3  -3.58242E+1
  -1.15792E+3  -9.57964E+2
   8.89901E+2   2.32518E+3
  -8.48964E+2   2.76270E+2
   2.34254E+3  -7.22313E+2
   4.15163E+3   3.03551E+3
   2.32303E+2   5.48034E+3
  -2.37069E+3  -2.12121E+3
   1.29377E+3  -1.19810E+3
  -1.36619E+3   3.71353E+3
  -1.86674E+3  -6.60566E+2
   2.03143E+3  -1.17485E+3
   1.01855E+3  -3.46309E+3
   3.61337E+3  -6.38287E+2
   4.20467E+3   2.16908E+3
  -3.71641E+3   2.96240E+3
  -2.82490E+3  -9.97536E+2
   1.34912E+2  -1.21050E+3
   7.18021E+2   1.62004E+3
  -1.09216E+3  -2.42217E+2
  -1.19944E+2  -1.73947E+3
   3.50140E+2   2.62765E+3
  -1.35152E+3   3.47223E+3
  -4.20908E+3  -7.38425E+2
  -2.05082E+3  -2.62334E+3
  -5.40481E+2  -3.54134E+3
   1.83748E+3  -2.78440E+3
   4.52547E+3  -1.40727E+3
   3.01162E+3   8.82624E+2
   2.05773E+3   4.78447E+3
   2.90623E+2   2.14812E+3
  -9.47167E+2   4.69033E+3
   1.71043E+3   8.83805E+2
  -2.74303E+3   5.49283E+2
  -8.59577E+2  -1.23678E+3
   2.04458E+3   1.65689E+2
  -6.06931E+2  -4.92656E+1
  -4.07850E+3  -7.89208E+2
  -2.83076E+3  -2.52018E+3
  -1.61415E+3  -1.25914E+3
  -2.41279E+3  -1.69239E+3
   1.44526E+3  -2.50381E+3
   1.31390E+3  -6.95840E+2
   3.14166E+3   2.10292E+3
   1.56308E+3   1.18995E+3
   2.36110E+3   1.60340E+3
   2.71235E+2  -4.07789E+1
   1.27562E+3   7.84421E+1
   1.17445E+3  -8.61706E+2
  -8.51810E+2  -3.13556E+1
  -2.08306E+3  -5.09006E+2
   7.43931E+2  -3.83010E+3
  -8.92735E+2  -8.30308E+2
   1.97100E+2  -2.39696E+3
  -3.60745E+2  -7.94942E+1
  -1.40196E+3  -1.96164E+3
   1.18312E+3  -1.09106E+3
   4.71794E-1   1.02895E+3
   5.55324E+2   9.77771E+2
   6.68182E+2  -4.21627E+2
   3.16658E+2   8.65952E+2
  -3.09734E+2   8.27970E+2
   5.95910E+2   5.37293E+2
   1.05559E+2  -1.26831E+3
   3.76792E+0  -2.09685E+2
  -6.08631E+2   1.80372E+2
  -7.42380E+2  -6.07329E+2
  -4.09567E+2  -2.20159E+3
  -5.15974E+2  -3.64637E+2
   2.20765E+3   9.14712E+2
   2.34179E+2   1.96433E+2
  -1.52839E+3   1.28780E+3
   2.19518E+2   1.38855E+3
   7.58776E+2   8.15346E+2
  -6.64845E+1  -2.57687E+3
  -4.57195E+1   6.62411E+2
   2.81328E+1  -1.96517E+2
  -5.16186E+2  -1.48643E+3
  -1.70167E+3   8.29167E+2
  -2.05491E+3   8.66471E+2
   5.92364E+1   2.10897E+3
  -1.50190E+3  -6.11966E+1
   1.05813E+3   1.11325E+3
   4.38402E+2   5.03661E+2
  -1.66430E+3   2.50068E+3
  -1.26963E+3   1.65100E+3
  -8.33335E+2   5.57986E+2
  -7.92308E+2   2.95584E+2
   8.71572E+2   1.40635E+3
  -3.88491E+1  -2.28286E+2
   1.92939E+3   1.98609E+3
  -2.31277E+2  -6.22435E+1
  -1.06636E+3   5.91547E+1
  -1.62828E+2   6.79648E+2
  -8.89501E+2   3.27562E+2
  -1.50558E+3   9.16890E+2
   7.19907E+2   6.98834E+1
  -1.21240E+2  -5.36708E+2
  -1.61284E+3   1.48945E+3
   3.10032E+2  -1.24131E+3
   2.40150E+2  -4.64221E+2
   3.51056E+1   4.12320E+2
   1.87412E+2   8.86464E+2
   1.68842E+3   5.15868E+2
  -4.63283E+2   7.43126E+2
   3.96494E+2   1.13133E+3
   1.38789E+3   3.96032E+2
  -2.10571E+3  -9.83319E+2
  -1.67163E+3   5.47657E+2
   1.47802E+1  -1.26476E+3
   8.05855E+2  -2.18408E+3
   7.79807E+2  -6.23549E+2
   7.83253E+2  -2.01843E+3
   6.71403E+2  -1.82845E+3
   6.32568E+2  -3.76065E+2
  -1.96102E+3  -9.47273E+2
  -4.52469E+2  -9.41359E+2
   1.48225E+3  -1.97067E+3
   5.85027E+2   6.01106E+2
  -1.35464E+3  -1.00914E+3
   2.15917E+3   3.75703E+0
  -6.45642E+2   7.67343E+2
   1.99181E+3   9.02000E+2
  -3.73633E+2   8.38020E+2
   1.87080E+3   5.75190E+2
  -1.73978E+1  -7.82067E+2
   1.01516E+3  -7.50485E+2
   1.34184E+3   1.75040E+3
  -6.47476E+2  -3.86711E+2
  -3.74079E+2  -9.22827E+2
   8.68372E+2   5.40204E+2
   8.95646E+2  -1.62720E+2
   2.12094E+3  -5.62727E+2
   2.05901E+3   1.71098E+3
   1.21014E+3   1.20121E+3
  -7.51860E+2   4.71348E+2
   1.62430E+3  -8.35203E+2
  -5.17160E+2  -8.98413E+2
   1.65317E+2  -1.41571E+3
   1.96653E+3   6.20392E+2
  -1.70454E+3  -7.42768E+2
   6.92541E+2  -5.67353E+2
   8.59418E+2   1.83061E+2
   2.51922E+3  -1.04017E+3
  -5.25239E+2   9.46746E+2
  -5.97023E+2   1.01349E+3
  -1.07508E+3  -6.66423E+2
   5.89769E+1   7.70136E+1
  -1.52555E+3  -4.94669E+2
  -1.74246E+2   4.31200E+2
   2.17855E+2  -1.07222E+1
  -6.97023E+1   7.47123E+2
  -2.92907E+2  -9.57048E+2
   1.30501E+2   1.25635E+3
  -1.12287E+3   5.48120E+2
  -2.56643E+2   1.06334E+1
  -7.84041E+2   3.71335E+2
   1.34429E+3   1.20829E+3
  -1.10979E+3   4.64371E+2
  -2.35932E+3  -1.53303E+3
   3.64324E+2  -9.70925E+2
   1.61792E+2   3.61376E+2
  -5.80380E+2  -3.61617E+2
   1.32338E+2   7.80248E+2
  -5.75937E+2  -4.48092E+2
   1.89264E+2  -3.63580E+2
  -9.21169E+2  -2.31639E+3
   4.06772E+2  -7.05075E+2
  -8.10872E+2  -6.29844E+2
   3.95488E+2  -1.71321E+3
   3.62408E+2   2.30963E+3
  -5.21589E+2  -1.32829E+3
  -6.69726E+2   6.93390E+2
   1.00857E+2  -7.82020E+2
  -1.90822E+2   1.26147E+3
  -7.54829E+2  -1.57425E+3
  -3.72375E+2   1.26476E+3
  -7.05992E+2   1.27847E+2
   8.05819E+2  -7.14708E+2
  -5.23320E+2  -6.71013E+2
  -5.14367E+2   8.70792E+2
  -1.10998E+3  -4.36275E+2
  -8.65618E+2  -1.95844E+3
   5.45621E+1   1.35336E+2
  -4.01364E+2   9.63988E+2
  -9.55380E+2   5.42617E+2
   5.08648E+2  -1.13850E+3
  -1.11266E+3  -1.83957E+2
   7.66714E+2  -8.11974E+2
   4.71241E+1  -7.88733E+2
  -8.07893E+2  -1.29599E+3
   1.97492E+3  -1.85515E+3
  -3.86691E+0   6.49775E+2
  -9.77994E+2   7.10459E+2
  -1.00029E+3  -1.64481E+2
  -7.93186E+2  -1.63120E+3
   1.03659E+3   7.42651E+2
   1.71460E+3  -2.50470E+2
  -4.14789E+2  -1.91562E+2
  -5.62754E+2   1.62766E+2
   4.64905E+2  -3.72095E+2
  -2.57038E+1  -1.33229E+3
   1.11564E+2  -1.30607E+3
  -4.93200E+1  -1.12426E+3
  -1.70918E+3  -3.60887E+2
   1.31350E+3   5.13265E+2
  -1.28728E+3  -4.29441E+2
   1.04286E+3  -2.69042E+3
   3.58549E+1  -5.77999E+2
   1.89626E+3   9.30672E+2
   1.77110E+2  -8.43989E+2
   1.31847E+3   8.85936E+2
   2.16715E+3   1.88564E+3
  -5.18806E+1   3.49903E+2
  -1.36855E+3   7.24987E+1
   8.23820E+2  -1.07516E+2
  -4.08624E+2  -5.36072E+2
  -1.28264E+3  -2.24835E+3
  -1.28645E+3   9.14985E+2
   2.49773E+3   4.36265E+2
   1.66096E+3  -3.55712E+2
   2.31569E+2   1.41893E+3
  -1.63641E+2  -1.12554E+3
   6.42477E+2  -1.71500E+3
   2.75580E+3   2.65458E+3
   7.31111E+2   1.11157E+3
   1.70563E+3  -1.43431E+3
  -6.72417E+2  -9.52204E+2
   8.58166E+2   7.24500E+2
   2.64446E+2   1.17789E+3
  -5.57080E+2   5.37316E+2
   2.51344E+2   7.43123E+2
   1.49748E+3   7.67835E+2
   1.61398E+3   7.20809E+2
   4.65982E+2  -3.75266E+2
  -5.95567E+2  -1.74593E+3
  -1.84659E+2  -1.31096E+2
  -3.81931E+2   1.27826E+3
  -9.51694E+2  -7.16085E+1
   7.50814E+2  -6.39341E+2
   2.85136E+2   6.50494E+2
  -2.54420E+2   4.92983E+2
  -9.70907E+1   1.37512E+3
   1.59400E+3   9.67641E+2
  -1.29136E+2   5.32735E+2
   1.98265E+3  -5.38147E+2
  -3.10441E+2  -2.59835E+3
  -1.35939E+3  -3.95149E+2
  -3.64175E+2  -8.81271E+2
  -1.13848E+3  -6.78599E+2
  -1.43351E+3  -3.94423E+2
   1.59778E+3  -1.49181E+3
  -1.01993E+3  -4.97942E+2
   6.09571E+2   1.75551E+3
  -7.96970E+2  -3.90447E+2
  -7.40841E+2   5.96076E+1
   6.70039E+2  -1.02401E+3
   9.52188E+2  -6.76697E+2
   1.85514E+2  -1.14729E+3
  -1.04638E+3   2.98149E+2
  -4.69764E+2  -2.67918E+2
   8.85307E+1  -1.27974E+3
  -7.86257E+2   7.79035E+2
  -7.30986E+2   7.15727E+2
  -1.39776E+3   1.50397E+3
   5.82161E-1  -5.84478E+2
   9.06357E+2  -3.03768E+3
  -6.67428E+2   4.85692E+2
   1.04569E+3   1.26428E+2
   1.43952E+3   9.30113E+2
  -1.85085E+2  -1.04372E+3
  -6.62724E+2   1.64285E+2
  -1.67655E+3   1.46282E+3
  -1.64401E+3  -7.22570E+2
   1.43057E+3   3.72986E+2
   2.75404E+2  -1.73029E+3
  -4.91921E+2  -1.15233E+3
   3.69769E+2  -1.55664E+3
   1.08070E+3   1.26466E+2
   3.95859E+2  -9.77000E+2
   1.61109E+2  -6.15032E+2
   1.28768E+3  -1.23782E+3
   8.92810E+0  -8.47807E+2
   7.21055E+2  -8.62423E+2
  -8.16980E+2  -1.02546E+3
  -8.53275E+2   1.21455E+3
  -1.32691E+3   1.37337E+3
  -8.36640E+2  -6.22118E+2
   7.66702E+2  -6.45285E+2
  -1.48627E+3   3.68779E+2
  -9.94471E+2  -1.15818E+3
  -1.96658E+3   4.09766E+2
   8.01311E+2  -2.07618E+3
   3.85030E+2  -2.39931E+2
   1.04288E+3  -1.12517E+2
  -3.80682E+2  -8.84736E+2
   7.26275E+2   1.22163E+3
  -1.50884E+3  -7.57657E+2
   5.12382E+2   7.13788E+2
   7.59810E+2  -8.32405E+2
  -9.26509E+2   5.00297E+1
  -9.32585E+2   5.76248E+2
  -8.21621E+1  -2.80283E+2
   3.43327E+2  -5.79209E+2
   5.44639E+2  -2.69150E+3
  -3.48222E+2  -1.24565E+3
  -5.33629E+2  -3.81105E+2
  -1.79963E+3   2.88116E+2
  -3.77903E+2  -3.65712E+2
  -3.00043E+0  -6.92846E+2
   9.47776E+1   1.21663E+3
  -5.21980E+1  -2.08192E+2
  -2.32419E+3   3.15005E+2
   2.44696E+3  -2.08823E+3
  -2.44187E+2  -2.01428E+3
  -3.92694E+2  -3.45134E+2
   1.38293E+3  -3.97948E+2
   6.86818E+2   3.88979E+1
   1.98421E+2  -1.86748E+3
   8.20382E+2   5.41202E+2
  -2.86833E+2   1.12345E+3
   1.23226E+3   2.82381E+2
   1.73153E+3  -4.20417E+0
  -2.34814E+2   1.69178E+3
  -4.52895E+2   5.51052E+2
  -1.05839E+3   7.27364E+2
   8.81421E+2   1.30358E+3
   2.45775E+2  -7.65182E+2
  -4.47794E+2  -9.35855E+1
   1.46390E+3  -2.84403E+1
  -1.56939E+3   4.15488E+2
  -1.76329E+3   1.58737E+3
  -3.46518E+2   5.57910E+2
   2.19484E+3  -6.89358E+2
   7.25338E+2   8.27936E+2
   5.83084E+2   1.67804E+3
  -1.04303E+2   2.08474E+3
  -7.88110E+1   1.05344E+3
  -1.72099E+2   1.13043E+3
  -5.00968E+2   1.55706E+3
   3.91576E+2  -2.48771E+2
  -8.89808E+2  -5.50742E+2
   2.02663E+1   1.38464E+3
   1.44997E+2   4.11212E+1
  -9.11581E+2  -2.19107E+3
  -1.16764E+2   8.16954E+2
  -5.27792E+2   1.00368E+3
  -8.59333E+2   6.37064E+2
   1.04362E+3   3.12468E+2
  -1.29172E+3   1.08866E+3
   8.66231E+1   1.11434E+3
