 
 $NMID
 ID=''
 FMTDAT='(2E13.5)'
 TRAMP=   1.00000E+0
 VOLUME=   1.00000E+0
 $END
   2.74614E+3   1.11590E+4
  -4.68416E+2   2.92336E+4
   5.55066E+3   2.85316E+4
   6.04802E+3   2.57643E+4
   6.02275E+3   2.65224E+4
   8.02459E+3   2.61836E+4
   8.45793E+3   2.48785E+4
   8.97153E+3   2.51753E+4
   1.06703E+4   2.48935E+4
   1.14786E+4   2.38160E+4
   1.20228E+4   2.35569E+4
   1.34683E+4   2.29248E+4
   1.43063E+4   2.18113E+4
   1.49158E+4   2.11828E+4
   1.60881E+4   2.03817E+4
   1.68438E+4   1.90539E+4
   1.73491E+4   1.83185E+4
   1.82404E+4   1.72704E+4
   1.87835E+4   1.60184E+4
   1.92173E+4   1.52059E+4
   1.99410E+4   1.41140E+4
   2.04619E+4   1.29744E+4
   2.08123E+4   1.20492E+4
   2.14338E+4   1.10884E+4
   2.17953E+4   9.86193E+3
   2.21372E+4   9.05042E+3
   2.25514E+4   8.14898E+3
   2.27842E+4   7.21510E+3
   2.29130E+4   6.40091E+3
   2.31454E+4   5.48338E+3
   2.32505E+4   4.46252E+3
   2.32876E+4   3.56364E+3
   2.34118E+4   2.80888E+3
   2.32727E+4   1.89164E+3
   2.30890E+4   9.14761E+2
   2.29762E+4   5.78029E+1
   2.28178E+4  -8.23510E+2
   2.25296E+4  -1.92114E+3
   2.23657E+4  -2.82022E+3
   2.21032E+4  -3.79983E+3
   2.17960E+4  -4.64160E+3
   2.15759E+4  -5.57441E+3
   2.11929E+4  -6.50024E+3
   2.08257E+4  -7.43861E+3
   2.05041E+4  -8.30007E+3
   2.01276E+4  -9.26313E+3
   1.96127E+4  -1.01286E+4
   1.92143E+4  -1.09531E+4
   1.88453E+4  -1.17504E+4
   1.84273E+4  -1.25369E+4
   1.79436E+4  -1.33401E+4
   1.73513E+4  -1.39223E+4
   1.68649E+4  -1.45701E+4
   1.63719E+4  -1.52677E+4
   1.58680E+4  -1.58277E+4
   1.52435E+4  -1.64286E+4
   1.47065E+4  -1.69361E+4
   1.41491E+4  -1.73225E+4
   1.36023E+4  -1.77807E+4
   1.28964E+4  -1.81456E+4
   1.22229E+4  -1.85336E+4
   1.15854E+4  -1.88279E+4
   1.09056E+4  -1.91019E+4
   1.02603E+4  -1.92709E+4
   9.51109E+3  -1.95131E+4
   8.74368E+3  -1.96915E+4
   8.03282E+3  -1.98248E+4
   7.35636E+3  -1.98883E+4
   6.63190E+3  -1.99563E+4
   5.88501E+3  -1.99409E+4
   5.11234E+3  -2.00375E+4
   4.41274E+3  -2.00183E+4
   3.68833E+3  -2.00198E+4
   2.87228E+3  -1.98650E+4
   2.08498E+3  -1.98548E+4
   1.40449E+3  -1.97987E+4
   6.81083E+2  -1.96858E+4
  -5.89472E+1  -1.94336E+4
  -8.06938E+2  -1.92949E+4
  -1.54340E+3  -1.90798E+4
  -2.25925E+3  -1.88051E+4
  -2.83112E+3  -1.86070E+4
  -3.45887E+3  -1.82841E+4
  -4.09129E+3  -1.80930E+4
  -4.72956E+3  -1.77557E+4
  -5.25181E+3  -1.74885E+4
  -5.81700E+3  -1.71988E+4
  -6.42658E+3  -1.68895E+4
  -6.95594E+3  -1.64582E+4
  -7.41363E+3  -1.60682E+4
  -8.04899E+3  -1.57384E+4
  -8.45940E+3  -1.53059E+4
  -8.92374E+3  -1.48739E+4
  -9.36055E+3  -1.44827E+4
  -9.80099E+3  -1.40176E+4
  -1.01166E+4  -1.35741E+4
  -1.04835E+4  -1.31350E+4
  -1.08267E+4  -1.26546E+4
  -1.11290E+4  -1.22301E+4
  -1.14080E+4  -1.17230E+4
  -1.16464E+4  -1.12461E+4
  -1.18184E+4  -1.07286E+4
  -1.20704E+4  -1.02501E+4
  -1.22178E+4  -9.74122E+3
  -1.23560E+4  -9.26059E+3
  -1.24734E+4  -8.69940E+3
  -1.26695E+4  -8.23199E+3
  -1.26320E+4  -7.73847E+3
  -1.27249E+4  -7.29318E+3
  -1.27535E+4  -6.70810E+3
  -1.27675E+4  -6.20456E+3
  -1.27205E+4  -5.70627E+3
  -1.27644E+4  -5.13281E+3
  -1.26265E+4  -4.70973E+3
  -1.26383E+4  -4.20748E+3
  -1.24643E+4  -3.74578E+3
  -1.23410E+4  -3.26675E+3
  -1.21994E+4  -2.82333E+3
  -1.20123E+4  -2.36922E+3
  -1.18377E+4  -1.86051E+3
  -1.16964E+4  -1.51220E+3
  -1.14335E+4  -9.78208E+2
  -1.12420E+4  -6.13783E+2
  -1.09742E+4  -3.58323E+1
  -1.07039E+4   2.74626E+2
  -1.04260E+4   7.09761E+2
  -1.00710E+4   1.06734E+3
  -9.85932E+3   1.45091E+3
  -9.55060E+3   1.82650E+3
  -9.19254E+3   2.18150E+3
  -8.84656E+3   2.46177E+3
  -8.50084E+3   2.82177E+3
  -8.19394E+3   3.12972E+3
  -7.76924E+3   3.41711E+3
  -7.44578E+3   3.72465E+3
  -7.13900E+3   3.97035E+3
  -6.66542E+3   4.19622E+3
  -6.24428E+3   4.43815E+3
  -5.90319E+3   4.70501E+3
  -5.48645E+3   4.86094E+3
  -5.13258E+3   5.08639E+3
  -4.70737E+3   5.19112E+3
  -4.31499E+3   5.39937E+3
  -3.94788E+3   5.55294E+3
  -3.49062E+3   5.63906E+3
  -3.15324E+3   5.76946E+3
  -2.71324E+3   5.87469E+3
  -2.27535E+3   5.93388E+3
  -1.91836E+3   6.01564E+3
  -1.67674E+3   6.07305E+3
  -1.22018E+3   6.16175E+3
  -8.67662E+2   6.07160E+3
  -5.15774E+2   6.07851E+3
  -1.77420E+2   6.02484E+3
   2.49875E+2   5.98881E+3
   5.81184E+2   5.98160E+3
   8.48472E+2   5.87298E+3
   1.28009E+3   5.86466E+3
   1.58948E+3   5.77962E+3
   1.91195E+3   5.69752E+3
   2.25617E+3   5.63759E+3
   2.53854E+3   5.50789E+3
   2.79317E+3   5.33745E+3
   3.11504E+3   5.20731E+3
   3.33431E+3   5.13796E+3
   3.65026E+3   4.99917E+3
   3.86268E+3   4.88512E+3
   4.15529E+3   4.67494E+3
   4.40531E+3   4.44434E+3
   4.63190E+3   4.29119E+3
   4.76733E+3   4.13112E+3
   5.01096E+3   3.88022E+3
   5.26712E+3   3.71297E+3
   5.30832E+3   3.53270E+3
   5.51853E+3   3.27647E+3
   5.68696E+3   3.09336E+3
   5.86184E+3   2.78337E+3
   5.94518E+3   2.57647E+3
   6.18445E+3   2.38540E+3
   6.24817E+3   2.11939E+3
   6.35325E+3   1.82294E+3
   6.44067E+3   1.61502E+3
   6.49526E+3   1.45106E+3
   6.65085E+3   1.12448E+3
   6.70040E+3   8.55653E+2
   6.76020E+3   6.64387E+2
   6.78755E+3   4.50820E+2
   6.81444E+3   1.51324E+2
   6.85288E+3  -2.21934E+1
   6.88383E+3  -3.46281E+2
   6.85042E+3  -5.68643E+2
   6.88252E+3  -8.34516E+2
   6.86162E+3  -1.05166E+3
   6.83307E+3  -1.33026E+3
   6.78599E+3  -1.50733E+3
   6.73906E+3  -1.80791E+3
   6.71472E+3  -1.99428E+3
   6.61820E+3  -2.26397E+3
   6.51390E+3  -2.47486E+3
   6.46112E+3  -2.65973E+3
   6.32988E+3  -2.86812E+3
   6.25547E+3  -3.12246E+3
   6.18105E+3  -3.27738E+3
   6.02354E+3  -3.50861E+3
   5.88904E+3  -3.67861E+3
   5.80801E+3  -3.84662E+3
   5.66751E+3  -4.08557E+3
   5.52397E+3  -4.24619E+3
   5.38496E+3  -4.33975E+3
   5.21402E+3  -4.66364E+3
   4.95272E+3  -4.76830E+3
   4.89277E+3  -4.90681E+3
   4.69494E+3  -5.02484E+3
   4.56037E+3  -5.15931E+3
   4.40474E+3  -5.34935E+3
   4.19741E+3  -5.42983E+3
   4.07595E+3  -5.57752E+3
   3.84532E+3  -5.68003E+3
   3.58406E+3  -5.76156E+3
   3.49015E+3  -5.87399E+3
   3.22911E+3  -6.00181E+3
   3.01587E+3  -6.09487E+3
   2.80146E+3  -6.16404E+3
   2.64680E+3  -6.32356E+3
   2.45675E+3  -6.34026E+3
   2.24383E+3  -6.34124E+3
   2.06171E+3  -6.44620E+3
   1.79155E+3  -6.52886E+3
   1.64810E+3  -6.46263E+3
   1.43335E+3  -6.61128E+3
   1.27086E+3  -6.53214E+3
   1.04350E+3  -6.62142E+3
   8.15413E+2  -6.57461E+3
   6.06899E+2  -6.62364E+3
   4.87258E+2  -6.60431E+3
   2.51400E+2  -6.65230E+3
   5.43135E+1  -6.63018E+3
  -1.16210E+2  -6.59903E+3
  -3.19150E+2  -6.57089E+3
  -5.23177E+2  -6.46266E+3
  -7.01800E+2  -6.48969E+3
  -9.20557E+2  -6.33689E+3
  -1.03264E+3  -6.36507E+3
  -1.14267E+3  -6.31773E+3
  -1.40248E+3  -6.22034E+3
  -1.58979E+3  -6.20020E+3
  -1.70002E+3  -6.06437E+3
  -1.85001E+3  -6.00797E+3
  -2.01231E+3  -6.00308E+3
  -2.18422E+3  -5.84916E+3
  -2.33507E+3  -5.78967E+3
  -2.55361E+3  -5.67107E+3
  -2.59881E+3  -5.62929E+3
  -2.82079E+3  -5.42600E+3
  -2.91188E+3  -5.34001E+3
  -2.99803E+3  -5.33459E+3
  -3.14066E+3  -5.14463E+3
  -3.28640E+3  -4.98804E+3
  -3.38867E+3  -4.91861E+3
  -3.44272E+3  -4.80236E+3
  -3.61552E+3  -4.68341E+3
  -3.67669E+3  -4.59794E+3
  -3.70418E+3  -4.38323E+3
  -3.86141E+3  -4.25984E+3
  -3.86643E+3  -4.18098E+3
  -3.96200E+3  -3.97267E+3
  -4.05824E+3  -3.92871E+3
  -4.19863E+3  -3.75004E+3
  -4.17785E+3  -3.64552E+3
  -4.22273E+3  -3.51790E+3
  -4.26755E+3  -3.33581E+3
  -4.37175E+3  -3.24348E+3
  -4.45664E+3  -3.11784E+3
  -4.38534E+3  -2.94321E+3
  -4.48155E+3  -2.84707E+3
  -4.51350E+3  -2.70081E+3
  -4.52884E+3  -2.59173E+3
  -4.57439E+3  -2.42464E+3
  -4.55636E+3  -2.22875E+3
  -4.61337E+3  -2.18272E+3
  -4.58630E+3  -2.03909E+3
  -4.58765E+3  -1.94099E+3
  -4.54737E+3  -1.75498E+3
  -4.62194E+3  -1.69748E+3
  -4.51307E+3  -1.53535E+3
  -4.58912E+3  -1.44291E+3
  -4.52683E+3  -1.26263E+3
  -4.53359E+3  -1.21277E+3
  -4.51643E+3  -1.09327E+3
  -4.52827E+3  -1.01222E+3
  -4.42818E+3  -9.11748E+2
  -4.44928E+3  -7.75828E+2
  -4.44381E+3  -6.82900E+2
  -4.32977E+3  -5.88255E+2
  -4.28309E+3  -5.20788E+2
  -4.23396E+3  -4.38000E+2
  -4.17810E+3  -3.54472E+2
  -4.17149E+3  -1.58234E+2
  -4.08846E+3  -7.71869E+1
  -4.10611E+3  -5.50466E-1
  -4.02431E+3   4.42316E+1
  -4.00458E+3   7.45317E+1
  -3.92588E+3   2.20907E+2
  -3.87171E+3   2.78278E+2
  -3.81656E+3   3.71464E+2
  -3.75932E+3   4.17255E+2
  -3.62881E+3   4.92496E+2
  -3.62927E+3   5.73952E+2
  -3.54133E+3   6.54247E+2
  -3.46856E+3   7.04430E+2
  -3.37315E+3   7.38144E+2
  -3.27874E+3   8.26283E+2
  -3.26996E+3   8.96497E+2
  -3.15550E+3   9.39213E+2
  -3.12939E+3   9.83573E+2
  -3.05529E+3   1.06268E+3
  -3.00158E+3   1.06490E+3
  -2.90317E+3   1.12118E+3
  -2.88299E+3   1.09558E+3
  -2.73024E+3   1.12371E+3
  -2.72410E+3   1.16811E+3
  -2.61302E+3   1.25123E+3
  -2.59215E+3   1.24891E+3
  -2.54065E+3   1.27879E+3
  -2.47512E+3   1.30945E+3
  -2.37190E+3   1.29968E+3
  -2.30753E+3   1.33375E+3
  -2.26342E+3   1.43561E+3
  -2.16901E+3   1.39174E+3
  -2.08097E+3   1.41029E+3
  -2.01279E+3   1.46376E+3
  -1.93398E+3   1.44220E+3
  -1.90401E+3   1.37108E+3
  -1.80900E+3   1.43116E+3
  -1.79159E+3   1.38312E+3
  -1.73151E+3   1.46707E+3
  -1.67571E+3   1.36421E+3
  -1.52822E+3   1.44492E+3
  -1.59440E+3   1.39566E+3
  -1.46706E+3   1.36267E+3
  -1.41932E+3   1.40157E+3
  -1.41293E+3   1.36942E+3
  -1.28951E+3   1.38368E+3
  -1.29242E+3   1.39193E+3
  -1.20739E+3   1.34033E+3
  -1.14029E+3   1.32764E+3
  -1.13422E+3   1.34649E+3
  -1.14166E+3   1.26274E+3
  -1.03630E+3   1.28210E+3
  -1.03263E+3   1.29137E+3
  -9.33739E+2   1.26388E+3
  -8.52164E+2   1.17961E+3
  -7.66122E+2   1.21569E+3
  -8.09508E+2   1.15361E+3
  -7.86455E+2   1.15316E+3
  -7.40070E+2   1.15318E+3
  -6.35995E+2   1.19052E+3
  -6.85466E+2   1.09393E+3
  -6.40100E+2   1.06972E+3
  -5.97398E+2   1.04788E+3
  -5.99427E+2   1.02877E+3
  -5.47644E+2   1.02136E+3
  -4.98473E+2   9.71294E+2
  -5.36527E+2   9.12995E+2
  -4.70899E+2   9.01743E+2
  -4.17732E+2   9.53981E+2
  -4.77104E+2   8.88781E+2
