 
 $NMID
 ID=''
 FMTDAT='(2E13.5)'
 TRAMP=   1.00000E+0
 VOLUME=   1.00000E+0
 $END
  -1.04045E+4   1.72928E+4
  -3.83921E+4   3.51366E+4
  -3.16301E+4   4.11821E+4
  -2.91394E+4   3.77577E+4
  -3.14061E+4   3.82556E+4
  -2.97133E+4   3.95805E+4
  -2.91802E+4   3.77426E+4
  -3.03938E+4   3.76560E+4
  -2.93774E+4   3.84235E+4
  -2.88359E+4   3.71395E+4
  -2.95385E+4   3.69080E+4
  -2.85618E+4   3.74667E+4
  -2.80666E+4   3.66922E+4
  -2.87583E+4   3.62917E+4
  -2.79938E+4   3.64797E+4
  -2.76087E+4   3.57028E+4
  -2.78681E+4   3.55013E+4
  -2.74101E+4   3.55045E+4
  -2.69344E+4   3.49023E+4
  -2.72724E+4   3.46460E+4
  -2.67458E+4   3.45742E+4
  -2.63291E+4   3.41274E+4
  -2.64748E+4   3.39567E+4
  -2.61870E+4   3.38171E+4
  -2.57803E+4   3.32239E+4
  -2.57517E+4   3.30688E+4
  -2.54442E+4   3.30040E+4
  -2.52206E+4   3.24779E+4
  -2.51958E+4   3.21726E+4
  -2.48512E+4   3.19541E+4
  -2.44642E+4   3.17346E+4
  -2.44090E+4   3.16251E+4
  -2.42255E+4   3.14108E+4
  -2.38495E+4   3.09932E+4
  -2.36662E+4   3.09075E+4
  -2.34071E+4   3.07590E+4
  -2.30659E+4   3.04525E+4
  -2.28853E+4   3.02379E+4
  -2.25588E+4   3.01124E+4
  -2.23077E+4   2.98324E+4
  -2.21413E+4   2.96276E+4
  -2.20017E+4   2.93356E+4
  -2.17339E+4   2.90356E+4
  -2.15282E+4   2.87037E+4
  -2.12927E+4   2.85704E+4
  -2.10160E+4   2.82228E+4
  -2.08197E+4   2.80615E+4
  -2.05798E+4   2.78615E+4
  -2.03709E+4   2.77167E+4
  -2.02358E+4   2.74493E+4
  -1.99422E+4   2.73151E+4
  -1.97906E+4   2.70085E+4
  -1.94671E+4   2.68590E+4
  -1.92822E+4   2.66782E+4
  -1.91189E+4   2.64832E+4
  -1.89939E+4   2.62003E+4
  -1.88607E+4   2.60768E+4
  -1.86258E+4   2.58032E+4
  -1.84428E+4   2.55246E+4
  -1.82717E+4   2.52996E+4
  -1.80157E+4   2.51002E+4
  -1.78323E+4   2.49237E+4
  -1.76982E+4   2.47398E+4
  -1.75184E+4   2.45487E+4
  -1.73593E+4   2.42614E+4
  -1.71685E+4   2.41089E+4
  -1.69688E+4   2.39744E+4
  -1.67992E+4   2.38235E+4
  -1.66575E+4   2.35776E+4
  -1.64625E+4   2.32972E+4
  -1.63301E+4   2.31929E+4
  -1.62339E+4   2.29112E+4
  -1.60724E+4   2.27701E+4
  -1.59236E+4   2.25386E+4
  -1.57507E+4   2.23713E+4
  -1.56728E+4   2.21454E+4
  -1.53978E+4   2.19384E+4
  -1.52833E+4   2.17966E+4
  -1.51503E+4   2.14793E+4
  -1.49675E+4   2.13450E+4
  -1.48452E+4   2.11282E+4
  -1.46996E+4   2.09304E+4
  -1.45620E+4   2.07527E+4
  -1.44255E+4   2.05382E+4
  -1.42230E+4   2.03502E+4
  -1.42054E+4   2.01036E+4
  -1.39452E+4   1.99118E+4
  -1.38486E+4   1.96375E+4
  -1.35890E+4   1.94901E+4
  -1.35433E+4   1.93411E+4
  -1.33157E+4   1.90913E+4
  -1.31558E+4   1.89445E+4
  -1.30695E+4   1.86788E+4
  -1.29193E+4   1.85987E+4
  -1.27613E+4   1.83632E+4
  -1.26338E+4   1.81663E+4
  -1.23922E+4   1.79320E+4
  -1.23857E+4   1.77793E+4
  -1.21443E+4   1.76297E+4
  -1.20138E+4   1.74773E+4
  -1.18694E+4   1.72274E+4
  -1.16288E+4   1.69795E+4
  -1.14749E+4   1.69513E+4
  -1.13743E+4   1.67401E+4
  -1.12899E+4   1.66478E+4
  -1.10352E+4   1.63850E+4
  -1.08889E+4   1.61852E+4
  -1.07502E+4   1.60192E+4
  -1.06226E+4   1.58884E+4
  -1.04916E+4   1.57219E+4
  -1.03425E+4   1.55081E+4
  -1.02207E+4   1.53741E+4
  -1.00757E+4   1.51542E+4
  -9.92822E+3   1.50716E+4
  -9.75235E+3   1.48858E+4
  -9.63533E+3   1.47147E+4
  -9.57122E+3   1.45195E+4
  -9.40803E+3   1.44079E+4
  -9.22530E+3   1.41961E+4
  -9.18446E+3   1.40097E+4
  -9.00773E+3   1.37391E+4
  -8.89080E+3   1.36494E+4
  -8.79429E+3   1.34175E+4
  -8.69473E+3   1.32528E+4
  -8.56565E+3   1.31793E+4
  -8.37866E+3   1.30054E+4
  -8.26680E+3   1.28332E+4
  -8.18649E+3   1.25750E+4
  -8.07633E+3   1.24878E+4
  -7.90507E+3   1.23479E+4
  -7.79517E+3   1.21809E+4
  -7.61871E+3   1.19762E+4
  -7.43575E+3   1.18132E+4
  -7.39051E+3   1.17626E+4
  -7.25524E+3   1.16069E+4
  -7.16335E+3   1.14145E+4
  -7.02316E+3   1.13392E+4
  -6.82917E+3   1.12158E+4
  -6.79187E+3   1.09738E+4
  -6.67842E+3   1.08989E+4
  -6.54775E+3   1.07114E+4
  -6.45132E+3   1.05877E+4
  -6.26389E+3   1.04825E+4
  -6.13004E+3   1.03719E+4
  -5.99423E+3   1.02419E+4
  -5.90668E+3   1.01200E+4
  -5.76667E+3   1.00280E+4
  -5.69322E+3   9.87877E+3
  -5.48597E+3   9.81211E+3
  -5.50023E+3   9.63267E+3
  -5.32723E+3   9.56760E+3
  -5.21194E+3   9.49584E+3
  -5.14153E+3   9.39827E+3
  -5.02764E+3   9.18930E+3
  -4.86247E+3   9.13711E+3
  -4.85639E+3   9.05444E+3
  -4.69926E+3   8.92671E+3
  -4.64931E+3   8.80862E+3
  -4.51345E+3   8.70087E+3
  -4.40525E+3   8.60489E+3
  -4.32283E+3   8.50481E+3
  -4.21592E+3   8.51170E+3
  -4.20027E+3   8.30624E+3
  -3.96822E+3   8.22892E+3
  -3.96265E+3   8.16771E+3
  -3.87008E+3   8.13008E+3
  -3.78151E+3   7.95113E+3
  -3.70447E+3   7.87245E+3
  -3.54676E+3   7.79337E+3
  -3.55374E+3   7.71741E+3
  -3.46988E+3   7.60106E+3
  -3.41082E+3   7.56390E+3
  -3.34158E+3   7.39630E+3
  -3.24880E+3   7.32235E+3
  -3.10943E+3   7.25995E+3
  -3.04884E+3   7.25960E+3
  -2.90289E+3   7.08250E+3
  -2.87576E+3   7.00577E+3
  -2.81962E+3   6.94969E+3
  -2.74673E+3   6.89613E+3
  -2.68106E+3   6.84610E+3
  -2.59302E+3   6.69482E+3
  -2.47668E+3   6.64477E+3
  -2.40544E+3   6.57649E+3
  -2.34370E+3   6.40592E+3
  -2.28148E+3   6.32813E+3
  -2.26092E+3   6.32853E+3
  -2.10589E+3   6.30641E+3
  -2.08132E+3   6.13468E+3
  -2.01308E+3   6.09634E+3
  -1.94599E+3   6.03812E+3
  -1.87728E+3   6.00522E+3
  -1.82825E+3   5.87929E+3
  -1.75609E+3   5.73326E+3
  -1.70827E+3   5.69902E+3
  -1.57576E+3   5.60320E+3
  -1.51959E+3   5.62434E+3
  -1.50592E+3   5.53423E+3
  -1.43087E+3   5.45694E+3
  -1.39174E+3   5.45867E+3
  -1.26560E+3   5.35460E+3
  -1.22535E+3   5.29223E+3
  -1.19235E+3   5.15899E+3
  -1.18550E+3   5.13252E+3
  -1.04808E+3   5.09419E+3
  -1.02104E+3   4.98793E+3
  -9.56990E+2   4.93586E+3
  -8.63067E+2   4.85168E+3
  -8.87683E+2   4.86440E+3
  -7.47129E+2   4.71400E+3
  -6.97873E+2   4.69153E+3
  -6.82294E+2   4.62158E+3
  -6.40067E+2   4.51616E+3
  -5.18824E+2   4.52112E+3
  -4.83624E+2   4.53249E+3
  -4.33267E+2   4.42916E+3
  -3.66981E+2   4.29454E+3
  -3.10247E+2   4.24494E+3
  -2.45523E+2   4.24516E+3
  -2.92506E+2   4.18352E+3
  -1.91856E+2   4.10509E+3
  -1.16763E+2   4.05661E+3
  -1.05665E+2   4.00892E+3
  -7.04026E+1   3.95617E+3
   4.50354E+1   3.96887E+3
   7.82082E+1   3.89585E+3
   7.67139E+1   3.75894E+3
   1.46818E+2   3.77488E+3
   1.39291E+2   3.65288E+3
   2.35463E+2   3.57950E+3
   2.58181E+2   3.58450E+3
   3.27758E+2   3.57534E+3
   3.52249E+2   3.48450E+3
   4.03577E+2   3.42085E+3
   4.29226E+2   3.37777E+3
   5.07168E+2   3.37579E+3
   5.35978E+2   3.40590E+3
   5.99633E+2   3.32179E+3
   6.01010E+2   3.24273E+3
   7.00801E+2   3.20820E+3
   7.47231E+2   3.11234E+3
   7.61008E+2   3.06172E+3
   7.86189E+2   3.02612E+3
   8.44282E+2   3.00912E+3
   9.17293E+2   2.91790E+3
   9.15108E+2   2.91425E+3
   9.36183E+2   2.87694E+3
   9.53875E+2   2.83416E+3
   1.05769E+3   2.78981E+3
   1.07881E+3   2.79529E+3
   1.15609E+3   2.75129E+3
   1.10070E+3   2.66950E+3
   1.24039E+3   2.65883E+3
   1.21551E+3   2.63280E+3
   1.21488E+3   2.53107E+3
   1.26979E+3   2.57049E+3
   1.37224E+3   2.53491E+3
   1.32628E+3   2.45878E+3
   1.44462E+3   2.42660E+3
   1.35214E+3   2.40668E+3
   1.51672E+3   2.34583E+3
   1.51394E+3   2.38994E+3
   1.49294E+3   2.35661E+3
   1.56144E+3   2.28885E+3
   1.57008E+3   2.29264E+3
   1.59730E+3   2.20361E+3
   1.64242E+3   2.22131E+3
   1.63155E+3   2.18766E+3
   1.65583E+3   2.11234E+3
   1.68376E+3   2.11488E+3
   1.66230E+3   2.15262E+3
   1.74435E+3   2.06712E+3
   1.80710E+3   2.03714E+3
   1.81615E+3   2.00735E+3
   1.78398E+3   1.96282E+3
   1.82756E+3   1.97235E+3
   1.88644E+3   1.92066E+3
   1.83304E+3   1.83417E+3
   1.93417E+3   1.84855E+3
   1.89300E+3   1.81865E+3
   1.90838E+3   1.85178E+3
   1.92674E+3   1.77192E+3
   1.92302E+3   1.77987E+3
   2.01956E+3   1.72814E+3
   1.94506E+3   1.79518E+3
   2.01680E+3   1.63187E+3
   2.03842E+3   1.65604E+3
   2.07819E+3   1.63341E+3
   2.00943E+3   1.60248E+3
   2.12978E+3   1.53373E+3
   2.06587E+3   1.49344E+3
   2.10226E+3   1.53904E+3
   2.10179E+3   1.44569E+3
   2.16963E+3   1.45671E+3
   2.10168E+3   1.47189E+3
   2.13557E+3   1.46027E+3
   2.16228E+3   1.42154E+3
   2.14950E+3   1.38202E+3
   2.14746E+3   1.32593E+3
   2.21205E+3   1.36071E+3
   2.23443E+3   1.32078E+3
   2.24566E+3   1.36081E+3
   2.21716E+3   1.22798E+3
   2.30166E+3   1.30756E+3
   2.27126E+3   1.19695E+3
   2.30223E+3   1.27270E+3
   2.31495E+3   1.24685E+3
   2.27023E+3   1.18406E+3
   2.31995E+3   1.12352E+3
   2.36650E+3   1.13962E+3
   2.38774E+3   1.15364E+3
   2.32595E+3   1.10246E+3
   2.36732E+3   1.13834E+3
   2.38082E+3   1.11422E+3
   2.38235E+3   1.11096E+3
   2.32702E+3   1.10494E+3
   2.31778E+3   1.07416E+3
   2.38775E+3   1.06013E+3
   2.35893E+3   1.02556E+3
   2.35887E+3   1.02772E+3
   2.42422E+3   1.00185E+3
   2.39067E+3   1.02428E+3
   2.44656E+3   9.88107E+2
   2.42864E+3   1.01846E+3
   2.42671E+3   9.91440E+2
   2.42849E+3   9.99897E+2
   2.44633E+3   8.92302E+2
   2.45746E+3   8.73978E+2
   2.40379E+3   8.92733E+2
   2.38720E+3   9.79664E+2
   2.38884E+3   8.47137E+2
   2.36495E+3   8.75441E+2
   2.42356E+3   8.44532E+2
   2.36445E+3   8.39955E+2
   2.41235E+3   8.55664E+2
   2.39482E+3   8.12622E+2
   2.42761E+3   8.46261E+2
   2.37215E+3   8.03403E+2
   2.47720E+3   7.66424E+2
   2.43521E+3   7.82817E+2
   2.39543E+3   8.22770E+2
   2.39984E+3   7.30282E+2
   2.38381E+3   6.98738E+2
   2.42336E+3   6.99309E+2
   2.44219E+3   7.44462E+2
   2.39488E+3   6.85856E+2
   2.44965E+3   6.69184E+2
   2.42564E+3   7.26430E+2
   2.39143E+3   7.34053E+2
   2.38041E+3   6.35487E+2
   2.37679E+3   6.18435E+2
   2.40578E+3   5.84267E+2
   2.37636E+3   6.16193E+2
   2.29997E+3   6.21538E+2
   2.37083E+3   5.71813E+2
   2.33068E+3   6.06387E+2
   2.37415E+3   5.92937E+2
   2.33465E+3   5.37885E+2
   2.38540E+3   5.81717E+2
   2.38680E+3   5.06813E+2
   2.37540E+3   5.40582E+2
   2.35450E+3   5.97338E+2
   2.31249E+3   5.58662E+2
   2.30143E+3   5.37842E+2
   2.38136E+3   4.96307E+2
   2.28474E+3   5.26097E+2
   2.31113E+3   5.27212E+2
