 LCModel (Version 6.3-1N) Copyright: S.W. Provencher.          Ref.: Magn. Reson. Med. 30:672-679 (1993).                
 Slice_N1@17_22  02-Jun-2023 14:36:50
 27 lines in following concentration table = NCONC+1
    Conc.  %SD /Cr+PCr  Metabolite                                         
 2.45E-06  15% 3.5E-04 Mac                                                 
 1.67E-02  61%   2.387 Cr                                                  
 3.93E-02  27%   5.613 PCr                                                 
 7.42E-02  11%  10.598 Ins                                                 
 9.05E-02   7%  12.932 NAA                                                 
 6.69E-02  11%   9.564 Tau                                                 
 6.61E-03  68%   0.944 PCho                                                
 7.42E-03  64%   1.060 GPC                                                 
 6.90E-02  14%   9.860 Glu                                                 
 1.81E-02  36%   2.592 Gln                                                 
 1.37E-02  48%   1.958 Ala                                                 
 2.13E-02  61%   3.040 Asc                                                 
 1.05E-02  71%   1.502 Asp                                                 
 9.15E-03  43%   1.307 GABA                                                
 7.10E-03  69%   1.014 Glc                                                 
 4.07E-03  85%   0.582 GSH                                                 
    0.000 999%   0.000 Lac                                                 
 8.32E-03  55%   1.188 NAAG                                                
    0.000 999%   0.000 PE                                                  
 1.40E-02  14%   2.004 GPC+PCho                                            
 9.88E-02   8%  14.121 NAA+NAAG                                            
 8.72E-02  13%  12.452 Glu+Gln                                             
 5.60E-02  10%   8.000 Cr+PCr                                              
 9.88E-02   8%  14.121 NAA+NAAG                                            
 5.60E-02  10%   8.000 Cr+PCr                                              
 8.72E-02  13%  12.452 Glu+Gln                                             
   6 lines in following misc. output table
  FWHM = 0.023 ppm    S/N =   4                                            
  Data shift =-0.006 ppm                                                   
  Ph:   9 deg      -7.8 deg/ppm                                            
  alphaB,S = 3.1E+01,   1.5E+01                                            
   18 spline knots.   Ns = 5(1)                                            
   3 inflections.     2 extrema                                            
  654 points on ppm-axis = NY
      4.000000     3.994181     3.988363     3.982544     3.976726     3.970907     3.965088     3.959270     3.953451     3.947633
      3.941814     3.935995     3.930177     3.924358     3.918540     3.912721     3.906902     3.901084     3.895265     3.889446
      3.883628     3.877809     3.871991     3.866172     3.860353     3.854535     3.848716     3.842898     3.837079     3.831260
      3.825442     3.819623     3.813805     3.807986     3.802167     3.796349     3.790530     3.784712     3.778893     3.773074
      3.767256     3.761437     3.755619     3.749800     3.743981     3.738163     3.732344     3.726526     3.720707     3.714888
      3.709070     3.703251     3.697433     3.691614     3.685795     3.679977     3.674158     3.668339     3.662521     3.656702
      3.650884     3.645065     3.639246     3.633428     3.627609     3.621791     3.615972     3.610153     3.604335     3.598516
      3.592698     3.586879     3.581060     3.575242     3.569423     3.563605     3.557786     3.551967     3.546149     3.540330
      3.534512     3.528693     3.522874     3.517056     3.511237     3.505419     3.499600     3.493781     3.487963     3.482144
      3.476326     3.470507     3.464688     3.458870     3.453051     3.447232     3.441414     3.435595     3.429777     3.423958
      3.418139     3.412321     3.406502     3.400684     3.394865     3.389046     3.383228     3.377409     3.371591     3.365772
      3.359953     3.354135     3.348316     3.342498     3.336679     3.330860     3.325042     3.319223     3.313405     3.307586
      3.301767     3.295949     3.290130     3.284312     3.278493     3.272674     3.266856     3.261037     3.255219     3.249400
      3.243581     3.237763     3.231944     3.226125     3.220307     3.214488     3.208670     3.202851     3.197032     3.191214
      3.185395     3.179577     3.173758     3.167939     3.162121     3.156302     3.150484     3.144665     3.138846     3.133028
      3.127209     3.121391     3.115572     3.109753     3.103935     3.098116     3.092298     3.086479     3.080660     3.074842
      3.069023     3.063205     3.057386     3.051567     3.045749     3.039930     3.034111     3.028293     3.022474     3.016656
      3.010837     3.005018     2.999200     2.993381     2.987563     2.981744     2.975925     2.970107     2.964288     2.958470
      2.952651     2.946832     2.941014     2.935195     2.929377     2.923558     2.917739     2.911921     2.906102     2.900284
      2.894465     2.888646     2.882828     2.877009     2.871191     2.865372     2.859553     2.853735     2.847916     2.842098
      2.836279     2.830460     2.824642     2.818823     2.813004     2.807186     2.801367     2.795549     2.789730     2.783911
      2.778093     2.772274     2.766456     2.760637     2.754818     2.749000     2.743181     2.737363     2.731544     2.725725
      2.719907     2.714088     2.708270     2.702451     2.696632     2.690814     2.684995     2.679177     2.673358     2.667539
      2.661721     2.655902     2.650084     2.644265     2.638446     2.632628     2.626809     2.620991     2.615172     2.609353
      2.603535     2.597716     2.591897     2.586079     2.580260     2.574442     2.568623     2.562804     2.556986     2.551167
      2.545349     2.539530     2.533711     2.527893     2.522074     2.516256     2.510437     2.504618     2.498800     2.492981
      2.487163     2.481344     2.475525     2.469707     2.463888     2.458070     2.452251     2.446432     2.440614     2.434795
      2.428977     2.423158     2.417339     2.411521     2.405702     2.399884     2.394065     2.388246     2.382428     2.376609
      2.370790     2.364972     2.359153     2.353335     2.347516     2.341697     2.335879     2.330060     2.324242     2.318423
      2.312604     2.306786     2.300967     2.295149     2.289330     2.283511     2.277693     2.271874     2.266056     2.260237
      2.254418     2.248600     2.242781     2.236963     2.231144     2.225325     2.219507     2.213688     2.207870     2.202051
      2.196232     2.190414     2.184595     2.178777     2.172958     2.167139     2.161321     2.155502     2.149683     2.143865
      2.138046     2.132228     2.126409     2.120590     2.114772     2.108953     2.103135     2.097316     2.091497     2.085679
      2.079860     2.074042     2.068223     2.062404     2.056586     2.050767     2.044949     2.039130     2.033311     2.027493
      2.021674     2.015856     2.010037     2.004218     1.998400     1.992581     1.986763     1.980944     1.975126     1.969307
      1.963489     1.957670     1.951852     1.946033     1.940215     1.934397     1.928578     1.922760     1.916941     1.911123
      1.905304     1.899486     1.893667     1.887849     1.882030     1.876212     1.870393     1.864575     1.858756     1.852938
      1.847119     1.841301     1.835482     1.829664     1.823845     1.818027     1.812208     1.806390     1.800571     1.794753
      1.788934     1.783116     1.777297     1.771479     1.765660     1.759842     1.754023     1.748205     1.742386     1.736568
      1.730749     1.724931     1.719113     1.713294     1.707476     1.701657     1.695839     1.690020     1.684202     1.678383
      1.672565     1.666746     1.660928     1.655109     1.649291     1.643472     1.637654     1.631835     1.626017     1.620198
      1.614380     1.608561     1.602743     1.596924     1.591106     1.585287     1.579469     1.573650     1.567832     1.562013
      1.556195     1.550376     1.544558     1.538739     1.532921     1.527102     1.521284     1.515465     1.509647     1.503829
      1.498010     1.492192     1.486373     1.480555     1.474736     1.468918     1.463099     1.457281     1.451462     1.445644
      1.439825     1.434007     1.428188     1.422370     1.416551     1.410733     1.404914     1.399096     1.393277     1.387459
      1.381640     1.375822     1.370003     1.364185     1.358366     1.352548     1.346729     1.340911     1.335092     1.329274
      1.323455     1.317637     1.311818     1.306000     1.300182     1.294363     1.288545     1.282726     1.276908     1.271089
      1.265271     1.259452     1.253634     1.247815     1.241997     1.236178     1.230360     1.224541     1.218723     1.212904
      1.207086     1.201267     1.195449     1.189630     1.183812     1.177993     1.172175     1.166356     1.160538     1.154719
      1.148901     1.143082     1.137264     1.131445     1.125627     1.119808     1.113990     1.108171     1.102353     1.096534
      1.090716     1.084898     1.079079     1.073261     1.067442     1.061624     1.055805     1.049987     1.044168     1.038350
      1.032531     1.026713     1.020894     1.015076     1.009257     1.003439     0.997620     0.991802     0.985983     0.980165
      0.974346     0.968528     0.962709     0.956891     0.951072     0.945254     0.939435     0.933617     0.927798     0.921980
      0.916161     0.910343     0.904524     0.898706     0.892887     0.887069     0.881251     0.875432     0.869614     0.863795
      0.857977     0.852158     0.846340     0.840521     0.834703     0.828884     0.823066     0.817247     0.811429     0.805610
      0.799792     0.793973     0.788155     0.782336     0.776518     0.770699     0.764881     0.759062     0.753244     0.747425
      0.741607     0.735788     0.729970     0.724151     0.718333     0.712514     0.706696     0.700877     0.695059     0.689240
      0.683422     0.677603     0.671785     0.665967     0.660148     0.654330     0.648511     0.642693     0.636874     0.631056
      0.625237     0.619419     0.613600     0.607782     0.601963     0.596145     0.590326     0.584508     0.578689     0.572871
      0.567052     0.561234     0.555415     0.549597     0.543778     0.537960     0.532141     0.526323     0.520504     0.514686
      0.508867     0.503049     0.497230     0.491412     0.485593     0.479775     0.473956     0.468138     0.462319     0.456501
      0.450682     0.444864     0.439045     0.433227     0.427408     0.421590     0.415771     0.409953     0.404134     0.398316
      0.392497     0.386679     0.380860     0.375042     0.369223     0.363405     0.357586     0.351767     0.345949     0.340130
      0.334312     0.328493     0.322675     0.316856     0.311038     0.305219     0.299401     0.293582     0.287764     0.281945
      0.276127     0.270308     0.264490     0.258671     0.252853     0.247034     0.241216     0.235397     0.229579     0.223760
      0.217942     0.212123     0.206305     0.200486
 NY phased data points follow
  -3.30164E-01  8.44114E-02  2.63531E-02 -2.70035E-01 -2.43164E-01 -3.32239E-01 -8.30919E-02  1.26298E-02  7.21032E-02  4.09981E-01
   3.75418E-01  2.08638E-01  4.35858E-01  2.66331E-01  2.74226E-01  2.91189E-01  1.63754E-01 -6.03420E-02 -1.86519E-01  2.51670E-01
   7.61171E-02  7.05314E-02  2.54156E-01  1.88112E-01  1.89392E-01 -2.56964E-01 -2.65363E-03 -1.33469E-01 -1.58662E-01  2.45996E-01
  -3.60926E-01  1.25176E-01 -4.75844E-02 -8.80148E-02  1.13716E-01 -5.85935E-01 -5.31974E-01 -6.32677E-01 -3.36000E-01 -5.48743E-02
   6.79102E-02  1.57099E-01  2.86525E-01  2.83446E-01  3.83842E-01  3.97293E-01  2.06525E-01  2.99344E-01 -1.75666E-02  1.87670E-01
   3.57567E-02  6.27322E-02  2.50510E-01 -2.79021E-01 -3.52850E-01 -3.45098E-01 -1.60633E-01 -3.40375E-01 -4.55950E-01 -1.46404E-01
  -2.03790E-01 -2.13633E-01 -3.33754E-01 -2.63133E-01 -1.22143E-02  8.00767E-02  7.67289E-02  7.10925E-01  7.25084E-01  2.34404E-01
   3.48928E-01 -9.80339E-03 -1.40676E-01 -4.03868E-01  1.37693E-01 -7.88127E-03 -4.16468E-01 -3.14070E-02 -3.08542E-01 -8.13276E-02
  -1.76846E-01  4.15468E-02  1.68175E-01  1.84799E-01  2.96474E-01  7.50966E-01  6.09668E-01  3.11358E-01  5.21438E-01  1.91151E-01
   3.71270E-01 -2.31374E-02  2.80900E-01  1.99378E-01  5.73603E-02  1.79946E-01 -2.34663E-01 -2.05345E-01 -5.38126E-01 -2.61721E-01
  -2.92617E-01 -1.51727E-01  9.88780E-02  1.43332E-01  9.41134E-02  3.42642E-01  5.03969E-01 -7.93995E-02  1.53655E-01 -1.14810E-01
   1.33644E-01  2.21727E-01  2.32329E-01  7.07566E-01 -8.27373E-02  1.07586E-01  1.46353E-01  9.40639E-02  2.46177E-03 -3.29588E-01
   1.08533E-01 -2.01917E-02 -1.86416E-01 -4.15715E-02 -5.21737E-02 -3.87186E-01 -1.44109E-01 -4.37256E-01 -5.42663E-01 -4.53711E-01
  -1.08757E+00 -8.17066E-01 -7.56289E-01 -7.97197E-01 -7.38588E-01 -4.17502E-01 -7.59256E-01 -1.10682E+00 -3.28857E-01 -2.05979E-01
  -6.05433E-02  1.28693E-01 -2.50895E-01 -2.04663E-01  3.24290E-01  2.98497E-01  1.35674E-02  4.66676E-01  3.22073E-01  2.13603E-02
   3.53951E-01  1.17928E-01  1.97024E-01  1.01972E-01  2.39794E-01  1.64108E-01 -7.37043E-02  1.24775E-01  1.42580E-01  7.43147E-01
   5.48287E-01  6.77732E-01  5.29926E-01  5.27671E-01  1.01944E+00  5.23669E-01  6.16748E-01  1.44601E-01 -8.45052E-01 -1.08673E+00
  -1.00246E+00 -6.97642E-01 -5.20099E-01 -5.00343E-01 -2.22123E-01 -2.17355E-01 -4.49771E-01 -4.13453E-01 -1.49248E-01 -5.71788E-01
  -6.32818E-01 -1.24227E-01 -3.18108E-01 -3.12144E-01 -3.73781E-01 -1.37825E-01 -1.91043E-01 -4.90286E-01 -1.94608E-01 -4.58780E-02
  -9.88366E-02 -1.79161E-01 -1.71763E-01 -1.64417E-01 -1.30122E-01  6.90112E-02 -2.87676E-02 -5.83286E-02  5.36689E-03 -1.43365E-01
   3.74677E-02 -2.22055E-01 -2.48809E-01 -1.29473E-01 -2.51871E-02  2.23285E-01 -4.93192E-02 -9.73756E-02 -1.77114E-01 -1.00619E-01
  -3.46948E-01 -4.07836E-01  2.71424E-02 -9.15401E-02  3.29986E-01  3.61167E-01 -4.98064E-02 -3.82065E-03 -8.77208E-02  1.42338E-01
   1.28686E-01  2.84750E-01 -3.15924E-02  6.39520E-03  4.02845E-01  3.83217E-01  7.57928E-01  2.76284E-01  2.33343E-01  3.34321E-01
   5.57275E-01  4.50621E-01  1.26766E-01  1.93554E-01  1.11643E-01  2.04506E-01  8.11408E-02  2.14567E-01  2.15149E-02  1.09138E-01
  -1.19063E-01  2.92223E-01  2.69817E-01 -4.49977E-01  1.44672E-01 -5.16653E-03 -7.09692E-02 -8.97111E-02 -2.24438E-01  2.62054E-01
   3.87842E-01  2.97297E-01  2.73835E-01 -1.54677E-02 -1.27980E-01 -1.03552E-01  2.80012E-02 -2.83078E-03 -7.55175E-02  1.65944E-02
   1.16728E-01  8.32354E-02  8.49860E-02  3.24788E-01 -1.55862E-01 -3.57560E-02  9.00190E-03  1.23678E-01  2.47174E-01  8.00920E-02
   5.99182E-01  2.39367E-01 -2.16504E-01  2.37551E-01  4.10168E-01 -1.65365E-01 -1.75605E-01 -1.62595E-01 -1.65299E-01 -1.87513E-01
  -1.07349E-01 -2.65254E-01 -2.38765E-01  2.13048E-01 -1.67207E-01  5.18784E-01  4.30400E-01  4.88988E-01  5.83894E-01  9.14415E-02
   4.91824E-01  2.72660E-02  3.45155E-01  3.30192E-01  7.37324E-03  2.19339E-01  2.13280E-01  3.50151E-01  1.56387E-01  1.85935E-01
   3.26375E-01  4.04944E-01  3.22788E-01  5.65659E-01  6.32401E-01  2.64351E-01  4.38345E-01  5.53742E-01  1.68300E-01  3.71175E-01
   4.22932E-01  1.81425E-01  2.03204E-01  1.64754E-01  5.05500E-01 -7.95894E-02  2.43870E-02  1.21951E-03 -3.04170E-01 -1.66847E-01
  -4.09649E-01  1.86944E-01 -5.62692E-01 -4.57403E-01 -6.39219E-02 -2.54150E-01 -1.73052E-02 -1.62088E-01  1.62050E-01  1.41400E-01
   1.14706E-01 -1.16127E-01  1.45244E-02 -3.31091E-01 -6.70998E-01 -3.17130E-01 -5.37057E-01 -5.74981E-01 -3.54101E-01 -4.16756E-01
  -7.06796E-01 -9.54375E-01 -1.83293E+00 -2.07282E+00 -1.21540E+00 -4.36527E-01  1.56318E-01  4.77389E-01  2.79175E-01  5.23867E-02
   6.07435E-02 -1.10932E-01 -1.91845E-01 -5.87820E-02  1.70769E-01  2.31794E-01 -2.29317E-02 -1.90838E-01 -9.53098E-02  1.71527E-02
   5.27915E-02  1.42686E-01 -1.16579E-02 -3.24043E-01 -1.07500E-01 -3.85805E-02  2.73786E-02  3.55779E-01  1.88059E-01 -1.08924E-01
   8.53914E-02  6.98252E-02 -8.79804E-02  3.43896E-02  9.62853E-02  2.55105E-01  6.27464E-02  4.31024E-01  3.27910E-01  4.35909E-02
   2.73736E-01  1.77845E-01  2.55611E-01  2.74418E-01  1.69632E-01  5.25759E-03  3.10783E-01  2.86770E-01  2.92292E-01 -1.24658E-01
  -9.51678E-02  2.12042E-01 -3.42527E-02  3.22020E-01  2.13573E-01  2.44497E-01  9.11956E-02  8.28124E-02  1.17897E-03 -1.04156E-01
   7.51146E-02  5.60003E-02 -8.90983E-02 -3.83306E-01  1.26791E-02 -6.35032E-03 -3.54276E-01 -2.11048E-02 -6.36742E-03  9.10365E-02
   1.03932E-01 -3.42857E-01  2.09635E-02 -2.37574E-01 -3.06477E-01  2.57713E-01  1.31982E-02 -1.16758E-02  3.08618E-02 -1.68220E-01
  -2.09461E-01 -1.21141E-01  1.15105E-02 -7.92703E-02 -2.74554E-01 -2.32388E-02 -3.50612E-01 -1.99576E-01 -6.44180E-03 -4.46878E-01
   3.57378E-02  2.14391E-01 -2.05020E-02  2.48183E-01  2.62478E-01  2.66696E-01  3.35428E-01  4.22641E-01  3.19535E-01 -2.10648E-01
   4.21092E-01  2.87118E-01  2.23014E-01  5.37870E-01  2.72114E-01  2.90404E-01  9.75522E-02  1.89578E-01  3.98086E-02  4.13867E-01
   2.70025E-01  3.00770E-01  1.97496E-01 -2.48436E-02  1.15675E-02 -3.62625E-01 -2.87413E-01 -1.04535E-01  1.79343E-01 -2.85946E-02
   5.41140E-01  3.60364E-01 -5.75231E-02  9.68538E-02  6.92915E-02  2.76487E-02 -2.66432E-01 -2.45587E-01 -5.72709E-01 -5.07275E-01
  -3.11087E-01 -7.69656E-03 -8.04726E-02 -1.43058E-01 -1.19283E-01 -3.95609E-01 -2.16388E-01 -1.70379E-01  8.31192E-03  1.24551E-01
   1.03908E-01  4.45466E-01  4.89680E-02 -1.85428E-01  3.04932E-01  3.51613E-02  4.45985E-02  4.42461E-02 -4.06785E-02 -1.17394E-01
  -1.63254E-01 -1.27262E-02 -5.31021E-02 -5.23385E-02 -1.73759E-01  2.61718E-02 -4.78939E-02  6.81685E-02  2.18963E-01 -8.58803E-02
   2.71707E-01  3.36083E-01 -3.12466E-02  4.25353E-01  1.02472E-01 -1.87400E-01  2.21067E-01  2.10159E-01 -1.94443E-02 -4.01683E-02
   2.52779E-01 -2.35652E-01  8.47252E-02  1.87938E-01 -4.52211E-02  1.04180E-01 -5.44343E-02  1.03354E-01 -3.08745E-02  2.83844E-01
   4.47774E-01  5.76549E-02 -2.08802E-01 -1.92537E-02 -1.91418E-01 -4.05178E-01 -3.56768E-01 -5.08227E-01 -3.70700E-01 -5.47031E-01
  -6.45507E-01 -2.06505E-01  5.71513E-02 -1.66490E-01 -3.41234E-01 -4.06007E-01 -1.99755E-01  5.99486E-02 -6.79614E-02 -1.79965E-01
  -6.47842E-02 -1.70719E-01  9.48546E-02  2.73711E-01 -1.48479E-01  1.64314E-01  4.36543E-02 -2.02687E-01  4.47057E-01  3.56746E-01
   4.02864E-03  3.44570E-01 -8.61739E-03  1.22407E-01  3.28506E-01 -1.54640E-02  1.99161E-01  1.12412E-01  1.90257E-01  1.58858E-01
   1.33632E-01 -1.30189E-02  6.54115E-02  1.63157E-01 -8.59662E-02 -8.73727E-02 -2.18720E-01  2.04099E-01  3.38497E-01 -1.06920E-01
   8.09075E-02  4.42172E-01  1.87853E-01 -4.83762E-02 -9.67310E-02  1.90922E-01 -1.75363E-01 -2.25880E-01  3.18351E-01 -5.59795E-02
  -6.32144E-03  1.55349E-01  3.38238E-01 -7.16900E-03  1.39155E-01  2.71439E-01 -2.90103E-01 -1.31846E-02 -3.17029E-01 -9.42180E-02
   3.15814E-01 -8.07107E-02 -7.56114E-02  4.20445E-02 -1.21344E-02 -7.59461E-03  8.88673E-02  2.09534E-01  1.38657E-01 -2.11576E-02
  -3.04114E-02  4.01914E-02  1.70504E-01  2.44893E-01  1.67529E-01  3.91411E-02  1.82617E-01  3.04053E-01  1.20380E-01  4.25967E-02
   8.51366E-02 -6.09469E-02  1.15503E-02  1.92520E-01  2.75620E-02 -7.07263E-02  7.27248E-02 -1.55722E-02 -8.05526E-02  2.07640E-01
   3.16503E-01  6.67461E-02 -1.52163E-01  1.44992E-01  4.04911E-02 -8.46711E-02 -5.32171E-02 -1.96180E-01 -1.72442E-02 -1.46091E-01
  -2.29832E-01  3.63075E-02 -3.00152E-02 -4.03480E-02  1.32021E-01 -1.02074E-01  1.59356E-01  1.53675E-01 -1.19641E-01  7.34615E-02
   1.83346E-01  1.30041E-01 -1.08020E-02  2.05736E-01  3.23870E-01  1.39355E-01  1.33062E-02  2.10319E-01  9.29992E-02 -1.58870E-02
  -2.15831E-01  7.84415E-02  2.29261E-01 -1.88907E-02
 NY points of the fit to the data follow
   1.08570E-01  8.52678E-02  6.12996E-02  4.54060E-02  4.23522E-02  5.25915E-02  6.92812E-02  1.02639E-01  1.41943E-01  1.98547E-01
   2.99406E-01  4.21948E-01  5.52636E-01  5.88021E-01  4.82282E-01  3.31045E-01  1.99340E-01  1.02324E-01  4.74037E-02  1.48158E-02
  -7.46649E-03 -1.70851E-02 -4.12079E-02 -6.97226E-02 -9.35625E-02 -1.10951E-01 -1.23602E-01 -1.34786E-01 -1.43550E-01 -1.51040E-01
  -1.58538E-01 -1.67695E-01 -1.80982E-01 -1.98863E-01 -2.19884E-01 -2.35881E-01 -2.36988E-01 -2.22422E-01 -1.73040E-01 -9.70083E-02
   1.62340E-02  1.36186E-01  2.38681E-01  3.08835E-01  3.43255E-01  3.34628E-01  2.86105E-01  2.14185E-01  1.36636E-01  8.63241E-02
   4.92502E-02  1.28245E-02 -2.89819E-02 -6.95137E-02 -1.11322E-01 -1.50978E-01 -1.90223E-01 -2.23786E-01 -2.28395E-01 -2.37358E-01
  -2.53980E-01 -2.60507E-01 -2.63997E-01 -1.93948E-01 -1.03712E-01  4.34812E-03  1.86515E-01  3.38798E-01  4.00142E-01  4.13345E-01
   3.62577E-01  2.64720E-01  1.66807E-01  5.76443E-02 -4.03015E-02 -1.23014E-01 -2.10873E-01 -3.16791E-01 -3.98253E-01 -4.19505E-01
  -3.05204E-01 -5.18793E-02  1.85841E-01  3.48140E-01  4.63245E-01  5.04023E-01  4.65040E-01  3.80188E-01  2.82267E-01  2.22206E-01
   1.93975E-01  1.66651E-01  1.31101E-01  7.74909E-02  1.29806E-02 -8.57433E-02 -1.87346E-01 -3.16553E-01 -4.12245E-01 -4.37238E-01
  -3.55546E-01 -1.56834E-01  8.30499E-02  2.76557E-01  3.70337E-01  3.73979E-01  3.24215E-01  2.88426E-01  2.62643E-01  2.57749E-01
   2.54363E-01  2.50084E-01  2.43970E-01  2.37139E-01  2.30722E-01  2.25507E-01  2.19526E-01  2.04266E-01  1.88451E-01  1.57916E-01
   1.02893E-01  4.13769E-02 -4.46990E-02 -1.19643E-01 -1.72225E-01 -2.76484E-01 -3.32264E-01 -4.14538E-01 -5.30195E-01 -6.36231E-01
  -7.08471E-01 -6.87153E-01 -5.69722E-01 -4.93927E-01 -5.33714E-01 -7.11324E-01 -8.96999E-01 -7.99172E-01 -4.74630E-01 -1.39952E-01
   4.23021E-02  7.49404E-02  5.51345E-02  6.52140E-02  8.29186E-02  1.01077E-01  1.18218E-01  1.33338E-01  1.46769E-01  1.58597E-01
   1.69822E-01  1.81691E-01  1.94266E-01  2.07806E-01  2.22748E-01  2.39677E-01  2.58936E-01  2.80757E-01  3.05428E-01  3.35605E-01
   3.77523E-01  4.42184E-01  5.31723E-01  5.58851E-01  6.09680E-01  5.63974E-01  4.05588E-01  5.47429E-03 -6.43979E-01 -1.09046E+00
  -1.05348E+00 -7.37595E-01 -4.49528E-01 -3.19499E-01 -3.43143E-01 -3.33467E-01 -3.07058E-01 -2.77854E-01 -2.55898E-01 -2.40270E-01
  -2.28599E-01 -2.13718E-01 -1.98532E-01 -1.85411E-01 -1.74539E-01 -1.65091E-01 -1.55223E-01 -1.44620E-01 -1.34130E-01 -1.24838E-01
  -1.16606E-01 -1.08201E-01 -9.90160E-02 -8.96311E-02 -8.04564E-02 -7.21597E-02 -6.42255E-02 -5.52758E-02 -4.62682E-02 -3.74100E-02
  -2.86042E-02 -1.98430E-02 -1.17757E-02 -1.01644E-02 -1.55375E-02 -2.05863E-02 -1.83466E-02 -1.06466E-02 -8.96026E-03 -2.02264E-02
  -3.54656E-02 -4.16120E-02 -3.59345E-02 -2.40612E-02 -1.35124E-02 -5.08191E-03  2.46634E-03  7.12685E-03  8.64124E-03  1.03157E-02
   2.75755E-02  5.63141E-02  9.55056E-02  1.44858E-01  2.12243E-01  2.98371E-01  3.40667E-01  3.04451E-01  2.55465E-01  2.57917E-01
   3.09138E-01  3.18418E-01  2.14888E-01  6.23762E-02 -4.54111E-02 -8.35225E-02 -7.76840E-02 -6.84218E-02 -7.20052E-02 -7.74576E-02
  -8.50131E-02 -9.19493E-02 -9.69363E-02 -1.00869E-01 -1.04148E-01 -1.08657E-01 -1.12452E-01 -1.16938E-01 -1.21195E-01 -1.25486E-01
  -1.32358E-01 -1.41339E-01 -1.45427E-01 -1.59461E-01 -1.56114E-01 -1.27460E-01 -6.84370E-02  2.60958E-02  8.56034E-02  1.13838E-01
   1.45775E-01  1.74755E-01  1.76183E-01  1.53736E-01  1.43773E-01  1.45871E-01  1.43089E-01  1.28411E-01  1.14817E-01  1.06408E-01
   9.75407E-02  7.10655E-02  3.00932E-02 -1.12257E-02 -5.28474E-02 -8.93205E-02 -1.32448E-01 -1.75014E-01 -2.26910E-01 -2.76585E-01
  -3.11668E-01 -3.23213E-01 -2.66913E-01 -1.48909E-01  1.78353E-02  2.04709E-01  3.48738E-01  4.22037E-01  4.25589E-01  3.60618E-01
   2.77513E-01  2.06634E-01  1.64575E-01  1.55382E-01  1.65141E-01  1.88241E-01  2.13689E-01  2.28490E-01  2.30111E-01  2.21275E-01
   2.06857E-01  1.97142E-01  1.87344E-01  1.80009E-01  1.71058E-01  1.60931E-01  1.45426E-01  1.27392E-01  1.05329E-01  8.07252E-02
   6.23157E-02  4.53588E-02  3.33017E-02  2.32723E-02  6.36319E-03 -1.89302E-02 -6.14182E-02 -1.15783E-01 -1.78519E-01 -2.32111E-01
  -2.73398E-01 -2.93923E-01 -2.88141E-01 -2.55351E-01 -1.95428E-01 -1.16571E-01 -3.00036E-02  3.74708E-02  7.13792E-02  6.22265E-02
   1.26419E-02 -5.72349E-02 -1.34728E-01 -2.02401E-01 -2.58804E-01 -3.00550E-01 -3.29404E-01 -3.84497E-01 -4.08749E-01 -5.21478E-01
  -7.90888E-01 -1.23990E+00 -1.76406E+00 -1.87371E+00 -1.33056E+00 -5.46353E-01 -5.52978E-03  1.59082E-01  8.01959E-02  1.99510E-02
   2.14817E-02  3.06111E-02  3.99888E-02  4.74434E-02  5.40147E-02  5.76477E-02  6.01427E-02  5.72464E-02  4.90915E-02  3.54864E-02
   1.71538E-02 -1.72540E-04 -1.53778E-02 -2.44839E-02 -2.51683E-02 -1.76683E-02 -5.29285E-03  9.73073E-03  2.34302E-02  3.59796E-02
   4.71409E-02  5.62869E-02  6.44507E-02  7.10315E-02  7.55661E-02  7.90485E-02  8.26551E-02  8.70788E-02  9.17807E-02  9.58367E-02
   9.85766E-02  1.01122E-01  1.04247E-01  1.07874E-01  1.11296E-01  1.13444E-01  1.14892E-01  1.16145E-01  1.18823E-01  1.22758E-01
   1.26879E-01  1.29847E-01  1.30857E-01  1.29439E-01  1.26298E-01  1.22441E-01  1.18634E-01  1.15065E-01  1.10979E-01  1.05694E-01
   9.90584E-02  9.16233E-02  8.39233E-02  7.59627E-02  6.79770E-02  6.08910E-02  5.47723E-02  4.92347E-02  4.33470E-02  3.77649E-02
   3.28993E-02  2.89345E-02  2.58651E-02  2.30720E-02  1.98863E-02  1.68012E-02  1.37961E-02  1.10608E-02  9.32672E-03  8.23931E-03
   7.81263E-03  7.91787E-03  8.63967E-03  1.08452E-02  1.46814E-02  1.93412E-02  2.51059E-02  3.19229E-02  4.03279E-02  5.24027E-02
   7.20385E-02  9.20040E-02  1.29897E-01  1.72124E-01  2.31538E-01  2.81877E-01  2.89046E-01  2.53726E-01  1.85003E-01  1.17068E-01
   8.60396E-02  9.47980E-02  1.16598E-01  1.43064E-01  1.57662E-01  1.69962E-01  1.81495E-01  1.91357E-01  1.98356E-01  2.02118E-01
   2.03062E-01  2.02219E-01  2.00616E-01  1.97988E-01  1.94138E-01  1.88251E-01  1.79683E-01  1.68468E-01  1.55577E-01  1.42614E-01
   1.31267E-01  1.21211E-01  1.11301E-01  1.01289E-01  9.11600E-02  8.22866E-02  7.49113E-02  6.84825E-02  6.22358E-02  5.66430E-02
   5.19906E-02  4.83283E-02  4.53755E-02  4.35243E-02  4.34487E-02  4.56631E-02  4.96497E-02  5.37483E-02  5.81406E-02  6.32163E-02
   6.89674E-02  7.54162E-02  8.17459E-02  8.70197E-02  9.08121E-02  9.34232E-02  9.51869E-02  9.68544E-02  9.89354E-02  1.01501E-01
   1.03865E-01  1.04289E-01  1.02840E-01  1.00024E-01  9.68186E-02  9.34586E-02  8.94895E-02  8.53320E-02  8.16668E-02  7.85401E-02
   7.53328E-02  7.16904E-02  6.75924E-02  6.35748E-02  5.94032E-02  5.52640E-02  5.11260E-02  4.73954E-02  4.47473E-02  4.23459E-02
   3.90866E-02  3.47314E-02  2.93677E-02  2.30072E-02  1.51437E-02  5.92729E-03 -3.67775E-03 -1.38361E-02 -2.52411E-02 -3.96478E-02
  -5.74126E-02 -7.72706E-02 -9.69825E-02 -1.15335E-01 -1.32488E-01 -1.48968E-01 -1.64204E-01 -1.77265E-01 -1.88243E-01 -1.97032E-01
  -2.02914E-01 -2.04572E-01 -2.02652E-01 -1.98866E-01 -1.94114E-01 -1.87369E-01 -1.78880E-01 -1.69945E-01 -1.61943E-01 -1.54886E-01
  -1.47963E-01 -1.39964E-01 -1.30213E-01 -1.19454E-01 -1.08103E-01 -9.64002E-02 -8.44149E-02 -7.26584E-02 -6.15491E-02 -5.10573E-02
  -4.10944E-02 -3.16498E-02 -2.19392E-02 -1.28227E-02 -5.44411E-03  1.05732E-03  7.61856E-03  1.44473E-02  2.06646E-02  2.46181E-02
   2.77645E-02  3.17390E-02  3.53795E-02  3.82932E-02  4.01753E-02  4.14266E-02  4.30622E-02  4.46322E-02  4.54255E-02  4.59224E-02
   4.74302E-02  5.01633E-02  5.32571E-02  5.59940E-02  5.80024E-02  5.89516E-02  5.89012E-02  5.84645E-02  5.81740E-02  5.79012E-02
   5.76729E-02  5.75645E-02  5.71695E-02  5.69075E-02  5.71161E-02  5.74855E-02  5.81284E-02  5.89007E-02  5.91468E-02  5.83383E-02
   5.56712E-02  5.25519E-02  5.18542E-02  5.29474E-02  5.38756E-02  5.34347E-02  5.25007E-02  5.17358E-02  5.08354E-02  4.98603E-02
   4.99755E-02  5.17728E-02  5.37679E-02  5.47781E-02  5.50261E-02  5.57370E-02  5.69584E-02  5.83767E-02  5.90563E-02  5.93591E-02
   5.94269E-02  5.89049E-02  5.74472E-02  5.58192E-02  5.55226E-02  5.64248E-02  5.80356E-02  5.95840E-02  6.06219E-02  6.12323E-02
   6.17306E-02  6.28079E-02  6.51484E-02  6.73774E-02  6.82616E-02  6.72462E-02  6.47861E-02  6.29745E-02  6.30046E-02  6.41463E-02
   6.52780E-02  6.49592E-02  6.33320E-02  6.22002E-02  6.19781E-02  6.24194E-02  6.26443E-02  6.22086E-02  6.19066E-02  6.28382E-02
   6.40850E-02  6.41513E-02  6.37982E-02  6.36148E-02  6.41496E-02  6.53229E-02  6.66900E-02  6.89314E-02  7.21754E-02  7.50383E-02
   7.67419E-02  7.71814E-02  7.74258E-02  7.83164E-02
 NY background values follow
     6.217E-02    6.205E-02    6.194E-02    6.182E-02    6.171E-02    6.159E-02    6.148E-02    6.136E-02    6.124E-02    6.113E-02
     6.101E-02    6.090E-02    6.078E-02    6.067E-02    6.055E-02    6.044E-02    6.032E-02    6.020E-02    6.009E-02    5.997E-02
     5.986E-02    5.974E-02    5.962E-02    5.951E-02    5.939E-02    5.927E-02    5.916E-02    5.904E-02    5.893E-02    5.881E-02
     5.869E-02    5.858E-02    5.846E-02    5.834E-02    5.823E-02    5.811E-02    5.799E-02    5.788E-02    5.776E-02    5.764E-02
     5.753E-02    5.741E-02    5.729E-02    5.718E-02    5.706E-02    5.694E-02    5.682E-02    5.671E-02    5.659E-02    5.647E-02
     5.636E-02    5.624E-02    5.612E-02    5.600E-02    5.589E-02    5.577E-02    5.565E-02    5.553E-02    5.542E-02    5.530E-02
     5.518E-02    5.506E-02    5.495E-02    5.483E-02    5.471E-02    5.459E-02    5.448E-02    5.436E-02    5.424E-02    5.412E-02
