 
 $NMID
 ID=''
 FMTDAT='(2E13.5)'
 TRAMP=   1.00000E+0
 VOLUME=   1.00000E+0
 $END
  -1.01202E+4   1.67718E+4
  -3.70091E+4   3.42487E+4
  -3.00928E+4   4.03031E+4
  -2.73703E+4   3.72757E+4
  -2.93135E+4   3.78463E+4
  -2.72498E+4   3.92089E+4
  -2.61377E+4   3.75288E+4
  -2.69776E+4   3.74231E+4
  -2.56280E+4   3.81428E+4
  -2.47184E+4   3.69240E+4
  -2.49831E+4   3.66370E+4
  -2.36378E+4   3.70859E+4
  -2.27308E+4   3.62705E+4
  -2.28595E+4   3.59861E+4
  -2.18843E+4   3.60264E+4
  -2.10080E+4   3.52815E+4
  -2.09999E+4   3.50027E+4
  -2.00573E+4   3.49545E+4
  -1.91774E+4   3.43929E+4
  -1.90254E+4   3.39707E+4
  -1.81635E+4   3.38025E+4
  -1.72899E+4   3.32414E+4
  -1.70542E+4   3.30667E+4
  -1.63124E+4   3.28273E+4
  -1.55389E+4   3.21721E+4
  -1.51201E+4   3.18421E+4
  -1.45199E+4   3.16423E+4
  -1.39104E+4   3.10973E+4
  -1.35587E+4   3.05733E+4
  -1.29238E+4   3.02864E+4
  -1.22486E+4   2.98549E+4
  -1.18787E+4   2.95531E+4
  -1.13794E+4   2.91847E+4
  -1.07290E+4   2.86665E+4
  -1.02608E+4   2.83735E+4
  -9.72580E+3   2.80594E+4
  -9.14399E+3   2.75697E+4
  -8.77188E+3   2.72083E+4
  -8.23224E+3   2.68549E+4
  -7.76541E+3   2.65788E+4
  -7.42235E+3   2.61887E+4
  -7.16863E+3   2.57921E+4
  -6.85917E+3   2.52756E+4
  -6.48829E+3   2.48354E+4
  -6.11178E+3   2.44536E+4
  -5.91360E+3   2.40373E+4
  -5.68420E+3   2.35502E+4
  -5.44447E+3   2.31664E+4
  -5.15397E+3   2.26723E+4
  -4.93036E+3   2.22494E+4
  -4.74430E+3   2.17622E+4
  -4.54711E+3   2.11416E+4
  -4.33018E+3   2.06595E+4
  -4.07957E+3   2.02074E+4
  -3.92715E+3   1.96735E+4
  -3.76304E+3   1.90752E+4
  -3.58457E+3   1.86303E+4
  -3.46499E+3   1.80697E+4
  -3.31521E+3   1.74781E+4
  -3.06444E+3   1.69545E+4
  -2.85557E+3   1.63739E+4
  -2.73627E+3   1.57992E+4
  -2.54541E+3   1.53478E+4
  -2.32721E+3   1.47824E+4
  -2.19471E+3   1.42411E+4
  -1.96858E+3   1.36803E+4
  -1.82545E+3   1.31518E+4
  -1.62794E+3   1.27109E+4
  -1.44434E+3   1.21710E+4
  -1.28290E+3   1.16503E+4
  -1.12491E+3   1.11436E+4
  -8.88056E+2   1.06830E+4
  -8.12225E+2   1.01928E+4
  -5.85210E+2   9.73162E+3
  -4.00948E+2   9.29879E+3
  -2.72502E+2   8.92866E+3
  -9.80772E+1   8.52951E+3
   2.93848E+1   8.11568E+3
   2.01878E+2   7.70447E+3
   3.85378E+2   7.32969E+3
   4.75334E+2   6.98896E+3
   6.87419E+2   6.63944E+3
   7.37385E+2   6.28985E+3
   9.18021E+2   5.97732E+3
   1.04456E+3   5.67916E+3
   1.12696E+3   5.38875E+3
   1.20781E+3   5.03347E+3
   1.25814E+3   4.81867E+3
   1.37596E+3   4.54904E+3
   1.49176E+3   4.35616E+3
   1.54445E+3   4.08810E+3
   1.67560E+3   3.90763E+3
   1.62390E+3   3.69481E+3
   1.70115E+3   3.52363E+3
   1.74101E+3   3.33830E+3
   1.73471E+3   3.06769E+3
   1.77561E+3   3.01225E+3
   1.83452E+3   2.87694E+3
   1.78009E+3   2.72638E+3
   1.72502E+3   2.65242E+3
   1.75715E+3   2.49613E+3
   1.74019E+3   2.42423E+3
   1.71403E+3   2.27002E+3
   1.70463E+3   2.22115E+3
   1.59025E+3   2.15837E+3
   1.55902E+3   2.03805E+3
   1.49523E+3   1.97172E+3
   1.45366E+3   1.91982E+3
   1.37127E+3   1.87340E+3
   1.24657E+3   1.86140E+3
   1.16353E+3   1.80641E+3
   1.11265E+3   1.70409E+3
   1.07587E+3   1.69100E+3
   8.87134E+2   1.71974E+3
   7.96823E+2   1.69253E+3
   6.46475E+2   1.65234E+3
   6.20206E+2   1.58557E+3
   4.78030E+2   1.65309E+3
   2.56367E+2   1.52796E+3
   1.02248E+2   1.52454E+3
   1.01908E+2   1.48124E+3
  -1.40433E+2   1.47707E+3
  -2.93334E+2   1.54520E+3
  -4.37949E+2   1.49570E+3
  -5.18826E+2   1.44816E+3
  -6.83425E+2   1.36779E+3
  -8.86407E+2   1.37551E+3
  -1.00264E+3   1.24796E+3
  -1.04538E+3   1.23330E+3
  -1.26432E+3   1.22442E+3
  -1.39212E+3   1.22393E+3
  -1.54005E+3   1.17128E+3
  -1.61991E+3   1.14386E+3
  -1.82811E+3   1.08947E+3
  -1.84821E+3   1.05495E+3
  -2.00917E+3   1.06718E+3
  -2.12761E+3   9.30881E+2
  -2.25077E+3   8.80727E+2
  -2.26522E+3   9.03054E+2
  -2.49455E+3   8.43623E+2
  -2.44845E+3   8.04986E+2
  -2.58292E+3   7.82125E+2
  -2.68372E+3   7.39462E+2
  -2.68411E+3   6.67058E+2
  -2.83813E+3   6.41512E+2
  -2.83518E+3   5.89628E+2
  -2.90061E+3   5.87520E+2
  -2.97909E+3   5.15308E+2
  -3.01565E+3   3.98618E+2
  -3.04278E+3   4.62466E+2
  -3.13999E+3   4.21830E+2
  -3.17929E+3   3.08926E+2
  -3.14548E+3   3.16923E+2
  -3.17790E+3   3.71284E+2
  -3.20538E+3   2.93565E+2
  -3.22899E+3   2.57828E+2
  -3.23482E+3   2.11426E+2
  -3.20806E+3   2.05965E+2
  -3.26155E+3   1.12435E+2
  -3.19609E+3   1.54804E+2
  -3.21044E+3   1.64241E+2
  -3.23964E+3   1.76859E+2
  -3.16749E+3   1.68595E+2
  -3.18724E+3   1.40600E+2
  -3.11795E+3   1.08487E+2
  -3.17158E+3   1.03107E+2
  -3.13695E+3   1.12307E+2
  -3.05127E+3   1.48635E+2
  -3.09901E+3   4.89731E+1
  -3.06935E+3   2.58175E+1
  -3.03390E+3   8.47772E+1
  -2.92982E+3   5.35451E+1
  -2.95985E+3   1.09785E+2
  -2.91936E+3   7.88183E+1
  -2.83119E+3   2.52557E+1
  -2.81794E+3   1.08199E+2
  -2.85760E+3   4.13132E+1
  -2.77353E+3   6.88071E+1
  -2.78187E+3   6.63722E+1
  -2.70816E+3   4.32396E+1
  -2.64524E+3   7.57307E+1
  -2.56137E+3   7.89020E+1
  -2.53693E+3   1.08745E+2
  -2.55120E+3   5.70858E+1
  -2.40941E+3   1.23553E+2
  -2.39138E+3   7.91788E+1
  -2.34596E+3   9.30683E+1
  -2.31704E+3   5.48060E+1
  -2.14442E+3  -9.59223E+0
  -2.11805E+3   8.53524E+1
  -2.15171E+3   8.26604E+1
  -2.03411E+3   9.33581E+1
  -1.94433E+3   1.06932E+2
  -1.97840E+3   8.89259E+1
  -1.93518E+3   8.37655E+1
  -1.81555E+3   4.44854E+1
  -1.76443E+3   8.62117E+1
  -1.77355E+3   1.63303E+2
  -1.67266E+3   7.84993E+1
  -1.56305E+3   1.08170E+2
  -1.52699E+3   1.62117E+2
  -1.41666E+3   1.64119E+2
  -1.45414E+3   1.57793E+2
  -1.37755E+3   1.29259E+2
  -1.36349E+3   2.13443E+2
  -1.27707E+3   2.18946E+2
  -1.16824E+3   2.13480E+2
  -1.15952E+3   2.12940E+2
  -1.10161E+3   2.52411E+2
  -1.06286E+3   2.43608E+2
  -1.06243E+3   2.56902E+2
  -9.90658E+2   3.11478E+2
  -9.12963E+2   3.25948E+2
  -9.77705E+2   3.88460E+2
  -8.28407E+2   3.59589E+2
  -8.12728E+2   3.60677E+2
  -7.15081E+2   3.78654E+2
  -7.34937E+2   4.14463E+2
  -7.30098E+2   3.95220E+2
  -6.70423E+2   4.43219E+2
  -6.95809E+2   3.90118E+2
  -5.89690E+2   4.85551E+2
  -5.75486E+2   5.46786E+2
  -5.53188E+2   4.80778E+2
  -5.29185E+2   4.64981E+2
  -5.25503E+2   4.61900E+2
  -5.07895E+2   5.08776E+2
  -4.21161E+2   5.35634E+2
  -3.87285E+2   5.41936E+2
  -4.45928E+2   5.20525E+2
  -3.86575E+2   5.77060E+2
  -3.15293E+2   5.85793E+2
  -3.93677E+2   5.26743E+2
  -4.07241E+2   5.99342E+2
  -3.54949E+2   6.16227E+2
  -3.39466E+2   6.42730E+2
  -2.78541E+2   6.34978E+2
  -2.35181E+2   6.16028E+2
  -1.90671E+2   6.11144E+2
  -2.20944E+2   6.15696E+2
  -1.96815E+2   5.87497E+2
  -1.53318E+2   6.18419E+2
  -1.85586E+2   6.00602E+2
  -1.98026E+2   6.26945E+2
  -1.32536E+2   6.37218E+2
  -7.72579E+1   6.21294E+2
  -1.38594E+2   6.72947E+2
  -9.91538E+1   6.08579E+2
  -5.77931E+1   6.18047E+2
  -9.65223E+1   6.20037E+2
  -8.71324E+0   6.80896E+2
  -2.52316E+1   6.53425E+2
   7.79610E-1   6.99925E+2
   9.13310E+0   6.85292E+2
   5.33156E+1   6.34323E+2
   8.72397E+1   5.84426E+2
   1.38203E+2   6.36338E+2
   7.03550E+1   7.01171E+2
   9.37926E+1   7.25074E+2
   1.80670E+2   7.16095E+2
   1.62230E+2   7.05432E+2
   1.06702E+2   7.01385E+2
   1.11756E+2   6.79069E+2
   1.54316E+2   6.90403E+2
   1.67126E+2   6.79451E+2
   1.71564E+2   6.77590E+2
   2.02553E+2   7.39197E+2
   2.20229E+2   7.54551E+2
   1.65763E+2   6.87619E+2
   1.98383E+2   7.12411E+2
   2.45032E+2   7.18784E+2
   2.10315E+2   7.20183E+2
   2.66587E+2   7.00478E+2
   2.04403E+2   7.57436E+2
   2.75260E+2   7.08777E+2
   2.38055E+2   7.68253E+2
   2.76941E+2   7.77560E+2
   2.88780E+2   7.32746E+2
   2.54481E+2   8.09193E+2
   2.52481E+2   7.42685E+2
   2.52386E+2   7.84260E+2
   3.19548E+2   7.74447E+2
   2.56426E+2   7.57620E+2
   2.84960E+2   7.50278E+2
   2.85601E+2   8.06208E+2
   2.38160E+2   7.24200E+2
   2.46973E+2   7.59176E+2
   3.32438E+2   7.68779E+2
   2.43034E+2   7.50196E+2
   2.51718E+2   7.15274E+2
   2.67147E+2   6.96103E+2
   2.89545E+2   6.71949E+2
   2.63262E+2   6.82435E+2
   2.86346E+2   7.16031E+2
   2.53531E+2   7.67532E+2
   2.57392E+2   7.18687E+2
   3.32632E+2   6.70818E+2
   3.14833E+2   7.60242E+2
   2.98426E+2   7.12473E+2
   2.88776E+2   6.46571E+2
   3.07360E+2   7.46809E+2
   3.08327E+2   7.20004E+2
   2.91611E+2   6.88810E+2
   3.14273E+2   6.93623E+2
   3.09457E+2   6.74630E+2
   2.53438E+2   6.70068E+2
   3.04389E+2   6.93112E+2
   3.11924E+2   6.41070E+2
   3.49589E+2   6.41445E+2
   3.22656E+2   6.53501E+2
   2.66011E+2   6.39009E+2
   2.88765E+2   6.60184E+2
   2.75820E+2   6.73924E+2
   2.88343E+2   6.19282E+2
   3.64275E+2   6.37032E+2
   3.28422E+2   6.54579E+2
   2.97201E+2   6.79469E+2
   3.33589E+2   6.04424E+2
   3.33871E+2   6.65154E+2
   3.31732E+2   5.73882E+2
   2.75410E+2   5.80648E+2
   2.81464E+2   5.73180E+2
   3.14863E+2   5.87855E+2
   3.03935E+2   5.79282E+2
   3.01478E+2   5.20870E+2
   2.90259E+2   5.58791E+2
   3.85151E+2   4.82131E+2
   2.84593E+2   5.75189E+2
   2.82751E+2   5.41995E+2
   3.20911E+2   5.39141E+2
   3.56901E+2   5.25667E+2
   3.68221E+2   5.54932E+2
   3.10134E+2   5.07499E+2
   3.59860E+2   4.83905E+2
   3.29533E+2   5.13720E+2
   3.14853E+2   5.18801E+2
   3.28210E+2   5.02213E+2
   3.57431E+2   4.52215E+2
   3.16821E+2   4.66957E+2
   3.38942E+2   4.21584E+2
   3.26135E+2   5.17436E+2
   4.16469E+2   4.32178E+2
   3.37714E+2   3.70865E+2
   3.43150E+2   4.17849E+2
   2.80862E+2   4.12639E+2
   3.05161E+2   4.33317E+2
   3.49719E+2   3.58533E+2
   4.04529E+2   3.97754E+2
   2.68994E+2   3.89704E+2
   3.55169E+2   3.96806E+2
   3.67021E+2   3.38556E+2
   2.75093E+2   3.45979E+2
   3.03246E+2   3.25153E+2
   3.18920E+2   3.59315E+2
   3.89785E+2   3.01649E+2
   3.67539E+2   2.99766E+2
   3.33029E+2   2.57100E+2
   3.48073E+2   3.21147E+2
   3.86560E+2   3.64409E+2
   2.87674E+2   2.60930E+2
   3.73988E+2   2.66532E+2
   3.09261E+2   2.41579E+2
   3.28368E+2   2.83717E+2
   2.81611E+2   2.29752E+2
   3.64410E+2   2.42719E+2
   3.50167E+2   2.56431E+2
   2.96966E+2   1.87104E+2
