 LCModel (Version 6.3-1N) Copyright: S.W. Provencher.          Ref.: Magn. Reson. Med. 30:672-679 (1993).                
 Slice_N1@23_19  02-Jun-2023 14:37:39
 27 lines in following concentration table = NCONC+1
    Conc.  %SD /Cr+PCr  Metabolite                                         
 1.85E-06  18% 2.9E-04 Mac                                                 
    0.000 999%   0.000 Cr                                                  
 5.20E-02  13%   8.000 PCr                                                 
 6.33E-02  16%   9.741 Ins                                                 
 6.44E-02  12%   9.910 NAA                                                 
 7.08E-02  13%  10.908 Tau                                                 
 1.31E-02  18%   2.014 PCho                                                
    0.000 999%   0.000 GPC                                                 
 4.97E-02  20%   7.659 Glu                                                 
 2.56E-02  28%   3.949 Gln                                                 
    0.000 999%   0.000 Ala                                                 
 9.01E-03 144%   1.388 Asc                                                 
 6.35E-03  83%   0.978 Asp                                                 
 4.33E-03  70%   0.667 GABA                                                
 3.89E-03  85%   0.599 Glc                                                 
 1.19E-02  35%   1.830 GSH                                                 
    0.000 999%   0.000 Lac                                                 
 3.89E-03 151%   0.599 NAAG                                                
    0.000 999%   0.000 PE                                                  
 1.31E-02  18%   2.014 GPC+PCho                                            
 6.82E-02  11%  10.509 NAA+NAAG                                            
 7.54E-02  16%  11.608 Glu+Gln                                             
 5.20E-02  13%   8.000 Cr+PCr                                              
 6.82E-02  11%  10.509 NAA+NAAG                                            
 5.20E-02  13%   8.000 Cr+PCr                                              
 7.54E-02  16%  11.608 Glu+Gln                                             
   6 lines in following misc. output table
  FWHM = 0.047 ppm    S/N =   2                                            
  Data shift = 0.006 ppm                                                   
  Ph:  36 deg      -7.1 deg/ppm                                            
  alphaB,S = 6.8E+00,   3.0E+01                                            
   18 spline knots.   Ns = 9(1)                                            
   5 inflections.     2 extrema                                            
  654 points on ppm-axis = NY
      4.000000     3.994181     3.988363     3.982544     3.976726     3.970907     3.965088     3.959270     3.953451     3.947633
      3.941814     3.935995     3.930177     3.924358     3.918540     3.912721     3.906902     3.901084     3.895265     3.889446
      3.883628     3.877809     3.871991     3.866172     3.860353     3.854535     3.848716     3.842898     3.837079     3.831260
      3.825442     3.819623     3.813805     3.807986     3.802167     3.796349     3.790530     3.784712     3.778893     3.773074
      3.767256     3.761437     3.755619     3.749800     3.743981     3.738163     3.732344     3.726526     3.720707     3.714888
      3.709070     3.703251     3.697433     3.691614     3.685795     3.679977     3.674158     3.668339     3.662521     3.656702
      3.650884     3.645065     3.639246     3.633428     3.627609     3.621791     3.615972     3.610153     3.604335     3.598516
      3.592698     3.586879     3.581060     3.575242     3.569423     3.563605     3.557786     3.551967     3.546149     3.540330
      3.534512     3.528693     3.522874     3.517056     3.511237     3.505419     3.499600     3.493781     3.487963     3.482144
      3.476326     3.470507     3.464688     3.458870     3.453051     3.447232     3.441414     3.435595     3.429777     3.423958
      3.418139     3.412321     3.406502     3.400684     3.394865     3.389046     3.383228     3.377409     3.371591     3.365772
      3.359953     3.354135     3.348316     3.342498     3.336679     3.330860     3.325042     3.319223     3.313405     3.307586
      3.301767     3.295949     3.290130     3.284312     3.278493     3.272674     3.266856     3.261037     3.255219     3.249400
      3.243581     3.237763     3.231944     3.226125     3.220307     3.214488     3.208670     3.202851     3.197032     3.191214
      3.185395     3.179577     3.173758     3.167939     3.162121     3.156302     3.150484     3.144665     3.138846     3.133028
      3.127209     3.121391     3.115572     3.109753     3.103935     3.098116     3.092298     3.086479     3.080660     3.074842
      3.069023     3.063205     3.057386     3.051567     3.045749     3.039930     3.034111     3.028293     3.022474     3.016656
      3.010837     3.005018     2.999200     2.993381     2.987563     2.981744     2.975925     2.970107     2.964288     2.958470
      2.952651     2.946832     2.941014     2.935195     2.929377     2.923558     2.917739     2.911921     2.906102     2.900284
      2.894465     2.888646     2.882828     2.877009     2.871191     2.865372     2.859553     2.853735     2.847916     2.842098
      2.836279     2.830460     2.824642     2.818823     2.813004     2.807186     2.801367     2.795549     2.789730     2.783911
      2.778093     2.772274     2.766456     2.760637     2.754818     2.749000     2.743181     2.737363     2.731544     2.725725
      2.719907     2.714088     2.708270     2.702451     2.696632     2.690814     2.684995     2.679177     2.673358     2.667539
      2.661721     2.655902     2.650084     2.644265     2.638446     2.632628     2.626809     2.620991     2.615172     2.609353
      2.603535     2.597716     2.591897     2.586079     2.580260     2.574442     2.568623     2.562804     2.556986     2.551167
      2.545349     2.539530     2.533711     2.527893     2.522074     2.516256     2.510437     2.504618     2.498800     2.492981
      2.487163     2.481344     2.475525     2.469707     2.463888     2.458070     2.452251     2.446432     2.440614     2.434795
      2.428977     2.423158     2.417339     2.411521     2.405702     2.399884     2.394065     2.388246     2.382428     2.376609
      2.370790     2.364972     2.359153     2.353335     2.347516     2.341697     2.335879     2.330060     2.324242     2.318423
      2.312604     2.306786     2.300967     2.295149     2.289330     2.283511     2.277693     2.271874     2.266056     2.260237
      2.254418     2.248600     2.242781     2.236963     2.231144     2.225325     2.219507     2.213688     2.207870     2.202051
      2.196232     2.190414     2.184595     2.178777     2.172958     2.167139     2.161321     2.155502     2.149683     2.143865
      2.138046     2.132228     2.126409     2.120590     2.114772     2.108953     2.103135     2.097316     2.091497     2.085679
      2.079860     2.074042     2.068223     2.062404     2.056586     2.050767     2.044949     2.039130     2.033311     2.027493
      2.021674     2.015856     2.010037     2.004218     1.998400     1.992581     1.986763     1.980944     1.975126     1.969307
      1.963489     1.957670     1.951852     1.946033     1.940215     1.934397     1.928578     1.922760     1.916941     1.911123
      1.905304     1.899486     1.893667     1.887849     1.882030     1.876212     1.870393     1.864575     1.858756     1.852938
      1.847119     1.841301     1.835482     1.829664     1.823845     1.818027     1.812208     1.806390     1.800571     1.794753
      1.788934     1.783116     1.777297     1.771479     1.765660     1.759842     1.754023     1.748205     1.742386     1.736568
      1.730749     1.724931     1.719113     1.713294     1.707476     1.701657     1.695839     1.690020     1.684202     1.678383
      1.672565     1.666746     1.660928     1.655109     1.649291     1.643472     1.637654     1.631835     1.626017     1.620198
      1.614380     1.608561     1.602743     1.596924     1.591106     1.585287     1.579469     1.573650     1.567832     1.562013
      1.556195     1.550376     1.544558     1.538739     1.532921     1.527102     1.521284     1.515465     1.509647     1.503829
      1.498010     1.492192     1.486373     1.480555     1.474736     1.468918     1.463099     1.457281     1.451462     1.445644
      1.439825     1.434007     1.428188     1.422370     1.416551     1.410733     1.404914     1.399096     1.393277     1.387459
      1.381640     1.375822     1.370003     1.364185     1.358366     1.352548     1.346729     1.340911     1.335092     1.329274
      1.323455     1.317637     1.311818     1.306000     1.300182     1.294363     1.288545     1.282726     1.276908     1.271089
      1.265271     1.259452     1.253634     1.247815     1.241997     1.236178     1.230360     1.224541     1.218723     1.212904
      1.207086     1.201267     1.195449     1.189630     1.183812     1.177993     1.172175     1.166356     1.160538     1.154719
      1.148901     1.143082     1.137264     1.131445     1.125627     1.119808     1.113990     1.108171     1.102353     1.096534
      1.090716     1.084898     1.079079     1.073261     1.067442     1.061624     1.055805     1.049987     1.044168     1.038350
      1.032531     1.026713     1.020894     1.015076     1.009257     1.003439     0.997620     0.991802     0.985983     0.980165
      0.974346     0.968528     0.962709     0.956891     0.951072     0.945254     0.939435     0.933617     0.927798     0.921980
      0.916161     0.910343     0.904524     0.898706     0.892887     0.887069     0.881251     0.875432     0.869614     0.863795
      0.857977     0.852158     0.846340     0.840521     0.834703     0.828884     0.823066     0.817247     0.811429     0.805610
      0.799792     0.793973     0.788155     0.782336     0.776518     0.770699     0.764881     0.759062     0.753244     0.747425
      0.741607     0.735788     0.729970     0.724151     0.718333     0.712514     0.706696     0.700877     0.695059     0.689240
      0.683422     0.677603     0.671785     0.665967     0.660148     0.654330     0.648511     0.642693     0.636874     0.631056
      0.625237     0.619419     0.613600     0.607782     0.601963     0.596145     0.590326     0.584508     0.578689     0.572871
      0.567052     0.561234     0.555415     0.549597     0.543778     0.537960     0.532141     0.526323     0.520504     0.514686
      0.508867     0.503049     0.497230     0.491412     0.485593     0.479775     0.473956     0.468138     0.462319     0.456501
      0.450682     0.444864     0.439045     0.433227     0.427408     0.421590     0.415771     0.409953     0.404134     0.398316
      0.392497     0.386679     0.380860     0.375042     0.369223     0.363405     0.357586     0.351767     0.345949     0.340130
      0.334312     0.328493     0.322675     0.316856     0.311038     0.305219     0.299401     0.293582     0.287764     0.281945
      0.276127     0.270308     0.264490     0.258671     0.252853     0.247034     0.241216     0.235397     0.229579     0.223760
      0.217942     0.212123     0.206305     0.200486
 NY phased data points follow
  -2.13106E-02 -1.44297E-01 -3.18120E-01  1.40553E-03 -1.35774E-01 -1.20565E-01  4.77369E-02 -1.90491E-02  1.60726E-01  3.59160E-02
  -3.27895E-02  5.36329E-02  2.29721E-01  4.14710E-01  6.73122E-01  3.92496E-01 -2.81320E-02  1.74150E-01 -5.21024E-02  4.57088E-01
   4.29651E-01  5.87587E-02  2.71703E-01 -1.67217E-01 -8.41452E-02 -1.72756E-01 -2.97104E-01 -9.40655E-02  1.71104E-01 -8.08864E-02
  -1.52028E-01  5.33533E-03 -1.36509E-01 -6.95794E-02 -2.28266E-01  1.00263E-02 -1.91884E-01 -6.39940E-01 -2.86517E-01 -3.34386E-01
  -5.16471E-01 -9.70968E-03 -3.15407E-02  1.89289E-01  3.75809E-01  2.45963E-01  3.28750E-01  1.30533E-01  2.21787E-01  4.49884E-01
   4.10522E-01  1.16624E-01  2.39646E-01  2.01434E-01  6.33904E-02 -3.13124E-01 -1.35398E-01  1.56095E-02 -3.28440E-02  7.76483E-03
  -3.67430E-01 -2.10018E-01 -2.97770E-01 -1.81806E-01 -1.45166E-01  2.46836E-01 -3.01813E-02 -1.74844E-01  2.44439E-02 -5.13877E-01
  -2.52902E-01  2.81362E-01  5.12829E-01  6.64652E-02  1.59573E-01  1.39890E-01 -8.60155E-02  1.30772E-01  8.54485E-02 -4.83489E-02
  -6.02214E-02 -4.62137E-01 -6.47906E-03  5.79010E-02 -4.37752E-01  2.28002E-01  9.65438E-02  5.16092E-02  1.78067E-01  4.58169E-01
   1.24240E-01  1.37138E-01  1.16454E-01 -6.93753E-02  4.12737E-01  1.19267E-01  2.98433E-01 -9.23685E-02 -1.87558E-02 -5.40986E-02
  -3.36238E-01 -4.31995E-01 -2.57181E-01  1.43035E-03 -2.20508E-01  4.19575E-01 -1.22094E-01 -1.18980E-01  3.12547E-01  4.79504E-02
   3.14238E-01  5.01910E-01  6.09774E-01  5.48810E-01  4.74655E-01  8.77809E-02  2.95672E-01  3.70841E-01  1.33831E-01  2.80221E-01
   1.93339E-01  5.09061E-01  4.33751E-01  4.44854E-01  5.14205E-01 -3.37906E-02 -2.50044E-03  1.04091E-01  1.15334E-02 -1.22582E-01
  -5.13730E-01 -5.50200E-01 -5.16796E-01 -4.71081E-01 -4.81254E-01 -7.28103E-01 -5.27420E-01 -8.63728E-01 -5.66252E-01 -1.66092E-01
  -6.78129E-01 -5.64156E-01 -4.20208E-01 -2.77135E-01 -1.01816E-01 -4.29328E-02 -1.66858E-01  1.56980E-01  7.87396E-02 -7.02630E-02
   1.19724E-01 -1.39959E-02  3.46301E-02 -1.21885E-04 -9.85360E-02 -2.47416E-01  1.32504E-01  2.29064E-02  6.62165E-02  4.28972E-01
   3.95594E-01  4.69228E-01  3.64232E-01  3.91952E-01  3.06291E-01  3.87762E-01  6.98224E-01  3.39267E-01  1.11108E-01  3.07266E-02
  -2.98132E-01  2.64782E-02 -3.77294E-01 -3.00402E-01 -2.08435E-01 -6.53821E-01 -3.96880E-01 -6.59667E-01 -4.35218E-01 -2.42611E-01
  -1.95518E-01 -2.98294E-01 -6.60518E-01 -1.78010E-01 -1.20874E-01 -3.69722E-01 -3.44632E-01 -5.94249E-01 -4.75205E-02 -1.76682E-01
  -3.02608E-01 -4.03911E-02 -4.54017E-01 -5.38593E-02 -1.85990E-01 -3.66136E-01 -1.35024E-01 -1.09263E-01 -1.68001E-01 -2.09829E-03
   3.77322E-02 -1.92894E-02 -1.58708E-01 -1.38316E-01 -1.43853E-01 -4.22702E-01  8.58135E-02  2.51251E-01  1.50825E-01 -1.45671E-01
   3.66914E-02 -1.64473E-02 -6.14023E-02  1.15169E-01 -6.99323E-02 -1.71177E-01 -2.28356E-01  1.65404E-01 -6.85308E-02 -6.59309E-02
  -1.20496E-01 -5.17424E-02 -2.03956E-02 -2.54461E-01  1.14565E-02  3.69526E-02 -5.86327E-03  2.98017E-01  8.71032E-02  1.90388E-01
   4.38660E-01 -2.07447E-02  3.52380E-01  3.18657E-01  2.89001E-01 -2.57675E-02  2.55635E-01  5.61396E-01 -1.48309E-01 -1.09174E-01
   1.23290E-01  2.11859E-01 -6.24849E-02  7.40882E-02 -3.27999E-03 -4.50119E-02 -1.75756E-01 -6.45787E-02 -5.98606E-02 -5.10415E-02
   1.94034E-01 -1.85470E-01 -6.79865E-02 -1.20278E-01  1.51937E-01  1.75201E-01 -1.07306E-01  1.24693E-01  1.11255E-01 -1.75031E-02
   1.47532E-01  1.04594E-01  1.44483E-02  3.01112E-02 -6.46438E-02  2.68000E-02 -9.56134E-02  5.32858E-02  2.41001E-01  6.10726E-02
   3.48525E-01  4.03202E-01  1.76586E-02  3.20527E-01  2.56332E-01  1.71033E-01  1.69573E-01  3.76685E-02  1.08214E-01 -1.20206E-02
  -6.61980E-03 -3.66592E-01 -2.45168E-01  1.57688E-01 -6.40263E-02 -2.89698E-01 -4.30445E-03  2.35560E-02  2.11433E-02  2.55312E-01
   2.00705E-01  3.05682E-01  3.74909E-01  2.75239E-01  2.54815E-02  6.49068E-02  1.81092E-01  5.45354E-02  2.54699E-01  3.33321E-01
  -1.59854E-01 -1.94845E-01  1.72002E-01  1.39606E-01  7.92422E-02  2.17813E-01  1.59781E-01  3.34115E-01  3.67351E-01  1.47941E-01
   3.29840E-01  3.95202E-01  3.83115E-01  1.39896E-01  7.79740E-02  4.29138E-02  4.78029E-02  1.07984E-01  1.03280E-01  1.24547E-01
  -6.08729E-02 -4.25576E-01 -2.02279E-01 -7.24782E-02 -4.40733E-01 -1.23658E-01 -3.04797E-01  1.11526E-01  1.62828E-02 -1.61417E-01
   9.50131E-02 -8.42575E-02  2.62336E-01  1.45971E-01  3.24149E-01 -1.09546E-01 -2.60376E-01 -1.86086E-01 -2.18889E-01 -2.84172E-01
  -5.24457E-01 -3.55814E-01 -7.10356E-01 -1.07063E+00 -1.08084E+00 -4.59862E-01 -5.37775E-01 -7.36281E-01 -4.95595E-01 -3.60372E-01
  -1.32257E-01 -1.07073E-01  7.96347E-02 -7.76183E-03 -8.57504E-02  2.52736E-01  4.19015E-01  2.37874E-01 -2.85687E-02  7.10137E-02
   1.77382E-01  1.55262E-01  2.92284E-01  1.10344E-01  2.74635E-03  6.56450E-02  1.46050E-01 -3.81421E-02  3.80711E-01  3.70862E-01
  -1.09691E-01  1.84776E-01 -1.68146E-01  9.67600E-02  8.81038E-02 -3.93688E-01 -2.29173E-03  3.35127E-01  1.59289E-01  8.29625E-02
   2.18967E-01  3.34665E-01  2.03015E-01 -3.11972E-02  2.31376E-01  3.07261E-02 -2.63719E-02  1.14023E-02  6.55471E-02  1.71786E-01
   1.88861E-01  1.01253E-01  1.11479E-01  1.96039E-01  3.57040E-02  3.11394E-01  2.11712E-01  1.92473E-01  2.32555E-01  2.19342E-01
   1.20353E-01  1.62005E-01  1.77958E-01 -2.16520E-01 -1.65958E-01  1.27774E-01  1.40522E-01  1.27841E-01  5.09764E-03 -1.97420E-01
   1.81444E-01 -5.08541E-01 -2.72894E-01  1.39550E-01 -2.98310E-01 -1.61392E-01 -1.91344E-01  2.04955E-01 -3.64791E-01 -3.81357E-01
  -2.91184E-01 -2.71783E-01  1.51605E-01 -2.81444E-01 -6.26508E-01 -4.88265E-01 -2.69222E-01 -3.08198E-01  3.89647E-02 -6.44054E-02
  -2.86204E-01 -3.77460E-01 -2.26607E-01  6.49483E-03 -7.01288E-02 -1.56192E-01 -1.53519E-01 -8.46145E-02  5.31783E-02  1.11308E-01
   4.68819E-03  3.05542E-01  1.60847E-01 -1.38331E-01 -3.36915E-02  1.71551E-01 -2.02292E-02  3.71011E-01  1.87008E-01  1.33937E-01
   3.24000E-01  9.71678E-02  3.39691E-01 -3.72081E-01  1.27832E-01 -2.79248E-02  1.97684E-01  3.46959E-01 -4.90057E-03  2.19830E-01
  -8.74963E-02  3.78153E-01  1.69071E-01  5.59778E-01 -1.71973E-02 -1.33176E-01  9.22853E-02  5.90670E-02  1.10698E-01 -4.75962E-01
  -6.05644E-02 -2.36405E-01 -3.00956E-01 -2.23295E-01  3.74133E-02 -1.09645E-01  1.14977E-01  7.18371E-02 -1.27262E-01  1.24261E-02
  -1.04180E-01  1.16782E-01 -2.84971E-01  1.15133E-01  1.56500E-01 -4.58984E-02 -1.43631E-01 -1.08715E-01  3.20726E-01  1.77590E-01
   1.38050E-01  6.45306E-02  1.03783E-01  2.39611E-01  1.35242E-01  9.02052E-02  1.12882E-01 -1.22732E-01 -2.92734E-01  3.13013E-02
   2.53382E-02 -1.66993E-02  1.19516E-01 -1.90151E-01  4.03014E-02 -1.14376E-01 -1.09974E-01 -7.75702E-02  1.70715E-01  1.35883E-01
  -3.74660E-01  1.66926E-01 -2.12043E-01  5.78255E-02  2.98065E-01  1.17170E-01  2.78891E-01  3.36216E-01  7.76819E-02  1.16897E-01
   3.61660E-01 -2.93900E-01 -2.41605E-01 -3.50150E-02  1.56097E-01 -1.47046E-01 -1.42179E-01 -2.63846E-02 -1.49646E-01 -3.56951E-01
  -1.41974E-01  2.53194E-01 -1.52139E-01 -1.89687E-01 -3.18998E-01  8.42675E-02 -1.27048E-01 -2.32876E-01 -2.02573E-01 -3.10142E-01
  -1.55021E-01 -2.42780E-01 -8.00705E-02 -1.48586E-01 -1.76374E-01 -5.88697E-01 -1.30912E-01 -5.30890E-02 -5.71822E-03  4.07567E-01
  -2.88536E-01  2.39082E-01  3.66884E-01 -1.14132E-01  2.16252E-01  1.72592E-01  2.47223E-01  1.83682E-01  1.09870E-01 -1.60566E-01
  -1.91162E-01  1.06904E-01  6.74016E-02  4.19114E-01  2.75115E-02 -8.47593E-03  2.81632E-01  3.45107E-02  8.25723E-02 -2.37970E-01
  -4.24525E-01  1.87673E-03 -4.39144E-02  1.85753E-02  3.88211E-01  1.59980E-01  1.31162E-01  9.77869E-02  1.06268E-01  5.07439E-02
   5.76937E-02 -2.34672E-01 -3.26785E-01 -4.70783E-02  2.49757E-02  1.40914E-01 -1.23499E-01  2.25164E-02 -1.00953E-01  8.33120E-02
   3.18247E-01  1.55324E-01  2.82496E-03 -2.98385E-01 -4.21573E-02  1.11484E-01 -1.37736E-02 -4.82999E-02 -1.13566E-01 -3.63637E-02
   1.58849E-01  8.24584E-02  2.47787E-02 -1.36715E-01 -7.38509E-02  1.83465E-02  1.52457E-01  3.02950E-01  4.56203E-01  3.99671E-01
   1.98974E-01 -2.98677E-02 -2.97449E-01 -7.34584E-02 -2.35987E-01  1.67272E-01  2.19325E-02  2.84110E-01  4.19681E-01 -2.22677E-01
   1.01952E-01  2.76577E-02  4.41415E-01  1.64735E-01  3.46909E-02  1.27307E-01 -1.56731E-01  1.49877E-01  1.47195E-01 -1.75545E-01
  -2.79017E-01  2.16932E-01  1.41018E-01 -1.03386E-01  7.76951E-02  1.37468E-01  1.66519E-01  2.24577E-01  2.51349E-02 -1.42646E-01
  -1.80687E-01  1.15434E-01  6.19414E-02  4.37468E-02 -1.08608E-02 -2.47323E-01  3.29582E-01  8.19942E-02  1.24300E-01  3.31365E-02
   4.68271E-02  5.32322E-02 -3.29457E-01  7.53779E-02
 NY points of the fit to the data follow
   6.05194E-02  4.69030E-02  4.19325E-02  2.22396E-02 -2.63940E-02 -2.62552E-02  1.82201E-02  6.09392E-02  7.69181E-02  8.20666E-02
   1.07883E-01  1.75283E-01  2.77387E-01  3.77600E-01  4.18580E-01  3.86343E-01  3.36324E-01  3.12335E-01  2.88677E-01  2.56487E-01
   2.09308E-01  1.39192E-01  7.43769E-02  2.66375E-02  5.81610E-03 -9.76968E-03 -2.32745E-02 -3.53881E-02 -4.58957E-02 -5.56602E-02
  -6.87750E-02 -8.54368E-02 -1.18674E-01 -1.48789E-01 -1.68846E-01 -1.79976E-01 -1.92682E-01 -2.00839E-01 -1.99375E-01 -1.76338E-01
  -1.28731E-01 -5.85058E-02  2.05796E-02  9.01941E-02  1.45541E-01  1.95461E-01  2.32441E-01  2.53498E-01  2.60238E-01  2.50159E-01
   2.29199E-01  1.94892E-01  1.56429E-01  1.15944E-01  8.06127E-02  3.56377E-02 -2.87727E-03 -2.37792E-02 -8.02164E-02 -1.41413E-01
  -1.71866E-01 -1.99487E-01 -2.22117E-01 -2.31596E-01 -2.24888E-01 -2.07410E-01 -1.79781E-01 -1.24777E-01 -4.14991E-02  3.50010E-02
   1.00168E-01  1.83601E-01  2.41529E-01  2.34795E-01  2.15448E-01  1.91210E-01  1.46785E-01  8.28457E-02  1.29857E-02 -6.26032E-02
  -1.39610E-01 -1.88286E-01 -1.91261E-01 -1.53727E-01 -1.00904E-01 -3.71306E-02  4.38940E-02  1.18037E-01  1.83448E-01  2.49061E-01
   2.97670E-01  3.11518E-01  2.87514E-01  2.35007E-01  1.65065E-01  9.13439E-02  1.82659E-02 -6.53636E-02 -1.57659E-01 -2.38175E-01
  -2.79979E-01 -2.69878E-01 -2.16364E-01 -1.44103E-01 -7.19017E-02 -4.97731E-03  6.07646E-02  1.30580E-01  1.94128E-01  2.42935E-01
   2.70116E-01  2.77803E-01  2.73826E-01  2.66680E-01  2.66749E-01  2.67543E-01  2.62296E-01  2.70987E-01  2.73986E-01  2.87807E-01
   2.94277E-01  3.14020E-01  2.90462E-01  2.39631E-01  1.67356E-01  9.07743E-02  2.27863E-02  9.80606E-03 -6.72262E-02 -2.28101E-01
  -4.05888E-01 -5.05129E-01 -5.21264E-01 -5.05045E-01 -5.24215E-01 -5.96539E-01 -6.99769E-01 -7.55377E-01 -6.83267E-01 -5.66146E-01
  -4.81271E-01 -4.25610E-01 -3.73490E-01 -3.21090E-01 -2.30025E-01 -1.33649E-01 -4.94610E-02 -6.23426E-03  2.36347E-02  4.68199E-02
   6.59913E-02  8.25907E-02  9.68494E-02  1.08859E-01  1.18786E-01  1.26848E-01  1.31324E-01  1.27745E-01  1.14587E-01  2.34721E-01
   3.67116E-01  4.16441E-01  4.00544E-01  3.96007E-01  4.36398E-01  5.04127E-01  5.34153E-01  4.61590E-01  2.53544E-01 -2.29526E-03
  -1.62957E-01 -2.10977E-01 -2.69971E-01 -3.39823E-01 -4.06756E-01 -4.70717E-01 -4.64432E-01 -4.11755E-01 -3.31244E-01 -2.88352E-01
  -2.62453E-01 -2.42533E-01 -2.23510E-01 -2.07950E-01 -1.97248E-01 -1.90780E-01 -1.85340E-01 -1.80239E-01 -1.72919E-01 -1.65767E-01
  -1.59979E-01 -1.54604E-01 -1.48617E-01 -1.41553E-01 -1.33755E-01 -1.24038E-01 -1.14088E-01 -1.05147E-01 -9.80038E-02 -9.05884E-02
  -8.08968E-02 -7.01816E-02 -6.08758E-02 -5.46285E-02 -5.12603E-02 -4.84474E-02 -4.44114E-02 -3.98290E-02 -3.71847E-02 -3.79196E-02
  -4.03355E-02 -4.19114E-02 -4.24440E-02 -4.23870E-02 -4.19763E-02 -4.32668E-02 -5.39684E-02 -6.33113E-02 -5.50677E-02 -3.87637E-02
  -3.46397E-02 -4.06641E-02 -3.63141E-02 -8.26973E-03  3.54442E-02  8.15343E-02  1.16212E-01  1.32857E-01  1.43512E-01  1.67371E-01
   1.96593E-01  2.06976E-01  1.90765E-01  1.56871E-01  1.19603E-01  8.70744E-02  6.07099E-02  3.55402E-02  6.46342E-03 -2.42846E-02
  -4.72312E-02 -6.36426E-02 -7.33514E-02 -7.93913E-02 -8.25538E-02 -8.41577E-02 -8.57449E-02 -9.03348E-02 -1.01532E-01 -1.04365E-01
  -1.02093E-01 -1.03275E-01 -1.12395E-01 -1.18742E-01 -1.13772E-01 -1.10914E-01 -1.03110E-01 -8.14052E-02 -6.28302E-02 -4.25838E-02
  -2.55706E-02 -7.37269E-04  1.91975E-02  3.61057E-02  5.55471E-02  7.46030E-02  8.78635E-02  9.71837E-02  1.14171E-01  1.29384E-01
   1.41241E-01  1.50299E-01  1.51217E-01  1.43851E-01  1.26704E-01  1.04717E-01  7.07565E-02  2.49790E-02 -2.08938E-02 -6.95043E-02
  -1.07916E-01 -1.38373E-01 -1.59120E-01 -1.65883E-01 -1.54353E-01 -1.19039E-01 -6.40716E-02 -1.28016E-03  5.72401E-02  1.08235E-01
   1.45170E-01  1.72320E-01  1.92773E-01  2.02376E-01  2.02607E-01  1.94209E-01  1.81794E-01  1.69495E-01  1.58722E-01  1.52483E-01
   1.49002E-01  1.46746E-01  1.45807E-01  1.44586E-01  1.41898E-01  1.38551E-01  1.34927E-01  1.30219E-01  1.27418E-01  1.22845E-01
   1.16549E-01  1.05508E-01  9.11092E-02  7.07588E-02  4.57895E-02  1.37992E-02 -2.73546E-02 -7.60540E-02 -1.30327E-01 -1.81947E-01
  -2.26497E-01 -2.60974E-01 -2.80814E-01 -2.87179E-01 -2.74366E-01 -2.49684E-01 -2.08659E-01 -1.61306E-01 -1.09718E-01 -7.02240E-02
  -4.45593E-02 -2.81169E-02 -8.42756E-03  1.15369E-01  1.58164E-01  6.74665E-02 -6.45159E-02 -1.46575E-01 -1.69676E-01 -1.94036E-01
  -2.90212E-01 -4.83256E-01 -7.28223E-01 -8.87888E-01 -8.66599E-01 -7.40496E-01 -6.68243E-01 -6.11731E-01 -5.51030E-01 -4.76032E-01
  -3.37511E-01 -1.93861E-01 -7.33916E-02 -2.50589E-02 -6.51032E-04  1.47013E-02  2.54874E-02  3.25993E-02  3.65073E-02  3.79024E-02
   3.73188E-02  3.49564E-02  3.14035E-02  2.70775E-02  2.23982E-02  1.85058E-02  1.63836E-02  1.55288E-02  1.63610E-02  1.80416E-02
   2.08933E-02  2.50180E-02  3.00800E-02  3.57245E-02  4.09895E-02  4.56917E-02  4.97887E-02  5.39403E-02  5.79394E-02  6.16711E-02
   6.46440E-02  6.70862E-02  6.92395E-02  7.15582E-02  7.40528E-02  7.65637E-02  7.88549E-02  8.08261E-02  8.25937E-02  8.46574E-02
   8.70048E-02  8.95944E-02  9.19393E-02  9.37793E-02  9.47560E-02  9.53705E-02  9.55834E-02  9.52000E-02  9.40982E-02  9.22193E-02
   8.96537E-02  8.61729E-02  8.21349E-02  7.75451E-02  7.24704E-02  6.71134E-02  6.17262E-02  5.63442E-02  5.08828E-02  4.53851E-02
   4.01260E-02  3.51620E-02  3.05874E-02  2.65545E-02  2.28248E-02  1.89936E-02  1.54608E-02  1.21865E-02  9.14046E-03  6.35193E-03
   3.84338E-03  1.44326E-03 -5.10664E-04 -1.58434E-03 -1.88104E-03 -1.78054E-03 -1.53425E-03 -7.15377E-04  9.18619E-04  3.36023E-03
   6.26386E-03  9.02881E-03  1.12408E-02  1.34650E-02  1.63574E-02  2.00620E-02  2.43095E-02  2.86626E-02  3.29929E-02  3.78674E-02
   4.37889E-02  5.09719E-02  5.90990E-02  6.76830E-02  7.64801E-02  8.56296E-02  9.50173E-02  1.04639E-01  1.14095E-01  1.22891E-01
   1.30645E-01  1.36937E-01  1.41759E-01  1.45334E-01  1.47664E-01  1.48584E-01  1.47964E-01  1.45285E-01  1.40826E-01  1.35231E-01
   1.28946E-01  1.21984E-01  1.14328E-01  1.06026E-01  9.74835E-02  8.89562E-02  8.07134E-02  7.27590E-02  6.52442E-02  5.80759E-02
   5.15166E-02  4.55541E-02  4.01785E-02  3.53976E-02  3.12544E-02  2.82813E-02  2.64955E-02  2.58020E-02  2.59253E-02  2.69646E-02
   2.86935E-02  3.09310E-02  3.40427E-02  3.79306E-02  4.19929E-02  4.59332E-02  4.93786E-02  5.26534E-02  5.58789E-02  5.90162E-02
   6.18643E-02  6.40622E-02  6.55296E-02  6.63539E-02  6.66968E-02  6.64681E-02  6.57375E-02  6.44612E-02  6.27100E-02  6.06512E-02
   5.80956E-02  5.52530E-02  5.24567E-02  4.96210E-02  4.67027E-02  4.37123E-02  4.08388E-02  3.80357E-02  3.53022E-02  3.27529E-02
   3.03279E-02  2.80051E-02  2.57116E-02  2.35643E-02  2.08824E-02  1.74709E-02  1.34962E-02  9.06293E-03  3.80948E-03 -2.58725E-03
  -1.03706E-02 -1.95535E-02 -3.02183E-02 -4.22770E-02 -5.50797E-02 -6.81409E-02 -8.15767E-02 -9.52146E-02 -1.08647E-01 -1.21316E-01
  -1.32547E-01 -1.41923E-01 -1.49142E-01 -1.54599E-01 -1.58607E-01 -1.60726E-01 -1.60759E-01 -1.59056E-01 -1.56101E-01 -1.52270E-01
  -1.47745E-01 -1.42728E-01 -1.36846E-01 -1.30297E-01 -1.23372E-01 -1.16072E-01 -1.08151E-01 -9.97861E-02 -9.13865E-02 -8.30352E-02
  -7.42718E-02 -6.52952E-02 -5.66167E-02 -4.82503E-02 -4.02695E-02 -3.28667E-02 -2.56761E-02 -1.86722E-02 -1.22011E-02 -6.45258E-03
  -1.29568E-03  3.59597E-03  7.97902E-03  1.17693E-02  1.50746E-02  1.78904E-02  2.01549E-02  2.23301E-02  2.43800E-02  2.59652E-02
   2.73333E-02  2.87526E-02  3.02632E-02  3.18465E-02  3.34915E-02  3.49601E-02  3.61547E-02  3.71647E-02  3.80614E-02  3.87419E-02
   3.90564E-02  3.94080E-02  4.01167E-02  4.04990E-02  4.03101E-02  4.00691E-02  4.00306E-02  4.03532E-02  4.07029E-02  4.09052E-02
   4.08443E-02  4.02985E-02  3.95809E-02  3.91560E-02  3.90709E-02  3.89305E-02  3.86758E-02  3.82700E-02  3.76638E-02  3.70949E-02
   3.69190E-02  3.70613E-02  3.73300E-02  3.76135E-02  3.82668E-02  3.88910E-02  3.95463E-02  4.02794E-02  4.11226E-02  4.19484E-02
   4.27366E-02  4.34644E-02  4.40651E-02  4.42135E-02  4.39451E-02  4.39077E-02  4.42414E-02  4.49903E-02  4.60428E-02  4.68819E-02
   4.73301E-02  4.77825E-02  4.87954E-02  5.06057E-02  5.24916E-02  5.37558E-02  5.43142E-02  5.44766E-02  5.48453E-02  5.59005E-02
   5.67797E-02  5.70057E-02  5.69317E-02  5.69201E-02  5.72079E-02  5.76984E-02  5.81991E-02  5.86832E-02  5.90658E-02  5.94653E-02
   6.00379E-02  6.08176E-02  6.15928E-02  6.25948E-02  6.36686E-02  6.48840E-02  6.60861E-02  6.75657E-02  6.95441E-02  7.19548E-02
   7.45339E-02  7.70265E-02  7.94377E-02  8.17786E-02
 NY background values follow
     6.614E-02    6.598E-02    6.582E-02    6.565E-02    6.549E-02    6.532E-02    6.516E-02    6.500E-02    6.483E-02    6.467E-02
     6.450E-02    6.434E-02    6.417E-02    6.401E-02    6.385E-02    6.368E-02    6.352E-02    6.335E-02    6.319E-02    6.302E-02
     6.286E-02    6.269E-02    6.253E-02    6.236E-02    6.220E-02    6.204E-02    6.187E-02    6.171E-02    6.154E-02    6.138E-02
     6.121E-02    6.105E-02    6.088E-02    6.072E-02    6.055E-02    6.039E-02    6.022E-02    6.006E-02    5.989E-02    5.973E-02
     5.956E-02    5.940E-02    5.923E-02    5.907E-02    5.890E-02    5.874E-02    5.857E-02    5.841E-02    5.824E-02    5.808E-02
     5.791E-02    5.775E-02    5.758E-02    5.741E-02    5.725E-02    5.708E-02    5.692E-02    5.675E-02    5.659E-02    5.642E-02
     5.626E-02    5.609E-02    5.593E-02    5.576E-02    5.559E-02    5.543E-02    5.526E-02    5.510E-02    5.493E-02    5.477E-02
