 LCModel (Version 6.3-1N) Copyright: S.W. Provencher.          Ref.: Magn. Reson. Med. 30:672-679 (1993).                
 Slice_N1@25_19  02-Jun-2023 14:37:56
 27 lines in following concentration table = NCONC+1
    Conc.  %SD /Cr+PCr  Metabolite                                         
 1.61E-06  18% 8.1E-04 Mac                                                 
 6.13E-03 125%   3.081 Cr                                                  
 9.79E-03  84%   4.919 PCr                                                 
 2.14E-02  43%  10.752 Ins                                                 
 2.55E-02  25%  12.804 NAA                                                 
 1.10E-02  71%   5.517 Tau                                                 
    0.000 999%   0.000 PCho                                                
 5.99E-03  42%   3.009 GPC                                                 
 3.71E-02  25%  18.623 Glu                                                 
 1.02E-03 469%   0.510 Gln                                                 
 1.60E-02  43%   8.043 Ala                                                 
 2.54E-03 398%   1.277 Asc                                                 
 2.90E-03  34%   1.459 Asp                                                 
 1.82E-03  33%   0.914 GABA                                                
 1.80E-03  33%   0.905 Glc                                                 
 4.08E-04 470%   0.205 GSH                                                 
    0.000 999%   0.000 Lac                                                 
    0.000 999%   0.000 NAAG                                                
    0.000 999%   0.000 PE                                                  
 5.99E-03  42%   3.009 GPC+PCho                                            
 2.55E-02  25%  12.804 NAA+NAAG                                            
 3.81E-02  27%  19.133 Glu+Gln                                             
 1.59E-02  35%   8.000 Cr+PCr                                              
 2.55E-02  25%  12.804 NAA+NAAG                                            
 1.59E-02  35%   8.000 Cr+PCr                                              
 3.81E-02  27%  19.133 Glu+Gln                                             
   6 lines in following misc. output table
  FWHM = 0.093 ppm    S/N =   1                                            
  Data shift = 0.017 ppm                                                   
  Ph:  98 deg     -11.8 deg/ppm                                            
  alphaB,S = 7.5E+00,   6.8E+01                                            
   14 spline knots.   Ns =11(2)                                            
  ( 4) 3 infls.   ( 2) 2 extrs.                                            
  654 points on ppm-axis = NY
      4.000000     3.994181     3.988363     3.982544     3.976726     3.970907     3.965088     3.959270     3.953451     3.947633
      3.941814     3.935995     3.930177     3.924358     3.918540     3.912721     3.906902     3.901084     3.895265     3.889446
      3.883628     3.877809     3.871991     3.866172     3.860353     3.854535     3.848716     3.842898     3.837079     3.831260
      3.825442     3.819623     3.813805     3.807986     3.802167     3.796349     3.790530     3.784712     3.778893     3.773074
      3.767256     3.761437     3.755619     3.749800     3.743981     3.738163     3.732344     3.726526     3.720707     3.714888
      3.709070     3.703251     3.697433     3.691614     3.685795     3.679977     3.674158     3.668339     3.662521     3.656702
      3.650884     3.645065     3.639246     3.633428     3.627609     3.621791     3.615972     3.610153     3.604335     3.598516
      3.592698     3.586879     3.581060     3.575242     3.569423     3.563605     3.557786     3.551967     3.546149     3.540330
      3.534512     3.528693     3.522874     3.517056     3.511237     3.505419     3.499600     3.493781     3.487963     3.482144
      3.476326     3.470507     3.464688     3.458870     3.453051     3.447232     3.441414     3.435595     3.429777     3.423958
      3.418139     3.412321     3.406502     3.400684     3.394865     3.389046     3.383228     3.377409     3.371591     3.365772
      3.359953     3.354135     3.348316     3.342498     3.336679     3.330860     3.325042     3.319223     3.313405     3.307586
      3.301767     3.295949     3.290130     3.284312     3.278493     3.272674     3.266856     3.261037     3.255219     3.249400
      3.243581     3.237763     3.231944     3.226125     3.220307     3.214488     3.208670     3.202851     3.197032     3.191214
      3.185395     3.179577     3.173758     3.167939     3.162121     3.156302     3.150484     3.144665     3.138846     3.133028
      3.127209     3.121391     3.115572     3.109753     3.103935     3.098116     3.092298     3.086479     3.080660     3.074842
      3.069023     3.063205     3.057386     3.051567     3.045749     3.039930     3.034111     3.028293     3.022474     3.016656
      3.010837     3.005018     2.999200     2.993381     2.987563     2.981744     2.975925     2.970107     2.964288     2.958470
      2.952651     2.946832     2.941014     2.935195     2.929377     2.923558     2.917739     2.911921     2.906102     2.900284
      2.894465     2.888646     2.882828     2.877009     2.871191     2.865372     2.859553     2.853735     2.847916     2.842098
      2.836279     2.830460     2.824642     2.818823     2.813004     2.807186     2.801367     2.795549     2.789730     2.783911
      2.778093     2.772274     2.766456     2.760637     2.754818     2.749000     2.743181     2.737363     2.731544     2.725725
      2.719907     2.714088     2.708270     2.702451     2.696632     2.690814     2.684995     2.679177     2.673358     2.667539
      2.661721     2.655902     2.650084     2.644265     2.638446     2.632628     2.626809     2.620991     2.615172     2.609353
      2.603535     2.597716     2.591897     2.586079     2.580260     2.574442     2.568623     2.562804     2.556986     2.551167
      2.545349     2.539530     2.533711     2.527893     2.522074     2.516256     2.510437     2.504618     2.498800     2.492981
      2.487163     2.481344     2.475525     2.469707     2.463888     2.458070     2.452251     2.446432     2.440614     2.434795
      2.428977     2.423158     2.417339     2.411521     2.405702     2.399884     2.394065     2.388246     2.382428     2.376609
      2.370790     2.364972     2.359153     2.353335     2.347516     2.341697     2.335879     2.330060     2.324242     2.318423
      2.312604     2.306786     2.300967     2.295149     2.289330     2.283511     2.277693     2.271874     2.266056     2.260237
      2.254418     2.248600     2.242781     2.236963     2.231144     2.225325     2.219507     2.213688     2.207870     2.202051
      2.196232     2.190414     2.184595     2.178777     2.172958     2.167139     2.161321     2.155502     2.149683     2.143865
      2.138046     2.132228     2.126409     2.120590     2.114772     2.108953     2.103135     2.097316     2.091497     2.085679
      2.079860     2.074042     2.068223     2.062404     2.056586     2.050767     2.044949     2.039130     2.033311     2.027493
      2.021674     2.015856     2.010037     2.004218     1.998400     1.992581     1.986763     1.980944     1.975126     1.969307
      1.963489     1.957670     1.951852     1.946033     1.940215     1.934397     1.928578     1.922760     1.916941     1.911123
      1.905304     1.899486     1.893667     1.887849     1.882030     1.876212     1.870393     1.864575     1.858756     1.852938
      1.847119     1.841301     1.835482     1.829664     1.823845     1.818027     1.812208     1.806390     1.800571     1.794753
      1.788934     1.783116     1.777297     1.771479     1.765660     1.759842     1.754023     1.748205     1.742386     1.736568
      1.730749     1.724931     1.719113     1.713294     1.707476     1.701657     1.695839     1.690020     1.684202     1.678383
      1.672565     1.666746     1.660928     1.655109     1.649291     1.643472     1.637654     1.631835     1.626017     1.620198
      1.614380     1.608561     1.602743     1.596924     1.591106     1.585287     1.579469     1.573650     1.567832     1.562013
      1.556195     1.550376     1.544558     1.538739     1.532921     1.527102     1.521284     1.515465     1.509647     1.503829
      1.498010     1.492192     1.486373     1.480555     1.474736     1.468918     1.463099     1.457281     1.451462     1.445644
      1.439825     1.434007     1.428188     1.422370     1.416551     1.410733     1.404914     1.399096     1.393277     1.387459
      1.381640     1.375822     1.370003     1.364185     1.358366     1.352548     1.346729     1.340911     1.335092     1.329274
      1.323455     1.317637     1.311818     1.306000     1.300182     1.294363     1.288545     1.282726     1.276908     1.271089
      1.265271     1.259452     1.253634     1.247815     1.241997     1.236178     1.230360     1.224541     1.218723     1.212904
      1.207086     1.201267     1.195449     1.189630     1.183812     1.177993     1.172175     1.166356     1.160538     1.154719
      1.148901     1.143082     1.137264     1.131445     1.125627     1.119808     1.113990     1.108171     1.102353     1.096534
      1.090716     1.084898     1.079079     1.073261     1.067442     1.061624     1.055805     1.049987     1.044168     1.038350
      1.032531     1.026713     1.020894     1.015076     1.009257     1.003439     0.997620     0.991802     0.985983     0.980165
      0.974346     0.968528     0.962709     0.956891     0.951072     0.945254     0.939435     0.933617     0.927798     0.921980
      0.916161     0.910343     0.904524     0.898706     0.892887     0.887069     0.881251     0.875432     0.869614     0.863795
      0.857977     0.852158     0.846340     0.840521     0.834703     0.828884     0.823066     0.817247     0.811429     0.805610
      0.799792     0.793973     0.788155     0.782336     0.776518     0.770699     0.764881     0.759062     0.753244     0.747425
      0.741607     0.735788     0.729970     0.724151     0.718333     0.712514     0.706696     0.700877     0.695059     0.689240
      0.683422     0.677603     0.671785     0.665967     0.660148     0.654330     0.648511     0.642693     0.636874     0.631056
      0.625237     0.619419     0.613600     0.607782     0.601963     0.596145     0.590326     0.584508     0.578689     0.572871
      0.567052     0.561234     0.555415     0.549597     0.543778     0.537960     0.532141     0.526323     0.520504     0.514686
      0.508867     0.503049     0.497230     0.491412     0.485593     0.479775     0.473956     0.468138     0.462319     0.456501
      0.450682     0.444864     0.439045     0.433227     0.427408     0.421590     0.415771     0.409953     0.404134     0.398316
      0.392497     0.386679     0.380860     0.375042     0.369223     0.363405     0.357586     0.351767     0.345949     0.340130
      0.334312     0.328493     0.322675     0.316856     0.311038     0.305219     0.299401     0.293582     0.287764     0.281945
      0.276127     0.270308     0.264490     0.258671     0.252853     0.247034     0.241216     0.235397     0.229579     0.223760
      0.217942     0.212123     0.206305     0.200486
 NY phased data points follow
  -4.23011E-01 -1.45514E-01  1.26107E-01  1.86552E-01 -9.86743E-02 -2.37000E-01 -1.25296E-01  1.78288E-01  3.42537E-01  6.02367E-02
  -1.09953E-01  1.86169E-01 -2.08701E-01  4.03881E-01  2.30446E-01 -1.52261E-01  2.00586E-01  5.85244E-02  1.05391E-01 -8.80459E-02
   5.35556E-01 -5.51979E-02  4.94240E-02  4.87657E-01  8.80184E-02  3.36017E-01 -3.32384E-02 -5.38706E-02  1.50210E-01  1.77585E-01
  -4.32767E-02  1.23033E-01 -1.98823E-01 -1.38615E-01  2.28198E-01 -4.80712E-01 -5.41935E-01 -4.18748E-01 -3.65342E-01  5.31277E-02
   2.88494E-02 -2.46771E-01 -1.45973E-01  2.03530E-02  1.58986E-01  9.41751E-02  1.55182E-01 -1.43453E-01  5.40980E-04  3.74209E-01
   2.33318E-01  4.90021E-02 -1.09884E-01  2.43591E-01  1.19664E-01 -1.87574E-01 -4.21496E-01 -2.07504E-01  1.19925E-01  6.89523E-02
   2.70150E-02 -8.29015E-02 -1.90474E-01 -1.89650E-02 -2.30850E-02 -5.39213E-03  1.23559E-01 -7.73316E-02  9.74752E-02 -2.78733E-01
   1.49041E-02  6.47268E-02  5.53447E-02  4.35384E-01  1.09433E-02  2.99661E-02  1.69430E-01  1.98724E-01  1.32590E-01  2.33342E-01
  -4.17959E-01 -2.06954E-01 -4.31902E-02 -2.57037E-01  3.91938E-02 -1.26816E-01 -9.41888E-02 -4.87094E-01  1.21259E-01  5.12901E-01
   6.90418E-02 -1.45792E-01  1.57366E-01  1.48474E-01 -6.02360E-03  1.43245E-01 -1.74143E-01  7.07096E-02 -1.37595E-01 -2.03153E-02
   8.89219E-02 -1.58633E-01  1.73608E-01  1.19578E-01  2.89331E-02  7.08515E-02 -4.62464E-02 -9.51170E-02  1.76260E-01  3.10133E-02
  -5.37986E-02 -2.00634E-02 -1.37993E-02  1.96353E-01  1.34886E-01  5.96582E-01  5.93362E-01  2.90359E-01  3.41179E-01  1.15535E-01
   3.73382E-02  2.42433E-01  7.75366E-01  3.61861E-01  1.01412E-02  4.51628E-02 -6.02246E-02  7.84282E-02  6.25873E-02  2.58451E-01
  -1.48900E-02 -6.58013E-02  1.07096E-01 -6.75185E-02 -2.31870E-01 -3.12434E-01 -3.57706E-01 -1.09522E-01 -5.76159E-02 -3.78616E-01
  -2.65637E-01 -4.38260E-01 -4.03317E-01 -3.22620E-01 -4.42833E-01 -4.14005E-01 -2.22754E-01 -1.51229E-01 -3.15456E-01 -5.61627E-02
   1.78708E-01  1.73293E-01 -2.73796E-02 -4.91967E-02  1.13347E-01 -1.62325E-02 -1.52877E-01  6.68222E-02  4.04618E-01  4.85423E-01
   3.54529E-01  7.11746E-03  1.91062E-01  4.96715E-01  8.40796E-02  3.29054E-01  1.41245E-01 -4.17611E-02  6.77580E-01  2.20339E-01
   9.55312E-02  2.75411E-01 -1.36214E-01 -6.80214E-02 -2.46474E-01 -4.84715E-01 -2.00936E-01 -2.68126E-01 -3.76836E-01 -2.47807E-01
   7.90412E-02  5.09151E-02 -2.31073E-01  7.92658E-02  1.58336E-01 -2.68677E-01 -1.69795E-01 -9.38619E-02 -4.69938E-01  6.51943E-02
  -2.38101E-01 -5.17656E-02 -1.17628E-01 -7.26502E-01 -1.72705E-01 -3.93558E-01  1.16080E-01 -3.23039E-01 -4.99320E-01 -3.12155E-02
  -1.10602E-01 -3.18364E-02 -2.61343E-01 -8.68808E-02 -1.16844E-01 -1.24687E-01 -2.37767E-01 -1.07348E-02 -1.85578E-01 -4.22134E-01
   7.66661E-03 -1.64191E-01 -3.06073E-01  1.28203E-01  3.68061E-02 -3.43881E-02 -1.69849E-02 -3.62688E-02  8.78123E-02 -2.25165E-01
   7.24113E-02  1.43418E-01 -1.64955E-01  1.23711E-02  2.41633E-01  2.05336E-01  2.63754E-01 -9.31832E-02  1.73035E-01  3.14920E-01
  -9.42131E-02  2.34115E-01  2.95496E-01  2.38136E-01 -2.59689E-02  5.33637E-02 -1.95121E-01  1.50012E-01  2.68125E-01 -7.23694E-02
   1.69934E-01  1.40986E-01 -3.17800E-02 -1.34642E-01  1.33332E-01 -1.80398E-01 -1.51820E-01 -2.29245E-02 -1.22449E-01 -8.88760E-02
   1.92709E-01 -1.05042E-01  4.71572E-02  1.21610E-01  9.67174E-02  4.42537E-01 -5.29120E-03  1.03477E-01 -2.24446E-01  5.64322E-02
   7.18621E-02  1.72834E-01 -3.07250E-03 -1.54094E-01  3.23132E-01 -7.95654E-02  1.67809E-01  1.71269E-02 -1.79073E-01 -1.31859E-01
  -2.26525E-01 -1.42332E-01  3.21797E-01  1.64392E-04 -2.03057E-01  1.38192E-01 -2.92398E-02 -8.16001E-02  9.63980E-02 -2.81579E-02
  -8.51408E-02 -3.36984E-02 -3.77854E-02  3.38513E-01 -4.01373E-01 -4.09454E-01 -1.69580E-01 -4.16129E-01 -2.52510E-01 -2.05614E-02
  -4.02241E-02  1.80595E-01  3.08661E-01  1.54141E-01  3.04513E-01 -3.73760E-01  8.86742E-02  2.05349E-01  1.61909E-01  1.59067E-01
  -4.56985E-02  2.21601E-01  1.26344E-01  3.16968E-01  3.07149E-01  4.29263E-01  4.24466E-01  4.80675E-01  5.15057E-01  4.92027E-01
   3.67773E-01  5.21849E-01  4.08393E-01  4.21810E-01  2.51070E-01 -6.89902E-02  1.31352E-01  7.94935E-02  2.38107E-01  1.00296E-01
   3.03072E-01  2.58418E-01  2.73059E-01  9.12124E-02 -6.73122E-02 -8.29309E-02 -1.91027E-01  2.04673E-01  9.80491E-02 -4.03875E-01
  -4.57905E-01 -5.17259E-02 -3.13497E-01 -2.89899E-01 -1.32657E-01 -7.97770E-02 -5.99877E-02 -3.55428E-01 -4.72899E-01 -5.41880E-01
  -5.51428E-01 -2.90638E-01 -1.83486E-01 -1.87459E-03 -2.40731E-01 -5.77790E-01 -2.19346E-01 -4.57107E-01 -4.23925E-01 -4.23048E-01
  -4.37998E-01 -1.69321E-01  2.11579E-01 -1.10121E-02 -1.51442E-01 -2.97176E-01 -5.42606E-01  3.55125E-02  8.78148E-02  7.82616E-02
  -1.72980E-01 -1.55755E-01 -1.59977E-01  5.97408E-02 -6.81167E-02  1.96845E-01 -3.13627E-03 -2.04933E-01  4.80765E-01 -3.43448E-01
   9.34981E-02  1.00891E-02 -2.64401E-01  7.65797E-02  4.89621E-02 -5.62473E-02  1.67995E-02  3.57508E-01  6.73720E-02  3.51576E-01
   3.34319E-01 -5.10787E-02 -1.81866E-01  2.04257E-01  1.61730E-02 -3.27162E-01  2.28328E-01  5.49707E-02 -2.57238E-01  1.47639E-01
   7.16985E-02  2.42645E-01  5.70311E-01  2.89421E-01  1.58233E-01  2.55271E-01  3.46483E-01 -1.37162E-02  1.21889E-01 -1.97323E-03
  -9.81313E-02  2.92238E-01  2.12419E-01  1.17883E-01  3.97387E-01  4.01833E-01  3.53481E-02 -1.36151E-01 -3.78108E-02  1.80654E-01
   2.13329E-01  2.94984E-01  7.63742E-02  1.42380E-01 -6.08737E-02  4.34842E-02 -2.86415E-01 -2.95539E-01 -4.71972E-02 -6.77995E-01
  -6.78402E-02 -2.53358E-01 -2.30829E-01 -4.19605E-01 -4.22824E-01  1.98583E-03 -2.42794E-01  5.96078E-02 -6.53200E-02 -1.89319E-01
   3.11762E-01  7.47694E-01 -1.84997E-01 -2.07519E-01 -2.93424E-02 -4.34333E-01 -2.64988E-03  1.71718E-01  2.00461E-01  5.55234E-02
   1.92228E-01  3.51277E-01 -5.64984E-02 -2.69934E-02  3.06027E-01 -1.87229E-01  1.12080E-01  2.81378E-01 -2.62913E-01 -9.48393E-02
   1.16651E-01  2.03300E-01  9.09939E-02  2.04795E-01 -1.68662E-01 -9.69376E-02  3.76130E-02 -1.57459E-01  1.94412E-01  7.07800E-02
   1.52924E-01 -1.68511E-01 -1.76813E-01  6.11997E-02 -2.38513E-01 -3.11280E-01 -1.16556E-01  4.23984E-02 -1.66668E-01  4.17432E-02
  -6.56579E-03 -6.66470E-02 -9.07890E-02 -8.77302E-02 -3.62733E-01 -3.80821E-01  1.03991E-01 -3.13567E-01 -1.19678E-01 -2.83766E-02
  -1.57681E-01 -1.52779E-01 -2.25686E-01 -1.31591E-01  9.25019E-02  1.17663E-01 -1.10249E-01  2.83538E-02 -1.88318E-01  2.54237E-01
   2.53481E-01 -1.16707E-03  2.83129E-01 -1.33249E-01 -7.24729E-02  3.00036E-01  2.21613E-01  2.04712E-01  2.06237E-01 -1.06463E-02
  -1.47576E-02 -9.07301E-02  6.02130E-02  3.33624E-01  3.70861E-01  6.86036E-02 -2.23122E-01  1.23323E-01  3.89930E-01  5.06620E-02
  -6.73190E-03  5.03071E-01  7.13118E-02  8.37300E-02  2.98001E-01 -8.56834E-02  1.02963E-01 -4.89847E-02 -2.22714E-01 -2.20838E-02
  -2.35053E-02 -3.28334E-01 -2.48337E-01 -9.58067E-02 -2.26467E-01 -4.97446E-01 -8.95253E-02  1.35748E-01 -4.52758E-01 -1.48768E-01
  -3.33728E-01 -4.81485E-01 -3.10334E-01 -1.62959E-01 -2.35313E-01 -5.19644E-01 -6.83156E-02 -3.48696E-01 -3.52632E-01 -2.83507E-01
  -1.75446E-01 -1.37287E-01 -3.28998E-01  1.72520E-02 -2.64296E-02  1.25598E-01 -9.01966E-02 -2.03256E-02  4.80622E-02 -7.29620E-02
   3.45223E-01  3.69331E-01  3.40354E-01  3.05110E-02 -5.65593E-02  1.44459E-01  4.18828E-01  2.49531E-01 -1.32498E-01  1.58889E-01
   2.22530E-01  2.95418E-01  1.79446E-01  1.74319E-01  3.54406E-01  2.01000E-01 -1.25311E-02  8.25556E-02  1.75946E-01 -6.00726E-02
   2.34268E-01 -3.71781E-01 -3.86157E-01  3.43169E-01  1.44306E-01  1.23900E-01  1.04908E-01  3.19917E-01 -7.14313E-02  2.09028E-01
   3.77287E-01 -1.97115E-01  1.62557E-01  3.85031E-01  1.93789E-01 -9.93116E-03  2.81282E-01 -1.36492E-03 -3.31256E-01 -2.56842E-02
   3.88767E-01 -1.49116E-01 -3.07169E-01  4.38828E-01 -9.61466E-02  2.78114E-01  2.17730E-01 -3.70326E-01  2.83284E-01  1.68888E-01
   2.91382E-02  2.20601E-01 -3.50918E-02 -1.10115E-01  1.45467E-01  9.11159E-02 -1.58780E-01 -3.89671E-01 -1.14522E-01 -9.30287E-02
  -3.66816E-01  2.49310E-01  2.20304E-01 -3.40275E-01  9.79171E-02  5.52399E-01 -1.20446E-02  8.96140E-02  5.39223E-01 -4.19631E-02
   1.70575E-01  4.79947E-01 -6.71493E-02 -8.87202E-02  3.79821E-02 -1.16295E-01  1.31850E-02 -1.11732E-01 -2.04127E-01  2.47836E-02
  -1.07853E-01  6.05103E-02  4.80252E-01 -1.51717E-02 -4.62155E-01  8.92914E-02  2.76781E-01  1.00227E-01  1.76156E-01 -4.91881E-02
  -4.30481E-01  2.54140E-01  5.55752E-01  6.11479E-02  5.79053E-02 -2.91262E-01 -9.27563E-02  2.30840E-01  1.45874E-02  2.51670E-01
   1.56487E-01 -2.60448E-01  3.18716E-01  1.02463E-01
 NY points of the fit to the data follow
   3.19130E-02  5.04225E-02  3.02089E-02  4.96495E-02  3.87819E-02  5.73888E-02  5.81792E-02  7.36561E-02  8.67806E-02  9.69645E-02
   1.21261E-01  1.24999E-01  1.59278E-01  1.56127E-01  1.98353E-01  1.88410E-01  2.33686E-01  2.17313E-01  2.56942E-01  2.35310E-01
   2.61694E-01  2.35720E-01  2.43785E-01  2.14248E-01  2.05789E-01  1.74059E-01  1.54280E-01  1.21874E-01  9.60278E-02  6.48044E-02
   3.79380E-02  9.35796E-03 -1.38803E-02 -3.83809E-02 -5.27599E-02 -7.24308E-02 -7.36205E-02 -9.11456E-02 -7.48149E-02 -9.33253E-02
  -6.06747E-02 -7.65680E-02 -3.37762E-02 -4.44471E-02  2.19553E-03 -8.83804E-03  3.95541E-02  2.30258E-02  6.73086E-02  4.45553E-02
   8.05758E-02  5.25169E-02  7.87808E-02  4.72894E-02  6.50282E-02  3.34383E-02  4.52696E-02  1.80516E-02  2.99056E-02  6.70939E-03
   1.59675E-02  8.02620E-04  3.62807E-03 -5.35596E-03 -9.06336E-03 -1.33659E-02 -2.15595E-02 -2.15647E-02 -3.14143E-02 -2.60665E-02
  -3.66053E-02 -2.59422E-02 -3.83835E-02 -2.41119E-02 -3.81669E-02 -2.20683E-02 -3.54506E-02 -1.85665E-02 -3.07723E-02 -1.34101E-02
  -2.58217E-02 -7.91878E-03 -2.03978E-02 -1.41686E-03 -1.18452E-02  8.57366E-03  1.12515E-03  1.94936E-02  1.52285E-02  2.77845E-02
   2.74203E-02  3.20545E-02  3.43488E-02  3.41560E-02  3.77147E-02  3.26569E-02  4.00541E-02  2.92158E-02  4.14193E-02  2.53464E-02
   4.31681E-02  2.48417E-02  4.53499E-02  2.82074E-02  5.11729E-02  3.45199E-02  6.17988E-02  4.58399E-02  8.29813E-02  6.22154E-02
   1.08867E-01  8.19108E-02  1.34518E-01  1.15392E-01  1.68510E-01  1.54727E-01  2.00807E-01  1.88851E-01  2.21586E-01  2.09664E-01
   2.24097E-01  2.11627E-01  2.04478E-01  1.90242E-01  1.61567E-01  1.45817E-01  9.92051E-02  8.30488E-02  2.30212E-02  7.42521E-03
  -6.11883E-02 -7.48201E-02 -1.45593E-01 -1.56061E-01 -2.21615E-01 -2.29896E-01 -2.83132E-01 -2.91305E-01 -3.27102E-01 -3.34830E-01
  -3.51517E-01 -3.56024E-01 -3.55804E-01 -3.55510E-01 -3.45039E-01 -3.25998E-01 -3.03286E-01 -2.68864E-01 -2.36180E-01 -1.93771E-01
  -1.53449E-01 -1.08163E-01 -6.51509E-02 -1.89400E-02  2.21274E-02  6.72657E-02  1.02334E-01  1.43347E-01  1.70484E-01  1.99400E-01
   2.18100E-01  2.23666E-01  2.35881E-01  2.23814E-01  2.30417E-01  2.02440E-01  2.03746E-01  1.62154E-01  1.58541E-01  1.05986E-01
   9.76310E-02  3.91357E-02  2.70980E-02 -3.03049E-02 -4.37955E-02 -9.36732E-02 -1.06153E-01 -1.44979E-01 -1.54627E-01 -1.82941E-01
  -1.89588E-01 -2.08384E-01 -2.11916E-01 -2.21939E-01 -2.22512E-01 -2.24729E-01 -2.22461E-01 -2.15848E-01 -2.10148E-01 -1.95845E-01
  -1.86724E-01 -1.69257E-01 -1.57852E-01 -1.46283E-01 -1.36359E-01 -1.26562E-01 -1.16812E-01 -1.08219E-01 -9.90618E-02 -9.14249E-02
  -8.34268E-02 -7.68014E-02 -7.06524E-02 -6.75898E-02 -6.27820E-02 -6.27081E-02 -5.82243E-02 -6.10455E-02 -5.91227E-02 -6.38059E-02
  -6.19597E-02 -6.68629E-02 -6.31466E-02 -6.67577E-02 -6.04461E-02 -6.17536E-02 -5.29370E-02 -5.10497E-02 -3.99792E-02 -3.43791E-02
  -2.20719E-02 -1.28774E-02 -6.36860E-04  1.16955E-02  2.26744E-02  3.73279E-02  4.57016E-02  6.15209E-02  6.59864E-02  8.14202E-02
   8.11773E-02  9.49878E-02  9.01147E-02  1.01386E-01  9.18133E-02  9.64401E-02  8.50425E-02  8.22712E-02  6.83856E-02  6.00415E-02
   4.39472E-02  3.32818E-02  1.44946E-02  4.18868E-03 -1.61976E-02 -2.42610E-02 -4.49889E-02 -4.93999E-02 -6.86510E-02 -6.81164E-02
  -8.46418E-02 -7.76765E-02 -9.08335E-02 -7.86359E-02 -8.69732E-02 -7.00707E-02 -7.19858E-02 -5.20203E-02 -4.94530E-02 -2.69049E-02
  -2.15914E-02  1.08834E-03  7.14705E-03  2.11109E-02  2.52708E-02  2.40692E-02  2.32608E-02  8.25615E-03  1.92528E-03 -2.28860E-02
  -3.39854E-02 -6.44604E-02 -7.82346E-02 -1.11042E-01 -1.24389E-01 -1.56814E-01 -1.66283E-01 -1.95896E-01 -1.98674E-01 -2.22691E-01
  -2.17162E-01 -2.32536E-01 -2.18568E-01 -2.22348E-01 -2.01402E-01 -1.94019E-01 -1.65880E-01 -1.48619E-01 -1.15632E-01 -9.09733E-02
  -5.56839E-02 -2.74517E-02  5.73865E-03  3.36702E-02  6.19216E-02  8.77748E-02  1.09681E-01  1.33973E-01  1.49335E-01  1.72807E-01
   1.82200E-01  2.03750E-01  2.07504E-01  2.23413E-01  2.21129E-01  2.26761E-01  2.18918E-01  2.12106E-01  2.01054E-01  1.85601E-01
   1.72857E-01  1.56964E-01  1.40966E-01  1.29898E-01  1.06709E-01  1.02831E-01  6.86259E-02  7.46103E-02  2.97317E-02  4.97131E-02
   1.37008E-02  3.89280E-02  7.07475E-03  2.90128E-02 -1.17260E-03  1.20394E-02 -1.56334E-02 -1.47460E-02 -3.77587E-02 -5.18873E-02
  -6.90589E-02 -9.90139E-02 -1.08791E-01 -1.53857E-01 -1.56275E-01 -2.13393E-01 -2.09055E-01 -2.72049E-01 -2.60660E-01 -3.21643E-01
  -3.03626E-01 -3.55014E-01 -3.33718E-01 -3.69502E-01 -3.48946E-01 -3.64892E-01 -3.45287E-01 -3.40634E-01 -3.19547E-01 -2.97399E-01
  -2.73449E-01 -2.39260E-01 -2.14233E-01 -1.73851E-01 -1.53151E-01 -1.10386E-01 -9.72293E-02 -5.50424E-02 -4.89346E-02 -1.04756E-02
  -7.99998E-03  2.40540E-02  2.74955E-02  5.02917E-02  5.46175E-02  6.68865E-02  6.76890E-02  7.12351E-02  6.25604E-02  6.63120E-02
   5.92006E-02  6.35268E-02  5.85944E-02  6.30353E-02  6.05232E-02  6.47845E-02  6.45893E-02  6.85208E-02  7.05039E-02  7.39908E-02
   7.78590E-02  8.08779E-02  8.62951E-02  8.87665E-02  9.50846E-02  9.70910E-02  1.03541E-01  1.05190E-01  1.10976E-01  1.12323E-01
   1.16725E-01  1.17788E-01  1.20310E-01  1.20886E-01  1.21211E-01  1.21071E-01  1.19027E-01  1.17943E-01  1.13465E-01  1.11324E-01
   1.04521E-01  1.01132E-01  9.23622E-02  8.76555E-02  7.72832E-02  7.12172E-02  5.96173E-02  5.21063E-02  3.96806E-02  3.06472E-02
   1.74315E-02  5.74069E-03 -1.16798E-02 -2.23839E-02 -4.40419E-02 -4.94207E-02 -6.93838E-02 -6.81966E-02 -8.35080E-02 -7.62686E-02
  -8.56768E-02 -7.34558E-02 -7.61730E-02 -6.06162E-02 -5.63853E-02 -3.94673E-02 -2.84198E-02 -1.21782E-02  5.56342E-03  1.88726E-02
   4.23879E-02  5.08449E-02  7.84010E-02  8.09262E-02  1.10844E-01  1.07179E-01  1.38195E-01  1.28253E-01  1.58448E-01  1.42895E-01
   1.69742E-01  1.50721E-01  1.72607E-01  1.53116E-01  1.69987E-01  1.52705E-01  1.65634E-01  1.51478E-01  1.61054E-01  1.49633E-01
   1.55336E-01  1.45918E-01  1.46978E-01  1.38933E-01  1.34731E-01  1.28382E-01  1.19369E-01  1.15163E-01  1.03578E-01  1.00826E-01
   8.94360E-02  8.45702E-02  7.26066E-02  6.48528E-02  5.07747E-02  4.18714E-02  2.74546E-02  1.86605E-02  5.26479E-03 -2.39720E-03
  -1.36232E-02 -1.94195E-02 -2.76620E-02 -3.11670E-02 -3.60015E-02 -3.70863E-02 -3.85388E-02 -3.72795E-02 -3.56310E-02 -3.23345E-02
  -2.81673E-02 -2.33304E-02 -1.74444E-02 -1.16995E-02 -4.92538E-03  1.12533E-03  7.91800E-03  1.37499E-02  1.98376E-02  2.50233E-02
   2.98867E-02  3.41941E-02  3.77005E-02  4.10215E-02  4.30932E-02  4.54626E-02  4.61579E-02  4.77721E-02  4.74164E-02  4.85313E-02
   4.75475E-02  4.82472E-02  4.70406E-02  4.72058E-02  4.59420E-02  4.53460E-02  4.38612E-02  4.22479E-02  4.00760E-02  3.68561E-02
   3.33479E-02  2.80842E-02  2.26485E-02  1.48692E-02  7.06275E-03 -3.32469E-03 -1.37383E-02 -2.65172E-02 -3.94253E-02 -5.40319E-02
  -6.90946E-02 -8.46505E-02 -1.01201E-01 -1.16736E-01 -1.33736E-01 -1.48179E-01 -1.64379E-01 -1.76757E-01 -1.90793E-01 -2.00213E-01
  -2.11023E-01 -2.16772E-01 -2.23413E-01 -2.25147E-01 -2.27022E-01 -2.24807E-01 -2.21764E-01 -2.15737E-01 -2.08167E-01 -1.98836E-01
  -1.87310E-01 -1.75423E-01 -1.60677E-01 -1.46981E-01 -1.30094E-01 -1.15338E-01 -9.74080E-02 -8.22461E-02 -6.43864E-02 -4.94168E-02
  -3.25477E-02 -1.84365E-02 -3.23511E-03  9.60031E-03  2.27583E-02  3.39772E-02  4.49498E-02  5.45437E-02  6.32985E-02  7.12480E-02
   7.79588E-02  8.43480E-02  8.92495E-02  9.40900E-02  9.74024E-02  1.00811E-01  1.02738E-01  1.04954E-01  1.06006E-01  1.07237E-01
   1.07538E-01  1.08058E-01  1.07803E-01  1.07831E-01  1.07112E-01  1.06823E-01  1.05846E-01  1.05241E-01  1.04136E-01  1.03096E-01
   1.01935E-01  1.00505E-01  9.93492E-02  9.76051E-02  9.64294E-02  9.44324E-02  9.33010E-02  9.12420E-02  9.00517E-02  8.81734E-02
   8.69752E-02  8.53851E-02  8.41468E-02  8.29644E-02  8.16044E-02  8.09154E-02  7.95270E-02  7.94179E-02  7.80773E-02  7.84610E-02
   7.71360E-02  7.79427E-02  7.66185E-02  7.78801E-02  7.67369E-02  7.82190E-02  7.73888E-02  7.88455E-02  7.83796E-02  7.97537E-02
   7.97116E-02  8.08876E-02  8.12686E-02  8.21377E-02  8.28514E-02  8.34751E-02  8.42607E-02  8.46633E-02  8.55320E-02  8.58008E-02
   8.64865E-02  8.67218E-02  8.70569E-02  8.72909E-02  8.71779E-02  8.72719E-02  8.67399E-02  8.66809E-02  8.57445E-02  8.55549E-02
   8.42746E-02  8.40555E-02  8.24913E-02  8.21732E-02  8.04599E-02  8.00017E-02  7.82408E-02  7.75901E-02  7.57636E-02  7.48543E-02
   7.29426E-02  7.16663E-02  6.94945E-02  6.78162E-02  6.50762E-02  6.29986E-02  5.94598E-02  5.67447E-02  5.22574E-02  4.83364E-02
   4.27030E-02  3.70125E-02  2.96951E-02  2.14875E-02
 NY background values follow
     4.695E-02    4.672E-02    4.650E-02    4.628E-02    4.606E-02    4.583E-02    4.561E-02    4.539E-02    4.516E-02    4.494E-02
     4.472E-02    4.449E-02    4.427E-02    4.404E-02    4.382E-02    4.360E-02    4.337E-02    4.315E-02    4.292E-02    4.270E-02
     4.247E-02    4.225E-02    4.202E-02    4.179E-02    4.157E-02    4.134E-02    4.112E-02    4.089E-02    4.067E-02    4.044E-02
     4.021E-02    3.999E-02    3.976E-02    3.953E-02    3.931E-02    3.908E-02    3.885E-02    3.863E-02    3.840E-02    3.817E-02
     3.794E-02    3.772E-02    3.749E-02    3.726E-02    3.703E-02    3.681E-02    3.658E-02    3.635E-02    3.612E-02    3.590E-02
     3.567E-02    3.544E-02    3.521E-02    3.498E-02    3.475E-02    3.453E-02    3.430E-02    3.407E-02    3.384E-02    3.361E-02
     3.338E-02    3.316E-02    3.293E-02    3.270E-02    3.247E-02    3.224E-02    3.201E-02    3.178E-02    3.155E-02    3.133E-02
