 
 $NMID
 ID=''
 FMTDAT='(2E13.5)'
 TRAMP=   1.00000E+0
 VOLUME=   1.00000E+0
 $END
   3.00123E+2  -3.63576E+2
  -1.87252E+2   1.68417E+3
   2.47888E+3  -2.26878E+3
   1.06221E+3   1.21038E+1
  -6.53383E+2  -1.62406E+2
   5.81926E+2  -1.65448E+3
  -2.32296E+3   1.97637E+3
  -7.11156E+2   7.89961E+2
   1.41201E+3  -1.32610E+3
   1.42429E+3  -1.07068E+3
   1.29933E+3   1.17266E+3
   2.81737E+3  -2.29610E+2
   2.65255E+3   2.64559E+3
  -1.10950E+3   1.93833E+3
  -5.95464E+2   4.29147E+2
   4.84950E+2  -1.87913E+3
   2.81936E+3  -2.54066E+3
   2.54261E+3  -8.45444E+2
   1.49191E+3   2.56529E+3
  -1.98384E+3  -1.71999E+3
   2.41058E+3  -5.35089E+1
   3.20293E+3   1.50102E+3
  -3.59413E+3   2.72887E+3
  -2.76001E+3  -8.68235E+2
   6.65212E+2  -1.55607E+3
   2.84150E+3   1.71243E+3
   1.01958E+3   1.20154E+3
  -7.03496E+2   3.12933E+2
  -8.21269E+2  -1.73721E+3
   9.98488E+2  -3.96723E+3
   6.07340E+3   9.70605E+2
   2.23227E+2   5.09302E+3
  -1.97331E+3   1.97056E+3
   8.98342E+2  -1.99389E+3
  -8.40772E+2   1.12016E+3
  -2.92693E+3   3.78811E+1
  -1.24498E+3  -5.30169E+3
   4.54466E+3  -3.07841E+3
   2.64118E+3  -9.06871E+2
   1.34645E+3  -1.20709E+3
   2.84487E+2   1.84216E+3
  -2.33668E+3   2.24343E+3
  -2.01453E+3  -1.98066E+3
   1.96737E+3  -5.04828E+3
   2.12352E+3  -1.28424E+3
   9.41039E+2  -2.33988E+2
   1.54463E+3  -8.98465E+2
   1.28314E+3   2.52844E+3
  -2.76341E+2   4.31947E+3
  -3.21376E+3  -5.86284E+2
  -2.43968E+3  -5.22190E+2
  -3.14453E+2  -2.56161E+3
   1.20146E+3  -2.18638E+3
   1.87522E+3  -2.24578E+2
  -3.72648E+3  -8.92218E+2
  -2.00559E+3   2.52346E+3
  -2.15927E+3  -2.33170E+2
  -4.29245E+3  -2.33452E+3
  -3.78427E+3  -3.61071E+3
  -6.67152E+2  -3.56070E+3
   2.05194E+3  -1.84349E+3
   4.07838E+3   8.07990E+1
  -7.73563E+2   3.98578E+3
  -8.92574E+2   1.53869E+3
   2.94731E+3  -6.19804E+2
   7.36662E+2   3.55148E+2
  -6.56007E+2   2.86777E+3
  -2.25129E+3   3.08818E+1
   2.69103E+2  -2.94399E+3
  -9.50240E+2   2.72504E+2
   6.55493E+1   2.23389E+2
  -2.92227E+3  -2.39035E+3
  -2.86343E+3  -1.90850E+3
  -6.41236E+2  -7.55171E+2
   3.54600E+2  -1.56625E+3
   8.03710E+2  -4.99483E+2
  -2.75277E+3   4.25571E+1
  -9.76219E+2  -1.98459E+3
  -2.34744E+2   1.90997E+2
  -1.43705E+2   1.11032E+3
  -1.39455E+3   7.18145E+2
  -1.00476E+3   7.86610E+2
  -9.43940E+1   1.66877E+3
  -2.76324E+3  -5.92779E+2
  -4.40242E+2  -7.75183E+2
  -2.20510E+3   1.57877E+2
   1.06195E+3  -4.64728E+3
   2.27810E+3  -2.09731E+3
   1.63093E+3  -7.42770E+2
  -2.35103E+2   7.31760E+2
  -8.82445E+2   3.69801E+2
   2.07538E+3   1.14311E+3
   6.85619E+2   1.35979E+3
  -3.17404E+3   1.82939E+3
  -2.12716E+3   1.02616E+3
   4.24283E+2  -2.13595E+3
   1.92065E+3  -1.26036E+3
  -2.09254E+3   1.87844E+3
  -1.18811E+3   6.05531E+2
  -4.57976E+2  -1.88389E+3
  -1.36657E+3  -1.64757E+3
   2.46147E+3   2.36621E+3
   1.05443E+3   3.19435E+3
  -2.38906E+3   1.34529E+3
  -1.51362E+3   9.57979E+2
   4.60225E+2  -9.79547E+2
  -8.92340E+2   1.53704E+3
  -1.08506E+3  -1.45672E+3
   4.21929E+2  -7.19268E+2
   1.59708E+3  -1.04942E+3
   4.05267E+3   2.06252E+3
   4.68373E+2   3.19340E+3
  -1.88002E+3   1.26845E+3
   1.37753E+2  -1.07261E+3
  -5.24282E+2   1.43024E+3
   2.69375E+0  -1.23909E+3
  -6.60698E+2  -1.31190E+3
  -6.20735E+1   7.72069E+2
   8.93971E+2   5.05690E+2
   1.30230E+3   1.17982E+3
  -8.58438E+2   1.72656E+3
  -2.32479E+2  -1.59442E+3
  -2.34169E+3   6.48417E+2
   1.55136E+3   1.50631E+2
  -3.51011E+2   1.76749E+3
  -1.29039E+3   1.27655E+3
   2.54207E+2   6.08110E+2
   1.43963E+3   1.23906E+2
   1.76916E+1   1.51059E+3
  -5.25247E+2   1.54435E+3
  -2.71115E+2  -1.05257E+3
   2.24960E+3   6.85022E+2
   2.88303E+3   3.30538E+3
  -4.42125E+2   1.35578E+3
  -1.51686E+3  -8.48712E+1
   1.58327E+2  -1.54391E+3
   4.89730E+2  -1.11111E+3
   7.73412E+2   7.97261E+2
   1.37270E+3  -1.31637E+2
  -1.31867E+2  -3.19210E+2
   1.44755E+3   1.15251E+3
  -6.77491E+2   1.58034E+3
  -1.29285E+3   7.09538E+2
  -9.10101E+2   9.80131E+2
  -7.96417E+2   9.30558E+2
  -9.13835E+2  -3.90876E+2
  -5.92161E+1  -1.14161E+3
  -4.57592E+2  -4.93968E+1
   1.38694E+3   3.28091E+2
  -1.76099E+3  -5.48224E+2
  -9.02293E+2  -1.51686E+3
   1.67343E+3   7.43060E+2
   2.94617E+2   1.06305E+3
   2.12799E+3   4.18151E+2
  -7.05423E+2   2.90877E+3
  -5.34942E+2   1.29257E+3
   2.60909E+2   1.30840E+3
   2.28227E+3   5.60380E+2
  -1.05922E+2  -2.03827E+3
  -2.53884E+2  -1.59854E+3
  -1.16355E+2  -9.89784E+2
   2.13245E+2  -1.34413E+3
  -1.10888E+3   1.17021E+3
  -5.83233E+2   1.20918E+3
  -1.71025E+2   2.25966E+3
  -6.32203E+2   7.70040E+2
   4.85071E+2  -5.86282E+2
  -1.78297E+3  -2.78418E+2
  -6.79443E+2  -1.26414E+3
   1.83244E+3  -1.81577E+3
   8.60689E+2   3.22451E+2
  -6.49560E+2   1.18261E+3
   1.02437E+3   8.19099E+2
   1.54004E+3   8.41100E+1
  -2.45847E+2  -1.23616E+3
   3.13415E+2   5.83060E+2
  -5.77352E+2   6.14576E+1
  -2.67195E+2   1.44294E+3
   4.22366E+2  -1.32025E+3
  -1.22629E+2   3.07923E+2
  -3.71658E+2  -5.01443E+2
   1.81209E+3  -5.17641E+2
  -5.99127E+2  -5.96129E+2
  -3.20183E+2   5.29697E+2
  -5.44495E+2   2.29910E+3
  -1.41982E+3   6.62664E+2
  -1.23610E+3  -1.50986E+3
   3.18059E+2  -1.06117E+3
   1.07999E+3  -1.22307E+3
   3.88982E+2   5.88262E+1
   1.78241E+3   1.29746E+2
  -5.28100E+2  -3.09850E+2
  -6.22255E+2  -1.27627E+3
   4.68256E+2   3.36378E+2
   1.52902E+3   8.28961E+2
   5.25886E+2  -7.91867E+2
  -1.15169E+3   2.21158E+2
  -1.05502E+3   1.17676E+3
  -1.68019E+2   2.40665E+2
   3.69644E+2   7.54910E+2
  -1.28039E+3   6.93814E+2
   6.73868E+2  -8.65399E+1
   1.21737E+3  -3.08633E+3
   6.67254E+2  -5.60520E+1
  -1.84342E+3  -1.19081E+3
   1.27373E+3  -1.42161E+2
  -1.01214E+3   2.76087E+2
  -2.01287E+3   9.19013E+1
  -2.14611E+2   1.90800E+3
  -2.39191E+2  -1.33915E+3
   3.43950E+2  -5.70099E+2
  -3.56037E+2  -1.04867E+3
   7.09592E+1   7.96763E+2
  -9.34927E+2   1.43598E+2
   2.02504E+2   2.96448E+2
  -1.39091E+3  -2.47832E+2
   2.43439E+3   1.26417E+3
   2.25746E+2   1.95796E+2
   5.85490E+2   1.56287E+3
  -9.54801E+2   9.98371E+2
  -3.22980E+2   1.05588E+3
   6.82010E+2   8.12123E+2
   2.34892E+2   1.29357E+2
   1.29821E+3   1.43911E+3
  -1.82116E+3   3.43868E+2
   4.60614E+2   2.01856E+3
  -3.09789E+3  -4.10404E+2
   1.42047E+3  -1.54928E+3
   4.41528E+1   4.05423E+2
   7.93970E+1   1.98875E+2
  -3.90996E+2  -1.99564E+3
   2.17218E+1  -4.83131E+2
  -8.40708E+2  -3.26094E+2
  -1.65074E+3   2.69674E+2
   1.64165E+3   9.11489E+2
  -1.17401E+3  -8.82696E+2
   8.74983E+2  -1.14627E+3
   2.11731E+3   3.96645E+2
  -6.45411E+1   1.42183E+3
   2.07106E+3  -6.97657E+2
  -1.72653E+2  -3.66654E+2
   3.23780E+2   9.85334E+2
   1.51519E+3   2.14820E+3
   1.32200E+3   1.98909E+3
  -3.29836E+2  -2.52951E+2
   6.74019E+2   2.94405E+2
  -5.27187E+2   3.46851E+2
   4.04849E+2  -1.41163E+2
   6.71740E+2  -1.74433E+2
   1.12703E+2   1.23151E+3
   3.67920E+2  -9.21223E+2
   1.91360E+1  -9.17469E+2
   9.53652E+2  -3.12822E+2
   1.56966E+3  -6.94153E+2
   1.59288E+3  -1.72755E+3
   3.51616E+2  -4.41213E+2
  -9.74112E+2  -2.66833E+3
  -2.30774E+2  -4.04664E+2
   1.21689E+3   1.02548E+3
   1.48127E+3   5.00677E+2
   6.98274E+2  -1.34570E+3
   1.04656E+3   3.73766E+2
   1.68285E+3  -2.90809E+2
  -1.93115E+3  -2.27342E+2
  -6.90901E+1  -7.52843E+2
   3.68451E+2   1.48767E+3
  -1.67451E+3  -3.46948E+2
   2.16569E+2   2.12326E+2
  -9.23070E+2  -5.42977E+2
   3.43465E+2   1.23052E+3
  -5.98095E+2   1.50719E+2
  -6.93507E+2  -3.67639E+2
  -1.07779E+3  -6.61204E+2
  -4.63289E+1  -5.15393E+2
  -6.32062E+2  -2.66188E+2
  -4.62136E+2  -1.68682E+3
   1.89063E+2  -7.88697E+2
   5.43178E+2  -1.25293E+3
   1.11837E+3  -8.66423E+2
  -7.12205E+2  -6.95846E+1
  -6.10750E+2   8.84540E+2
   3.54791E+2  -1.01888E+3
   4.23702E+2   1.53760E+3
  -1.38426E+3  -4.40693E+2
   9.37046E+2   6.92302E+2
   1.73608E+3  -6.74556E+2
   2.05145E+3  -6.74991E+2
   1.38982E+2   1.51089E+3
  -1.47864E+3   3.35097E+2
   8.78935E+0   1.01332E+2
  -2.29100E+2   1.54622E+3
   3.37121E+2  -9.99679E+2
  -2.24544E+2  -1.18050E+3
   9.75388E+2   4.18101E+2
  -9.56855E+2   9.70071E+2
  -8.63397E+2   1.85673E+3
   1.84978E+3  -4.75929E+2
  -5.66220E+2  -2.24295E+3
   7.25070E+1  -1.19656E+3
   8.41364E+2   7.74977E+2
  -6.07328E+2   3.95957E+2
   3.85294E+2   8.20728E+1
  -5.14008E+2   3.54298E+2
  -4.31110E+2  -1.92266E+3
  -6.55889E+2   2.55165E+2
   4.51064E+2  -1.93121E+2
  -9.03731E+2   1.82273E+2
  -1.79883E+3  -5.77682E+2
  -3.79280E+2   8.30049E+2
  -5.23197E+2  -1.51332E+3
  -6.97090E+2  -1.12013E+3
   1.73041E+1   7.24195E+2
   9.30779E+2   1.58339E+1
  -8.09407E+1  -1.54797E+3
   1.87157E+3   5.82973E+1
   9.88418E+2   4.96743E+2
   2.07492E+3  -8.68022E+2
  -1.10088E+3   3.57803E+2
   1.77920E+2  -1.05768E+3
   1.16676E+3   8.36173E+2
   1.49780E+3   1.18318E+3
  -3.63183E+2  -5.37725E+2
   9.96659E+2  -1.11726E+3
  -5.43176E+2  -3.56927E+1
  -9.37319E+2   3.07071E+2
   2.34520E+2  -4.12434E+2
   1.19764E+3  -1.55647E+3
  -8.42689E+1   3.48916E+3
  -4.76276E+2  -2.92091E+2
   5.94309E+2   2.22786E+2
  -1.30874E+1   3.92592E+2
  -1.75775E+2  -2.15862E+2
   9.82940E+2   6.65188E+2
  -2.57797E+2  -1.14087E+3
   2.21510E+2   1.64786E+3
   1.06986E+3  -1.98089E+3
  -2.87121E+2   2.47682E+2
  -3.43983E+2   2.91339E+2
   1.10227E+3  -2.85898E+2
  -1.56790E+3  -1.27834E+3
   9.32929E+2   2.51609E+2
   5.92456E+2   3.20027E+2
  -2.15194E+3   1.16618E+3
   3.12857E+2   6.98240E+2
  -1.26033E+3   8.02771E+2
   1.78161E+3   2.96315E+2
  -7.87208E+1   2.83982E+3
   9.75433E+2  -1.45280E+3
   4.30204E+1  -1.11638E+3
  -6.34104E+2  -1.05017E+2
   3.70371E+2   8.80283E+2
  -6.29724E+2   1.01530E+3
  -2.45256E+2  -8.35896E+2
  -3.51298E+2   3.42643E+2
  -5.60841E+1   7.31460E+2
  -2.01547E+3   1.33939E+3
   1.89466E+3  -7.54753E+2
   1.48696E+2   7.28886E+2
   4.23075E+2  -1.32180E+2
   5.44176E+2   1.10780E+2
  -1.25550E+3  -1.84845E+3
   2.95297E+1  -3.14829E+1
   3.91237E+2  -1.84684E+3
  -1.10256E+3  -7.09845E+2
  -2.52216E+2  -3.93548E+2
  -1.39362E+3   2.21068E+2
  -1.80336E+3   2.46725E+2
