 LCModel (Version 6.3-1N) Copyright: S.W. Provencher.          Ref.: Magn. Reson. Med. 30:672-679 (1993).                
 Slice_N1@16_18  02-Jun-2023 14:36:48
 27 lines in following concentration table = NCONC+1
    Conc.  %SD /Cr+PCr  Metabolite                                         
 2.34E-06  14% 3.1E-04 Mac                                                 
 2.90E-02  24%   3.896 Cr                                                  
 3.05E-02  23%   4.104 PCr                                                 
 7.21E-02  10%   9.695 Ins                                                 
 9.11E-02   7%  12.242 NAA                                                 
 5.02E-02  13%   6.752 Tau                                                 
 1.09E-02  42%   1.461 PCho                                                
 2.32E-03 189%   0.312 GPC                                                 
 6.07E-02  14%   8.156 Glu                                                 
 2.77E-02  23%   3.722 Gln                                                 
 6.66E-03  83%   0.896 Ala                                                 
 1.12E-02 103%   1.511 Asc                                                 
 1.16E-02  58%   1.562 Asp                                                 
 1.21E-02  30%   1.623 GABA                                                
 8.42E-03  54%   1.132 Glc                                                 
 8.82E-03  40%   1.185 GSH                                                 
 3.78E-03 157%   0.508 Lac                                                 
 5.22E-03  72%   0.702 NAAG                                                
    0.000 999%   0.000 PE                                                  
 1.32E-02  12%   1.773 GPC+PCho                                            
 9.63E-02   7%  12.944 NAA+NAAG                                            
 8.84E-02  11%  11.878 Glu+Gln                                             
 5.95E-02   8%   8.000 Cr+PCr                                              
 9.63E-02   7%  12.944 NAA+NAAG                                            
 5.95E-02   8%   8.000 Cr+PCr                                              
 8.84E-02  11%  11.878 Glu+Gln                                             
   6 lines in following misc. output table
  FWHM = 0.023 ppm    S/N =   7                                            
  Data shift = 0.023 ppm                                                   
  Ph: -31 deg     -12.1 deg/ppm                                            
  alphaB,S = 3.1E+01,   7.3E+00                                            
   18 spline knots.   Ns = 5(1)                                            
   2 inflections.     2 extrema                                            
  654 points on ppm-axis = NY
      4.000000     3.994181     3.988363     3.982544     3.976726     3.970907     3.965088     3.959270     3.953451     3.947633
      3.941814     3.935995     3.930177     3.924358     3.918540     3.912721     3.906902     3.901084     3.895265     3.889446
      3.883628     3.877809     3.871991     3.866172     3.860353     3.854535     3.848716     3.842898     3.837079     3.831260
      3.825442     3.819623     3.813805     3.807986     3.802167     3.796349     3.790530     3.784712     3.778893     3.773074
      3.767256     3.761437     3.755619     3.749800     3.743981     3.738163     3.732344     3.726526     3.720707     3.714888
      3.709070     3.703251     3.697433     3.691614     3.685795     3.679977     3.674158     3.668339     3.662521     3.656702
      3.650884     3.645065     3.639246     3.633428     3.627609     3.621791     3.615972     3.610153     3.604335     3.598516
      3.592698     3.586879     3.581060     3.575242     3.569423     3.563605     3.557786     3.551967     3.546149     3.540330
      3.534512     3.528693     3.522874     3.517056     3.511237     3.505419     3.499600     3.493781     3.487963     3.482144
      3.476326     3.470507     3.464688     3.458870     3.453051     3.447232     3.441414     3.435595     3.429777     3.423958
      3.418139     3.412321     3.406502     3.400684     3.394865     3.389046     3.383228     3.377409     3.371591     3.365772
      3.359953     3.354135     3.348316     3.342498     3.336679     3.330860     3.325042     3.319223     3.313405     3.307586
      3.301767     3.295949     3.290130     3.284312     3.278493     3.272674     3.266856     3.261037     3.255219     3.249400
      3.243581     3.237763     3.231944     3.226125     3.220307     3.214488     3.208670     3.202851     3.197032     3.191214
      3.185395     3.179577     3.173758     3.167939     3.162121     3.156302     3.150484     3.144665     3.138846     3.133028
      3.127209     3.121391     3.115572     3.109753     3.103935     3.098116     3.092298     3.086479     3.080660     3.074842
      3.069023     3.063205     3.057386     3.051567     3.045749     3.039930     3.034111     3.028293     3.022474     3.016656
      3.010837     3.005018     2.999200     2.993381     2.987563     2.981744     2.975925     2.970107     2.964288     2.958470
      2.952651     2.946832     2.941014     2.935195     2.929377     2.923558     2.917739     2.911921     2.906102     2.900284
      2.894465     2.888646     2.882828     2.877009     2.871191     2.865372     2.859553     2.853735     2.847916     2.842098
      2.836279     2.830460     2.824642     2.818823     2.813004     2.807186     2.801367     2.795549     2.789730     2.783911
      2.778093     2.772274     2.766456     2.760637     2.754818     2.749000     2.743181     2.737363     2.731544     2.725725
      2.719907     2.714088     2.708270     2.702451     2.696632     2.690814     2.684995     2.679177     2.673358     2.667539
      2.661721     2.655902     2.650084     2.644265     2.638446     2.632628     2.626809     2.620991     2.615172     2.609353
      2.603535     2.597716     2.591897     2.586079     2.580260     2.574442     2.568623     2.562804     2.556986     2.551167
      2.545349     2.539530     2.533711     2.527893     2.522074     2.516256     2.510437     2.504618     2.498800     2.492981
      2.487163     2.481344     2.475525     2.469707     2.463888     2.458070     2.452251     2.446432     2.440614     2.434795
      2.428977     2.423158     2.417339     2.411521     2.405702     2.399884     2.394065     2.388246     2.382428     2.376609
      2.370790     2.364972     2.359153     2.353335     2.347516     2.341697     2.335879     2.330060     2.324242     2.318423
      2.312604     2.306786     2.300967     2.295149     2.289330     2.283511     2.277693     2.271874     2.266056     2.260237
      2.254418     2.248600     2.242781     2.236963     2.231144     2.225325     2.219507     2.213688     2.207870     2.202051
      2.196232     2.190414     2.184595     2.178777     2.172958     2.167139     2.161321     2.155502     2.149683     2.143865
      2.138046     2.132228     2.126409     2.120590     2.114772     2.108953     2.103135     2.097316     2.091497     2.085679
      2.079860     2.074042     2.068223     2.062404     2.056586     2.050767     2.044949     2.039130     2.033311     2.027493
      2.021674     2.015856     2.010037     2.004218     1.998400     1.992581     1.986763     1.980944     1.975126     1.969307
      1.963489     1.957670     1.951852     1.946033     1.940215     1.934397     1.928578     1.922760     1.916941     1.911123
      1.905304     1.899486     1.893667     1.887849     1.882030     1.876212     1.870393     1.864575     1.858756     1.852938
      1.847119     1.841301     1.835482     1.829664     1.823845     1.818027     1.812208     1.806390     1.800571     1.794753
      1.788934     1.783116     1.777297     1.771479     1.765660     1.759842     1.754023     1.748205     1.742386     1.736568
      1.730749     1.724931     1.719113     1.713294     1.707476     1.701657     1.695839     1.690020     1.684202     1.678383
      1.672565     1.666746     1.660928     1.655109     1.649291     1.643472     1.637654     1.631835     1.626017     1.620198
      1.614380     1.608561     1.602743     1.596924     1.591106     1.585287     1.579469     1.573650     1.567832     1.562013
      1.556195     1.550376     1.544558     1.538739     1.532921     1.527102     1.521284     1.515465     1.509647     1.503829
      1.498010     1.492192     1.486373     1.480555     1.474736     1.468918     1.463099     1.457281     1.451462     1.445644
      1.439825     1.434007     1.428188     1.422370     1.416551     1.410733     1.404914     1.399096     1.393277     1.387459
      1.381640     1.375822     1.370003     1.364185     1.358366     1.352548     1.346729     1.340911     1.335092     1.329274
      1.323455     1.317637     1.311818     1.306000     1.300182     1.294363     1.288545     1.282726     1.276908     1.271089
      1.265271     1.259452     1.253634     1.247815     1.241997     1.236178     1.230360     1.224541     1.218723     1.212904
      1.207086     1.201267     1.195449     1.189630     1.183812     1.177993     1.172175     1.166356     1.160538     1.154719
      1.148901     1.143082     1.137264     1.131445     1.125627     1.119808     1.113990     1.108171     1.102353     1.096534
      1.090716     1.084898     1.079079     1.073261     1.067442     1.061624     1.055805     1.049987     1.044168     1.038350
      1.032531     1.026713     1.020894     1.015076     1.009257     1.003439     0.997620     0.991802     0.985983     0.980165
      0.974346     0.968528     0.962709     0.956891     0.951072     0.945254     0.939435     0.933617     0.927798     0.921980
      0.916161     0.910343     0.904524     0.898706     0.892887     0.887069     0.881251     0.875432     0.869614     0.863795
      0.857977     0.852158     0.846340     0.840521     0.834703     0.828884     0.823066     0.817247     0.811429     0.805610
      0.799792     0.793973     0.788155     0.782336     0.776518     0.770699     0.764881     0.759062     0.753244     0.747425
      0.741607     0.735788     0.729970     0.724151     0.718333     0.712514     0.706696     0.700877     0.695059     0.689240
      0.683422     0.677603     0.671785     0.665967     0.660148     0.654330     0.648511     0.642693     0.636874     0.631056
      0.625237     0.619419     0.613600     0.607782     0.601963     0.596145     0.590326     0.584508     0.578689     0.572871
      0.567052     0.561234     0.555415     0.549597     0.543778     0.537960     0.532141     0.526323     0.520504     0.514686
      0.508867     0.503049     0.497230     0.491412     0.485593     0.479775     0.473956     0.468138     0.462319     0.456501
      0.450682     0.444864     0.439045     0.433227     0.427408     0.421590     0.415771     0.409953     0.404134     0.398316
      0.392497     0.386679     0.380860     0.375042     0.369223     0.363405     0.357586     0.351767     0.345949     0.340130
      0.334312     0.328493     0.322675     0.316856     0.311038     0.305219     0.299401     0.293582     0.287764     0.281945
      0.276127     0.270308     0.264490     0.258671     0.252853     0.247034     0.241216     0.235397     0.229579     0.223760
      0.217942     0.212123     0.206305     0.200486
 NY phased data points follow
   8.75157E-03  9.58499E-03  4.02521E-02 -1.95367E-01 -2.80190E-02 -2.42713E-01 -1.77264E-02  8.57139E-02 -1.32369E-01  5.63365E-02
   1.93527E-01  3.67661E-01  2.77830E-01  4.04345E-01  3.18174E-01  4.59094E-01  9.59937E-02  3.01414E-01 -3.84756E-02 -3.23153E-01
   1.07302E-01 -1.31057E-01  1.43372E-01 -1.98903E-01 -1.20685E-01 -2.18936E-01 -9.76398E-02 -1.83956E-01 -4.31699E-01 -7.58314E-03
   1.21185E-01  6.71185E-02 -1.52885E-01  4.19408E-02  1.29435E-01 -1.77116E-01 -2.68804E-01 -3.76595E-01 -5.32617E-01  1.25558E-01
   5.69570E-02  2.79491E-01  3.02249E-01  1.89432E-01  3.51809E-01  3.29424E-01  6.66904E-01  7.97019E-02  3.36537E-01 -2.15262E-03
  -1.91262E-01  1.60634E-01 -7.50316E-02 -1.79282E-01 -3.84337E-01 -3.38134E-03 -1.74374E-01 -3.04317E-01 -7.61397E-02 -3.39383E-01
  -3.68329E-01 -3.24060E-01 -2.01416E-01 -2.59484E-01 -4.72555E-01  4.89400E-02  2.08699E-01  3.90689E-01  3.95467E-01  6.35051E-01
   4.94004E-01  2.25325E-01  4.24291E-01 -2.33407E-01  9.63555E-02 -1.64572E-01 -3.42067E-01 -2.86182E-01 -4.60343E-01 -3.44493E-01
  -3.70597E-01  4.08021E-02 -1.20494E-01  2.35206E-01  6.14061E-01  3.46871E-01  2.56492E-01  2.94917E-01 -1.38129E-01 -1.61373E-02
   3.22140E-01 -4.95221E-02  5.33401E-02  1.70816E-01  2.42613E-01  1.11925E-01 -2.13674E-01 -7.31745E-02  1.79096E-01 -2.56537E-01
  -5.08655E-01 -1.38420E-01 -4.47157E-02  1.69676E-01  1.35971E-01  2.38216E-01  5.45010E-01  5.34150E-01  5.58031E-01  1.13671E-01
   3.11994E-01  1.60011E-01  3.60079E-02  4.38965E-01  2.02936E-01  4.75293E-01  1.51118E-01  5.02243E-02  3.05767E-01  3.80054E-01
   2.67564E-01 -7.19137E-02 -1.76410E-03  2.79269E-02 -3.48268E-01 -3.39088E-01  2.56385E-01 -1.93547E-01 -9.35988E-02 -2.31232E-01
  -7.65088E-01 -4.99023E-01 -4.63397E-01 -2.57065E-01 -2.78950E-01 -6.55891E-01 -1.18967E+00 -8.50582E-01 -4.30950E-01 -5.53230E-01
   1.85634E-01 -9.84681E-02 -5.96537E-01  1.80122E-01 -2.48806E-01 -3.01553E-01 -8.17580E-02 -7.46348E-02  1.13292E-01 -2.79885E-01
   1.56238E-01  1.54101E-01  1.81535E-01  3.76681E-01  2.27882E-01  2.73304E-01  2.05118E-01  3.27910E-01  3.74625E-01  2.80343E-01
   3.91773E-01  6.31722E-01  5.58944E-01  7.03187E-01  8.86408E-01  1.25256E+00  1.36361E+00  1.48716E-01 -1.01811E+00 -1.08562E+00
  -1.00645E+00 -8.13655E-01 -4.82361E-01 -3.62452E-01 -2.72623E-01 -5.72879E-01 -5.67382E-01 -3.73771E-01 -2.69237E-01 -2.32818E-01
  -2.38438E-01 -4.19288E-01 -3.25316E-01 -1.05173E-01 -4.86818E-01 -2.34529E-01 -4.45612E-01 -4.55038E-01 -5.80358E-02 -2.91007E-01
  -3.85524E-01 -4.05468E-01 -9.91549E-02 -1.81289E-01 -1.32329E-01  6.23548E-02  1.53522E-01 -5.08403E-02 -2.92960E-01 -1.43766E-01
  -1.76478E-01  2.04968E-01  1.79373E-01 -1.16613E-01 -1.65671E-01 -1.61836E-01 -4.99193E-02  1.65933E-01  1.52598E-01 -8.29561E-02
  -4.37247E-02 -1.84368E-01 -2.58375E-01  8.84972E-02  5.34822E-03 -1.82070E-01  1.50311E-02  4.79720E-03  1.03871E-01 -2.46108E-01
  -1.83073E-03 -8.34699E-02 -2.64071E-01  1.81513E-01  4.28258E-03  5.98437E-01  5.03815E-01  3.57616E-01  3.66603E-01  2.70602E-01
   5.75141E-01  6.39218E-01  6.76672E-02 -2.48125E-01  1.25445E-02 -1.48825E-01 -1.14461E-01 -3.56345E-01  1.97082E-01  1.95612E-01
  -2.31051E-01 -1.10511E-01 -2.44564E-02  2.62701E-02  8.40651E-02  7.17277E-03 -3.81400E-01 -2.86147E-02 -1.33117E-01 -8.66477E-02
  -3.04061E-01 -8.37018E-02  1.42189E-01 -1.39418E-01 -4.83335E-02 -2.58724E-01  1.12555E-01 -4.97282E-02 -7.99506E-02  2.71572E-01
   1.26917E-01  1.17825E-01  2.14396E-01  8.38250E-02  2.29404E-01  2.69820E-01  2.62781E-01  2.25617E-01  3.77497E-02  6.08414E-03
   1.39984E-01  2.90306E-01  9.66770E-02  1.24534E-01  1.40248E-01  3.42489E-01  2.86874E-02  5.30854E-02  2.34367E-02 -2.72513E-01
  -5.18969E-01 -4.20456E-01  4.51786E-02 -3.83363E-01  5.14163E-02  9.24957E-02  3.77320E-01  5.89057E-01  6.53234E-01  6.79096E-01
   1.54810E-01  2.87570E-01 -3.44737E-03  3.29285E-02 -9.86548E-02  1.98321E-02  7.94434E-02  6.57469E-02  2.23207E-01  1.30685E-01
   1.51369E-01  2.22363E-01  4.43914E-01  9.61758E-02  2.75029E-01  5.04566E-01  3.79526E-01  3.51959E-01  1.79754E-01  1.32878E-01
   2.66315E-01  5.48216E-01  3.70972E-01 -2.76460E-02 -5.26680E-02  9.56592E-02  6.48468E-02  7.24749E-02  2.64707E-02 -2.29255E-01
  -2.70458E-01 -4.17946E-01 -7.26113E-01 -1.98106E-01  6.17301E-02 -2.63754E-01  1.59308E-01 -2.27136E-01 -7.37252E-02  6.04835E-01
  -1.01099E-01  9.05045E-02  3.19470E-01  1.00866E-01 -4.16255E-02 -3.02664E-01 -2.44676E-01 -2.85646E-01 -3.41355E-01 -1.46909E-01
  -4.73397E-02 -9.15444E-01 -2.57561E+00 -2.70501E+00 -8.39972E-01 -5.44892E-01 -3.58129E-01  4.05593E-02 -9.22229E-02  4.35075E-01
   1.36691E-01  2.16186E-01  6.35649E-02  7.85163E-02  4.50665E-01  1.10477E-01  2.25856E-01  3.30642E-01  2.98484E-01  1.75332E-01
  -8.19937E-02  3.48837E-01  8.48019E-02 -3.15085E-01  1.68842E-01 -1.32679E-01 -5.48466E-02  9.23213E-02  9.26748E-02  1.40420E-01
  -1.09459E-02 -6.05878E-02  1.55405E-01  3.53557E-01  2.30492E-01  2.64999E-01  4.09543E-03  8.91646E-02  4.89581E-02  1.89049E-01
   1.87201E-01  1.92139E-01  3.92264E-01  8.25972E-03  2.79222E-02  1.24300E-01  3.34654E-01  3.39527E-01  1.62332E-01  1.26739E-01
  -1.21846E-02  1.43837E-01  6.15277E-02 -5.01129E-02  2.85956E-01 -3.54266E-02 -9.56650E-02 -2.99286E-01  1.47446E-01  5.95783E-01
  -1.16624E-01  7.71274E-02 -2.13949E-01  7.22309E-02  2.42561E-01 -7.39813E-02 -6.30459E-02 -1.96745E-01 -2.45390E-01 -3.39543E-01
  -3.80708E-01 -2.21185E-01  1.63672E-01 -1.93291E-01  5.98288E-02 -1.60165E-01 -1.31290E-01  1.82655E-02 -3.60991E-01 -2.45674E-01
  -5.91049E-01 -2.92712E-01 -3.15070E-01 -4.11301E-01 -2.11872E-01 -3.51342E-01 -3.42192E-01 -5.30846E-02  1.97645E-02  2.85203E-03
  -3.87831E-02 -1.00136E-01 -8.55395E-02 -3.77416E-02  4.11610E-01  4.01700E-01  3.22343E-02 -1.68906E-01 -2.69314E-02 -1.06221E-02
   3.22234E-01  2.27709E-01 -2.35491E-01  2.26119E-02  2.59854E-02  1.55172E-01  2.92632E-01  1.99720E-01  3.10239E-01  3.10371E-01
   2.91361E-01  4.66922E-01  1.65478E-01  2.89647E-01  2.16578E-01  4.96973E-02  1.33836E-01 -2.75451E-01 -9.26012E-02  1.56645E-01
   4.98615E-02  8.99508E-02  5.23262E-01  1.08109E-01 -1.86981E-02  2.04002E-02 -1.58052E-02  7.14124E-02 -1.54553E-01  1.66860E-01
  -4.33868E-01 -3.76923E-01 -1.38846E-01 -1.94158E-01 -7.69516E-03 -3.54984E-01 -2.12237E-01  6.13302E-03 -2.99908E-01 -1.07750E-01
   1.58663E-01 -2.16922E-01 -1.49658E-02  1.21580E-01  4.26238E-01 -4.18908E-02 -7.36020E-02  1.50476E-01 -2.08083E-01  4.30983E-01
  -1.11871E-02  2.97747E-03  3.22992E-01  2.15130E-01  3.95079E-02 -1.25987E-01 -6.78877E-02 -3.79597E-01 -6.27528E-02  1.36479E-01
   3.01078E-02  4.32788E-02  1.92847E-01 -3.27162E-02 -1.66640E-01  2.41864E-01  1.92930E-01  8.73046E-02  1.72574E-01  1.38819E-01
   2.32707E-01  5.56725E-02  4.13587E-02  1.45336E-01 -2.65277E-02  1.98302E-01  1.19046E-01  2.58493E-01  1.67445E-01  6.42751E-02
   1.22559E-01 -1.86914E-01  3.39000E-03 -2.18379E-01 -3.31442E-01 -3.09795E-01 -2.74439E-01 -4.30203E-01 -7.53638E-01 -5.18025E-01
  -2.65989E-01 -7.54981E-02 -2.61379E-01 -1.08530E-01  2.05726E-02 -2.14385E-01 -1.13598E-01 -2.11902E-02 -9.81680E-02 -2.20299E-01
  -4.43150E-02 -1.70452E-01 -2.80536E-01 -3.39838E-02 -6.11619E-02 -3.11348E-01 -1.10402E-01  1.98152E-01  4.90473E-02  4.65014E-01
   3.89069E-01 -4.46255E-02 -8.31480E-03  8.17989E-02 -3.66240E-02 -3.98427E-02  5.92741E-01  4.55717E-02 -1.15045E-03  4.38856E-01
  -6.84875E-02  2.85271E-01  3.18938E-01  1.49170E-02  8.66236E-02 -8.60407E-02  4.26896E-02  1.63394E-01 -1.16526E-01 -6.96376E-02
   5.98281E-02  1.23537E-01 -1.03144E-01 -3.79187E-01  2.54519E-01  1.58250E-01 -3.06833E-01 -5.56313E-02 -2.71548E-02  7.13532E-02
  -4.50051E-02  1.18628E-01  1.76933E-01 -1.67067E-01 -6.99507E-02 -6.71036E-02 -4.59403E-02 -6.61208E-02 -1.13366E-01 -9.79140E-02
   7.79539E-02  7.49607E-02  1.10927E-01  2.48702E-01 -2.65352E-02 -1.18723E-01  1.21186E-01  7.17995E-02  6.96593E-02  1.98341E-01
  -2.25886E-01  1.98794E-03  1.50776E-01 -5.70270E-04  4.86995E-02  1.46113E-01  2.16972E-01  9.48522E-02  2.07113E-01  2.40385E-01
   3.82391E-01  2.08108E-01  1.06307E-01 -2.09677E-01 -4.63127E-02  6.35262E-02  7.22211E-02  1.81849E-01 -7.87017E-02  3.37637E-01
  -1.46068E-01 -1.04026E-01  5.48142E-02  2.50355E-02  9.87440E-02 -2.93318E-01 -7.14200E-02 -1.43186E-01 -1.26112E-01  1.58888E-01
   1.49561E-01 -2.44865E-02  8.67062E-02 -3.60923E-02 -2.08930E-01  1.50953E-01  2.04906E-01  1.45262E-02  3.21008E-01  1.89797E-01
  -1.71522E-01 -1.27985E-01 -8.28965E-02 -4.05317E-02 -2.95021E-02  2.40092E-01  1.03352E-01  1.37911E-01  4.44999E-02 -4.69084E-02
   1.62080E-01  2.58795E-02  1.47820E-01 -4.10308E-02
 NY points of the fit to the data follow
   6.50531E-02  5.23695E-02  3.72245E-02  2.59854E-02  2.65862E-02  3.09852E-02  3.55653E-02  4.80723E-02  5.75390E-02  5.10265E-02
   1.32679E-01  3.67924E-01  5.48520E-01  5.22861E-01  5.35784E-01  5.79537E-01  4.02679E-01  2.08886E-01  1.25581E-01  4.74257E-02
   1.77155E-02  1.49367E-02 -8.27115E-03 -3.88825E-02 -6.36643E-02 -8.25910E-02 -9.61004E-02 -1.02611E-01 -1.10544E-01 -1.21007E-01
  -1.25286E-01 -1.31419E-01 -1.50611E-01 -1.77478E-01 -2.07306E-01 -2.29926E-01 -2.55235E-01 -2.73893E-01 -2.25298E-01 -6.30369E-02
   1.00664E-01  1.70899E-01  2.25356E-01  2.89684E-01  3.20153E-01  3.37598E-01  3.17209E-01  2.26361E-01  1.50216E-01  1.12764E-01
   5.93005E-02  2.88344E-02  1.24058E-02 -2.47651E-02 -6.51600E-02 -1.09509E-01 -1.64482E-01 -2.13019E-01 -2.44623E-01 -2.99261E-01
  -3.88090E-01 -3.77430E-01 -2.48016E-01 -2.44481E-01 -3.07349E-01 -2.09205E-02  2.59794E-01  2.02951E-01  3.41878E-01  5.03495E-01
   3.66941E-01  2.68213E-01  2.01598E-01  9.24250E-02  1.36275E-02 -5.22443E-02 -1.12580E-01 -2.59852E-01 -5.17287E-01 -5.97428E-01
  -3.33875E-01 -9.23463E-02  1.05900E-02  2.85540E-01  5.19807E-01  4.92462E-01  4.34432E-01  3.73735E-01  2.84801E-01  2.34625E-01
   2.17567E-01  2.04525E-01  1.80249E-01  1.54013E-01  1.24959E-01  8.07087E-02  2.17146E-02 -8.32047E-02 -2.27224E-01 -3.49600E-01
  -3.63458E-01 -2.36466E-01 -3.54959E-02  1.70293E-01  2.90829E-01  3.07518E-01  2.95137E-01  2.68504E-01  2.48522E-01  2.45680E-01
   2.45497E-01  2.43806E-01  2.40292E-01  2.36337E-01  2.33962E-01  2.32865E-01  2.32777E-01  2.25250E-01  2.21894E-01  2.23732E-01
   1.67168E-01  6.84154E-02  3.30825E-02 -8.08562E-03 -1.82526E-01 -2.09755E-01 -6.54125E-02 -1.14886E-01 -2.65180E-01 -3.44251E-01
  -4.98300E-01 -5.98167E-01 -4.46296E-01 -2.20607E-01 -2.42835E-01 -7.54147E-01 -1.16788E+00 -9.02588E-01 -5.26903E-01 -2.83111E-01
  -5.95760E-02  1.49697E-02  9.07412E-03  1.69403E-02  3.75394E-02  5.95289E-02  7.93576E-02  9.78430E-02  1.14075E-01  1.27581E-01
   1.42288E-01  1.57285E-01  1.71085E-01  1.86619E-01  2.04280E-01  2.24241E-01  2.47681E-01  2.73492E-01  2.99302E-01  3.29588E-01
   3.75036E-01  4.42610E-01  5.34485E-01  5.47082E-01  6.90231E-01  1.10452E+00  1.10530E+00 -5.65834E-02 -1.19007E+00 -1.15591E+00
  -9.12113E-01 -7.32934E-01 -4.23548E-01 -3.55915E-01 -3.82423E-01 -3.78858E-01 -3.33599E-01 -3.04317E-01 -3.03168E-01 -2.93085E-01
  -2.67214E-01 -2.44924E-01 -2.32740E-01 -2.22010E-01 -2.18163E-01 -2.16978E-01 -2.06633E-01 -1.93282E-01 -1.85545E-01 -1.79336E-01
  -1.69613E-01 -1.58691E-01 -1.48667E-01 -1.37178E-01 -1.27272E-01 -1.19355E-01 -1.10295E-01 -9.95109E-02 -9.11170E-02 -8.39964E-02
  -6.92148E-02 -4.59969E-02 -3.51358E-02 -5.10491E-02 -6.98206E-02 -6.43603E-02 -3.69346E-02 -2.14490E-02 -4.41775E-02 -7.49240E-02
  -8.65211E-02 -8.73216E-02 -8.04719E-02 -7.06215E-02 -6.34694E-02 -5.67749E-02 -4.83192E-02 -4.37069E-02 -4.96198E-02 -5.50478E-02
  -4.09266E-02 -2.50798E-02 -2.12785E-02  2.25630E-02  1.66198E-01  3.18220E-01  3.16264E-01  1.90570E-01  1.51185E-01  3.33898E-01
   5.12203E-01  4.03009E-01  1.86019E-01  4.85440E-02 -5.79330E-02 -1.00745E-01 -8.59224E-02 -8.04637E-02 -8.42937E-02 -9.32635E-02
  -1.03754E-01 -1.11115E-01 -1.14768E-01 -1.17227E-01 -1.19851E-01 -1.23683E-01 -1.26159E-01 -1.27730E-01 -1.30598E-01 -1.32933E-01
  -1.38941E-01 -1.53510E-01 -1.64972E-01 -1.91220E-01 -2.37437E-01 -2.11864E-01 -6.59009E-02  9.86681E-03 -4.03807E-02  4.26009E-02
   1.61316E-01  1.42526E-01  1.13294E-01  9.50579E-02  1.21708E-01  1.38048E-01  1.12305E-01  1.33527E-01  1.42010E-01  1.59884E-01
   1.77124E-01  1.47961E-01  1.14657E-01  6.89686E-02  2.31371E-02 -1.23764E-02 -5.13166E-02 -9.27191E-02 -1.34649E-01 -1.82966E-01
  -2.54934E-01 -3.34604E-01 -3.70656E-01 -3.27805E-01 -1.89559E-01  4.02630E-02  2.36172E-01  3.58668E-01  4.27023E-01  3.71239E-01
   2.70903E-01  1.98291E-01  1.31482E-01  1.01895E-01  9.79131E-02  1.28833E-01  1.77488E-01  2.08543E-01  2.37563E-01  2.39041E-01
   2.21231E-01  2.10827E-01  1.96154E-01  1.89445E-01  1.84252E-01  1.76050E-01  1.68033E-01  1.55071E-01  1.35862E-01  1.14659E-01
   9.19879E-02  6.58877E-02  4.80670E-02  3.01508E-02  4.39877E-03 -2.36112E-02 -7.08088E-02 -1.35542E-01 -1.98733E-01 -2.53697E-01
  -3.04450E-01 -3.41003E-01 -3.34486E-01 -3.05848E-01 -2.48645E-01 -1.62126E-01 -6.99875E-02  2.66073E-02  9.36741E-02  1.17300E-01
   1.01785E-01  5.52241E-02 -5.93886E-03 -6.00313E-02 -8.80719E-02 -1.52105E-01 -2.15536E-01 -2.14844E-01 -2.02760E-01 -6.73752E-02
  -1.12392E-01 -1.07689E+00 -2.50623E+00 -2.54842E+00 -1.37970E+00 -6.64890E-01 -2.29868E-01  9.08202E-02  1.77385E-02 -4.86210E-02
  -4.48316E-02 -3.03197E-02 -1.69232E-02 -6.40336E-03  3.21121E-03  1.41558E-02  2.21572E-02  2.76235E-02  2.64774E-02  1.70745E-02
  -5.71875E-03 -3.20293E-02 -6.11317E-02 -8.77105E-02 -9.03474E-02 -8.33366E-02 -6.58785E-02 -4.03022E-02 -2.37499E-02 -6.80324E-03
   5.15684E-03  1.57356E-02  2.65380E-02  3.29741E-02  3.63148E-02  4.07921E-02  4.57207E-02  5.14360E-02  5.73239E-02  6.05482E-02
   6.28635E-02  6.64846E-02  7.09762E-02  7.56699E-02  7.99281E-02  8.18133E-02  8.19018E-02  8.35056E-02  8.76901E-02  9.25782E-02
   9.77610E-02  1.02771E-01  1.04267E-01  1.02693E-01  9.97932E-02  9.63589E-02  9.39766E-02  9.20868E-02  8.91361E-02  8.38857E-02
   7.77045E-02  7.17634E-02  6.45540E-02  5.53168E-02  4.74362E-02  4.23830E-02  3.70364E-02  3.06085E-02  2.46223E-02  1.91801E-02
   1.39516E-02  1.04336E-02  8.04523E-03  4.32587E-03  1.09267E-03 -1.73158E-03 -5.64946E-03 -8.59475E-03 -1.01659E-02 -1.12820E-02
  -1.27410E-02 -1.45759E-02 -1.41571E-02 -1.16429E-02 -9.62613E-03 -6.24399E-03 -1.22009E-03  4.16068E-03  1.26566E-02  2.60259E-02
   3.18806E-02  3.81262E-02  6.83556E-02  1.22486E-01  1.54599E-01  1.58671E-01  1.42556E-01  9.11776E-02  5.84518E-02  6.08240E-02
   6.75727E-02  8.56134E-02  1.03068E-01  1.16798E-01  1.28911E-01  1.41320E-01  1.54508E-01  1.64928E-01  1.71783E-01  1.75457E-01
   1.76090E-01  1.75668E-01  1.74549E-01  1.72488E-01  1.69656E-01  1.64607E-01  1.57466E-01  1.43166E-01  1.28267E-01  1.28321E-01
   1.47144E-01  1.62679E-01  1.67170E-01  1.57003E-01  1.22432E-01  9.41358E-02  7.99358E-02  6.50538E-02  5.85400E-02  5.43436E-02
   4.95364E-02  4.48773E-02  4.00112E-02  3.63543E-02  3.67517E-02  3.98477E-02  4.18908E-02  4.45633E-02  4.92282E-02  5.32871E-02
   5.83067E-02  6.56691E-02  7.21860E-02  7.69457E-02  8.07167E-02  8.33461E-02  8.41583E-02  8.48341E-02  8.81906E-02  9.28000E-02
   9.53829E-02  9.50632E-02  9.35615E-02  9.14482E-02  8.92496E-02  8.58874E-02  8.07220E-02  7.72897E-02  7.50206E-02  7.20185E-02
   6.87914E-02  6.52593E-02  6.16837E-02  5.80199E-02  5.44719E-02  4.98138E-02  4.45150E-02  4.19525E-02  4.10765E-02  3.84189E-02
   3.48215E-02  3.18381E-02  2.79284E-02  2.12519E-02  1.25561E-02  4.11347E-03 -3.63074E-03 -1.14793E-02 -2.11667E-02 -3.56545E-02
  -5.41337E-02 -7.37675E-02 -9.21088E-02 -1.09306E-01 -1.27547E-01 -1.44779E-01 -1.58767E-01 -1.71304E-01 -1.84329E-01 -1.95933E-01
  -2.01355E-01 -2.01121E-01 -2.00670E-01 -2.00379E-01 -1.95799E-01 -1.87722E-01 -1.79670E-01 -1.71486E-01 -1.64037E-01 -1.58976E-01
  -1.53583E-01 -1.45193E-01 -1.35673E-01 -1.26696E-01 -1.15875E-01 -1.03344E-01 -9.22078E-02 -8.13628E-02 -6.99700E-02 -6.02468E-02
  -5.20376E-02 -4.15064E-02 -2.99698E-02 -2.26289E-02 -1.76447E-02 -1.08374E-02 -1.79291E-03  6.15410E-03  9.26935E-03  1.19673E-02
   1.78652E-02  2.20433E-02  2.47761E-02  2.81069E-02  2.91444E-02  3.08849E-02  3.43890E-02  3.48947E-02  3.37009E-02  3.47176E-02
   3.78247E-02  4.01304E-02  4.26877E-02  4.70095E-02  4.91846E-02  4.87374E-02  4.88573E-02  4.93295E-02  4.85288E-02  4.80792E-02
   4.91250E-02  4.86070E-02  4.73122E-02  4.78863E-02  4.82913E-02  4.79754E-02  4.87256E-02  5.12862E-02  5.36746E-02  5.06900E-02
   4.40128E-02  4.24694E-02  4.54514E-02  4.58165E-02  4.46855E-02  4.53152E-02  4.65747E-02  4.51186E-02  4.13598E-02  4.05782E-02
   4.31031E-02  4.53668E-02  4.61071E-02  4.63450E-02  4.70259E-02  4.82516E-02  5.00467E-02  5.08114E-02  5.08583E-02  5.25709E-02
   5.38002E-02  5.18664E-02  4.88564E-02  4.78111E-02  4.84469E-02  4.92170E-02  5.11411E-02  5.35469E-02  5.42309E-02  5.35280E-02
   5.31161E-02  5.53507E-02  5.91880E-02  6.21538E-02  6.30262E-02  6.04375E-02  5.66842E-02  5.55316E-02  5.70522E-02  5.95589E-02
   6.00727E-02  5.79768E-02  5.63983E-02  5.59034E-02  5.65771E-02  5.79609E-02  5.64536E-02  5.42320E-02  5.63491E-02  5.92010E-02
   5.87139E-02  5.77832E-02  5.82967E-02  5.85930E-02  5.88495E-02  5.86953E-02  5.94040E-02  6.36846E-02  6.82358E-02  7.03077E-02
   7.14826E-02  7.20679E-02  7.17159E-02  7.16258E-02
 NY background values follow
     4.920E-02    4.910E-02    4.900E-02    4.891E-02    4.881E-02    4.871E-02    4.861E-02    4.852E-02    4.842E-02    4.832E-02
     4.822E-02    4.813E-02    4.803E-02    4.793E-02    4.784E-02    4.774E-02    4.764E-02    4.754E-02    4.745E-02    4.735E-02
     4.725E-02    4.715E-02    4.706E-02    4.696E-02    4.686E-02    4.676E-02    4.667E-02    4.657E-02    4.647E-02    4.637E-02
     4.628E-02    4.618E-02    4.608E-02    4.599E-02    4.589E-02    4.579E-02    4.569E-02    4.560E-02    4.550E-02    4.540E-02
     4.530E-02    4.521E-02    4.511E-02    4.501E-02    4.491E-02    4.482E-02    4.472E-02    4.462E-02    4.452E-02    4.443E-02
     4.433E-02    4.423E-02    4.413E-02    4.404E-02    4.394E-02    4.384E-02    4.374E-02    4.365E-02    4.355E-02    4.345E-02
     4.335E-02    4.326E-02    4.316E-02    4.306E-02    4.296E-02    4.286E-02    4.277E-02    4.267E-02    4.257E-02    4.247E-02
