 
 $NMID
 ID=''
 FMTDAT='(2E13.5)'
 TRAMP=   1.00000E+0
 VOLUME=   1.00000E+0
 $END
  -1.79151E+4   8.40175E+3
  -5.02647E+4   7.76722E+3
  -4.77703E+4   1.66130E+4
  -4.37445E+4   1.53829E+4
  -4.58781E+4   1.47414E+4
  -4.51433E+4   1.68369E+4
  -4.34005E+4   1.58878E+4
  -4.42306E+4   1.53106E+4
  -4.37772E+4   1.65809E+4
  -4.26038E+4   1.60432E+4
  -4.29690E+4   1.55253E+4
  -4.23997E+4   1.64994E+4
  -4.14340E+4   1.63450E+4
  -4.18505E+4   1.59569E+4
  -4.14089E+4   1.65483E+4
  -4.05899E+4   1.63666E+4
  -4.07177E+4   1.62039E+4
  -4.03686E+4   1.67599E+4
  -3.96867E+4   1.67383E+4
  -3.98366E+4   1.65223E+4
  -3.94949E+4   1.68702E+4
  -3.88105E+4   1.69311E+4
  -3.89387E+4   1.68221E+4
  -3.87231E+4   1.70183E+4
  -3.80318E+4   1.68781E+4
  -3.80259E+4   1.67913E+4
  -3.78264E+4   1.68614E+4
  -3.73050E+4   1.66468E+4
  -3.71742E+4   1.64165E+4
  -3.68088E+4   1.64785E+4
  -3.64301E+4   1.64637E+4
  -3.61381E+4   1.64058E+4
  -3.59668E+4   1.64327E+4
  -3.54888E+4   1.63420E+4
  -3.50701E+4   1.62715E+4
  -3.48292E+4   1.63697E+4
  -3.43432E+4   1.64283E+4
  -3.39650E+4   1.65248E+4
  -3.36220E+4   1.67485E+4
  -3.32803E+4   1.67163E+4
  -3.31132E+4   1.67193E+4
  -3.28843E+4   1.67699E+4
  -3.25564E+4   1.66370E+4
  -3.21840E+4   1.66742E+4
  -3.19274E+4   1.67588E+4
  -3.16852E+4   1.68134E+4
  -3.14652E+4   1.67058E+4
  -3.11798E+4   1.67357E+4
  -3.08731E+4   1.68474E+4
  -3.06078E+4   1.67878E+4
  -3.03448E+4   1.67396E+4
  -3.00230E+4   1.67177E+4
  -2.97428E+4   1.67118E+4
  -2.94267E+4   1.67958E+4
  -2.92091E+4   1.68231E+4
  -2.89612E+4   1.68587E+4
  -2.87317E+4   1.67328E+4
  -2.85201E+4   1.67916E+4
  -2.82635E+4   1.67914E+4
  -2.79662E+4   1.68064E+4
  -2.77023E+4   1.68030E+4
  -2.74867E+4   1.68700E+4
  -2.72972E+4   1.68861E+4
  -2.71580E+4   1.68820E+4
  -2.68970E+4   1.68060E+4
  -2.67307E+4   1.68825E+4
  -2.65647E+4   1.69648E+4
  -2.64177E+4   1.68911E+4
  -2.61791E+4   1.68803E+4
  -2.60147E+4   1.68051E+4
  -2.58643E+4   1.67947E+4
  -2.56664E+4   1.67758E+4
  -2.54903E+4   1.66835E+4
  -2.53046E+4   1.66332E+4
  -2.51027E+4   1.66126E+4
  -2.48792E+4   1.66675E+4
  -2.47354E+4   1.65852E+4
  -2.45777E+4   1.65399E+4
  -2.43037E+4   1.65679E+4
  -2.41877E+4   1.64372E+4
  -2.39404E+4   1.64680E+4
  -2.37633E+4   1.63863E+4
  -2.35113E+4   1.63441E+4
  -2.33618E+4   1.63576E+4
  -2.32291E+4   1.62555E+4
  -2.30411E+4   1.61772E+4
  -2.28756E+4   1.61129E+4
  -2.27336E+4   1.59993E+4
  -2.23612E+4   1.59924E+4
  -2.21832E+4   1.59948E+4
  -2.20186E+4   1.59808E+4
  -2.18101E+4   1.58217E+4
  -2.15963E+4   1.58402E+4
  -2.14242E+4   1.58266E+4
  -2.12901E+4   1.57393E+4
  -2.10425E+4   1.55873E+4
  -2.08175E+4   1.56413E+4
  -2.04827E+4   1.56016E+4
  -2.03826E+4   1.56554E+4
  -2.00905E+4   1.55122E+4
  -1.99610E+4   1.53381E+4
  -1.97650E+4   1.54202E+4
  -1.94343E+4   1.53702E+4
  -1.93044E+4   1.52910E+4
  -1.90652E+4   1.52710E+4
  -1.88417E+4   1.52523E+4
  -1.86524E+4   1.51748E+4
  -1.84061E+4   1.51226E+4
  -1.82455E+4   1.50708E+4
  -1.80404E+4   1.50213E+4
  -1.77358E+4   1.50387E+4
  -1.76327E+4   1.50235E+4
  -1.73828E+4   1.50314E+4
  -1.72046E+4   1.50090E+4
  -1.70514E+4   1.49695E+4
  -1.68770E+4   1.49275E+4
  -1.66044E+4   1.48936E+4
  -1.64598E+4   1.48668E+4
  -1.62709E+4   1.47822E+4
  -1.60996E+4   1.47905E+4
  -1.58771E+4   1.46923E+4
  -1.57514E+4   1.46398E+4
  -1.55423E+4   1.45800E+4
  -1.53552E+4   1.46000E+4
  -1.51536E+4   1.45075E+4
  -1.49528E+4   1.44715E+4
  -1.48146E+4   1.44608E+4
  -1.46375E+4   1.43763E+4
  -1.44180E+4   1.43763E+4
  -1.42884E+4   1.43752E+4
  -1.41018E+4   1.43127E+4
  -1.38965E+4   1.42430E+4
  -1.37398E+4   1.41758E+4
  -1.36123E+4   1.41457E+4
  -1.34122E+4   1.41825E+4
  -1.33458E+4   1.40705E+4
  -1.32174E+4   1.40688E+4
  -1.29996E+4   1.39960E+4
  -1.28504E+4   1.39466E+4
  -1.26269E+4   1.38888E+4
  -1.25563E+4   1.38559E+4
  -1.23041E+4   1.37973E+4
  -1.22270E+4   1.37603E+4
  -1.20142E+4   1.37476E+4
  -1.19357E+4   1.36835E+4
  -1.17127E+4   1.36454E+4
  -1.16034E+4   1.35400E+4
  -1.14234E+4   1.35274E+4
  -1.12771E+4   1.35274E+4
  -1.11251E+4   1.34124E+4
  -1.09970E+4   1.33512E+4
  -1.08658E+4   1.33139E+4
  -1.07038E+4   1.32680E+4
  -1.04964E+4   1.32001E+4
  -1.03654E+4   1.31370E+4
  -1.01992E+4   1.31452E+4
  -1.01252E+4   1.30613E+4
  -9.96814E+3   1.31261E+4
  -9.86848E+3   1.30570E+4
  -9.63932E+3   1.29748E+4
  -9.56369E+3   1.28198E+4
  -9.42701E+3   1.28977E+4
  -9.30626E+3   1.27599E+4
  -9.20092E+3   1.27877E+4
  -9.05872E+3   1.27048E+4
  -8.91563E+3   1.26294E+4
  -8.77041E+3   1.26210E+4
  -8.64481E+3   1.24747E+4
  -8.49101E+3   1.24939E+4
  -8.36590E+3   1.24350E+4
  -8.21965E+3   1.24233E+4
  -8.03153E+3   1.23578E+4
  -7.97674E+3   1.22700E+4
  -7.87040E+3   1.22745E+4
  -7.72039E+3   1.21870E+4
  -7.61713E+3   1.21893E+4
  -7.56796E+3   1.20579E+4
  -7.35815E+3   1.20988E+4
  -7.28488E+3   1.20106E+4
  -7.18807E+3   1.18984E+4
  -7.09231E+3   1.18853E+4
  -6.87837E+3   1.18479E+4
  -6.83992E+3   1.18105E+4
  -6.73450E+3   1.16746E+4
  -6.61070E+3   1.16576E+4
  -6.49815E+3   1.15700E+4
  -6.46651E+3   1.15356E+4
  -6.24445E+3   1.15151E+4
  -6.17147E+3   1.14634E+4
  -6.14336E+3   1.13891E+4
  -6.00653E+3   1.13106E+4
  -5.91421E+3   1.12455E+4
  -5.80197E+3   1.11787E+4
  -5.69156E+3   1.11368E+4
  -5.57651E+3   1.10280E+4
  -5.48075E+3   1.09622E+4
  -5.35117E+3   1.09333E+4
  -5.30012E+3   1.08644E+4
  -5.27549E+3   1.07592E+4
  -5.12614E+3   1.06924E+4
  -5.03102E+3   1.06630E+4
  -4.93677E+3   1.06017E+4
  -4.91095E+3   1.04961E+4
  -4.78649E+3   1.04500E+4
  -4.70834E+3   1.03921E+4
  -4.55134E+3   1.03654E+4
  -4.53608E+3   1.02759E+4
  -4.41751E+3   1.02308E+4
  -4.32954E+3   1.01642E+4
  -4.28406E+3   1.00789E+4
  -4.14299E+3   1.00051E+4
  -4.10758E+3   9.93676E+3
  -4.07884E+3   9.83819E+3
  -3.84569E+3   9.80818E+3
  -3.81079E+3   9.78841E+3
  -3.70924E+3   9.67458E+3
  -3.69439E+3   9.64471E+3
  -3.54823E+3   9.52691E+3
  -3.51780E+3   9.56117E+3
  -3.44948E+3   9.43289E+3
  -3.40295E+3   9.33358E+3
  -3.30633E+3   9.31467E+3
  -3.22154E+3   9.30742E+3
  -3.12129E+3   9.21945E+3
  -3.13016E+3   9.11427E+3
  -2.94329E+3   9.07029E+3
  -2.96170E+3   9.02798E+3
  -2.87080E+3   8.93487E+3
  -2.82788E+3   8.91224E+3
  -2.74443E+3   8.83039E+3
  -2.71410E+3   8.78634E+3
  -2.61953E+3   8.70280E+3
  -2.52306E+3   8.64898E+3
  -2.40273E+3   8.54243E+3
  -2.34262E+3   8.51548E+3
  -2.35373E+3   8.44385E+3
  -2.25844E+3   8.44951E+3
  -2.22116E+3   8.31424E+3
  -2.14471E+3   8.28282E+3
  -2.08928E+3   8.17443E+3
  -2.03319E+3   8.19127E+3
  -1.96297E+3   8.10049E+3
  -1.88245E+3   8.06950E+3
  -1.83247E+3   7.98839E+3
  -1.67608E+3   7.97360E+3
  -1.77832E+3   7.86419E+3
  -1.68820E+3   7.81435E+3
  -1.57896E+3   7.76823E+3
  -1.52590E+3   7.68405E+3
  -1.47822E+3   7.61938E+3
  -1.43139E+3   7.59251E+3
  -1.38766E+3   7.53090E+3
  -1.35598E+3   7.45453E+3
  -1.34948E+3   7.41318E+3
  -1.21908E+3   7.29473E+3
  -1.16852E+3   7.32579E+3
  -1.12102E+3   7.18582E+3
  -1.06752E+3   7.13966E+3
  -9.59317E+2   7.08803E+3
  -9.29394E+2   7.11904E+3
  -8.42429E+2   6.98294E+3
  -8.75018E+2   6.92662E+3
  -7.85827E+2   6.87506E+3
  -7.20559E+2   6.82164E+3
  -6.87240E+2   6.78597E+3
  -6.63480E+2   6.65032E+3
  -5.92885E+2   6.64280E+3
  -5.73395E+2   6.60177E+3
  -5.09161E+2   6.53314E+3
  -4.41830E+2   6.49787E+3
  -3.48793E+2   6.48520E+3
  -3.46816E+2   6.42073E+3
  -3.66379E+2   6.33224E+3
  -2.79433E+2   6.28069E+3
  -2.77359E+2   6.25616E+3
  -2.02398E+2   6.18009E+3
  -1.06397E+2   6.09286E+3
  -4.16032E+1   6.05542E+3
  -4.71053E+1   5.96112E+3
  -5.64099E+1   5.95215E+3
   9.11402E+0   5.98724E+3
   4.84007E+1   5.85536E+3
   1.29200E+2   5.80855E+3
   1.29081E+2   5.76106E+3
   1.08622E+2   5.67058E+3
   1.34486E+2   5.68997E+3
   2.37222E+2   5.60352E+3
   2.65855E+2   5.55390E+3
   3.38146E+2   5.48976E+3
   3.70288E+2   5.48530E+3
   3.78535E+2   5.46270E+3
   4.00951E+2   5.43038E+3
   3.73431E+2   5.35125E+3
   4.34967E+2   5.25358E+3
   4.18780E+2   5.24199E+3
   5.41151E+2   5.12602E+3
   5.25300E+2   5.16875E+3
   6.03343E+2   5.06860E+3
   6.35203E+2   5.03562E+3
   6.43832E+2   5.02461E+3
   6.45898E+2   4.94239E+3
   6.76791E+2   4.86530E+3
   6.77953E+2   4.84770E+3
   7.74688E+2   4.86868E+3
   7.01753E+2   4.79204E+3
   7.89962E+2   4.74100E+3
   7.97721E+2   4.67712E+3
   8.56807E+2   4.63604E+3
   8.06200E+2   4.58791E+3
   8.78274E+2   4.57903E+3
   9.24975E+2   4.50397E+3
   8.71876E+2   4.51445E+3
   8.80309E+2   4.38113E+3
   8.85647E+2   4.37221E+3
   1.03068E+3   4.32953E+3
   1.07248E+3   4.23407E+3
   1.02547E+3   4.26104E+3
   1.10266E+3   4.24538E+3
   1.02757E+3   4.15726E+3
   1.12507E+3   4.16493E+3
   1.11201E+3   4.13480E+3
   1.17783E+3   4.02488E+3
   1.12162E+3   3.97429E+3
   1.18513E+3   3.91697E+3
   1.19023E+3   3.91130E+3
   1.14427E+3   3.90507E+3
   1.17944E+3   3.88069E+3
   1.23940E+3   3.84983E+3
   1.23010E+3   3.81521E+3
   1.26073E+3   3.69912E+3
   1.32374E+3   3.68218E+3
   1.28661E+3   3.67686E+3
   1.39004E+3   3.65930E+3
   1.32083E+3   3.64573E+3
   1.37499E+3   3.57383E+3
   1.37059E+3   3.55787E+3
   1.41731E+3   3.48351E+3
   1.41885E+3   3.47298E+3
   1.39319E+3   3.45600E+3
   1.44299E+3   3.45287E+3
   1.45750E+3   3.32819E+3
   1.46283E+3   3.33034E+3
   1.49837E+3   3.30854E+3
   1.49076E+3   3.28470E+3
   1.49929E+3   3.19078E+3
   1.55377E+3   3.24809E+3
   1.49155E+3   3.20121E+3
   1.60377E+3   3.07063E+3
   1.57891E+3   3.09078E+3
   1.54957E+3   3.07830E+3
   1.54383E+3   3.06486E+3
   1.55895E+3   2.96627E+3
   1.54144E+3   2.97131E+3
   1.59464E+3   2.88764E+3
   1.58770E+3   2.90297E+3
   1.62071E+3   2.88079E+3
   1.67560E+3   2.78033E+3
   1.62085E+3   2.78595E+3
   1.62414E+3   2.82378E+3
   1.74951E+3   2.67975E+3
   1.62878E+3   2.76161E+3
   1.68285E+3   2.64136E+3
   1.75009E+3   2.67497E+3
   1.65385E+3   2.59776E+3
   1.68403E+3   2.53852E+3
   1.67363E+3   2.54423E+3
   1.71413E+3   2.51330E+3
