 
 $NMID
 ID=''
 FMTDAT='(2E13.5)'
 TRAMP=   1.00000E+0
 VOLUME=   1.00000E+0
 $END
  -1.17624E+4   1.10031E+4
  -3.70409E+4   1.88618E+4
  -3.29782E+4   2.54717E+4
  -3.01770E+4   2.38721E+4
  -3.18760E+4   2.40370E+4
  -3.07663E+4   2.57520E+4
  -2.96523E+4   2.46287E+4
  -3.03946E+4   2.44289E+4
  -2.96103E+4   2.54229E+4
  -2.87592E+4   2.48072E+4
  -2.92635E+4   2.46214E+4
  -2.84893E+4   2.52860E+4
  -2.78055E+4   2.50046E+4
  -2.81345E+4   2.48055E+4
  -2.76746E+4   2.52092E+4
  -2.69815E+4   2.48352E+4
  -2.70966E+4   2.47777E+4
  -2.65454E+4   2.51688E+4
  -2.58968E+4   2.49063E+4
  -2.58562E+4   2.48391E+4
  -2.53219E+4   2.49545E+4
  -2.46037E+4   2.49118E+4
  -2.45093E+4   2.49142E+4
  -2.40446E+4   2.50464E+4
  -2.34149E+4   2.49569E+4
  -2.31873E+4   2.51344E+4
  -2.27777E+4   2.53273E+4
  -2.23685E+4   2.52255E+4
  -2.21968E+4   2.51313E+4
  -2.18451E+4   2.52317E+4
  -2.14501E+4   2.53399E+4
  -2.12622E+4   2.53509E+4
  -2.10931E+4   2.54546E+4
  -2.07132E+4   2.52550E+4
  -2.05810E+4   2.52253E+4
  -2.01861E+4   2.52262E+4
  -1.98050E+4   2.50766E+4
  -1.94162E+4   2.51010E+4
  -1.90932E+4   2.51122E+4
  -1.86900E+4   2.50065E+4
  -1.83323E+4   2.48887E+4
  -1.80359E+4   2.49355E+4
  -1.76964E+4   2.47070E+4
  -1.72840E+4   2.45559E+4
  -1.68841E+4   2.46235E+4
  -1.65335E+4   2.46154E+4
  -1.61667E+4   2.46169E+4
  -1.56608E+4   2.45035E+4
  -1.52981E+4   2.46446E+4
  -1.50035E+4   2.45821E+4
  -1.46482E+4   2.45841E+4
  -1.42763E+4   2.44740E+4
  -1.37348E+4   2.45085E+4
  -1.34564E+4   2.45317E+4
  -1.30888E+4   2.46002E+4
  -1.28128E+4   2.45748E+4
  -1.24181E+4   2.46030E+4
  -1.21366E+4   2.45713E+4
  -1.18779E+4   2.45522E+4
  -1.15250E+4   2.45703E+4
  -1.11462E+4   2.45140E+4
  -1.07856E+4   2.44881E+4
  -1.04612E+4   2.45761E+4
  -1.02182E+4   2.44762E+4
  -9.91390E+3   2.45478E+4
  -9.56217E+3   2.44662E+4
  -9.33165E+3   2.45292E+4
  -9.07404E+3   2.45187E+4
  -8.77653E+3   2.44825E+4
  -8.54167E+3   2.44484E+4
  -8.25468E+3   2.45077E+4
  -8.05078E+3   2.44629E+4
  -7.71379E+3   2.43810E+4
  -7.51965E+3   2.43325E+4
  -7.15038E+3   2.42974E+4
  -6.96911E+3   2.43291E+4
  -6.71663E+3   2.41750E+4
  -6.51142E+3   2.41673E+4
  -6.29852E+3   2.41098E+4
  -5.97476E+3   2.40334E+4
  -5.80220E+3   2.39401E+4
  -5.63291E+3   2.38423E+4
  -5.26482E+3   2.37345E+4
  -5.12273E+3   2.36780E+4
  -4.93525E+3   2.35450E+4
  -4.74403E+3   2.33925E+4
  -4.56030E+3   2.32844E+4
  -4.28580E+3   2.31287E+4
  -4.13428E+3   2.30922E+4
  -3.83394E+3   2.29529E+4
  -3.61022E+3   2.28512E+4
  -3.35543E+3   2.26847E+4
  -3.04996E+3   2.26519E+4
  -2.87108E+3   2.25006E+4
  -2.72725E+3   2.23441E+4
  -2.50168E+3   2.21817E+4
  -2.15612E+3   2.20182E+4
  -1.94915E+3   2.19257E+4
  -1.76793E+3   2.18361E+4
  -1.58266E+3   2.16939E+4
  -1.41475E+3   2.14909E+4
  -1.14760E+3   2.13785E+4
  -9.36141E+2   2.12207E+4
  -6.81753E+2   2.11564E+4
  -5.11093E+2   2.09978E+4
  -3.36808E+2   2.07841E+4
  -1.12896E+2   2.06487E+4
   1.66367E+2   2.04998E+4
   3.63598E+2   2.02695E+4
   5.32128E+2   2.01528E+4
   7.73052E+2   1.99276E+4
   9.89448E+2   1.98202E+4
   1.18844E+3   1.96830E+4
   1.35709E+3   1.95135E+4
   1.52828E+3   1.94407E+4
   1.69634E+3   1.91827E+4
   1.86365E+3   1.90169E+4
   2.04407E+3   1.88550E+4
   2.25638E+3   1.85760E+4
   2.45754E+3   1.84136E+4
   2.59449E+3   1.82658E+4
   2.81398E+3   1.81120E+4
   2.91302E+3   1.79003E+4
   3.12413E+3   1.76891E+4
   3.34174E+3   1.75457E+4
   3.50623E+3   1.73112E+4
   3.65048E+3   1.71549E+4
   3.87683E+3   1.69781E+4
   4.10959E+3   1.67436E+4
   4.25500E+3   1.66607E+4
   4.44226E+3   1.64520E+4
   4.61329E+3   1.62599E+4
   4.76910E+3   1.60506E+4
   4.99701E+3   1.58606E+4
   5.13778E+3   1.57480E+4
   5.26965E+3   1.56125E+4
   5.48281E+3   1.54246E+4
   5.60104E+3   1.52563E+4
   5.80917E+3   1.50927E+4
   6.02461E+3   1.48916E+4
   6.14039E+3   1.47055E+4
   6.28623E+3   1.45436E+4
   6.44507E+3   1.43544E+4
   6.57749E+3   1.41829E+4
   6.76683E+3   1.40953E+4
   6.81945E+3   1.38198E+4
   6.98694E+3   1.36647E+4
   7.22040E+3   1.35325E+4
   7.33727E+3   1.33721E+4
   7.43853E+3   1.32519E+4
   7.59881E+3   1.30670E+4
   7.66460E+3   1.29130E+4
   7.82138E+3   1.26930E+4
   7.92811E+3   1.25538E+4
   8.07317E+3   1.23484E+4
   8.22006E+3   1.21902E+4
   8.32249E+3   1.20449E+4
   8.45343E+3   1.18422E+4
   8.53687E+3   1.17040E+4
   8.61146E+3   1.15226E+4
   8.74170E+3   1.13955E+4
   8.77291E+3   1.11796E+4
   8.91038E+3   1.09920E+4
   9.05164E+3   1.08612E+4
   9.07680E+3   1.06879E+4
   9.20350E+3   1.05156E+4
   9.23832E+3   1.03652E+4
   9.32707E+3   1.01527E+4
   9.44258E+3   9.98756E+3
   9.52845E+3   9.84642E+3
   9.60735E+3   9.66839E+3
   9.68482E+3   9.52838E+3
   9.72175E+3   9.29314E+3
   9.78856E+3   9.16946E+3
   9.80303E+3   8.96718E+3
   9.95318E+3   8.88967E+3
   1.00376E+4   8.66735E+3
   1.00431E+4   8.43922E+3
   1.01062E+4   8.38813E+3
   1.01683E+4   8.23469E+3
   1.02089E+4   8.02780E+3
   1.02644E+4   7.89000E+3
   1.03378E+4   7.76541E+3
   1.03120E+4   7.52890E+3
   1.03468E+4   7.39201E+3
   1.03685E+4   7.24777E+3
   1.04257E+4   7.06666E+3
   1.04718E+4   6.94443E+3
   1.05268E+4   6.75243E+3
   1.05380E+4   6.63157E+3
   1.05577E+4   6.43340E+3
   1.05609E+4   6.28691E+3
   1.05622E+4   6.11186E+3
   1.05787E+4   5.95949E+3
   1.05757E+4   5.88936E+3
   1.05943E+4   5.70180E+3
   1.06695E+4   5.48211E+3
   1.06860E+4   5.43430E+3
   1.06592E+4   5.20812E+3
   1.06498E+4   5.07582E+3
   1.05987E+4   4.94885E+3
   1.06698E+4   4.76921E+3
   1.06874E+4   4.71697E+3
   1.06277E+4   4.55215E+3
   1.06496E+4   4.39157E+3
   1.05953E+4   4.17737E+3
   1.06678E+4   4.06918E+3
   1.05975E+4   3.94419E+3
   1.06162E+4   3.73223E+3
   1.05873E+4   3.60171E+3
   1.05855E+4   3.52521E+3
   1.05617E+4   3.41874E+3
   1.05315E+4   3.26117E+3
   1.05724E+4   3.05568E+3
   1.06251E+4   2.97371E+3
   1.05823E+4   2.76975E+3
   1.05026E+4   2.64017E+3
   1.04083E+4   2.57147E+3
   1.03920E+4   2.36795E+3
   1.04492E+4   2.35185E+3
   1.03446E+4   2.20884E+3
   1.03358E+4   2.05802E+3
   1.03627E+4   1.93024E+3
   1.02975E+4   1.84871E+3
   1.03255E+4   1.71005E+3
   1.02384E+4   1.51036E+3
   1.02124E+4   1.46191E+3
   1.01271E+4   1.38324E+3
   1.00854E+4   1.26783E+3
   9.98329E+3   1.11459E+3
   1.00132E+4   1.05551E+3
   9.89462E+3   8.59100E+2
   9.85901E+3   7.93557E+2
   9.88309E+3   6.41472E+2
   9.82646E+3   5.83082E+2
   9.79523E+3   4.71303E+2
   9.77737E+3   3.06072E+2
   9.70624E+3   2.55372E+2
   9.60197E+3   1.03573E+2
   9.51535E+3   5.62455E+1
   9.42062E+3  -8.94893E+1
   9.44942E+3  -2.00630E+2
   9.43349E+3  -2.45301E+2
   9.28549E+3  -3.65761E+2
   9.21559E+3  -4.65514E+2
   9.21055E+3  -5.10779E+2
   9.21234E+3  -6.38939E+2
   9.10120E+3  -7.37208E+2
   9.04890E+3  -8.60285E+2
   8.96161E+3  -9.94757E+2
   8.86178E+3  -9.80679E+2
   8.87896E+3  -1.06097E+3
   8.75825E+3  -1.17845E+3
   8.68202E+3  -1.27345E+3
   8.70357E+3  -1.40469E+3
   8.60530E+3  -1.49173E+3
   8.54088E+3  -1.52889E+3
   8.42347E+3  -1.64198E+3
   8.36163E+3  -1.66170E+3
   8.30639E+3  -1.81109E+3
   8.26759E+3  -1.83473E+3
   8.13865E+3  -1.92607E+3
   8.10728E+3  -1.99647E+3
   8.06152E+3  -2.05837E+3
   8.00393E+3  -2.13358E+3
   7.87126E+3  -2.22125E+3
   7.83631E+3  -2.30085E+3
   7.76530E+3  -2.35168E+3
   7.70486E+3  -2.36909E+3
   7.64112E+3  -2.43764E+3
   7.54659E+3  -2.55310E+3
   7.54141E+3  -2.62641E+3
   7.39597E+3  -2.69349E+3
   7.37662E+3  -2.68582E+3
   7.31952E+3  -2.78224E+3
   7.17125E+3  -2.74850E+3
   7.05936E+3  -2.88579E+3
   7.14686E+3  -2.90603E+3
   7.03174E+3  -2.98266E+3
   6.95556E+3  -3.04647E+3
   6.83171E+3  -3.11401E+3
   6.84471E+3  -3.17072E+3
   6.78153E+3  -3.15877E+3
   6.67447E+3  -3.20868E+3
   6.62455E+3  -3.31035E+3
   6.56349E+3  -3.27722E+3
   6.47742E+3  -3.36000E+3
   6.40596E+3  -3.41284E+3
   6.27040E+3  -3.45647E+3
   6.30014E+3  -3.45080E+3
   6.15416E+3  -3.61552E+3
   6.12095E+3  -3.62278E+3
   6.04085E+3  -3.61922E+3
   6.01968E+3  -3.72541E+3
   5.91913E+3  -3.69929E+3
   5.88832E+3  -3.75657E+3
   5.82775E+3  -3.73455E+3
   5.79055E+3  -3.80654E+3
   5.69703E+3  -3.90232E+3
   5.54316E+3  -3.86879E+3
   5.53304E+3  -3.93718E+3
   5.45484E+3  -3.94728E+3
   5.39541E+3  -3.92883E+3
   5.35245E+3  -4.06336E+3
   5.32446E+3  -3.97611E+3
   5.22472E+3  -4.01341E+3
   5.13587E+3  -4.08568E+3
   4.97925E+3  -4.16544E+3
   4.98283E+3  -4.12909E+3
   4.95866E+3  -4.12710E+3
   4.93179E+3  -4.20157E+3
   4.84646E+3  -4.21918E+3
   4.80086E+3  -4.26424E+3
   4.73162E+3  -4.23271E+3
   4.55658E+3  -4.33176E+3
   4.54346E+3  -4.33788E+3
   4.53856E+3  -4.24906E+3
   4.43041E+3  -4.28435E+3
   4.42799E+3  -4.36205E+3
   4.27143E+3  -4.31619E+3
   4.26066E+3  -4.39886E+3
   4.18667E+3  -4.40833E+3
   4.13355E+3  -4.35478E+3
   4.09033E+3  -4.39431E+3
   4.05218E+3  -4.43127E+3
   4.00454E+3  -4.47175E+3
   3.91468E+3  -4.45435E+3
   3.75411E+3  -4.47073E+3
   3.75137E+3  -4.53007E+3
   3.75618E+3  -4.52457E+3
   3.63774E+3  -4.52026E+3
   3.51461E+3  -4.53742E+3
   3.52870E+3  -4.50913E+3
   3.47397E+3  -4.49045E+3
   3.34207E+3  -4.57527E+3
   3.33513E+3  -4.53710E+3
   3.28540E+3  -4.56477E+3
   3.18787E+3  -4.59507E+3
   3.15530E+3  -4.54885E+3
   3.13393E+3  -4.55422E+3
   3.02534E+3  -4.59740E+3
   2.95436E+3  -4.48962E+3
   2.93956E+3  -4.55903E+3
   2.88021E+3  -4.58870E+3
   2.84444E+3  -4.56665E+3
   2.78219E+3  -4.52555E+3
   2.62516E+3  -4.51512E+3
   2.62781E+3  -4.57010E+3
   2.62739E+3  -4.62107E+3
   2.58403E+3  -4.53433E+3
   2.45651E+3  -4.55067E+3
   2.43927E+3  -4.53104E+3
   2.36240E+3  -4.51365E+3
   2.32405E+3  -4.52786E+3
   2.26561E+3  -4.50655E+3
   2.19528E+3  -4.41460E+3
   2.14574E+3  -4.52536E+3
   2.06778E+3  -4.47398E+3
   2.08119E+3  -4.53938E+3
   2.02329E+3  -4.54495E+3
   1.92916E+3  -4.50198E+3
   1.88303E+3  -4.43431E+3
   1.86848E+3  -4.36685E+3
   1.79887E+3  -4.39398E+3
   1.74173E+3  -4.45485E+3
   1.76744E+3  -4.39861E+3
   1.72139E+3  -4.37314E+3
