 
 $NMID
 ID=''
 FMTDAT='(2E13.5)'
 TRAMP=   1.00000E+0
 VOLUME=   1.00000E+0
 $END
  -2.17648E+4   2.34979E+3
  -5.55539E+4  -1.03224E+4
  -5.62626E+4  -7.74499E+2
  -5.18303E+4  -1.12623E+3
  -5.39735E+4  -3.13958E+3
  -5.40389E+4  -1.08503E+3
  -5.20777E+4  -1.90036E+3
  -5.29580E+4  -3.30062E+3
  -5.30183E+4  -2.18663E+3
  -5.18033E+4  -2.76863E+3
  -5.20798E+4  -3.73168E+3
  -5.20123E+4  -2.73547E+3
  -5.11102E+4  -2.97278E+3
  -5.14011E+4  -3.84342E+3
  -5.12962E+4  -3.28686E+3
  -5.03402E+4  -3.50294E+3
  -5.04610E+4  -4.07526E+3
  -5.01642E+4  -3.59060E+3
  -4.94236E+4  -3.74272E+3
  -4.94569E+4  -4.21673E+3
  -4.90506E+4  -3.99761E+3
  -4.83344E+4  -3.91583E+3
  -4.83949E+4  -4.25991E+3
  -4.81406E+4  -4.38503E+3
  -4.74780E+4  -4.45085E+3
  -4.73609E+4  -4.67369E+3
  -4.71843E+4  -4.75607E+3
  -4.65255E+4  -5.00627E+3
  -4.63724E+4  -5.41497E+3
  -4.60341E+4  -5.54413E+3
  -4.56178E+4  -5.56613E+3
  -4.55594E+4  -5.78680E+3
  -4.52856E+4  -5.98746E+3
  -4.49063E+4  -6.17559E+3
  -4.46869E+4  -6.30946E+3
  -4.44977E+4  -6.33980E+3
  -4.40879E+4  -6.50793E+3
  -4.38931E+4  -6.56481E+3
  -4.37200E+4  -6.53643E+3
  -4.34564E+4  -6.70288E+3
  -4.32586E+4  -6.76329E+3
  -4.31118E+4  -7.00931E+3
  -4.27059E+4  -7.23444E+3
  -4.23660E+4  -7.25332E+3
  -4.22104E+4  -7.30731E+3
  -4.19342E+4  -7.35097E+3
  -4.16339E+4  -7.64053E+3
  -4.14894E+4  -7.69752E+3
  -4.12127E+4  -7.66523E+3
  -4.09235E+4  -7.79499E+3
  -4.06408E+4  -7.97221E+3
  -4.04174E+4  -8.08637E+3
  -4.01186E+4  -8.10024E+3
  -3.98896E+4  -8.14293E+3
  -3.96047E+4  -8.21767E+3
  -3.93907E+4  -8.40295E+3
  -3.91238E+4  -8.46914E+3
  -3.88346E+4  -8.56869E+3
  -3.84899E+4  -8.76016E+3
  -3.81002E+4  -8.84985E+3
  -3.78276E+4  -8.91840E+3
  -3.74565E+4  -8.97217E+3
  -3.72422E+4  -9.01658E+3
  -3.69669E+4  -9.19202E+3
  -3.66527E+4  -9.33874E+3
  -3.62635E+4  -9.34059E+3
  -3.60308E+4  -9.44331E+3
  -3.57644E+4  -9.55502E+3
  -3.54473E+4  -9.64948E+3
  -3.50854E+4  -9.69002E+3
  -3.47683E+4  -9.80835E+3
  -3.44700E+4  -9.85015E+3
  -3.41993E+4  -9.98282E+3
  -3.38278E+4  -9.98492E+3
  -3.35084E+4  -9.97278E+3
  -3.32495E+4  -9.99815E+3
  -3.29948E+4  -1.00516E+4
  -3.25243E+4  -1.01050E+4
  -3.22305E+4  -1.01274E+4
  -3.19041E+4  -1.01045E+4
  -3.17225E+4  -1.01179E+4
  -3.13988E+4  -1.01961E+4
  -3.10541E+4  -1.02000E+4
  -3.07631E+4  -1.02346E+4
  -3.05439E+4  -1.01972E+4
  -3.01828E+4  -1.03859E+4
  -2.98983E+4  -1.04159E+4
  -2.95996E+4  -1.03743E+4
  -2.92439E+4  -1.03265E+4
  -2.89553E+4  -1.03436E+4
  -2.87323E+4  -1.04082E+4
  -2.84364E+4  -1.03604E+4
  -2.82077E+4  -1.03105E+4
  -2.79364E+4  -1.02748E+4
  -2.77161E+4  -1.03602E+4
  -2.74071E+4  -1.02980E+4
  -2.70878E+4  -1.03181E+4
  -2.68900E+4  -1.02529E+4
  -2.67149E+4  -1.02932E+4
  -2.64265E+4  -1.03987E+4
  -2.60973E+4  -1.03725E+4
  -2.58479E+4  -1.03389E+4
  -2.56410E+4  -1.02871E+4
  -2.55034E+4  -1.02760E+4
  -2.52681E+4  -1.03271E+4
  -2.50101E+4  -1.02905E+4
  -2.48013E+4  -1.03408E+4
  -2.45755E+4  -1.03611E+4
  -2.43559E+4  -1.03590E+4
  -2.40283E+4  -1.04083E+4
  -2.38666E+4  -1.03275E+4
  -2.35999E+4  -1.03101E+4
  -2.34646E+4  -1.03609E+4
  -2.32538E+4  -1.03383E+4
  -2.29949E+4  -1.03992E+4
  -2.28024E+4  -1.04398E+4
  -2.25985E+4  -1.04676E+4
  -2.23443E+4  -1.04774E+4
  -2.21828E+4  -1.04562E+4
  -2.19465E+4  -1.05106E+4
  -2.17267E+4  -1.05509E+4
  -2.15510E+4  -1.06139E+4
  -2.13276E+4  -1.06372E+4
  -2.10226E+4  -1.06409E+4
  -2.08501E+4  -1.06234E+4
  -2.06322E+4  -1.06622E+4
  -2.04781E+4  -1.07403E+4
  -2.02183E+4  -1.07006E+4
  -2.00851E+4  -1.07208E+4
  -1.98619E+4  -1.08086E+4
  -1.96378E+4  -1.08590E+4
  -1.93459E+4  -1.08921E+4
  -1.91804E+4  -1.08528E+4
  -1.89770E+4  -1.08734E+4
  -1.88037E+4  -1.09477E+4
  -1.85599E+4  -1.10139E+4
  -1.83811E+4  -1.09890E+4
  -1.81591E+4  -1.10344E+4
  -1.79731E+4  -1.10391E+4
  -1.77975E+4  -1.10440E+4
  -1.75369E+4  -1.10456E+4
  -1.73047E+4  -1.11660E+4
  -1.71835E+4  -1.11326E+4
  -1.70092E+4  -1.11351E+4
  -1.67722E+4  -1.12553E+4
  -1.66052E+4  -1.12201E+4
  -1.64316E+4  -1.11884E+4
  -1.62223E+4  -1.12397E+4
  -1.60742E+4  -1.12348E+4
  -1.58658E+4  -1.12928E+4
  -1.57039E+4  -1.12267E+4
  -1.55069E+4  -1.12246E+4
  -1.53034E+4  -1.12974E+4
  -1.51241E+4  -1.13074E+4
  -1.49622E+4  -1.12832E+4
  -1.48298E+4  -1.12803E+4
  -1.45607E+4  -1.13340E+4
  -1.45254E+4  -1.12713E+4
  -1.42902E+4  -1.12242E+4
  -1.41786E+4  -1.12668E+4
  -1.39982E+4  -1.13091E+4
  -1.39005E+4  -1.12649E+4
  -1.36890E+4  -1.12151E+4
  -1.35225E+4  -1.12974E+4
  -1.33930E+4  -1.12575E+4
  -1.32454E+4  -1.12524E+4
  -1.30530E+4  -1.12496E+4
  -1.29196E+4  -1.12543E+4
  -1.28264E+4  -1.11859E+4
  -1.26795E+4  -1.12205E+4
  -1.25572E+4  -1.11859E+4
  -1.23686E+4  -1.11881E+4
  -1.21715E+4  -1.12022E+4
  -1.20812E+4  -1.11740E+4
  -1.19011E+4  -1.12076E+4
  -1.17703E+4  -1.11192E+4
  -1.16642E+4  -1.10571E+4
  -1.15681E+4  -1.10443E+4
  -1.15050E+4  -1.10830E+4
  -1.12838E+4  -1.10547E+4
  -1.12471E+4  -1.11250E+4
  -1.10073E+4  -1.10234E+4
  -1.09601E+4  -1.10569E+4
  -1.08137E+4  -1.10013E+4
  -1.06362E+4  -1.09856E+4
  -1.05899E+4  -1.09801E+4
  -1.04242E+4  -1.09467E+4
  -1.03607E+4  -1.09502E+4
  -1.02437E+4  -1.09737E+4
  -1.00913E+4  -1.08990E+4
  -9.95849E+3  -1.08568E+4
  -9.85602E+3  -1.08867E+4
  -9.76043E+3  -1.08018E+4
  -9.67376E+3  -1.08127E+4
  -9.51947E+3  -1.08109E+4
  -9.41577E+3  -1.08048E+4
  -9.31622E+3  -1.07171E+4
  -9.19000E+3  -1.08145E+4
  -9.11610E+3  -1.07263E+4
  -9.07622E+3  -1.06100E+4
  -8.93556E+3  -1.06235E+4
  -8.88921E+3  -1.06159E+4
  -8.71497E+3  -1.05841E+4
  -8.58769E+3  -1.05856E+4
  -8.59542E+3  -1.05321E+4
  -8.47784E+3  -1.05549E+4
  -8.33923E+3  -1.05142E+4
  -8.29595E+3  -1.03947E+4
  -8.17504E+3  -1.04132E+4
  -8.09072E+3  -1.03758E+4
  -7.96009E+3  -1.03585E+4
  -7.88836E+3  -1.02696E+4
  -7.80729E+3  -1.02824E+4
  -7.79613E+3  -1.02120E+4
  -7.64278E+3  -1.02103E+4
  -7.54922E+3  -1.01990E+4
  -7.47648E+3  -1.01188E+4
  -7.37376E+3  -1.00934E+4
  -7.28119E+3  -1.00336E+4
  -7.21590E+3  -9.99168E+3
  -7.20965E+3  -9.96655E+3
  -7.05252E+3  -9.89769E+3
  -7.05954E+3  -9.93021E+3
  -6.91676E+3  -9.91512E+3
  -6.87145E+3  -9.86211E+3
  -6.81318E+3  -9.74032E+3
  -6.73179E+3  -9.78344E+3
  -6.69516E+3  -9.76824E+3
  -6.58472E+3  -9.70002E+3
  -6.53294E+3  -9.64080E+3
  -6.46457E+3  -9.65703E+3
  -6.33776E+3  -9.66229E+3
  -6.26639E+3  -9.62455E+3
  -6.14532E+3  -9.52387E+3
  -6.11831E+3  -9.46985E+3
  -6.07197E+3  -9.42466E+3
  -6.08112E+3  -9.31847E+3
  -5.88365E+3  -9.36693E+3
  -5.90541E+3  -9.31467E+3
  -5.79246E+3  -9.30297E+3
  -5.72599E+3  -9.26073E+3
  -5.71722E+3  -9.22460E+3
  -5.63087E+3  -9.17078E+3
  -5.60470E+3  -9.20293E+3
  -5.51556E+3  -9.10397E+3
  -5.40244E+3  -9.08867E+3
  -5.36269E+3  -9.04652E+3
  -5.26196E+3  -9.01932E+3
  -5.24515E+3  -8.93027E+3
  -5.08348E+3  -8.92851E+3
  -5.09151E+3  -8.89841E+3
  -5.04554E+3  -8.90565E+3
  -4.96874E+3  -8.83800E+3
  -4.91755E+3  -8.76907E+3
  -4.82577E+3  -8.70668E+3
  -4.72223E+3  -8.72723E+3
  -4.70741E+3  -8.60583E+3
  -4.67163E+3  -8.60833E+3
  -4.64489E+3  -8.57183E+3
  -4.56607E+3  -8.50862E+3
  -4.43655E+3  -8.47857E+3
  -4.39522E+3  -8.38997E+3
  -4.33968E+3  -8.33965E+3
  -4.24120E+3  -8.31287E+3
  -4.22918E+3  -8.31293E+3
  -4.19302E+3  -8.30342E+3
  -4.10136E+3  -8.23468E+3
  -4.09253E+3  -8.16810E+3
  -3.98629E+3  -8.19377E+3
  -3.93828E+3  -8.08563E+3
  -3.83258E+3  -8.02099E+3
  -3.83803E+3  -7.98822E+3
  -3.77609E+3  -8.00137E+3
  -3.65339E+3  -7.88175E+3
  -3.66684E+3  -7.85416E+3
  -3.61652E+3  -7.82789E+3
  -3.45911E+3  -7.78184E+3
  -3.49842E+3  -7.79456E+3
  -3.40596E+3  -7.67593E+3
  -3.41326E+3  -7.68843E+3
  -3.38174E+3  -7.58970E+3
  -3.30445E+3  -7.58427E+3
  -3.21925E+3  -7.58126E+3
  -3.17280E+3  -7.48520E+3
  -3.06894E+3  -7.53358E+3
  -3.11297E+3  -7.51849E+3
  -3.03665E+3  -7.45530E+3
  -3.01732E+3  -7.36624E+3
  -2.92709E+3  -7.38664E+3
  -2.85085E+3  -7.32652E+3
  -2.79769E+3  -7.23929E+3
  -2.77178E+3  -7.18903E+3
  -2.73962E+3  -7.22736E+3
  -2.65405E+3  -7.19980E+3
  -2.70164E+3  -7.11410E+3
  -2.59445E+3  -7.10292E+3
  -2.49005E+3  -7.05008E+3
  -2.52553E+3  -7.00017E+3
  -2.42948E+3  -6.99632E+3
  -2.35305E+3  -6.95687E+3
  -2.35437E+3  -6.96700E+3
  -2.21329E+3  -6.85587E+3
  -2.24844E+3  -6.86719E+3
  -2.25080E+3  -6.83601E+3
  -2.20607E+3  -6.85978E+3
  -2.22573E+3  -6.73982E+3
  -2.10926E+3  -6.71702E+3
  -2.05686E+3  -6.69290E+3
  -2.14321E+3  -6.76896E+3
  -1.94378E+3  -6.65772E+3
  -1.86092E+3  -6.57424E+3
  -1.86734E+3  -6.63405E+3
  -1.85867E+3  -6.55829E+3
  -1.82744E+3  -6.50770E+3
  -1.84623E+3  -6.50768E+3
  -1.74467E+3  -6.50313E+3
  -1.73773E+3  -6.44257E+3
  -1.67751E+3  -6.43100E+3
  -1.60420E+3  -6.32051E+3
  -1.54436E+3  -6.31998E+3
  -1.56136E+3  -6.26813E+3
  -1.49856E+3  -6.23633E+3
  -1.42138E+3  -6.19308E+3
  -1.39729E+3  -6.19255E+3
  -1.40047E+3  -6.17078E+3
  -1.40577E+3  -6.05331E+3
  -1.34624E+3  -6.13350E+3
  -1.31346E+3  -6.08488E+3
  -1.25708E+3  -6.07930E+3
  -1.24373E+3  -5.95825E+3
  -1.17265E+3  -5.94293E+3
  -1.22319E+3  -5.97318E+3
  -1.16393E+3  -5.86891E+3
  -1.12829E+3  -5.88161E+3
  -1.11533E+3  -5.83432E+3
  -1.05752E+3  -5.82157E+3
  -1.08481E+3  -5.74676E+3
  -1.05625E+3  -5.74081E+3
  -1.02434E+3  -5.74416E+3
  -9.57882E+2  -5.68278E+3
  -9.31396E+2  -5.64342E+3
  -9.21705E+2  -5.61888E+3
  -8.72756E+2  -5.59993E+3
  -9.31109E+2  -5.53680E+3
  -8.22638E+2  -5.54150E+3
  -7.33781E+2  -5.51094E+3
  -6.90858E+2  -5.44486E+3
  -7.06526E+2  -5.45745E+3
  -7.07161E+2  -5.38263E+3
  -6.53572E+2  -5.38292E+3
  -7.03423E+2  -5.36595E+3
  -6.22006E+2  -5.27910E+3
  -6.50962E+2  -5.28973E+3
  -5.97955E+2  -5.19711E+3
  -5.64979E+2  -5.25700E+3
  -5.38905E+2  -5.17560E+3
  -5.40998E+2  -5.20428E+3
  -5.19423E+2  -5.17450E+3
  -5.16470E+2  -5.14123E+3
  -4.90738E+2  -5.06067E+3
  -4.38685E+2  -5.09851E+3
  -4.34214E+2  -5.00321E+3
  -4.30976E+2  -5.01297E+3
  -3.67399E+2  -4.96070E+3
  -4.22415E+2  -4.92217E+3
  -3.40898E+2  -4.87133E+3
  -3.98660E+2  -4.89101E+3
