 
 $NMID
 ID=''
 FMTDAT='(2E13.5)'
 TRAMP=   1.00000E+0
 VOLUME=   1.00000E+0
 $END
  -1.21623E+4   1.52225E+3
  -3.14545E+4  -4.94076E+3
  -3.21679E+4   8.61463E+2
  -3.00525E+4   1.01203E+3
  -3.12103E+4   1.68106E+2
  -3.13696E+4   1.42742E+3
  -3.02380E+4   1.23537E+3
  -3.08076E+4   5.88452E+2
  -3.06611E+4   1.50839E+3
  -2.99524E+4   1.38982E+3
  -3.01735E+4   9.12938E+2
  -2.99628E+4   1.60453E+3
  -2.94237E+4   1.63399E+3
  -2.95960E+4   1.24861E+3
  -2.94159E+4   1.52167E+3
  -2.88420E+4   1.56394E+3
  -2.88948E+4   1.36581E+3
  -2.87624E+4   1.73849E+3
  -2.82846E+4   1.82212E+3
  -2.82825E+4   1.67406E+3
  -2.80752E+4   1.92341E+3
  -2.77031E+4   2.12295E+3
  -2.77388E+4   1.95809E+3
  -2.76397E+4   2.09617E+3
  -2.71700E+4   2.14910E+3
  -2.71745E+4   2.24535E+3
  -2.71309E+4   2.27755E+3
  -2.68488E+4   2.12254E+3
  -2.66672E+4   2.03854E+3
  -2.65102E+4   2.09785E+3
  -2.62404E+4   2.20467E+3
  -2.60987E+4   2.17618E+3
  -2.59390E+4   2.12993E+3
  -2.56660E+4   2.11448E+3
  -2.54626E+4   2.19043E+3
  -2.52540E+4   2.29852E+3
  -2.49735E+4   2.30933E+3
  -2.48045E+4   2.42462E+3
  -2.46576E+4   2.63747E+3
  -2.44202E+4   2.77523E+3
  -2.42444E+4   2.77356E+3
  -2.41200E+4   2.83267E+3
  -2.39906E+4   2.77097E+3
  -2.37549E+4   2.85727E+3
  -2.35566E+4   2.92487E+3
  -2.34155E+4   2.97402E+3
  -2.32871E+4   2.96057E+3
  -2.31557E+4   3.00837E+3
  -2.30163E+4   3.10924E+3
  -2.28423E+4   3.11666E+3
  -2.26321E+4   3.14771E+3
  -2.24790E+4   3.19403E+3
  -2.21845E+4   3.16768E+3
  -2.21390E+4   3.30100E+3
  -2.19274E+4   3.33712E+3
  -2.18877E+4   3.34100E+3
  -2.17274E+4   3.44131E+3
  -2.15719E+4   3.43192E+3
  -2.13701E+4   3.37373E+3
  -2.12703E+4   3.39919E+3
  -2.10977E+4   3.48747E+3
  -2.09770E+4   3.52069E+3
  -2.08397E+4   3.48754E+3
  -2.07975E+4   3.53124E+3
  -2.06671E+4   3.45167E+3
  -2.05545E+4   3.47153E+3
  -2.03931E+4   3.45174E+3
  -2.03120E+4   3.48443E+3
  -2.01072E+4   3.32996E+3
  -1.99998E+4   3.36848E+3
  -1.99290E+4   3.27035E+3
  -1.96954E+4   3.25098E+3
  -1.96272E+4   3.24087E+3
  -1.95002E+4   3.12984E+3
  -1.92775E+4   3.14627E+3
  -1.91751E+4   3.12053E+3
  -1.90649E+4   3.09911E+3
  -1.89241E+4   3.04309E+3
  -1.87889E+4   3.01068E+3
  -1.86771E+4   2.97284E+3
  -1.85467E+4   3.05702E+3
  -1.83808E+4   2.91939E+3
  -1.82876E+4   2.94377E+3
  -1.82347E+4   2.87349E+3
  -1.80234E+4   2.78500E+3
  -1.79425E+4   2.75075E+3
  -1.78188E+4   2.60816E+3
  -1.76483E+4   2.64199E+3
  -1.75889E+4   2.54658E+3
  -1.74631E+4   2.54158E+3
  -1.73489E+4   2.50624E+3
  -1.71934E+4   2.48681E+3
  -1.70533E+4   2.54833E+3
  -1.70788E+4   2.48825E+3
  -1.68739E+4   2.44702E+3
  -1.67732E+4   2.37264E+3
  -1.66395E+4   2.37587E+3
  -1.65355E+4   2.37785E+3
  -1.64233E+4   2.35010E+3
  -1.63029E+4   2.30517E+3
  -1.61321E+4   2.22774E+3
  -1.60516E+4   2.22492E+3
  -1.59610E+4   2.17852E+3
  -1.58202E+4   2.20096E+3
  -1.56892E+4   2.10401E+3
  -1.55130E+4   2.15982E+3
  -1.54407E+4   2.10575E+3
  -1.52813E+4   2.13716E+3
  -1.52630E+4   2.07479E+3
  -1.50693E+4   1.99744E+3
  -1.49321E+4   2.04100E+3
  -1.48393E+4   2.09007E+3
  -1.48042E+4   2.05439E+3
  -1.46723E+4   2.04762E+3
  -1.45603E+4   1.97881E+3
  -1.44072E+4   1.93259E+3
  -1.42623E+4   1.92847E+3
  -1.41366E+4   1.95645E+3
  -1.40561E+4   1.94781E+3
  -1.39592E+4   1.94021E+3
  -1.38241E+4   1.95323E+3
  -1.36914E+4   1.95369E+3
  -1.36002E+4   1.86680E+3
  -1.34945E+4   1.83473E+3
  -1.33657E+4   1.85912E+3
  -1.32792E+4   1.89664E+3
  -1.32072E+4   1.86014E+3
  -1.30776E+4   1.94055E+3
  -1.29598E+4   1.89964E+3
  -1.28502E+4   1.86656E+3
  -1.28026E+4   1.84568E+3
  -1.25631E+4   1.83892E+3
  -1.25178E+4   1.89511E+3
  -1.24022E+4   1.91739E+3
  -1.23162E+4   1.94546E+3
  -1.22632E+4   1.90242E+3
  -1.21790E+4   1.87901E+3
  -1.20519E+4   1.90523E+3
  -1.19262E+4   1.87556E+3
  -1.18333E+4   1.94778E+3
  -1.17941E+4   1.87438E+3
  -1.16922E+4   1.86050E+3
  -1.15838E+4   1.91710E+3
  -1.15337E+4   1.95401E+3
  -1.13493E+4   1.89047E+3
  -1.13640E+4   1.88344E+3
  -1.12554E+4   1.87201E+3
  -1.11465E+4   1.91831E+3
  -1.10779E+4   1.87708E+3
  -1.10425E+4   1.91711E+3
  -1.09410E+4   1.87029E+3
  -1.07937E+4   1.84421E+3
  -1.07549E+4   1.79080E+3
  -1.06298E+4   1.86031E+3
  -1.05550E+4   1.85705E+3
  -1.04677E+4   1.85610E+3
  -1.03913E+4   1.86960E+3
  -1.03028E+4   1.87052E+3
  -1.03014E+4   1.83256E+3
  -1.02256E+4   1.82013E+3
  -1.01185E+4   1.85290E+3
  -1.00710E+4   1.86798E+3
  -9.99641E+3   1.91337E+3
  -9.91200E+3   1.86391E+3
  -9.77672E+3   1.83569E+3
  -9.77001E+3   1.83757E+3
  -9.71237E+3   1.80352E+3
  -9.58061E+3   1.76868E+3
  -9.49848E+3   1.79422E+3
  -9.43773E+3   1.88443E+3
  -9.31092E+3   1.78565E+3
  -9.28878E+3   1.79247E+3
  -9.16730E+3   1.75847E+3
  -9.09250E+3   1.80119E+3
  -9.03762E+3   1.77877E+3
  -8.93659E+3   1.75493E+3
  -8.94398E+3   1.73658E+3
  -8.86430E+3   1.77233E+3
  -8.78092E+3   1.77923E+3
  -8.71575E+3   1.77422E+3
  -8.71130E+3   1.78886E+3
  -8.54326E+3   1.71248E+3
  -8.50417E+3   1.76962E+3
  -8.44557E+3   1.68999E+3
  -8.39004E+3   1.63221E+3
  -8.33711E+3   1.71650E+3
  -8.22543E+3   1.71761E+3
  -8.21407E+3   1.61427E+3
  -8.18989E+3   1.61968E+3
  -8.08326E+3   1.64749E+3
  -8.07570E+3   1.64981E+3
  -7.91737E+3   1.58931E+3
  -7.87937E+3   1.62089E+3
  -7.83558E+3   1.60866E+3
  -7.79066E+3   1.56654E+3
  -7.68440E+3   1.51898E+3
  -7.68266E+3   1.57290E+3
  -7.58004E+3   1.51810E+3
  -7.59292E+3   1.51806E+3
  -7.50513E+3   1.52346E+3
  -7.44937E+3   1.52386E+3
  -7.39832E+3   1.52458E+3
  -7.40078E+3   1.51481E+3
  -7.28806E+3   1.50318E+3
  -7.21261E+3   1.42594E+3
  -7.15217E+3   1.53518E+3
  -7.16497E+3   1.47294E+3
  -7.06501E+3   1.47107E+3
  -7.03068E+3   1.47797E+3
  -7.03816E+3   1.42725E+3
  -6.98484E+3   1.43645E+3
  -6.87535E+3   1.44476E+3
  -6.85845E+3   1.41933E+3
  -6.78565E+3   1.39805E+3
  -6.78061E+3   1.40860E+3
  -6.74458E+3   1.40723E+3
  -6.64246E+3   1.43716E+3
  -6.61956E+3   1.40026E+3
  -6.50040E+3   1.43646E+3
  -6.49941E+3   1.43219E+3
  -6.48787E+3   1.33583E+3
  -6.36255E+3   1.31993E+3
  -6.42207E+3   1.38389E+3
  -6.35937E+3   1.38374E+3
  -6.33383E+3   1.32106E+3
  -6.22023E+3   1.32919E+3
  -6.25316E+3   1.32592E+3
  -6.20645E+3   1.29147E+3
  -6.15471E+3   1.29301E+3
  -6.13364E+3   1.30998E+3
  -6.07441E+3   1.30921E+3
  -6.06290E+3   1.30244E+3
  -6.01469E+3   1.29040E+3
  -5.95278E+3   1.29230E+3
  -5.89426E+3   1.18658E+3
  -5.82361E+3   1.19957E+3
  -5.80638E+3   1.25765E+3
  -5.80733E+3   1.20041E+3
  -5.77051E+3   1.18859E+3
  -5.74139E+3   1.25500E+3
  -5.68258E+3   1.18430E+3
  -5.66590E+3   1.20283E+3
  -5.64103E+3   1.22828E+3
  -5.65612E+3   1.16043E+3
  -5.59294E+3   1.18126E+3
  -5.48908E+3   1.17042E+3
  -5.49088E+3   1.18109E+3
  -5.49719E+3   1.07326E+3
  -5.38953E+3   1.13089E+3
  -5.40536E+3   1.13792E+3
  -5.37678E+3   1.13607E+3
  -5.30118E+3   1.11684E+3
  -5.29872E+3   1.10534E+3
  -5.22513E+3   1.17517E+3
  -5.16263E+3   1.15442E+3
  -5.19450E+3   1.13134E+3
  -5.14723E+3   1.08876E+3
  -5.12466E+3   1.06649E+3
  -5.02245E+3   1.15160E+3
  -4.99592E+3   1.13912E+3
  -4.96576E+3   1.04790E+3
  -4.96794E+3   1.10857E+3
  -4.97365E+3   1.11948E+3
  -4.87324E+3   1.08596E+3
  -4.88927E+3   1.10265E+3
  -4.83963E+3   1.08501E+3
  -4.79545E+3   1.04063E+3
  -4.77139E+3   1.06856E+3
  -4.71549E+3   1.11827E+3
  -4.66592E+3   1.06367E+3
  -4.61094E+3   1.00981E+3
  -4.58033E+3   1.03791E+3
  -4.59854E+3   1.03863E+3
  -4.57493E+3   1.05694E+3
  -4.51859E+3   9.64284E+2
  -4.46502E+3   1.05784E+3
  -4.46886E+3   1.09354E+3
  -4.37260E+3   1.05083E+3
  -4.40475E+3   1.09243E+3
  -4.32880E+3   1.03358E+3
  -4.37019E+3   1.10071E+3
  -4.28324E+3   1.02745E+3
  -4.30112E+3   1.03664E+3
  -4.24274E+3   1.00049E+3
  -4.23824E+3   9.87417E+2
  -4.20217E+3   1.04812E+3
  -4.13232E+3   1.05517E+3
  -4.11788E+3   1.04089E+3
  -4.00104E+3   9.78623E+2
  -4.01882E+3   1.03161E+3
  -3.99870E+3   9.88726E+2
  -4.04203E+3   1.07415E+3
  -3.89918E+3   1.02820E+3
  -3.92956E+3   9.76012E+2
  -3.87302E+3   1.03795E+3
  -3.84829E+3   1.00563E+3
  -3.87625E+3   1.01089E+3
  -3.77444E+3   1.02247E+3
  -3.75280E+3   9.95249E+2
  -3.78944E+3   1.01690E+3
  -3.75776E+3   1.00849E+3
  -3.70873E+3   1.02775E+3
  -3.63385E+3   9.91352E+2
  -3.64910E+3   9.96958E+2
  -3.68566E+3   9.69237E+2
  -3.60920E+3   1.01234E+3
  -3.59713E+3   9.88816E+2
  -3.57258E+3   9.88037E+2
  -3.51910E+3   9.84585E+2
  -3.47759E+3   9.67187E+2
  -3.51089E+3   1.01234E+3
  -3.45922E+3   9.88626E+2
  -3.48137E+3   1.03015E+3
  -3.38932E+3   1.06195E+3
  -3.39968E+3   1.02010E+3
  -3.32707E+3   1.01132E+3
  -3.38230E+3   1.04550E+3
  -3.26944E+3   9.79622E+2
  -3.34859E+3   1.00310E+3
  -3.27634E+3   9.93770E+2
  -3.23839E+3   9.72670E+2
  -3.20672E+3   9.96977E+2
  -3.21520E+3   1.03472E+3
  -3.18620E+3   1.01569E+3
  -3.17216E+3   1.00463E+3
  -3.17836E+3   9.98797E+2
  -3.07557E+3   9.90643E+2
  -3.02574E+3   9.96178E+2
  -3.08827E+3   1.06689E+3
  -2.98659E+3   1.02465E+3
  -2.97573E+3   1.00245E+3
  -3.02212E+3   1.08442E+3
  -3.00245E+3   9.47191E+2
  -2.90567E+3   1.00589E+3
  -2.88687E+3   9.82528E+2
  -2.86600E+3   9.99250E+2
  -2.84237E+3   1.05769E+3
  -2.80162E+3   9.70573E+2
  -2.85171E+3   1.02468E+3
  -2.88320E+3   9.97525E+2
  -2.80275E+3   1.01763E+3
  -2.72786E+3   9.20821E+2
  -2.79727E+3   9.94555E+2
  -2.71894E+3   1.03864E+3
  -2.72344E+3   1.07098E+3
  -2.66371E+3   1.00514E+3
  -2.70406E+3   9.60375E+2
  -2.60055E+3   1.01721E+3
  -2.61414E+3   9.90556E+2
  -2.60569E+3   1.00069E+3
  -2.50738E+3   9.95848E+2
  -2.49532E+3   9.74915E+2
  -2.52065E+3   1.06063E+3
  -2.47989E+3   1.08964E+3
  -2.48321E+3   1.00482E+3
  -2.44833E+3   1.00349E+3
  -2.40187E+3   9.92439E+2
  -2.36760E+3   1.01003E+3
  -2.37678E+3   9.65281E+2
  -2.34078E+3   9.95618E+2
  -2.30396E+3   9.74385E+2
  -2.32687E+3   1.00045E+3
  -2.24188E+3   9.91957E+2
  -2.26269E+3   9.80879E+2
  -2.19599E+3   9.49542E+2
  -2.18774E+3   1.01249E+3
  -2.26236E+3   1.01893E+3
