 LCModel (Version 6.3-1N) Copyright: S.W. Provencher.          Ref.: Magn. Reson. Med. 30:672-679 (1993).                
 Slice_N1@18_18  02-Jun-2023 14:36:41
 27 lines in following concentration table = NCONC+1
    Conc.  %SD /Cr+PCr  Metabolite                                         
 2.19E-06  15% 2.6E-04 Mac                                                 
 3.74E-02  16%   4.362 Cr                                                  
 3.12E-02  19%   3.638 PCr                                                 
 7.06E-02  11%   8.240 Ins                                                 
 9.18E-02   8%  10.716 NAA                                                 
 6.78E-02  11%   7.910 Tau                                                 
 7.56E-03  49%   0.882 PCho                                                
 5.80E-03  72%   0.677 GPC                                                 
 5.50E-02  16%   6.424 Glu                                                 
 1.46E-02  42%   1.702 Gln                                                 
 7.42E-04 867% 8.7E-02 Ala                                                 
 2.51E-02  48%   2.933 Asc                                                 
 4.60E-03 167%   0.537 Asp                                                 
 6.17E-03  67%   0.720 GABA                                                
 9.08E-03  58%   1.060 Glc                                                 
 7.31E-03  42%   0.853 GSH                                                 
    0.000 999%   0.000 Lac                                                 
 3.51E-03 139%   0.410 NAAG                                                
    0.000 999%   0.000 PE                                                  
 1.34E-02  15%   1.559 GPC+PCho                                            
 9.53E-02   8%  11.126 NAA+NAAG                                            
 6.96E-02  15%   8.126 Glu+Gln                                             
 6.85E-02   8%   8.000 Cr+PCr                                              
 9.53E-02   8%  11.126 NAA+NAAG                                            
 6.85E-02   8%   8.000 Cr+PCr                                              
 6.96E-02  15%   8.126 Glu+Gln                                             
   6 lines in following misc. output table
  FWHM = 0.017 ppm    S/N =   8                                            
  Data shift = 0.023 ppm                                                   
  Ph:  -8 deg      -7.3 deg/ppm                                            
  alphaB,S = 7.2E+00,   4.3E-01                                            
   18 spline knots.   Ns = 5(1)                                            
   3 inflections.     1 extrema                                            
  654 points on ppm-axis = NY
      4.000000     3.994181     3.988363     3.982544     3.976726     3.970907     3.965088     3.959270     3.953451     3.947633
      3.941814     3.935995     3.930177     3.924358     3.918540     3.912721     3.906902     3.901084     3.895265     3.889446
      3.883628     3.877809     3.871991     3.866172     3.860353     3.854535     3.848716     3.842898     3.837079     3.831260
      3.825442     3.819623     3.813805     3.807986     3.802167     3.796349     3.790530     3.784712     3.778893     3.773074
      3.767256     3.761437     3.755619     3.749800     3.743981     3.738163     3.732344     3.726526     3.720707     3.714888
      3.709070     3.703251     3.697433     3.691614     3.685795     3.679977     3.674158     3.668339     3.662521     3.656702
      3.650884     3.645065     3.639246     3.633428     3.627609     3.621791     3.615972     3.610153     3.604335     3.598516
      3.592698     3.586879     3.581060     3.575242     3.569423     3.563605     3.557786     3.551967     3.546149     3.540330
      3.534512     3.528693     3.522874     3.517056     3.511237     3.505419     3.499600     3.493781     3.487963     3.482144
      3.476326     3.470507     3.464688     3.458870     3.453051     3.447232     3.441414     3.435595     3.429777     3.423958
      3.418139     3.412321     3.406502     3.400684     3.394865     3.389046     3.383228     3.377409     3.371591     3.365772
      3.359953     3.354135     3.348316     3.342498     3.336679     3.330860     3.325042     3.319223     3.313405     3.307586
      3.301767     3.295949     3.290130     3.284312     3.278493     3.272674     3.266856     3.261037     3.255219     3.249400
      3.243581     3.237763     3.231944     3.226125     3.220307     3.214488     3.208670     3.202851     3.197032     3.191214
      3.185395     3.179577     3.173758     3.167939     3.162121     3.156302     3.150484     3.144665     3.138846     3.133028
      3.127209     3.121391     3.115572     3.109753     3.103935     3.098116     3.092298     3.086479     3.080660     3.074842
      3.069023     3.063205     3.057386     3.051567     3.045749     3.039930     3.034111     3.028293     3.022474     3.016656
      3.010837     3.005018     2.999200     2.993381     2.987563     2.981744     2.975925     2.970107     2.964288     2.958470
      2.952651     2.946832     2.941014     2.935195     2.929377     2.923558     2.917739     2.911921     2.906102     2.900284
      2.894465     2.888646     2.882828     2.877009     2.871191     2.865372     2.859553     2.853735     2.847916     2.842098
      2.836279     2.830460     2.824642     2.818823     2.813004     2.807186     2.801367     2.795549     2.789730     2.783911
      2.778093     2.772274     2.766456     2.760637     2.754818     2.749000     2.743181     2.737363     2.731544     2.725725
      2.719907     2.714088     2.708270     2.702451     2.696632     2.690814     2.684995     2.679177     2.673358     2.667539
      2.661721     2.655902     2.650084     2.644265     2.638446     2.632628     2.626809     2.620991     2.615172     2.609353
      2.603535     2.597716     2.591897     2.586079     2.580260     2.574442     2.568623     2.562804     2.556986     2.551167
      2.545349     2.539530     2.533711     2.527893     2.522074     2.516256     2.510437     2.504618     2.498800     2.492981
      2.487163     2.481344     2.475525     2.469707     2.463888     2.458070     2.452251     2.446432     2.440614     2.434795
      2.428977     2.423158     2.417339     2.411521     2.405702     2.399884     2.394065     2.388246     2.382428     2.376609
      2.370790     2.364972     2.359153     2.353335     2.347516     2.341697     2.335879     2.330060     2.324242     2.318423
      2.312604     2.306786     2.300967     2.295149     2.289330     2.283511     2.277693     2.271874     2.266056     2.260237
      2.254418     2.248600     2.242781     2.236963     2.231144     2.225325     2.219507     2.213688     2.207870     2.202051
      2.196232     2.190414     2.184595     2.178777     2.172958     2.167139     2.161321     2.155502     2.149683     2.143865
      2.138046     2.132228     2.126409     2.120590     2.114772     2.108953     2.103135     2.097316     2.091497     2.085679
      2.079860     2.074042     2.068223     2.062404     2.056586     2.050767     2.044949     2.039130     2.033311     2.027493
      2.021674     2.015856     2.010037     2.004218     1.998400     1.992581     1.986763     1.980944     1.975126     1.969307
      1.963489     1.957670     1.951852     1.946033     1.940215     1.934397     1.928578     1.922760     1.916941     1.911123
      1.905304     1.899486     1.893667     1.887849     1.882030     1.876212     1.870393     1.864575     1.858756     1.852938
      1.847119     1.841301     1.835482     1.829664     1.823845     1.818027     1.812208     1.806390     1.800571     1.794753
      1.788934     1.783116     1.777297     1.771479     1.765660     1.759842     1.754023     1.748205     1.742386     1.736568
      1.730749     1.724931     1.719113     1.713294     1.707476     1.701657     1.695839     1.690020     1.684202     1.678383
      1.672565     1.666746     1.660928     1.655109     1.649291     1.643472     1.637654     1.631835     1.626017     1.620198
      1.614380     1.608561     1.602743     1.596924     1.591106     1.585287     1.579469     1.573650     1.567832     1.562013
      1.556195     1.550376     1.544558     1.538739     1.532921     1.527102     1.521284     1.515465     1.509647     1.503829
      1.498010     1.492192     1.486373     1.480555     1.474736     1.468918     1.463099     1.457281     1.451462     1.445644
      1.439825     1.434007     1.428188     1.422370     1.416551     1.410733     1.404914     1.399096     1.393277     1.387459
      1.381640     1.375822     1.370003     1.364185     1.358366     1.352548     1.346729     1.340911     1.335092     1.329274
      1.323455     1.317637     1.311818     1.306000     1.300182     1.294363     1.288545     1.282726     1.276908     1.271089
      1.265271     1.259452     1.253634     1.247815     1.241997     1.236178     1.230360     1.224541     1.218723     1.212904
      1.207086     1.201267     1.195449     1.189630     1.183812     1.177993     1.172175     1.166356     1.160538     1.154719
      1.148901     1.143082     1.137264     1.131445     1.125627     1.119808     1.113990     1.108171     1.102353     1.096534
      1.090716     1.084898     1.079079     1.073261     1.067442     1.061624     1.055805     1.049987     1.044168     1.038350
      1.032531     1.026713     1.020894     1.015076     1.009257     1.003439     0.997620     0.991802     0.985983     0.980165
      0.974346     0.968528     0.962709     0.956891     0.951072     0.945254     0.939435     0.933617     0.927798     0.921980
      0.916161     0.910343     0.904524     0.898706     0.892887     0.887069     0.881251     0.875432     0.869614     0.863795
      0.857977     0.852158     0.846340     0.840521     0.834703     0.828884     0.823066     0.817247     0.811429     0.805610
      0.799792     0.793973     0.788155     0.782336     0.776518     0.770699     0.764881     0.759062     0.753244     0.747425
      0.741607     0.735788     0.729970     0.724151     0.718333     0.712514     0.706696     0.700877     0.695059     0.689240
      0.683422     0.677603     0.671785     0.665967     0.660148     0.654330     0.648511     0.642693     0.636874     0.631056
      0.625237     0.619419     0.613600     0.607782     0.601963     0.596145     0.590326     0.584508     0.578689     0.572871
      0.567052     0.561234     0.555415     0.549597     0.543778     0.537960     0.532141     0.526323     0.520504     0.514686
      0.508867     0.503049     0.497230     0.491412     0.485593     0.479775     0.473956     0.468138     0.462319     0.456501
      0.450682     0.444864     0.439045     0.433227     0.427408     0.421590     0.415771     0.409953     0.404134     0.398316
      0.392497     0.386679     0.380860     0.375042     0.369223     0.363405     0.357586     0.351767     0.345949     0.340130
      0.334312     0.328493     0.322675     0.316856     0.311038     0.305219     0.299401     0.293582     0.287764     0.281945
      0.276127     0.270308     0.264490     0.258671     0.252853     0.247034     0.241216     0.235397     0.229579     0.223760
      0.217942     0.212123     0.206305     0.200486
 NY phased data points follow
  -2.47024E-01  1.23367E-01 -2.88094E-01 -1.95273E-02  1.37769E-01 -1.95389E-01 -3.12727E-01 -2.29366E-01 -1.40383E-01 -2.29076E-01
   1.22537E-01  3.93558E-01  6.72734E-01  3.86698E-01  2.22766E-01  6.62248E-01  6.21441E-01  1.06026E-01  7.10507E-02  5.23714E-02
  -2.06188E-01  1.24364E-01 -5.14144E-02  8.06198E-02  4.85185E-02 -3.21243E-01 -1.24785E-01 -2.30302E-03 -1.59733E-01 -2.99829E-01
  -7.40064E-02 -1.95543E-01 -2.32988E-01 -7.94432E-04 -1.91809E-01 -2.83958E-01 -1.40740E-01 -8.22204E-02 -3.35131E-01 -2.40786E-01
   3.12518E-01  1.74489E-01  1.42611E-01  3.21392E-01  4.68501E-02  2.33414E-01  2.62089E-01  1.66266E-01  3.97286E-01  1.98665E-01
   8.79936E-02  3.57321E-01  2.22988E-01 -4.51853E-02  6.06431E-02 -2.34748E-02 -2.03364E-01 -2.98434E-01 -2.89169E-01 -8.58299E-02
  -1.69071E-01 -2.92510E-01 -4.15326E-01 -2.63753E-01 -3.80342E-01 -3.95973E-01 -3.91716E-02  7.49121E-02  3.11716E-01  1.07795E-01
   2.84234E-01  5.09061E-01  1.16147E-02 -3.93922E-02  1.77122E-01  6.38231E-02 -1.47382E-02 -6.70141E-02 -9.06811E-02 -3.22285E-01
  -3.84329E-01 -1.61935E-02 -9.78864E-02  1.18251E-01  1.88331E-01  2.88175E-01  2.76951E-01  1.62577E-01  3.01151E-01  3.91079E-02
   1.37902E-01  1.60377E-01  1.94438E-01  1.51432E-01 -1.28920E-01 -1.30323E-01 -1.81341E-01 -1.03637E-01  1.16067E-01 -4.58162E-01
  -3.66500E-01  1.43665E-01 -3.15189E-01  2.22018E-01  5.67192E-01  5.67945E-01  2.27505E-01 -1.37604E-01  3.69579E-01  2.82529E-01
   4.00574E-01  2.39320E-01  1.76204E-01  5.05444E-01  3.70074E-01  3.68404E-01  2.63948E-01  3.67287E-01  4.99579E-01  6.22092E-01
   6.10084E-01  2.93126E-01  1.89245E-01  1.09482E-01 -2.00759E-01 -3.40822E-01 -3.45441E-02 -2.76547E-01 -6.55751E-01 -5.10868E-01
  -6.49594E-01 -6.33673E-01 -6.44473E-01 -4.92250E-01 -2.74571E-01 -7.12813E-01 -8.56118E-01 -9.35749E-01 -5.24271E-01 -5.38559E-02
  -1.48644E-01 -2.11983E-01 -2.32027E-01  3.13561E-03 -2.64152E-02  2.82214E-01 -2.77539E-02 -1.99456E-01  1.69244E-01 -1.28496E-01
  -3.19616E-02  4.90449E-02  1.49758E-01  2.36554E-01  2.34254E-01  2.54789E-01  2.31312E-01  2.31147E-01  3.77842E-01  3.05950E-01
   2.01148E-01  5.05459E-01  6.94279E-01  6.04643E-01  7.00800E-01  1.04061E+00  8.65616E-01  1.89782E-01 -1.06739E+00 -1.22603E+00
  -8.14821E-01 -6.55068E-01 -5.56490E-01 -6.80517E-01 -3.44260E-01 -4.35643E-01 -3.10422E-01 -4.44526E-01 -6.69247E-01 -2.22549E-01
  -1.25549E-01 -2.55222E-01 -3.71895E-01 -5.02591E-01 -2.80930E-01 -1.05803E-01 -3.42208E-01 -4.78294E-01 -2.21142E-01 -2.46027E-01
  -3.77978E-01 -3.05090E-01 -3.64139E-01 -2.24065E-01 -3.99414E-01  4.23506E-02 -9.86313E-02 -1.13578E-01  1.90072E-01 -1.12956E-01
  -2.32426E-01 -4.53374E-01  2.18725E-01 -2.02277E-01 -6.40044E-02  2.00289E-01 -3.75970E-01 -4.30393E-02  4.46976E-02 -1.82508E-01
  -3.38451E-01  4.79213E-02  3.60173E-02  2.83424E-02  2.04748E-01  3.12845E-01 -3.27430E-02 -5.26195E-02  5.01001E-01  2.89825E-01
   4.80706E-02  1.19588E-01  1.76604E-02  1.28200E-01  2.78598E-01  2.03689E-01  6.08918E-01  4.29516E-01  2.65762E-01  5.56987E-01
   4.46409E-01  3.48572E-01  2.14138E-01 -6.91572E-02  4.03267E-03  8.70105E-02  4.91617E-02  1.45174E-01 -7.23191E-02 -6.32763E-02
  -1.60330E-01 -2.68304E-01 -1.97642E-02  1.94531E-01 -7.54919E-02 -1.19500E-01  7.11820E-02  1.37943E-01  1.72901E-01  1.37821E-01
   1.73770E-01 -6.59761E-02  1.13637E-02 -5.72651E-02  7.91928E-02 -2.68450E-01 -3.23716E-01  1.51290E-01 -8.21884E-02  6.33460E-02
  -1.14049E-01  2.30865E-01  1.52858E-01  8.88260E-02  3.97861E-01  1.78623E-01  3.62392E-01  1.27571E-01  5.98515E-01  3.19498E-01
  -1.23491E-01  1.40544E-01 -6.86485E-02  2.68621E-01  4.63674E-02  8.58558E-02  4.14703E-03 -1.47205E-01 -3.18879E-02 -3.18148E-01
  -3.84540E-01 -4.20720E-01 -4.98774E-01 -1.62586E-01  3.26685E-01 -3.70932E-02  1.50410E-01  2.35181E-01  2.53810E-01  5.70066E-01
   3.88568E-01  1.05772E-01  1.11724E-01  2.30739E-01 -3.24314E-02  7.59257E-02 -4.83013E-02  8.06309E-02  4.11154E-02 -9.15460E-02
   2.37302E-01  4.19695E-01  3.11257E-01  2.15631E-01  1.05799E-01  3.90757E-01  4.40931E-01  1.50477E-01  5.96135E-01  9.49788E-02
   3.98260E-01  2.07044E-01 -1.05384E-01  3.29382E-01  2.28850E-01  3.91605E-01 -1.51476E-01  1.82354E-01  2.55937E-01 -2.86758E-01
  -1.04239E-01 -9.27068E-02 -3.48241E-01  4.96299E-02 -1.15698E-01 -2.99837E-01  2.29290E-01 -3.21322E-02 -2.67538E-01  2.13700E-01
   1.33644E-01 -9.81742E-02  1.19805E-01 -3.32348E-01  3.22498E-02 -3.19492E-04 -1.80170E-01 -4.40106E-01 -3.60543E-01 -2.32026E-01
  -2.72996E-01 -5.05283E-01 -3.06489E+00 -2.35362E+00 -7.74648E-01 -5.77472E-01  7.41576E-02 -3.29080E-01 -1.24614E-01  4.63475E-02
  -5.64223E-03  5.96391E-02 -1.33013E-01 -4.31698E-02 -1.03724E-01  8.83900E-03  1.03514E-01 -1.33566E-01  2.85589E-01  1.61097E-01
   2.58951E-01 -8.81545E-02  2.16655E-02  1.63668E-01 -3.23378E-01  3.02864E-01  1.98491E-02  2.70026E-01  1.40772E-01  6.99340E-02
   1.92840E-01  5.68035E-02  2.79361E-01 -4.74330E-03  2.54083E-01 -2.62053E-02  1.33703E-01  4.43501E-01  2.37366E-01  1.61794E-01
   2.76339E-02  3.20907E-01  1.65440E-01  1.57953E-01  2.99946E-01  1.36626E-02  2.85635E-01  3.18417E-01  1.99137E-01  2.10171E-01
   1.13539E-01  1.29438E-01  1.04718E-01  3.28892E-01  1.88100E-01  1.90528E-01  3.62677E-01  5.84947E-02  1.99287E-01  9.72222E-02
  -1.63823E-01  1.59737E-01 -2.18331E-02 -8.62044E-02  1.93610E-02 -7.58382E-02 -1.14556E-01 -7.28632E-02 -2.65048E-01 -2.69852E-01
  -2.25297E-02 -1.94349E-01 -2.52219E-02 -2.38887E-01 -2.57234E-01 -3.79057E-01  7.77060E-02  2.35140E-01 -2.68925E-01 -6.41294E-02
  -1.75515E-01  4.63400E-02 -3.47975E-01  3.30117E-02 -2.28478E-01 -3.54039E-01  3.94722E-01 -1.48971E-01 -4.71606E-02  5.66078E-02
  -1.28905E-01 -2.72475E-01 -2.00501E-01 -1.77406E-02  2.90564E-01 -7.84616E-02 -4.84369E-02  1.08338E-01 -2.58874E-01  7.71742E-02
  -2.45924E-01 -2.43337E-01  4.37486E-02 -1.72621E-01  3.82328E-02  2.60280E-01 -2.30905E-02  3.31758E-01  4.65826E-01  3.23219E-01
   4.16969E-01  1.91672E-02  2.65204E-01  3.53671E-01  2.18079E-01  5.38507E-02 -1.97903E-01 -1.13089E-01 -3.60727E-01 -7.82698E-02
   9.04721E-02 -6.97042E-02  1.60216E-01  2.22904E-01  2.06358E-01 -2.52706E-01 -1.56517E-02  1.34712E-01 -6.07115E-02  8.27768E-02
  -1.77548E-01 -3.59427E-02 -8.62826E-02  1.01799E-01 -4.40981E-02 -4.45543E-01 -1.67476E-01 -2.56138E-01 -2.31595E-01 -8.47607E-02
  -1.68100E-01 -6.76699E-02  9.10370E-02  1.89702E-01 -7.84931E-02 -2.79475E-01  7.41137E-02  8.58536E-02  6.70514E-02  1.14810E-01
   9.70294E-02  7.10601E-02  1.77754E-01 -8.20794E-02 -2.76968E-01  9.16333E-02  8.34617E-02  6.08973E-02  1.53682E-01  1.62405E-03
  -2.52436E-01  2.17182E-01  1.93625E-01  1.95313E-01  3.87774E-01  3.78313E-02  8.38682E-03  9.55349E-02  8.99927E-02  1.26598E-01
   3.77806E-01 -1.35676E-01  1.60613E-01  4.38571E-01 -1.01620E-01 -1.11573E-01 -1.29599E-01 -7.88459E-02 -2.46133E-03 -9.03920E-02
  -1.58258E-01 -3.68036E-02  8.03154E-02  6.24253E-02 -4.05856E-01 -1.27761E-01 -3.00593E-01 -3.78727E-01 -1.47527E-01 -2.36323E-01
  -3.00287E-01 -6.54633E-01 -1.40066E-01 -3.13094E-01  9.89377E-02 -6.59226E-02 -2.50675E-01 -1.15303E-01 -5.91724E-01  3.00047E-03
  -2.77109E-01 -1.91506E-01 -2.00566E-01 -3.76378E-01 -3.15132E-02  3.43585E-01  2.09620E-01 -1.72529E-01  3.05391E-01  2.80797E-01
  -1.16740E-01 -1.02700E-02  4.00605E-01 -8.02738E-02 -1.33137E-01  3.04880E-01  9.03924E-02  2.85969E-01  1.09463E-01 -2.50129E-01
   1.51835E-01  2.38119E-01  2.52593E-02  1.22102E-01  3.32965E-02  3.12937E-02 -7.17171E-02  5.51194E-03  2.05283E-01 -2.28298E-01
   1.22447E-01  4.01216E-01  8.49101E-02  2.56893E-01  2.09570E-02 -1.59783E-01 -1.30441E-01  2.40010E-01  1.26781E-01 -3.09183E-02
   2.45433E-01 -1.84430E-01 -2.04394E-02  8.63364E-02  2.55928E-02 -1.33450E-01  4.06597E-02  1.75269E-02 -2.38823E-01  1.79473E-01
   7.89973E-02  3.87189E-02 -1.30533E-01 -3.49314E-02  1.11296E-01  1.24034E-01 -4.21066E-02 -1.04825E-02  1.68478E-01  4.63697E-02
   3.88112E-01  7.37527E-02 -1.04164E-02  1.68471E-01  4.16319E-03  1.53661E-01  2.48160E-01 -1.69879E-01 -1.32305E-01  3.42190E-01
  -1.36855E-01 -2.65058E-01  3.02142E-01  1.75538E-01  4.37261E-02  1.53094E-02 -1.81338E-01  1.16240E-01  1.71756E-01  1.81530E-01
   2.33104E-01  2.80744E-01 -4.41989E-02 -6.64756E-02  2.86247E-01  4.08419E-02  1.93583E-01 -3.64988E-02  1.42530E-01  1.47246E-01
   2.17959E-02  4.86930E-01  1.81394E-01  3.61211E-02  3.62612E-02  1.56516E-01  1.27644E-01  6.42437E-03 -4.73747E-02 -2.14045E-01
  -2.48362E-01 -1.85469E-01  2.18467E-01  1.56288E-01  3.59954E-03  1.13868E-01 -7.43139E-02 -1.19060E-01  9.55792E-02  1.17731E-01
  -1.58976E-01 -6.55288E-02  1.26709E-01  1.60112E-01
 NY points of the fit to the data follow
   1.17892E-01  9.19647E-02  7.20908E-02  3.83904E-02  2.84113E-02  3.24235E-02  5.00389E-02  7.98861E-02  8.95617E-02  9.01107E-02
   1.67690E-01  3.94890E-01  6.24102E-01  4.20898E-01  2.92912E-01  6.70144E-01  5.79585E-01  3.14459E-01  1.64774E-01  6.29146E-02
   9.64112E-02  4.98202E-02  1.31381E-02 -1.31440E-02 -3.84782E-02 -5.74925E-02 -7.75941E-02 -9.54197E-02 -1.01968E-01 -1.10446E-01
  -1.22300E-01 -1.31209E-01 -1.35561E-01 -1.51480E-01 -1.78174E-01 -2.00780E-01 -2.13489E-01 -2.32109E-01 -2.05302E-01 -1.89468E-01
  -2.48111E-02  5.41825E-02  5.42046E-02  1.59712E-01  1.51960E-01  2.54801E-01  2.31568E-01  2.22567E-01  1.71437E-01  1.42847E-01
   1.58983E-01  7.21413E-02  5.29018E-02  1.58437E-02 -2.01750E-02 -5.77026E-02 -1.19195E-01 -1.57492E-01 -1.71415E-01 -1.65777E-01
  -2.13731E-01 -2.66878E-01 -2.99079E-01 -1.81066E-01 -1.63972E-01 -3.26268E-01  1.37155E-01  2.66427E-01  9.90792E-02  3.82696E-01
   3.68951E-01  3.21741E-01  2.55115E-01  1.30373E-01  1.05817E-01  2.33490E-02 -4.81495E-02 -1.06053E-01 -2.18449E-01 -3.97293E-01
  -4.97722E-01 -1.70585E-01  1.56271E-02  1.07215E-02  2.64940E-01  3.73045E-01  3.82852E-01  3.41595E-01  2.60597E-01  2.52391E-01
   2.19586E-01  1.90959E-01  1.56272E-01  9.75456E-02  5.32698E-02 -1.93917E-02 -9.32680E-02 -2.58860E-01 -3.36745E-01 -4.89048E-01
  -3.46553E-01 -1.78881E-01  3.83276E-02  2.52617E-01  2.51884E-01  2.85200E-01  2.53649E-01  2.67613E-01  2.74618E-01  2.73597E-01
   2.74201E-01  2.71675E-01  2.68605E-01  2.63295E-01  2.60453E-01  2.57849E-01  2.56802E-01  2.51940E-01  2.41344E-01  2.34158E-01
   2.19456E-01  1.80922E-01  9.50785E-02  2.53027E-02  1.96546E-02 -1.94081E-01 -1.87275E-01 -1.21191E-01 -5.36626E-01 -4.87502E-01
  -7.80207E-01 -6.48773E-01 -4.72148E-01 -4.04390E-01 -1.90826E-01 -6.54314E-01 -9.17077E-01 -8.80352E-01 -5.37973E-01 -2.45912E-01
  -1.64545E-01 -1.07875E-01 -7.19585E-02 -1.07000E-02  2.50936E-02  5.51678E-02  8.09729E-02  1.01719E-01  1.22103E-01  1.38549E-01
   1.53388E-01  1.71548E-01  1.87007E-01  2.04168E-01  2.22107E-01  2.42746E-01  2.67142E-01  2.94960E-01  3.28049E-01  3.64096E-01
   4.15471E-01  4.95552E-01  5.69379E-01  5.69892E-01  6.16213E-01  8.09310E-01  1.01529E+00  2.30620E-01 -1.10682E+00 -1.17874E+00
  -8.41970E-01 -5.62431E-01 -4.46740E-01 -5.24450E-01 -4.50145E-01 -4.15278E-01 -3.58597E-01 -3.28175E-01 -3.02658E-01 -2.99541E-01
  -2.84371E-01 -2.50818E-01 -2.41077E-01 -2.27460E-01 -2.21563E-01 -2.15184E-01 -2.03269E-01 -1.92425E-01 -1.79527E-01 -1.73483E-01
  -1.65644E-01 -1.54942E-01 -1.44919E-01 -1.35035E-01 -1.25628E-01 -1.17330E-01 -1.10493E-01 -1.01422E-01 -9.27578E-02 -8.69197E-02
  -8.09940E-02 -7.43523E-02 -6.20510E-02 -5.82917E-02 -6.37057E-02 -6.65156E-02 -6.39642E-02 -4.93785E-02 -4.52601E-02 -5.60789E-02
  -6.34343E-02 -6.30013E-02 -5.59502E-02 -5.07748E-02 -4.92222E-02 -4.48856E-02 -4.18489E-02 -3.58010E-02 -3.32704E-02 -3.61217E-02
  -2.55635E-02  2.50553E-03  1.71146E-02  2.87591E-02  9.79114E-02  3.15676E-01  4.01796E-01  2.19409E-01  1.34506E-01  2.90930E-01
   4.12094E-01  3.32041E-01  1.39063E-01  2.93644E-02  1.37248E-03 -1.46994E-02 -2.72353E-02 -4.93396E-02 -5.85041E-02 -6.77958E-02
  -7.84359E-02 -8.64228E-02 -9.10831E-02 -9.42310E-02 -9.67758E-02 -9.99026E-02 -1.07488E-01 -1.03186E-01 -1.12391E-01 -1.08731E-01
  -1.19916E-01 -1.29996E-01 -1.29035E-01 -1.54602E-01 -1.67590E-01 -1.77492E-01 -1.06865E-01  5.80519E-02 -1.24283E-02  4.63346E-02
   1.18044E-01  2.10159E-01  1.87077E-01  3.62630E-02  2.29763E-01  2.02168E-01  1.83412E-01  1.51634E-01  1.16528E-01  1.52069E-01
   1.03647E-01  8.87332E-02  4.58594E-02  2.35000E-02 -3.01904E-03 -2.97752E-02 -6.15577E-02 -9.79570E-02 -1.29094E-01 -1.70125E-01
  -2.03774E-01 -2.72317E-01 -2.41831E-01 -1.91430E-01 -1.06531E-01  9.62632E-02  1.68337E-01  2.70826E-01  3.22998E-01  2.64451E-01
   2.45793E-01  2.01456E-01  1.76293E-01  1.67774E-01  1.46031E-01  1.45283E-01  1.63421E-01  1.63340E-01  1.75168E-01  1.77877E-01
   1.71183E-01  1.73534E-01  1.65024E-01  1.62843E-01  1.61121E-01  1.55935E-01  1.49423E-01  1.41831E-01  1.32007E-01  1.15017E-01
   1.00694E-01  8.30512E-02  5.51809E-02  4.42592E-02  1.11803E-02 -6.05573E-03 -4.93150E-02 -9.91833E-02 -1.39919E-01 -1.72793E-01
  -1.90381E-01 -2.03515E-01 -1.89956E-01 -1.84738E-01 -1.49798E-01 -1.13171E-01 -4.95079E-02  1.22580E-02  4.47808E-02  6.42183E-02
   3.63388E-02  1.62569E-02 -2.23243E-02 -7.69296E-02 -5.94987E-02 -1.14623E-01 -1.04707E-01 -2.70779E-01 -3.77830E-01 -2.49993E-01
  -3.27118E-01 -6.78182E-01 -3.04928E+00 -2.36859E+00 -9.17566E-01 -5.54421E-01 -7.90654E-02 -4.19729E-01 -1.98915E-01 -1.12993E-01
  -7.48322E-02 -4.84149E-02 -3.00278E-02 -1.53845E-02 -6.26321E-03  2.68548E-03  9.84697E-03  1.56913E-02  1.68985E-02  1.52568E-02
   1.46993E-02 -8.83776E-04  1.96300E-03 -2.07928E-02 -1.98138E-02 -2.00810E-02 -1.75547E-02 -1.68283E-03  1.00457E-03  1.33756E-02
   1.88262E-02  2.66182E-02  3.42891E-02  4.29936E-02  4.63170E-02  4.89892E-02  5.38934E-02  5.73286E-02  6.40946E-02  6.72578E-02
   6.96639E-02  7.14131E-02  7.52406E-02  7.92259E-02  8.30217E-02  8.60733E-02  8.67712E-02  8.76691E-02  8.92311E-02  9.48761E-02
   9.71581E-02  1.01956E-01  1.04235E-01  1.04203E-01  1.02789E-01  9.98783E-02  9.77764E-02  9.58336E-02  9.37083E-02  9.00905E-02
   8.42663E-02  7.86351E-02  7.33956E-02  6.69799E-02  5.81450E-02  5.20700E-02  4.76364E-02  4.23861E-02  3.61860E-02  3.00017E-02
   2.61489E-02  2.04328E-02  1.85931E-02  1.53439E-02  1.11055E-02  8.82910E-03  5.46271E-03  1.95007E-03  1.13442E-04 -1.79261E-03
  -2.45949E-03 -3.72327E-03 -6.06296E-03 -4.25352E-03 -1.99383E-03 -7.98219E-04  2.66099E-03  6.06811E-03  9.90124E-03  1.68373E-02
   2.31277E-02  2.60955E-02  2.69095E-02  3.10695E-02  4.41076E-02  5.11211E-02  5.96663E-02  6.35317E-02  6.42627E-02  7.05163E-02
   7.86060E-02  9.10010E-02  1.01657E-01  1.12129E-01  1.23450E-01  1.33616E-01  1.45100E-01  1.56897E-01  1.64135E-01  1.70750E-01
   1.72826E-01  1.74518E-01  1.75415E-01  1.74693E-01  1.73519E-01  1.71108E-01  1.65891E-01  1.58644E-01  1.46682E-01  1.36131E-01
   1.27208E-01  1.19272E-01  1.10101E-01  1.00812E-01  9.03746E-02  8.10960E-02  7.61266E-02  6.87295E-02  6.20151E-02  5.56691E-02
   5.13866E-02  4.76028E-02  4.37261E-02  4.00185E-02  3.74301E-02  3.93537E-02  4.26959E-02  4.34422E-02  4.62217E-02  5.08786E-02
   5.40173E-02  5.99845E-02  6.58207E-02  7.10828E-02  7.50520E-02  7.79067E-02  8.09580E-02  8.16980E-02  8.35746E-02  8.68802E-02
   9.10878E-02  9.20933E-02  9.05310E-02  8.99297E-02  8.72465E-02  8.73605E-02  8.29589E-02  7.86702E-02  7.67837E-02  7.39145E-02
   7.20550E-02  6.77708E-02  6.47412E-02  6.14719E-02  5.79650E-02  5.51133E-02  5.04809E-02  4.57625E-02  4.45579E-02  4.31887E-02
   3.96662E-02  3.57927E-02  3.23069E-02  2.87519E-02  2.19577E-02  1.35180E-02  6.36783E-03 -1.24927E-03 -8.74983E-03 -1.89821E-02
  -3.44934E-02 -5.04530E-02 -6.83677E-02 -8.24378E-02 -9.79436E-02 -1.14664E-01 -1.29710E-01 -1.41973E-01 -1.52547E-01 -1.64509E-01
  -1.74190E-01 -1.77694E-01 -1.76406E-01 -1.77283E-01 -1.77750E-01 -1.73248E-01 -1.65656E-01 -1.59356E-01 -1.52351E-01 -1.46939E-01
  -1.41671E-01 -1.35733E-01 -1.26551E-01 -1.17461E-01 -1.09752E-01 -9.90428E-02 -8.83083E-02 -7.80355E-02 -6.84053E-02 -5.81245E-02
  -4.89315E-02 -4.19584E-02 -3.08375E-02 -2.06076E-02 -1.52068E-02 -9.66923E-03 -3.46643E-03  5.84710E-03  1.33358E-02  1.39285E-02
   1.72692E-02  2.44757E-02  2.69470E-02  3.05777E-02  3.28666E-02  3.27235E-02  3.67882E-02  3.90696E-02  3.94479E-02  3.86233E-02
   4.00471E-02  4.43667E-02  4.52145E-02  4.79037E-02  5.10575E-02  5.21330E-02  5.20001E-02  5.18999E-02  5.32785E-02  5.22706E-02
   5.22481E-02  5.36353E-02  5.21730E-02  5.18691E-02  5.26698E-02  5.25226E-02  5.28076E-02  5.30454E-02  5.49597E-02  5.70750E-02
   5.28663E-02  4.68173E-02  4.85666E-02  5.17665E-02  5.09609E-02  4.94585E-02  4.85285E-02  5.13611E-02  4.90518E-02  4.59988E-02
   4.63009E-02  4.91287E-02  5.15180E-02  5.03805E-02  5.07741E-02  5.14029E-02  5.32645E-02  5.49632E-02  5.48377E-02  5.46034E-02
   5.69627E-02  5.71288E-02  5.56733E-02  5.26229E-02  5.33623E-02  5.45315E-02  5.47648E-02  5.69994E-02  5.76318E-02  5.88386E-02
   5.78721E-02  5.78912E-02  6.12880E-02  6.39479E-02  6.57611E-02  6.59407E-02  6.23914E-02  6.08863E-02  6.12295E-02  6.29062E-02
   6.53261E-02  6.40728E-02  6.15626E-02  6.14455E-02  6.13068E-02  6.25774E-02  6.38998E-02  6.10750E-02  5.99879E-02  6.29579E-02
   6.54041E-02  6.38006E-02  6.31722E-02  6.41835E-02  6.45334E-02  6.65527E-02  6.50383E-02  6.69197E-02  7.16472E-02  7.44080E-02
   7.62367E-02  7.64278E-02  7.75877E-02  7.87997E-02
 NY background values follow
     4.731E-02    4.722E-02    4.714E-02    4.706E-02    4.698E-02    4.690E-02    4.682E-02    4.673E-02    4.665E-02    4.657E-02
     4.649E-02    4.641E-02    4.633E-02    4.624E-02    4.616E-02    4.608E-02    4.600E-02    4.592E-02    4.583E-02    4.575E-02
     4.567E-02    4.559E-02    4.551E-02    4.543E-02    4.534E-02    4.526E-02    4.518E-02    4.510E-02    4.502E-02    4.493E-02
     4.485E-02    4.477E-02    4.469E-02    4.460E-02    4.452E-02    4.444E-02    4.436E-02    4.428E-02    4.419E-02    4.411E-02
     4.403E-02    4.395E-02    4.387E-02    4.378E-02    4.370E-02    4.362E-02    4.354E-02    4.345E-02    4.337E-02    4.329E-02
     4.321E-02    4.313E-02    4.304E-02    4.296E-02    4.288E-02    4.280E-02    4.271E-02    4.263E-02    4.255E-02    4.247E-02
     4.238E-02    4.230E-02    4.222E-02    4.214E-02    4.205E-02    4.197E-02    4.189E-02    4.181E-02    4.172E-02    4.164E-02
