 LCModel (Version 6.3-1N) Copyright: S.W. Provencher.          Ref.: Magn. Reson. Med. 30:672-679 (1993).                
 Slice_N1@17_20  02-Jun-2023 14:36:57
 27 lines in following concentration table = NCONC+1
    Conc.  %SD /Cr+PCr  Metabolite                                         
 1.87E-06  18% 2.7E-04 Mac                                                 
 1.68E-02  41%   2.386 Cr                                                  
 3.95E-02  18%   5.614 PCr                                                 
 8.46E-02  10%  12.022 Ins                                                 
 8.76E-02   7%  12.442 NAA                                                 
 7.77E-02  10%  11.037 Tau                                                 
 6.30E-03  69%   0.895 PCho                                                
 5.60E-03  77%   0.795 GPC                                                 
 7.05E-02  13%  10.017 Glu                                                 
 2.66E-02  25%   3.778 Gln                                                 
    0.000 999%   0.000 Ala                                                 
 2.45E-02  49%   3.484 Asc                                                 
 1.28E-02  60%   1.825 Asp                                                 
 1.32E-02  31%   1.882 GABA                                                
 1.40E-02  38%   1.984 Glc                                                 
 8.13E-03  45%   1.156 GSH                                                 
    0.000 999%   0.000 Lac                                                 
 1.45E-02  28%   2.063 NAAG                                                
 6.28E-03 162%   0.892 PE                                                  
 1.19E-02  22%   1.690 GPC+PCho                                            
    0.102   7%  14.506 NAA+NAAG                                            
 9.71E-02  11%  13.796 Glu+Gln                                             
 5.63E-02  10%   8.000 Cr+PCr                                              
    0.102   7%  14.506 NAA+NAAG                                            
 5.63E-02  10%   8.000 Cr+PCr                                              
 9.71E-02  11%  13.796 Glu+Gln                                             
   6 lines in following misc. output table
  FWHM = 0.012 ppm    S/N =   6                                            
  Data shift = 0.012 ppm                                                   
  Ph:  -3 deg      -4.7 deg/ppm                                            
  alphaB,S = 1.4E+00,   4.2E-01                                            
   18 spline knots.   Ns = 5(1)                                            
   2 inflections.     1 extrema                                            
  654 points on ppm-axis = NY
      4.000000     3.994181     3.988363     3.982544     3.976726     3.970907     3.965088     3.959270     3.953451     3.947633
      3.941814     3.935995     3.930177     3.924358     3.918540     3.912721     3.906902     3.901084     3.895265     3.889446
      3.883628     3.877809     3.871991     3.866172     3.860353     3.854535     3.848716     3.842898     3.837079     3.831260
      3.825442     3.819623     3.813805     3.807986     3.802167     3.796349     3.790530     3.784712     3.778893     3.773074
      3.767256     3.761437     3.755619     3.749800     3.743981     3.738163     3.732344     3.726526     3.720707     3.714888
      3.709070     3.703251     3.697433     3.691614     3.685795     3.679977     3.674158     3.668339     3.662521     3.656702
      3.650884     3.645065     3.639246     3.633428     3.627609     3.621791     3.615972     3.610153     3.604335     3.598516
      3.592698     3.586879     3.581060     3.575242     3.569423     3.563605     3.557786     3.551967     3.546149     3.540330
      3.534512     3.528693     3.522874     3.517056     3.511237     3.505419     3.499600     3.493781     3.487963     3.482144
      3.476326     3.470507     3.464688     3.458870     3.453051     3.447232     3.441414     3.435595     3.429777     3.423958
      3.418139     3.412321     3.406502     3.400684     3.394865     3.389046     3.383228     3.377409     3.371591     3.365772
      3.359953     3.354135     3.348316     3.342498     3.336679     3.330860     3.325042     3.319223     3.313405     3.307586
      3.301767     3.295949     3.290130     3.284312     3.278493     3.272674     3.266856     3.261037     3.255219     3.249400
      3.243581     3.237763     3.231944     3.226125     3.220307     3.214488     3.208670     3.202851     3.197032     3.191214
      3.185395     3.179577     3.173758     3.167939     3.162121     3.156302     3.150484     3.144665     3.138846     3.133028
      3.127209     3.121391     3.115572     3.109753     3.103935     3.098116     3.092298     3.086479     3.080660     3.074842
      3.069023     3.063205     3.057386     3.051567     3.045749     3.039930     3.034111     3.028293     3.022474     3.016656
      3.010837     3.005018     2.999200     2.993381     2.987563     2.981744     2.975925     2.970107     2.964288     2.958470
      2.952651     2.946832     2.941014     2.935195     2.929377     2.923558     2.917739     2.911921     2.906102     2.900284
      2.894465     2.888646     2.882828     2.877009     2.871191     2.865372     2.859553     2.853735     2.847916     2.842098
      2.836279     2.830460     2.824642     2.818823     2.813004     2.807186     2.801367     2.795549     2.789730     2.783911
      2.778093     2.772274     2.766456     2.760637     2.754818     2.749000     2.743181     2.737363     2.731544     2.725725
      2.719907     2.714088     2.708270     2.702451     2.696632     2.690814     2.684995     2.679177     2.673358     2.667539
      2.661721     2.655902     2.650084     2.644265     2.638446     2.632628     2.626809     2.620991     2.615172     2.609353
      2.603535     2.597716     2.591897     2.586079     2.580260     2.574442     2.568623     2.562804     2.556986     2.551167
      2.545349     2.539530     2.533711     2.527893     2.522074     2.516256     2.510437     2.504618     2.498800     2.492981
      2.487163     2.481344     2.475525     2.469707     2.463888     2.458070     2.452251     2.446432     2.440614     2.434795
      2.428977     2.423158     2.417339     2.411521     2.405702     2.399884     2.394065     2.388246     2.382428     2.376609
      2.370790     2.364972     2.359153     2.353335     2.347516     2.341697     2.335879     2.330060     2.324242     2.318423
      2.312604     2.306786     2.300967     2.295149     2.289330     2.283511     2.277693     2.271874     2.266056     2.260237
      2.254418     2.248600     2.242781     2.236963     2.231144     2.225325     2.219507     2.213688     2.207870     2.202051
      2.196232     2.190414     2.184595     2.178777     2.172958     2.167139     2.161321     2.155502     2.149683     2.143865
      2.138046     2.132228     2.126409     2.120590     2.114772     2.108953     2.103135     2.097316     2.091497     2.085679
      2.079860     2.074042     2.068223     2.062404     2.056586     2.050767     2.044949     2.039130     2.033311     2.027493
      2.021674     2.015856     2.010037     2.004218     1.998400     1.992581     1.986763     1.980944     1.975126     1.969307
      1.963489     1.957670     1.951852     1.946033     1.940215     1.934397     1.928578     1.922760     1.916941     1.911123
      1.905304     1.899486     1.893667     1.887849     1.882030     1.876212     1.870393     1.864575     1.858756     1.852938
      1.847119     1.841301     1.835482     1.829664     1.823845     1.818027     1.812208     1.806390     1.800571     1.794753
      1.788934     1.783116     1.777297     1.771479     1.765660     1.759842     1.754023     1.748205     1.742386     1.736568
      1.730749     1.724931     1.719113     1.713294     1.707476     1.701657     1.695839     1.690020     1.684202     1.678383
      1.672565     1.666746     1.660928     1.655109     1.649291     1.643472     1.637654     1.631835     1.626017     1.620198
      1.614380     1.608561     1.602743     1.596924     1.591106     1.585287     1.579469     1.573650     1.567832     1.562013
      1.556195     1.550376     1.544558     1.538739     1.532921     1.527102     1.521284     1.515465     1.509647     1.503829
      1.498010     1.492192     1.486373     1.480555     1.474736     1.468918     1.463099     1.457281     1.451462     1.445644
      1.439825     1.434007     1.428188     1.422370     1.416551     1.410733     1.404914     1.399096     1.393277     1.387459
      1.381640     1.375822     1.370003     1.364185     1.358366     1.352548     1.346729     1.340911     1.335092     1.329274
      1.323455     1.317637     1.311818     1.306000     1.300182     1.294363     1.288545     1.282726     1.276908     1.271089
      1.265271     1.259452     1.253634     1.247815     1.241997     1.236178     1.230360     1.224541     1.218723     1.212904
      1.207086     1.201267     1.195449     1.189630     1.183812     1.177993     1.172175     1.166356     1.160538     1.154719
      1.148901     1.143082     1.137264     1.131445     1.125627     1.119808     1.113990     1.108171     1.102353     1.096534
      1.090716     1.084898     1.079079     1.073261     1.067442     1.061624     1.055805     1.049987     1.044168     1.038350
      1.032531     1.026713     1.020894     1.015076     1.009257     1.003439     0.997620     0.991802     0.985983     0.980165
      0.974346     0.968528     0.962709     0.956891     0.951072     0.945254     0.939435     0.933617     0.927798     0.921980
      0.916161     0.910343     0.904524     0.898706     0.892887     0.887069     0.881251     0.875432     0.869614     0.863795
      0.857977     0.852158     0.846340     0.840521     0.834703     0.828884     0.823066     0.817247     0.811429     0.805610
      0.799792     0.793973     0.788155     0.782336     0.776518     0.770699     0.764881     0.759062     0.753244     0.747425
      0.741607     0.735788     0.729970     0.724151     0.718333     0.712514     0.706696     0.700877     0.695059     0.689240
      0.683422     0.677603     0.671785     0.665967     0.660148     0.654330     0.648511     0.642693     0.636874     0.631056
      0.625237     0.619419     0.613600     0.607782     0.601963     0.596145     0.590326     0.584508     0.578689     0.572871
      0.567052     0.561234     0.555415     0.549597     0.543778     0.537960     0.532141     0.526323     0.520504     0.514686
      0.508867     0.503049     0.497230     0.491412     0.485593     0.479775     0.473956     0.468138     0.462319     0.456501
      0.450682     0.444864     0.439045     0.433227     0.427408     0.421590     0.415771     0.409953     0.404134     0.398316
      0.392497     0.386679     0.380860     0.375042     0.369223     0.363405     0.357586     0.351767     0.345949     0.340130
      0.334312     0.328493     0.322675     0.316856     0.311038     0.305219     0.299401     0.293582     0.287764     0.281945
      0.276127     0.270308     0.264490     0.258671     0.252853     0.247034     0.241216     0.235397     0.229579     0.223760
      0.217942     0.212123     0.206305     0.200486
 NY phased data points follow
  -2.46258E-01 -3.51204E-01  3.97379E-02  2.08574E-01  2.22869E-01 -7.14325E-02 -2.57535E-01 -6.65342E-02 -1.75414E-01  1.99387E-01
  -3.36181E-02 -6.89223E-02  7.91241E-01  3.65367E-01  3.60616E-01  2.23838E-01 -2.22282E-04 -1.86595E-02  7.39147E-02  1.42620E-01
   2.29258E-02  1.98437E-01 -1.22491E-01 -1.87264E-01 -1.67060E-01 -9.31828E-02  2.60664E-01  2.61968E-01 -2.08823E-01 -1.23039E-01
  -2.23425E-01 -5.58128E-02  1.28598E-01 -3.48889E-01 -2.41969E-01 -2.85071E-01 -2.97684E-01 -4.96344E-01 -2.63117E-01 -2.38842E-01
  -2.72740E-01  3.98446E-01  2.42660E-01  1.53654E-01  2.23307E-01  1.60448E-01  2.64652E-01  2.31042E-01  4.59999E-01  1.60014E-01
  -3.79580E-02  9.52227E-02  1.78481E-01  2.88242E-01 -1.79812E-01  1.29465E-01 -2.65605E-01 -2.59222E-01  5.63567E-02 -1.73239E-01
  -1.95492E-02 -4.98441E-01 -4.01781E-01 -1.84116E-01 -1.92775E-01 -3.08483E-01  6.32007E-01  1.93526E-01  4.73912E-02  1.13817E+00
   4.10261E-01  4.01345E-01  1.23065E-01 -1.56210E-01 -1.71976E-01 -8.62777E-02 -5.17171E-03 -1.43259E-01 -4.50830E-01 -6.28393E-01
  -5.45931E-01 -4.51311E-01 -1.26487E-01 -3.42172E-01  5.38377E-01  5.72046E-01 -9.46022E-03  1.18189E-01 -1.92393E-02  4.34825E-03
   1.54305E-02  1.27798E-01  1.60463E-01  2.77612E-01  2.64350E-01  1.75846E-01 -2.48970E-01 -2.54696E-01 -3.61742E-01 -2.66500E-01
  -1.07640E-01 -5.28515E-01 -2.44025E-02  9.13575E-03  2.61098E-01  6.14100E-01  2.87395E-01  3.39967E-01  5.18211E-01  4.97628E-01
   2.13423E-01  2.74981E-01  4.25921E-01  3.55803E-01  4.69189E-01  6.47122E-01  5.91895E-01  5.86408E-01  3.90750E-01  2.44557E-01
   1.14504E-01 -2.94812E-02  2.90043E-02  4.98644E-02 -5.85331E-02 -3.40166E-01 -1.02918E-01 -4.57946E-01 -6.88442E-01 -7.98880E-01
  -1.07613E+00 -7.86791E-01 -5.71655E-01 -3.57785E-01 -8.30308E-01 -7.18378E-01 -9.91240E-01 -7.97942E-01 -2.84200E-01 -5.41369E-01
   1.94182E-01 -1.44741E-01 -1.48545E-01 -8.88972E-02 -2.80260E-01  3.12953E-01 -1.01611E-01 -1.14153E-01  2.52775E-01  1.21476E-01
  -6.93258E-02  6.80359E-02  2.49032E-01  1.25069E-01  4.36165E-01  1.97315E-01  1.52927E-01  4.36749E-01  1.61744E-01  5.09662E-01
   4.56430E-01  3.10547E-01  5.30927E-01  8.11830E-01  9.42857E-01  9.81935E-01  1.08633E+00 -7.26554E-02 -9.40382E-01 -5.49216E-01
  -4.96061E-01 -5.51096E-01 -5.41818E-01 -7.50504E-01 -4.29706E-01 -4.17860E-01 -7.19007E-01 -3.52481E-01 -1.62920E-01 -2.34370E-01
  -1.90241E-02 -2.20588E-01 -2.58656E-01 -1.71707E-01 -2.83748E-01 -1.78200E-01 -3.00245E-01 -3.44201E-02 -2.49470E-01 -3.17945E-01
  -3.75637E-01 -5.16642E-01 -1.08112E-02  5.91580E-02 -1.79987E-01 -1.80516E-01 -1.14933E-01 -2.91363E-01  1.57175E-02 -2.88667E-02
  -1.62905E-01 -2.00231E-01 -1.82733E-02 -1.15567E-01  9.12267E-02  4.98986E-01  2.83647E-02 -1.46428E-02  2.55279E-01  4.29861E-01
  -1.63686E-01 -4.56061E-02  2.08970E-02  1.35611E-02 -1.11315E-01  7.14539E-02  1.76552E-01 -1.55246E-01  1.14146E-01 -3.52442E-01
   1.31117E-01 -2.46074E-01 -9.62112E-02  1.61235E-01 -2.47305E-02  5.15421E-01  3.46817E-01  4.72334E-01  4.69592E-04  1.45037E-01
   5.27539E-01  3.67008E-01 -4.74861E-02 -1.42034E-01  4.77461E-02 -1.49586E-02 -9.31811E-02 -3.59207E-02  8.24427E-02 -4.18055E-02
  -1.01524E-01 -2.22666E-01 -9.04225E-02 -6.16315E-02 -5.15899E-02  6.85382E-02 -2.43165E-01 -3.34678E-01  1.79329E-01  5.52912E-02
   6.16082E-02 -3.44432E-02 -1.98895E-01  3.90297E-02 -1.00222E-01 -2.82755E-01 -1.21558E-01  1.33657E-01 -2.59793E-02  3.80264E-01
   6.30934E-02  1.40839E-02  4.13910E-02  1.93494E-01  4.58528E-01 -2.22167E-01  2.86720E-02  7.47990E-02  4.33643E-01  4.37982E-01
   2.78615E-01  3.27759E-01 -1.36697E-01  9.27365E-02 -4.14545E-02 -2.22130E-01  2.25946E-01  4.93674E-02 -8.04245E-02 -2.53705E-01
  -2.68577E-01 -1.00267E-01 -2.23702E-01 -1.63250E-01 -2.68317E-02  6.23812E-01  2.38130E-01  6.93542E-01  6.95739E-01  8.33724E-02
   4.05315E-01  1.15348E-01  1.60962E-01 -5.87035E-02  3.51364E-01  4.08875E-01  1.18965E-01  1.85414E-02  4.19019E-01  2.23861E-01
   2.53436E-01  4.54574E-01  3.84358E-02  4.72076E-01 -5.91226E-02  1.94855E-01  2.09419E-01  5.61662E-01  5.24804E-01  3.53957E-01
   7.07694E-01 -2.16287E-02  4.99916E-01  3.51943E-01  1.26480E-01  1.73799E-01  3.16645E-03 -2.22530E-01 -2.31289E-01 -4.24532E-02
  -2.31005E-01 -5.19320E-02 -3.68348E-01 -3.35992E-01 -1.13279E-01  5.79154E-02  1.65949E-01 -4.34271E-02  1.60781E-01 -4.40113E-02
   1.43920E-01  3.78615E-01  3.18567E-02 -2.47509E-01 -5.80705E-01 -2.68878E-01 -6.17101E-01 -6.84053E-01 -2.81506E-01 -4.21489E-01
  -2.49818E-01 -9.90767E-01 -2.46594E+00 -2.14024E+00 -3.33426E-01 -3.09649E-01 -4.64615E-01  9.01358E-02 -7.00539E-02 -2.89306E-01
   6.18977E-03 -9.92740E-03  4.83973E-02  4.18045E-01  5.18913E-03 -1.02500E-02 -5.09166E-02  5.11781E-02  1.33790E-02  1.82520E-01
   2.83253E-01  8.18167E-02  1.98214E-01 -6.15851E-02 -1.34803E-01 -2.86393E-01  1.91236E-01  3.47897E-02 -1.39918E-02  8.99396E-02
  -1.56272E-01  1.90601E-01  1.59294E-01  2.34367E-01 -5.41649E-02  7.47382E-02  1.86113E-01  1.84624E-01  2.51950E-01  8.59024E-02
   1.76152E-01  2.86700E-01  4.68008E-01  2.55524E-01  2.43941E-01  1.27899E-01  2.52627E-02  2.12056E-01  2.23300E-01  1.67935E-01
   3.71286E-01  3.92190E-01  2.49208E-01  2.25381E-01 -1.40420E-01  1.16655E-01  1.35047E-01 -4.19099E-02  4.57934E-02  9.86660E-03
   2.21085E-01  1.24762E-01  6.31191E-02  1.43268E-01  4.25543E-02 -2.06707E-01 -1.86996E-01 -1.90323E-01 -1.50593E-01  1.30324E-01
   2.41303E-01  1.72678E-01 -1.99525E-01 -1.34031E-01  3.58393E-02 -1.46050E-01 -1.53932E-01 -5.01213E-02 -2.61021E-01 -3.72670E-01
   1.85860E-01 -2.10539E-02 -2.57462E-01  7.87841E-02 -3.52057E-01 -1.38683E-01  5.79237E-02 -3.20224E-01 -5.85896E-02  6.51009E-02
   5.07537E-03  1.86957E-01 -6.54484E-02 -2.17213E-01  3.33017E-01 -1.85815E-02 -1.92802E-01 -8.93292E-03 -6.14819E-02 -1.35319E-01
  -1.10908E-01  3.58400E-01  2.02025E-02  2.07913E-01  1.89237E-01 -3.70162E-02  9.13770E-02 -1.77464E-01  8.53274E-03  1.85369E-01
   2.63073E-01  1.81247E-01  1.71597E-01 -2.58858E-02  1.57175E-01  2.04392E-01 -2.07727E-01  1.86928E-02 -3.26261E-02 -9.76388E-02
   2.60191E-01 -1.07990E-01 -2.85305E-02  3.25264E-01 -4.85920E-01 -2.14760E-01 -1.57586E-02 -1.84602E-01  8.27251E-03 -2.35824E-01
   1.19276E-01  2.20370E-02 -2.69962E-01  5.51796E-02  4.92935E-03 -1.94084E-01 -4.78676E-02  9.78632E-03 -2.02503E-01 -1.82376E-01
   1.92036E-01  7.70123E-02  1.29675E-01  2.65085E-01  1.78101E-01  1.40117E-01  3.71555E-02  2.30965E-01  1.39427E-01  2.53579E-02
  -1.36306E-01  5.61028E-02 -8.24514E-02 -2.12023E-01  3.55472E-02 -1.39730E-01  1.50408E-02  1.22034E-02  9.64010E-02  3.16954E-01
   4.50108E-01  1.51672E-01 -3.13706E-02 -9.93567E-02  4.60725E-02  2.73278E-01  1.06797E-01  3.35801E-01  1.49693E-01  5.09596E-02
  -2.19944E-02  1.35309E-01  2.03198E-01 -7.87225E-02  1.31097E-01 -2.74540E-03  6.07866E-02  6.63191E-02 -2.71652E-01 -2.29188E-01
  -3.80465E-01 -5.48907E-01 -1.39170E-01 -5.18103E-02 -1.25288E-01 -1.12590E-01 -3.71610E-01 -3.66623E-01 -5.26715E-01 -3.94061E-01
  -1.68928E-01 -3.33724E-01 -1.08850E-01 -2.21282E-01  1.19840E-02  9.99843E-02 -1.00344E-01  1.08920E-01 -2.73841E-01 -1.48500E-01
  -1.05529E-01 -1.35809E-01 -1.01592E-01 -1.15135E-01  3.19542E-01  1.65976E-01  4.96483E-02  3.01347E-01  2.00987E-01  3.68617E-02
   3.54017E-01  1.05523E-01  1.67862E-01  3.53939E-01  1.85621E-01  1.76286E-01  1.57821E-02  3.23752E-01  1.37832E-01  1.27699E-01
   1.18534E-01  2.33628E-01  1.77698E-01  9.76279E-02  4.75858E-01  2.18824E-01  3.38210E-01 -8.58219E-02 -4.67473E-02  1.50033E-01
   1.72934E-01  1.89793E-01 -2.06308E-01  5.19746E-02 -7.04037E-02  2.45327E-01  1.47849E-02 -5.42367E-02  2.13370E-01  6.97024E-02
   2.87773E-01 -1.86972E-01  1.47921E-01  1.02377E-01 -4.03116E-01 -5.76695E-02  8.17852E-02  2.14456E-01  3.36037E-01  2.97956E-02
   4.65847E-02  2.26786E-01 -1.48378E-01  1.52447E-01  1.71495E-01  2.11408E-01  3.30290E-01  5.99878E-02  2.50801E-01 -8.71669E-03
   4.99294E-02  2.17956E-01 -3.76403E-02  1.13793E-02  2.47782E-01  5.24828E-02  1.21191E-01  2.77199E-01 -3.32171E-02  1.86283E-01
   2.45913E-01  1.05686E-01  4.28599E-02  1.51145E-01  3.41131E-01  5.26845E-03  5.02292E-02  1.60459E-01 -3.16025E-01 -8.90903E-02
   8.03479E-02  8.76897E-02  2.44928E-01 -9.32793E-02  5.94156E-02 -1.10858E-01 -1.61499E-01  1.70961E-01  1.88733E-01  1.58966E-01
  -1.43272E-01 -1.16998E-01  2.69268E-01  2.86876E-01 -1.84778E-02  1.05610E-01  1.08832E-01  2.07175E-01  3.50524E-02 -1.94742E-01
   9.32404E-02 -4.24758E-02  1.79541E-01  1.85371E-01 -8.83895E-02  8.93760E-02  1.54616E-01 -1.03263E-01  8.34557E-02  2.08824E-01
  -2.52634E-01 -4.09460E-01 -3.21345E-01  1.39929E-01
 NY points of the fit to the data follow
   8.56946E-02  7.14988E-02  6.42275E-02  3.95519E-02  3.75908E-02  3.09176E-02  1.67873E-02  1.28768E-02  3.55695E-03  7.56149E-02
   1.21292E-01  3.02542E-01  7.16640E-01  5.31682E-01  3.68685E-01  4.20643E-01  1.56045E-01  1.08700E-01  1.41607E-01  7.60987E-02
   6.40610E-02  5.68344E-02  1.71308E-02 -3.75646E-02 -6.04347E-02 -7.67436E-02 -1.08732E-01 -1.10882E-01 -1.08511E-01 -1.35828E-01
  -1.33200E-01 -1.32874E-01 -1.61688E-01 -1.95822E-01 -2.34827E-01 -2.75702E-01 -2.98928E-01 -3.56218E-01 -2.81233E-01 -3.21238E-01
  -6.98903E-02  1.69829E-01  2.04913E-01  2.50070E-01  3.31577E-01  3.29953E-01  2.66328E-01  2.49583E-01  1.84556E-01  1.92516E-01
   1.39784E-01  6.08582E-02  7.80864E-02  2.83158E-02 -3.20915E-02 -7.42029E-02 -1.34057E-01 -1.77475E-01 -1.76261E-01 -2.22952E-01
  -2.74639E-01 -3.68045E-01 -4.58433E-01 -1.54668E-01 -4.21518E-01 -3.70644E-01  4.61432E-01  8.70898E-02  9.36359E-02  6.86769E-01
   4.30248E-01  2.69410E-01  2.86602E-01  1.70572E-01  8.97779E-02  4.37302E-04 -9.58760E-02 -2.52330E-01 -3.37917E-01 -6.99385E-01
  -7.15771E-01 -2.29007E-02 -4.68323E-02 -8.49928E-02  4.41119E-01  5.04452E-01  3.62194E-01  3.55018E-01  3.29841E-01  2.50607E-01
   2.17146E-01  2.15799E-01  1.53187E-01  1.10915E-01  4.89644E-02 -2.97485E-02 -2.20178E-01 -3.65465E-01 -5.40854E-01 -5.75209E-01
  -3.57207E-01 -1.32901E-01  1.34654E-01  2.79942E-01  2.79948E-01  2.96126E-01  3.15443E-01  3.04838E-01  3.02161E-01  3.14644E-01
   3.14138E-01  3.12809E-01  3.11204E-01  3.09581E-01  3.11065E-01  3.13205E-01  3.16200E-01  3.17397E-01  3.14841E-01  3.07982E-01
   2.78603E-01  2.72865E-01  5.70727E-02  6.09296E-02  5.67079E-02 -3.19913E-01  1.56424E-03 -4.50387E-01 -6.70782E-01 -7.34059E-01
  -9.22822E-01 -5.48397E-01 -5.70752E-01 -2.99352E-01 -4.48008E-01 -8.69255E-01 -9.05283E-01 -7.52953E-01 -3.87847E-01 -2.55318E-01
  -1.90174E-01 -8.27410E-02 -4.79389E-02 -1.85204E-02  9.62111E-03  3.74245E-02  5.81891E-02  7.75786E-02  9.69245E-02  1.10439E-01
   1.26880E-01  1.43520E-01  1.57448E-01  1.74712E-01  1.92814E-01  2.13015E-01  2.35970E-01  2.62194E-01  2.88989E-01  3.21047E-01
   3.70268E-01  4.43597E-01  5.22686E-01  6.23305E-01  7.21352E-01  7.47948E-01  1.03749E+00 -2.12891E-01 -1.22284E+00 -5.71195E-01
  -4.32617E-01 -5.55678E-01 -4.16544E-01 -3.60877E-01 -3.70345E-01 -3.42678E-01 -2.88922E-01 -2.62309E-01 -2.36524E-01 -2.39841E-01
  -2.43972E-01 -2.05938E-01 -1.87527E-01 -1.87803E-01 -1.74975E-01 -1.75340E-01 -1.73184E-01 -1.59426E-01 -1.49203E-01 -1.48386E-01
  -1.43729E-01 -1.31380E-01 -1.23738E-01 -1.14855E-01 -1.04902E-01 -9.90638E-02 -9.15141E-02 -8.14024E-02 -7.43242E-02 -6.66505E-02
  -5.69574E-02 -4.40260E-02 -2.54340E-02 -1.76066E-02 -3.75083E-02 -4.90804E-02 -3.34421E-02 -8.54781E-03  3.00160E-03 -3.39751E-02
  -6.51577E-02 -5.53910E-02 -5.19420E-02 -5.31937E-02 -3.93537E-02 -3.30035E-02 -1.21312E-02  1.48204E-02 -4.39550E-03 -3.38478E-02
  -6.25626E-03  2.00905E-02  6.69408E-02  6.01477E-02  1.46889E-01  3.54664E-01  2.92217E-01  1.63402E-01  1.66110E-01  2.83017E-01
   5.28802E-01  3.79000E-01  9.62638E-02  8.91107E-02  3.76903E-02 -2.82488E-02 -3.14011E-02 -4.48143E-02 -5.50827E-02 -6.64419E-02
  -7.79185E-02 -8.61077E-02 -9.46473E-02 -9.66157E-02 -1.07800E-01 -1.09360E-01 -1.20487E-01 -1.21568E-01 -1.24120E-01 -1.35032E-01
  -1.28088E-01 -1.21125E-01 -1.49904E-01 -1.75798E-01 -1.33557E-01 -2.17448E-01 -5.18436E-02  1.56356E-01 -1.00634E-01  4.66821E-02
   2.28863E-01  1.44519E-01  1.11844E-01  6.08588E-02  2.00185E-01  1.27526E-01  1.30821E-01  1.63363E-01  1.65198E-01  2.27647E-01
   1.66675E-01  1.52591E-01  1.05286E-01  4.97363E-02  2.28222E-02 -2.80899E-02 -6.92131E-02 -1.14719E-01 -1.94980E-01 -2.25896E-01
  -3.47372E-01 -3.88851E-01 -2.65630E-01 -2.47264E-01  2.39194E-02  2.34953E-01  2.70495E-01  4.38599E-01  3.97432E-01  2.89214E-01
   2.84657E-01  1.88188E-01  1.80395E-01  1.67812E-01  1.49298E-01  2.28258E-01  2.33066E-01  2.44402E-01  2.72943E-01  2.49710E-01
   2.40893E-01  2.34561E-01  2.19358E-01  2.13288E-01  2.03284E-01  1.90013E-01  1.70159E-01  1.53829E-01  1.17010E-01  6.45783E-02
   7.54898E-02  5.92676E-03  1.73396E-02  5.62331E-02  1.94603E-03  3.20008E-02 -3.54126E-02 -1.25550E-01 -1.94916E-01 -2.39617E-01
  -3.09997E-01 -3.09733E-01 -2.80830E-01 -2.56786E-01 -1.64977E-01 -7.67633E-02  3.09211E-02  9.56022E-02  1.41868E-01  1.15146E-01
   7.03846E-02  4.97467E-02 -7.90200E-02 -7.14146E-02 -1.92694E-01 -1.77751E-01 -4.60894E-01 -5.39340E-01 -1.37904E-01 -3.36271E-01
  -3.69101E-01 -9.02501E-01 -2.51412E+00 -2.02487E+00 -5.71355E-01 -5.14036E-01 -3.94643E-01 -1.06039E-01 -8.74818E-02 -6.27840E-02
  -3.68761E-02 -1.24434E-02  6.07154E-03  2.05811E-02  3.55719E-02  4.56807E-02  6.08198E-02  5.86130E-02  5.64402E-02  5.25052E-02
   8.94705E-04 -2.59062E-03 -4.80807E-02 -8.12572E-02 -7.29895E-02 -8.98875E-02 -6.52574E-02 -4.66729E-02 -3.19478E-02 -1.12931E-02
  -1.08924E-03  1.44033E-02  2.85155E-02  3.56932E-02  3.96009E-02  4.71899E-02  5.23870E-02  5.81002E-02  6.43647E-02  6.71645E-02
   6.97878E-02  7.39050E-02  7.84454E-02  8.28823E-02  8.55448E-02  8.80270E-02  8.92892E-02  9.02361E-02  9.60631E-02  9.96370E-02
   1.02893E-01  1.06950E-01  1.08090E-01  1.06803E-01  1.05323E-01  1.04532E-01  1.02971E-01  1.00865E-01  9.91276E-02  9.49460E-02
   8.96146E-02  8.59422E-02  8.11233E-02  7.34844E-02  6.75154E-02  6.46071E-02  6.01356E-02  5.38826E-02  4.89139E-02  4.63522E-02
   4.08224E-02  3.77430E-02  3.73110E-02  3.27918E-02  2.97974E-02  2.84139E-02  2.42173E-02  2.19727E-02  2.06456E-02  1.90632E-02
   1.85259E-02  1.60919E-02  1.63051E-02  1.92523E-02  1.94522E-02  2.09880E-02  2.58063E-02  2.75113E-02  3.19508E-02  3.82039E-02
   3.95362E-02  3.96364E-02  4.04086E-02  4.67030E-02  5.31093E-02  5.95597E-02  6.54827E-02  7.01826E-02  7.69690E-02  8.44108E-02
   9.39403E-02  1.04407E-01  1.13440E-01  1.23004E-01  1.33639E-01  1.42611E-01  1.53759E-01  1.61417E-01  1.67041E-01  1.70765E-01
   1.71217E-01  1.73487E-01  1.73164E-01  1.71879E-01  1.71919E-01  1.66995E-01  1.61582E-01  1.52921E-01  1.42790E-01  1.34807E-01
   1.28474E-01  1.19753E-01  1.12213E-01  1.04037E-01  9.49721E-02  9.05938E-02  8.46044E-02  7.79060E-02  7.27224E-02  6.88712E-02
   6.53286E-02  6.11406E-02  5.83703E-02  5.57591E-02  5.54966E-02  5.92113E-02  6.06361E-02  6.06891E-02  6.59022E-02  6.90714E-02
   7.21701E-02  7.93594E-02  8.38563E-02  8.69839E-02  8.96003E-02  9.25616E-02  9.35775E-02  9.43275E-02  9.79766E-02  1.01320E-01
   1.02690E-01  1.01647E-01  1.01417E-01  9.96569E-02  9.90091E-02  9.62888E-02  9.16100E-02  9.04864E-02  8.84389E-02  8.59444E-02
   8.30401E-02  8.02032E-02  7.83661E-02  7.46091E-02  7.13797E-02  6.93250E-02  6.42417E-02  6.23684E-02  6.30948E-02  5.95875E-02
   5.59497E-02  5.39033E-02  5.12557E-02  4.61557E-02  3.82507E-02  3.26906E-02  2.71437E-02  1.96414E-02  1.23348E-02 -6.05617E-05
  -1.51555E-02 -3.03728E-02 -4.34166E-02 -5.63605E-02 -7.13195E-02 -8.50025E-02 -9.66041E-02 -1.06216E-01 -1.16489E-01 -1.26671E-01
  -1.30815E-01 -1.29612E-01 -1.30558E-01 -1.32555E-01 -1.29230E-01 -1.21194E-01 -1.16699E-01 -1.12470E-01 -1.06353E-01 -1.01710E-01
  -9.86768E-02 -9.08745E-02 -8.21544E-02 -7.68879E-02 -6.84325E-02 -5.84790E-02 -4.91484E-02 -4.23294E-02 -3.35818E-02 -2.36551E-02
  -1.88579E-02 -1.11058E-02  1.25263E-04  4.53306E-03  8.64230E-03  1.47430E-02  2.13271E-02  2.92875E-02  3.05100E-02  3.08793E-02
   3.89903E-02  4.22788E-02  4.20555E-02  4.67772E-02  4.71090E-02  4.76428E-02  5.20419E-02  5.27445E-02  5.06366E-02  5.11118E-02
   5.60646E-02  5.69758E-02  5.74772E-02  6.20100E-02  6.36361E-02  6.25180E-02  6.25426E-02  6.43877E-02  6.37862E-02  6.23792E-02
   6.43152E-02  6.37242E-02  6.24642E-02  6.33369E-02  6.27898E-02  6.36435E-02  6.46863E-02  6.46545E-02  6.69854E-02  6.55590E-02
   5.83001E-02  5.87835E-02  6.39714E-02  6.24041E-02  6.05899E-02  6.00539E-02  6.20047E-02  6.07132E-02  5.73451E-02  5.71059E-02
   5.97162E-02  6.26589E-02  6.12085E-02  6.10468E-02  6.27548E-02  6.33228E-02  6.47369E-02  6.56362E-02  6.51472E-02  6.66480E-02
   6.81282E-02  6.63300E-02  6.29937E-02  6.36527E-02  6.55667E-02  6.45387E-02  6.64020E-02  6.75312E-02  6.83168E-02  6.79995E-02
   6.61872E-02  7.13402E-02  7.41041E-02  7.34519E-02  7.57260E-02  7.20449E-02  6.95040E-02  7.12744E-02  7.18064E-02  7.34207E-02
   7.39294E-02  7.10403E-02  7.10096E-02  7.20055E-02  7.09591E-02  7.30084E-02  7.18548E-02  6.95016E-02  7.22462E-02  7.53146E-02
   7.35320E-02  7.21762E-02  7.48019E-02  7.39391E-02  7.52637E-02  7.59077E-02  7.56356E-02  8.12752E-02  8.36976E-02  8.46964E-02
   8.56360E-02  8.60845E-02  8.85197E-02  8.78532E-02
 NY background values follow
     3.166E-02    3.170E-02    3.175E-02    3.180E-02    3.185E-02    3.190E-02    3.195E-02    3.200E-02    3.205E-02    3.210E-02
     3.215E-02    3.219E-02    3.224E-02    3.229E-02    3.234E-02    3.239E-02    3.244E-02    3.249E-02    3.254E-02    3.258E-02
     3.263E-02    3.268E-02    3.273E-02    3.278E-02    3.283E-02    3.288E-02    3.292E-02    3.297E-02    3.302E-02    3.307E-02
     3.312E-02    3.316E-02    3.321E-02    3.326E-02    3.331E-02    3.336E-02    3.340E-02    3.345E-02    3.350E-02    3.355E-02
     3.359E-02    3.364E-02    3.369E-02    3.373E-02    3.378E-02    3.383E-02    3.388E-02    3.392E-02    3.397E-02    3.401E-02
     3.406E-02    3.411E-02    3.415E-02    3.420E-02    3.425E-02    3.429E-02    3.434E-02    3.438E-02    3.443E-02    3.447E-02
     3.452E-02    3.456E-02    3.461E-02    3.465E-02    3.470E-02    3.474E-02    3.479E-02    3.483E-02    3.487E-02    3.492E-02
