 LCModel (Version 6.3-1N) Copyright: S.W. Provencher.          Ref.: Magn. Reson. Med. 30:672-679 (1993).                
 Slice_N1@18_25  02-Jun-2023 14:36:48
 27 lines in following concentration table = NCONC+1
    Conc.  %SD /Cr+PCr  Metabolite                                         
    0.000 999%   0.000 Mac                                                 
 2.79E-02  66%   6.205 Cr                                                  
 8.06E-03 262%   1.795 PCr                                                 
 5.58E-02  26%  12.439 Ins                                                 
 6.79E-02  16%  15.120 NAA                                                 
 4.95E-02  27%  11.020 Tau                                                 
    0.000 999%   0.000 PCho                                                
 1.02E-02  33%   2.269 GPC                                                 
 9.42E-02  18%  20.979 Glu                                                 
 6.98E-04 861%   0.155 Gln                                                 
 1.69E-02  76%   3.762 Ala                                                 
    0.000 999%   0.000 Asc                                                 
 1.14E-02  58%   2.538 Asp                                                 
 6.26E-03  61%   1.394 GABA                                                
 4.53E-03  89%   1.010 Glc                                                 
    0.000 999%   0.000 GSH                                                 
    0.000 999%   0.000 Lac                                                 
 1.33E-02  65%   2.970 NAAG                                                
    0.000 999%   0.000 PE                                                  
 1.02E-02  33%   2.269 GPC+PCho                                            
 8.12E-02  16%  18.090 NAA+NAAG                                            
 9.49E-02  18%  21.135 Glu+Gln                                             
 3.59E-02  31%   8.000 Cr+PCr                                              
 8.12E-02  16%  18.090 NAA+NAAG                                            
 3.59E-02  31%   8.000 Cr+PCr                                              
 9.49E-02  18%  21.135 Glu+Gln                                             
   6 lines in following misc. output table
  FWHM = 0.029 ppm    S/N =   1                                            
  Data shift =-0.047 ppm                                                   
  Ph:  88 deg       3.3 deg/ppm                                            
  alphaB,S = 3.1E+01,   2.6E+01                                            
   18 spline knots.   Ns = 5(1)                                            
   2 inflections.     1 extrema                                            
  654 points on ppm-axis = NY
      4.000000     3.994181     3.988363     3.982544     3.976726     3.970907     3.965088     3.959270     3.953451     3.947633
      3.941814     3.935995     3.930177     3.924358     3.918540     3.912721     3.906902     3.901084     3.895265     3.889446
      3.883628     3.877809     3.871991     3.866172     3.860353     3.854535     3.848716     3.842898     3.837079     3.831260
      3.825442     3.819623     3.813805     3.807986     3.802167     3.796349     3.790530     3.784712     3.778893     3.773074
      3.767256     3.761437     3.755619     3.749800     3.743981     3.738163     3.732344     3.726526     3.720707     3.714888
      3.709070     3.703251     3.697433     3.691614     3.685795     3.679977     3.674158     3.668339     3.662521     3.656702
      3.650884     3.645065     3.639246     3.633428     3.627609     3.621791     3.615972     3.610153     3.604335     3.598516
      3.592698     3.586879     3.581060     3.575242     3.569423     3.563605     3.557786     3.551967     3.546149     3.540330
      3.534512     3.528693     3.522874     3.517056     3.511237     3.505419     3.499600     3.493781     3.487963     3.482144
      3.476326     3.470507     3.464688     3.458870     3.453051     3.447232     3.441414     3.435595     3.429777     3.423958
      3.418139     3.412321     3.406502     3.400684     3.394865     3.389046     3.383228     3.377409     3.371591     3.365772
      3.359953     3.354135     3.348316     3.342498     3.336679     3.330860     3.325042     3.319223     3.313405     3.307586
      3.301767     3.295949     3.290130     3.284312     3.278493     3.272674     3.266856     3.261037     3.255219     3.249400
      3.243581     3.237763     3.231944     3.226125     3.220307     3.214488     3.208670     3.202851     3.197032     3.191214
      3.185395     3.179577     3.173758     3.167939     3.162121     3.156302     3.150484     3.144665     3.138846     3.133028
      3.127209     3.121391     3.115572     3.109753     3.103935     3.098116     3.092298     3.086479     3.080660     3.074842
      3.069023     3.063205     3.057386     3.051567     3.045749     3.039930     3.034111     3.028293     3.022474     3.016656
      3.010837     3.005018     2.999200     2.993381     2.987563     2.981744     2.975925     2.970107     2.964288     2.958470
      2.952651     2.946832     2.941014     2.935195     2.929377     2.923558     2.917739     2.911921     2.906102     2.900284
      2.894465     2.888646     2.882828     2.877009     2.871191     2.865372     2.859553     2.853735     2.847916     2.842098
      2.836279     2.830460     2.824642     2.818823     2.813004     2.807186     2.801367     2.795549     2.789730     2.783911
      2.778093     2.772274     2.766456     2.760637     2.754818     2.749000     2.743181     2.737363     2.731544     2.725725
      2.719907     2.714088     2.708270     2.702451     2.696632     2.690814     2.684995     2.679177     2.673358     2.667539
      2.661721     2.655902     2.650084     2.644265     2.638446     2.632628     2.626809     2.620991     2.615172     2.609353
      2.603535     2.597716     2.591897     2.586079     2.580260     2.574442     2.568623     2.562804     2.556986     2.551167
      2.545349     2.539530     2.533711     2.527893     2.522074     2.516256     2.510437     2.504618     2.498800     2.492981
      2.487163     2.481344     2.475525     2.469707     2.463888     2.458070     2.452251     2.446432     2.440614     2.434795
      2.428977     2.423158     2.417339     2.411521     2.405702     2.399884     2.394065     2.388246     2.382428     2.376609
      2.370790     2.364972     2.359153     2.353335     2.347516     2.341697     2.335879     2.330060     2.324242     2.318423
      2.312604     2.306786     2.300967     2.295149     2.289330     2.283511     2.277693     2.271874     2.266056     2.260237
      2.254418     2.248600     2.242781     2.236963     2.231144     2.225325     2.219507     2.213688     2.207870     2.202051
      2.196232     2.190414     2.184595     2.178777     2.172958     2.167139     2.161321     2.155502     2.149683     2.143865
      2.138046     2.132228     2.126409     2.120590     2.114772     2.108953     2.103135     2.097316     2.091497     2.085679
      2.079860     2.074042     2.068223     2.062404     2.056586     2.050767     2.044949     2.039130     2.033311     2.027493
      2.021674     2.015856     2.010037     2.004218     1.998400     1.992581     1.986763     1.980944     1.975126     1.969307
      1.963489     1.957670     1.951852     1.946033     1.940215     1.934397     1.928578     1.922760     1.916941     1.911123
      1.905304     1.899486     1.893667     1.887849     1.882030     1.876212     1.870393     1.864575     1.858756     1.852938
      1.847119     1.841301     1.835482     1.829664     1.823845     1.818027     1.812208     1.806390     1.800571     1.794753
      1.788934     1.783116     1.777297     1.771479     1.765660     1.759842     1.754023     1.748205     1.742386     1.736568
      1.730749     1.724931     1.719113     1.713294     1.707476     1.701657     1.695839     1.690020     1.684202     1.678383
      1.672565     1.666746     1.660928     1.655109     1.649291     1.643472     1.637654     1.631835     1.626017     1.620198
      1.614380     1.608561     1.602743     1.596924     1.591106     1.585287     1.579469     1.573650     1.567832     1.562013
      1.556195     1.550376     1.544558     1.538739     1.532921     1.527102     1.521284     1.515465     1.509647     1.503829
      1.498010     1.492192     1.486373     1.480555     1.474736     1.468918     1.463099     1.457281     1.451462     1.445644
      1.439825     1.434007     1.428188     1.422370     1.416551     1.410733     1.404914     1.399096     1.393277     1.387459
      1.381640     1.375822     1.370003     1.364185     1.358366     1.352548     1.346729     1.340911     1.335092     1.329274
      1.323455     1.317637     1.311818     1.306000     1.300182     1.294363     1.288545     1.282726     1.276908     1.271089
      1.265271     1.259452     1.253634     1.247815     1.241997     1.236178     1.230360     1.224541     1.218723     1.212904
      1.207086     1.201267     1.195449     1.189630     1.183812     1.177993     1.172175     1.166356     1.160538     1.154719
      1.148901     1.143082     1.137264     1.131445     1.125627     1.119808     1.113990     1.108171     1.102353     1.096534
      1.090716     1.084898     1.079079     1.073261     1.067442     1.061624     1.055805     1.049987     1.044168     1.038350
      1.032531     1.026713     1.020894     1.015076     1.009257     1.003439     0.997620     0.991802     0.985983     0.980165
      0.974346     0.968528     0.962709     0.956891     0.951072     0.945254     0.939435     0.933617     0.927798     0.921980
      0.916161     0.910343     0.904524     0.898706     0.892887     0.887069     0.881251     0.875432     0.869614     0.863795
      0.857977     0.852158     0.846340     0.840521     0.834703     0.828884     0.823066     0.817247     0.811429     0.805610
      0.799792     0.793973     0.788155     0.782336     0.776518     0.770699     0.764881     0.759062     0.753244     0.747425
      0.741607     0.735788     0.729970     0.724151     0.718333     0.712514     0.706696     0.700877     0.695059     0.689240
      0.683422     0.677603     0.671785     0.665967     0.660148     0.654330     0.648511     0.642693     0.636874     0.631056
      0.625237     0.619419     0.613600     0.607782     0.601963     0.596145     0.590326     0.584508     0.578689     0.572871
      0.567052     0.561234     0.555415     0.549597     0.543778     0.537960     0.532141     0.526323     0.520504     0.514686
      0.508867     0.503049     0.497230     0.491412     0.485593     0.479775     0.473956     0.468138     0.462319     0.456501
      0.450682     0.444864     0.439045     0.433227     0.427408     0.421590     0.415771     0.409953     0.404134     0.398316
      0.392497     0.386679     0.380860     0.375042     0.369223     0.363405     0.357586     0.351767     0.345949     0.340130
      0.334312     0.328493     0.322675     0.316856     0.311038     0.305219     0.299401     0.293582     0.287764     0.281945
      0.276127     0.270308     0.264490     0.258671     0.252853     0.247034     0.241216     0.235397     0.229579     0.223760
      0.217942     0.212123     0.206305     0.200486
 NY phased data points follow
  -7.36678E-01 -6.42788E-01 -1.15680E+00 -7.55605E-01 -5.46437E-01 -2.56811E-01  5.49900E-01  1.61353E-02 -8.49329E-02  9.97136E-02
   2.32381E-01  2.84556E-01  1.56740E-01 -2.88187E-01 -2.27901E-02  4.65209E-01  5.05729E-01 -2.02525E-01  1.25809E-01  8.01721E-01
   2.19587E-01  9.79610E-01  4.60037E-01 -1.47139E-01  2.38376E-01  4.04794E-02 -1.14453E-01 -1.29218E-02 -1.65057E-01 -8.23548E-01
  -3.18200E-01 -1.21118E-01 -4.30566E-01  4.78380E-03 -4.01865E-01 -7.50463E-01 -2.69401E-01 -3.17963E-01 -2.48533E-01 -1.47853E-01
   5.49582E-02  2.29573E-01  4.35022E-01  1.33214E-01  2.69296E-01  4.78179E-01  3.37243E-02  4.62605E-01  3.14892E-01  2.45547E-01
  -1.50546E-01  2.21422E-01  2.53512E-01 -4.16923E-01 -1.92884E-01  1.54705E-01  3.37746E-01 -2.18380E-01 -2.55673E-01 -6.24620E-02
   2.75194E-01 -6.88608E-01 -3.44766E-01  2.52683E-02 -6.37864E-01  2.40854E-01 -4.28359E-01  4.69194E-03  5.12705E-01  1.37877E-01
   1.22352E-01 -4.33104E-01  4.56729E-01  5.07766E-02 -2.02205E-01  3.53378E-01 -5.67573E-01  1.50974E-01  1.44803E-01 -4.52957E-01
  -8.77656E-02  5.49529E-02  6.65324E-02  7.22749E-01  5.53022E-01 -3.93305E-01  6.21535E-01  3.44914E-01  2.35010E-01  6.30862E-02
  -3.67679E-01  4.46868E-01  1.92769E-01  1.70840E-01  2.24051E-01  2.71054E-03 -1.91004E-01 -5.08805E-01 -4.18447E-01 -2.81658E-01
  -4.30681E-01  3.52392E-01  9.50349E-02 -2.55063E-01  1.44307E-01 -2.30731E-01  6.17777E-01  7.99684E-01  2.27663E-01  1.96493E-01
  -2.57004E-01  9.04891E-02  7.40130E-01  3.42449E-01 -4.71132E-01 -5.72566E-01  1.79390E-01  2.90327E-02 -2.77408E-01 -2.77226E-01
   2.25072E-01  7.62889E-01  1.74457E-01 -5.64861E-01 -4.53059E-01 -7.04890E-02 -5.07593E-01  2.21303E-01 -5.62382E-02 -5.12738E-01
  -4.80510E-01 -7.44296E-01  1.89625E-01 -1.92452E-01 -6.26195E-01 -1.90744E-01 -5.31345E-01 -9.02969E-01 -1.09390E-01 -2.63880E-01
  -5.52806E-01 -2.44511E-01  8.67799E-02 -1.24682E-01 -3.20450E-01  2.83108E-01 -3.60251E-01  1.14655E-01  4.49437E-02  1.81808E-01
   1.60827E-01 -1.08331E+00  7.95675E-02  2.92120E-01  1.37316E-01  5.47280E-01  7.21961E-02  4.64479E-01  4.17860E-01  8.60325E-02
   4.31401E-01 -1.65464E-01  6.62239E-02  6.19385E-01  5.06345E-01  7.48429E-01  2.19050E-01 -3.30176E-01 -3.45156E-01 -4.05789E-01
  -8.80054E-01 -4.38600E-01 -1.91900E-01 -3.05245E-01  5.87399E-02 -6.21001E-01 -1.44967E-01  3.82049E-01 -3.48075E-01 -3.72399E-01
  -2.64526E-01 -5.38524E-01  1.80053E-01  5.90240E-01 -3.68682E-01 -1.39628E-01  9.80659E-02 -1.03373E-02 -2.97319E-01 -3.90623E-01
   2.43854E-01 -2.38838E-01  2.79457E-02  3.67869E-01 -1.15248E-02  1.03847E-01  6.94183E-03  7.55338E-02 -7.14006E-02 -2.25419E-01
   1.90117E-01  4.13354E-01  1.14927E-01  2.86745E-01  1.32228E-01  7.73389E-02  2.95040E-01  1.82409E-01  4.94787E-01  1.41627E-01
   2.49519E-01  2.52351E-01  5.61113E-01  7.53582E-02 -1.37271E-01  5.86363E-01  4.86267E-02  9.48066E-01  2.14810E-01  1.26832E-01
   5.67934E-01  9.66453E-02  2.75384E-01 -6.56234E-02  4.88724E-02 -1.21203E-01  3.97806E-01  4.07409E-01  9.36592E-02 -1.21886E-02
   5.18212E-01  5.81837E-01  8.03100E-01  4.36911E-01 -2.80973E-01  4.60387E-02 -1.91628E-02  4.58899E-01 -5.07605E-01 -8.11226E-02
   4.73978E-03 -3.74560E-01 -6.47685E-01  1.59629E-02  8.16362E-01 -9.00096E-02  2.21998E-01 -5.52526E-01  8.37941E-02 -3.01967E-01
   1.00957E-01  3.66592E-01 -7.38749E-01  2.12102E-01 -1.97614E-01 -1.98235E-01 -3.30259E-01 -1.91253E-01 -1.41694E-02 -4.44090E-01
   1.43171E-02  3.69316E-01  1.59349E-01  1.91384E-01 -6.17010E-03 -1.48948E-01  2.86629E-01  3.69953E-01 -1.37295E-02 -3.48222E-02
   2.04059E-01 -1.07346E-01 -3.52521E-01 -5.49083E-01 -1.42295E-01 -3.20195E-01 -5.66930E-01 -4.31822E-01 -6.12712E-01 -1.76413E-01
  -1.28244E-01 -5.84140E-01 -5.71925E-01 -3.96754E-01  4.55092E-02  6.84965E-02  2.01989E-01  1.16496E+00  3.49836E-01 -3.22783E-02
   2.59654E-01  3.31852E-01 -1.02591E-01 -2.89618E-01  1.53543E-01 -3.75181E-01  4.36085E-01  5.10184E-01 -1.99560E-01  1.10036E-02
   1.84701E-01  6.65440E-02  1.49694E-01  1.45103E-01  6.71600E-01  7.97818E-01  2.71208E-01  3.23340E-01  9.34507E-02  3.73708E-01
   2.25234E-02  3.29981E-01 -9.61775E-02 -1.43339E-02  8.76669E-01  2.91800E-01  2.06746E-01  5.40247E-02 -4.12755E-03 -7.15073E-01
  -9.10940E-02 -2.23748E-01 -2.59608E-01  1.47072E-01 -1.17353E-01  7.28642E-01 -6.01270E-02  7.58585E-01  5.69045E-01 -1.72505E-02
  -2.38995E-02 -7.08964E-01  2.41029E-01 -3.22949E-01 -3.35865E-02 -2.64466E-01 -8.86089E-01 -2.36287E-01 -4.54736E-01 -7.61412E-01
  -6.93744E-01 -3.15042E-01 -1.31611E+00 -1.48572E+00 -8.97951E-01 -2.26118E-01  5.78763E-01  1.73945E-01  5.83712E-01 -8.11906E-02
  -7.07415E-02  8.32117E-01 -1.54131E-01 -1.20977E-01 -7.34662E-02  5.44807E-01  5.25716E-01 -1.80128E-01  2.91622E-01 -1.17240E-01
   4.99077E-03  1.81865E-01  2.87917E-02 -1.31074E-01 -3.56181E-01 -5.04921E-01  3.82657E-01  4.80704E-01 -5.57979E-01 -4.56346E-01
  -4.43041E-01  4.83419E-01  6.62410E-01 -3.40605E-01 -4.82174E-01  5.57640E-02 -4.24707E-01 -3.45620E-01  8.30624E-01  9.45984E-02
  -5.22839E-01  1.80250E-01  2.23198E-01 -2.36940E-02 -4.80641E-02  2.94108E-01  9.89280E-01 -1.07452E-02 -2.60789E-01  2.79693E-01
  -9.64730E-03 -5.20798E-01 -9.88810E-02  2.02996E-01 -4.14088E-01 -4.00534E-02 -1.09930E-01  2.23058E-01  2.33876E-02  3.02406E-01
   4.91988E-01  1.87045E-01  2.41959E-01 -5.02847E-01 -7.45053E-02  1.87721E-01 -2.78803E-01 -1.98451E-02  1.13975E-01  5.13978E-02
   3.09566E-01 -4.25655E-01 -2.62842E-01  1.86183E-01 -6.60671E-02 -4.09616E-01  3.06225E-01  2.17794E-01 -5.51908E-01  8.26424E-01
   3.66642E-01  4.95831E-02  3.49474E-01  3.18046E-01  5.14491E-01  5.87867E-01  2.74969E-01 -1.04500E-01 -1.29891E-02  3.92779E-01
   4.14204E-01 -2.11101E-01 -2.61280E-03 -1.87386E-01 -8.61093E-02  2.29837E-01  7.26003E-01  8.64776E-02 -6.49444E-02 -6.19854E-02
  -1.71590E-01  1.49838E-01 -5.32671E-01 -5.65308E-02 -9.40227E-02  6.63337E-02  9.97526E-03  5.09481E-01  3.02181E-01  1.82170E-01
   4.05029E-01 -5.35407E-01 -4.29824E-01 -6.12194E-01  2.59132E-02 -9.62614E-02 -5.05228E-01 -2.16620E-01  2.10254E-02 -3.43646E-01
  -5.61403E-01  1.15062E-01  1.98131E-01  1.88242E-01 -1.87353E-01 -3.97414E-01 -1.53842E-01 -2.60566E-02 -4.46563E-01 -2.09525E-01
   4.98205E-01 -2.28322E-01 -5.66263E-01 -2.43529E-01 -3.66456E-01  4.69109E-01  7.14425E-01  4.24128E-01  9.26881E-02 -3.77097E-01
  -6.85576E-02 -4.93792E-02  2.71751E-01  3.46580E-01 -4.21449E-01 -4.01252E-01  2.28107E-01  1.18578E-01  5.60056E-01  3.47326E-01
  -2.58381E-01 -2.59680E-01 -2.83350E-01 -1.81045E-01 -5.82941E-01  1.72668E-01  2.22070E-01 -1.23448E-01 -1.56676E-01 -3.58089E-01
   3.76769E-02  1.14615E-01  7.34174E-01  4.91757E-01 -3.57929E-01 -7.99095E-02  1.94814E-01 -1.67745E-01 -1.33155E-01  6.12080E-01
  -1.64357E-02 -7.70825E-02  8.47174E-01  2.44717E-01 -1.72654E-01 -1.64678E-01  4.25140E-01 -8.12958E-03 -3.59027E-01  2.70392E-01
  -8.54503E-01 -3.19437E-01  2.68408E-01 -6.15043E-01  3.42248E-02  1.36361E-01 -1.36834E-01 -3.44034E-01 -5.05404E-01  7.31592E-02
   1.72497E-02  5.51833E-04 -1.04107E-01 -8.08640E-02 -6.55695E-01 -4.97602E-01  3.39087E-01  5.03696E-02  1.17534E-01 -3.02861E-02
   3.63464E-01 -4.76290E-02  4.62970E-02  1.39729E-01 -5.21031E-04  1.00372E+00  5.82774E-01 -1.61892E-01 -3.17269E-01  2.61701E-01
   4.83552E-01  4.49176E-01  3.45561E-01  2.94530E-01  6.65127E-02  7.96837E-02  4.86100E-02 -2.21964E-01  3.58074E-01  4.91796E-02
  -4.56997E-01  1.51020E-01  1.83287E-01 -8.02436E-01 -1.39792E-02  6.81319E-01  6.37353E-02 -3.16419E-01  9.57046E-02 -3.67455E-02
  -6.93014E-01 -3.26434E-01 -1.33751E-01  1.51891E-01 -2.31115E-01  7.23069E-02  1.17000E-01  2.46354E-02  3.10855E-01 -4.62563E-01
  -2.12514E-01  7.44001E-02 -2.37376E-01 -6.42188E-01 -2.05205E-01  4.83192E-01 -1.43426E-01  1.91729E-01  3.30589E-01 -4.94305E-01
   3.15754E-01  2.15335E-01 -1.27782E-01 -2.64996E-01 -3.29729E-01 -1.69817E-01 -6.74225E-01 -3.87331E-02 -5.55903E-02  4.79824E-01
   6.27961E-03 -7.59787E-01 -5.20998E-02 -3.55966E-01 -4.89034E-01 -7.68427E-02  3.52724E-01 -5.01854E-01 -2.81522E-01  6.50019E-02
  -1.21846E-01  2.80590E-01  1.05720E-01  3.78247E-01 -1.66924E-01 -1.80180E-01 -1.70093E-01 -5.64327E-01  1.31366E-01  6.43324E-02
   5.51995E-01  2.32422E-01 -2.08279E-01  6.73240E-01  5.23115E-02  4.20625E-01  4.91020E-01  1.12748E-02  1.03917E-01 -3.22301E-01
  -1.04055E-01  2.38627E-01  1.77681E-01 -4.42819E-01 -3.08291E-01 -5.63399E-01 -2.22484E-01  1.60366E-02 -2.84494E-01 -4.36441E-02
  -5.66042E-01 -2.58976E-01 -7.55259E-02 -7.82330E-02  1.65417E-02  7.52510E-01  1.04078E-01 -3.83093E-01 -3.54080E-02 -5.84702E-02
   5.85324E-01 -1.83400E-01  5.54038E-01  6.31809E-01
 NY points of the fit to the data follow
  -4.92977E-02 -4.94088E-02 -4.89506E-02 -4.73882E-02 -4.49944E-02 -4.19585E-02 -3.75967E-02 -2.71661E-02 -1.04313E-02  1.05327E-02
   4.35849E-02  9.65866E-02  1.59400E-01  2.19864E-01  2.69717E-01  2.98893E-01  2.95270E-01  2.52981E-01  1.83830E-01  1.15023E-01
   7.22647E-02  5.33575E-02  3.68147E-02  1.32412E-02 -8.15709E-03 -2.44574E-02 -3.62802E-02 -4.68539E-02 -5.74024E-02 -6.81338E-02
  -7.89639E-02 -9.06250E-02 -1.04111E-01 -1.18513E-01 -1.33049E-01 -1.47143E-01 -1.59408E-01 -1.65084E-01 -1.54626E-01 -1.18138E-01
  -4.58642E-02  6.11738E-02  1.84299E-01  2.92509E-01  3.52746E-01  3.44190E-01  2.78023E-01  1.85532E-01  1.02644E-01  4.65258E-02
   1.40250E-02 -6.86644E-03 -3.02201E-02 -5.50742E-02 -7.82070E-02 -9.72038E-02 -1.09839E-01 -1.17404E-01 -1.18525E-01 -1.18504E-01
  -1.36271E-01 -1.61450E-01 -1.73970E-01 -1.67118E-01 -1.19452E-01 -2.69793E-02  8.53167E-02  1.91588E-01  2.66264E-01  2.97417E-01
   2.86816E-01  2.47655E-01  1.96289E-01  1.28293E-01  5.78773E-02 -1.64422E-02 -1.00711E-01 -1.78642E-01 -2.38338E-01 -2.53732E-01
  -2.02153E-01 -9.14103E-02  4.79373E-02  1.75449E-01  2.61718E-01  3.00456E-01  3.00428E-01  2.75812E-01  2.34381E-01  1.96154E-01
   1.71850E-01  1.50863E-01  1.26316E-01  8.91160E-02  3.61039E-02 -4.01636E-02 -1.30608E-01 -2.16617E-01 -2.73253E-01 -2.74215E-01
  -2.08093E-01 -9.09695E-02  4.47856E-02  1.57903E-01  2.24558E-01  2.47177E-01  2.39873E-01  2.30653E-01  2.21538E-01  2.20187E-01
   2.19460E-01  2.18630E-01  2.17848E-01  2.17623E-01  2.18076E-01  2.19318E-01  2.20904E-01  2.19609E-01  2.11368E-01  1.96264E-01
   1.67126E-01  1.24188E-01  7.86114E-02  2.71177E-02 -2.65882E-02 -8.65550E-02 -1.56509E-01 -2.33879E-01 -3.07563E-01 -3.52585E-01
  -3.45378E-01 -3.21531E-01 -3.02202E-01 -3.16180E-01 -3.86801E-01 -4.82900E-01 -5.42504E-01 -4.98655E-01 -3.56029E-01 -1.78630E-01
  -5.22919E-02 -5.70288E-03 -6.72868E-03  4.54591E-03  1.65885E-02  2.75761E-02  3.75024E-02  4.66157E-02  5.51766E-02  6.34214E-02
   7.15648E-02  7.98116E-02  8.83742E-02  9.74895E-02  1.07442E-01  1.18590E-01  1.31418E-01  1.46617E-01  1.65243E-01  1.89041E-01
   2.21198E-01  2.68370E-01  3.37403E-01  3.89981E-01  3.88494E-01  3.18252E-01  1.65446E-01 -5.79861E-02 -2.86758E-01 -4.38764E-01
  -4.60481E-01 -3.76195E-01 -2.66300E-01 -1.97739E-01 -1.79858E-01 -1.63183E-01 -1.43950E-01 -1.25984E-01 -1.11450E-01 -9.98578E-02
  -9.14091E-02 -8.41383E-02 -7.78501E-02 -7.23894E-02 -6.76110E-02 -6.33962E-02 -5.96515E-02 -5.62990E-02 -5.32732E-02 -5.05187E-02
  -4.79866E-02 -4.56311E-02 -4.34058E-02 -4.12574E-02 -3.91135E-02 -3.68581E-02 -3.42550E-02 -3.05894E-02 -2.53937E-02 -1.92627E-02
  -1.33717E-02 -8.86657E-03 -6.28144E-03 -5.56415E-03 -6.28588E-03 -7.28131E-03 -7.57878E-03 -8.60670E-03 -1.34937E-02 -2.36443E-02
  -3.57710E-02 -4.39948E-02 -4.41083E-02 -3.67039E-02 -2.64645E-02 -1.68625E-02 -8.56172E-03 -2.58570E-03  2.47807E-04  1.41133E-03
   9.95386E-03  3.37087E-02  6.97656E-02  1.10288E-01  1.46888E-01  1.76763E-01  2.00156E-01  2.12266E-01  2.17543E-01  2.24290E-01
   2.24255E-01  1.99377E-01  1.38099E-01  5.81994E-02 -6.95869E-03 -4.00472E-02 -4.73240E-02 -4.89761E-02 -5.37595E-02 -5.81433E-02
  -6.31258E-02 -6.83453E-02 -7.38337E-02 -7.97356E-02 -8.62444E-02 -9.35806E-02 -1.00883E-01 -1.07312E-01 -1.13226E-01 -1.17816E-01
  -1.21842E-01 -1.27254E-01 -1.27204E-01 -1.19253E-01 -1.04771E-01 -7.51887E-02 -3.02102E-02  2.02978E-02  6.44491E-02  9.68333E-02
   1.19665E-01  1.32630E-01  1.33839E-01  1.23620E-01  1.01105E-01  7.63840E-02  4.98180E-02  1.61705E-02 -1.70617E-02 -4.56662E-02
  -6.70106E-02 -8.80388E-02 -1.12256E-01 -1.39645E-01 -1.71532E-01 -2.08791E-01 -2.55730E-01 -3.12380E-01 -3.74841E-01 -4.37685E-01
  -4.80021E-01 -4.77528E-01 -4.12447E-01 -2.74359E-01 -8.03825E-02  1.29544E-01  3.11344E-01  4.25040E-01  4.58736E-01  4.23177E-01
   3.53800E-01  2.88240E-01  2.42078E-01  2.22064E-01  2.17692E-01  2.16491E-01  2.15992E-01  2.11443E-01  2.01723E-01  1.87765E-01
   1.71627E-01  1.57061E-01  1.43140E-01  1.30452E-01  1.16083E-01  9.90844E-02  7.91939E-02  5.55200E-02  3.18372E-02  1.17515E-02
  -5.56068E-04 -9.43626E-04  9.09792E-03  2.37897E-02  3.50646E-02  3.37339E-02  1.49937E-02 -2.17110E-02 -6.96192E-02 -1.19530E-01
  -1.64163E-01 -1.93649E-01 -2.03735E-01 -1.90152E-01 -1.51014E-01 -9.25384E-02 -2.83419E-02  2.31204E-02  4.31764E-02  2.67869E-02
  -2.39408E-02 -9.81739E-02 -1.91631E-01 -2.84708E-01 -3.59677E-01 -4.03607E-01 -4.08156E-01 -4.02676E-01 -4.48046E-01 -5.60050E-01
  -7.39513E-01 -9.62218E-01 -1.11653E+00 -1.08740E+00 -8.38685E-01 -4.81325E-01 -1.77404E-01 -2.92722E-02 -1.46405E-02 -2.97589E-02
  -2.05614E-02 -9.76644E-03  2.29852E-04  9.06371E-03  1.67943E-02  2.23406E-02  2.46532E-02  2.24322E-02  1.46598E-02  1.59698E-03
  -1.50148E-02 -3.24484E-02 -4.72314E-02 -5.69537E-02 -6.05785E-02 -5.85779E-02 -5.26360E-02 -4.38182E-02 -3.44455E-02 -2.54440E-02
  -1.77821E-02 -1.15648E-02 -6.55244E-03 -2.58130E-03  3.78215E-04  2.51364E-03  4.07750E-03  5.45489E-03  6.64701E-03  7.68276E-03
   8.58737E-03  9.38150E-03  1.00816E-02  1.07007E-02  1.12494E-02  1.17366E-02  1.21710E-02  1.25601E-02  1.29103E-02  1.32272E-02
   1.35154E-02  1.37781E-02  1.40179E-02  1.42361E-02  1.44326E-02  1.46082E-02  1.47653E-02  1.49070E-02  1.50368E-02  1.51574E-02
   1.52714E-02  1.53810E-02  1.54886E-02  1.55959E-02  1.57029E-02  1.58100E-02  1.59176E-02  1.60264E-02  1.61376E-02  1.62534E-02
   1.63774E-02  1.65133E-02  1.66658E-02  1.68389E-02  1.70360E-02  1.72607E-02  1.75175E-02  1.78132E-02  1.81586E-02  1.85682E-02
   1.90600E-02  1.96574E-02  2.03944E-02  2.13228E-02  2.25238E-02  2.41298E-02  2.63784E-02  2.97650E-02  3.56368E-02  5.00551E-02
   7.58730E-02  1.12910E-01  1.59040E-01  2.02647E-01  2.27781E-01  2.23154E-01  1.85450E-01  1.25555E-01  6.39762E-02  1.88297E-02
  -2.35119E-03 -6.56961E-03 -1.62980E-03  2.73361E-03  3.44236E-03  3.73296E-03  3.93086E-03  4.09270E-03  4.23153E-03  4.35044E-03
   4.44960E-03  4.52979E-03  4.59341E-03  4.64355E-03  4.68207E-03  4.70975E-03  4.72807E-03  4.73870E-03  4.74276E-03  4.74040E-03
   4.73130E-03  4.71524E-03  4.69259E-03  4.66463E-03  4.63261E-03  4.59749E-03  4.56000E-03  4.52014E-03  4.47699E-03  4.43028E-03
   4.38123E-03  4.33100E-03  4.27977E-03  4.22766E-03  4.17421E-03  4.11867E-03  4.06112E-03  4.00249E-03  3.94403E-03  3.88732E-03
   3.83311E-03  3.78013E-03  3.72651E-03  3.67164E-03  3.61492E-03  3.55559E-03  3.49372E-03  3.43020E-03  3.36674E-03  3.30512E-03
   3.24611E-03  3.18912E-03  3.13311E-03  3.07715E-03  3.02014E-03  2.96181E-03  2.90287E-03  2.84427E-03  2.78761E-03  2.73421E-03
   2.68388E-03  2.63486E-03  2.58492E-03  2.53304E-03  2.47997E-03  2.42767E-03  2.37760E-03  2.32992E-03  2.28419E-03  2.23972E-03
   2.19579E-03  2.15265E-03  2.11126E-03  2.07271E-03  2.03772E-03  2.00570E-03  1.97435E-03  1.94205E-03  1.90968E-03  1.87889E-03
   1.85036E-03  1.82407E-03  1.79928E-03  1.77538E-03  1.75237E-03  1.73052E-03  1.70984E-03  1.69122E-03  1.67551E-03  1.66230E-03
   1.65098E-03  1.64179E-03  1.63487E-03  1.63031E-03  1.62877E-03  1.63027E-03  1.63444E-03  1.64119E-03  1.65021E-03  1.66125E-03
   1.67385E-03  1.68704E-03  1.70056E-03  1.71636E-03  1.73720E-03  1.76409E-03  1.79587E-03  1.83030E-03  1.86608E-03  1.90405E-03
   1.94567E-03  1.99152E-03  2.04122E-03  2.09451E-03  2.15140E-03  2.21180E-03  2.27543E-03  2.34210E-03  2.41243E-03  2.48700E-03
   2.56544E-03  2.64695E-03  2.73159E-03  2.82025E-03  2.91371E-03  3.01220E-03  3.11619E-03  3.22631E-03  3.34320E-03  3.46653E-03
   3.59564E-03  3.73034E-03  3.87066E-03  4.01651E-03  4.16782E-03  4.32502E-03  4.48867E-03  4.65844E-03  4.83291E-03  5.01122E-03
   5.19407E-03  5.38342E-03  5.58134E-03  5.78949E-03  6.00877E-03  6.23882E-03  6.47834E-03  6.72671E-03  6.98425E-03  7.25146E-03
   7.52837E-03  7.81378E-03  8.10661E-03  8.40683E-03  8.71574E-03  9.03556E-03  9.36908E-03  9.71815E-03  1.00821E-02  1.04590E-02
   1.08476E-02  1.12478E-02  1.16604E-02  1.20863E-02  1.25273E-02  1.29849E-02  1.34605E-02  1.39544E-02  1.44668E-02  1.49981E-02
   1.55494E-02  1.61204E-02  1.67104E-02  1.73201E-02  1.79525E-02  1.86113E-02  1.92988E-02  2.00162E-02  2.07626E-02  2.15371E-02
   2.23395E-02  2.31709E-02  2.40334E-02  2.49301E-02  2.58648E-02  2.68410E-02  2.78610E-02  2.89266E-02  3.00384E-02  3.11966E-02
   3.24023E-02  3.36584E-02  3.49701E-02  3.63432E-02  3.77825E-02  3.92918E-02  4.08746E-02  4.25349E-02  4.42782E-02  4.61097E-02
   4.80355E-02  5.00625E-02  5.21982E-02  5.44508E-02  5.68289E-02  5.93424E-02  6.20025E-02  6.48206E-02  6.78090E-02  7.09828E-02
   7.43603E-02  7.79629E-02  8.18149E-02  8.59423E-02
 NY background values follow
     2.744E-02    2.729E-02    2.713E-02    2.697E-02    2.681E-02    2.666E-02    2.650E-02    2.634E-02    2.619E-02    2.603E-02
     2.587E-02    2.572E-02    2.556E-02    2.540E-02    2.525E-02    2.509E-02    2.493E-02    2.477E-02    2.462E-02    2.446E-02
     2.430E-02    2.415E-02    2.399E-02    2.383E-02    2.368E-02    2.352E-02    2.336E-02    2.320E-02    2.305E-02    2.289E-02
     2.273E-02    2.258E-02    2.242E-02    2.226E-02    2.211E-02    2.195E-02    2.179E-02    2.163E-02    2.148E-02    2.132E-02
     2.116E-02    2.101E-02    2.085E-02    2.069E-02    2.054E-02    2.038E-02    2.022E-02    2.007E-02    1.991E-02    1.975E-02
     1.959E-02    1.944E-02    1.928E-02    1.912E-02    1.897E-02    1.881E-02    1.865E-02    1.850E-02    1.834E-02    1.818E-02
     1.802E-02    1.787E-02    1.771E-02    1.755E-02    1.740E-02    1.724E-02    1.708E-02    1.693E-02    1.677E-02    1.661E-02
