 LCModel (Version 6.3-1N) Copyright: S.W. Provencher.          Ref.: Magn. Reson. Med. 30:672-679 (1993).                
 Slice_N1@14_17  02-Jun-2023 14:36:53
 27 lines in following concentration table = NCONC+1
    Conc.  %SD /Cr+PCr  Metabolite                                         
 2.76E-06  10% 5.0E-04 Mac                                                 
 1.08E-02  42%   1.946 Cr                                                  
 3.35E-02  14%   6.054 PCr                                                 
 5.32E-02  11%   9.608 Ins                                                 
 5.52E-02   8%   9.962 NAA                                                 
 2.53E-02  19%   4.573 Tau                                                 
 4.81E-03  34%   0.869 PCho                                                
 5.23E-03  31%   0.945 GPC                                                 
 5.15E-02  13%   9.297 Glu                                                 
 2.47E-02  21%   4.455 Gln                                                 
    0.000 999%   0.000 Ala                                                 
 1.89E-02  46%   3.420 Asc                                                 
 1.09E-02  52%   1.976 Asp                                                 
 9.49E-03  31%   1.713 GABA                                                
 6.97E-03  55%   1.260 Glc                                                 
 6.38E-03  44%   1.153 GSH                                                 
    0.000 999%   0.000 Lac                                                 
 1.46E-02  21%   2.638 NAAG                                                
    0.000 999%   0.000 PE                                                  
 1.00E-02  13%   1.815 GPC+PCho                                            
 6.98E-02   9%  12.600 NAA+NAAG                                            
 7.61E-02  11%  13.752 Glu+Gln                                             
 4.43E-02  10%   8.000 Cr+PCr                                              
 6.98E-02   9%  12.600 NAA+NAAG                                            
 4.43E-02  10%   8.000 Cr+PCr                                              
 7.61E-02  11%  13.752 Glu+Gln                                             
   6 lines in following misc. output table
  FWHM = 0.017 ppm    S/N =   6                                            
  Data shift = 0.017 ppm                                                   
  Ph: -75 deg     -17.4 deg/ppm                                            
  alphaB,S = 5.6E-01,   3.9E-01                                            
   18 spline knots.   Ns = 5(1)                                            
   3 inflections.     2 extrema                                            
  654 points on ppm-axis = NY
      4.000000     3.994181     3.988363     3.982544     3.976726     3.970907     3.965088     3.959270     3.953451     3.947633
      3.941814     3.935995     3.930177     3.924358     3.918540     3.912721     3.906902     3.901084     3.895265     3.889446
      3.883628     3.877809     3.871991     3.866172     3.860353     3.854535     3.848716     3.842898     3.837079     3.831260
      3.825442     3.819623     3.813805     3.807986     3.802167     3.796349     3.790530     3.784712     3.778893     3.773074
      3.767256     3.761437     3.755619     3.749800     3.743981     3.738163     3.732344     3.726526     3.720707     3.714888
      3.709070     3.703251     3.697433     3.691614     3.685795     3.679977     3.674158     3.668339     3.662521     3.656702
      3.650884     3.645065     3.639246     3.633428     3.627609     3.621791     3.615972     3.610153     3.604335     3.598516
      3.592698     3.586879     3.581060     3.575242     3.569423     3.563605     3.557786     3.551967     3.546149     3.540330
      3.534512     3.528693     3.522874     3.517056     3.511237     3.505419     3.499600     3.493781     3.487963     3.482144
      3.476326     3.470507     3.464688     3.458870     3.453051     3.447232     3.441414     3.435595     3.429777     3.423958
      3.418139     3.412321     3.406502     3.400684     3.394865     3.389046     3.383228     3.377409     3.371591     3.365772
      3.359953     3.354135     3.348316     3.342498     3.336679     3.330860     3.325042     3.319223     3.313405     3.307586
      3.301767     3.295949     3.290130     3.284312     3.278493     3.272674     3.266856     3.261037     3.255219     3.249400
      3.243581     3.237763     3.231944     3.226125     3.220307     3.214488     3.208670     3.202851     3.197032     3.191214
      3.185395     3.179577     3.173758     3.167939     3.162121     3.156302     3.150484     3.144665     3.138846     3.133028
      3.127209     3.121391     3.115572     3.109753     3.103935     3.098116     3.092298     3.086479     3.080660     3.074842
      3.069023     3.063205     3.057386     3.051567     3.045749     3.039930     3.034111     3.028293     3.022474     3.016656
      3.010837     3.005018     2.999200     2.993381     2.987563     2.981744     2.975925     2.970107     2.964288     2.958470
      2.952651     2.946832     2.941014     2.935195     2.929377     2.923558     2.917739     2.911921     2.906102     2.900284
      2.894465     2.888646     2.882828     2.877009     2.871191     2.865372     2.859553     2.853735     2.847916     2.842098
      2.836279     2.830460     2.824642     2.818823     2.813004     2.807186     2.801367     2.795549     2.789730     2.783911
      2.778093     2.772274     2.766456     2.760637     2.754818     2.749000     2.743181     2.737363     2.731544     2.725725
      2.719907     2.714088     2.708270     2.702451     2.696632     2.690814     2.684995     2.679177     2.673358     2.667539
      2.661721     2.655902     2.650084     2.644265     2.638446     2.632628     2.626809     2.620991     2.615172     2.609353
      2.603535     2.597716     2.591897     2.586079     2.580260     2.574442     2.568623     2.562804     2.556986     2.551167
      2.545349     2.539530     2.533711     2.527893     2.522074     2.516256     2.510437     2.504618     2.498800     2.492981
      2.487163     2.481344     2.475525     2.469707     2.463888     2.458070     2.452251     2.446432     2.440614     2.434795
      2.428977     2.423158     2.417339     2.411521     2.405702     2.399884     2.394065     2.388246     2.382428     2.376609
      2.370790     2.364972     2.359153     2.353335     2.347516     2.341697     2.335879     2.330060     2.324242     2.318423
      2.312604     2.306786     2.300967     2.295149     2.289330     2.283511     2.277693     2.271874     2.266056     2.260237
      2.254418     2.248600     2.242781     2.236963     2.231144     2.225325     2.219507     2.213688     2.207870     2.202051
      2.196232     2.190414     2.184595     2.178777     2.172958     2.167139     2.161321     2.155502     2.149683     2.143865
      2.138046     2.132228     2.126409     2.120590     2.114772     2.108953     2.103135     2.097316     2.091497     2.085679
      2.079860     2.074042     2.068223     2.062404     2.056586     2.050767     2.044949     2.039130     2.033311     2.027493
      2.021674     2.015856     2.010037     2.004218     1.998400     1.992581     1.986763     1.980944     1.975126     1.969307
      1.963489     1.957670     1.951852     1.946033     1.940215     1.934397     1.928578     1.922760     1.916941     1.911123
      1.905304     1.899486     1.893667     1.887849     1.882030     1.876212     1.870393     1.864575     1.858756     1.852938
      1.847119     1.841301     1.835482     1.829664     1.823845     1.818027     1.812208     1.806390     1.800571     1.794753
      1.788934     1.783116     1.777297     1.771479     1.765660     1.759842     1.754023     1.748205     1.742386     1.736568
      1.730749     1.724931     1.719113     1.713294     1.707476     1.701657     1.695839     1.690020     1.684202     1.678383
      1.672565     1.666746     1.660928     1.655109     1.649291     1.643472     1.637654     1.631835     1.626017     1.620198
      1.614380     1.608561     1.602743     1.596924     1.591106     1.585287     1.579469     1.573650     1.567832     1.562013
      1.556195     1.550376     1.544558     1.538739     1.532921     1.527102     1.521284     1.515465     1.509647     1.503829
      1.498010     1.492192     1.486373     1.480555     1.474736     1.468918     1.463099     1.457281     1.451462     1.445644
      1.439825     1.434007     1.428188     1.422370     1.416551     1.410733     1.404914     1.399096     1.393277     1.387459
      1.381640     1.375822     1.370003     1.364185     1.358366     1.352548     1.346729     1.340911     1.335092     1.329274
      1.323455     1.317637     1.311818     1.306000     1.300182     1.294363     1.288545     1.282726     1.276908     1.271089
      1.265271     1.259452     1.253634     1.247815     1.241997     1.236178     1.230360     1.224541     1.218723     1.212904
      1.207086     1.201267     1.195449     1.189630     1.183812     1.177993     1.172175     1.166356     1.160538     1.154719
      1.148901     1.143082     1.137264     1.131445     1.125627     1.119808     1.113990     1.108171     1.102353     1.096534
      1.090716     1.084898     1.079079     1.073261     1.067442     1.061624     1.055805     1.049987     1.044168     1.038350
      1.032531     1.026713     1.020894     1.015076     1.009257     1.003439     0.997620     0.991802     0.985983     0.980165
      0.974346     0.968528     0.962709     0.956891     0.951072     0.945254     0.939435     0.933617     0.927798     0.921980
      0.916161     0.910343     0.904524     0.898706     0.892887     0.887069     0.881251     0.875432     0.869614     0.863795
      0.857977     0.852158     0.846340     0.840521     0.834703     0.828884     0.823066     0.817247     0.811429     0.805610
      0.799792     0.793973     0.788155     0.782336     0.776518     0.770699     0.764881     0.759062     0.753244     0.747425
      0.741607     0.735788     0.729970     0.724151     0.718333     0.712514     0.706696     0.700877     0.695059     0.689240
      0.683422     0.677603     0.671785     0.665967     0.660148     0.654330     0.648511     0.642693     0.636874     0.631056
      0.625237     0.619419     0.613600     0.607782     0.601963     0.596145     0.590326     0.584508     0.578689     0.572871
      0.567052     0.561234     0.555415     0.549597     0.543778     0.537960     0.532141     0.526323     0.520504     0.514686
      0.508867     0.503049     0.497230     0.491412     0.485593     0.479775     0.473956     0.468138     0.462319     0.456501
      0.450682     0.444864     0.439045     0.433227     0.427408     0.421590     0.415771     0.409953     0.404134     0.398316
      0.392497     0.386679     0.380860     0.375042     0.369223     0.363405     0.357586     0.351767     0.345949     0.340130
      0.334312     0.328493     0.322675     0.316856     0.311038     0.305219     0.299401     0.293582     0.287764     0.281945
      0.276127     0.270308     0.264490     0.258671     0.252853     0.247034     0.241216     0.235397     0.229579     0.223760
      0.217942     0.212123     0.206305     0.200486
 NY phased data points follow
  -1.56136E-01 -1.73484E-05 -4.56910E-01 -1.69690E-01 -1.34556E-01 -6.66119E-02 -2.44848E-01 -1.71702E-01 -7.00565E-02  1.72740E-02
   5.39049E-01  6.45537E-01  5.79915E-01  3.22354E-01  3.40947E-01  2.42360E-01  2.01332E-01 -2.82877E-02  3.33906E-02  2.65685E-01
   3.26633E-01  2.80654E-01 -1.92053E-01 -1.84792E-01  4.65010E-02 -1.01712E-01 -1.48072E-01 -7.25243E-03 -2.77649E-01 -8.55549E-02
   1.32952E-02 -1.89226E-01 -4.25236E-02 -2.60951E-01 -4.81711E-01 -2.97988E-01 -3.16711E-01 -3.05851E-01 -1.62733E-01 -6.47421E-02
   2.13244E-01  1.85978E-01  2.17094E-01  9.08887E-02  2.64177E-01  3.24169E-01  4.09408E-01  5.42697E-01 -4.34586E-02  5.33307E-02
   1.20447E-01  1.03582E-01 -9.76822E-02 -2.41180E-01 -1.61919E-01 -1.78847E-01 -4.98216E-02  1.30993E-02  6.82176E-03 -2.53927E-01
  -2.13257E-01 -3.86332E-01 -1.40954E-01  4.17408E-02 -3.56026E-01 -2.00108E-01  1.72582E-01  3.22615E-01  4.43393E-01  4.83140E-01
   6.43873E-02  3.47091E-02  8.20103E-02  3.92158E-02  2.94389E-02 -2.00740E-02 -1.98378E-01 -3.31387E-01 -5.00700E-01 -6.43317E-01
  -1.31469E-01 -1.77537E-01  8.72224E-02  4.78140E-01  1.30516E-01  2.37590E-01  4.08949E-01  1.75977E-01  1.56666E-01  8.81861E-02
   1.37131E-01  1.79441E-01 -1.34873E-01  1.44442E-01  4.97099E-02  1.06841E-01  1.41386E-01 -9.98540E-02 -3.15862E-02 -1.89272E-01
  -5.96815E-03 -1.77009E-01 -1.26762E-01  2.14973E-01  3.18683E-01  3.98536E-01  2.42101E-01  1.80170E-01  4.10576E-01  4.30824E-01
   3.62223E-01  4.20664E-01  1.41908E-02 -9.42909E-02  3.53052E-01  4.64728E-01  8.03851E-02  2.32704E-01  1.34082E-01 -5.87225E-02
   5.24326E-02 -1.99087E-01 -3.61242E-02 -1.61227E-01 -3.24586E-01 -3.52698E-01 -9.08156E-02 -3.61705E-01 -4.78206E-01 -5.15668E-02
  -2.61727E-01 -1.18260E-01 -3.57189E-01 -1.44595E-01 -2.19227E-01 -7.59877E-01 -9.59248E-01 -9.07961E-01 -2.95678E-01 -1.51280E-01
  -2.04233E-01 -1.18971E-01  1.11473E-01 -1.73335E-03  8.02844E-02  5.79893E-02 -4.66736E-02 -7.00627E-02  3.07691E-01  3.56308E-01
  -3.55011E-02  4.07327E-01  3.87157E-01  4.33231E-01  2.00904E-01  3.50533E-01  3.43144E-01  2.52682E-01  6.42514E-01  4.06283E-01
   2.33958E-01  2.74039E-01  5.51124E-01  6.05596E-01  7.02534E-01  4.51146E-01  4.07171E-01 -4.53579E-01 -8.76239E-01 -7.10212E-01
  -9.37580E-01 -4.76892E-01 -5.45492E-01 -3.00564E-01 -3.33793E-01 -1.80210E-01 -3.08703E-01 -3.23292E-01 -2.59232E-01 -5.24155E-01
  -1.74881E-01 -1.69204E-01 -1.10505E-01 -2.32531E-01 -8.42749E-02 -1.77535E-01 -1.96484E-01 -1.82340E-01 -2.11212E-01 -4.27461E-02
  -1.05780E-01 -1.12494E-01 -3.89719E-01  2.59002E-02  1.94375E-01 -2.72571E-01 -1.22979E-01 -9.55350E-02 -2.73141E-02 -1.91158E-02
  -6.58317E-02  4.66635E-02 -2.80822E-01 -3.82575E-02 -5.25334E-02 -9.16601E-02  4.65256E-02 -1.09792E-03  1.44742E-02 -2.58746E-02
   1.66475E-01 -1.26366E-01  1.00123E-01  1.16199E-01  8.65835E-02  2.00227E-02 -4.41601E-02  1.51188E-01 -7.85229E-02  1.24942E-01
   9.30081E-02  2.21537E-02 -2.04911E-02 -2.56308E-02  6.67214E-02  3.73477E-01  2.66364E-01  6.61022E-02  3.29204E-01  2.66027E-01
   3.77971E-01  2.34967E-01  2.95409E-02  1.42376E-01  1.50019E-01 -1.35095E-01 -1.15998E-01  1.65458E-01  1.01456E-01  2.88027E-01
   5.42760E-02 -2.92876E-01  3.56365E-02 -1.77805E-01 -1.08000E-01  1.07109E-01 -1.46898E-01  8.07882E-02  6.88128E-02 -1.41082E-01
   6.38179E-03  1.14158E-01  5.27164E-02 -3.37183E-01 -3.96136E-01  5.60256E-02 -3.48865E-03 -1.01671E-01 -1.75897E-01  2.58541E-01
   4.09688E-01 -1.35681E-02 -2.03310E-01 -2.54062E-01  9.18862E-02  1.04795E-01  1.95436E-01  1.08126E-01  3.42609E-01  3.76615E-01
   3.83301E-01  2.35932E-01 -1.67306E-01 -1.12337E-01 -3.79447E-01 -3.29309E-02 -1.49425E-01 -1.32398E-01 -1.67026E-01 -3.28779E-01
  -2.85166E-01 -4.18063E-01 -7.27911E-02 -1.26473E-01 -3.79712E-03  4.14728E-01  5.72024E-01  5.66360E-01  4.46761E-01  1.65791E-01
   1.54404E-01  1.51042E-02  8.99628E-02  9.72101E-04 -5.83350E-02  3.41455E-01  1.05386E-01  1.88601E-01  7.57155E-02  9.82717E-02
   3.60020E-01  2.22737E-01  4.55176E-01  4.30634E-01  3.01116E-01  1.89872E-01  2.51515E-01  1.91027E-01 -1.73694E-01  2.35836E-01
   9.05904E-02  5.50437E-02  2.88488E-01  1.31024E-01  1.46672E-01 -1.00245E-01  9.10168E-03 -1.31012E-01 -1.59627E-01 -1.27889E-01
  -2.36116E-01 -3.28791E-01 -3.87088E-01 -1.91329E-01  3.84457E-02  2.58482E-02  1.06087E-02  1.47375E-01 -4.10064E-02  1.43088E-01
   1.25440E-01  1.02372E-01 -6.95852E-02 -2.45422E-01 -4.22486E-01 -6.17787E-01 -6.29090E-01 -2.87064E-01  4.24631E-02 -4.73746E-01
  -3.24999E-01 -1.05030E+00 -1.98265E+00 -1.28307E+00 -3.76675E-01 -2.19981E-01  4.11513E-02  8.79155E-02 -1.00143E-01  2.25513E-01
   9.47830E-02  8.22257E-02  2.05375E-01  8.54950E-02  3.37816E-02  1.41722E-01 -5.73883E-02  4.18054E-02  1.16211E-01  3.52073E-01
   1.07814E-01 -1.71957E-01  4.38164E-02 -3.24869E-01 -3.98742E-02 -2.98474E-01 -1.47835E-01 -4.51532E-02 -1.42089E-01  5.20911E-02
  -6.20153E-02  2.04962E-01  6.31123E-02  9.46588E-02  2.05715E-01  2.87151E-01  1.71614E-01  1.82307E-01  3.14355E-01  2.51805E-01
   1.08811E-01  1.60558E-01  2.84306E-01  9.24611E-02  2.05018E-01  4.44547E-01  4.84044E-01  2.03711E-01  1.93308E-01  3.34427E-01
   3.05372E-01  3.94708E-01  2.96479E-01  1.87243E-01  2.49580E-01  1.99349E-01  3.51869E-01  1.75394E-01  5.43112E-02  2.10893E-01
   2.25251E-02  3.25462E-02 -1.90251E-01  4.96288E-02  1.03468E-01 -1.11152E-01  1.35636E-01 -2.10002E-01 -4.87916E-02 -2.26209E-02
  -2.49233E-01 -1.20877E-02 -1.35542E-01  1.17154E-01  1.46491E-01 -7.70324E-02 -2.64481E-01 -2.41589E-01 -6.27411E-03 -3.03734E-01
  -9.43633E-02  1.97796E-01 -4.22870E-02 -1.38358E-01 -1.66296E-01 -2.68156E-01  1.08996E-01  1.39669E-02 -3.08381E-01 -7.80572E-02
  -3.82464E-02 -2.56295E-01 -1.30091E-01 -1.71049E-02 -2.74881E-01  2.47140E-01 -3.49859E-02 -2.50503E-02  2.30367E-01 -3.02459E-02
  -3.35374E-02 -2.06673E-01  8.63984E-02 -2.24237E-01 -6.45864E-02  3.03377E-02  2.68692E-02  3.34465E-01  2.86481E-01 -2.34489E-02
  -1.03524E-01  2.14637E-01 -3.36041E-02  1.29148E-01  8.42602E-02 -6.68299E-02 -1.59589E-01 -8.46707E-02  6.66697E-02 -1.25838E-01
  -1.68744E-01  8.62039E-02  1.65512E-01 -3.20743E-01 -1.39761E-01 -3.46598E-01 -4.42613E-01 -3.84122E-02 -2.09983E-01 -9.44861E-02
  -8.86518E-02 -3.32393E-01 -3.47497E-01 -1.70356E-01 -6.06988E-02 -1.96461E-01 -3.60312E-01 -2.11410E-01 -1.70397E-01 -5.85480E-02
   2.33634E-01  9.81481E-02  1.49857E-01 -1.36389E-02  5.60507E-02  3.59676E-01 -4.71797E-02  1.19993E-01  3.45672E-01  1.00716E-01
   6.55063E-02  1.92846E-01  5.62880E-02 -5.66226E-02  1.87318E-01  1.67913E-01  7.40483E-02  2.22007E-01  2.20768E-01  4.02996E-02
   2.07841E-01  1.76739E-01  2.13791E-01  3.46822E-01  1.46542E-02 -9.51042E-02 -1.35085E-02  1.12987E-02 -6.14340E-02  6.62236E-04
   3.76642E-01  2.02513E-01 -1.03956E-01  1.72471E-01 -7.09499E-02 -2.12041E-02  1.74094E-01  3.35056E-02  7.31871E-02 -2.01732E-01
  -1.69481E-01 -6.58169E-02  8.84364E-02 -1.66135E-01 -6.13147E-01 -4.46054E-01 -5.08096E-01 -5.79923E-01 -4.81734E-01 -1.91679E-01
  -2.01959E-01 -3.30578E-01 -1.41394E-01 -9.72953E-02 -1.80683E-01 -5.59091E-01 -3.84951E-01 -5.78815E-02 -9.64176E-02 -3.60595E-01
  -3.96023E-01 -7.08617E-03 -1.18689E-01 -1.06182E-01 -2.24578E-01 -6.73296E-02  1.78739E-01  7.70953E-02  2.62313E-01 -3.57743E-02
  -2.71121E-01  3.36177E-01  4.50137E-01  1.94097E-01  1.30553E-01  1.27535E-01  3.51162E-01  7.13456E-02  1.07123E-01 -2.40510E-01
  -3.04106E-02  2.19432E-01 -3.09528E-02  2.44538E-01  4.43783E-02  3.66414E-01  6.11227E-02  2.25134E-01  2.32754E-01  8.54971E-02
   2.41804E-01 -1.11758E-02  2.80089E-01  9.14009E-02  4.93454E-02 -6.53259E-02 -1.68820E-01 -2.80284E-01 -2.25687E-02 -6.44731E-03
   1.97680E-01  2.71538E-01 -1.23054E-01  1.29375E-01  7.34489E-02  2.33951E-01  3.79601E-02  3.46722E-01  2.42584E-01 -1.97012E-02
   8.13753E-02 -1.77090E-01 -5.58941E-02 -9.35761E-02  3.11482E-01  3.35517E-02  3.71404E-02  1.52198E-01 -7.65205E-02  1.31975E-01
   7.89413E-02  3.28030E-01  1.54015E-01  9.21791E-02  2.07622E-01  1.04486E-01  6.25358E-02  4.34885E-02  1.25913E-02 -8.60385E-02
   1.06504E-01  1.73423E-01  1.51642E-01  1.14697E-01  1.05709E-01  5.35123E-02  4.45808E-02 -2.18380E-01  2.27587E-02  3.18340E-01
  -2.26740E-01  1.92276E-01  3.38907E-01 -4.84079E-02  4.77066E-02  1.80920E-01  2.88075E-01  2.36003E-01 -3.19581E-02  1.16319E-01
   3.24004E-01 -9.17780E-03  2.69251E-04  4.55496E-02  3.78893E-02 -5.33895E-02 -1.62057E-01  1.22140E-02  3.43833E-01  1.43006E-01
  -6.79773E-03  1.73105E-01  6.24284E-02 -7.39919E-02 -1.05777E-01  1.22491E-01  1.37541E-01  1.90661E-01  4.21366E-02  3.99793E-02
   2.24150E-02 -1.19187E-02 -5.42561E-02  8.24732E-02
 NY points of the fit to the data follow
   8.32549E-02  5.73157E-02  2.91553E-02  6.66885E-04  5.78027E-03  5.97677E-03  1.26518E-02 -9.66390E-03  8.29182E-02  1.74537E-01
   2.87920E-01  6.00027E-01  6.70577E-01  3.31001E-01  2.64765E-01  2.77760E-01  2.07087E-01  6.92740E-02  9.89931E-02  5.95955E-02
   4.75788E-02 -1.74934E-03 -2.10797E-02 -5.42441E-02 -7.20642E-02 -9.34193E-02 -1.06241E-01 -1.16279E-01 -1.20020E-01 -1.32303E-01
  -1.35323E-01 -1.46862E-01 -1.67628E-01 -2.05517E-01 -2.45164E-01 -2.94255E-01 -3.02337E-01 -3.00645E-01 -2.28309E-01 -6.92714E-02
   4.32055E-02  1.08663E-01  1.83970E-01  2.24601E-01  2.96873E-01  2.67894E-01  3.04971E-01  2.13072E-01  1.48367E-01  1.37247E-01
   5.66235E-02  3.12606E-02  5.32735E-03 -3.62306E-02 -7.44856E-02 -1.14741E-01 -1.62556E-01 -1.68112E-01 -1.86975E-01 -1.97011E-01
  -2.37520E-01 -3.73853E-01 -2.24746E-01 -1.66782E-01 -3.36681E-01  9.98264E-02  3.05229E-01  1.15783E-01  3.98353E-01  4.02241E-01
   2.70657E-01  2.02215E-01  1.17507E-01  6.58087E-02 -1.44875E-02 -9.74495E-02 -2.28060E-01 -3.09948E-01 -4.60411E-01 -5.27457E-01
  -1.95956E-01  9.66621E-03  4.10710E-02  3.49385E-01  4.56758E-01  3.92371E-01  3.34785E-01  2.62458E-01  2.18827E-01  1.62182E-01
   1.57711E-01  1.56118E-01  1.33169E-01  1.30108E-01  8.51097E-02  5.74779E-02 -3.41609E-02 -1.12511E-01 -1.51940E-01 -2.03974E-01
  -1.20002E-01  3.07528E-02  6.20653E-02  2.32612E-01  1.83975E-01  2.22268E-01  1.78406E-01  1.77812E-01  1.63651E-01  1.66668E-01
   1.68339E-01  1.70692E-01  1.66293E-01  1.67066E-01  1.65514E-01  1.67067E-01  1.69512E-01  1.76303E-01  1.52859E-01  1.33629E-01
   1.23719E-01 -1.70153E-02 -5.76578E-02 -2.40762E-02 -2.26881E-01 -1.87414E-01 -6.21095E-02 -2.28821E-01 -2.28820E-01 -2.53851E-01
  -2.33627E-01 -1.17381E-01 -1.31457E-01 -1.34118E-01 -3.20024E-01 -7.16574E-01 -9.84694E-01 -6.92929E-01 -3.55404E-01 -2.07055E-01
  -1.61228E-02  4.66721E-02  7.19652E-02  3.97917E-02  4.65097E-02  6.05926E-02  7.29112E-02  8.79161E-02  1.00217E-01  1.08926E-01
   1.22390E-01  1.33823E-01  1.45083E-01  1.59277E-01  1.76951E-01  1.96306E-01  2.14895E-01  2.39315E-01  2.59977E-01  2.86556E-01
   3.29627E-01  3.92706E-01  5.25832E-01  7.02985E-01  6.94165E-01  7.08940E-01  3.94429E-01 -5.37763E-01 -9.72182E-01 -7.49802E-01
  -6.86616E-01 -4.79674E-01 -3.82634E-01 -2.45721E-01 -2.80951E-01 -2.65625E-01 -2.52361E-01 -2.35096E-01 -2.37939E-01 -2.31309E-01
  -2.05569E-01 -1.97936E-01 -1.92528E-01 -1.84144E-01 -1.76447E-01 -1.76377E-01 -1.64692E-01 -1.55194E-01 -1.46283E-01 -1.43581E-01
  -1.30682E-01 -1.22345E-01 -1.13127E-01 -1.03538E-01 -9.32751E-02 -8.65982E-02 -7.77067E-02 -6.85777E-02 -5.96595E-02 -4.78717E-02
  -3.60278E-02 -2.17794E-02 -1.45591E-02 -2.18372E-02 -3.28136E-02 -3.24195E-02 -1.50780E-02 -1.63635E-03 -1.27478E-02 -4.30591E-02
  -5.51516E-02 -5.03511E-02 -4.57051E-02 -3.09053E-02 -7.96073E-03  1.10922E-02  2.67321E-02  3.64531E-02  1.02283E-02  1.27343E-03
   2.05065E-02  4.15247E-02  5.98973E-02  8.31349E-02  1.60711E-01  2.20300E-01  1.95286E-01  1.77876E-01  1.66424E-01  2.92002E-01
   3.56111E-01  1.82239E-01  6.48899E-02  5.38906E-03 -7.08245E-02 -8.17026E-02 -8.46539E-02 -6.60031E-02 -6.70904E-02 -7.36628E-02
  -8.08067E-02 -8.43823E-02 -8.82225E-02 -8.82231E-02 -9.19595E-02 -9.61535E-02 -9.93592E-02 -9.62224E-02 -9.54605E-02 -9.65170E-02
  -7.92881E-02 -8.25141E-02 -1.34851E-01 -9.77584E-02 -9.89916E-02 -1.14419E-01  2.40524E-02  2.68308E-02 -1.57514E-02  9.23573E-02
   7.54637E-02  6.31623E-02  3.69322E-02 -2.26868E-03  8.29746E-02  6.13645E-02  1.21391E-01  1.52061E-01  1.81779E-01  2.19299E-01
   1.25711E-01  1.41624E-01  3.34947E-02  2.49791E-02 -3.28949E-02 -5.26546E-02 -8.84854E-02 -1.24546E-01 -1.81135E-01 -2.37104E-01
  -3.12736E-01 -3.79264E-01 -3.22166E-01 -2.35030E-01 -3.57545E-02  2.45324E-01  3.42395E-01  4.39755E-01  4.31126E-01  2.87098E-01
   2.17181E-01  1.11961E-01  9.01932E-02  8.13088E-02  9.49075E-02  1.59155E-01  1.74001E-01  2.01288E-01  2.16424E-01  1.96707E-01
   1.96641E-01  1.79176E-01  1.70223E-01  1.64631E-01  1.56772E-01  1.33951E-01  1.16652E-01  8.48987E-02  2.08025E-02  1.03821E-02
  -2.39548E-02 -5.49013E-02 -4.54799E-03 -1.16976E-02 -1.48523E-02 -5.81117E-03 -1.01122E-01 -1.69438E-01 -2.62233E-01 -2.92012E-01
  -3.40536E-01 -3.04719E-01 -2.65317E-01 -1.83989E-01 -1.03237E-01 -1.97854E-02  5.00282E-02  1.02559E-01  1.13323E-01  9.98712E-02
   2.33603E-02 -1.54554E-02 -1.42906E-01 -2.63911E-01 -3.35033E-01 -5.21913E-01 -5.68381E-01 -2.91263E-01 -9.05749E-02 -3.74474E-01
  -5.01360E-01 -1.05953E+00 -1.91301E+00 -1.33546E+00 -3.74955E-01 -2.83538E-01  1.52804E-01  1.60307E-01  2.20621E-01  7.04684E-02
   4.77452E-02  4.59625E-02  4.95799E-02  5.19515E-02  5.67739E-02  6.37091E-02  6.84053E-02  5.95743E-02  5.30501E-02  2.73416E-02
  -1.05868E-02 -3.38969E-02 -7.13217E-02 -9.12617E-02 -7.53939E-02 -8.19012E-02 -3.95994E-02 -2.86197E-02  3.39060E-03  1.64150E-02
   3.24031E-02  4.45310E-02  5.54173E-02  5.89040E-02  6.06497E-02  6.70182E-02  7.02985E-02  7.59216E-02  8.10163E-02  8.26149E-02
   8.61204E-02  9.02421E-02  9.60643E-02  9.87311E-02  1.02763E-01  1.02694E-01  1.03196E-01  1.05525E-01  1.13301E-01  1.18123E-01
   1.23523E-01  1.28215E-01  1.24665E-01  1.22101E-01  1.15101E-01  1.11652E-01  1.07067E-01  1.03691E-01  9.76891E-02  9.02999E-02
   8.01555E-02  7.17727E-02  6.15645E-02  4.99827E-02  4.10432E-02  3.61013E-02  2.89791E-02  2.07738E-02  1.35015E-02  9.78000E-03
   2.50653E-03  4.01226E-05 -2.03652E-03 -8.34785E-03 -1.01554E-02 -1.46605E-02 -1.86311E-02 -2.09641E-02 -2.32393E-02 -2.45408E-02
  -2.47558E-02 -2.78794E-02 -2.44733E-02 -2.03148E-02 -1.84986E-02 -1.24354E-02 -4.56142E-03  2.01707E-03  9.88000E-03  1.63840E-02
   1.85004E-02  1.69199E-02  2.12911E-02  3.08547E-02  4.14061E-02  5.31466E-02  6.26250E-02  7.18808E-02  8.24822E-02  9.48673E-02
   1.11935E-01  1.26234E-01  1.41393E-01  1.58287E-01  1.71497E-01  1.86771E-01  2.00741E-01  2.07957E-01  2.12526E-01  2.12623E-01
   2.09681E-01  2.08141E-01  2.03870E-01  2.00771E-01  1.93423E-01  1.83637E-01  1.68623E-01  1.51002E-01  1.33191E-01  1.21695E-01
   1.08560E-01  9.64912E-02  8.45788E-02  7.30548E-02  6.05467E-02  5.52437E-02  4.71158E-02  3.89282E-02  3.35282E-02  2.87035E-02
   2.40816E-02  1.95989E-02  1.79667E-02  1.62244E-02  2.10751E-02  2.79107E-02  3.04984E-02  3.62440E-02  4.50270E-02  5.05030E-02
   5.87446E-02  6.79245E-02  7.50114E-02  7.91063E-02  8.09425E-02  8.32166E-02  8.34377E-02  8.49303E-02  8.89871E-02  9.40096E-02
   9.33238E-02  9.07433E-02  8.82722E-02  8.21636E-02  7.89761E-02  7.28200E-02  6.51828E-02  6.32810E-02  5.86669E-02  5.58001E-02
   5.00792E-02  4.64084E-02  4.19940E-02  3.56185E-02  3.15544E-02  2.57152E-02  2.00427E-02  1.85050E-02  1.74924E-02  1.32784E-02
   8.40886E-03  3.02815E-03 -3.59958E-03 -1.48094E-02 -2.65195E-02 -3.58134E-02 -4.69676E-02 -5.89013E-02 -7.57207E-02 -9.80777E-02
  -1.21763E-01 -1.47040E-01 -1.68819E-01 -1.88106E-01 -2.09590E-01 -2.25606E-01 -2.40382E-01 -2.51165E-01 -2.62324E-01 -2.68437E-01
  -2.67895E-01 -2.60307E-01 -2.55243E-01 -2.49402E-01 -2.36196E-01 -2.21670E-01 -2.10622E-01 -2.00158E-01 -1.90140E-01 -1.82686E-01
  -1.74226E-01 -1.61674E-01 -1.47238E-01 -1.35851E-01 -1.19581E-01 -1.03468E-01 -8.96872E-02 -7.77835E-02 -6.41483E-02 -5.17109E-02
  -4.34486E-02 -3.03964E-02 -1.84883E-02 -1.35145E-02 -5.58456E-03  1.42960E-03  1.06156E-02  1.91272E-02  1.81477E-02  2.19174E-02
   3.10007E-02  3.10121E-02  3.35627E-02  3.77604E-02  3.66432E-02  3.94374E-02  4.10518E-02  4.08068E-02  3.93565E-02  4.14671E-02
   4.79234E-02  4.94648E-02  5.27298E-02  5.76997E-02  5.82639E-02  5.63816E-02  5.51995E-02  5.69631E-02  5.42561E-02  5.32711E-02
   5.58443E-02  5.33776E-02  5.23872E-02  5.42486E-02  5.42636E-02  5.62061E-02  5.78109E-02  5.82159E-02  5.92842E-02  5.34538E-02
   4.55504E-02  4.84451E-02  5.24574E-02  5.18880E-02  5.13235E-02  5.17857E-02  5.34794E-02  5.03110E-02  4.63428E-02  4.95371E-02
   5.32036E-02  5.63978E-02  5.55498E-02  5.80475E-02  5.96066E-02  6.08185E-02  6.38472E-02  6.43461E-02  6.49278E-02  6.63763E-02
   6.63076E-02  6.26619E-02  5.96426E-02  6.08674E-02  6.42029E-02  6.48118E-02  6.94721E-02  7.04307E-02  7.21238E-02  7.18720E-02
   7.32636E-02  7.95173E-02  8.29494E-02  8.41632E-02  8.34852E-02  7.86908E-02  7.68043E-02  7.85900E-02  8.03299E-02  8.42702E-02
   8.30119E-02  8.07180E-02  8.22819E-02  8.24439E-02  8.29793E-02  8.61890E-02  8.49672E-02  8.45798E-02  9.03185E-02  9.41078E-02
   9.21319E-02  9.36853E-02  9.62172E-02  9.65168E-02  1.00104E-01  1.02025E-01  1.06884E-01  1.16118E-01  1.20794E-01  1.24620E-01
   1.25033E-01  1.28693E-01  1.31181E-01  1.32980E-01
 NY background values follow
     8.053E-03    8.367E-03    8.681E-03    8.995E-03    9.310E-03    9.624E-03    9.938E-03    1.025E-02    1.057E-02    1.088E-02
     1.119E-02    1.151E-02    1.182E-02    1.214E-02    1.245E-02    1.276E-02    1.308E-02    1.339E-02    1.370E-02    1.401E-02
     1.433E-02    1.464E-02    1.495E-02    1.526E-02    1.558E-02    1.589E-02    1.620E-02    1.651E-02    1.682E-02    1.713E-02
     1.744E-02    1.775E-02    1.806E-02    1.837E-02    1.868E-02    1.899E-02    1.929E-02    1.960E-02    1.991E-02    2.022E-02
     2.052E-02    2.083E-02    2.113E-02    2.144E-02    2.174E-02    2.205E-02    2.235E-02    2.266E-02    2.296E-02    2.326E-02
     2.356E-02    2.386E-02    2.416E-02    2.446E-02    2.476E-02    2.506E-02    2.536E-02    2.566E-02    2.595E-02    2.625E-02
     2.655E-02    2.684E-02    2.714E-02    2.743E-02    2.772E-02    2.802E-02    2.831E-02    2.860E-02    2.889E-02    2.918E-02
