 LCModel (Version 6.3-1N) Copyright: S.W. Provencher.          Ref.: Magn. Reson. Med. 30:672-679 (1993).                
 Slice_N1@14_19  02-Jun-2023 14:36:46
 27 lines in following concentration table = NCONC+1
    Conc.  %SD /Cr+PCr  Metabolite                                         
 2.02E-06  17% 2.2E-04 Mac                                                 
 3.58E-02  25%   3.958 Cr                                                  
 3.66E-02  25%   4.042 PCr                                                 
 8.13E-02  10%   8.987 Ins                                                 
 8.89E-02   7%   9.827 NAA                                                 
 4.26E-02  17%   4.715 Tau                                                 
 1.01E-02  29%   1.120 PCho                                                
 5.59E-03  48%   0.618 GPC                                                 
 7.28E-02  13%   8.053 Glu                                                 
 2.29E-02  30%   2.528 Gln                                                 
 4.36E-03 154%   0.482 Ala                                                 
 1.66E-02  73%   1.830 Asc                                                 
 1.31E-02  63%   1.444 Asp                                                 
 9.45E-03  45%   1.045 GABA                                                
 9.66E-03  58%   1.068 Glc                                                 
 1.06E-02  37%   1.175 GSH                                                 
    0.000 999%   0.000 Lac                                                 
 1.42E-02  32%   1.566 NAAG                                                
    0.000 999%   0.000 PE                                                  
 1.57E-02  12%   1.739 GPC+PCho                                            
    0.103   7%  11.393 NAA+NAAG                                            
 9.57E-02  11%  10.580 Glu+Gln                                             
 7.24E-02   8%   8.000 Cr+PCr                                              
    0.103   7%  11.393 NAA+NAAG                                            
 7.24E-02   8%   8.000 Cr+PCr                                              
 9.57E-02  11%  10.580 Glu+Gln                                             
   6 lines in following misc. output table
  FWHM = 0.023 ppm    S/N =   5                                            
  Data shift = 0.012 ppm                                                   
  Ph: -38 deg     -10.3 deg/ppm                                            
  alphaB,S = 1.4E+00,   2.8E+00                                            
   18 spline knots.   Ns = 5(1)                                            
  ( 3) 2 infls.   ( 1) 1 extrs.                                            
  654 points on ppm-axis = NY
      4.000000     3.994181     3.988363     3.982544     3.976726     3.970907     3.965088     3.959270     3.953451     3.947633
      3.941814     3.935995     3.930177     3.924358     3.918540     3.912721     3.906902     3.901084     3.895265     3.889446
      3.883628     3.877809     3.871991     3.866172     3.860353     3.854535     3.848716     3.842898     3.837079     3.831260
      3.825442     3.819623     3.813805     3.807986     3.802167     3.796349     3.790530     3.784712     3.778893     3.773074
      3.767256     3.761437     3.755619     3.749800     3.743981     3.738163     3.732344     3.726526     3.720707     3.714888
      3.709070     3.703251     3.697433     3.691614     3.685795     3.679977     3.674158     3.668339     3.662521     3.656702
      3.650884     3.645065     3.639246     3.633428     3.627609     3.621791     3.615972     3.610153     3.604335     3.598516
      3.592698     3.586879     3.581060     3.575242     3.569423     3.563605     3.557786     3.551967     3.546149     3.540330
      3.534512     3.528693     3.522874     3.517056     3.511237     3.505419     3.499600     3.493781     3.487963     3.482144
      3.476326     3.470507     3.464688     3.458870     3.453051     3.447232     3.441414     3.435595     3.429777     3.423958
      3.418139     3.412321     3.406502     3.400684     3.394865     3.389046     3.383228     3.377409     3.371591     3.365772
      3.359953     3.354135     3.348316     3.342498     3.336679     3.330860     3.325042     3.319223     3.313405     3.307586
      3.301767     3.295949     3.290130     3.284312     3.278493     3.272674     3.266856     3.261037     3.255219     3.249400
      3.243581     3.237763     3.231944     3.226125     3.220307     3.214488     3.208670     3.202851     3.197032     3.191214
      3.185395     3.179577     3.173758     3.167939     3.162121     3.156302     3.150484     3.144665     3.138846     3.133028
      3.127209     3.121391     3.115572     3.109753     3.103935     3.098116     3.092298     3.086479     3.080660     3.074842
      3.069023     3.063205     3.057386     3.051567     3.045749     3.039930     3.034111     3.028293     3.022474     3.016656
      3.010837     3.005018     2.999200     2.993381     2.987563     2.981744     2.975925     2.970107     2.964288     2.958470
      2.952651     2.946832     2.941014     2.935195     2.929377     2.923558     2.917739     2.911921     2.906102     2.900284
      2.894465     2.888646     2.882828     2.877009     2.871191     2.865372     2.859553     2.853735     2.847916     2.842098
      2.836279     2.830460     2.824642     2.818823     2.813004     2.807186     2.801367     2.795549     2.789730     2.783911
      2.778093     2.772274     2.766456     2.760637     2.754818     2.749000     2.743181     2.737363     2.731544     2.725725
      2.719907     2.714088     2.708270     2.702451     2.696632     2.690814     2.684995     2.679177     2.673358     2.667539
      2.661721     2.655902     2.650084     2.644265     2.638446     2.632628     2.626809     2.620991     2.615172     2.609353
      2.603535     2.597716     2.591897     2.586079     2.580260     2.574442     2.568623     2.562804     2.556986     2.551167
      2.545349     2.539530     2.533711     2.527893     2.522074     2.516256     2.510437     2.504618     2.498800     2.492981
      2.487163     2.481344     2.475525     2.469707     2.463888     2.458070     2.452251     2.446432     2.440614     2.434795
      2.428977     2.423158     2.417339     2.411521     2.405702     2.399884     2.394065     2.388246     2.382428     2.376609
      2.370790     2.364972     2.359153     2.353335     2.347516     2.341697     2.335879     2.330060     2.324242     2.318423
      2.312604     2.306786     2.300967     2.295149     2.289330     2.283511     2.277693     2.271874     2.266056     2.260237
      2.254418     2.248600     2.242781     2.236963     2.231144     2.225325     2.219507     2.213688     2.207870     2.202051
      2.196232     2.190414     2.184595     2.178777     2.172958     2.167139     2.161321     2.155502     2.149683     2.143865
      2.138046     2.132228     2.126409     2.120590     2.114772     2.108953     2.103135     2.097316     2.091497     2.085679
      2.079860     2.074042     2.068223     2.062404     2.056586     2.050767     2.044949     2.039130     2.033311     2.027493
      2.021674     2.015856     2.010037     2.004218     1.998400     1.992581     1.986763     1.980944     1.975126     1.969307
      1.963489     1.957670     1.951852     1.946033     1.940215     1.934397     1.928578     1.922760     1.916941     1.911123
      1.905304     1.899486     1.893667     1.887849     1.882030     1.876212     1.870393     1.864575     1.858756     1.852938
      1.847119     1.841301     1.835482     1.829664     1.823845     1.818027     1.812208     1.806390     1.800571     1.794753
      1.788934     1.783116     1.777297     1.771479     1.765660     1.759842     1.754023     1.748205     1.742386     1.736568
      1.730749     1.724931     1.719113     1.713294     1.707476     1.701657     1.695839     1.690020     1.684202     1.678383
      1.672565     1.666746     1.660928     1.655109     1.649291     1.643472     1.637654     1.631835     1.626017     1.620198
      1.614380     1.608561     1.602743     1.596924     1.591106     1.585287     1.579469     1.573650     1.567832     1.562013
      1.556195     1.550376     1.544558     1.538739     1.532921     1.527102     1.521284     1.515465     1.509647     1.503829
      1.498010     1.492192     1.486373     1.480555     1.474736     1.468918     1.463099     1.457281     1.451462     1.445644
      1.439825     1.434007     1.428188     1.422370     1.416551     1.410733     1.404914     1.399096     1.393277     1.387459
      1.381640     1.375822     1.370003     1.364185     1.358366     1.352548     1.346729     1.340911     1.335092     1.329274
      1.323455     1.317637     1.311818     1.306000     1.300182     1.294363     1.288545     1.282726     1.276908     1.271089
      1.265271     1.259452     1.253634     1.247815     1.241997     1.236178     1.230360     1.224541     1.218723     1.212904
      1.207086     1.201267     1.195449     1.189630     1.183812     1.177993     1.172175     1.166356     1.160538     1.154719
      1.148901     1.143082     1.137264     1.131445     1.125627     1.119808     1.113990     1.108171     1.102353     1.096534
      1.090716     1.084898     1.079079     1.073261     1.067442     1.061624     1.055805     1.049987     1.044168     1.038350
      1.032531     1.026713     1.020894     1.015076     1.009257     1.003439     0.997620     0.991802     0.985983     0.980165
      0.974346     0.968528     0.962709     0.956891     0.951072     0.945254     0.939435     0.933617     0.927798     0.921980
      0.916161     0.910343     0.904524     0.898706     0.892887     0.887069     0.881251     0.875432     0.869614     0.863795
      0.857977     0.852158     0.846340     0.840521     0.834703     0.828884     0.823066     0.817247     0.811429     0.805610
      0.799792     0.793973     0.788155     0.782336     0.776518     0.770699     0.764881     0.759062     0.753244     0.747425
      0.741607     0.735788     0.729970     0.724151     0.718333     0.712514     0.706696     0.700877     0.695059     0.689240
      0.683422     0.677603     0.671785     0.665967     0.660148     0.654330     0.648511     0.642693     0.636874     0.631056
      0.625237     0.619419     0.613600     0.607782     0.601963     0.596145     0.590326     0.584508     0.578689     0.572871
      0.567052     0.561234     0.555415     0.549597     0.543778     0.537960     0.532141     0.526323     0.520504     0.514686
      0.508867     0.503049     0.497230     0.491412     0.485593     0.479775     0.473956     0.468138     0.462319     0.456501
      0.450682     0.444864     0.439045     0.433227     0.427408     0.421590     0.415771     0.409953     0.404134     0.398316
      0.392497     0.386679     0.380860     0.375042     0.369223     0.363405     0.357586     0.351767     0.345949     0.340130
      0.334312     0.328493     0.322675     0.316856     0.311038     0.305219     0.299401     0.293582     0.287764     0.281945
      0.276127     0.270308     0.264490     0.258671     0.252853     0.247034     0.241216     0.235397     0.229579     0.223760
      0.217942     0.212123     0.206305     0.200486
 NY phased data points follow
  -2.55016E-01  2.21589E-01 -2.46299E-01 -5.03125E-02 -4.83224E-01 -5.71061E-01  2.24457E-02 -2.94333E-01 -7.68451E-02 -1.89104E-01
  -2.44505E-01 -1.41339E-01  2.89866E-01  7.11727E-01  2.33756E-01  1.95664E-01  3.06321E-01  3.15284E-01  1.23911E-01  1.55030E-01
   2.81181E-01  1.52493E-01  2.49330E-01 -3.12377E-03 -6.42912E-02  1.76802E-01 -3.93012E-02 -3.31545E-01 -2.03273E-01 -1.26202E-01
  -3.67106E-02  9.23114E-02 -2.03823E-01 -2.45636E-01 -3.35569E-01 -8.80440E-02 -6.36551E-04 -3.15660E-01 -5.56941E-01 -4.66202E-01
   2.15040E-02 -1.23270E-01  3.49463E-01  4.71857E-01  3.77202E-01  7.44714E-01  5.79283E-01  4.61894E-01  2.23034E-01  4.85215E-02
   6.06930E-02  7.87320E-02  2.28905E-01  8.52059E-02 -3.37370E-01  2.25698E-02 -2.74669E-01 -4.60979E-01 -8.54315E-02 -2.79437E-01
  -3.55009E-01 -2.61470E-01 -3.63525E-01 -3.43187E-01  6.19395E-02 -5.47359E-01 -9.32218E-02  3.15789E-01  2.33269E-01  3.22227E-01
  -6.41883E-02  1.72290E-01 -6.13682E-02  1.77440E-01 -4.03202E-02 -1.07517E-01  3.78167E-02 -2.01655E-01 -3.36031E-01 -4.18278E-01
  -4.58014E-01 -4.56637E-01  1.76278E-01  1.52570E-02  2.00690E-01  2.80833E-01  3.46146E-01  5.28952E-01  1.35720E-01  8.00984E-02
   2.66438E-01  5.02096E-01  1.56203E-01  7.87269E-02 -1.32171E-01  4.04567E-02  1.19237E-01 -1.54018E-01  2.07376E-01 -3.35940E-02
  -1.59508E-02 -2.31718E-01 -2.05666E-01  3.04738E-01  1.87406E-01  5.82525E-01  4.63417E-01  4.85674E-01  3.61921E-01  2.86949E-01
   5.57661E-01  1.07506E-01  3.32637E-01  1.47997E-01  2.79986E-01  2.39834E-01  2.22796E-01  3.38733E-01 -1.78505E-02  3.86074E-01
   8.50089E-02  2.11094E-01  4.36825E-02 -4.28510E-01  3.81652E-02 -1.40989E-01 -2.94431E-01 -2.44021E-01 -4.70231E-01 -1.42879E-01
  -3.74777E-01 -3.39493E-01 -1.56176E-01 -5.29184E-01 -3.53782E-01 -6.82348E-01 -6.95736E-01 -1.05566E+00 -9.25032E-01 -3.06029E-01
  -2.19193E-01 -4.82172E-02 -1.28037E-01 -7.67196E-02 -1.55035E-01 -1.27333E-01  1.77549E-03  1.53053E-01  7.08304E-02  2.45538E-01
   3.64289E-03  2.10921E-01  2.50917E-01  2.18797E-02  3.23956E-01  2.84772E-01  7.07778E-01  4.50872E-01  3.76066E-01  4.94940E-01
   4.68310E-01  3.45619E-01  5.43723E-01  5.73139E-01  7.32442E-01  9.77986E-01  8.33927E-01  9.43892E-01 -3.23609E-01 -9.34400E-01
  -9.61699E-01 -8.43514E-01 -8.36884E-01 -7.16904E-01 -2.73726E-01 -2.50918E-01 -3.64860E-01 -4.75805E-01 -4.05638E-01 -5.75546E-01
  -2.58529E-01 -4.23892E-01 -2.22367E-01 -3.08544E-01 -2.48741E-01 -1.51180E-01 -3.25851E-01 -1.20479E-03 -3.84665E-01 -2.24076E-01
  -4.02301E-01 -5.13665E-01 -3.97630E-01 -3.13144E-01 -2.40725E-01 -8.05058E-02  1.58822E-03 -2.37248E-01 -1.52625E-01 -1.33990E-01
  -5.28736E-02  9.04989E-02 -7.37482E-02 -4.60833E-01 -3.76077E-03  3.39031E-03 -1.69018E-01 -5.33463E-02 -8.44937E-03  1.25255E-01
  -4.24587E-02  1.94982E-01  1.50173E-01 -4.30414E-02  1.59115E-01  1.00778E-01 -8.15774E-02 -1.04598E-01 -1.37211E-01  7.82639E-02
  -1.57780E-02  1.11618E-01  1.94132E-01  1.37928E-01  1.64209E-01  3.34987E-02  4.26405E-01  3.28411E-01  1.72520E-02  2.41233E-01
   4.70880E-01  1.66147E-01  2.17556E-01  1.86313E-01 -4.32086E-02  2.10370E-01  2.91874E-01 -7.08808E-02 -9.05270E-02 -7.19503E-02
  -9.40153E-02  1.12519E-01 -3.42042E-01 -3.48008E-02 -2.77569E-01  3.66881E-03  8.05458E-02 -1.67343E-01  1.46365E-01 -4.16424E-01
   9.84302E-02 -8.45120E-02  6.41417E-02 -5.33779E-02  9.41870E-02  3.29207E-01 -1.80462E-01  2.16447E-01  6.79254E-02  2.33150E-01
   3.42784E-02  3.61647E-01  1.95648E-01 -1.56232E-01  2.79120E-01 -3.62621E-02  3.78588E-02  1.53225E-01  1.72241E-01  2.60721E-01
   3.88768E-01  3.86207E-01  1.17675E-02  2.31682E-02 -8.09949E-03 -2.32441E-01 -1.29331E-01 -4.33232E-01  8.57282E-02 -7.40017E-02
  -5.04938E-01 -6.59331E-02 -3.53269E-01 -7.83781E-02  4.46783E-02  2.19156E-01  3.91166E-01  5.54525E-01  4.80836E-01  2.44610E-01
   4.15636E-02  9.01548E-02  3.39960E-01  3.64585E-02  3.66557E-01  8.39462E-02  3.45714E-02  1.59265E-01  4.39676E-01  2.11150E-01
  -1.10906E-01  7.70596E-01  1.24584E-01 -4.85514E-02  2.22705E-01  2.91650E-01  4.96513E-01  2.78700E-01  1.91611E-01 -6.97676E-02
   1.55825E-01  2.52337E-01  2.79606E-01  4.66730E-01  1.47894E-01  1.91856E-01  3.37703E-01  3.58837E-02  7.75386E-02  4.34095E-02
  -1.41356E-01 -2.78142E-01 -3.70514E-01 -2.50376E-01 -3.51055E-01 -2.63652E-01 -8.06792E-02 -6.43678E-04  9.52448E-02  8.56598E-02
   3.36195E-01  4.99790E-02 -2.22344E-02  4.15268E-01 -3.79472E-01 -2.75625E-01 -1.11194E-01 -7.74446E-01 -3.91271E-01 -4.04236E-01
  -6.09713E-01 -5.38322E-01 -8.42759E-01 -1.97759E+00 -2.03560E+00 -9.61282E-01 -3.84155E-01 -4.25414E-02 -3.93997E-01  1.10572E-01
   2.94852E-01 -1.00165E-01  1.27200E-01 -1.28703E-01  1.22987E-02  9.94830E-02 -2.22134E-02  5.53875E-02  4.43724E-02  1.29072E-01
   1.76187E-01  2.76390E-01 -2.16605E-02 -1.80930E-01  2.09755E-01  3.22922E-02 -1.13613E-01  7.58104E-02  4.25509E-02  9.41321E-02
   1.27615E-01  1.15412E-01  1.57876E-01 -4.78140E-02 -4.34241E-02  2.09422E-01  7.42066E-02  6.02652E-01  4.94546E-01 -1.40609E-01
   1.87585E-01  7.32519E-02  2.57061E-01  5.10037E-01  2.59626E-01  2.26608E-01  2.80879E-01  1.63483E-01  3.11755E-01  2.54516E-01
   1.99983E-01  2.38215E-01  4.42308E-04  2.41478E-01  2.34185E-02  4.23858E-01  5.90322E-01  1.77631E-01  1.80257E-01  2.09607E-01
   2.58678E-01  9.95454E-02  4.43291E-02 -2.78461E-01  2.49964E-01 -7.16149E-02 -4.71510E-01 -2.91299E-02 -8.81049E-02 -1.74386E-02
  -1.80769E-01 -2.62959E-01 -2.46580E-01  2.15174E-02 -2.04435E-01 -1.33794E-01 -2.70363E-01 -1.42996E-01  1.11542E-02 -4.24870E-01
   1.18378E-01 -2.85834E-01 -3.44952E-01 -1.38962E-01 -2.64562E-01  6.21830E-02 -4.35364E-02 -1.27692E-01 -1.61240E-01 -3.78438E-01
  -5.54759E-01 -1.21530E-01  8.34292E-02  5.81914E-02  2.98190E-01  1.47041E-01  6.65928E-02 -7.83205E-02  6.87664E-02  3.57266E-01
  -8.09809E-02 -1.47518E-01  1.17288E-01  2.06799E-01 -1.79975E-01  1.12060E-03  2.19155E-01 -3.52262E-02  2.73177E-01 -1.02964E-02
   7.19005E-02  1.47269E-01  3.46431E-02  2.88076E-01  1.21413E-01  3.78624E-02  2.53218E-01 -3.00509E-02 -3.91664E-01 -7.30673E-02
  -1.55671E-01 -3.57011E-02  2.35894E-01  1.71041E-01 -6.85898E-02  8.30943E-03  3.86455E-01 -4.49180E-02 -2.66213E-01 -7.65631E-02
  -9.01749E-02  1.04711E-03 -2.18585E-01 -4.29217E-01 -4.61714E-02 -4.29070E-02 -8.89681E-02 -3.61844E-02 -2.36912E-01 -1.28828E-01
  -1.27598E-01 -7.68827E-02 -6.22780E-02 -5.11995E-03  3.34591E-02 -5.31500E-02  3.74982E-01  2.02846E-01  3.77978E-02  4.40839E-02
  -5.00614E-02  6.99284E-02 -6.39367E-02  4.38363E-01  5.53989E-01  1.32232E-01 -1.45829E-01  4.39143E-02 -5.21637E-02 -3.13521E-01
   6.90715E-02  3.50631E-01  2.64133E-01 -6.97796E-02  1.92548E-01  8.58147E-02  7.42062E-02 -4.32077E-02  1.45512E-01  3.36384E-01
   9.10321E-02  1.79605E-01 -8.59172E-02  1.12716E-01 -1.02599E-01 -1.13256E-02  2.47804E-01  3.03840E-02 -1.11015E-01  1.54814E-01
  -5.75612E-02 -2.41364E-01 -7.62954E-02 -4.14835E-01 -4.87269E-01 -5.00541E-01 -1.31216E-01 -4.61974E-01 -1.58517E-01 -2.16568E-01
  -3.60606E-01  6.10153E-03 -1.54957E-01  1.09554E-03 -3.29968E-01 -1.02640E-01 -8.98833E-02 -2.98987E-01 -3.27022E-01 -8.99320E-02
  -3.08412E-01 -2.71182E-02  9.90056E-03 -3.98627E-01  2.69855E-01  6.96523E-02  2.19856E-01  1.87751E-01  1.53041E-01  2.64119E-01
  -1.87855E-01  1.24744E-01  2.31944E-01 -3.43456E-02  3.37698E-01  7.17124E-02  1.31718E-01  3.37042E-02 -1.46224E-01  1.59216E-01
  -4.34860E-01  3.66851E-01  2.18999E-01 -5.18055E-02  2.82492E-01 -7.10490E-02  1.83493E-01  1.60679E-01  2.17466E-01  2.09647E-01
  -3.31332E-02 -1.16110E-01  2.25186E-01  1.05770E-01 -1.12010E-01 -1.79354E-01  2.41238E-01  3.21743E-01  1.11513E-01  2.28652E-01
   2.68881E-01  2.12639E-01 -1.47075E-01  8.70718E-02  3.33537E-02  2.68552E-01  2.25427E-01  1.53713E-01  1.25958E-01 -1.56096E-01
  -2.12085E-02 -2.29336E-03  1.30709E-01  9.39570E-02  2.65179E-02  5.53108E-02  1.64570E-02 -2.65485E-01  1.02118E-01  9.15767E-02
   1.19513E-01  9.94101E-02  3.00533E-02  9.58483E-02 -1.50631E-01  2.25432E-01 -5.36698E-02 -1.81715E-01  1.48942E-01  1.62629E-01
  -1.65080E-01  9.57208E-02 -2.15535E-01 -7.13712E-02  2.81775E-01 -1.15778E-01  2.01610E-01 -1.64950E-01 -2.17393E-01 -1.61083E-01
   1.20237E-01  1.62993E-01  2.39218E-01  6.07526E-02 -3.02930E-02  3.30457E-01  1.44848E-01  2.09775E-01 -7.49145E-02  1.25008E-01
   1.82723E-01  5.48241E-02  5.97479E-02  1.29706E-01 -3.28895E-01  5.13294E-02  1.95221E-01 -3.91884E-01  2.39198E-01  2.87828E-02
  -2.20436E-01 -1.59338E-01  1.97767E-01  1.50681E-01  3.76246E-01  1.39926E-01 -5.58749E-02  4.26032E-01  4.76216E-02  3.94103E-02
  -5.63894E-02  5.95583E-02 -5.48535E-02  1.13689E-01
 NY points of the fit to the data follow
   2.96827E-02  1.67043E-02  3.36504E-03 -1.59326E-02 -2.69151E-02 -2.91699E-02 -2.23473E-02  1.78891E-02 -6.64859E-03  3.88247E-02
   1.52089E-01  1.62411E-01  3.87973E-01  5.93467E-01  4.60769E-01  3.74730E-01  5.08638E-01  4.53845E-01  2.71146E-01  1.37185E-01
   7.67429E-02  6.63548E-02  2.87263E-02 -7.87347E-03 -4.66125E-02 -7.48499E-02 -9.56425E-02 -1.16805E-01 -1.30628E-01 -1.40369E-01
  -1.51942E-01 -1.66834E-01 -1.79689E-01 -1.96953E-01 -2.26504E-01 -2.59440E-01 -2.72096E-01 -3.11142E-01 -2.78443E-01 -2.42945E-01
  -1.67346E-01  4.55344E-02  1.65855E-01  2.75278E-01  2.90839E-01  3.22912E-01  2.94484E-01  2.42987E-01  1.76877E-01  1.14478E-01
   1.07754E-01  5.48886E-02  1.82308E-02 -1.72955E-02 -5.61814E-02 -9.71332E-02 -1.51188E-01 -2.04242E-01 -2.14969E-01 -2.73296E-01
  -3.20505E-01 -2.56494E-01 -4.52555E-01 -3.33199E-01 -9.83259E-02 -3.60257E-01 -4.28617E-02  2.74678E-01  1.98906E-01  3.33689E-01
   3.87117E-01  3.76568E-01  2.86337E-01  1.61863E-01  8.94394E-02  1.56191E-02 -4.90916E-02 -2.10076E-01 -2.80709E-01 -3.65358E-01
  -5.70983E-01 -3.16204E-01 -1.98833E-02  4.65174E-02  2.48163E-01  4.05666E-01  4.65073E-01  4.17282E-01  3.33930E-01  3.06549E-01
   2.68592E-01  2.43887E-01  2.18427E-01  1.85493E-01  1.38199E-01  1.03821E-01  3.95523E-02 -4.66654E-02 -9.66701E-02 -1.83515E-01
  -1.40779E-01 -6.03618E-02  6.44516E-02  1.91530E-01  2.37837E-01  2.59179E-01  2.46449E-01  2.46022E-01  2.49050E-01  2.53412E-01
   2.57165E-01  2.59138E-01  2.59648E-01  2.57777E-01  2.56910E-01  2.57190E-01  2.57520E-01  2.47825E-01  2.56446E-01  2.40349E-01
   1.79867E-01  2.17393E-01  8.69762E-02 -5.05754E-02  5.74768E-02 -1.90572E-01 -2.23303E-01 -1.32761E-01 -3.01507E-01 -2.74107E-01
  -4.42886E-01 -3.56082E-01 -2.74604E-01 -2.98823E-01 -2.41385E-01 -4.83054E-01 -8.13472E-01 -1.00037E+00 -7.75749E-01 -4.20261E-01
  -2.12542E-01 -1.18104E-01 -8.07050E-02 -3.31075E-02  1.00803E-03  3.07544E-02  5.78347E-02  7.96104E-02  1.00765E-01  1.19269E-01
   1.35446E-01  1.53204E-01  1.70317E-01  1.88401E-01  2.07039E-01  2.28585E-01  2.53050E-01  2.80115E-01  3.12832E-01  3.50612E-01
   3.99813E-01  4.75332E-01  5.53310E-01  5.24299E-01  7.85319E-01  7.46332E-01  6.28797E-01  8.39163E-01 -1.68204E-01 -1.03240E+00
  -1.09868E+00 -8.24265E-01 -5.26919E-01 -4.94901E-01 -4.52073E-01 -4.24072E-01 -3.84253E-01 -3.37832E-01 -3.11549E-01 -2.92731E-01
  -2.92001E-01 -2.78180E-01 -2.40734E-01 -2.35458E-01 -2.22341E-01 -2.23976E-01 -2.21698E-01 -2.15410E-01 -2.02848E-01 -1.91444E-01
  -1.88712E-01 -1.79027E-01 -1.68280E-01 -1.56472E-01 -1.46093E-01 -1.36096E-01 -1.27832E-01 -1.18307E-01 -1.08469E-01 -1.00007E-01
  -9.02664E-02 -7.93066E-02 -6.76754E-02 -5.33970E-02 -4.82954E-02 -5.85468E-02 -6.35480E-02 -5.92913E-02 -4.07502E-02 -3.13309E-02
  -5.57673E-02 -7.86549E-02 -8.07123E-02 -7.53370E-02 -6.64563E-02 -5.47314E-02 -4.78008E-02 -3.14387E-02 -1.57421E-02 -2.42277E-02
  -2.29688E-02 -1.87743E-02  7.83820E-03  6.69381E-02  7.82632E-02  1.65171E-01  2.62626E-01  2.61222E-01  2.41627E-01  1.74492E-01
   2.58768E-01  4.15856E-01  3.19382E-01  1.44372E-01  2.26283E-02 -2.89089E-02 -3.75225E-02 -5.86473E-02 -7.04045E-02 -8.14337E-02
  -9.22113E-02 -1.02500E-01 -1.11558E-01 -1.14341E-01 -1.22458E-01 -1.22336E-01 -1.30049E-01 -1.37788E-01 -1.34712E-01 -1.42496E-01
  -1.36584E-01 -1.40609E-01 -1.17842E-01 -1.58268E-01 -1.54783E-01 -1.03634E-01 -1.71689E-01 -8.27326E-03  6.88781E-02  5.53013E-03
   1.02492E-01  1.11405E-01  1.86808E-01  1.31893E-01  8.60724E-02  1.57163E-01  1.26386E-01  1.56040E-01  1.27986E-01  1.39527E-01
   1.49257E-01  1.19885E-01  9.74803E-02  4.37529E-02  8.69786E-03 -3.39960E-02 -8.29260E-02 -1.12954E-01 -1.78785E-01 -2.33966E-01
  -2.59450E-01 -3.62861E-01 -3.25746E-01 -2.58121E-01 -1.70653E-01  7.70358E-02  2.11227E-01  3.29666E-01  4.09534E-01  3.66677E-01
   3.23839E-01  2.60396E-01  2.10872E-01  2.03371E-01  1.79262E-01  1.79932E-01  2.03191E-01  2.09828E-01  2.24251E-01  2.26587E-01
   2.18820E-01  2.12417E-01  2.01155E-01  1.92260E-01  1.82263E-01  1.73553E-01  1.57955E-01  1.33932E-01  1.23942E-01  7.66559E-02
   4.97022E-02  3.59876E-02 -1.79009E-02  6.19590E-03 -1.58223E-02 -2.42271E-02 -4.03107E-02 -1.03686E-01 -1.51609E-01 -2.27366E-01
  -2.43766E-01 -2.93321E-01 -2.83782E-01 -2.69785E-01 -2.32322E-01 -1.62094E-01 -7.86171E-02  1.10097E-02  6.77130E-02  1.07439E-01
   6.06700E-02  3.62130E-02 -5.01321E-02 -8.38697E-02 -1.59465E-01 -2.47599E-01 -2.23226E-01 -5.20273E-01 -4.98600E-01 -2.89810E-01
  -5.29234E-01 -5.96336E-01 -9.81905E-01 -2.02091E+00 -1.85015E+00 -1.02317E+00 -4.22354E-01 -1.64074E-01 -1.89827E-01 -1.18078E-01
  -7.74125E-02 -4.82893E-02 -2.58681E-02 -8.03252E-03  6.69857E-03  1.73301E-02  2.64449E-02  3.73310E-02  3.23118E-02  3.53957E-02
   2.23274E-02 -3.75535E-03 -1.30221E-02 -4.63580E-02 -5.61883E-02 -6.40908E-02 -6.30630E-02 -4.70373E-02 -3.57183E-02 -1.85444E-02
  -6.70588E-03  5.29251E-03  1.67177E-02  2.86909E-02  3.60016E-02  4.07786E-02  4.63059E-02  5.10753E-02  5.71790E-02  6.19610E-02
   6.56741E-02  6.82229E-02  7.17846E-02  7.60131E-02  8.00997E-02  8.28179E-02  8.55415E-02  8.66482E-02  8.83295E-02  9.29739E-02
   9.63248E-02  1.00255E-01  1.02766E-01  1.03682E-01  1.02603E-01  1.00484E-01  9.86457E-02  9.65860E-02  9.42220E-02  9.13614E-02
   8.70322E-02  8.14641E-02  7.60729E-02  7.07462E-02  6.37473E-02  5.73849E-02  5.24328E-02  4.84453E-02  4.26980E-02  3.72716E-02
   3.37720E-02  2.87095E-02  2.60617E-02  2.37962E-02  2.01928E-02  1.75868E-02  1.47706E-02  1.16894E-02  9.97377E-03  7.81135E-03
   6.93643E-03  6.73742E-03  5.10091E-03  5.79258E-03  8.40100E-03  1.00638E-02  1.31345E-02  1.74047E-02  2.21575E-02  3.12627E-02
   3.43402E-02  4.85782E-02  5.61881E-02  6.19369E-02  9.87614E-02  1.07132E-01  1.12726E-01  1.08591E-01  8.90793E-02  8.09073E-02
   8.00602E-02  9.09425E-02  1.02171E-01  1.11637E-01  1.22494E-01  1.32223E-01  1.42318E-01  1.52658E-01  1.59870E-01  1.66068E-01
   1.68505E-01  1.69672E-01  1.70467E-01  1.69400E-01  1.68387E-01  1.65712E-01  1.60609E-01  1.54093E-01  1.44458E-01  1.34085E-01
   1.25030E-01  1.17458E-01  1.08598E-01  1.00803E-01  9.17610E-02  8.31831E-02  7.70743E-02  7.10738E-02  6.52425E-02  5.93193E-02
   5.52913E-02  5.14201E-02  4.78936E-02  4.56460E-02  4.33830E-02  4.35038E-02  4.70044E-02  4.88643E-02  5.09564E-02  5.51525E-02
   5.87680E-02  6.36955E-02  6.88536E-02  7.40514E-02  7.78370E-02  8.02655E-02  8.28156E-02  8.42975E-02  8.59830E-02  8.79769E-02
   9.13909E-02  9.24830E-02  9.19734E-02  9.10031E-02  8.83054E-02  8.74754E-02  8.42445E-02  8.07445E-02  7.79199E-02  7.53479E-02
   7.34615E-02  6.98583E-02  6.68958E-02  6.42018E-02  6.03399E-02  5.73251E-02  5.42478E-02  5.00094E-02  4.76977E-02  4.61705E-02
   4.37767E-02  4.03183E-02  3.62256E-02  3.27257E-02  2.70243E-02  1.92681E-02  1.23867E-02  4.58655E-03 -3.11698E-03 -1.29886E-02
  -2.63392E-02 -4.12539E-02 -5.78659E-02 -7.24008E-02 -8.66723E-02 -1.00962E-01 -1.14932E-01 -1.27255E-01 -1.37336E-01 -1.46445E-01
  -1.54570E-01 -1.59193E-01 -1.58945E-01 -1.57553E-01 -1.57113E-01 -1.53788E-01 -1.46965E-01 -1.40473E-01 -1.34597E-01 -1.28861E-01
  -1.23039E-01 -1.18050E-01 -1.10286E-01 -1.01541E-01 -9.33370E-02 -8.45619E-02 -7.46704E-02 -6.41463E-02 -5.60026E-02 -4.68942E-02
  -3.73255E-02 -3.05203E-02 -2.19186E-02 -1.29237E-02 -6.67772E-03 -5.19030E-04  4.31057E-03  1.05588E-02  1.85175E-02  2.10666E-02
   2.28362E-02  2.85186E-02  3.14899E-02  3.41351E-02  3.67913E-02  3.75687E-02  3.94896E-02  4.13413E-02  4.31836E-02  4.26423E-02
   4.29078E-02  4.64047E-02  4.84052E-02  5.03406E-02  5.25155E-02  5.44979E-02  5.46122E-02  5.38795E-02  5.50840E-02  5.47665E-02
   5.41628E-02  5.50339E-02  5.45598E-02  5.43047E-02  5.44253E-02  5.41940E-02  5.52490E-02  5.60066E-02  5.58265E-02  5.70820E-02
   5.60353E-02  5.14336E-02  5.07071E-02  5.24283E-02  5.36669E-02  5.28969E-02  5.12679E-02  5.23776E-02  5.17768E-02  5.04129E-02
   4.93461E-02  5.13178E-02  5.38631E-02  5.38771E-02  5.42369E-02  5.49124E-02  5.59055E-02  5.75426E-02  5.83892E-02  5.85096E-02
   5.91860E-02  5.98560E-02  5.94594E-02  5.69337E-02  5.70384E-02  5.79297E-02  5.89398E-02  6.05945E-02  6.10567E-02  6.28173E-02
   6.26568E-02  6.25346E-02  6.57185E-02  6.77142E-02  6.93195E-02  6.99499E-02  6.75298E-02  6.63784E-02  6.65233E-02  6.73693E-02
   6.94829E-02  6.97587E-02  6.78848E-02  6.79854E-02  6.80805E-02  6.83331E-02  6.97848E-02  6.96259E-02  6.86678E-02  6.98623E-02
   7.28615E-02  7.26122E-02  7.28009E-02  7.36047E-02  7.39560E-02  7.65093E-02  7.68840E-02  7.87994E-02  8.25376E-02  8.58047E-02
   8.90115E-02  8.93766E-02  9.10352E-02  9.36472E-02
 NY background values follow
     1.154E-02    1.164E-02    1.174E-02    1.184E-02    1.193E-02    1.203E-02    1.213E-02    1.223E-02    1.232E-02    1.242E-02
     1.252E-02    1.262E-02    1.271E-02    1.281E-02    1.291E-02    1.301E-02    1.311E-02    1.320E-02    1.330E-02    1.340E-02
     1.349E-02    1.359E-02    1.369E-02    1.379E-02    1.388E-02    1.398E-02    1.408E-02    1.417E-02    1.427E-02    1.437E-02
     1.446E-02    1.456E-02    1.466E-02    1.475E-02    1.485E-02    1.495E-02    1.504E-02    1.514E-02    1.523E-02    1.533E-02
     1.543E-02    1.552E-02    1.562E-02    1.571E-02    1.581E-02    1.590E-02    1.600E-02    1.609E-02    1.619E-02    1.628E-02
     1.637E-02    1.647E-02    1.656E-02    1.666E-02    1.675E-02    1.684E-02    1.694E-02    1.703E-02    1.712E-02    1.722E-02
     1.731E-02    1.740E-02    1.749E-02    1.758E-02    1.768E-02    1.777E-02    1.786E-02    1.795E-02    1.804E-02    1.813E-02
