 LCModel (Version 6.3-1N) Copyright: S.W. Provencher.          Ref.: Magn. Reson. Med. 30:672-679 (1993).                
 Slice_N1@21_14  02-Jun-2023 14:37:22
 27 lines in following concentration table = NCONC+1
    Conc.  %SD /Cr+PCr  Metabolite                                         
 1.77E-06  18% 2.7E-04 Mac                                                 
 4.98E-02  27%   7.706 Cr                                                  
 1.90E-03 713%   0.294 PCr                                                 
 7.04E-02  13%  10.894 Ins                                                 
 5.19E-02  13%   8.030 NAA                                                 
 5.77E-02  14%   8.927 Tau                                                 
 1.85E-02  13%   2.867 PCho                                                
    0.000 999%   0.000 GPC                                                 
 3.01E-02  31%   4.663 Glu                                                 
 2.60E-02  29%   4.023 Gln                                                 
 7.87E-04 950%   0.122 Ala                                                 
 2.63E-02  48%   4.074 Asc                                                 
 7.85E-03  71%   1.215 Asp                                                 
 6.65E-03  47%   1.029 GABA                                                
 5.81E-03  60%   0.899 Glc                                                 
 1.28E-02  35%   1.987 GSH                                                 
 1.91E-03 405%   0.295 Lac                                                 
 9.86E-03  53%   1.526 NAAG                                                
    0.000 999%   0.000 PE                                                  
 1.85E-02  13%   2.867 GPC+PCho                                            
 6.17E-02  12%   9.556 NAA+NAAG                                            
 5.61E-02  21%   8.686 Glu+Gln                                             
 5.17E-02  13%   8.000 Cr+PCr                                              
 6.17E-02  12%   9.556 NAA+NAAG                                            
 5.17E-02  13%   8.000 Cr+PCr                                              
 5.61E-02  21%   8.686 Glu+Gln                                             
   6 lines in following misc. output table
  FWHM = 0.035 ppm    S/N =   2                                            
  Data shift = 0.023 ppm                                                   
  Ph:   9 deg      -0.5 deg/ppm                                            
  alphaB,S = 8.5E+00,   5.0E+01                                            
   18 spline knots.   Ns = 8(1)                                            
   2 inflections.     1 extrema                                            
  654 points on ppm-axis = NY
      4.000000     3.994181     3.988363     3.982544     3.976726     3.970907     3.965088     3.959270     3.953451     3.947633
      3.941814     3.935995     3.930177     3.924358     3.918540     3.912721     3.906902     3.901084     3.895265     3.889446
      3.883628     3.877809     3.871991     3.866172     3.860353     3.854535     3.848716     3.842898     3.837079     3.831260
      3.825442     3.819623     3.813805     3.807986     3.802167     3.796349     3.790530     3.784712     3.778893     3.773074
      3.767256     3.761437     3.755619     3.749800     3.743981     3.738163     3.732344     3.726526     3.720707     3.714888
      3.709070     3.703251     3.697433     3.691614     3.685795     3.679977     3.674158     3.668339     3.662521     3.656702
      3.650884     3.645065     3.639246     3.633428     3.627609     3.621791     3.615972     3.610153     3.604335     3.598516
      3.592698     3.586879     3.581060     3.575242     3.569423     3.563605     3.557786     3.551967     3.546149     3.540330
      3.534512     3.528693     3.522874     3.517056     3.511237     3.505419     3.499600     3.493781     3.487963     3.482144
      3.476326     3.470507     3.464688     3.458870     3.453051     3.447232     3.441414     3.435595     3.429777     3.423958
      3.418139     3.412321     3.406502     3.400684     3.394865     3.389046     3.383228     3.377409     3.371591     3.365772
      3.359953     3.354135     3.348316     3.342498     3.336679     3.330860     3.325042     3.319223     3.313405     3.307586
      3.301767     3.295949     3.290130     3.284312     3.278493     3.272674     3.266856     3.261037     3.255219     3.249400
      3.243581     3.237763     3.231944     3.226125     3.220307     3.214488     3.208670     3.202851     3.197032     3.191214
      3.185395     3.179577     3.173758     3.167939     3.162121     3.156302     3.150484     3.144665     3.138846     3.133028
      3.127209     3.121391     3.115572     3.109753     3.103935     3.098116     3.092298     3.086479     3.080660     3.074842
      3.069023     3.063205     3.057386     3.051567     3.045749     3.039930     3.034111     3.028293     3.022474     3.016656
      3.010837     3.005018     2.999200     2.993381     2.987563     2.981744     2.975925     2.970107     2.964288     2.958470
      2.952651     2.946832     2.941014     2.935195     2.929377     2.923558     2.917739     2.911921     2.906102     2.900284
      2.894465     2.888646     2.882828     2.877009     2.871191     2.865372     2.859553     2.853735     2.847916     2.842098
      2.836279     2.830460     2.824642     2.818823     2.813004     2.807186     2.801367     2.795549     2.789730     2.783911
      2.778093     2.772274     2.766456     2.760637     2.754818     2.749000     2.743181     2.737363     2.731544     2.725725
      2.719907     2.714088     2.708270     2.702451     2.696632     2.690814     2.684995     2.679177     2.673358     2.667539
      2.661721     2.655902     2.650084     2.644265     2.638446     2.632628     2.626809     2.620991     2.615172     2.609353
      2.603535     2.597716     2.591897     2.586079     2.580260     2.574442     2.568623     2.562804     2.556986     2.551167
      2.545349     2.539530     2.533711     2.527893     2.522074     2.516256     2.510437     2.504618     2.498800     2.492981
      2.487163     2.481344     2.475525     2.469707     2.463888     2.458070     2.452251     2.446432     2.440614     2.434795
      2.428977     2.423158     2.417339     2.411521     2.405702     2.399884     2.394065     2.388246     2.382428     2.376609
      2.370790     2.364972     2.359153     2.353335     2.347516     2.341697     2.335879     2.330060     2.324242     2.318423
      2.312604     2.306786     2.300967     2.295149     2.289330     2.283511     2.277693     2.271874     2.266056     2.260237
      2.254418     2.248600     2.242781     2.236963     2.231144     2.225325     2.219507     2.213688     2.207870     2.202051
      2.196232     2.190414     2.184595     2.178777     2.172958     2.167139     2.161321     2.155502     2.149683     2.143865
      2.138046     2.132228     2.126409     2.120590     2.114772     2.108953     2.103135     2.097316     2.091497     2.085679
      2.079860     2.074042     2.068223     2.062404     2.056586     2.050767     2.044949     2.039130     2.033311     2.027493
      2.021674     2.015856     2.010037     2.004218     1.998400     1.992581     1.986763     1.980944     1.975126     1.969307
      1.963489     1.957670     1.951852     1.946033     1.940215     1.934397     1.928578     1.922760     1.916941     1.911123
      1.905304     1.899486     1.893667     1.887849     1.882030     1.876212     1.870393     1.864575     1.858756     1.852938
      1.847119     1.841301     1.835482     1.829664     1.823845     1.818027     1.812208     1.806390     1.800571     1.794753
      1.788934     1.783116     1.777297     1.771479     1.765660     1.759842     1.754023     1.748205     1.742386     1.736568
      1.730749     1.724931     1.719113     1.713294     1.707476     1.701657     1.695839     1.690020     1.684202     1.678383
      1.672565     1.666746     1.660928     1.655109     1.649291     1.643472     1.637654     1.631835     1.626017     1.620198
      1.614380     1.608561     1.602743     1.596924     1.591106     1.585287     1.579469     1.573650     1.567832     1.562013
      1.556195     1.550376     1.544558     1.538739     1.532921     1.527102     1.521284     1.515465     1.509647     1.503829
      1.498010     1.492192     1.486373     1.480555     1.474736     1.468918     1.463099     1.457281     1.451462     1.445644
      1.439825     1.434007     1.428188     1.422370     1.416551     1.410733     1.404914     1.399096     1.393277     1.387459
      1.381640     1.375822     1.370003     1.364185     1.358366     1.352548     1.346729     1.340911     1.335092     1.329274
      1.323455     1.317637     1.311818     1.306000     1.300182     1.294363     1.288545     1.282726     1.276908     1.271089
      1.265271     1.259452     1.253634     1.247815     1.241997     1.236178     1.230360     1.224541     1.218723     1.212904
      1.207086     1.201267     1.195449     1.189630     1.183812     1.177993     1.172175     1.166356     1.160538     1.154719
      1.148901     1.143082     1.137264     1.131445     1.125627     1.119808     1.113990     1.108171     1.102353     1.096534
      1.090716     1.084898     1.079079     1.073261     1.067442     1.061624     1.055805     1.049987     1.044168     1.038350
      1.032531     1.026713     1.020894     1.015076     1.009257     1.003439     0.997620     0.991802     0.985983     0.980165
      0.974346     0.968528     0.962709     0.956891     0.951072     0.945254     0.939435     0.933617     0.927798     0.921980
      0.916161     0.910343     0.904524     0.898706     0.892887     0.887069     0.881251     0.875432     0.869614     0.863795
      0.857977     0.852158     0.846340     0.840521     0.834703     0.828884     0.823066     0.817247     0.811429     0.805610
      0.799792     0.793973     0.788155     0.782336     0.776518     0.770699     0.764881     0.759062     0.753244     0.747425
      0.741607     0.735788     0.729970     0.724151     0.718333     0.712514     0.706696     0.700877     0.695059     0.689240
      0.683422     0.677603     0.671785     0.665967     0.660148     0.654330     0.648511     0.642693     0.636874     0.631056
      0.625237     0.619419     0.613600     0.607782     0.601963     0.596145     0.590326     0.584508     0.578689     0.572871
      0.567052     0.561234     0.555415     0.549597     0.543778     0.537960     0.532141     0.526323     0.520504     0.514686
      0.508867     0.503049     0.497230     0.491412     0.485593     0.479775     0.473956     0.468138     0.462319     0.456501
      0.450682     0.444864     0.439045     0.433227     0.427408     0.421590     0.415771     0.409953     0.404134     0.398316
      0.392497     0.386679     0.380860     0.375042     0.369223     0.363405     0.357586     0.351767     0.345949     0.340130
      0.334312     0.328493     0.322675     0.316856     0.311038     0.305219     0.299401     0.293582     0.287764     0.281945
      0.276127     0.270308     0.264490     0.258671     0.252853     0.247034     0.241216     0.235397     0.229579     0.223760
      0.217942     0.212123     0.206305     0.200486
 NY phased data points follow
   6.96160E-02  2.97156E-02  2.08779E-02  1.77690E-01 -1.15074E-01 -1.22765E-02 -1.90325E-01 -4.39699E-01 -2.23539E-01 -2.39552E-01
   6.07771E-02 -7.92438E-02  1.02416E-01  4.28028E-01  8.70211E-02  4.87638E-02  4.15542E-01  1.62272E-01  4.64272E-02  2.10719E-01
   1.23548E-01  6.16735E-01  8.30355E-02  2.12747E-01  5.82205E-02 -3.82594E-01 -8.23187E-02 -1.42748E-01 -6.21865E-02 -1.46208E-01
   9.07774E-02 -2.74560E-01  1.04097E-03 -1.87194E-01 -1.15663E-01  1.21920E-01 -2.47403E-01 -9.68820E-02 -4.27162E-01 -1.71891E-01
  -2.58335E-01  6.68093E-02  8.39440E-02  6.21804E-02  3.00433E-01  6.56517E-02  3.13105E-01  1.64640E-01  1.27420E-01  2.12046E-01
   7.19320E-03 -1.06201E-01  2.30927E-01  1.60804E-01  3.69493E-01  3.02091E-01 -1.06994E-01  1.18614E-01 -3.99607E-01 -2.43442E-01
  -2.63693E-01 -4.05871E-01  5.62568E-02 -1.00456E-01 -1.59809E-02 -2.89640E-01 -5.00863E-03  2.06969E-01 -1.47881E-01  2.25163E-01
   1.65045E-01 -6.38233E-02  1.43735E-02  2.46762E-01  2.61620E-01  1.18577E-01 -5.21181E-02 -5.07576E-02 -3.87181E-01 -5.22886E-01
  -2.91625E-01 -2.74958E-01  1.07005E-01 -1.45955E-01 -3.47460E-01 -3.04468E-03  3.30776E-01  1.88433E-01  4.15476E-01  3.79117E-01
  -1.22498E-01  3.29904E-01  3.11264E-01  1.02834E-01  1.80595E-01  1.95422E-01 -1.28924E-01 -4.11805E-02  1.02463E-01 -7.30491E-02
  -1.20071E-01 -3.89047E-01 -1.45920E-01  2.05759E-01 -9.40527E-02 -1.72319E-01  1.97814E-01  2.38783E-01  3.52652E-01  2.14155E-01
   3.11190E-01  4.56695E-01  2.88075E-01  3.73498E-01  4.49876E-01  3.40976E-01  1.68484E-01  4.34130E-01  2.25520E-01  6.17150E-02
   7.86543E-02  3.30524E-01  2.79040E-01 -1.39368E-01  1.28882E-02 -2.50443E-01 -8.64112E-02 -4.61381E-02 -2.53145E-01 -1.93205E-01
  -2.20908E-01 -3.05327E-01 -4.68054E-01 -2.98591E-01 -5.49154E-01 -5.00435E-01 -7.07638E-01 -1.18527E+00 -6.90560E-01 -5.22069E-01
  -6.79767E-01 -5.57980E-01 -2.96717E-01 -3.19850E-01 -3.21845E-01 -6.56250E-03  2.78877E-01  6.18893E-02  3.97667E-02  4.60875E-02
  -1.55872E-01 -3.07500E-02 -3.82040E-01  1.10126E-01  3.40191E-01  1.46772E-01  1.99706E-01 -4.69408E-02  3.56995E-01  5.60726E-01
   3.61906E-01  1.97909E-01  3.78605E-01  3.86885E-01  5.46175E-01  6.74452E-01  7.90915E-01  9.90778E-01  4.09230E-01 -1.79351E-01
  -2.98284E-01 -3.52705E-01 -4.43834E-01 -3.92301E-01 -3.60117E-01  1.50724E-02 -3.32726E-01 -5.84871E-01 -4.66287E-01 -5.85887E-01
  -2.68758E-01 -2.96509E-01 -1.60072E-01  5.05035E-03 -4.90008E-02 -3.43472E-01 -4.65249E-01  1.09718E-01 -5.91439E-02 -5.04248E-01
  -3.06487E-01 -3.98609E-01  8.89918E-02  3.68637E-02 -3.14080E-01  3.20848E-02 -1.65673E-01  1.28752E-02 -2.76583E-01 -3.21470E-01
   1.14972E-01  2.48536E-02 -3.64261E-02 -1.36830E-02 -2.29176E-01 -2.53020E-01 -1.79124E-01 -8.04684E-02  3.29276E-01  7.79823E-02
   2.87976E-02 -4.68676E-02  1.12538E-01  9.11826E-02 -1.74794E-01 -1.04496E-01 -7.09831E-02  3.90378E-02 -3.68158E-01  5.59788E-02
   2.52848E-01 -1.99138E-02  2.00214E-01  2.46792E-01 -9.42378E-03  1.46775E-01  4.99186E-01  1.91848E-01  2.39931E-01  1.44735E-01
   1.69926E-01  2.68296E-01  7.02843E-02  4.00573E-01  2.89652E-01  1.26655E-01  2.93666E-01 -2.02055E-02 -4.13712E-02  1.15402E-01
   6.79989E-02 -3.04824E-02 -1.48781E-02  1.42614E-01 -8.71777E-02  4.07152E-04 -3.69118E-02 -2.27978E-01 -4.46098E-02  1.41225E-01
   2.40033E-01  1.50484E-01  9.42215E-02 -2.17261E-01  7.94607E-02  3.02422E-01 -1.21649E-01 -5.58950E-02  7.50348E-02  8.58475E-02
  -9.35589E-02  1.36794E-01  2.30586E-01  1.13751E-01  5.94072E-02 -2.43661E-01 -9.81214E-02  1.06891E-01  2.62750E-01  1.22761E-01
   1.75322E-01  3.44189E-01  1.93896E-01  1.80941E-01  8.01098E-02  1.22913E-01  1.58721E-01  2.26641E-01  2.46380E-01 -1.83379E-01
  -1.57309E-01 -1.17842E-02 -2.79497E-01 -3.97932E-02 -9.26161E-02 -1.07574E-01 -2.01799E-02  3.28460E-02  1.26029E-01  1.77132E-01
   4.67945E-01  1.36785E-01  9.41089E-02 -2.12284E-02 -5.99431E-02  5.62484E-02  2.55739E-01  2.10587E-01 -1.91430E-01 -4.42613E-02
  -1.12100E-01  1.58647E-01  1.01753E-01  2.54605E-01  4.93658E-01  1.75710E-01  2.10664E-03  1.65048E-01  4.52656E-01  3.72365E-01
   1.61272E-01 -1.36566E-01  2.08083E-01  1.18236E-01 -2.09984E-01  1.28808E-02  1.51282E-01 -5.98812E-02 -2.76046E-01 -1.64753E-01
  -1.27477E-01 -2.70068E-01 -4.60721E-01 -2.75101E-01 -2.25776E-01  8.26867E-03  5.40741E-02 -1.63595E-01 -2.39163E-01 -1.04905E-01
   1.74141E-01  8.96705E-02  1.69593E-01 -2.27233E-02 -1.05765E-01 -8.74617E-03 -2.76876E-01 -2.24843E-01 -2.01526E-01 -4.83146E-01
  -2.90895E-01 -1.54568E-01 -2.37077E-01 -8.98871E-01 -1.12756E+00 -4.08833E-01 -6.88453E-01 -2.23157E-01 -7.99018E-02 -2.68588E-01
   1.35018E-01  1.46160E-02  3.69657E-01  1.06501E-01  2.48052E-01  1.21635E-01 -1.58441E-01  2.55992E-01 -2.16241E-01  1.72927E-01
   3.37343E-01  1.09342E-01  2.63427E-01 -2.26080E-01 -7.26859E-02  1.36297E-01 -1.57592E-01 -1.19554E-01 -1.61054E-01  1.25081E-01
   2.42635E-01 -2.28553E-01  1.63032E-01  1.45819E-01 -2.90565E-01  1.99190E-01  1.61609E-01 -8.49454E-02  1.30616E-01  2.21542E-01
   7.57545E-02  1.42199E-01  1.68590E-01 -8.31170E-02 -6.96221E-02  8.03199E-02  3.34949E-01  1.65899E-01  2.77870E-01  2.67262E-01
  -1.59219E-01  1.88056E-01  2.03027E-01  1.13990E-01  1.18099E-01  1.89400E-01  4.06156E-01  3.53621E-01  6.52255E-02  7.94270E-02
   5.97027E-02 -2.45010E-01 -7.25425E-02  4.29312E-02  1.11965E-01 -3.33328E-01 -4.11113E-01 -3.68316E-02  1.10732E-01 -1.26711E-01
  -3.29459E-01 -9.53399E-03 -1.27468E-01  7.76652E-02  2.08977E-02  7.31141E-02  4.79180E-03 -1.66472E-01 -9.95589E-02 -8.75341E-02
   1.72083E-02 -3.33848E-01 -1.91345E-01 -1.09065E-01 -1.35796E-01  3.20305E-02  1.88003E-02 -2.42985E-01  6.34761E-02  1.34237E-01
  -2.91100E-01 -1.93751E-01 -1.36329E-01  3.91473E-02  1.06611E-02 -1.84859E-01  2.57535E-02  2.26576E-01 -5.25723E-02  3.83401E-01
   1.45379E-01 -1.17961E-01  2.44748E-01  1.02983E-01  2.18996E-01  1.29740E-03  2.28966E-01  2.60654E-01  1.66035E-01  1.80925E-01
   8.66554E-02  2.59496E-01  2.78571E-01 -1.05086E-01 -6.73460E-02  1.69267E-01 -3.17249E-01 -3.10238E-02  2.28532E-01 -1.85882E-01
   4.00724E-02  3.84985E-01  1.47378E-01  3.76412E-01  2.91219E-01  1.75883E-01  4.55473E-02 -1.30807E-01 -1.17398E-01 -3.72441E-01
   2.19932E-01 -6.08212E-02 -1.74450E-01 -1.27610E-02 -4.54907E-02 -1.26790E-01 -6.74084E-01 -1.84554E-01 -1.18577E-01 -4.30619E-01
  -2.43410E-01 -1.82937E-01  7.95020E-02  9.32564E-02 -4.45865E-01  1.36352E-01  1.89920E-01 -6.26602E-01  2.81648E-02  3.39091E-01
  -1.12310E-01  2.15337E-01  1.37192E-01 -1.79743E-01  1.33529E-01  4.55450E-02  1.04172E-01  4.13081E-01  1.84601E-01 -1.87628E-01
   1.19239E-01  1.69732E-01  1.35759E-01  8.32864E-02 -1.34465E-02  2.48406E-01  2.60886E-02  4.82921E-02 -2.87465E-02  1.45253E-01
   1.24653E-01  9.17215E-02  1.27190E-01 -1.90849E-01  1.24305E-01  1.08545E-01 -4.64187E-02 -1.29075E-02 -4.13478E-02 -1.00563E-01
   7.30480E-02  8.81830E-02 -1.46394E-01 -2.47321E-01 -2.30047E-01  1.62585E-02 -1.04163E-01 -2.87711E-01 -1.65472E-01 -3.67880E-01
  -3.33133E-01 -1.04094E-01 -3.66242E-01 -2.27464E-01 -2.02533E-03 -4.72301E-02 -2.64039E-01 -3.47216E-01 -1.17759E-01 -3.91194E-02
  -2.13788E-01 -2.04721E-01  3.41497E-02 -1.99119E-02 -4.74345E-03 -2.54021E-02  1.07151E-01  1.61833E-01 -5.91716E-02 -1.26651E-01
   1.21572E-01  5.33372E-02 -1.22540E-01  1.78356E-01  1.18664E-01  3.93892E-01  4.01562E-01  9.77993E-02  1.33795E-01  3.83005E-02
  -4.23558E-04 -7.19083E-02  5.52860E-02 -1.79118E-02 -2.29645E-01 -1.23485E-01  1.31352E-01  1.59531E-01  9.21100E-02  9.46498E-02
   1.95346E-01  3.02626E-02 -3.53212E-01  1.28801E-01 -1.34055E-01 -2.44800E-01  2.34455E-01 -1.15700E-01  1.59827E-02  7.92120E-02
   1.99838E-01 -5.28229E-02 -1.64856E-02  1.94248E-01 -7.54585E-03  9.92848E-02 -1.60945E-01  1.26816E-01 -6.66774E-02  2.68317E-02
   3.79420E-01  1.58235E-01 -1.35039E-01 -2.54088E-01  1.47578E-01 -7.02851E-02 -3.09046E-02 -1.15217E-02  1.44664E-01 -3.16244E-02
  -1.15942E-01  3.31807E-01  3.45385E-02  1.87896E-01  1.51442E-01  2.33046E-02  6.29860E-02 -8.77607E-02  5.59805E-02  2.70304E-01
   1.11817E-01  1.77782E-02  1.84075E-01  2.08860E-01  1.80562E-01 -1.08818E-01 -4.32684E-02  2.34090E-01  2.75890E-01  4.19737E-01
   3.45361E-01  5.30387E-02  7.70933E-02  1.99867E-01 -3.72945E-02 -1.46913E-01  3.48891E-01  2.82069E-01 -3.72122E-02  1.27265E-01
  -2.34215E-02  2.04250E-02 -2.93927E-02  1.72298E-01  1.53445E-01  3.39691E-02  1.77155E-01  9.12491E-02  2.85783E-01 -9.09340E-02
   1.48420E-02  1.25770E-01  8.33771E-02  2.29702E-01  1.35896E-01  2.69573E-02 -1.50151E-01 -1.00778E-01 -1.29678E-01  4.08046E-01
   7.10783E-02 -1.19672E-01  7.29707E-02 -1.32955E-01
 NY points of the fit to the data follow
   9.19901E-02  9.64812E-02  9.13919E-02  7.96506E-02  6.48140E-02  5.05212E-02  3.80009E-02  2.44746E-02  1.23887E-02  5.62391E-03
   7.01871E-03  2.22637E-02  5.67425E-02  1.13970E-01  1.97461E-01  2.99655E-01  3.83887E-01  4.07804E-01  3.73009E-01  3.10645E-01
   2.40627E-01  1.73649E-01  1.13432E-01  5.60102E-02  2.39006E-03 -3.20619E-02 -5.34130E-02 -6.99842E-02 -8.32270E-02 -9.42355E-02
  -1.04072E-01 -1.13707E-01 -1.26009E-01 -1.41546E-01 -1.60878E-01 -1.81947E-01 -2.00097E-01 -2.08779E-01 -1.99009E-01 -1.63021E-01
  -9.99491E-02 -2.53402E-02  4.15012E-02  9.48076E-02  1.37075E-01  1.69706E-01  1.93946E-01  2.07351E-01  2.07252E-01  1.95018E-01
   1.79419E-01  1.57343E-01  1.28438E-01  9.47928E-02  5.60245E-02  1.06801E-02 -3.86673E-02 -8.99226E-02 -1.46139E-01 -1.97218E-01
  -2.37015E-01 -2.61056E-01 -2.63761E-01 -2.43147E-01 -2.04238E-01 -1.48784E-01 -6.75836E-02  3.17759E-02  1.25601E-01  2.06132E-01
   2.66048E-01  2.92023E-01  2.86061E-01  2.59760E-01  2.10318E-01  1.38554E-01  5.57435E-02 -4.27812E-02 -1.46991E-01 -2.35030E-01
  -2.77185E-01 -2.53852E-01 -1.80620E-01 -8.11953E-02  3.69383E-02  1.54566E-01  2.45340E-01  3.04301E-01  3.34126E-01  3.33836E-01
   3.17840E-01  2.98749E-01  2.71885E-01  2.36333E-01  1.97966E-01  1.49471E-01  8.59567E-02  5.74969E-03 -8.48321E-02 -1.69293E-01
  -2.26113E-01 -2.36120E-01 -1.93434E-01 -1.13639E-01 -1.89272E-02  7.20517E-02  1.45904E-01  2.02106E-01  2.39508E-01  2.63684E-01
   2.69866E-01  2.71228E-01  2.65338E-01  2.59871E-01  2.56209E-01  2.53028E-01  2.50303E-01  2.48636E-01  2.43895E-01  2.34249E-01
   2.17685E-01  1.89113E-01  1.50535E-01  1.05957E-01  5.92760E-02  5.76032E-03 -5.08925E-02 -1.03306E-01 -1.58129E-01 -2.22500E-01
  -2.82048E-01 -3.28545E-01 -3.62740E-01 -3.94224E-01 -4.56029E-01 -5.79878E-01 -7.34016E-01 -8.29294E-01 -8.11484E-01 -7.11225E-01
  -5.88399E-01 -4.60940E-01 -3.46619E-01 -2.40678E-01 -1.37065E-01 -5.30467E-02 -8.09017E-03  2.38652E-02  4.90805E-02  6.99497E-02
   8.77502E-02  1.03415E-01  1.17707E-01  1.31054E-01  1.43934E-01  1.56823E-01  1.70026E-01  1.83555E-01  1.97171E-01  2.10640E-01
   2.38287E-01  2.77936E-01  3.31382E-01  3.96381E-01  4.63148E-01  5.14446E-01  5.22776E-01  4.40715E-01  2.34391E-01 -3.90310E-02
  -2.60998E-01 -3.89337E-01 -4.52835E-01 -4.71130E-01 -4.65459E-01 -4.44626E-01 -4.00741E-01 -3.31644E-01 -2.90170E-01 -2.64164E-01
  -2.44890E-01 -2.27128E-01 -2.11605E-01 -1.99119E-01 -1.90232E-01 -1.83893E-01 -1.78072E-01 -1.71709E-01 -1.64762E-01 -1.58478E-01
  -1.51976E-01 -1.44249E-01 -1.35690E-01 -1.26538E-01 -1.17378E-01 -1.08439E-01 -9.96979E-02 -9.09979E-02 -8.22547E-02 -7.37265E-02
  -6.53351E-02 -5.69480E-02 -4.89026E-02 -4.21952E-02 -3.76296E-02 -3.45447E-02 -3.14947E-02 -2.81479E-02 -2.60339E-02 -2.69926E-02
  -3.05893E-02 -3.42993E-02 -3.60885E-02 -3.56638E-02 -3.33518E-02 -2.94767E-02 -2.41541E-02 -1.83590E-02 -1.32657E-02 -9.64970E-03
  -6.18172E-03  6.38414E-05  1.02313E-02  2.47905E-02  4.56034E-02  7.23684E-02  9.86399E-02  1.15991E-01  1.25727E-01  1.36356E-01
   1.49936E-01  1.57998E-01  1.49182E-01  1.22110E-01  8.58012E-02  5.13651E-02  2.18108E-02 -3.89518E-03 -2.66968E-02 -4.62901E-02
  -5.99166E-02 -6.82859E-02 -7.43995E-02 -7.85370E-02 -8.11987E-02 -8.23782E-02 -8.23064E-02 -8.06060E-02 -7.74921E-02 -7.45611E-02
  -7.16353E-02 -6.98069E-02 -7.00217E-02 -7.14477E-02 -7.18726E-02 -6.76802E-02 -5.70773E-02 -3.83419E-02 -1.65949E-02  2.91283E-03
   2.28039E-02  4.18995E-02  5.39174E-02  5.83201E-02  6.21970E-02  6.78755E-02  7.54915E-02  8.96930E-02  1.07796E-01  1.26650E-01
   1.44199E-01  1.54814E-01  1.54857E-01  1.44306E-01  1.27463E-01  1.06776E-01  8.21789E-02  5.61109E-02  2.63395E-02 -3.22490E-03
  -3.39106E-02 -6.19035E-02 -8.36631E-02 -9.39177E-02 -8.77635E-02 -6.29105E-02 -2.16617E-02  2.64032E-02  7.14222E-02  1.05203E-01
   1.23248E-01  1.26926E-01  1.21512E-01  1.11483E-01  1.00802E-01  9.41054E-02  9.22801E-02  9.39656E-02  9.81160E-02  1.02151E-01
   1.04634E-01  1.05506E-01  1.04327E-01  1.01710E-01  9.69640E-02  9.07422E-02  8.25019E-02  7.15190E-02  5.76983E-02  4.05823E-02
   2.15381E-02  1.66331E-03 -1.80440E-02 -3.66419E-02 -5.47763E-02 -7.42966E-02 -9.67197E-02 -1.23336E-01 -1.53778E-01 -1.85222E-01
  -2.12906E-01 -2.33111E-01 -2.42018E-01 -2.35317E-01 -2.14190E-01 -1.78719E-01 -1.34986E-01 -8.83178E-02 -4.57520E-02 -1.08873E-02
   1.08920E-02  1.76687E-02  9.50629E-03 -1.23660E-02 -3.87959E-02 -7.11603E-02 -1.10660E-01 -1.51116E-01 -1.87588E-01 -2.27686E-01
  -2.95234E-01 -4.12805E-01 -5.71503E-01 -7.06123E-01 -7.35893E-01 -6.62186E-01 -5.43811E-01 -4.20991E-01 -3.07398E-01 -2.08497E-01
  -1.18602E-01 -3.89442E-02  4.48137E-03  2.42068E-02  3.67307E-02  4.57391E-02  5.23689E-02  5.66895E-02  5.82934E-02  5.67010E-02
   5.15134E-02  4.29388E-02  3.20049E-02  2.00287E-02  8.51263E-03 -7.31792E-04 -6.64519E-03 -8.65555E-03 -6.98842E-03 -2.29927E-03
   4.26595E-03  1.20170E-02  2.03685E-02  2.83959E-02  3.58266E-02  4.20514E-02  4.73374E-02  5.18868E-02  5.59039E-02  5.94781E-02
   6.25801E-02  6.52565E-02  6.77336E-02  7.01489E-02  7.24322E-02  7.44623E-02  7.61954E-02  7.76537E-02  7.91511E-02  8.08776E-02
   8.28667E-02  8.48842E-02  8.67181E-02  8.79935E-02  8.85258E-02  8.82938E-02  8.74118E-02  8.60136E-02  8.40858E-02  8.15961E-02
   7.84045E-02  7.46067E-02  7.02598E-02  6.54920E-02  6.03319E-02  5.49612E-02  4.96541E-02  4.45164E-02  3.94866E-02  3.46255E-02
   3.00411E-02  2.58248E-02  2.20184E-02  1.86565E-02  1.55807E-02  1.27418E-02  1.01387E-02  7.76928E-03  5.57492E-03  3.62117E-03
   1.95460E-03  5.30278E-04 -5.58834E-04 -1.14249E-03 -1.04837E-03 -2.64348E-04  1.17156E-03  3.29497E-03  6.03836E-03  9.28539E-03
   1.29603E-02  1.68142E-02  2.07187E-02  2.50128E-02  3.00278E-02  3.54720E-02  4.08015E-02  4.56054E-02  4.97745E-02  5.37096E-02
   5.82132E-02  6.36202E-02  6.98462E-02  7.67918E-02  8.44425E-02  9.25509E-02  1.00983E-01  1.09388E-01  1.17151E-01  1.23812E-01
   1.29140E-01  1.33058E-01  1.35551E-01  1.36606E-01  1.36341E-01  1.34570E-01  1.31505E-01  1.27293E-01  1.22300E-01  1.17375E-01
   1.13446E-01  1.10795E-01  1.08443E-01  1.04963E-01  9.94144E-02  9.16752E-02  8.26538E-02  7.35846E-02  6.47245E-02  5.63211E-02
   4.86586E-02  4.22134E-02  3.66639E-02  3.24927E-02  2.93385E-02  2.72310E-02  2.62986E-02  2.63340E-02  2.72158E-02  2.89069E-02
   3.13352E-02  3.43702E-02  3.79050E-02  4.16863E-02  4.53606E-02  4.87230E-02  5.17168E-02  5.42563E-02  5.64858E-02  5.85775E-02
   6.05120E-02  6.20442E-02  6.29318E-02  6.31501E-02  6.27099E-02  6.16894E-02  6.01184E-02  5.80066E-02  5.55333E-02  5.29598E-02
   5.03416E-02  4.75962E-02  4.47359E-02  4.18022E-02  3.87694E-02  3.57108E-02  3.25788E-02  2.94552E-02  2.65393E-02  2.39083E-02
   2.14089E-02  1.87922E-02  1.59741E-02  1.28542E-02  9.29944E-03  5.17904E-03  4.99238E-04 -4.74728E-03 -1.06647E-02 -1.75109E-02
  -2.56067E-02 -3.50964E-02 -4.57994E-02 -5.73319E-02 -6.93474E-02 -8.15933E-02 -9.37536E-02 -1.05424E-01 -1.16281E-01 -1.26087E-01
  -1.34544E-01 -1.41206E-01 -1.45825E-01 -1.48370E-01 -1.49088E-01 -1.48032E-01 -1.45254E-01 -1.41069E-01 -1.35966E-01 -1.30369E-01
  -1.24578E-01 -1.18569E-01 -1.12129E-01 -1.05181E-01 -9.78402E-02 -9.01024E-02 -8.19205E-02 -7.34264E-02 -6.47974E-02 -5.61742E-02
  -4.77026E-02 -3.94724E-02 -3.14703E-02 -2.37373E-02 -1.64973E-02 -9.81946E-03 -3.55351E-03  2.41953E-03  7.99325E-03  1.29478E-02
   1.72997E-02  2.12203E-02  2.48392E-02  2.80398E-02  3.07998E-02  3.30919E-02  3.49680E-02  3.65941E-02  3.80238E-02  3.91519E-02
   4.01749E-02  4.14010E-02  4.27966E-02  4.43054E-02  4.58821E-02  4.73552E-02  4.85475E-02  4.94629E-02  5.01756E-02  5.06358E-02
   5.08756E-02  5.10211E-02  5.10588E-02  5.10432E-02  5.11289E-02  5.13383E-02  5.16066E-02  5.19763E-02  5.24403E-02  5.27142E-02
   5.25826E-02  5.20625E-02  5.14831E-02  5.12358E-02  5.12678E-02  5.13190E-02  5.13604E-02  5.14030E-02  5.13587E-02  5.12639E-02
   5.12764E-02  5.15320E-02  5.20728E-02  5.28317E-02  5.36786E-02  5.46333E-02  5.57204E-02  5.69804E-02  5.82310E-02  5.93425E-02
   6.03389E-02  6.11865E-02  6.17735E-02  6.20846E-02  6.23455E-02  6.27829E-02  6.34845E-02  6.44087E-02  6.55066E-02  6.66677E-02
   6.79012E-02  6.92612E-02  7.08884E-02  7.27482E-02  7.46640E-02  7.62753E-02  7.74298E-02  7.82092E-02  7.89168E-02  7.98285E-02
   8.08998E-02  8.18518E-02  8.26241E-02  8.33848E-02  8.42802E-02  8.53941E-02  8.66170E-02  8.78170E-02  8.90647E-02  9.05896E-02
   9.24607E-02  9.43743E-02  9.62022E-02  9.80808E-02  1.00098E-01  1.02316E-01  1.04865E-01  1.07785E-01  1.11185E-01  1.15082E-01
   1.19175E-01  1.23209E-01  1.27193E-01  1.31233E-01
 NY background values follow
     5.945E-02    5.928E-02    5.911E-02    5.894E-02    5.877E-02    5.860E-02    5.843E-02    5.826E-02    5.809E-02    5.792E-02
     5.775E-02    5.758E-02    5.741E-02    5.724E-02    5.707E-02    5.690E-02    5.673E-02    5.656E-02    5.639E-02    5.622E-02
     5.605E-02    5.588E-02    5.571E-02    5.554E-02    5.537E-02    5.520E-02    5.503E-02    5.485E-02    5.468E-02    5.451E-02
     5.434E-02    5.417E-02    5.400E-02    5.383E-02    5.366E-02    5.349E-02    5.332E-02    5.315E-02    5.298E-02    5.281E-02
     5.264E-02    5.247E-02    5.230E-02    5.213E-02    5.196E-02    5.178E-02    5.161E-02    5.144E-02    5.127E-02    5.110E-02
     5.093E-02    5.076E-02    5.059E-02    5.042E-02    5.025E-02    5.008E-02    4.991E-02    4.974E-02    4.956E-02    4.939E-02
     4.922E-02    4.905E-02    4.888E-02    4.871E-02    4.854E-02    4.837E-02    4.820E-02    4.803E-02    4.785E-02    4.768E-02
