 
 $NMID
 ID=''
 FMTDAT='(2E13.5)'
 TRAMP=   1.00000E+0
 VOLUME=   1.00000E+0
 $END
  -1.78456E+4   1.01171E+4
  -5.14665E+4   1.20669E+4
  -4.84251E+4   2.07932E+4
  -4.43624E+4   1.90790E+4
  -4.66476E+4   1.84436E+4
  -4.57302E+4   2.05385E+4
  -4.40224E+4   1.92151E+4
  -4.50157E+4   1.84070E+4
  -4.44786E+4   1.96274E+4
  -4.33763E+4   1.87979E+4
  -4.39040E+4   1.83050E+4
  -4.33126E+4   1.91986E+4
  -4.24671E+4   1.88104E+4
  -4.30214E+4   1.82597E+4
  -4.26766E+4   1.87870E+4
  -4.18764E+4   1.84715E+4
  -4.23012E+4   1.81625E+4
  -4.19485E+4   1.84792E+4
  -4.13185E+4   1.83705E+4
  -4.16464E+4   1.80527E+4
  -4.11924E+4   1.83177E+4
  -4.05730E+4   1.82317E+4
  -4.07742E+4   1.81231E+4
  -4.05417E+4   1.82252E+4
  -3.99673E+4   1.80153E+4
  -3.98847E+4   1.79488E+4
  -3.97387E+4   1.80131E+4
  -3.93158E+4   1.77035E+4
  -3.91234E+4   1.74269E+4
  -3.87878E+4   1.74633E+4
  -3.83728E+4   1.74232E+4
  -3.83341E+4   1.73768E+4
  -3.81456E+4   1.73191E+4
  -3.76951E+4   1.71234E+4
  -3.74442E+4   1.71928E+4
  -3.71757E+4   1.72009E+4
  -3.67908E+4   1.70880E+4
  -3.64583E+4   1.71237E+4
  -3.62212E+4   1.72019E+4
  -3.58558E+4   1.72017E+4
  -3.55772E+4   1.72082E+4
  -3.54327E+4   1.71252E+4
  -3.50469E+4   1.68595E+4
  -3.48304E+4   1.68585E+4
  -3.44636E+4   1.69410E+4
  -3.42777E+4   1.68754E+4
  -3.40955E+4   1.68406E+4
  -3.37935E+4   1.68229E+4
  -3.35960E+4   1.68169E+4
  -3.33129E+4   1.67928E+4
  -3.30699E+4   1.67350E+4
  -3.27758E+4   1.67532E+4
  -3.24711E+4   1.67020E+4
  -3.22426E+4   1.67919E+4
  -3.20685E+4   1.67775E+4
  -3.18773E+4   1.67715E+4
  -3.15953E+4   1.67695E+4
  -3.14528E+4   1.66858E+4
  -3.12199E+4   1.66535E+4
  -3.09225E+4   1.66687E+4
  -3.07701E+4   1.65640E+4
  -3.04707E+4   1.66168E+4
  -3.03793E+4   1.66263E+4
  -3.02106E+4   1.65833E+4
  -3.00005E+4   1.65220E+4
  -2.98365E+4   1.65061E+4
  -2.96632E+4   1.65279E+4
  -2.94563E+4   1.64913E+4
  -2.92862E+4   1.63824E+4
  -2.90529E+4   1.63606E+4
  -2.89423E+4   1.62865E+4
  -2.87398E+4   1.62373E+4
  -2.85383E+4   1.61548E+4
  -2.83829E+4   1.61352E+4
  -2.81754E+4   1.61173E+4
  -2.80768E+4   1.60678E+4
  -2.79072E+4   1.60077E+4
  -2.77273E+4   1.59170E+4
  -2.74945E+4   1.58506E+4
  -2.73332E+4   1.58553E+4
  -2.72158E+4   1.58094E+4
  -2.70560E+4   1.57837E+4
  -2.68405E+4   1.56581E+4
  -2.67558E+4   1.56097E+4
  -2.66130E+4   1.55102E+4
  -2.65186E+4   1.53709E+4
  -2.63488E+4   1.53196E+4
  -2.61039E+4   1.51739E+4
  -2.60368E+4   1.50946E+4
  -2.58248E+4   1.49630E+4
  -2.56986E+4   1.50242E+4
  -2.55840E+4   1.49264E+4
  -2.53963E+4   1.48481E+4
  -2.52949E+4   1.47695E+4
  -2.50727E+4   1.47430E+4
  -2.48792E+4   1.46250E+4
  -2.46656E+4   1.45924E+4
  -2.45134E+4   1.45722E+4
  -2.44004E+4   1.45019E+4
  -2.42543E+4   1.44504E+4
  -2.40789E+4   1.43164E+4
  -2.38233E+4   1.42610E+4
  -2.37357E+4   1.42921E+4
  -2.35892E+4   1.41627E+4
  -2.34936E+4   1.40631E+4
  -2.32592E+4   1.40988E+4
  -2.31458E+4   1.40656E+4
  -2.29917E+4   1.39422E+4
  -2.28886E+4   1.38306E+4
  -2.27215E+4   1.38154E+4
  -2.25399E+4   1.37943E+4
  -2.23432E+4   1.38253E+4
  -2.21953E+4   1.38050E+4
  -2.21363E+4   1.37367E+4
  -2.19920E+4   1.36949E+4
  -2.18422E+4   1.36217E+4
  -2.16886E+4   1.34900E+4
  -2.15228E+4   1.35220E+4
  -2.13415E+4   1.33677E+4
  -2.12334E+4   1.33596E+4
  -2.11113E+4   1.34341E+4
  -2.10151E+4   1.32882E+4
  -2.08410E+4   1.32455E+4
  -2.07019E+4   1.32158E+4
  -2.04713E+4   1.31180E+4
  -2.04107E+4   1.31001E+4
  -2.02566E+4   1.30414E+4
  -2.01277E+4   1.29613E+4
  -2.00830E+4   1.29503E+4
  -1.99033E+4   1.28810E+4
  -1.97897E+4   1.27984E+4
  -1.95262E+4   1.27697E+4
  -1.94393E+4   1.27018E+4
  -1.92601E+4   1.26430E+4
  -1.92025E+4   1.26553E+4
  -1.90844E+4   1.25676E+4
  -1.90067E+4   1.25191E+4
  -1.87666E+4   1.25593E+4
  -1.86208E+4   1.24873E+4
  -1.84908E+4   1.24446E+4
  -1.84016E+4   1.23985E+4
  -1.83156E+4   1.23507E+4
  -1.81635E+4   1.23988E+4
  -1.80447E+4   1.22696E+4
  -1.79224E+4   1.22350E+4
  -1.77912E+4   1.22234E+4
  -1.76751E+4   1.22091E+4
  -1.75435E+4   1.22198E+4
  -1.74221E+4   1.21256E+4
  -1.72847E+4   1.22010E+4
  -1.71786E+4   1.21244E+4
  -1.70025E+4   1.19845E+4
  -1.68604E+4   1.19813E+4
  -1.67636E+4   1.18554E+4
  -1.65891E+4   1.19370E+4
  -1.65308E+4   1.19233E+4
  -1.64443E+4   1.18422E+4
  -1.62658E+4   1.18626E+4
  -1.62143E+4   1.18069E+4
  -1.60852E+4   1.17660E+4
  -1.60461E+4   1.17989E+4
  -1.58622E+4   1.17599E+4
  -1.57101E+4   1.17810E+4
  -1.56549E+4   1.17387E+4
  -1.55848E+4   1.15988E+4
  -1.54686E+4   1.16559E+4
  -1.53709E+4   1.16935E+4
  -1.52751E+4   1.15149E+4
  -1.51155E+4   1.16130E+4
  -1.50460E+4   1.15518E+4
  -1.49750E+4   1.14715E+4
  -1.48664E+4   1.14073E+4
  -1.47729E+4   1.14218E+4
  -1.46542E+4   1.14160E+4
  -1.45158E+4   1.13229E+4
  -1.43283E+4   1.13044E+4
  -1.42744E+4   1.12706E+4
  -1.41856E+4   1.12671E+4
  -1.41363E+4   1.12139E+4
  -1.40728E+4   1.11444E+4
  -1.39234E+4   1.11718E+4
  -1.37686E+4   1.10573E+4
  -1.37411E+4   1.09998E+4
  -1.36170E+4   1.09424E+4
  -1.35925E+4   1.10034E+4
  -1.34149E+4   1.09265E+4
  -1.33953E+4   1.08646E+4
  -1.33056E+4   1.08240E+4
  -1.31748E+4   1.07717E+4
  -1.30880E+4   1.07350E+4
  -1.30086E+4   1.06454E+4
  -1.28672E+4   1.06245E+4
  -1.27868E+4   1.05481E+4
  -1.26536E+4   1.05532E+4
  -1.26190E+4   1.04635E+4
  -1.25353E+4   1.04946E+4
  -1.24699E+4   1.04389E+4
  -1.23712E+4   1.04246E+4
  -1.22490E+4   1.03727E+4
  -1.21733E+4   1.03332E+4
  -1.21184E+4   1.02516E+4
  -1.20607E+4   1.01932E+4
  -1.19594E+4   1.01295E+4
  -1.18800E+4   1.01036E+4
  -1.17459E+4   1.01203E+4
  -1.16423E+4   1.00969E+4
  -1.16769E+4   1.00216E+4
  -1.15680E+4   9.99320E+3
  -1.13928E+4   9.93467E+3
  -1.14022E+4   9.91469E+3
  -1.14171E+4   9.93214E+3
  -1.12651E+4   9.85744E+3
  -1.11858E+4   9.76677E+3
  -1.10914E+4   9.80757E+3
  -1.10815E+4   9.69859E+3
  -1.09955E+4   9.75171E+3
  -1.08770E+4   9.66140E+3
  -1.08371E+4   9.57799E+3
  -1.07992E+4   9.64716E+3
  -1.07144E+4   9.51247E+3
  -1.06409E+4   9.50190E+3
  -1.05723E+4   9.46554E+3
  -1.05106E+4   9.49931E+3
  -1.04563E+4   9.37679E+3
  -1.04148E+4   9.39465E+3
  -1.03664E+4   9.27705E+3
  -1.03563E+4   9.28693E+3
  -1.02117E+4   9.25464E+3
  -1.01634E+4   9.16257E+3
  -1.01574E+4   9.16905E+3
  -1.00677E+4   9.17608E+3
  -9.92787E+3   9.08222E+3
  -9.93751E+3   9.12350E+3
  -9.90345E+3   9.07487E+3
  -9.79341E+3   8.95630E+3
  -9.59079E+3   8.96552E+3
  -9.62464E+3   8.90491E+3
  -9.57399E+3   8.95289E+3
  -9.56600E+3   8.86447E+3
  -9.46434E+3   8.83394E+3
  -9.34169E+3   8.74893E+3
  -9.36433E+3   8.73297E+3
  -9.28882E+3   8.74421E+3
  -9.32929E+3   8.69785E+3
  -9.22271E+3   8.62108E+3
  -9.09040E+3   8.67920E+3
  -9.05011E+3   8.65084E+3
  -9.01393E+3   8.58215E+3
  -8.92064E+3   8.54662E+3
  -8.88233E+3   8.56063E+3
  -8.82058E+3   8.54485E+3
  -8.82728E+3   8.44055E+3
  -8.76717E+3   8.43483E+3
  -8.68935E+3   8.37175E+3
  -8.57972E+3   8.37528E+3
  -8.56473E+3   8.31246E+3
  -8.46674E+3   8.26996E+3
  -8.47831E+3   8.30597E+3
  -8.41435E+3   8.25904E+3
  -8.34247E+3   8.28405E+3
  -8.27528E+3   8.17576E+3
  -8.28356E+3   8.15163E+3
  -8.14139E+3   8.10122E+3
  -8.10987E+3   8.02476E+3
  -8.02302E+3   8.08562E+3
  -8.01980E+3   8.02336E+3
  -7.95306E+3   7.98685E+3
  -7.86796E+3   7.93907E+3
  -7.86769E+3   7.90580E+3
  -7.74072E+3   7.85951E+3
  -7.65945E+3   7.75620E+3
  -7.61201E+3   7.80140E+3
  -7.55531E+3   7.76191E+3
  -7.58888E+3   7.76764E+3
  -7.54987E+3   7.68919E+3
  -7.38118E+3   7.64597E+3
  -7.39151E+3   7.60684E+3
  -7.36398E+3   7.62626E+3
  -7.31151E+3   7.55332E+3
  -7.24540E+3   7.44454E+3
  -7.19365E+3   7.52138E+3
  -7.17805E+3   7.44641E+3
  -7.12271E+3   7.49017E+3
  -7.11131E+3   7.44617E+3
  -6.93709E+3   7.38058E+3
  -6.86631E+3   7.35748E+3
  -6.83988E+3   7.32527E+3
  -6.86155E+3   7.23087E+3
  -6.75632E+3   7.21888E+3
  -6.71878E+3   7.21128E+3
  -6.68312E+3   7.15320E+3
  -6.59694E+3   7.09027E+3
  -6.61584E+3   7.10789E+3
  -6.52266E+3   7.06028E+3
  -6.47205E+3   7.05032E+3
  -6.42322E+3   7.03523E+3
  -6.35527E+3   6.94098E+3
  -6.32407E+3   6.92478E+3
  -6.22481E+3   6.90285E+3
  -6.21246E+3   6.89374E+3
  -6.24026E+3   6.83238E+3
  -6.15445E+3   6.76948E+3
  -6.11363E+3   6.74234E+3
  -6.15114E+3   6.75186E+3
  -6.07974E+3   6.70132E+3
  -6.01722E+3   6.63617E+3
  -5.94605E+3   6.53226E+3
  -5.86322E+3   6.60008E+3
  -5.86983E+3   6.52684E+3
  -5.80616E+3   6.53426E+3
  -5.81403E+3   6.43009E+3
  -5.74078E+3   6.44976E+3
  -5.65800E+3   6.38744E+3
  -5.64527E+3   6.36180E+3
  -5.57079E+3   6.31820E+3
  -5.56124E+3   6.25593E+3
  -5.52355E+3   6.26996E+3
  -5.46501E+3   6.27131E+3
  -5.46084E+3   6.23870E+3
  -5.36823E+3   6.20771E+3
  -5.31579E+3   6.13831E+3
  -5.26280E+3   6.14687E+3
  -5.24775E+3   6.07734E+3
  -5.22433E+3   6.08536E+3
  -5.16153E+3   6.02359E+3
  -5.13061E+3   5.92886E+3
  -5.09796E+3   5.92158E+3
  -5.03216E+3   5.93000E+3
  -4.98937E+3   5.88144E+3
  -4.96142E+3   5.79310E+3
  -4.93287E+3   5.79543E+3
  -4.88614E+3   5.73419E+3
  -4.87571E+3   5.78426E+3
  -4.80704E+3   5.76010E+3
  -4.70302E+3   5.64130E+3
  -4.74122E+3   5.64999E+3
  -4.70258E+3   5.48999E+3
  -4.73200E+3   5.56125E+3
  -4.57927E+3   5.58884E+3
  -4.63084E+3   5.55330E+3
  -4.57751E+3   5.46427E+3
  -4.54174E+3   5.41325E+3
  -4.48124E+3   5.38564E+3
  -4.46761E+3   5.36840E+3
  -4.43203E+3   5.32232E+3
  -4.45341E+3   5.35709E+3
  -4.40887E+3   5.25305E+3
  -4.30214E+3   5.17667E+3
  -4.29251E+3   5.28602E+3
  -4.30099E+3   5.21454E+3
  -4.28263E+3   5.11539E+3
  -4.19614E+3   5.18315E+3
  -4.09231E+3   5.08239E+3
  -4.14514E+3   5.13583E+3
  -4.13158E+3   5.03282E+3
  -4.03575E+3   4.99864E+3
  -4.00709E+3   4.93591E+3
  -3.97444E+3   4.94128E+3
  -3.95665E+3   4.90088E+3
  -3.92509E+3   4.89041E+3
  -3.90619E+3   4.81540E+3
  -3.87072E+3   4.86079E+3
  -3.81976E+3   4.79043E+3
  -3.75447E+3   4.78825E+3
  -3.75501E+3   4.70810E+3
  -3.68808E+3   4.73839E+3
  -3.68458E+3   4.77687E+3
