 
 $NMID
 ID=''
 FMTDAT='(2E13.5)'
 TRAMP=   1.00000E+0
 VOLUME=   1.00000E+0
 $END
  -1.90036E+4  -5.50694E+3
  -4.24823E+4  -2.99821E+4
  -4.48629E+4  -2.55761E+4
  -3.92944E+4  -2.75203E+4
  -3.81305E+4  -3.26759E+4
  -3.62045E+4  -3.37226E+4
  -3.10864E+4  -3.62055E+4
  -2.80921E+4  -3.96001E+4
  -2.52717E+4  -4.04757E+4
  -2.03454E+4  -4.20868E+4
  -1.67043E+4  -4.39431E+4
  -1.35591E+4  -4.40054E+4
  -9.05200E+3  -4.45151E+4
  -5.17670E+3  -4.53290E+4
  -1.69849E+3  -4.46197E+4
   2.73611E+3  -4.40347E+4
   6.24614E+3  -4.35965E+4
   9.66840E+3  -4.19759E+4
   1.32714E+4  -4.04324E+4
   1.66197E+4  -3.90077E+4
   1.93698E+4  -3.66280E+4
   2.23989E+4  -3.43207E+4
   2.49260E+4  -3.22423E+4
   2.71218E+4  -2.92146E+4
   2.92791E+4  -2.63180E+4
   3.10000E+4  -2.36971E+4
   3.24005E+4  -2.04994E+4
   3.37755E+4  -1.71282E+4
   3.47055E+4  -1.39364E+4
   3.52627E+4  -1.06567E+4
   3.55558E+4  -7.43455E+3
   3.55827E+4  -4.31261E+3
   3.53911E+4  -1.02836E+3
   3.48386E+4   2.14094E+3
   3.40437E+4   4.93723E+3
   3.29294E+4   7.88732E+3
   3.17614E+4   1.05789E+4
   3.02853E+4   1.30863E+4
   2.86291E+4   1.54817E+4
   2.69096E+4   1.77761E+4
   2.49670E+4   1.97700E+4
   2.28158E+4   2.17413E+4
   2.04103E+4   2.34540E+4
   1.80421E+4   2.47607E+4
   1.56846E+4   2.60532E+4
   1.31262E+4   2.71154E+4
   1.05335E+4   2.78302E+4
   8.01437E+3   2.83913E+4
   5.53586E+3   2.87483E+4
   2.98463E+3   2.87263E+4
   3.76596E+2   2.86325E+4
  -2.06424E+3   2.82701E+4
  -4.40868E+3   2.76008E+4
  -6.67647E+3   2.69718E+4
  -8.89553E+3   2.60807E+4
  -1.09323E+4   2.49350E+4
  -1.28840E+4   2.38472E+4
  -1.47731E+4   2.23959E+4
  -1.62825E+4   2.09023E+4
  -1.78039E+4   1.91384E+4
  -1.90137E+4   1.74284E+4
  -2.02033E+4   1.56621E+4
  -2.12179E+4   1.38483E+4
  -2.19607E+4   1.19934E+4
  -2.25255E+4   9.94758E+3
  -2.29327E+4   8.10403E+3
  -2.32038E+4   6.21111E+3
  -2.33133E+4   4.30881E+3
  -2.31571E+4   2.37415E+3
  -2.27857E+4   6.06006E+2
  -2.24243E+4  -1.22240E+3
  -2.18650E+4  -2.86508E+3
  -2.12052E+4  -4.40579E+3
  -2.04064E+4  -5.82902E+3
  -1.94498E+4  -7.25567E+3
  -1.84399E+4  -8.55979E+3
  -1.74143E+4  -9.68087E+3
  -1.62008E+4  -1.06002E+4
  -1.50543E+4  -1.15750E+4
  -1.37303E+4  -1.23095E+4
  -1.24987E+4  -1.29742E+4
  -1.12091E+4  -1.34967E+4
  -9.84764E+3  -1.38107E+4
  -8.54123E+3  -1.41577E+4
  -7.24815E+3  -1.43056E+4
  -5.99657E+3  -1.43896E+4
  -4.70380E+3  -1.43236E+4
  -3.54479E+3  -1.40989E+4
  -2.36621E+3  -1.38243E+4
  -1.27404E+3  -1.35448E+4
  -1.82116E+2  -1.30825E+4
   7.49690E+2  -1.26121E+4
   1.60950E+3  -1.20669E+4
   2.48327E+3  -1.14165E+4
   3.22640E+3  -1.06751E+4
   3.85300E+3  -9.94128E+3
   4.47713E+3  -9.23269E+3
   4.98155E+3  -8.48584E+3
   5.42550E+3  -7.68879E+3
   5.74198E+3  -6.94375E+3
   6.07812E+3  -6.11976E+3
   6.24547E+3  -5.31061E+3
   6.36761E+3  -4.55126E+3
   6.53765E+3  -3.75549E+3
   6.44313E+3  -3.01566E+3
   6.40340E+3  -2.26708E+3
   6.33461E+3  -1.63589E+3
   6.16166E+3  -9.23176E+2
   5.91894E+3  -3.44565E+2
   5.71456E+3   2.07030E+2
   5.40199E+3   8.17755E+2
   5.16177E+3   1.30494E+3
   4.81241E+3   1.78978E+3
   4.46738E+3   2.28408E+3
   4.07532E+3   2.58276E+3
   3.72237E+3   2.85939E+3
   3.29483E+3   3.22946E+3
   2.87961E+3   3.51891E+3
   2.46770E+3   3.71963E+3
   2.06402E+3   3.85721E+3
   1.66305E+3   4.04146E+3
   1.30123E+3   4.13421E+3
   8.43353E+2   4.16270E+3
   5.68023E+2   4.19527E+3
   1.31664E+2   4.29096E+3
  -1.92107E+2   4.28572E+3
  -5.56149E+2   4.24782E+3
  -8.28443E+2   4.24130E+3
  -1.14464E+3   4.12786E+3
  -1.41436E+3   4.05789E+3
  -1.70709E+3   3.97059E+3
  -1.88133E+3   3.83343E+3
  -2.11771E+3   3.73034E+3
  -2.33009E+3   3.60875E+3
  -2.64083E+3   3.50180E+3
  -2.76525E+3   3.32261E+3
  -2.91670E+3   3.20919E+3
  -3.04661E+3   2.97781E+3
  -3.23279E+3   2.86751E+3
  -3.29778E+3   2.70382E+3
  -3.43527E+3   2.57859E+3
  -3.58251E+3   2.35968E+3
  -3.64140E+3   2.24086E+3
  -3.64481E+3   2.13397E+3
  -3.74038E+3   1.98195E+3
  -3.84379E+3   1.85893E+3
  -3.83114E+3   1.76901E+3
  -3.92968E+3   1.59822E+3
  -3.94135E+3   1.43962E+3
  -3.88134E+3   1.37002E+3
  -3.98996E+3   1.25194E+3
  -3.99422E+3   1.10633E+3
  -4.07377E+3   9.54958E+2
  -4.09424E+3   9.07043E+2
  -4.11466E+3   7.70631E+2
  -4.08731E+3   6.03052E+2
  -4.07554E+3   5.64546E+2
  -4.05841E+3   4.29399E+2
  -4.14326E+3   3.44776E+2
  -4.09056E+3   2.38484E+2
  -4.08507E+3   1.36808E+2
  -4.11395E+3  -2.05089E+1
  -4.04969E+3  -1.43062E+2
  -4.08849E+3  -1.58525E+2
  -4.01661E+3  -2.75567E+2
  -3.97949E+3  -4.47320E+2
  -4.00423E+3  -4.42111E+2
  -3.88612E+3  -5.59594E+2
  -3.91552E+3  -6.80012E+2
  -3.96247E+3  -7.58961E+2
  -3.91497E+3  -8.18194E+2
  -3.83378E+3  -1.04045E+3
  -3.71529E+3  -1.08961E+3
  -3.74153E+3  -1.09635E+3
  -3.64857E+3  -1.28639E+3
  -3.68371E+3  -1.34775E+3
  -3.57141E+3  -1.29378E+3
  -3.49310E+3  -1.37939E+3
  -3.43595E+3  -1.51561E+3
  -3.37570E+3  -1.57304E+3
  -3.38369E+3  -1.67052E+3
  -3.29276E+3  -1.66515E+3
  -3.19306E+3  -1.70398E+3
  -3.12387E+3  -1.78355E+3
  -3.11893E+3  -1.81126E+3
  -2.97365E+3  -1.85578E+3
  -2.93284E+3  -1.94215E+3
  -2.89823E+3  -1.91805E+3
  -2.79489E+3  -1.97619E+3
  -2.73925E+3  -1.93647E+3
  -2.64914E+3  -1.99772E+3
  -2.59244E+3  -2.03880E+3
  -2.54385E+3  -2.03469E+3
  -2.46306E+3  -2.01525E+3
  -2.48665E+3  -2.03311E+3
  -2.43042E+3  -2.00992E+3
  -2.31500E+3  -2.02665E+3
  -2.32732E+3  -2.03499E+3
  -2.26905E+3  -1.98460E+3
  -2.28693E+3  -2.01353E+3
  -2.24655E+3  -2.01807E+3
  -2.15125E+3  -1.99351E+3
  -2.11525E+3  -1.97440E+3
  -2.08454E+3  -2.08260E+3
  -2.10615E+3  -2.01732E+3
  -2.02437E+3  -1.95006E+3
  -1.99416E+3  -2.02668E+3
  -1.98458E+3  -1.95238E+3
  -1.94726E+3  -1.95671E+3
  -2.02684E+3  -1.99771E+3
  -1.91986E+3  -2.03913E+3
  -1.88810E+3  -2.04410E+3
  -1.90321E+3  -2.03213E+3
  -1.88618E+3  -1.94631E+3
  -1.88725E+3  -1.98695E+3
  -1.85438E+3  -1.99734E+3
  -1.75334E+3  -2.04927E+3
  -1.84416E+3  -1.92796E+3
  -1.86379E+3  -2.03840E+3
  -1.76432E+3  -2.06567E+3
  -1.83243E+3  -1.96555E+3
  -1.75786E+3  -1.95947E+3
  -1.75462E+3  -2.02642E+3
  -1.71985E+3  -1.96233E+3
  -1.72871E+3  -1.98254E+3
  -1.72900E+3  -1.97955E+3
  -1.70171E+3  -1.99122E+3
  -1.63967E+3  -1.96842E+3
  -1.69069E+3  -2.01210E+3
  -1.59947E+3  -2.07115E+3
  -1.61796E+3  -2.06080E+3
  -1.57622E+3  -2.00457E+3
  -1.61048E+3  -2.11027E+3
  -1.48799E+3  -2.06801E+3
  -1.49382E+3  -1.98479E+3
  -1.50285E+3  -2.07041E+3
  -1.48162E+3  -2.03893E+3
  -1.46999E+3  -2.00636E+3
  -1.41646E+3  -2.02680E+3
  -1.39983E+3  -1.98698E+3
  -1.41870E+3  -2.01111E+3
  -1.44664E+3  -2.03377E+3
  -1.30487E+3  -2.01877E+3
  -1.34749E+3  -1.99860E+3
  -1.34288E+3  -1.94313E+3
  -1.32300E+3  -2.02156E+3
  -1.30237E+3  -1.95918E+3
  -1.19625E+3  -1.92098E+3
  -1.23585E+3  -1.92180E+3
  -1.20221E+3  -1.88812E+3
  -1.24366E+3  -1.90430E+3
  -1.24331E+3  -1.89485E+3
  -1.20594E+3  -1.86375E+3
  -1.23627E+3  -1.84649E+3
  -1.13525E+3  -1.85184E+3
  -1.17163E+3  -1.78195E+3
  -1.11917E+3  -1.81585E+3
  -1.07575E+3  -1.80315E+3
  -1.10218E+3  -1.78592E+3
  -1.13786E+3  -1.77487E+3
  -1.15608E+3  -1.76222E+3
  -1.10427E+3  -1.78255E+3
  -1.17695E+3  -1.78983E+3
  -1.06681E+3  -1.68644E+3
  -1.07476E+3  -1.74025E+3
  -1.03527E+3  -1.73391E+3
  -1.12706E+3  -1.73536E+3
  -1.09372E+3  -1.75834E+3
  -1.08402E+3  -1.66115E+3
  -1.03906E+3  -1.71573E+3
  -1.08870E+3  -1.63677E+3
  -9.62844E+2  -1.68752E+3
  -1.00053E+3  -1.59471E+3
  -1.01358E+3  -1.62470E+3
  -9.59355E+2  -1.69030E+3
  -9.56674E+2  -1.66932E+3
  -9.63679E+2  -1.63011E+3
  -8.91199E+2  -1.59929E+3
  -9.44285E+2  -1.57254E+3
  -8.51431E+2  -1.58044E+3
  -8.92733E+2  -1.52351E+3
  -8.42405E+2  -1.51444E+3
  -8.85836E+2  -1.56507E+3
  -8.22299E+2  -1.49371E+3
  -7.97807E+2  -1.48492E+3
  -8.18167E+2  -1.45956E+3
  -7.28674E+2  -1.44969E+3
  -7.38071E+2  -1.41650E+3
  -7.89518E+2  -1.41988E+3
  -6.68504E+2  -1.46725E+3
  -7.05391E+2  -1.35664E+3
  -7.12790E+2  -1.33930E+3
  -7.27684E+2  -1.32391E+3
  -6.53993E+2  -1.28926E+3
  -6.84696E+2  -1.29880E+3
  -7.02726E+2  -1.21600E+3
  -6.40602E+2  -1.23723E+3
  -5.88744E+2  -1.24998E+3
  -6.28187E+2  -1.12767E+3
  -6.91449E+2  -1.14565E+3
  -5.70061E+2  -1.13956E+3
  -6.20496E+2  -1.20417E+3
  -6.69840E+2  -1.07923E+3
  -6.57352E+2  -1.04236E+3
  -6.23649E+2  -1.00586E+3
  -5.82642E+2  -1.01175E+3
  -6.46967E+2  -9.28042E+2
  -6.28302E+2  -9.39604E+2
  -6.57890E+2  -9.77817E+2
  -6.33540E+2  -9.26088E+2
  -6.54998E+2  -9.13070E+2
  -6.63219E+2  -8.35596E+2
  -6.41604E+2  -8.45471E+2
  -6.55243E+2  -8.54950E+2
  -6.63258E+2  -8.18391E+2
  -6.92202E+2  -8.27186E+2
  -7.27267E+2  -7.82402E+2
  -6.85855E+2  -8.11964E+2
  -7.01547E+2  -8.00169E+2
  -7.77468E+2  -7.51877E+2
  -7.13950E+2  -7.46280E+2
  -7.12040E+2  -7.51978E+2
  -6.44201E+2  -7.59699E+2
  -6.51449E+2  -7.48514E+2
  -6.74818E+2  -6.87210E+2
  -6.76270E+2  -7.13950E+2
  -7.07911E+2  -7.68637E+2
  -6.38089E+2  -6.74481E+2
  -6.52091E+2  -7.29303E+2
  -6.53285E+2  -6.85746E+2
  -6.59501E+2  -6.73629E+2
  -7.07733E+2  -6.56916E+2
  -6.72546E+2  -6.91573E+2
  -5.81702E+2  -6.84546E+2
  -6.12357E+2  -7.02979E+2
  -6.59427E+2  -6.82777E+2
  -6.50094E+2  -6.25412E+2
  -6.03156E+2  -6.04052E+2
  -6.44146E+2  -5.83265E+2
  -5.97724E+2  -6.40001E+2
  -5.76054E+2  -5.69376E+2
  -5.65103E+2  -5.98546E+2
  -5.68346E+2  -5.48181E+2
  -5.23054E+2  -5.66163E+2
  -5.11372E+2  -5.71433E+2
  -4.62302E+2  -6.05206E+2
  -5.31636E+2  -5.43249E+2
  -5.30306E+2  -4.68144E+2
  -5.29249E+2  -5.04930E+2
  -4.79238E+2  -4.28863E+2
  -4.83327E+2  -4.78648E+2
  -4.18076E+2  -4.46959E+2
  -4.53611E+2  -4.55505E+2
  -5.08801E+2  -4.77458E+2
  -5.01159E+2  -4.54731E+2
  -5.01883E+2  -4.31828E+2
  -4.56090E+2  -3.94414E+2
  -4.21384E+2  -3.30748E+2
  -4.98822E+2  -3.92907E+2
  -5.08337E+2  -3.87861E+2
  -4.98974E+2  -3.95741E+2
  -4.57483E+2  -3.32031E+2
  -4.69647E+2  -3.66332E+2
  -4.89777E+2  -1.88312E+2
  -4.42278E+2  -3.02436E+2
  -4.58802E+2  -2.98826E+2
  -5.14671E+2  -2.60013E+2
