 
 $NMID
 ID=''
 FMTDAT='(2E13.5)'
 TRAMP=   1.00000E+0
 VOLUME=   1.00000E+0
 $END
  -1.16787E+4  -9.11514E+2
  -2.86158E+4  -1.07146E+4
  -3.04399E+4  -5.46218E+3
  -2.82239E+4  -4.78131E+3
  -2.93114E+4  -5.59338E+3
  -2.98084E+4  -4.27271E+3
  -2.86751E+4  -4.30710E+3
  -2.88122E+4  -4.72007E+3
  -2.90769E+4  -3.72040E+3
  -2.84288E+4  -3.68307E+3
  -2.83584E+4  -4.05025E+3
  -2.84364E+4  -3.19269E+3
  -2.78836E+4  -2.98968E+3
  -2.79422E+4  -3.25400E+3
  -2.77810E+4  -2.67969E+3
  -2.74809E+4  -2.36598E+3
  -2.74053E+4  -2.60461E+3
  -2.72342E+4  -2.16721E+3
  -2.68670E+4  -1.84888E+3
  -2.68738E+4  -1.97600E+3
  -2.66239E+4  -1.54080E+3
  -2.61793E+4  -1.10966E+3
  -2.62867E+4  -1.05316E+3
  -2.61661E+4  -8.78173E+2
  -2.56525E+4  -6.96388E+2
  -2.56088E+4  -4.53371E+2
  -2.55769E+4  -2.88330E+2
  -2.51698E+4  -3.30069E+2
  -2.48974E+4  -1.28339E+2
  -2.48014E+4   1.58769E+2
  -2.45738E+4   2.69450E+2
  -2.43672E+4   4.50429E+2
  -2.41734E+4   6.17679E+2
  -2.39780E+4   7.70761E+2
  -2.37080E+4   8.08372E+2
  -2.34737E+4   1.03756E+3
  -2.32223E+4   1.17726E+3
  -2.30570E+4   1.30396E+3
  -2.27638E+4   1.50145E+3
  -2.24595E+4   1.77581E+3
  -2.23805E+4   1.84441E+3
  -2.22510E+4   1.83485E+3
  -2.18877E+4   1.93025E+3
  -2.16000E+4   2.08639E+3
  -2.14858E+4   2.18218E+3
  -2.12429E+4   2.32801E+3
  -2.10622E+4   2.48670E+3
  -2.08479E+4   2.57688E+3
  -2.06475E+4   2.66418E+3
  -2.02708E+4   2.80909E+3
  -2.01365E+4   2.83746E+3
  -1.99901E+4   2.88490E+3
  -1.96556E+4   3.08930E+3
  -1.93829E+4   3.21737E+3
  -1.92441E+4   3.23626E+3
  -1.90186E+4   3.32162E+3
  -1.87589E+4   3.46065E+3
  -1.85902E+4   3.52661E+3
  -1.83628E+4   3.49877E+3
  -1.80766E+4   3.49259E+3
  -1.78656E+4   3.71042E+3
  -1.76353E+4   3.74169E+3
  -1.73726E+4   3.82644E+3
  -1.71929E+4   3.90645E+3
  -1.70570E+4   3.90175E+3
  -1.68472E+4   4.03789E+3
  -1.66394E+4   4.03292E+3
  -1.63965E+4   4.12963E+3
  -1.62716E+4   4.17115E+3
  -1.60024E+4   4.15658E+3
  -1.57524E+4   4.21681E+3
  -1.56575E+4   4.28396E+3
  -1.54831E+4   4.30203E+3
  -1.52937E+4   4.28832E+3
  -1.50441E+4   4.44098E+3
  -1.49141E+4   4.44599E+3
  -1.48039E+4   4.39712E+3
  -1.45528E+4   4.50694E+3
  -1.44939E+4   4.56360E+3
  -1.43116E+4   4.53245E+3
  -1.41995E+4   4.54269E+3
  -1.39550E+4   4.54881E+3
  -1.37933E+4   4.51538E+3
  -1.37240E+4   4.54243E+3
  -1.35688E+4   4.55824E+3
  -1.34250E+4   4.52934E+3
  -1.33211E+4   4.45999E+3
  -1.30980E+4   4.53816E+3
  -1.29735E+4   4.62565E+3
  -1.28080E+4   4.52503E+3
  -1.26801E+4   4.53271E+3
  -1.25301E+4   4.50547E+3
  -1.23607E+4   4.48114E+3
  -1.21892E+4   4.49162E+3
  -1.21084E+4   4.47491E+3
  -1.19487E+4   4.42365E+3
  -1.17336E+4   4.46447E+3
  -1.16738E+4   4.43127E+3
  -1.15212E+4   4.33717E+3
  -1.13215E+4   4.33956E+3
  -1.12305E+4   4.28450E+3
  -1.10680E+4   4.24346E+3
  -1.08586E+4   4.22444E+3
  -1.08248E+4   4.23097E+3
  -1.06271E+4   4.10402E+3
  -1.04659E+4   4.17298E+3
  -1.03471E+4   4.14837E+3
  -1.01848E+4   4.06922E+3
  -1.00805E+4   4.08922E+3
  -9.90336E+3   4.00237E+3
  -9.70433E+3   4.02486E+3
  -9.62368E+3   3.99951E+3
  -9.43445E+3   4.00022E+3
  -9.32788E+3   4.03048E+3
  -9.23621E+3   3.91479E+3
  -9.05669E+3   3.95238E+3
  -8.92259E+3   3.93093E+3
  -8.81142E+3   3.86587E+3
  -8.64019E+3   3.82748E+3
  -8.51381E+3   3.78126E+3
  -8.41736E+3   3.77682E+3
  -8.31052E+3   3.75330E+3
  -8.16170E+3   3.76200E+3
  -7.97391E+3   3.70017E+3
  -7.84708E+3   3.63008E+3
  -7.70726E+3   3.65270E+3
  -7.56974E+3   3.59984E+3
  -7.42368E+3   3.61532E+3
  -7.36721E+3   3.65672E+3
  -7.25339E+3   3.56213E+3
  -7.03827E+3   3.53718E+3
  -6.93265E+3   3.57701E+3
  -6.83441E+3   3.49805E+3
  -6.68276E+3   3.48600E+3
  -6.55182E+3   3.47004E+3
  -6.43477E+3   3.47684E+3
  -6.36420E+3   3.42685E+3
  -6.24583E+3   3.51127E+3
  -6.06478E+3   3.42359E+3
  -6.00064E+3   3.40834E+3
  -5.87515E+3   3.35974E+3
  -5.70723E+3   3.42183E+3
  -5.63664E+3   3.35861E+3
  -5.53058E+3   3.41816E+3
  -5.41760E+3   3.37853E+3
  -5.30422E+3   3.29582E+3
  -5.21206E+3   3.25390E+3
  -5.15012E+3   3.19822E+3
  -4.92824E+3   3.24033E+3
  -4.92794E+3   3.20452E+3
  -4.74877E+3   3.12118E+3
  -4.70768E+3   3.12682E+3
  -4.60192E+3   3.09964E+3
  -4.43782E+3   3.04280E+3
  -4.35296E+3   3.06240E+3
  -4.29068E+3   2.91426E+3
  -4.25027E+3   2.95681E+3
  -4.16290E+3   2.93929E+3
  -3.96391E+3   2.99084E+3
  -3.87170E+3   2.85818E+3
  -3.75512E+3   2.83306E+3
  -3.67251E+3   2.83722E+3
  -3.58328E+3   2.75192E+3
  -3.48859E+3   2.69172E+3
  -3.34675E+3   2.72264E+3
  -3.32453E+3   2.64600E+3
  -3.21043E+3   2.65258E+3
  -3.16672E+3   2.63019E+3
  -3.05254E+3   2.57731E+3
  -2.95104E+3   2.51971E+3
  -2.84730E+3   2.51528E+3
  -2.76745E+3   2.46425E+3
  -2.66763E+3   2.43139E+3
  -2.62595E+3   2.48708E+3
  -2.47984E+3   2.39358E+3
  -2.45388E+3   2.31109E+3
  -2.35467E+3   2.28384E+3
  -2.20368E+3   2.34603E+3
  -2.17378E+3   2.24798E+3
  -2.08145E+3   2.20580E+3
  -2.01415E+3   2.16407E+3
  -1.86374E+3   2.11619E+3
  -1.82302E+3   2.01326E+3
  -1.76674E+3   2.03332E+3
  -1.69095E+3   2.00205E+3
  -1.74231E+3   1.97349E+3
  -1.51435E+3   1.94724E+3
  -1.53483E+3   1.88844E+3
  -1.42823E+3   1.82429E+3
  -1.46973E+3   1.91054E+3
  -1.36638E+3   1.76169E+3
  -1.27425E+3   1.73482E+3
  -1.24107E+3   1.65571E+3
  -1.23646E+3   1.74120E+3
  -1.15373E+3   1.61273E+3
  -1.07082E+3   1.58449E+3
  -1.04947E+3   1.64494E+3
  -9.68520E+2   1.49087E+3
  -1.01846E+3   1.47237E+3
  -9.32483E+2   1.44718E+3
  -8.75195E+2   1.41129E+3
  -8.58706E+2   1.37714E+3
  -8.60309E+2   1.27591E+3
  -7.93330E+2   1.23424E+3
  -8.09870E+2   1.20965E+3
  -7.03061E+2   1.18737E+3
  -6.87715E+2   1.19817E+3
  -6.94821E+2   1.11816E+3
  -6.30914E+2   1.04576E+3
  -5.66750E+2   1.04137E+3
  -5.32522E+2   9.81192E+2
  -5.08929E+2   9.03602E+2
  -4.62720E+2   7.85621E+2
  -5.29508E+2   8.00925E+2
  -4.59214E+2   7.59141E+2
  -3.92732E+2   6.96923E+2
  -3.66163E+2   6.86941E+2
  -3.91362E+2   6.18959E+2
  -3.39413E+2   5.37377E+2
  -3.93192E+2   5.23820E+2
  -3.16703E+2   5.05467E+2
  -2.67126E+2   4.27007E+2
  -2.84579E+2   4.13592E+2
  -2.00638E+2   3.72487E+2
  -1.90990E+2   4.07611E+2
  -1.28223E+2   3.13372E+2
  -1.23686E+2   2.62642E+2
  -7.79247E+1   2.17462E+2
  -1.41370E+2   1.80157E+2
  -7.98228E+1   1.07167E+2
  -9.36273E+1   8.62956E+1
  -8.00272E+1   4.06083E+0
  -4.84409E+1   3.43969E+1
  -1.67258E+0  -6.90112E+0
   1.32948E+1  -1.30602E+1
   1.07728E+0  -1.04949E+2
   1.65548E+1  -5.64168E+1
   9.14900E+1  -1.48482E+2
   7.45047E+1  -1.33499E+2
   6.88438E+1  -2.67079E+2
   9.03974E+1  -1.94657E+2
   1.28137E+2  -2.68245E+2
   1.28232E+2  -2.70361E+2
   1.79486E+2  -3.27431E+2
   1.83320E+2  -3.31912E+2
   1.68166E+2  -4.11648E+2
   2.08787E+2  -3.72803E+2
   1.71781E+2  -4.73397E+2
   1.73857E+2  -4.50144E+2
   2.41845E+2  -4.73656E+2
   2.73673E+2  -4.84899E+2
   1.77809E+2  -5.03427E+2
   2.66223E+2  -5.63970E+2
   3.10303E+2  -5.84212E+2
   2.73248E+2  -5.81551E+2
   3.00886E+2  -6.18259E+2
   2.91126E+2  -6.73774E+2
   2.21704E+2  -6.45185E+2
   2.59152E+2  -7.44185E+2
   2.87738E+2  -7.12043E+2
   2.61868E+2  -6.97804E+2
   3.16095E+2  -7.69652E+2
   3.12260E+2  -7.55205E+2
   3.14419E+2  -8.05868E+2
   2.02531E+2  -8.59136E+2
   2.59164E+2  -8.86546E+2
   3.20837E+2  -8.62850E+2
   2.82884E+2  -8.01983E+2
   2.89083E+2  -8.71487E+2
   2.97432E+2  -8.60624E+2
   2.31650E+2  -9.83211E+2
   2.65703E+2  -9.33917E+2
   2.62295E+2  -9.13776E+2
   2.96729E+2  -9.60635E+2
   3.07151E+2  -9.76944E+2
   2.74113E+2  -9.57206E+2
   3.03629E+2  -9.47314E+2
   2.78139E+2  -1.00069E+3
   2.92923E+2  -1.04225E+3
   3.01515E+2  -1.04063E+3
   2.87586E+2  -1.02886E+3
   2.44951E+2  -1.09767E+3
   3.04698E+2  -1.05881E+3
   2.54909E+2  -1.10674E+3
   3.50114E+2  -1.08326E+3
   3.08093E+2  -1.07711E+3
   2.75032E+2  -1.14601E+3
   2.85338E+2  -1.14873E+3
   2.78819E+2  -1.14338E+3
   2.74216E+2  -1.09529E+3
   3.16466E+2  -1.17399E+3
   2.72029E+2  -1.18222E+3
   2.17416E+2  -1.18115E+3
   2.39320E+2  -1.21725E+3
   2.41335E+2  -1.20548E+3
   2.93739E+2  -1.20784E+3
   2.63386E+2  -1.22710E+3
   3.11375E+2  -1.19316E+3
   2.96142E+2  -1.18731E+3
   3.07308E+2  -1.23688E+3
   3.19040E+2  -1.17401E+3
   3.02213E+2  -1.23914E+3
   3.34502E+2  -1.28035E+3
   2.83630E+2  -1.25189E+3
   2.11180E+2  -1.24306E+3
   2.76935E+2  -1.20931E+3
   2.64746E+2  -1.22236E+3
   3.15346E+2  -1.26554E+3
   2.89987E+2  -1.24119E+3
   2.72858E+2  -1.28010E+3
   2.70077E+2  -1.29751E+3
   2.82238E+2  -1.24360E+3
   3.37332E+2  -1.24769E+3
   3.18021E+2  -1.30860E+3
   2.62864E+2  -1.28158E+3
   3.21536E+2  -1.29701E+3
   3.29161E+2  -1.24018E+3
   3.48268E+2  -1.30632E+3
   2.92710E+2  -1.32810E+3
   2.82724E+2  -1.25006E+3
   2.69211E+2  -1.25593E+3
   2.54113E+2  -1.32518E+3
   2.61492E+2  -1.28996E+3
   2.23859E+2  -1.25467E+3
   2.67006E+2  -1.30059E+3
   3.14361E+2  -1.30517E+3
   2.81253E+2  -1.32433E+3
   2.59589E+2  -1.29132E+3
   2.97295E+2  -1.37107E+3
   2.75142E+2  -1.29046E+3
   2.54622E+2  -1.28768E+3
   2.62163E+2  -1.28080E+3
   2.55956E+2  -1.29917E+3
   3.14101E+2  -1.35779E+3
   2.95918E+2  -1.30261E+3
   2.70391E+2  -1.37082E+3
   2.56485E+2  -1.30598E+3
   2.10082E+2  -1.34217E+3
   1.84770E+2  -1.32037E+3
   2.56641E+2  -1.33319E+3
   1.66130E+2  -1.33914E+3
   2.01947E+2  -1.33772E+3
   2.02722E+2  -1.25025E+3
   2.57763E+2  -1.29414E+3
   2.35620E+2  -1.30825E+3
   2.03871E+2  -1.29036E+3
   2.85369E+2  -1.28353E+3
   2.58687E+2  -1.27482E+3
   2.56305E+2  -1.23165E+3
   2.25826E+2  -1.26738E+3
   2.03037E+2  -1.28875E+3
   2.81076E+2  -1.25851E+3
   2.63526E+2  -1.31401E+3
   2.73993E+2  -1.28869E+3
   2.42043E+2  -1.26540E+3
   2.13433E+2  -1.33807E+3
   1.84237E+2  -1.31206E+3
   2.67326E+2  -1.23116E+3
   2.27404E+2  -1.27127E+3
   2.38027E+2  -1.26179E+3
   1.94199E+2  -1.23621E+3
   2.32693E+2  -1.25647E+3
   2.44027E+2  -1.25899E+3
   3.03017E+2  -1.22413E+3
   1.77347E+2  -1.25873E+3
   2.25639E+2  -1.20150E+3
   2.49764E+2  -1.23313E+3
