 
 $NMID
 ID=''
 FMTDAT='(2E13.5)'
 TRAMP=   1.00000E+0
 VOLUME=   1.00000E+0
 $END
  -2.12345E+4  -4.32283E+3
  -4.94180E+4  -2.58910E+4
  -5.30706E+4  -1.64681E+4
  -4.87645E+4  -1.46812E+4
  -5.01308E+4  -1.66934E+4
  -5.08627E+4  -1.40981E+4
  -4.87878E+4  -1.36922E+4
  -4.92237E+4  -1.46558E+4
  -4.97284E+4  -1.30135E+4
  -4.83665E+4  -1.25900E+4
  -4.85944E+4  -1.31332E+4
  -4.88858E+4  -1.17019E+4
  -4.80782E+4  -1.10981E+4
  -4.81813E+4  -1.15120E+4
  -4.83190E+4  -1.05667E+4
  -4.76045E+4  -1.01344E+4
  -4.76887E+4  -1.02209E+4
  -4.77068E+4  -9.45682E+3
  -4.71475E+4  -9.00483E+3
  -4.71163E+4  -9.09980E+3
  -4.70405E+4  -8.44639E+3
  -4.65944E+4  -7.88790E+3
  -4.66185E+4  -7.84232E+3
  -4.65314E+4  -7.43508E+3
  -4.60504E+4  -6.97146E+3
  -4.59195E+4  -6.82801E+3
  -4.58867E+4  -6.54442E+3
  -4.54403E+4  -6.24744E+3
  -4.51839E+4  -6.18365E+3
  -4.49814E+4  -5.79832E+3
  -4.46451E+4  -5.39362E+3
  -4.45197E+4  -5.13954E+3
  -4.43240E+4  -4.91471E+3
  -4.39447E+4  -4.64431E+3
  -4.36771E+4  -4.33905E+3
  -4.35123E+4  -3.96329E+3
  -4.30840E+4  -3.60191E+3
  -4.28986E+4  -3.32744E+3
  -4.27242E+4  -2.84332E+3
  -4.24436E+4  -2.46627E+3
  -4.22519E+4  -2.21581E+3
  -4.21018E+4  -2.00238E+3
  -4.16723E+4  -1.83878E+3
  -4.13998E+4  -1.52254E+3
  -4.12231E+4  -1.18184E+3
  -4.09861E+4  -9.18662E+2
  -4.07297E+4  -6.86859E+2
  -4.06034E+4  -3.97958E+2
  -4.03676E+4  -1.26946E+2
  -4.01304E+4   1.15548E+2
  -3.98852E+4   3.30157E+2
  -3.95635E+4   5.24457E+2
  -3.92568E+4   7.87852E+2
  -3.90402E+4   1.09728E+3
  -3.88589E+4   1.30787E+3
  -3.86820E+4   1.55282E+3
  -3.84292E+4   1.71019E+3
  -3.81429E+4   1.84260E+3
  -3.78587E+4   2.01870E+3
  -3.75642E+4   2.13972E+3
  -3.72385E+4   2.38477E+3
  -3.69856E+4   2.54076E+3
  -3.67225E+4   2.75227E+3
  -3.65012E+4   2.89585E+3
  -3.61700E+4   3.04984E+3
  -3.59931E+4   3.20222E+3
  -3.57058E+4   3.46694E+3
  -3.54664E+4   3.54023E+3
  -3.51482E+4   3.65445E+3
  -3.48753E+4   3.79378E+3
  -3.46319E+4   4.01261E+3
  -3.43709E+4   4.11588E+3
  -3.40466E+4   4.27263E+3
  -3.37975E+4   4.38498E+3
  -3.34457E+4   4.62116E+3
  -3.32282E+4   4.80329E+3
  -3.29166E+4   4.96592E+3
  -3.26716E+4   4.98902E+3
  -3.23607E+4   5.20216E+3
  -3.20826E+4   5.32685E+3
  -3.17689E+4   5.51733E+3
  -3.15278E+4   5.63053E+3
  -3.11709E+4   5.77540E+3
  -3.09584E+4   5.95946E+3
  -3.06998E+4   6.04018E+3
  -3.03803E+4   6.25234E+3
  -3.00926E+4   6.31177E+3
  -2.97202E+4   6.46090E+3
  -2.94965E+4   6.58142E+3
  -2.91902E+4   6.85720E+3
  -2.89411E+4   6.90013E+3
  -2.86599E+4   7.08454E+3
  -2.83955E+4   7.30059E+3
  -2.81504E+4   7.49272E+3
  -2.79143E+4   7.60637E+3
  -2.75885E+4   7.65884E+3
  -2.72675E+4   7.93353E+3
  -2.70300E+4   8.02379E+3
  -2.67760E+4   8.22526E+3
  -2.65385E+4   8.26434E+3
  -2.62357E+4   8.36601E+3
  -2.59475E+4   8.64730E+3
  -2.57321E+4   8.73518E+3
  -2.54932E+4   8.88274E+3
  -2.51930E+4   8.91297E+3
  -2.49998E+4   9.04741E+3
  -2.46990E+4   9.16659E+3
  -2.44783E+4   9.21647E+3
  -2.42376E+4   9.31142E+3
  -2.39259E+4   9.51939E+3
  -2.36382E+4   9.65952E+3
  -2.33889E+4   9.75773E+3
  -2.31930E+4   9.83181E+3
  -2.29446E+4   9.96462E+3
  -2.26869E+4   9.98745E+3
  -2.24863E+4   1.00749E+4
  -2.21837E+4   1.01512E+4
  -2.19452E+4   1.02398E+4
  -2.16881E+4   1.03258E+4
  -2.14645E+4   1.04190E+4
  -2.12377E+4   1.05160E+4
  -2.10815E+4   1.06544E+4
  -2.08224E+4   1.06072E+4
  -2.05437E+4   1.07213E+4
  -2.03020E+4   1.07841E+4
  -2.01139E+4   1.08383E+4
  -1.99201E+4   1.08911E+4
  -1.97109E+4   1.09847E+4
  -1.95408E+4   1.09987E+4
  -1.92765E+4   1.10956E+4
  -1.90482E+4   1.11629E+4
  -1.88683E+4   1.11640E+4
  -1.85645E+4   1.12284E+4
  -1.83946E+4   1.12504E+4
  -1.81626E+4   1.13922E+4
  -1.79248E+4   1.13493E+4
  -1.77611E+4   1.14368E+4
  -1.75835E+4   1.14438E+4
  -1.73227E+4   1.15164E+4
  -1.70623E+4   1.15378E+4
  -1.69154E+4   1.15814E+4
  -1.66992E+4   1.16104E+4
  -1.65563E+4   1.16389E+4
  -1.63867E+4   1.16974E+4
  -1.61041E+4   1.17734E+4
  -1.59338E+4   1.17432E+4
  -1.57071E+4   1.18091E+4
  -1.54691E+4   1.18362E+4
  -1.53966E+4   1.18157E+4
  -1.51863E+4   1.18227E+4
  -1.49713E+4   1.18459E+4
  -1.47230E+4   1.18956E+4
  -1.45555E+4   1.18896E+4
  -1.44031E+4   1.19474E+4
  -1.41654E+4   1.19019E+4
  -1.39833E+4   1.18865E+4
  -1.38485E+4   1.19839E+4
  -1.36299E+4   1.19299E+4
  -1.35185E+4   1.19556E+4
  -1.32480E+4   1.19658E+4
  -1.30480E+4   1.19511E+4
  -1.29649E+4   1.20266E+4
  -1.27364E+4   1.19161E+4
  -1.25600E+4   1.19361E+4
  -1.23581E+4   1.19687E+4
  -1.22135E+4   1.19190E+4
  -1.20680E+4   1.19583E+4
  -1.18451E+4   1.19364E+4
  -1.16901E+4   1.19050E+4
  -1.15639E+4   1.19193E+4
  -1.13749E+4   1.18656E+4
  -1.13524E+4   1.18208E+4
  -1.11206E+4   1.17978E+4
  -1.09821E+4   1.18686E+4
  -1.08098E+4   1.18205E+4
  -1.06281E+4   1.18220E+4
  -1.04066E+4   1.17745E+4
  -1.02708E+4   1.17680E+4
  -1.01791E+4   1.17569E+4
  -9.99093E+3   1.17153E+4
  -9.88951E+3   1.17128E+4
  -9.76233E+3   1.16973E+4
  -9.54892E+3   1.16615E+4
  -9.39078E+3   1.15845E+4
  -9.29368E+3   1.16331E+4
  -9.14084E+3   1.15511E+4
  -9.08286E+3   1.15279E+4
  -8.90139E+3   1.14189E+4
  -8.74324E+3   1.14648E+4
  -8.55797E+3   1.13195E+4
  -8.44618E+3   1.14213E+4
  -8.32202E+3   1.13016E+4
  -8.15710E+3   1.13045E+4
  -8.07470E+3   1.12195E+4
  -7.85885E+3   1.11902E+4
  -7.75361E+3   1.11500E+4
  -7.60947E+3   1.11335E+4
  -7.56666E+3   1.11138E+4
  -7.37670E+3   1.09562E+4
  -7.20400E+3   1.10159E+4
  -7.19115E+3   1.09628E+4
  -6.99833E+3   1.08838E+4
  -6.86636E+3   1.08299E+4
  -6.75860E+3   1.07552E+4
  -6.62510E+3   1.07438E+4
  -6.49805E+3   1.06824E+4
  -6.35272E+3   1.05705E+4
  -6.21339E+3   1.05983E+4
  -6.12478E+3   1.05128E+4
  -6.04213E+3   1.04659E+4
  -5.92640E+3   1.04415E+4
  -5.73323E+3   1.03570E+4
  -5.69483E+3   1.03276E+4
  -5.50476E+3   1.03096E+4
  -5.45680E+3   1.01815E+4
  -5.34098E+3   1.01882E+4
  -5.21793E+3   1.01215E+4
  -5.04100E+3   1.00696E+4
  -5.02344E+3   1.00513E+4
  -4.89153E+3   9.91850E+3
  -4.76372E+3   9.83472E+3
  -4.64095E+3   9.86305E+3
  -4.57254E+3   9.81784E+3
  -4.45548E+3   9.72339E+3
  -4.35422E+3   9.69782E+3
  -4.24209E+3   9.67384E+3
  -4.16946E+3   9.54449E+3
  -4.12999E+3   9.46021E+3
  -4.02166E+3   9.36602E+3
  -3.89758E+3   9.45580E+3
  -3.81371E+3   9.30764E+3
  -3.76390E+3   9.27356E+3
  -3.69530E+3   9.25781E+3
  -3.50976E+3   9.14462E+3
  -3.44186E+3   9.07541E+3
  -3.37611E+3   9.05236E+3
  -3.22700E+3   9.02463E+3
  -3.18846E+3   8.91930E+3
  -3.07238E+3   8.88175E+3
  -2.98898E+3   8.77288E+3
  -2.91445E+3   8.75020E+3
  -2.81998E+3   8.68758E+3
  -2.73021E+3   8.62204E+3
  -2.65643E+3   8.63828E+3
  -2.65244E+3   8.48926E+3
  -2.50072E+3   8.48679E+3
  -2.42526E+3   8.36944E+3
  -2.30325E+3   8.39347E+3
  -2.23472E+3   8.28723E+3
  -2.18083E+3   8.25096E+3
  -2.12231E+3   8.22171E+3
  -2.00361E+3   8.13847E+3
  -1.97258E+3   8.07419E+3
  -1.92014E+3   8.01004E+3
  -1.83844E+3   7.94592E+3
  -1.72248E+3   7.92579E+3
  -1.62425E+3   7.87183E+3
  -1.58820E+3   7.84168E+3
  -1.49121E+3   7.76086E+3
  -1.47773E+3   7.69776E+3
  -1.40578E+3   7.64210E+3
  -1.37908E+3   7.52642E+3
  -1.30766E+3   7.44799E+3
  -1.18513E+3   7.47897E+3
  -1.13013E+3   7.43461E+3
  -1.08116E+3   7.31113E+3
  -9.88234E+2   7.29253E+3
  -9.60081E+2   7.23955E+3
  -8.77977E+2   7.16088E+3
  -8.29002E+2   7.11456E+3
  -7.34147E+2   7.05354E+3
  -6.71694E+2   6.95996E+3
  -5.72709E+2   6.94209E+3
  -5.87270E+2   6.89257E+3
  -5.52430E+2   6.84610E+3
  -4.11708E+2   6.79838E+3
  -3.77127E+2   6.68092E+3
  -3.81687E+2   6.70490E+3
  -2.72493E+2   6.61975E+3
  -1.81950E+2   6.50502E+3
  -1.68230E+2   6.51171E+3
  -1.34992E+2   6.42260E+3
  -1.01209E+2   6.35551E+3
  -4.06153E+1   6.32959E+3
  -4.49798E+1   6.29196E+3
   2.17174E+0   6.21236E+3
   4.07607E+1   6.15156E+3
   1.29397E+2   6.09410E+3
   1.78950E+2   6.06181E+3
   2.47664E+2   5.98896E+3
   2.86538E+2   5.90987E+3
   2.74873E+2   5.87167E+3
   3.64326E+2   5.85390E+3
   3.49676E+2   5.77460E+3
   4.59100E+2   5.75199E+3
   4.74946E+2   5.68027E+3
   5.03811E+2   5.56040E+3
   5.66204E+2   5.50044E+3
   6.21458E+2   5.48707E+3
   6.29203E+2   5.48531E+3
   7.17661E+2   5.42494E+3
   6.75884E+2   5.39708E+3
   7.28247E+2   5.33280E+3
   8.16094E+2   5.34492E+3
   7.99469E+2   5.27659E+3
   8.51110E+2   5.14759E+3
   8.66544E+2   5.18489E+3
   9.66864E+2   5.09374E+3
   8.97697E+2   5.05034E+3
   9.62375E+2   4.96890E+3
   9.88177E+2   4.90177E+3
   1.08369E+3   4.91338E+3
   1.10056E+3   4.79926E+3
   1.09181E+3   4.77353E+3
   1.13065E+3   4.69138E+3
   1.18226E+3   4.68968E+3
   1.18547E+3   4.69559E+3
   1.12291E+3   4.62569E+3
   1.24366E+3   4.59136E+3
   1.25189E+3   4.50650E+3
   1.31710E+3   4.48563E+3
   1.26002E+3   4.46172E+3
   1.34036E+3   4.41624E+3
   1.40171E+3   4.34368E+3
   1.34100E+3   4.32492E+3
   1.36754E+3   4.26099E+3
   1.43654E+3   4.17066E+3
   1.46958E+3   4.18852E+3
   1.44376E+3   4.09238E+3
   1.48842E+3   4.07212E+3
   1.43957E+3   3.97802E+3
   1.58567E+3   3.96151E+3
   1.50881E+3   4.01169E+3
   1.55010E+3   3.85690E+3
   1.55150E+3   3.82709E+3
   1.62874E+3   3.79307E+3
   1.59972E+3   3.76032E+3
   1.64251E+3   3.76466E+3
   1.61172E+3   3.60611E+3
   1.59051E+3   3.62430E+3
   1.72760E+3   3.58020E+3
   1.74361E+3   3.47025E+3
   1.77255E+3   3.48821E+3
   1.80227E+3   3.43631E+3
   1.85247E+3   3.39320E+3
   1.76235E+3   3.39024E+3
   1.82500E+3   3.33534E+3
   1.71133E+3   3.26230E+3
   1.81593E+3   3.29943E+3
   1.78783E+3   3.15376E+3
   1.83519E+3   3.22112E+3
   1.82264E+3   3.10439E+3
   1.92076E+3   3.03663E+3
   1.87190E+3   3.07901E+3
   1.85640E+3   2.92555E+3
   1.83815E+3   3.02166E+3
   1.93112E+3   2.90685E+3
   1.91549E+3   2.88200E+3
   1.93222E+3   2.85481E+3
   1.92217E+3   2.79728E+3
   1.94158E+3   2.73612E+3
   1.96552E+3   2.70611E+3
   1.92595E+3   2.73166E+3
   1.94130E+3   2.65517E+3
   1.87478E+3   2.64559E+3
   2.00842E+3   2.58542E+3
   1.97980E+3   2.64228E+3
