 LCModel (Version 6.3-1N) Copyright: S.W. Provencher.          Ref.: Magn. Reson. Med. 30:672-679 (1993).                
 Slice_N1@23_17  02-Jun-2023 14:37:33
 27 lines in following concentration table = NCONC+1
    Conc.  %SD /Cr+PCr  Metabolite                                         
 2.13E-06  15% 2.5E-04 Mac                                                 
 6.83E-02  12%   8.000 Cr                                                  
    0.000 999%   0.000 PCr                                                 
 8.59E-02  13%  10.070 Ins                                                 
 8.91E-02   9%  10.434 NAA                                                 
 7.02E-02  16%   8.227 Tau                                                 
 2.07E-02  14%   2.427 PCho                                                
    0.000 999%   0.000 GPC                                                 
 5.03E-02  22%   5.897 Glu                                                 
 2.36E-03 295%   0.276 Gln                                                 
    0.000 999%   0.000 Ala                                                 
 4.71E-02  35%   5.515 Asc                                                 
 5.67E-03 129%   0.665 Asp                                                 
 6.11E-03  68%   0.716 GABA                                                
 3.74E-03 125%   0.438 Glc                                                 
 2.10E-04 999% 2.5E-02 GSH                                                 
    0.000 999%   0.000 Lac                                                 
    0.000 999%   0.000 NAAG                                                
    0.000 999%   0.000 PE                                                  
 2.07E-02  14%   2.427 GPC+PCho                                            
 8.91E-02   9%  10.434 NAA+NAAG                                            
 5.27E-02  25%   6.173 Glu+Gln                                             
 6.83E-02  12%   8.000 Cr+PCr                                              
 8.91E-02   9%  10.434 NAA+NAAG                                            
 6.83E-02  12%   8.000 Cr+PCr                                              
 5.27E-02  25%   6.173 Glu+Gln                                             
   6 lines in following misc. output table
  FWHM = 0.058 ppm    S/N =   2                                            
  Data shift =-0.006 ppm                                                   
  Ph:   0 deg     -10.1 deg/ppm                                            
  alphaB,S = 3.1E+01,   1.5E+02                                            
   18 spline knots.   Ns =11(1)                                            
   2 inflections.     1 extrema                                            
  654 points on ppm-axis = NY
      4.000000     3.994181     3.988363     3.982544     3.976726     3.970907     3.965088     3.959270     3.953451     3.947633
      3.941814     3.935995     3.930177     3.924358     3.918540     3.912721     3.906902     3.901084     3.895265     3.889446
      3.883628     3.877809     3.871991     3.866172     3.860353     3.854535     3.848716     3.842898     3.837079     3.831260
      3.825442     3.819623     3.813805     3.807986     3.802167     3.796349     3.790530     3.784712     3.778893     3.773074
      3.767256     3.761437     3.755619     3.749800     3.743981     3.738163     3.732344     3.726526     3.720707     3.714888
      3.709070     3.703251     3.697433     3.691614     3.685795     3.679977     3.674158     3.668339     3.662521     3.656702
      3.650884     3.645065     3.639246     3.633428     3.627609     3.621791     3.615972     3.610153     3.604335     3.598516
      3.592698     3.586879     3.581060     3.575242     3.569423     3.563605     3.557786     3.551967     3.546149     3.540330
      3.534512     3.528693     3.522874     3.517056     3.511237     3.505419     3.499600     3.493781     3.487963     3.482144
      3.476326     3.470507     3.464688     3.458870     3.453051     3.447232     3.441414     3.435595     3.429777     3.423958
      3.418139     3.412321     3.406502     3.400684     3.394865     3.389046     3.383228     3.377409     3.371591     3.365772
      3.359953     3.354135     3.348316     3.342498     3.336679     3.330860     3.325042     3.319223     3.313405     3.307586
      3.301767     3.295949     3.290130     3.284312     3.278493     3.272674     3.266856     3.261037     3.255219     3.249400
      3.243581     3.237763     3.231944     3.226125     3.220307     3.214488     3.208670     3.202851     3.197032     3.191214
      3.185395     3.179577     3.173758     3.167939     3.162121     3.156302     3.150484     3.144665     3.138846     3.133028
      3.127209     3.121391     3.115572     3.109753     3.103935     3.098116     3.092298     3.086479     3.080660     3.074842
      3.069023     3.063205     3.057386     3.051567     3.045749     3.039930     3.034111     3.028293     3.022474     3.016656
      3.010837     3.005018     2.999200     2.993381     2.987563     2.981744     2.975925     2.970107     2.964288     2.958470
      2.952651     2.946832     2.941014     2.935195     2.929377     2.923558     2.917739     2.911921     2.906102     2.900284
      2.894465     2.888646     2.882828     2.877009     2.871191     2.865372     2.859553     2.853735     2.847916     2.842098
      2.836279     2.830460     2.824642     2.818823     2.813004     2.807186     2.801367     2.795549     2.789730     2.783911
      2.778093     2.772274     2.766456     2.760637     2.754818     2.749000     2.743181     2.737363     2.731544     2.725725
      2.719907     2.714088     2.708270     2.702451     2.696632     2.690814     2.684995     2.679177     2.673358     2.667539
      2.661721     2.655902     2.650084     2.644265     2.638446     2.632628     2.626809     2.620991     2.615172     2.609353
      2.603535     2.597716     2.591897     2.586079     2.580260     2.574442     2.568623     2.562804     2.556986     2.551167
      2.545349     2.539530     2.533711     2.527893     2.522074     2.516256     2.510437     2.504618     2.498800     2.492981
      2.487163     2.481344     2.475525     2.469707     2.463888     2.458070     2.452251     2.446432     2.440614     2.434795
      2.428977     2.423158     2.417339     2.411521     2.405702     2.399884     2.394065     2.388246     2.382428     2.376609
      2.370790     2.364972     2.359153     2.353335     2.347516     2.341697     2.335879     2.330060     2.324242     2.318423
      2.312604     2.306786     2.300967     2.295149     2.289330     2.283511     2.277693     2.271874     2.266056     2.260237
      2.254418     2.248600     2.242781     2.236963     2.231144     2.225325     2.219507     2.213688     2.207870     2.202051
      2.196232     2.190414     2.184595     2.178777     2.172958     2.167139     2.161321     2.155502     2.149683     2.143865
      2.138046     2.132228     2.126409     2.120590     2.114772     2.108953     2.103135     2.097316     2.091497     2.085679
      2.079860     2.074042     2.068223     2.062404     2.056586     2.050767     2.044949     2.039130     2.033311     2.027493
      2.021674     2.015856     2.010037     2.004218     1.998400     1.992581     1.986763     1.980944     1.975126     1.969307
      1.963489     1.957670     1.951852     1.946033     1.940215     1.934397     1.928578     1.922760     1.916941     1.911123
      1.905304     1.899486     1.893667     1.887849     1.882030     1.876212     1.870393     1.864575     1.858756     1.852938
      1.847119     1.841301     1.835482     1.829664     1.823845     1.818027     1.812208     1.806390     1.800571     1.794753
      1.788934     1.783116     1.777297     1.771479     1.765660     1.759842     1.754023     1.748205     1.742386     1.736568
      1.730749     1.724931     1.719113     1.713294     1.707476     1.701657     1.695839     1.690020     1.684202     1.678383
      1.672565     1.666746     1.660928     1.655109     1.649291     1.643472     1.637654     1.631835     1.626017     1.620198
      1.614380     1.608561     1.602743     1.596924     1.591106     1.585287     1.579469     1.573650     1.567832     1.562013
      1.556195     1.550376     1.544558     1.538739     1.532921     1.527102     1.521284     1.515465     1.509647     1.503829
      1.498010     1.492192     1.486373     1.480555     1.474736     1.468918     1.463099     1.457281     1.451462     1.445644
      1.439825     1.434007     1.428188     1.422370     1.416551     1.410733     1.404914     1.399096     1.393277     1.387459
      1.381640     1.375822     1.370003     1.364185     1.358366     1.352548     1.346729     1.340911     1.335092     1.329274
      1.323455     1.317637     1.311818     1.306000     1.300182     1.294363     1.288545     1.282726     1.276908     1.271089
      1.265271     1.259452     1.253634     1.247815     1.241997     1.236178     1.230360     1.224541     1.218723     1.212904
      1.207086     1.201267     1.195449     1.189630     1.183812     1.177993     1.172175     1.166356     1.160538     1.154719
      1.148901     1.143082     1.137264     1.131445     1.125627     1.119808     1.113990     1.108171     1.102353     1.096534
      1.090716     1.084898     1.079079     1.073261     1.067442     1.061624     1.055805     1.049987     1.044168     1.038350
      1.032531     1.026713     1.020894     1.015076     1.009257     1.003439     0.997620     0.991802     0.985983     0.980165
      0.974346     0.968528     0.962709     0.956891     0.951072     0.945254     0.939435     0.933617     0.927798     0.921980
      0.916161     0.910343     0.904524     0.898706     0.892887     0.887069     0.881251     0.875432     0.869614     0.863795
      0.857977     0.852158     0.846340     0.840521     0.834703     0.828884     0.823066     0.817247     0.811429     0.805610
      0.799792     0.793973     0.788155     0.782336     0.776518     0.770699     0.764881     0.759062     0.753244     0.747425
      0.741607     0.735788     0.729970     0.724151     0.718333     0.712514     0.706696     0.700877     0.695059     0.689240
      0.683422     0.677603     0.671785     0.665967     0.660148     0.654330     0.648511     0.642693     0.636874     0.631056
      0.625237     0.619419     0.613600     0.607782     0.601963     0.596145     0.590326     0.584508     0.578689     0.572871
      0.567052     0.561234     0.555415     0.549597     0.543778     0.537960     0.532141     0.526323     0.520504     0.514686
      0.508867     0.503049     0.497230     0.491412     0.485593     0.479775     0.473956     0.468138     0.462319     0.456501
      0.450682     0.444864     0.439045     0.433227     0.427408     0.421590     0.415771     0.409953     0.404134     0.398316
      0.392497     0.386679     0.380860     0.375042     0.369223     0.363405     0.357586     0.351767     0.345949     0.340130
      0.334312     0.328493     0.322675     0.316856     0.311038     0.305219     0.299401     0.293582     0.287764     0.281945
      0.276127     0.270308     0.264490     0.258671     0.252853     0.247034     0.241216     0.235397     0.229579     0.223760
      0.217942     0.212123     0.206305     0.200486
 NY phased data points follow
  -3.12730E-02 -1.02718E-01 -1.27515E-01 -1.56050E-01  2.03361E-01 -2.42515E-01 -2.40504E-01 -1.52284E-01 -2.10310E-01 -5.71003E-02
  -1.03605E-01  1.47839E-01  1.96287E-01  2.60824E-01  1.66832E-01  4.30757E-01  1.55472E-01  1.41097E-01  4.07537E-01  3.81592E-01
   7.75689E-02 -9.04082E-02  4.45182E-01 -6.98817E-03 -5.44904E-02 -3.30344E-02 -2.60957E-02  5.60713E-02 -5.95922E-02  7.92964E-02
  -9.63622E-02 -1.83788E-01 -3.22003E-01 -7.26169E-02 -2.07339E-01 -2.05716E-01  1.42757E-01 -5.48483E-02 -2.17568E-01 -1.41098E-01
  -7.79070E-02 -7.09067E-02 -1.50708E-01 -8.70375E-02  4.11273E-01  1.13926E-01 -3.30371E-02  4.55166E-01  4.09173E-01  4.29780E-02
   9.36336E-02  8.54597E-03 -9.29278E-02  1.63458E-01 -2.01437E-01 -1.61081E-01 -2.10477E-01 -5.81057E-02 -1.43909E-01 -5.24470E-01
  -2.24841E-01 -2.19784E-01 -2.17196E-01 -3.88006E-01 -1.64912E-01 -1.14976E-01 -4.88734E-02  1.49284E-01  3.66161E-01  3.37093E-01
  -4.51227E-02  3.98817E-01  1.84464E-01 -2.48172E-01 -3.46367E-02  2.57898E-01  6.38621E-02  1.69372E-01  1.59119E-02 -1.47031E-01
   5.41462E-01 -3.41956E-02 -1.86064E-01  3.22813E-01  3.29821E-01  2.98477E-01  1.67044E-01  2.68050E-01  3.07686E-01  2.98676E-01
   1.68282E-01  1.50955E-01  1.50312E-01  2.96391E-02  2.01000E-01  1.47261E-01 -3.47227E-02  1.03071E-01  2.30809E-02 -2.37061E-01
  -2.06677E-01 -1.53842E-01 -1.99986E-01 -4.44489E-02  2.60690E-02  1.50540E-01  3.45492E-01  5.04709E-01  6.21055E-01  1.33190E-01
   1.47439E-01  2.32223E-01 -1.42345E-01  3.44807E-01  3.62164E-01  1.77625E-01  1.43015E-01  4.18107E-03  1.90972E-01  6.74776E-02
   1.86756E-01 -8.61702E-02 -1.01878E-01 -1.04505E-01 -2.66960E-01 -9.95330E-02 -3.68360E-01 -2.24572E-01 -3.66218E-01 -3.61963E-01
  -5.91945E-01 -5.87514E-01 -5.61624E-01 -8.25396E-01 -3.78430E-01 -6.15063E-01 -5.25706E-01 -5.06610E-01 -5.57658E-01 -5.20277E-01
  -6.43180E-01 -4.87779E-01 -1.83916E-01  3.48124E-03 -2.18823E-01 -2.47612E-02 -1.51013E-01  9.35980E-03  7.78559E-02  7.77159E-02
   1.66426E-01  2.70599E-02  4.00848E-01  8.74362E-03  3.49035E-02  2.35840E-01  1.91736E-01  3.25115E-01  2.39638E-01  2.78026E-01
   1.36177E-01  4.73540E-01  5.06083E-01  5.55297E-01  5.24886E-01  1.85930E-01  1.31107E-01 -6.49158E-02 -9.08041E-02 -4.40480E-01
  -3.10800E-01 -3.32970E-01 -6.08052E-01 -3.69258E-01 -3.35192E-01 -2.78123E-01 -3.70612E-01 -3.22902E-01 -3.57475E-01 -4.71586E-01
  -3.19441E-01 -4.58228E-01 -3.98424E-01 -7.26543E-02 -3.37901E-01 -3.18539E-01 -1.13737E-01 -4.63525E-02 -7.45045E-02 -1.13886E-01
  -2.17429E-01 -5.98494E-01 -2.35238E-01 -3.31632E-01 -3.73237E-01  1.59892E-01  1.87655E-01 -2.18610E-01 -1.99690E-01  1.02122E-02
  -2.71847E-01 -3.37315E-01 -1.73903E-01  2.24374E-01 -2.36484E-01 -9.76970E-02  1.06378E-01  2.12205E-02  2.72677E-01 -1.71579E-01
   8.73435E-02  7.20152E-02 -7.67201E-02 -1.62169E-02  1.24717E-01 -3.23181E-02  4.85887E-02  7.53248E-02 -2.81015E-01  1.14963E-01
  -2.04960E-02  1.47712E-01  7.05441E-03 -1.34272E-01  1.59477E-01  1.50076E-01  3.05360E-01  1.72745E-01  1.69383E-01  2.72287E-01
   2.45130E-01  1.91854E-01  1.53735E-01  2.13893E-01  1.27344E-01 -2.35544E-01  8.20398E-02  9.49843E-02 -3.83139E-02  2.85599E-02
   1.32169E-01  6.21029E-02 -4.93902E-01  7.08016E-02 -1.19087E-01 -3.25885E-01 -2.51906E-01 -2.88539E-01  2.47379E-02 -1.10236E-01
  -6.04709E-02 -1.52230E-01  4.19599E-02 -4.59283E-03  6.91928E-03  9.07265E-02  1.82648E-01 -5.58899E-02 -1.58923E-01 -5.86037E-02
  -1.04995E-01  2.39201E-01 -1.45384E-01  1.68526E-01  3.85432E-01  1.82021E-01  2.76389E-01  4.82767E-02 -4.49549E-02  2.19628E-01
   3.23135E-01  1.81027E-01  2.07995E-01  1.23488E-01 -1.17005E-01 -1.82006E-01  3.14412E-02 -2.30775E-01  1.03985E-02  7.56812E-02
  -7.20966E-02 -3.51642E-02  1.38993E-01  1.42546E-01 -4.12223E-02  3.10060E-01  1.65439E-01  3.43660E-01  1.67851E-01  4.58511E-01
   3.77386E-01  2.04908E-02  1.02819E-01 -5.04121E-02  3.26115E-01  2.39672E-01  1.09313E-01 -9.81571E-03  4.95415E-02 -3.07966E-01
   1.82260E-01  4.88569E-01  3.48959E-01  5.35200E-01  4.78147E-01  5.15776E-01  2.89329E-01  5.67260E-01  2.52690E-01  6.70049E-01
   3.84071E-01  1.29548E-01  3.81873E-01  1.63243E-01  6.02131E-01  1.38608E-01  4.01132E-01  2.93997E-01 -7.59263E-02  7.07192E-02
   1.04197E-02 -7.92124E-02 -1.88537E-01  3.42624E-02 -1.19763E-01 -1.33915E-01 -1.06669E-01 -1.97168E-01 -9.88708E-02 -6.96847E-02
  -1.56551E-01  1.51257E-01  1.86112E-01 -3.37253E-01 -2.49652E-01 -1.50918E-01 -2.86409E-01 -2.28740E-01 -4.00969E-01 -5.66734E-01
  -4.89377E-01 -5.90044E-01 -8.09080E-01 -5.22315E-01 -7.21668E-01 -8.72693E-01 -3.28189E-01 -5.36244E-01 -4.11078E-01 -1.26638E-01
  -7.68721E-02 -2.02474E-01 -1.07561E-01 -2.39104E-03 -4.43106E-01 -7.08700E-02  6.18633E-02  2.11283E-02  3.44152E-02  8.57390E-02
   2.04472E-01  2.33844E-01  2.97376E-01 -1.04569E-01  1.68670E-01  2.27294E-01 -1.00579E-02  2.50478E-01  6.51375E-02 -8.16701E-02
   2.43708E-02  1.00434E-02 -1.60995E-01 -1.54129E-04  4.23536E-01  1.15911E-01 -7.33278E-02  1.76830E-01  1.08609E-01  8.74574E-02
   3.57722E-02  7.14211E-02  2.35774E-01  4.11327E-01  1.45194E-01 -1.24277E-01  1.10089E-01  4.40167E-02  9.91186E-02 -1.62620E-02
   1.51147E-01  3.12666E-01 -5.81204E-02  3.01147E-01  3.30401E-01 -6.35713E-03  9.02438E-02  2.47553E-01  2.56583E-01  1.00367E-01
   5.29127E-02 -2.72704E-02 -1.55417E-01  2.04767E-01  1.33697E-01 -5.95143E-02 -1.75920E-02 -3.96164E-01 -3.48745E-02 -2.06880E-01
  -2.93607E-01 -6.09633E-02 -1.51509E-01 -7.57805E-03 -1.26855E-01 -1.33365E-01 -3.09602E-01  8.68491E-02 -2.96188E-01 -4.98641E-01
  -1.04719E-01 -2.61001E-01 -9.93484E-02 -3.57474E-01 -1.76405E-01 -8.37038E-02 -2.87097E-01 -9.89487E-02  1.15247E-01 -1.17173E-01
  -1.79966E-01 -2.69660E-01 -3.63436E-01  1.54069E-01 -8.45681E-03 -2.63426E-01  1.05945E-01  1.16853E-01 -2.09571E-01  1.05618E-01
  -1.40721E-02  9.28045E-03  1.68396E-01 -1.31486E-01  2.09348E-01  3.28197E-01  1.13324E-01  7.73440E-02  2.42347E-01  1.70298E-01
   2.26206E-01  2.12839E-01  2.09368E-01  2.18386E-01  1.32284E-01  2.55314E-01  1.54074E-01  1.68088E-01 -7.65528E-02 -1.06255E-01
   1.60052E-01  4.40670E-02 -2.02605E-01  7.49480E-02  1.39231E-01 -1.11995E-01  1.17956E-01 -7.67754E-02 -1.55390E-01 -2.04088E-01
  -2.71771E-01  9.47097E-02  8.64570E-02 -6.60728E-02  1.24972E-02  2.19402E-01  2.54298E-01  1.58900E-01  9.13923E-02 -1.25569E-01
  -6.63024E-03 -1.22352E-02 -1.21021E-01  1.15117E-01 -5.82940E-02  1.04653E-02  9.90134E-02 -1.09146E-01 -2.09059E-03 -6.05011E-03
   1.23559E-02  1.10351E-01 -1.87283E-01 -7.89469E-02  2.60144E-01 -3.10944E-02  8.67007E-02  7.75085E-02  1.32631E-01  3.51963E-01
   4.45230E-02  1.53374E-01  9.24433E-02  3.20949E-01  4.00718E-01 -5.31486E-02 -7.72889E-03 -1.38125E-01 -1.11316E-01  1.38714E-02
   1.66918E-01  9.77198E-02 -1.01366E-01 -2.22270E-02 -6.11319E-02  1.67837E-01 -6.61355E-02 -1.73282E-01  1.11743E-01  1.76004E-01
   1.00641E-01 -3.38702E-02  2.55146E-01  8.27322E-02 -2.54267E-01 -2.84498E-01 -3.92955E-02 -9.76912E-02 -5.05518E-01 -4.78723E-01
  -3.29309E-01 -1.14675E-01 -1.78225E-01 -1.62377E-01 -1.22457E-01 -2.44101E-01 -3.33999E-01 -1.78880E-01 -1.89996E-01 -1.28305E-01
  -8.21962E-02 -3.55644E-01  2.66140E-01  1.07471E-01 -1.92663E-01  3.21319E-02 -1.71321E-01 -2.21790E-01  4.25491E-02  2.88616E-01
   3.46397E-02  2.05528E-01  4.16439E-02  1.28162E-01  3.75035E-01  4.54458E-02  7.15276E-02  3.19973E-01  3.90842E-01  2.87961E-02
   2.94552E-01  2.51822E-01  1.90781E-02  1.88623E-01  1.65243E-02  2.29490E-02  1.20069E-01  1.88426E-01  9.51176E-02  1.02069E-01
   3.00828E-01  1.22639E-01  3.27239E-02  2.04477E-01  1.77620E-01  9.68327E-02  6.52284E-02  2.96027E-01 -5.47179E-02 -1.81878E-01
   2.98596E-01  1.48620E-01 -7.59578E-02 -1.41202E-01  1.30540E-02  1.15511E-01  1.04745E-01 -5.47810E-03  2.02102E-01  5.19448E-02
  -7.15067E-02  1.20024E-01  2.06049E-01  9.22143E-02 -2.88674E-01  1.98688E-01 -1.27224E-01 -7.02746E-02  2.25233E-01 -2.21915E-02
  -1.55697E-01 -8.82334E-02  3.09974E-01  2.48776E-01  3.94433E-01 -3.63443E-01 -9.47734E-02  2.45481E-01 -7.89921E-02  6.78797E-02
  -2.32614E-02 -1.47940E-01 -1.12924E-01  4.67435E-01  2.58211E-02 -1.61623E-01 -1.83467E-01 -6.46435E-02  8.27765E-02  2.68157E-01
   1.21263E-01 -1.46020E-01  1.28636E-01 -7.97227E-02  1.64295E-01 -1.64793E-01  1.58441E-01 -3.15620E-02  1.55391E-01  3.45497E-01
  -6.72067E-02  2.73867E-01 -9.82457E-03  5.66460E-01 -1.78507E-01 -1.41606E-01  2.53693E-01 -6.82981E-02  1.55611E-01 -1.68619E-01
   2.41837E-01  2.21042E-01  2.25993E-01  1.26928E-01 -8.83340E-02 -1.49953E-01 -5.57866E-02  1.36454E-01  7.07663E-02  3.84243E-02
  -1.40384E-01  5.51599E-02  5.20520E-02  3.29124E-01
 NY points of the fit to the data follow
   9.63637E-02  7.99317E-02  6.12465E-02  4.40871E-02  3.15749E-02  2.63942E-02  3.04127E-02  4.26703E-02  6.26974E-02  9.13644E-02
   1.27968E-01  1.70132E-01  2.14100E-01  2.54552E-01  2.87997E-01  3.09723E-01  3.16477E-01  3.06360E-01  2.77540E-01  2.31296E-01
   1.73302E-01  1.12573E-01  5.84680E-02  1.55449E-02 -1.76764E-02 -4.48564E-02 -7.03142E-02 -9.59737E-02 -1.18479E-01 -1.33548E-01
  -1.47045E-01 -1.59832E-01 -1.71942E-01 -1.82601E-01 -1.90651E-01 -1.94593E-01 -1.92746E-01 -1.83953E-01 -1.67361E-01 -1.42279E-01
  -1.09419E-01 -7.03482E-02 -2.73146E-02  1.62877E-02  5.68943E-02  9.08341E-02  1.14805E-01  1.26890E-01  1.26236E-01  1.13165E-01
   8.95989E-02  5.79434E-02  2.02124E-02 -2.10995E-02 -6.36273E-02 -1.07180E-01 -1.49001E-01 -1.84913E-01 -2.13220E-01 -2.30880E-01
  -2.35773E-01 -2.26819E-01 -2.03161E-01 -1.65631E-01 -1.17269E-01 -6.06242E-02 -9.13696E-04  5.60429E-02  1.06142E-01  1.44000E-01
   1.64946E-01  1.67570E-01  1.51429E-01  1.18020E-01  7.29130E-02  2.27660E-02 -2.48181E-02 -6.16391E-02 -8.59628E-02 -9.54164E-02
  -8.36439E-02 -5.42199E-02 -9.80943E-03  4.82753E-02  1.12334E-01  1.73532E-01  2.23647E-01  2.56286E-01  2.69134E-01  2.62833E-01
   2.40124E-01  2.05677E-01  1.62972E-01  1.13477E-01  6.18216E-02  1.41041E-02 -2.79928E-02 -5.99376E-02 -7.64684E-02 -7.58297E-02
  -5.78809E-02 -2.40835E-02  2.24592E-02  7.62724E-02  1.30635E-01  1.79017E-01  2.16919E-01  2.43282E-01  2.60223E-01  2.70897E-01
   2.77811E-01  2.81684E-01  2.82531E-01  2.78675E-01  2.72281E-01  2.62143E-01  2.48487E-01  2.30418E-01  2.06489E-01  1.74314E-01
   1.32930E-01  8.23299E-02  2.34966E-02 -4.15889E-02 -1.10040E-01 -1.79513E-01 -2.49962E-01 -3.19215E-01 -3.82765E-01 -4.38709E-01
  -4.88078E-01 -5.30995E-01 -5.66420E-01 -5.92382E-01 -6.07627E-01 -6.13471E-01 -6.10391E-01 -5.95949E-01 -5.66499E-01 -5.18171E-01
  -4.46465E-01 -3.57949E-01 -2.64842E-01 -1.82635E-01 -1.15672E-01 -6.41229E-02 -2.15103E-02  1.88176E-02  5.91154E-02  9.31852E-02
   1.17600E-01  1.38760E-01  1.58648E-01  1.78428E-01  1.99163E-01  2.22202E-01  2.49673E-01  2.80869E-01  3.10690E-01  3.35297E-01
   3.53380E-01  3.61163E-01  3.52902E-01  3.23737E-01  2.71214E-01  1.96872E-01  1.03897E-01 -2.88116E-03 -1.16102E-01 -2.28016E-01
  -3.28858E-01 -4.06798E-01 -4.52774E-01 -4.64882E-01 -4.50795E-01 -4.24303E-01 -3.96379E-01 -3.71813E-01 -3.49602E-01 -3.24268E-01
  -2.92520E-01 -2.63187E-01 -2.40454E-01 -2.21288E-01 -2.04301E-01 -1.89040E-01 -1.75012E-01 -1.62197E-01 -1.50404E-01 -1.39495E-01
  -1.29333E-01 -1.19748E-01 -1.10628E-01 -1.01928E-01 -9.36365E-02 -8.57258E-02 -7.81570E-02 -7.08990E-02 -6.40389E-02 -5.77292E-02
  -5.20206E-02 -4.69298E-02 -4.25024E-02 -3.87974E-02 -3.58464E-02 -3.36114E-02 -3.19885E-02 -3.08141E-02 -2.98941E-02 -2.91161E-02
  -2.84324E-02 -2.77886E-02 -2.70492E-02 -2.59481E-02 -2.37642E-02 -1.96016E-02 -1.32375E-02 -4.85123E-03  5.83263E-03  1.99392E-02
   3.87004E-02  6.16701E-02  8.72221E-02  1.14301E-01  1.41870E-01  1.68207E-01  1.91116E-01  2.07963E-01  2.16674E-01  2.16306E-01
   2.07174E-01  1.90966E-01  1.69284E-01  1.42802E-01  1.12409E-01  8.00445E-02  4.87070E-02  2.16588E-02  1.02921E-03 -1.42256E-02
  -2.66663E-02 -3.84768E-02 -4.97598E-02 -5.87865E-02 -6.57591E-02 -7.26060E-02 -7.92623E-02 -8.53640E-02 -9.11312E-02 -9.60744E-02
  -9.87691E-02 -9.82162E-02 -9.38096E-02 -8.49065E-02 -7.10211E-02 -5.17538E-02 -2.78468E-02 -6.08231E-04  2.86937E-02  5.77066E-02
   8.39131E-02  1.05268E-01  1.20416E-01  1.29091E-01  1.31398E-01  1.27593E-01  1.18618E-01  1.05325E-01  8.80934E-02  6.79800E-02
   4.69587E-02  2.42215E-02 -8.13992E-06 -2.39452E-02 -4.73960E-02 -6.93033E-02 -8.91142E-02 -1.04336E-01 -1.12967E-01 -1.13932E-01
  -1.06016E-01 -8.88682E-02 -6.29445E-02 -2.95646E-02  8.92946E-03  4.95513E-02  8.87858E-02  1.22886E-01  1.49119E-01  1.66276E-01
   1.74957E-01  1.77436E-01  1.76466E-01  1.74257E-01  1.72056E-01  1.70522E-01  1.69224E-01  1.68242E-01  1.67650E-01  1.66838E-01
   1.66129E-01  1.65210E-01  1.63834E-01  1.62028E-01  1.59669E-01  1.56601E-01  1.52586E-01  1.47200E-01  1.40446E-01  1.32042E-01
   1.21828E-01  1.09658E-01  9.54234E-02  7.91837E-02  6.11877E-02  4.18995E-02  2.20420E-02  2.51160E-03 -1.56927E-02 -3.16006E-02
  -4.42118E-02 -5.28122E-02 -5.71410E-02 -5.73850E-02 -5.42186E-02 -4.86324E-02 -4.17913E-02 -3.48505E-02 -2.89516E-02 -2.49728E-02
  -2.37565E-02 -2.82079E-02 -4.44694E-02 -7.47408E-02 -1.16892E-01 -1.71302E-01 -2.40636E-01 -3.23952E-01 -4.17053E-01 -5.11883E-01
  -5.99937E-01 -6.73692E-01 -7.24779E-01 -7.46965E-01 -7.35187E-01 -6.85711E-01 -6.01519E-01 -4.94825E-01 -3.84804E-01 -2.89479E-01
  -2.17010E-01 -1.63961E-01 -1.22817E-01 -8.49591E-02 -4.84550E-02 -2.23055E-02 -1.08325E-02 -4.35022E-03 -6.13904E-04  1.40274E-03
   2.35421E-03  2.79904E-03  3.24245E-03  4.07682E-03  5.58771E-03  7.96640E-03  1.12547E-02  1.53530E-02  2.01089E-02  2.52761E-02
   3.06043E-02  3.58875E-02  4.10327E-02  4.59466E-02  5.06430E-02  5.51001E-02  5.92345E-02  6.31164E-02  6.66983E-02  7.00948E-02
   7.33118E-02  7.63710E-02  7.92797E-02  8.20588E-02  8.47111E-02  8.72584E-02  8.97034E-02  9.19927E-02  9.40680E-02  9.58833E-02
   9.73751E-02  9.84921E-02  9.91415E-02  9.92146E-02  9.86051E-02  9.72904E-02  9.52795E-02  9.26346E-02  8.94134E-02  8.56644E-02
   8.14303E-02  7.67585E-02  7.17383E-02  6.64543E-02  6.10486E-02  5.56352E-02  5.03194E-02  4.51681E-02  4.02337E-02  3.55478E-02
   3.11397E-02  2.70203E-02  2.32028E-02  1.97031E-02  1.65321E-02  1.36909E-02  1.11882E-02  9.01967E-03  7.23477E-03  5.90345E-03
   5.08424E-03  4.79269E-03  5.04662E-03  5.85639E-03  7.21176E-03  9.11275E-03  1.15117E-02  1.43499E-02  1.75772E-02  2.11530E-02
   2.50568E-02  2.92956E-02  3.38802E-02  3.88595E-02  4.42905E-02  5.02396E-02  5.67943E-02  6.39736E-02  7.17135E-02  7.99389E-02
   8.85546E-02  9.74711E-02  1.06596E-01  1.15792E-01  1.24832E-01  1.33456E-01  1.41421E-01  1.48514E-01  1.54556E-01  1.59391E-01
   1.62892E-01  1.64961E-01  1.65556E-01  1.64706E-01  1.62482E-01  1.58968E-01  1.54286E-01  1.48552E-01  1.41901E-01  1.34542E-01
   1.26707E-01  1.18628E-01  1.10521E-01  1.02532E-01  9.47814E-02  8.73676E-02  8.03873E-02  7.39297E-02  6.81071E-02  6.29960E-02
   5.86491E-02  5.50893E-02  5.23672E-02  5.05259E-02  4.95867E-02  4.95357E-02  5.03378E-02  5.19032E-02  5.41153E-02  5.68734E-02
   6.00229E-02  6.34136E-02  6.69137E-02  7.04111E-02  7.37955E-02  7.69629E-02  7.97964E-02  8.22126E-02  8.41931E-02  8.57213E-02
   8.67613E-02  8.73006E-02  8.73111E-02  8.67715E-02  8.56953E-02  8.41370E-02  8.21806E-02  7.98998E-02  7.73760E-02  7.46677E-02
   7.18026E-02  6.88070E-02  6.57302E-02  6.26092E-02  5.94399E-02  5.62213E-02  5.29489E-02  4.95999E-02  4.61557E-02  4.25258E-02
   3.86155E-02  3.43167E-02  2.95041E-02  2.40520E-02  1.78347E-02  1.07552E-02  2.74898E-03 -6.20771E-03 -1.61111E-02 -2.69350E-02
  -3.86082E-02 -5.09668E-02 -6.37835E-02 -7.68016E-02 -8.97046E-02 -1.02127E-01 -1.13726E-01 -1.24232E-01 -1.33426E-01 -1.41127E-01
  -1.47192E-01 -1.51530E-01 -1.54117E-01 -1.55005E-01 -1.54320E-01 -1.52245E-01 -1.48942E-01 -1.44596E-01 -1.39363E-01 -1.33379E-01
  -1.26751E-01 -1.19570E-01 -1.11908E-01 -1.03822E-01 -9.53587E-02 -8.65746E-02 -7.75845E-02 -6.85134E-02 -5.94664E-02 -5.05491E-02
  -4.18396E-02 -3.33903E-02 -2.52663E-02 -1.75212E-02 -1.02059E-02 -3.34775E-03  3.03588E-03  8.91646E-03  1.43007E-02  1.91999E-02
   2.36160E-02  2.75634E-02  3.10688E-02  3.41734E-02  3.69223E-02  3.93884E-02  4.16100E-02  4.36252E-02  4.54730E-02  4.71939E-02
   4.88367E-02  5.04170E-02  5.18882E-02  5.32474E-02  5.44919E-02  5.55676E-02  5.64593E-02  5.71585E-02  5.76826E-02  5.80833E-02
   5.83863E-02  5.86091E-02  5.87697E-02  5.88855E-02  5.89560E-02  5.89540E-02  5.88860E-02  5.87746E-02  5.86074E-02  5.83572E-02
   5.80397E-02  5.76795E-02  5.72763E-02  5.68764E-02  5.65385E-02  5.62863E-02  5.61300E-02  5.60547E-02  5.60302E-02  5.60682E-02
   5.62061E-02  5.64868E-02  5.69298E-02  5.74833E-02  5.80777E-02  5.86854E-02  5.92743E-02  5.98063E-02  6.02695E-02  6.06720E-02
   6.10347E-02  6.13379E-02  6.15997E-02  6.18676E-02  6.21858E-02  6.25932E-02  6.31017E-02  6.37224E-02  6.44443E-02  6.52355E-02
   6.60458E-02  6.68170E-02  6.75111E-02  6.81443E-02  6.87108E-02  6.91876E-02  6.95231E-02  6.97053E-02  6.97484E-02  6.97246E-02
   6.96987E-02  6.97002E-02  6.97286E-02  6.97563E-02  6.97677E-02  6.97979E-02  6.98867E-02  7.00646E-02  7.03540E-02  7.07267E-02
   7.11775E-02  7.17294E-02  7.24117E-02  7.32456E-02  7.42181E-02  7.53337E-02  7.66083E-02  7.80339E-02  7.96059E-02  8.13034E-02
   8.30660E-02  8.48536E-02  8.66731E-02  8.85330E-02
 NY background values follow
     4.659E-02    4.651E-02    4.643E-02    4.635E-02    4.626E-02    4.618E-02    4.610E-02    4.602E-02    4.594E-02    4.586E-02
     4.578E-02    4.570E-02    4.562E-02    4.554E-02    4.546E-02    4.538E-02    4.530E-02    4.522E-02    4.514E-02    4.505E-02
     4.497E-02    4.489E-02    4.481E-02    4.473E-02    4.465E-02    4.457E-02    4.449E-02    4.441E-02    4.433E-02    4.425E-02
     4.416E-02    4.408E-02    4.400E-02    4.392E-02    4.384E-02    4.376E-02    4.368E-02    4.360E-02    4.352E-02    4.343E-02
     4.335E-02    4.327E-02    4.319E-02    4.311E-02    4.303E-02    4.295E-02    4.286E-02    4.278E-02    4.270E-02    4.262E-02
     4.254E-02    4.246E-02    4.238E-02    4.229E-02    4.221E-02    4.213E-02    4.205E-02    4.197E-02    4.189E-02    4.180E-02
     4.172E-02    4.164E-02    4.156E-02    4.148E-02    4.140E-02    4.131E-02    4.123E-02    4.115E-02    4.107E-02    4.099E-02
