 
 $NMID
 ID=''
 FMTDAT='(2E13.5)'
 TRAMP=   1.00000E+0
 VOLUME=   1.00000E+0
 $END
   5.15630E+2   1.62984E+2
  -7.60577E+2   1.85040E+3
   4.91078E+3  -7.72699E+2
   2.91034E+3  -8.94878E+2
  -4.71307E+2  -3.45106E+3
   1.08545E+2  -1.92108E+3
  -2.95439E+3  -6.93859E+2
  -3.00701E+3  -1.94664E+3
  -1.38579E+3  -1.90829E+3
   7.28813E+2  -3.90366E+2
   1.89873E+2   2.51015E+3
   3.62742E+3   3.07564E+3
  -1.14492E+3   3.39080E+3
  -2.58710E+3   1.09429E+3
  -1.87748E+3  -2.35812E+3
   2.69168E+3  -1.77491E+3
   3.16731E+3   4.57713E+2
   2.72939E+3   1.25669E+2
  -1.79747E+3  -1.01807E+3
  -1.36269E+3  -1.46622E+3
   4.30148E+3  -1.95975E+3
  -9.66649E+2   4.26443E+3
  -6.75376E+3   1.00856E+1
  -1.40766E+3  -5.16872E+3
   1.81857E+3   9.50947E+1
  -2.22488E+3   3.13029E+3
  -4.11298E+3  -1.15985E+3
  -8.57923E+2  -2.49449E+3
   2.36542E+2  -1.77393E+3
   5.72381E+3   2.36779E+3
   2.38922E+2   5.81896E+3
  -4.45066E+3   5.60244E+3
  -3.69398E+3  -3.53254E+3
   1.73352E+3  -2.73544E+2
  -4.75413E+2  -4.61486E+2
  -1.10580E+3  -4.30017E+3
   2.69767E+3  -1.79391E+2
   2.17816E+3   5.30122E+3
   4.44063E+2   1.90490E+3
  -1.22816E+3   3.33795E+3
  -1.71121E+3   2.74935E+3
   1.32557E+2  -2.79430E+3
   3.04390E+3  -5.70118E+3
   2.11082E+3   7.00451E+2
   1.24062E+3   3.75693E+3
   9.37882E+2   3.08392E+3
   9.67965E+2   1.11037E+3
  -7.89722E+2   2.17459E+3
  -1.93033E+3  -6.64586E+2
  -2.12425E+3   1.54724E+3
  -7.52697E+2  -2.08724E+3
   2.94012E+3  -9.25332E+2
   1.05908E+3   4.23360E+3
  -4.56596E+3   3.33498E+3
  -2.04322E+3  -2.42647E+2
  -2.06481E+3  -2.24358E+3
  -3.61464E+3  -1.65901E+3
   8.53588E+2  -4.86988E+3
   4.16517E+3  -5.94649E+3
   4.44499E+3   5.96347E+2
   2.54178E+3   1.05581E+3
   3.02507E+3   1.44953E+3
  -1.70449E+3   1.88366E+3
   1.75181E+3  -2.55381E+2
   2.95856E+3  -2.53706E+2
   3.84666E+2  -3.36339E+2
  -7.37493E+2  -1.26687E+2
   4.63764E+2  -3.86833E+2
   2.16105E+3   5.00148E+2
   9.03613E+2  -7.45908E+2
  -3.13499E+2   7.59276E+2
   5.67720E+2  -1.57372E+3
   6.44052E+2  -3.94065E+1
  -8.50589E+2   7.92923E+2
  -1.90519E+3   1.34548E+3
  -1.05633E+3   2.27441E+3
   1.11310E+3  -9.15122E+1
   2.83454E+2   8.64471E+2
  -2.64843E+2   4.84293E+2
  -3.22190E+3   5.32168E+1
   6.56068E+2  -2.05588E+3
  -3.83299E+2  -1.08238E+3
  -1.33888E+3  -1.15662E+3
  -1.06757E+3  -2.61715E+2
   1.04309E+3  -2.05921E+3
   2.06099E+3  -3.59111E+3
   3.67624E+3   1.06078E+3
   1.33251E+3   2.50987E+3
  -1.03874E+3   3.30037E+2
  -2.52484E+0  -1.95940E+3
   3.04711E+3  -9.69989E+2
  -7.34098E+2   1.43730E+3
  -2.75579E+3  -1.79029E+3
  -1.47828E+3  -3.16698E+3
   2.07349E+3   7.08758E+2
   1.09361E+3   2.90914E+3
  -8.70534E+2   3.75014E+3
  -3.66199E+3  -8.99813E+2
   1.98336E+3  -2.65717E+3
  -1.01921E+1  -2.58515E+2
  -9.39064E+2   3.08902E+3
  -5.55250E+3   1.37098E+3
  -2.94271E+3  -3.05676E+3
  -9.90995E+1  -8.57806E+2
   3.50266E+1  -1.13100E+2
   7.14729E+2  -4.81573E+0
   1.66113E+3  -2.31477E+3
   1.46376E+3  -1.81297E+3
   1.50746E+3   1.48455E+3
   4.41856E+2   1.63821E+3
  -1.52702E+3   1.65095E+2
  -1.58584E+3  -5.20645E+2
   8.32531E+1   2.70268E+2
   3.79228E+1  -1.04843E+3
   1.17631E+2  -1.05329E+3
   1.60579E+3  -7.56325E+2
   2.73408E+2  -1.42213E+3
  -1.83456E+3  -1.28704E+2
  -1.88086E+3   8.97841E+2
   1.51320E+3  -6.86850E+1
   3.47815E+1  -1.58072E+3
  -1.18470E+2  -8.23448E+2
   6.57958E+2   1.65675E+3
  -1.20721E+3   5.16442E+1
  -8.71974E+2  -8.32749E+2
  -4.23446E+1  -2.69100E+0
   8.82700E+2   5.90209E+2
  -2.48905E+3  -1.58255E+3
   7.71353E+2   1.33464E+3
  -8.45008E+2   5.07343E+2
  -6.09967E+2   5.68434E+2
  -8.96310E+2   2.61581E+3
  -8.46094E+2  -1.64316E+3
   9.02636E+2  -9.17035E+2
   2.25473E+3   3.65268E+2
   1.60377E+2   1.13772E+3
  -1.35473E+3   8.50958E+2
  -2.20980E+2   9.05754E+2
  -2.11006E+3   1.33463E+2
  -3.46545E+2   8.67765E+2
  -2.56610E+2   9.76939E+2
   1.32721E+2   5.59781E+2
   1.72894E+2  -3.23523E+2
   1.08706E+3  -2.86181E+2
  -3.63769E+1  -3.04951E+2
  -3.38782E+2  -9.18104E+2
   6.85394E+1   1.07154E+3
   5.74899E+2  -1.02726E+2
  -1.32493E+1  -5.20664E+2
   2.70148E+3   2.37668E+3
  -1.03130E+3   2.44173E+3
   1.30942E+2   9.99704E+2
  -4.88382E+2   8.13053E+2
   3.92836E+2   1.17552E+3
   1.42011E+2  -3.77816E+2
  -1.14479E+3   3.72555E+2
   5.84472E+2   1.41046E+3
   1.10373E+3   9.24492E+2
  -2.93932E+2   5.25198E+2
   8.96983E+1  -1.81659E+3
  -1.41210E+3   1.39141E+3
  -1.42057E+3  -1.35605E+3
  -1.29632E+2   1.05496E+3
  -3.39840E+2   1.55345E+3
   1.04800E+2   1.76512E+2
  -1.98117E+3   8.99604E+2
  -5.57059E+2   4.87996E+2
  -1.32433E+3  -2.63569E+3
   1.28159E+3   7.26219E+2
   2.89502E+2   1.48678E+3
  -2.34691E+1  -4.18426E+2
  -8.45173E+2  -4.96493E+2
  -7.06420E+2   1.03021E+3
  -9.13652E+2   1.20938E+3
   8.55867E+2   2.48869E+2
  -1.27795E+3  -1.05977E+3
  -4.98857E+2  -1.32496E+3
   1.36290E+3   1.44408E+3
  -1.80584E+3   2.97341E+0
  -2.01410E+3  -1.51022E+3
   1.18959E+3   1.99972E+2
   9.02913E+2  -8.96309E+2
   2.38571E+3  -1.91724E+3
   5.64864E+2   1.42707E+3
  -8.78813E+2  -3.03306E+1
   1.11526E+3   3.99285E+2
   8.71565E+2  -1.06814E+3
   1.18115E+3  -5.92541E+2
   1.10631E+3   3.30423E+1
   1.53850E+3  -1.35030E+2
  -3.29625E+1   1.41693E+1
   1.28829E+3  -1.22475E+3
   7.64318E+2  -3.96679E+2
   1.17890E+3  -1.41554E+1
   1.42752E+3  -9.89820E+2
   7.67994E+2   1.67123E+2
   8.31330E+2   1.86204E+2
   1.27398E+2   6.40780E+2
   1.31853E+2  -7.72027E+2
  -9.91859E+1  -1.41236E+3
  -4.81333E+2  -1.06640E+1
   6.43419E+1  -3.59566E+2
   9.16875E+2   1.42072E+3
   3.43143E+3   9.66911E+2
   2.63368E+3  -9.54401E+2
  -7.24770E+2   4.82250E+2
   2.50006E+1   6.52091E+2
   1.08487E+3   2.01249E+2
  -1.88372E+2  -1.03362E+3
   3.64307E+2  -1.42731E+3
   4.00330E+2  -1.02461E+3
  -9.25077E+1   2.86145E+2
   1.53168E+2  -4.82509E+2
  -2.14764E+2   4.25767E+2
  -6.40180E+2  -3.60672E+2
  -1.83365E+3   1.22942E+3
   1.07190E+3   1.54888E+2
   8.49138E+2   5.11813E+2
   1.30214E+2  -1.32922E+3
   1.13660E+3  -4.17843E+2
  -4.86204E+2  -7.40161E+2
   7.58332E+2   1.85411E+3
   7.16660E+2   2.16553E+3
  -6.71869E+1   1.80904E+2
  -1.24547E+3  -1.07946E+3
  -7.77379E+2   9.61355E+2
   4.72625E+2   3.83237E+2
  -6.22897E+2   3.39836E+2
  -9.83179E+1   6.17051E+2
   1.92548E+2  -1.57351E+2
  -1.01866E+3  -3.48502E+2
  -2.36074E+3   6.72315E+2
  -1.20727E+3   3.35436E+2
   1.68711E+3   7.50173E+2
   4.97914E+2   7.85550E+2
  -8.19666E+2   4.06124E+2
   1.25844E+3  -2.04338E+3
  -3.67691E+2   1.69887E+3
   6.51503E+2   6.69626E+2
  -7.56557E+2   1.24273E+2
   2.27198E+3   1.81424E+3
  -8.60400E+2  -2.86616E+1
  -2.17537E+3   2.05771E+2
  -1.83670E+2  -2.67733E+1
  -7.20831E+2   1.53694E+3
  -6.71517E+2  -1.05104E+3
   7.87932E+2   1.20896E+3
   2.05387E+2   1.22776E+3
   1.30224E+3  -1.48077E+3
  -1.13217E+3  -8.70697E+1
  -2.15654E+2   1.47776E+3
  -1.72625E+2  -4.33109E+2
  -3.35905E+3   4.38620E+2
  -6.19580E+2  -2.68307E+2
   6.93490E+2  -1.74594E+3
  -1.34597E+3  -4.54599E+1
  -5.59619E-2  -4.19826E+2
  -1.57233E+3  -5.21082E+1
   5.23382E+2  -2.79070E+2
  -4.23087E+2   6.17251E+2
  -5.14001E+2  -6.79640E+2
   2.09723E+3  -7.53156E+2
  -1.54320E+3   2.66248E+2
  -1.87282E+3  -3.38462E+2
  -3.65666E+2  -9.52700E+2
   1.78498E+0   3.64512E+2
  -9.17866E+1   6.27274E+0
  -1.17914E+3  -1.84706E+3
   1.55693E+3  -4.44643E+2
   6.03297E+2  -6.54327E+2
   2.00567E+3   7.63181E+2
  -1.58959E+3   9.54104E+2
  -1.00850E+3  -1.18895E+3
   1.10717E+2  -2.61567E+1
  -4.24099E+2  -2.34997E+2
   1.70044E+2   8.52922E+1
   5.05367E+2   4.34344E+2
  -1.41414E+3   2.06678E+3
  -1.18492E+3   6.83971E+2
  -9.74032E+2   7.90607E+2
  -1.17399E+2  -2.23026E+1
  -5.72398E+1   7.80399E+2
   1.77453E+2  -1.60119E+3
  -4.36054E+2  -1.23431E+3
  -7.81640E+2  -3.05637E+2
  -1.00100E+3   2.16581E+2
  -6.60242E+2  -6.22086E+2
   3.72209E+2  -9.02058E+2
  -1.21170E+2   1.87783E+3
   4.43149E+2  -1.62627E+2
  -2.12607E+3  -1.71522E+3
  -6.59051E+2  -1.69275E+3
  -2.30474E+3   9.39181E+2
   1.06232E+3  -4.87812E+2
  -3.00955E+2   1.10457E+3
  -6.06574E+2   6.12015E+2
  -6.34917E+2  -4.24322E+2
  -1.56302E+3  -1.76205E+3
  -2.28950E+3   1.99465E+3
  -3.78014E+2  -3.00356E+2
   1.80158E+3   6.12004E+2
   2.65398E+2   1.16190E+3
  -8.29556E+2   2.35083E+2
  -5.48477E+2   4.99640E+2
   6.02224E+2  -9.92612E+2
   6.61424E+2   1.57269E+3
  -1.70135E+3   1.03462E+3
  -4.54097E+2  -8.73205E+2
   1.26044E+3  -1.02633E+3
  -1.55631E+3  -1.85041E+3
   3.96609E+2  -2.83572E+2
  -7.94372E+2   2.56672E+2
  -1.03494E+3   8.21355E+2
  -1.45549E+2   1.08338E+3
   9.85290E+2   2.72308E+2
  -3.53177E+2  -2.16348E+3
   3.41629E+2  -3.68143E+2
   1.30593E+3  -6.84393E+2
  -5.11405E+2  -1.05218E+3
   8.27341E+2   9.05881E+1
  -1.02336E+3  -3.55596E+2
   8.24598E+1  -2.34510E+3
   1.92020E+3   1.20227E+3
   3.78473E+2   3.66023E+2
   1.08110E+3   1.78939E+2
   1.31645E+3   4.18179E+2
  -4.86703E+2   7.36950E+2
   1.30335E+3   1.21228E+3
   2.95652E+2   1.90925E+3
   9.73593E+2  -1.13659E+3
   1.74699E+1  -1.01012E+3
  -4.40296E+2   2.31899E+2
  -2.33465E+3   4.11323E+2
  -1.26199E+3  -3.19041E+2
  -4.07267E+2  -7.00366E+2
   3.44025E+1  -6.76026E+2
   6.63350E+2  -2.48435E+3
   1.54975E+2   2.11263E+1
  -9.08130E+2  -6.27500E+2
  -5.11525E+2   9.01727E+2
   1.02517E+3  -1.39580E+3
   1.27016E+3   1.00559E+3
  -8.09307E+2  -1.05299E+3
   7.13889E+2  -2.97606E+3
   9.19943E+1  -2.14300E+3
   6.87323E+2  -1.21989E+3
  -6.60193E+2  -3.37908E+2
  -1.12984E+1  -1.91223E+3
  -1.23142E+3  -1.56834E+3
  -5.84044E+2   1.83364E+2
   1.10565E+3  -9.77585E+2
  -5.67652E+2  -6.01945E+1
   6.95823E+2   1.95733E+2
   2.47374E+2   7.04844E+1
   9.82873E+2  -7.98853E+2
   9.07680E+2   4.22295E+2
   5.63938E+2   3.28086E+2
   5.45307E+2  -5.29921E+1
   1.25751E+3  -8.53907E+2
  -2.89025E+3   4.61621E+1
  -5.76338E+2  -1.77438E+3
   2.19205E+3  -7.44133E+2
  -1.88234E+3  -1.52347E+3
  -1.21931E+3  -9.37518E+2
  -1.34850E+2   5.04465E+2
  -3.15587E+2  -7.29544E+1
   2.77108E+2  -9.93918E+2
