 
 $NMID
 ID=''
 FMTDAT='(2E13.5)'
 TRAMP=   1.00000E+0
 VOLUME=   1.00000E+0
 $END
   9.74289E+2   2.47699E+2
   2.38474E+2   2.06220E+3
   1.21833E+3  -2.75155E+3
  -3.87053E+1  -9.39820E+2
   1.10616E+2   7.62156E+1
   1.25968E+3  -2.90446E+3
   1.85492E+3   1.78846E+3
   1.03889E+3  -7.49874E+2
   4.35617E+2  -3.75164E+3
  -2.57814E+3  -5.68154E+2
  -9.47468E+2  -2.87981E+3
   3.27036E+3  -4.20619E+3
   3.00824E+2   5.53303E+2
  -4.56988E+3  -1.50737E+3
  -1.67211E+3  -2.40427E+3
   6.21931E+2  -2.54251E+3
  -1.61350E+3   5.99296E+2
  -3.86976E+3   8.41832E+2
  -1.30925E+3   1.42710E+3
  -1.40936E+3  -7.88464E+2
   1.74271E+3   1.39950E+3
  -1.70016E+3   5.12064E+3
  -3.43892E+3   3.90794E+2
   2.55863E+3  -1.75816E+3
   4.17806E+3   2.50952E+3
  -8.76919E+2   2.93162E+3
  -2.72058E+1   1.53606E+3
   2.80976E+3  -2.67083E+3
   1.08819E+3  -3.99847E+3
   4.26633E+3  -1.85228E+3
  -4.69148E+2   4.39888E+3
  -6.55929E+3   6.34131E+2
  -3.51729E+3  -6.47100E+3
   4.22240E+3  -2.04507E+3
   6.95809E+2  -3.39894E+2
  -2.39766E+2  -1.10158E+3
   1.02167E+3   1.11472E+1
   5.50489E+2   5.72712E+3
  -4.57777E+3   1.95277E+3
  -4.03168E+3  -1.35007E+3
  -1.81236E+3  -1.01087E+3
   3.43128E+2  -5.41562E+3
   2.81488E+3  -3.39289E+3
   3.35573E+3   2.25756E+3
   2.05434E+3   4.08916E+3
  -8.63890E+2   2.20845E+2
   8.78053E+1   7.40109E+2
  -3.16856E+2   3.00804E+3
   1.26114E+3  -5.28184E+2
   3.00740E+3   5.76763E+2
   3.07331E+3   4.86323E+2
   1.01177E+3   2.34149E+3
  -2.55918E+3   2.83152E+3
  -1.48324E+2   2.79872E+2
  -3.31788E+2  -6.35338E+2
   4.87749E+2  -2.10093E+3
   1.67696E+1  -1.35751E+3
   2.18056E+3   8.24266E+2
   2.61340E+3   6.42913E+2
  -1.25598E+3   3.51468E+3
  -5.05620E+3   2.44838E+3
  -3.77133E+3  -9.08870E+2
  -3.49120E+1  -7.76525E+2
   3.27140E+2   5.37570E+2
  -2.51777E+2   1.14084E+3
  -1.11583E+3  -4.10671E+3
   2.76804E+3  -1.51677E+3
   2.32372E+3   1.66069E+3
   1.22711E+3   6.69476E+2
   6.66535E+2  -1.20417E+2
  -2.65804E+2  -1.39969E+3
  -7.86584E+1   1.92437E+2
  -8.39981E+2   2.72848E+3
  -1.40019E+2   7.83054E+2
   1.06753E+2  -9.53033E+2
  -8.31038E+2  -1.53171E+3
  -7.19663E+2   2.14532E+3
  -3.85366E+3  -9.49748E+2
  -3.39601E+2  -8.71865E+2
  -6.28463E+2  -8.93415E+2
  -1.31315E+3   1.37128E+3
  -1.65279E+3   3.19594E+3
  -3.65684E+2  -9.05325E+2
  -4.33056E+2  -6.72842E+2
  -1.23286E+3  -1.02171E+2
  -6.90872E+2   1.12678E+3
  -1.36695E+3  -2.29829E+3
  -7.22323E+2  -3.50681E+3
   1.76751E+3  -1.22388E+3
   1.21740E+3   4.47767E+2
  -7.35541E+2  -3.49823E+2
   3.61946E+2  -2.25106E+3
   1.98816E+3  -1.16278E+2
   2.33083E+3   1.62711E+2
  -1.35844E+3   4.27607E+2
  -7.72748E+1  -9.10665E+2
   2.37014E+3  -1.63046E+3
   1.07651E+3   3.92693E+1
  -3.15145E+2   9.14232E+2
  -2.83988E+3  -1.84935E+3
   9.57043E+2  -1.72694E+3
   2.96193E+3   2.03218E+3
   1.72415E+3   2.18870E+3
  -7.09934E+2   1.24194E+3
   1.69284E+3  -3.11313E+2
  -1.67678E+2  -2.53997E+2
   3.41589E+2   1.79578E+3
  -2.98166E+1   2.29940E+2
  -1.01444E+3   4.99752E+2
   1.82051E+2  -1.42251E+3
   1.79285E+3  -1.19927E+3
   1.29293E+3   1.91714E+3
  -9.24586E+2  -1.01221E+3
  -6.03234E+2   1.31367E+3
  -1.75878E+3   2.82293E+2
  -5.09996E+2  -3.14394E+2
  -9.57700E+2   2.76473E+1
   1.08062E+2   2.04527E+3
  -2.60193E+3  -1.78647E+2
   6.71454E+2   6.47406E+2
   1.12161E+3  -1.22402E+3
   5.70877E+2  -8.24260E+2
  -1.64307E+3  -1.41164E+2
   8.50055E+2   2.08888E+2
  -6.87031E+2   1.13038E+3
  -1.53146E+3  -7.62939E+2
  -3.16212E+3   9.27887E+2
  -4.94444E+0   3.87919E+2
  -2.33632E+3   6.54317E+2
   4.07802E+2   1.41888E+3
  -5.25474E+2  -1.11500E+3
   4.28675E+2   1.61299E+2
  -5.56587E+2   1.40432E+3
   8.17678E+1   2.88179E+2
  -1.39224E+3   1.99041E+2
  -5.13161E+1  -1.66920E+3
   7.46366E+2  -1.40109E+3
  -2.91384E+2  -5.87839E+2
  -4.38615E+2  -1.25911E+2
  -1.52500E+1   6.09798E+2
  -1.91837E+3   4.65006E+1
  -9.22103E+2  -4.74291E+2
  -4.83961E+2   2.17168E+3
  -4.43431E+2  -1.02858E+3
  -4.82258E+2  -2.19630E+2
   3.15775E+2   2.97841E+2
  -1.25452E+3  -3.65940E+2
  -4.33324E+2  -5.33267E+2
   1.59125E+3   9.25065E+2
  -6.82138E+1   4.12224E+2
   1.90867E+2  -1.76820E+3
  -1.42484E+3   4.68920E+2
   7.22415E+2  -4.97376E+2
   1.43096E+3   3.80237E+2
  -7.21157E+2   1.74514E+2
  -6.45314E+2  -7.15539E+2
  -9.37486E+2  -1.36664E+3
   4.27809E+2  -7.04221E+2
   1.12875E+2   4.23097E+2
   2.71548E+2   1.81881E+2
  -9.10208E+2   8.23497E+2
  -8.45271E+2   5.24135E+1
   2.31196E+3   6.08287E+2
   1.59942E+3   5.44042E+2
   2.50462E+3  -1.60957E+3
   2.77977E+2   6.57451E+2
  -5.23544E+2   8.40955E+2
  -6.51658E+2   7.50229E+2
   1.52959E+3   5.76234E+2
   1.84638E+3  -1.06902E+3
   7.13217E+2   1.33701E+3
  -8.12536E+2   6.70945E+2
  -3.50797E+2   1.97163E+2
   6.61181E+2   1.20050E+3
   1.50405E+3  -1.69318E+2
   8.69627E+2  -4.03627E+2
   1.28966E+3  -9.85183E+1
  -1.26798E+3   9.25233E+2
   1.43538E+3  -1.31089E+3
  -9.32536E+0  -1.12257E+3
   1.69607E+3  -1.99891E+2
   2.35943E+3   1.48193E+3
   1.23796E+2   7.64453E+2
  -1.16198E+3   1.26388E+2
   1.12880E+3  -1.86094E+3
   8.26447E+2   7.70583E+1
   3.42047E+2  -1.31148E+3
   1.13530E+3   3.16966E+1
   4.68761E+2   9.27490E+1
  -1.47604E+2  -9.70271E+2
  -2.03940E+2  -1.65269E+3
   1.04889E+2  -1.28257E+3
   8.01621E+2   6.54102E+2
  -4.95840E+2  -5.81922E+2
   1.10732E+3   1.76644E+1
  -8.28243E+2   1.02473E+3
   8.51512E+2  -1.67852E+3
   1.59097E+3   1.82275E+3
  -1.81458E+2   2.49117E+2
  -3.36111E+2  -1.25804E+3
   6.60052E+2  -3.39183E+2
   3.52968E+2   1.81234E+3
  -2.60577E+2   2.79969E+2
  -6.94992E+1   1.28509E+3
   6.82604E+1  -9.74811E+2
  -6.03392E+2  -3.73676E+2
  -1.14652E+3   1.91984E+3
   8.93165E+2   1.19500E+3
  -4.62337E+2   1.62202E+3
   2.41055E+3   1.12156E+3
   2.78741E+2   2.39934E+2
   5.81004E+2  -9.07165E+2
  -6.95041E+2  -5.67803E+2
  -7.76378E+2  -4.90448E+2
  -5.81982E+2  -3.27331E+2
  -4.89552E+2   1.17131E+2
  -1.39143E+3  -7.94129E+2
   7.77019E+2   4.21457E+2
  -1.51470E+2   1.06058E+3
  -2.25441E+2   7.18916E+2
  -1.15897E+3   1.27900E+2
   1.42795E+3   1.13867E+2
  -1.72682E+3  -1.41359E+3
  -2.12264E+2   2.22080E+3
  -2.16255E+2   6.57937E+2
   1.00532E+2  -9.36293E+2
  -1.18146E+3  -2.04518E+3
   1.02603E+3   1.24251E+3
   6.47774E+2  -3.65229E+2
  -5.44345E+2  -1.19057E+3
   6.14626E+2  -2.49206E+2
   1.10072E+3  -1.39533E+2
  -3.26276E+2   5.79137E+2
  -1.86120E+3  -1.53182E+3
  -1.33607E+3  -1.95429E+3
  -3.56617E+2   6.28930E+2
   1.72937E+3  -1.50790E+3
   5.46414E+1  -2.76470E+2
  -3.20043E+2   1.03907E+3
   1.15878E+3  -7.37842E+1
  -1.55669E+3   1.16592E+3
  -9.23416E+2  -9.58180E+2
  -1.23633E+3  -1.64661E+3
   9.93452E+2  -1.07455E+3
   9.95276E+2  -2.49974E+3
   2.54811E+2  -2.44930E+3
   5.24256E+2  -8.05119E+2
   1.54771E+3   9.43524E+2
   5.19471E+1  -1.25037E+3
   4.58250E+2  -6.23184E+2
   1.81459E+3   8.80428E+2
  -8.21438E+2   1.39997E+3
   3.50790E+2   3.90120E+2
  -7.24471E+2   7.62714E+2
  -4.36337E+2  -1.93127E+3
   1.08815E+3  -8.45904E+2
  -2.49292E+2  -7.29264E+2
  -6.72858E+2  -5.84504E+2
  -4.20305E+0   7.01458E+2
  -4.80079E+2  -1.03222E+3
   6.83750E+2  -4.14254E+2
  -4.95632E+2  -1.42228E+2
  -5.07574E+2  -1.16917E+3
  -1.50629E+3  -1.81020E+3
  -1.36919E+3   4.80269E+2
  -8.04703E+2   1.76847E+3
  -4.86030E+2  -1.52771E+3
   2.76712E+2   1.49400E+3
   1.15917E+2   1.86014E+1
  -3.40693E+2   2.10141E+3
   1.49232E+3  -1.05541E+3
  -2.43453E+2   4.93039E+2
   9.60129E+2  -4.45629E+2
  -1.27557E+3   3.03509E+2
  -1.81618E+3  -3.69767E+2
  -7.74328E+2  -3.17364E+2
  -9.27530E+1   3.15019E+0
   3.44298E+2  -6.11871E+2
  -7.07266E+2  -2.87274E+2
   6.93222E+2  -4.14745E+2
  -2.71047E+1   1.82481E+3
  -5.58627E+2   7.43071E+2
   2.53710E+2   1.75081E+3
   1.68893E+2  -1.02845E+3
   1.55657E+2   1.23216E+3
  -3.71391E+2  -2.45701E+3
   8.33499E+2   7.46344E+2
  -2.02156E+2   1.53931E+3
  -2.13284E+3   7.63292E+2
  -1.64970E+3   2.24907E+2
   4.98627E+2   1.08364E+3
  -6.66307E+2  -1.36509E+2
   1.66918E+1  -6.31247E+2
   1.11244E+3  -5.31801E+2
  -3.97468E+2  -1.77977E+3
  -4.31856E+2  -3.66099E+2
  -2.07077E+2  -6.54594E+2
   3.71483E+2   7.83350E+2
  -2.11315E+3  -1.04746E+2
   1.69352E+3   2.98478E+2
   1.01884E+3   1.41875E+3
   3.63848E+2  -7.33651E+2
   8.04933E+2  -1.72187E+2
   1.91016E+2   6.22667E+2
   3.34096E+2  -1.33137E+2
  -1.16522E+2  -1.68565E+3
   5.49505E+2  -1.08985E+3
  -6.37533E+2   2.62704E+3
   1.46992E+3  -6.09359E+2
  -3.75298E+2   5.21394E+2
  -9.11706E+2  -3.94486E+2
  -7.56085E+2   2.11670E+2
   7.21781E+2  -6.48449E+2
  -7.76907E+2   4.27897E+2
   1.43331E+2   5.12658E+2
   1.05492E+2  -1.74024E+3
  -6.13804E+2  -1.06738E+3
   3.72632E+2  -7.63541E+2
  -8.73428E+1   1.69500E+3
   4.50713E+1  -7.53234E+2
   6.53692E+2  -2.41785E+2
  -3.72424E+2   1.39501E+3
  -2.97648E+2  -9.15597E+2
   1.35444E+3   7.45924E+2
   9.81365E+2   1.17122E+3
  -3.31682E+2  -4.66642E+2
  -2.08854E+3  -1.63919E+2
   6.05450E+2  -1.69461E+3
  -4.43040E+2  -8.13664E+2
   8.08960E+2  -8.11180E+2
  -1.22661E+3  -6.87275E+2
   1.86900E+3   2.08301E+2
  -5.07871E+2   6.74383E+2
   7.10482E+2  -3.09305E+1
   1.07405E+3  -7.21043E+2
   2.20267E+2  -5.88911E+2
  -6.69690E+2   3.12372E+1
   1.48626E+3  -5.93338E+2
  -2.41442E+3   1.03754E+2
  -2.82510E+3   9.64574E+2
  -2.76470E+2   2.13897E+3
  -1.77809E+3  -1.86262E+3
  -8.52842E+2  -9.73055E+2
  -5.00089E+2  -1.12089E+3
   1.20370E+2  -3.39705E+1
  -1.63015E+3  -1.25506E+1
  -1.37403E+2  -7.22183E+2
   2.74827E+1   1.03322E+3
  -1.57227E+3  -4.01519E+2
   6.83978E+2  -1.42487E+2
   5.90113E+2   1.31350E+3
  -1.79122E+3   2.01151E+2
  -4.37748E+2   2.95491E+2
   1.92111E+1  -1.24746E+3
  -1.34113E+3   7.59640E+2
   6.40959E+2   1.00452E+3
   1.51864E+3  -2.06140E+3
   9.85280E+2   5.67193E+2
   3.90490E+2  -1.19329E+3
   1.29081E+3  -1.81353E+3
   1.81714E+2   6.62682E+2
  -1.33783E+3  -6.20700E+2
  -1.92652E+3   2.92364E+3
  -2.53512E+2   8.59825E+2
   2.51656E+2  -1.05278E+3
   1.91720E+3  -8.32283E+2
   5.02333E+2  -1.48338E+3
