 
 $NMID
 ID=''
 FMTDAT='(2E13.5)'
 TRAMP=   1.00000E+0
 VOLUME=   1.00000E+0
 $END
  -2.15750E+4  -1.10456E+3
  -5.25546E+4  -1.83500E+4
  -5.49346E+4  -8.74479E+3
  -5.06904E+4  -7.84650E+3
  -5.25571E+4  -9.71233E+3
  -5.30637E+4  -7.30080E+3
  -5.10161E+4  -7.50324E+3
  -5.15917E+4  -8.50932E+3
  -5.19163E+4  -7.02431E+3
  -5.05912E+4  -7.22608E+3
  -5.08125E+4  -7.93499E+3
  -5.09347E+4  -6.78714E+3
  -5.00339E+4  -6.62619E+3
  -5.03066E+4  -7.32649E+3
  -5.02580E+4  -6.75016E+3
  -4.93986E+4  -6.64385E+3
  -4.96291E+4  -7.03441E+3
  -4.95169E+4  -6.45752E+3
  -4.90036E+4  -6.27134E+3
  -4.89727E+4  -6.59584E+3
  -4.87598E+4  -6.10420E+3
  -4.82371E+4  -5.81953E+3
  -4.82475E+4  -6.01220E+3
  -4.80873E+4  -5.82699E+3
  -4.74562E+4  -5.67784E+3
  -4.74607E+4  -5.69503E+3
  -4.72909E+4  -5.50453E+3
  -4.67848E+4  -5.57455E+3
  -4.65838E+4  -5.72273E+3
  -4.63714E+4  -5.50797E+3
  -4.59471E+4  -5.26038E+3
  -4.57831E+4  -5.31818E+3
  -4.57583E+4  -5.26625E+3
  -4.52431E+4  -5.17721E+3
  -4.50350E+4  -5.03406E+3
  -4.49054E+4  -4.88151E+3
  -4.45584E+4  -4.70481E+3
  -4.42333E+4  -4.58962E+3
  -4.41247E+4  -4.36877E+3
  -4.38425E+4  -4.25448E+3
  -4.36014E+4  -4.17527E+3
  -4.34211E+4  -4.09974E+3
  -4.30350E+4  -4.08306E+3
  -4.26676E+4  -3.88456E+3
  -4.24521E+4  -3.71935E+3
  -4.22362E+4  -3.64546E+3
  -4.20322E+4  -3.65354E+3
  -4.18140E+4  -3.46993E+3
  -4.15573E+4  -3.31367E+3
  -4.12574E+4  -3.10689E+3
  -4.10291E+4  -3.03677E+3
  -4.06617E+4  -2.91687E+3
  -4.04421E+4  -2.70131E+3
  -4.02732E+4  -2.50282E+3
  -4.00523E+4  -2.39132E+3
  -3.98517E+4  -2.27748E+3
  -3.96120E+4  -2.19049E+3
  -3.93656E+4  -2.04465E+3
  -3.90692E+4  -2.02790E+3
  -3.88307E+4  -1.95256E+3
  -3.85631E+4  -1.76784E+3
  -3.83100E+4  -1.62968E+3
  -3.82028E+4  -1.51739E+3
  -3.79385E+4  -1.45289E+3
  -3.77103E+4  -1.33035E+3
  -3.74388E+4  -1.13767E+3
  -3.72556E+4  -9.62201E+2
  -3.70029E+4  -9.65493E+2
  -3.67900E+4  -8.93605E+2
  -3.64861E+4  -7.90917E+2
  -3.63016E+4  -6.80481E+2
  -3.60872E+4  -6.06108E+2
  -3.58368E+4  -5.50576E+2
  -3.55590E+4  -4.83645E+2
  -3.53449E+4  -2.83538E+2
  -3.51362E+4  -2.33917E+2
  -3.49868E+4  -1.24387E+2
  -3.47078E+4  -7.82770E+1
  -3.44124E+4   3.93150E+1
  -3.42839E+4   1.34550E+2
  -3.40639E+4   2.66613E+2
  -3.38419E+4   2.43879E+2
  -3.35154E+4   3.76607E+2
  -3.33341E+4   4.86304E+2
  -3.31314E+4   4.89866E+2
  -3.29127E+4   5.38213E+2
  -3.26513E+4   5.25457E+2
  -3.23404E+4   6.25919E+2
  -3.21548E+4   7.64686E+2
  -3.19073E+4   8.25076E+2
  -3.17411E+4   8.55971E+2
  -3.14466E+4   9.59222E+2
  -3.12263E+4   1.17198E+3
  -3.10525E+4   1.16806E+3
  -3.08917E+4   1.23787E+3
  -3.05329E+4   1.32662E+3
  -3.03124E+4   1.46472E+3
  -3.01355E+4   1.49645E+3
  -2.99310E+4   1.59735E+3
  -2.96540E+4   1.57762E+3
  -2.94295E+4   1.66257E+3
  -2.92521E+4   1.70766E+3
  -2.90976E+4   1.79863E+3
  -2.88794E+4   1.85692E+3
  -2.87201E+4   1.84575E+3
  -2.84527E+4   1.95221E+3
  -2.82567E+4   1.96938E+3
  -2.80744E+4   2.00119E+3
  -2.78684E+4   2.05441E+3
  -2.76118E+4   2.09223E+3
  -2.74036E+4   2.19501E+3
  -2.72014E+4   2.24472E+3
  -2.70567E+4   2.29512E+3
  -2.67589E+4   2.26590E+3
  -2.65894E+4   2.36181E+3
  -2.64882E+4   2.35912E+3
  -2.62462E+4   2.44764E+3
  -2.59937E+4   2.41854E+3
  -2.58251E+4   2.48291E+3
  -2.56779E+4   2.44133E+3
  -2.54999E+4   2.47449E+3
  -2.53290E+4   2.53620E+3
  -2.50751E+4   2.46182E+3
  -2.48813E+4   2.46584E+3
  -2.46686E+4   2.47779E+3
  -2.46252E+4   2.53331E+3
  -2.43759E+4   2.48835E+3
  -2.42321E+4   2.56881E+3
  -2.40570E+4   2.59276E+3
  -2.38831E+4   2.55395E+3
  -2.36825E+4   2.55464E+3
  -2.34786E+4   2.55967E+3
  -2.32629E+4   2.63784E+3
  -2.31010E+4   2.69680E+3
  -2.29870E+4   2.69322E+3
  -2.28614E+4   2.67426E+3
  -2.27011E+4   2.67826E+3
  -2.24830E+4   2.67030E+3
  -2.22858E+4   2.68303E+3
  -2.21056E+4   2.79021E+3
  -2.19949E+4   2.71233E+3
  -2.17192E+4   2.67550E+3
  -2.15695E+4   2.76601E+3
  -2.14596E+4   2.83092E+3
  -2.13251E+4   2.86671E+3
  -2.11646E+4   2.88099E+3
  -2.10828E+4   2.85105E+3
  -2.09116E+4   2.89975E+3
  -2.07631E+4   2.91177E+3
  -2.06779E+4   2.89585E+3
  -2.04572E+4   2.93690E+3
  -2.03187E+4   2.98984E+3
  -2.01930E+4   2.93335E+3
  -2.00163E+4   2.97421E+3
  -1.99305E+4   2.95357E+3
  -1.97497E+4   3.04234E+3
  -1.96525E+4   3.14192E+3
  -1.94792E+4   3.08141E+3
  -1.93862E+4   3.07396E+3
  -1.93200E+4   3.10026E+3
  -1.91867E+4   3.09560E+3
  -1.89732E+4   3.14956E+3
  -1.89031E+4   3.05654E+3
  -1.87755E+4   3.07599E+3
  -1.86277E+4   3.05505E+3
  -1.85607E+4   3.10290E+3
  -1.84321E+4   3.10202E+3
  -1.83044E+4   3.09268E+3
  -1.81928E+4   3.13147E+3
  -1.80710E+4   3.12580E+3
  -1.79820E+4   3.01488E+3
  -1.78546E+4   3.09608E+3
  -1.77739E+4   3.11721E+3
  -1.76128E+4   3.07757E+3
  -1.74760E+4   3.16618E+3
  -1.73573E+4   3.11551E+3
  -1.72268E+4   3.08428E+3
  -1.70996E+4   3.15176E+3
  -1.70202E+4   3.14406E+3
  -1.69360E+4   3.16268E+3
  -1.68166E+4   3.15035E+3
  -1.67106E+4   3.10105E+3
  -1.65992E+4   3.07764E+3
  -1.65648E+4   3.13001E+3
  -1.64188E+4   3.15312E+3
  -1.62661E+4   3.24794E+3
  -1.62261E+4   3.14681E+3
  -1.61200E+4   3.15543E+3
  -1.60113E+4   3.11742E+3
  -1.58726E+4   3.17239E+3
  -1.58068E+4   3.11698E+3
  -1.56060E+4   3.16120E+3
  -1.56137E+4   3.13064E+3
  -1.55343E+4   3.12802E+3
  -1.53359E+4   3.17223E+3
  -1.52960E+4   3.12487E+3
  -1.52162E+4   3.09708E+3
  -1.50753E+4   3.07647E+3
  -1.50196E+4   3.08698E+3
  -1.48213E+4   3.15983E+3
  -1.48697E+4   3.14982E+3
  -1.46992E+4   3.08427E+3
  -1.46191E+4   3.08509E+3
  -1.45059E+4   3.13741E+3
  -1.43902E+4   3.14687E+3
  -1.42928E+4   3.11288E+3
  -1.42251E+4   3.14078E+3
  -1.41611E+4   3.17512E+3
  -1.40113E+4   3.08709E+3
  -1.39747E+4   3.06707E+3
  -1.38627E+4   3.10976E+3
  -1.38183E+4   3.10536E+3
  -1.36866E+4   3.03082E+3
  -1.35712E+4   3.10117E+3
  -1.35288E+4   3.15285E+3
  -1.34660E+4   3.12798E+3
  -1.33605E+4   3.07655E+3
  -1.32904E+4   3.05503E+3
  -1.32047E+4   3.14311E+3
  -1.31344E+4   3.05838E+3
  -1.29862E+4   3.09702E+3
  -1.30065E+4   3.05465E+3
  -1.28853E+4   3.08265E+3
  -1.28834E+4   3.05023E+3
  -1.27338E+4   3.03166E+3
  -1.26538E+4   3.04670E+3
  -1.26226E+4   3.04854E+3
  -1.25239E+4   3.06442E+3
  -1.24802E+4   3.01085E+3
  -1.23942E+4   3.00013E+3
  -1.23150E+4   3.02843E+3
  -1.21643E+4   2.99499E+3
  -1.21083E+4   3.01448E+3
  -1.19924E+4   2.99405E+3
  -1.19776E+4   3.02958E+3
  -1.19200E+4   3.05760E+3
  -1.18446E+4   3.02995E+3
  -1.17463E+4   3.02217E+3
  -1.16918E+4   2.98595E+3
  -1.16142E+4   2.96779E+3
  -1.15541E+4   2.93463E+3
  -1.13804E+4   3.04718E+3
  -1.14285E+4   2.92627E+3
  -1.13238E+4   2.91218E+3
  -1.12679E+4   2.97243E+3
  -1.11510E+4   2.95513E+3
  -1.10713E+4   2.98950E+3
  -1.11087E+4   2.89994E+3
  -1.09521E+4   2.94538E+3
  -1.09074E+4   2.93082E+3
  -1.08069E+4   2.99307E+3
  -1.07432E+4   2.94625E+3
  -1.06652E+4   2.95226E+3
  -1.06089E+4   2.96076E+3
  -1.04593E+4   2.93646E+3
  -1.04834E+4   2.91081E+3
  -1.03480E+4   2.89980E+3
  -1.02750E+4   2.93136E+3
  -1.02754E+4   2.96131E+3
  -1.01694E+4   2.91035E+3
  -1.01238E+4   2.88343E+3
  -1.00680E+4   2.90629E+3
  -1.00146E+4   2.90475E+3
  -9.91568E+3   2.96410E+3
  -9.80376E+3   2.92029E+3
  -9.75779E+3   2.92822E+3
  -9.68909E+3   2.91499E+3
  -9.59272E+3   2.94216E+3
  -9.58436E+3   2.88425E+3
  -9.53172E+3   2.85406E+3
  -9.44811E+3   2.89695E+3
  -9.35692E+3   2.87268E+3
  -9.29586E+3   2.97909E+3
  -9.28599E+3   2.86414E+3
  -9.17142E+3   2.89765E+3
  -9.10627E+3   2.90092E+3
  -9.03804E+3   2.90555E+3
  -8.96860E+3   2.86588E+3
  -8.83963E+3   2.85669E+3
  -8.82177E+3   2.87702E+3
  -8.76460E+3   2.87970E+3
  -8.71139E+3   2.89875E+3
  -8.72648E+3   2.86868E+3
  -8.62412E+3   2.86034E+3
  -8.46756E+3   2.83586E+3
  -8.40873E+3   2.86317E+3
  -8.38323E+3   2.89990E+3
  -8.36020E+3   2.81867E+3
  -8.30621E+3   2.80292E+3
  -8.23181E+3   2.88003E+3
  -8.18936E+3   2.83842E+3
  -8.11387E+3   2.84289E+3
  -8.01745E+3   2.85021E+3
  -7.95272E+3   2.96369E+3
  -7.95888E+3   2.86460E+3
  -7.84183E+3   2.76548E+3
  -7.80052E+3   2.78054E+3
  -7.76061E+3   2.80270E+3
  -7.65928E+3   2.84397E+3
  -7.64510E+3   2.82396E+3
  -7.57135E+3   2.87139E+3
  -7.52981E+3   2.80354E+3
  -7.49464E+3   2.75960E+3
  -7.39100E+3   2.80630E+3
  -7.37327E+3   2.80154E+3
  -7.30126E+3   2.80089E+3
  -7.22814E+3   2.87813E+3
  -7.15953E+3   2.81291E+3
  -7.08041E+3   2.81955E+3
  -7.06711E+3   2.77552E+3
  -7.00205E+3   2.76736E+3
  -6.91072E+3   2.80462E+3
  -6.91809E+3   2.77601E+3
  -6.79031E+3   2.75758E+3
  -6.75761E+3   2.84401E+3
  -6.71304E+3   2.83010E+3
  -6.75535E+3   2.80724E+3
  -6.61884E+3   2.85458E+3
  -6.63194E+3   2.71476E+3
  -6.58698E+3   2.69314E+3
  -6.57515E+3   2.82613E+3
  -6.46971E+3   2.81393E+3
  -6.45580E+3   2.73301E+3
  -6.38622E+3   2.70472E+3
  -6.27618E+3   2.75036E+3
  -6.27943E+3   2.86967E+3
  -6.26065E+3   2.75664E+3
  -6.14381E+3   2.72434E+3
  -6.15455E+3   2.79927E+3
  -6.09651E+3   2.75465E+3
  -5.99661E+3   2.72436E+3
  -6.03114E+3   2.75751E+3
  -5.99504E+3   2.75320E+3
  -5.85390E+3   2.71845E+3
  -5.86773E+3   2.74631E+3
  -5.83679E+3   2.73013E+3
  -5.77783E+3   2.72796E+3
  -5.74607E+3   2.77160E+3
  -5.73623E+3   2.76763E+3
  -5.64940E+3   2.73878E+3
  -5.64499E+3   2.68525E+3
  -5.54557E+3   2.71990E+3
  -5.55072E+3   2.71176E+3
  -5.48628E+3   2.69536E+3
  -5.47560E+3   2.73067E+3
  -5.42723E+3   2.75687E+3
  -5.39393E+3   2.68693E+3
  -5.32695E+3   2.72507E+3
  -5.30679E+3   2.71603E+3
  -5.24108E+3   2.71247E+3
  -5.30802E+3   2.71761E+3
  -5.12354E+3   2.68556E+3
  -5.13884E+3   2.67964E+3
  -5.14193E+3   2.73407E+3
  -5.09058E+3   2.65836E+3
  -5.01648E+3   2.77336E+3
  -4.97820E+3   2.65996E+3
  -4.96754E+3   2.70243E+3
  -4.94733E+3   2.71296E+3
  -4.93531E+3   2.65494E+3
  -4.77858E+3   2.71282E+3
  -4.73201E+3   2.64982E+3
  -4.77580E+3   2.61707E+3
  -4.74051E+3   2.66270E+3
  -4.64705E+3   2.65561E+3
  -4.66114E+3   2.67298E+3
  -4.59016E+3   2.61682E+3
