 
 $NMID
 ID=''
 FMTDAT='(2E13.5)'
 TRAMP=   1.00000E+0
 VOLUME=   1.00000E+0
 $END
  -1.72537E+4   1.33607E+4
  -5.26440E+4   2.05120E+4
  -4.81483E+4   2.93130E+4
  -4.44155E+4   2.71305E+4
  -4.69539E+4   2.69185E+4
  -4.57897E+4   2.89308E+4
  -4.43657E+4   2.73342E+4
  -4.55845E+4   2.65850E+4
  -4.48903E+4   2.77120E+4
  -4.39580E+4   2.65418E+4
  -4.46566E+4   2.58777E+4
  -4.40344E+4   2.66350E+4
  -4.32867E+4   2.60288E+4
  -4.39804E+4   2.54703E+4
  -4.35344E+4   2.57600E+4
  -4.28114E+4   2.52541E+4
  -4.31067E+4   2.49840E+4
  -4.28111E+4   2.51608E+4
  -4.22107E+4   2.47807E+4
  -4.23673E+4   2.45054E+4
  -4.19451E+4   2.46254E+4
  -4.13653E+4   2.43520E+4
  -4.15802E+4   2.40878E+4
  -4.11572E+4   2.41007E+4
  -4.06750E+4   2.37596E+4
  -4.06350E+4   2.35227E+4
  -4.04174E+4   2.35060E+4
  -3.99954E+4   2.30877E+4
  -3.99842E+4   2.26863E+4
  -3.95768E+4   2.26527E+4
  -3.92205E+4   2.24314E+4
  -3.90941E+4   2.22431E+4
  -3.89638E+4   2.21255E+4
  -3.86160E+4   2.18282E+4
  -3.84010E+4   2.17322E+4
  -3.81814E+4   2.16374E+4
  -3.77429E+4   2.13576E+4
  -3.75343E+4   2.12329E+4
  -3.72809E+4   2.12823E+4
  -3.69530E+4   2.11296E+4
  -3.68451E+4   2.09656E+4
  -3.67006E+4   2.08251E+4
  -3.63387E+4   2.04880E+4
  -3.60915E+4   2.02861E+4
  -3.57919E+4   2.02439E+4
  -3.55667E+4   2.01172E+4
  -3.52988E+4   1.99129E+4
  -3.50745E+4   1.99157E+4
  -3.48042E+4   1.97368E+4
  -3.45914E+4   1.96768E+4
  -3.44341E+4   1.95600E+4
  -3.41817E+4   1.94042E+4
  -3.37563E+4   1.93868E+4
  -3.36284E+4   1.94058E+4
  -3.33626E+4   1.92686E+4
  -3.32271E+4   1.92220E+4
  -3.29784E+4   1.92433E+4
  -3.28537E+4   1.90636E+4
  -3.26261E+4   1.89353E+4
  -3.23457E+4   1.88229E+4
  -3.20705E+4   1.87990E+4
  -3.19488E+4   1.87671E+4
  -3.17557E+4   1.86891E+4
  -3.16248E+4   1.86929E+4
  -3.14674E+4   1.84948E+4
  -3.12180E+4   1.84039E+4
  -3.10857E+4   1.83974E+4
  -3.09212E+4   1.82880E+4
  -3.07212E+4   1.82421E+4
  -3.05688E+4   1.80833E+4
  -3.03811E+4   1.80452E+4
  -3.02129E+4   1.79383E+4
  -2.99673E+4   1.78275E+4
  -2.98359E+4   1.77611E+4
  -2.96093E+4   1.76465E+4
  -2.94810E+4   1.75809E+4
  -2.92619E+4   1.74987E+4
  -2.90984E+4   1.73372E+4
  -2.88825E+4   1.72568E+4
  -2.86348E+4   1.72729E+4
  -2.85887E+4   1.71108E+4
  -2.83639E+4   1.70278E+4
  -2.81614E+4   1.68653E+4
  -2.79576E+4   1.67451E+4
  -2.78496E+4   1.66190E+4
  -2.77280E+4   1.64304E+4
  -2.75611E+4   1.62537E+4
  -2.72778E+4   1.61489E+4
  -2.70677E+4   1.60719E+4
  -2.69312E+4   1.59861E+4
  -2.67378E+4   1.58394E+4
  -2.65976E+4   1.56648E+4
  -2.63191E+4   1.55942E+4
  -2.61616E+4   1.54851E+4
  -2.59763E+4   1.53684E+4
  -2.56732E+4   1.52844E+4
  -2.54825E+4   1.51699E+4
  -2.52654E+4   1.50317E+4
  -2.50448E+4   1.49268E+4
  -2.49769E+4   1.47615E+4
  -2.47307E+4   1.45979E+4
  -2.44397E+4   1.45641E+4
  -2.42511E+4   1.44441E+4
  -2.40832E+4   1.43601E+4
  -2.38496E+4   1.42093E+4
  -2.36911E+4   1.41034E+4
  -2.34725E+4   1.40168E+4
  -2.33079E+4   1.38771E+4
  -2.30556E+4   1.37391E+4
  -2.28147E+4   1.35784E+4
  -2.25151E+4   1.35172E+4
  -2.24183E+4   1.35213E+4
  -2.21573E+4   1.34151E+4
  -2.20365E+4   1.34208E+4
  -2.18414E+4   1.32722E+4
  -2.17021E+4   1.31329E+4
  -2.14072E+4   1.30044E+4
  -2.12726E+4   1.29510E+4
  -2.10481E+4   1.29328E+4
  -2.08287E+4   1.27534E+4
  -2.06956E+4   1.27122E+4
  -2.05322E+4   1.25760E+4
  -2.03805E+4   1.25083E+4
  -2.02151E+4   1.24692E+4
  -2.00213E+4   1.23741E+4
  -1.98650E+4   1.22458E+4
  -1.96994E+4   1.21627E+4
  -1.95332E+4   1.20450E+4
  -1.93862E+4   1.20110E+4
  -1.92405E+4   1.18720E+4
  -1.90321E+4   1.18578E+4
  -1.88560E+4   1.17243E+4
  -1.87175E+4   1.17118E+4
  -1.85586E+4   1.16414E+4
  -1.85267E+4   1.15868E+4
  -1.83441E+4   1.14415E+4
  -1.81855E+4   1.13819E+4
  -1.80082E+4   1.13094E+4
  -1.77873E+4   1.12020E+4
  -1.77271E+4   1.11811E+4
  -1.76079E+4   1.10836E+4
  -1.74778E+4   1.10393E+4
  -1.73461E+4   1.09706E+4
  -1.71831E+4   1.09582E+4
  -1.71371E+4   1.08080E+4
  -1.69431E+4   1.07497E+4
  -1.68513E+4   1.06985E+4
  -1.66950E+4   1.06505E+4
  -1.66042E+4   1.05697E+4
  -1.64492E+4   1.04829E+4
  -1.63495E+4   1.04423E+4
  -1.62411E+4   1.02812E+4
  -1.60777E+4   1.02277E+4
  -1.59632E+4   1.02325E+4
  -1.57898E+4   1.01034E+4
  -1.57806E+4   1.00690E+4
  -1.56032E+4   1.00029E+4
  -1.55002E+4   9.96074E+3
  -1.54792E+4   9.81061E+3
  -1.52929E+4   9.85466E+3
  -1.51485E+4   9.72558E+3
  -1.50675E+4   9.70589E+3
  -1.50114E+4   9.60555E+3
  -1.48595E+4   9.59380E+3
  -1.47543E+4   9.50687E+3
  -1.47779E+4   9.43072E+3
  -1.46096E+4   9.34959E+3
  -1.45075E+4   9.29712E+3
  -1.43800E+4   9.29979E+3
  -1.42755E+4   9.27125E+3
  -1.41852E+4   9.16014E+3
  -1.41773E+4   9.02778E+3
  -1.40265E+4   8.96586E+3
  -1.39143E+4   8.90431E+3
  -1.38010E+4   8.94581E+3
  -1.37607E+4   8.87415E+3
  -1.35827E+4   8.72523E+3
  -1.35367E+4   8.73869E+3
  -1.34733E+4   8.69676E+3
  -1.33602E+4   8.67304E+3
  -1.33019E+4   8.64635E+3
  -1.32068E+4   8.52707E+3
  -1.30887E+4   8.43570E+3
  -1.30041E+4   8.45630E+3
  -1.29405E+4   8.36955E+3
  -1.28262E+4   8.33353E+3
  -1.27578E+4   8.30961E+3
  -1.27186E+4   8.31528E+3
  -1.25875E+4   8.20814E+3
  -1.24839E+4   8.12446E+3
  -1.24389E+4   8.08483E+3
  -1.23185E+4   8.02285E+3
  -1.22120E+4   8.02018E+3
  -1.21470E+4   7.91571E+3
  -1.20498E+4   7.91094E+3
  -1.19541E+4   7.86050E+3
  -1.18928E+4   7.85031E+3
  -1.18198E+4   7.78878E+3
  -1.17354E+4   7.75539E+3
  -1.16806E+4   7.69225E+3
  -1.16680E+4   7.65938E+3
  -1.15267E+4   7.70471E+3
  -1.14185E+4   7.66320E+3
  -1.13231E+4   7.60536E+3
  -1.12748E+4   7.54499E+3
  -1.11631E+4   7.55759E+3
  -1.11422E+4   7.50695E+3
  -1.10067E+4   7.45034E+3
  -1.09974E+4   7.41541E+3
  -1.09583E+4   7.39728E+3
  -1.08691E+4   7.36541E+3
  -1.07928E+4   7.38528E+3
  -1.06960E+4   7.33155E+3
  -1.05977E+4   7.29551E+3
  -1.05406E+4   7.27243E+3
  -1.05081E+4   7.26198E+3
  -1.03531E+4   7.24034E+3
  -1.04031E+4   7.20911E+3
  -1.02876E+4   7.18015E+3
  -1.01695E+4   7.09278E+3
  -1.01487E+4   7.05601E+3
  -1.00941E+4   7.04080E+3
  -9.93514E+3   7.00197E+3
  -9.90778E+3   7.00539E+3
  -9.81269E+3   7.00468E+3
  -9.70861E+3   6.97288E+3
  -9.63184E+3   7.02599E+3
  -9.56914E+3   6.94497E+3
  -9.59167E+3   6.94042E+3
  -9.43795E+3   6.90606E+3
  -9.41292E+3   6.92271E+3
  -9.37642E+3   6.82799E+3
  -9.25507E+3   6.79118E+3
  -9.19871E+3   6.72971E+3
  -9.16871E+3   6.76264E+3
  -8.99942E+3   6.80331E+3
  -9.02122E+3   6.78792E+3
  -8.96433E+3   6.77766E+3
  -8.90315E+3   6.66014E+3
  -8.81059E+3   6.63292E+3
  -8.66435E+3   6.71956E+3
  -8.65284E+3   6.65282E+3
  -8.55452E+3   6.60479E+3
  -8.48347E+3   6.63486E+3
  -8.37813E+3   6.51444E+3
  -8.37758E+3   6.59925E+3
  -8.24671E+3   6.48980E+3
  -8.16990E+3   6.53543E+3
  -8.12859E+3   6.52321E+3
  -8.07858E+3   6.43416E+3
  -8.04728E+3   6.45432E+3
  -7.98293E+3   6.43671E+3
  -7.85045E+3   6.46250E+3
  -7.80578E+3   6.45529E+3
  -7.75055E+3   6.41102E+3
  -7.68618E+3   6.39511E+3
  -7.65997E+3   6.35936E+3
  -7.60465E+3   6.33195E+3
  -7.53817E+3   6.38538E+3
  -7.37325E+3   6.34122E+3
  -7.37987E+3   6.33734E+3
  -7.33758E+3   6.25621E+3
  -7.22159E+3   6.24183E+3
  -7.07997E+3   6.31177E+3
  -7.00372E+3   6.27347E+3
  -7.05502E+3   6.27375E+3
  -7.03275E+3   6.23002E+3
  -6.93398E+3   6.17307E+3
  -6.90972E+3   6.18085E+3
  -6.79902E+3   6.21104E+3
  -6.72521E+3   6.11573E+3
  -6.65609E+3   6.09151E+3
  -6.60692E+3   6.10058E+3
  -6.62166E+3   6.17082E+3
  -6.52009E+3   6.13647E+3
  -6.45213E+3   6.04318E+3
  -6.37300E+3   6.00441E+3
  -6.35466E+3   5.98272E+3
  -6.24436E+3   6.03468E+3
  -6.18521E+3   5.94873E+3
  -6.11552E+3   6.00913E+3
  -6.05377E+3   5.95943E+3
  -6.06774E+3   6.00130E+3
  -5.95925E+3   5.95426E+3
  -5.92215E+3   5.85671E+3
  -5.83469E+3   5.91444E+3
  -5.79210E+3   5.86852E+3
  -5.75880E+3   5.81318E+3
  -5.72415E+3   5.81030E+3
  -5.62413E+3   5.81795E+3
  -5.57144E+3   5.72022E+3
  -5.53683E+3   5.81630E+3
  -5.43925E+3   5.75910E+3
  -5.43107E+3   5.75466E+3
  -5.36695E+3   5.62532E+3
  -5.33524E+3   5.70445E+3
  -5.33701E+3   5.69190E+3
  -5.18683E+3   5.61676E+3
  -5.12036E+3   5.63850E+3
  -5.07539E+3   5.58096E+3
  -5.04887E+3   5.59775E+3
  -4.95975E+3   5.53824E+3
  -4.92211E+3   5.49152E+3
  -4.90625E+3   5.50726E+3
  -4.85045E+3   5.53580E+3
  -4.72477E+3   5.48480E+3
  -4.69215E+3   5.39981E+3
  -4.64598E+3   5.39923E+3
  -4.61041E+3   5.42309E+3
  -4.56302E+3   5.41142E+3
  -4.51606E+3   5.36219E+3
  -4.39494E+3   5.32090E+3
  -4.35689E+3   5.35740E+3
  -4.40069E+3   5.26403E+3
  -4.37434E+3   5.34109E+3
  -4.23076E+3   5.28820E+3
  -4.24547E+3   5.30381E+3
  -4.16773E+3   5.20920E+3
  -4.17697E+3   5.23074E+3
  -4.05147E+3   5.17923E+3
  -3.98960E+3   5.14502E+3
  -4.01087E+3   5.21206E+3
  -3.94392E+3   5.18997E+3
  -3.86075E+3   5.11870E+3
  -3.81233E+3   5.07432E+3
  -3.77335E+3   5.09845E+3
  -3.76025E+3   5.06399E+3
  -3.70292E+3   4.97217E+3
  -3.66338E+3   5.04055E+3
  -3.68342E+3   5.04501E+3
  -3.56856E+3   5.02363E+3
  -3.55765E+3   5.02898E+3
  -3.49093E+3   4.94889E+3
  -3.49394E+3   4.92992E+3
  -3.45625E+3   4.90985E+3
  -3.36654E+3   4.90388E+3
  -3.35648E+3   4.76496E+3
  -3.26755E+3   4.87289E+3
  -3.26532E+3   4.84419E+3
  -3.24094E+3   4.72965E+3
  -3.20808E+3   4.74664E+3
  -3.15899E+3   4.76719E+3
  -3.11777E+3   4.72964E+3
  -3.12821E+3   4.67490E+3
  -2.93984E+3   4.68518E+3
  -3.00567E+3   4.65106E+3
  -3.00310E+3   4.65189E+3
  -2.91263E+3   4.62892E+3
  -2.89978E+3   4.61634E+3
  -2.82483E+3   4.68193E+3
  -2.79340E+3   4.53674E+3
  -2.81105E+3   4.53761E+3
  -2.80402E+3   4.53540E+3
  -2.74485E+3   4.49023E+3
  -2.70378E+3   4.44702E+3
  -2.69364E+3   4.37444E+3
  -2.60575E+3   4.32301E+3
  -2.51911E+3   4.35741E+3
  -2.56907E+3   4.39137E+3
  -2.52893E+3   4.32894E+3
  -2.48612E+3   4.34770E+3
  -2.42358E+3   4.24963E+3
  -2.44689E+3   4.17296E+3
  -2.45374E+3   4.29090E+3
  -2.38327E+3   4.20948E+3
  -2.32739E+3   4.15938E+3
  -2.29975E+3   4.18197E+3
