 
 $NMID
 ID=''
 FMTDAT='(2E13.5)'
 TRAMP=   1.00000E+0
 VOLUME=   1.00000E+0
 $END
  -3.50263E+2  -7.17188E+2
   2.33990E+3   5.43875E+2
  -1.77479E+3  -3.38405E+3
   1.27124E+3  -1.05584E+3
  -1.01103E+3   1.19824E+3
  -1.41388E+3  -1.61332E+3
   2.25987E+3   6.79641E+2
  -2.47924E+3  -1.93329E+3
  -1.70339E+3  -2.71813E+3
  -2.65133E+2  -9.90035E+2
  -1.35376E+3   1.20022E+3
   1.43852E+3  -2.52649E+3
   1.79489E+3  -7.75110E+2
   1.57372E+3   6.55825E+2
   8.05539E+2   1.56297E+2
  -7.54525E+2  -1.51342E+3
  -2.47114E+3  -4.90241E+3
   7.89739E+2  -5.10265E+3
   1.82788E+3  -3.97370E+2
  -3.90969E+3  -1.01914E+3
  -2.10965E+3  -1.75256E+3
   3.77020E+3   1.02532E+3
   2.11487E+3   4.31975E+3
  -4.07811E+3   2.61138E+3
  -1.35756E+3  -2.35969E+3
   3.31302E+3  -4.22480E+3
   4.25153E+3  -4.55076E+2
  -1.62935E+3   3.01425E+3
  -7.39677E+3   8.56574E+2
  -2.05275E+3  -3.57467E+3
   4.09126E+3  -3.96779E+3
   4.17765E+3   5.67078E+3
  -1.37188E+3   4.56190E+3
  -1.78019E+3   2.27707E+3
  -9.17250E+2   5.06940E+3
  -5.03793E+3   4.47455E+3
  -4.42219E+3   1.54584E+3
   1.32269E+3   1.34091E+2
   3.25631E+3   2.05548E+3
   1.51431E+3  -7.85682E+2
   3.85798E+3   9.42821E+2
   1.60268E+3   3.87945E+3
  -2.91390E+3   4.03876E+3
  -3.93434E+3  -2.68398E+3
   1.70174E+3  -5.92099E+2
   2.56890E+3  -8.34958E+2
   1.30832E+2   6.41986E+2
   3.94185E+3  -3.42578E+3
   2.06118E+3   1.13802E+3
   1.58418E+3   2.84993E+2
  -8.74373E+1   1.79635E+3
  -3.00408E+3   1.21928E+3
  -2.52972E+3  -3.55420E+3
   2.14663E+3  -4.15923E+3
   1.07646E+3  -1.29312E+3
   1.82799E+3  -2.09535E+3
   9.76329E+2   6.80978E+2
  -4.34543E+2   3.04992E+3
  -3.56139E+3   2.22198E+3
  -4.70682E+3  -3.03322E+3
  -2.80950E+3  -4.44270E+3
   6.26093E+1  -3.36632E+3
   2.22179E+3  -9.97951E+2
   1.98913E+3   2.97223E+3
  -1.76399E+3   3.35805E+3
   1.43836E+3  -1.01436E+3
   2.31808E+3   2.30104E+3
   3.30786E+3   4.53477E+3
  -1.76578E+2   4.03233E+3
  -1.29985E+3   6.96792E+2
   5.63700E+2   1.30812E+3
   1.36901E+3   2.33330E+3
  -2.85389E+3   7.35287E+2
  -8.52110E+2   2.63867E+2
  -2.86014E+2  -4.52169E+2
  -2.72304E+2  -2.27022E+1
  -7.69494E+2   5.16558E+2
  -1.63383E+3   1.68708E+3
  -3.38123E+2   3.30482E+2
  -8.67269E+2  -2.11718E+3
  -8.15212E+2   1.09120E+3
   6.03697E+2   2.99343E+3
   7.68799E+2   3.38562E+2
   2.32244E+3  -1.59701E+3
   1.90938E+3   1.37315E+2
   1.35628E+3   3.98879E+3
  -1.20447E+3   1.52995E+3
  -2.58603E+3  -1.14582E+3
  -1.23869E+3  -4.59196E+3
   1.12428E+3  -2.33050E+3
  -1.02562E+3  -1.16290E+3
  -2.79496E+3  -1.91489E+3
   2.92664E+2  -1.29713E+3
   5.41651E+2   1.92491E+3
   8.03432E+2   2.06273E+3
  -2.48578E+3   1.43212E+3
  -2.10941E+3  -1.55906E+3
   8.15356E+2  -1.75930E+3
   2.52019E+3  -1.06071E+3
   2.17689E+3   3.17067E+3
  -5.65714E+2   9.63715E+2
  -2.15444E+3  -1.91287E+3
   6.93125E+2  -4.08513E+3
   3.41618E+3  -6.34747E+2
   1.97146E+3  -1.27153E+3
   4.44938E+2  -2.60350E+3
   6.37071E+2  -2.37801E+3
   1.57157E+3  -1.54017E+3
  -2.07358E+3   2.28651E+3
  -3.31912E+3   1.09463E+3
  -4.74726E+3  -3.31826E+2
  -2.19070E+3  -1.97397E+3
   1.68808E+3  -8.81527E+2
   1.52216E+2   1.37860E+3
   2.35014E+3  -1.27128E+3
   1.40095E+3  -2.28303E+3
  -8.04295E+2   5.66079E+2
  -7.50178E+2   2.11077E+1
  -2.02435E+3  -1.10104E+3
  -7.61401E+2  -1.18720E+3
   1.15342E+3  -1.99066E+3
   3.38971E+3  -1.41043E+2
   9.62501E+2   1.44901E+3
  -3.07479E+3   4.22329E+2
  -1.15279E+3  -2.37592E+3
  -1.37324E+3  -1.19135E+3
  -4.21697E+2   3.72344E+2
  -6.71498E+2  -3.42486E+2
   1.17166E+3  -4.40312E+2
   3.85934E+2  -8.02291E+2
   8.70846E+1  -1.07663E+3
  -2.04101E+3   2.79225E+3
  -1.52503E+3  -1.08779E+3
   1.61232E+2  -2.37449E+3
   1.03814E+3   4.94800E+1
   4.19702E+3  -3.93892E+2
   3.54612E+3  -7.66916E+2
   9.10787E+2   6.39324E+2
  -2.04152E+2   5.89219E+2
   6.25842E+2  -7.74109E+2
   1.52767E+3   8.32294E+2
  -1.82772E+3   6.42861E+2
  -5.88983E+2  -1.77521E+3
   5.53615E+2  -3.91878E+3
   8.79190E+2  -6.90319E+2
  -1.19544E+3  -1.75550E+3
   4.14148E+2  -5.83652E+2
   1.20908E+3  -1.33286E+3
  -1.29075E+3   1.39364E+3
  -5.96081E+2  -2.12002E+2
  -1.00609E+3  -6.85789E+2
   4.90769E+2   2.24657E+3
   1.59634E+3   1.00496E+3
  -2.31413E+3   2.31049E+3
  -1.55505E+3   1.43601E+3
  -2.10087E+3  -1.49235E+3
  -9.64486E+2  -1.48830E+3
   1.13673E+3  -1.59427E+3
  -1.16240E+3  -1.14864E+3
  -4.33012E+2  -2.01676E+3
  -7.38164E+2  -1.78079E+3
  -6.06997E+2  -1.23281E+3
  -1.67184E+3   7.86105E+2
   5.02242E+2   9.75347E+2
  -1.41815E+3  -1.82180E+2
   2.04145E+3  -2.44893E+3
   3.66088E+2   2.38498E+3
  -1.72209E+3   2.14548E+3
  -2.25199E+3  -1.36487E+3
  -1.45546E+3  -2.63392E+3
   1.21915E+3  -1.10081E+3
   3.50117E+3   7.96586E+2
  -3.27757E+2  -1.50212E+3
  -8.50312E+2  -5.32271E+2
  -1.35214E+3   1.31308E+3
   9.12489E+2   1.52916E+3
  -2.51787E+3   1.57405E+3
  -7.03032E+2  -1.22258E+3
  -1.43089E+3  -1.00091E+3
   2.85803E+3  -6.03800E+2
   2.81510E+3  -4.86379E+2
  -3.70100E+2   9.27261E+2
  -1.06525E+2   3.31195E+2
  -7.83847E+2   1.14332E+3
   1.08233E+3   1.49812E+3
  -8.67261E+2   8.11782E+2
   2.43117E+2   3.21828E+1
   2.17763E+3  -2.78431E+3
   2.90857E+3   1.86513E+3
   7.74654E+2   2.15887E+3
  -8.59830E+2   2.75187E+3
  -5.27541E+2   1.69881E+1
  -1.17153E+3  -1.16175E+3
   7.28236E+2  -1.87029E+2
   2.14029E+3  -9.54016E+2
  -2.25572E+3   1.55457E+3
  -1.13932E+2  -3.64825E+2
   2.74388E+2  -1.38930E+2
  -6.99450E+2   3.71391E+2
  -1.65858E+3   3.45449E+2
  -1.89235E+3  -8.21586E+2
   2.83181E+3  -2.01566E+3
   1.06599E+3   2.47292E+3
   2.30062E+3   1.38071E+3
  -3.75294E+2   6.73634E+1
  -1.75802E+3   8.58389E+1
  -4.08961E+2   1.18899E+3
   8.64929E+2  -9.19089E+1
  -2.89746E+3  -9.53482E+2
   1.07139E+3  -2.19911E+3
   1.33007E+3  -1.83730E+2
   3.58455E+3   1.43579E+3
   8.64211E+2   6.26976E+2
  -2.34718E+3   1.95413E+3
  -4.24259E+2  -2.48083E+3
   3.47702E+2  -9.13922E+2
   8.00287E+2   1.72172E+3
   1.37756E+3  -2.76792E+1
   1.96947E+2  -1.46780E+3
   5.29049E+2   6.48687E+2
   3.31445E+3   1.46143E+3
   8.63387E+2   2.51862E+3
  -5.46201E+2   3.88859E+2
   5.59522E+2   3.34880E+2
   2.86353E+3  -2.09184E+2
   1.03991E+3   2.09510E+3
   6.67530E+2   6.06515E+2
  -9.25798E+2  -2.05146E+2
   6.90837E+2   1.18982E+3
   7.26092E+2  -7.78568E+2
   1.31846E+3   3.07168E+2
   3.80384E+2   1.16324E+3
   6.43503E+2  -6.40738E+2
   2.80441E+3  -1.06937E+3
  -1.04189E+3   2.80499E+3
  -3.94099E+2   1.97337E+3
  -4.09724E+2  -2.05884E+3
  -2.66321E+2   1.08157E+3
   1.58531E+3   1.26006E+3
   2.24233E+3   4.15408E+3
  -1.80010E+3   2.12827E+3
   4.28919E+2   2.50911E+2
   6.02300E+2  -6.87057E+2
   4.03591E+2   2.14051E+3
   1.43965E+3   7.06788E+2
  -2.31503E+3   6.03462E+1
   1.65279E+3   6.30760E+2
  -2.42813E+2   1.43420E+2
   6.26590E+0   1.43468E+3
  -2.58365E+3   2.34082E+3
  -1.95735E+2   8.12105E+1
   9.90646E+2  -6.61731E+2
   2.84563E+3  -1.23966E+3
  -5.02305E+2  -5.76181E+2
  -6.63792E+2   3.08003E+2
   1.16003E+3   5.01732E+2
  -5.76201E+2   1.81907E+2
  -1.31504E+3   1.33113E+3
  -2.23103E+3   1.94399E+3
  -5.10393E+2  -1.63742E+3
   1.82402E+3  -5.44107E+2
   9.44090E+2  -2.47582E+2
  -2.80769E+3  -9.57570E+1
  -1.14961E+3   2.07848E+2
  -5.80392E+2  -6.98167E+2
  -1.05973E+2  -7.80041E+2
   6.44024E+2   5.14450E+2
   9.44997E+2  -1.03032E+2
   1.01866E+3  -1.02135E+3
   1.14040E+3   6.45702E+2
  -7.00568E+1   9.78297E+2
  -2.43948E+3   2.12733E+3
  -8.32845E+2   8.38180E+2
  -2.39939E+2   3.79815E+2
   1.09721E+3  -7.17258E+2
   1.51111E+3   1.55832E+3
   1.17709E+3  -3.42711E+2
   9.16208E+2   7.10759E+2
  -1.12290E+3  -2.32032E+1
  -6.66714E+2  -2.21190E+2
   6.45292E+2   1.69483E+3
   1.14747E+3  -9.89701E+2
   1.13527E+3  -2.71494E+3
   1.25441E+3  -2.80514E+2
  -1.20464E+3   7.18991E+2
   1.30627E+3  -1.67622E+2
   8.01387E+2  -5.83783E+1
   3.79365E+2  -1.59382E+2
   7.91297E+2   1.94967E+3
   5.82146E+2   2.17579E+3
  -6.49171E+2   1.49323E+2
  -8.48298E+2  -1.05490E+3
   2.27208E+2   2.29743E+3
  -3.56913E+2   1.99143E+3
  -1.90079E+3  -5.13952E+2
  -1.71159E+3  -1.26273E+3
   1.89254E+3  -2.27682E+3
   4.35670E+2   1.67302E+3
   1.99364E+3   2.89569E+2
   8.96283E+2   1.69010E+3
   1.13391E+3  -1.32445E+3
  -7.78069E+2   1.60940E+3
  -8.02026E+1   2.64148E+2
  -2.17948E+2  -1.57070E+3
  -7.25191E+1  -9.72619E+2
   1.67631E+3   1.94497E+3
   1.88463E+3   2.19464E+3
  -1.52266E+2   1.87236E+3
  -1.69853E+2   7.04579E+2
  -2.23680E+2  -7.71236E+2
  -1.12554E+3   6.23652E+2
  -2.06253E+3   5.61070E+2
   8.66597E+2   3.07332E+2
  -6.35623E+2  -8.93125E+1
   6.48887E+2   3.95651E+2
   1.53496E+3  -9.63924E+2
  -1.24411E+3   2.51708E+3
  -8.45012E+2  -2.80249E+3
  -2.65421E+3   9.20690E+2
   9.11125E+2   3.16608E+2
   1.91980E+3   3.50913E+2
  -9.97425E+2   8.03730E+2
  -8.33738E+2  -7.50098E+2
  -8.59088E+2   1.36123E+2
   2.01699E+2   1.46479E+2
  -1.85302E+3   2.65800E+2
   5.13891E+2  -1.09261E+3
  -6.11880E+2  -8.55384E+2
   2.33722E+2   6.00855E+1
  -1.21252E+2   1.84364E+3
   2.92930E+1   1.34137E+3
  -1.72450E+3  -4.93264E+2
  -1.82851E+3  -3.11958E+3
   7.64992E+2  -6.77341E+2
  -1.23797E+3  -1.59828E+3
   3.92358E+2  -1.03676E+2
   3.90925E+2  -5.87572E+2
   1.23661E+3   2.24597E+2
  -1.85846E+1   3.37981E+2
  -2.19521E+3  -4.04118E+1
  -7.89425E+2   5.13044E+2
   2.00156E+3   3.50370E+2
  -5.86647E+2   1.37724E+1
   1.02980E+3   2.34620E+3
   6.45166E+2   7.14498E+2
  -5.11846E+2  -5.29620E+2
   6.25119E+2  -1.34782E+3
  -1.78474E+3   1.08181E+3
  -6.55463E+2   1.46746E+3
  -9.05215E+2   8.45788E+2
  -7.49432E+2  -5.50821E+2
   8.79687E+2   2.25412E+3
   2.05489E+2  -2.45561E+3
   5.99748E+2  -2.05130E+3
   1.01859E+3   5.59930E+2
   8.80168E+2   2.51667E+2
  -2.55309E+1   5.75911E+2
   2.96037E+2  -6.10795E+2
  -1.93957E+2   1.57533E+3
  -7.96784E+2  -2.51568E+2
  -3.23522E+2   1.45526E+3
  -3.58657E+2  -8.38444E+2
  -3.46719E+2   1.84456E+3
  -3.39981E+2   1.22898E+1
  -2.64170E+0  -1.54970E+2
  -1.32406E+3   3.51700E+2
  -9.85339E+1  -9.27294E+1
