 LCModel (Version 6.3-1N) Copyright: S.W. Provencher.          Ref.: Magn. Reson. Med. 30:672-679 (1993).                
 Slice_N1@18_15  02-Jun-2023 14:36:51
 27 lines in following concentration table = NCONC+1
    Conc.  %SD /Cr+PCr  Metabolite                                         
 2.29E-06  14% 2.5E-04 Mac                                                 
 3.42E-02  19%   3.700 Cr                                                  
 3.97E-02  16%   4.300 PCr                                                 
 7.84E-02  10%   8.486 Ins                                                 
 9.39E-02   7%  10.155 NAA                                                 
 7.16E-02  10%   7.742 Tau                                                 
 8.11E-03  22%   0.877 PCho                                                
 6.61E-03  27%   0.715 GPC                                                 
 8.80E-02  10%   9.517 Glu                                                 
 1.66E-02  35%   1.800 Gln                                                 
    0.000 999%   0.000 Ala                                                 
 1.24E-02  92%   1.347 Asc                                                 
 1.22E-02  62%   1.316 Asp                                                 
 8.39E-03  48%   0.908 GABA                                                
 1.19E-02  44%   1.289 Glc                                                 
 7.32E-03  41%   0.792 GSH                                                 
 1.49E-03 414%   0.161 Lac                                                 
    0.000 999%   0.000 NAAG                                                
    0.000 999%   0.000 PE                                                  
 1.47E-02  13%   1.592 GPC+PCho                                            
 9.39E-02   7%  10.155 NAA+NAAG                                            
    0.105  10%  11.317 Glu+Gln                                             
 7.40E-02   8%   8.000 Cr+PCr                                              
 9.39E-02   7%  10.155 NAA+NAAG                                            
 7.40E-02   8%   8.000 Cr+PCr                                              
    0.105  10%  11.317 Glu+Gln                                             
   6 lines in following misc. output table
  FWHM = 0.017 ppm    S/N =   8                                            
  Data shift = 0.029 ppm                                                   
  Ph: -42 deg     -13.0 deg/ppm                                            
  alphaB,S = 1.0E+00,   3.6E-01                                            
   18 spline knots.   Ns = 5(1)                                            
   2 inflections.     1 extrema                                            
  654 points on ppm-axis = NY
      4.000000     3.994181     3.988363     3.982544     3.976726     3.970907     3.965088     3.959270     3.953451     3.947633
      3.941814     3.935995     3.930177     3.924358     3.918540     3.912721     3.906902     3.901084     3.895265     3.889446
      3.883628     3.877809     3.871991     3.866172     3.860353     3.854535     3.848716     3.842898     3.837079     3.831260
      3.825442     3.819623     3.813805     3.807986     3.802167     3.796349     3.790530     3.784712     3.778893     3.773074
      3.767256     3.761437     3.755619     3.749800     3.743981     3.738163     3.732344     3.726526     3.720707     3.714888
      3.709070     3.703251     3.697433     3.691614     3.685795     3.679977     3.674158     3.668339     3.662521     3.656702
      3.650884     3.645065     3.639246     3.633428     3.627609     3.621791     3.615972     3.610153     3.604335     3.598516
      3.592698     3.586879     3.581060     3.575242     3.569423     3.563605     3.557786     3.551967     3.546149     3.540330
      3.534512     3.528693     3.522874     3.517056     3.511237     3.505419     3.499600     3.493781     3.487963     3.482144
      3.476326     3.470507     3.464688     3.458870     3.453051     3.447232     3.441414     3.435595     3.429777     3.423958
      3.418139     3.412321     3.406502     3.400684     3.394865     3.389046     3.383228     3.377409     3.371591     3.365772
      3.359953     3.354135     3.348316     3.342498     3.336679     3.330860     3.325042     3.319223     3.313405     3.307586
      3.301767     3.295949     3.290130     3.284312     3.278493     3.272674     3.266856     3.261037     3.255219     3.249400
      3.243581     3.237763     3.231944     3.226125     3.220307     3.214488     3.208670     3.202851     3.197032     3.191214
      3.185395     3.179577     3.173758     3.167939     3.162121     3.156302     3.150484     3.144665     3.138846     3.133028
      3.127209     3.121391     3.115572     3.109753     3.103935     3.098116     3.092298     3.086479     3.080660     3.074842
      3.069023     3.063205     3.057386     3.051567     3.045749     3.039930     3.034111     3.028293     3.022474     3.016656
      3.010837     3.005018     2.999200     2.993381     2.987563     2.981744     2.975925     2.970107     2.964288     2.958470
      2.952651     2.946832     2.941014     2.935195     2.929377     2.923558     2.917739     2.911921     2.906102     2.900284
      2.894465     2.888646     2.882828     2.877009     2.871191     2.865372     2.859553     2.853735     2.847916     2.842098
      2.836279     2.830460     2.824642     2.818823     2.813004     2.807186     2.801367     2.795549     2.789730     2.783911
      2.778093     2.772274     2.766456     2.760637     2.754818     2.749000     2.743181     2.737363     2.731544     2.725725
      2.719907     2.714088     2.708270     2.702451     2.696632     2.690814     2.684995     2.679177     2.673358     2.667539
      2.661721     2.655902     2.650084     2.644265     2.638446     2.632628     2.626809     2.620991     2.615172     2.609353
      2.603535     2.597716     2.591897     2.586079     2.580260     2.574442     2.568623     2.562804     2.556986     2.551167
      2.545349     2.539530     2.533711     2.527893     2.522074     2.516256     2.510437     2.504618     2.498800     2.492981
      2.487163     2.481344     2.475525     2.469707     2.463888     2.458070     2.452251     2.446432     2.440614     2.434795
      2.428977     2.423158     2.417339     2.411521     2.405702     2.399884     2.394065     2.388246     2.382428     2.376609
      2.370790     2.364972     2.359153     2.353335     2.347516     2.341697     2.335879     2.330060     2.324242     2.318423
      2.312604     2.306786     2.300967     2.295149     2.289330     2.283511     2.277693     2.271874     2.266056     2.260237
      2.254418     2.248600     2.242781     2.236963     2.231144     2.225325     2.219507     2.213688     2.207870     2.202051
      2.196232     2.190414     2.184595     2.178777     2.172958     2.167139     2.161321     2.155502     2.149683     2.143865
      2.138046     2.132228     2.126409     2.120590     2.114772     2.108953     2.103135     2.097316     2.091497     2.085679
      2.079860     2.074042     2.068223     2.062404     2.056586     2.050767     2.044949     2.039130     2.033311     2.027493
      2.021674     2.015856     2.010037     2.004218     1.998400     1.992581     1.986763     1.980944     1.975126     1.969307
      1.963489     1.957670     1.951852     1.946033     1.940215     1.934397     1.928578     1.922760     1.916941     1.911123
      1.905304     1.899486     1.893667     1.887849     1.882030     1.876212     1.870393     1.864575     1.858756     1.852938
      1.847119     1.841301     1.835482     1.829664     1.823845     1.818027     1.812208     1.806390     1.800571     1.794753
      1.788934     1.783116     1.777297     1.771479     1.765660     1.759842     1.754023     1.748205     1.742386     1.736568
      1.730749     1.724931     1.719113     1.713294     1.707476     1.701657     1.695839     1.690020     1.684202     1.678383
      1.672565     1.666746     1.660928     1.655109     1.649291     1.643472     1.637654     1.631835     1.626017     1.620198
      1.614380     1.608561     1.602743     1.596924     1.591106     1.585287     1.579469     1.573650     1.567832     1.562013
      1.556195     1.550376     1.544558     1.538739     1.532921     1.527102     1.521284     1.515465     1.509647     1.503829
      1.498010     1.492192     1.486373     1.480555     1.474736     1.468918     1.463099     1.457281     1.451462     1.445644
      1.439825     1.434007     1.428188     1.422370     1.416551     1.410733     1.404914     1.399096     1.393277     1.387459
      1.381640     1.375822     1.370003     1.364185     1.358366     1.352548     1.346729     1.340911     1.335092     1.329274
      1.323455     1.317637     1.311818     1.306000     1.300182     1.294363     1.288545     1.282726     1.276908     1.271089
      1.265271     1.259452     1.253634     1.247815     1.241997     1.236178     1.230360     1.224541     1.218723     1.212904
      1.207086     1.201267     1.195449     1.189630     1.183812     1.177993     1.172175     1.166356     1.160538     1.154719
      1.148901     1.143082     1.137264     1.131445     1.125627     1.119808     1.113990     1.108171     1.102353     1.096534
      1.090716     1.084898     1.079079     1.073261     1.067442     1.061624     1.055805     1.049987     1.044168     1.038350
      1.032531     1.026713     1.020894     1.015076     1.009257     1.003439     0.997620     0.991802     0.985983     0.980165
      0.974346     0.968528     0.962709     0.956891     0.951072     0.945254     0.939435     0.933617     0.927798     0.921980
      0.916161     0.910343     0.904524     0.898706     0.892887     0.887069     0.881251     0.875432     0.869614     0.863795
      0.857977     0.852158     0.846340     0.840521     0.834703     0.828884     0.823066     0.817247     0.811429     0.805610
      0.799792     0.793973     0.788155     0.782336     0.776518     0.770699     0.764881     0.759062     0.753244     0.747425
      0.741607     0.735788     0.729970     0.724151     0.718333     0.712514     0.706696     0.700877     0.695059     0.689240
      0.683422     0.677603     0.671785     0.665967     0.660148     0.654330     0.648511     0.642693     0.636874     0.631056
      0.625237     0.619419     0.613600     0.607782     0.601963     0.596145     0.590326     0.584508     0.578689     0.572871
      0.567052     0.561234     0.555415     0.549597     0.543778     0.537960     0.532141     0.526323     0.520504     0.514686
      0.508867     0.503049     0.497230     0.491412     0.485593     0.479775     0.473956     0.468138     0.462319     0.456501
      0.450682     0.444864     0.439045     0.433227     0.427408     0.421590     0.415771     0.409953     0.404134     0.398316
      0.392497     0.386679     0.380860     0.375042     0.369223     0.363405     0.357586     0.351767     0.345949     0.340130
      0.334312     0.328493     0.322675     0.316856     0.311038     0.305219     0.299401     0.293582     0.287764     0.281945
      0.276127     0.270308     0.264490     0.258671     0.252853     0.247034     0.241216     0.235397     0.229579     0.223760
      0.217942     0.212123     0.206305     0.200486
 NY phased data points follow
  -1.67146E-01 -2.10066E-01 -2.34642E-01 -1.61580E-02 -2.80077E-01 -2.05329E-01 -9.78389E-02 -3.01245E-01 -3.14747E-01  2.40905E-01
   2.04009E-02  5.49278E-01  6.93712E-01  1.15741E-01  3.36888E-01  6.94086E-01  3.37355E-01  1.60921E-01  4.24558E-01 -1.03671E-02
   4.23211E-02 -8.96407E-02  2.73740E-01 -1.33286E-02 -4.26928E-01  5.85098E-02 -1.78428E-01  4.52396E-02  1.02998E-01 -3.36838E-02
   1.31966E-01  6.07458E-02 -1.77216E-01 -2.06779E-01 -1.99623E-02 -9.82092E-02 -5.28378E-01 -4.32357E-01 -4.54239E-01 -2.44226E-01
   1.57501E-01 -3.98500E-02  3.24889E-01  4.26059E-01  3.89433E-01  4.07398E-01  1.57448E-01  2.17737E-01  1.04668E-01  8.25332E-02
   3.18011E-01  2.08860E-01  7.62654E-02 -6.01253E-02 -2.54208E-01 -2.94839E-01 -2.13048E-01 -1.52735E-01 -3.68920E-02 -5.01918E-01
  -4.41469E-01  2.53474E-02 -6.60843E-01 -2.84560E-01 -2.29282E-01 -1.56941E-01  3.12622E-01  2.43220E-01  4.07486E-01  2.31581E-01
   2.36730E-01  2.12229E-01  3.33817E-01 -2.68421E-02 -1.87749E-01 -3.38931E-01 -2.00128E-01 -2.55060E-01 -5.48631E-01 -1.33176E-01
  -4.36824E-01 -1.20420E-01  2.02720E-01  1.70667E-01  2.15350E-01  5.88574E-01  6.08711E-01  1.81031E-01 -9.71059E-03  4.48977E-02
   2.32564E-01  1.62233E-01  3.68720E-01  1.11506E-01  1.44042E-01  1.12730E-01  1.63597E-02 -9.46132E-02 -3.02080E-01 -4.05586E-01
  -5.18322E-01  3.68208E-02 -3.57362E-02  1.89941E-01  6.53954E-01  4.63684E-01  4.56583E-01  5.45713E-01  5.14275E-01  4.87228E-01
   5.06047E-01  4.22698E-01  3.61298E-01  4.76991E-01  4.99247E-01  4.99439E-01  3.18108E-01  4.10850E-02  3.27836E-01  4.63756E-01
   5.27076E-01  4.27402E-01  2.08462E-01  1.95953E-01 -1.26554E-01 -1.26897E-01 -2.00796E-01 -6.56888E-01 -6.38134E-01 -6.88026E-01
  -8.38660E-01 -7.41407E-01 -5.70455E-01 -5.00769E-01 -7.64219E-01 -6.14179E-01 -8.28827E-01 -8.74835E-01 -4.07674E-01 -3.31365E-01
  -6.19547E-02  6.47205E-02  5.72553E-02  2.86098E-02  1.77290E-01  4.89554E-02  1.61974E-01  3.32622E-01 -5.40267E-02  5.73637E-02
   7.50658E-02  3.15255E-02  2.24989E-02  2.78669E-01  5.95043E-01  3.65511E-01  4.87111E-01  4.89584E-01  1.63158E-01  4.22625E-01
   5.27151E-01  3.97750E-01  7.10368E-01  1.04175E+00  9.85602E-01  1.14454E+00  1.02705E+00 -2.31697E-01 -9.98719E-01 -1.17925E+00
  -8.68383E-01 -5.62629E-01 -5.20422E-01 -1.23792E-01 -5.19388E-01 -3.26476E-01 -8.71951E-02 -5.59660E-01 -5.61155E-01 -5.05872E-01
  -3.16043E-01 -1.93961E-01 -3.49255E-01 -2.88822E-01 -2.03125E-01 -3.64983E-01 -1.12154E-01 -3.29833E-01 -2.27051E-01 -2.56161E-02
  -6.90793E-01 -5.31187E-01 -2.21595E-01 -6.72808E-03 -7.90112E-02 -1.16921E-01 -2.04092E-01 -1.73233E-01 -8.59563E-03 -3.22115E-01
  -1.13432E-01 -2.64334E-02  2.06101E-01  2.10685E-02 -1.55524E-01  6.15263E-02 -1.43706E-01  1.47487E-01  2.79801E-01  7.41655E-02
  -5.04794E-04 -1.82292E-01 -1.73828E-01  3.67718E-02 -1.76394E-01  4.94052E-02  6.57540E-02 -2.06812E-02 -2.24886E-02 -2.38410E-01
   1.72569E-01 -4.45109E-03 -1.73653E-02 -1.96586E-02  8.17997E-02  4.98668E-01  3.06334E-01  6.92917E-02  1.48474E-01  5.00647E-01
   4.24413E-01  2.66803E-01  7.23369E-02 -1.54724E-01 -1.54386E-01  1.16238E-01 -8.58988E-02 -2.38147E-01 -3.16687E-02  2.01126E-02
   1.10713E-01 -5.81565E-02  4.77728E-02 -1.45547E-01 -2.40910E-01 -1.15402E-01 -6.88495E-02 -1.78280E-01  1.12873E-02  8.84866E-02
  -1.02151E-01  8.19076E-02 -3.70346E-01 -1.08146E-01 -4.76044E-01 -2.47911E-01  3.80835E-01 -3.07991E-01  3.76835E-02  1.23767E-01
   3.07419E-01  3.13258E-01  5.65470E-02  3.30099E-01  2.42374E-01  3.95152E-02  3.78539E-01  4.18464E-01  4.67180E-02  2.74475E-01
   3.94988E-01 -8.87366E-02 -5.05242E-01  1.42631E-01 -1.72244E-02 -2.12197E-01 -1.20822E-01 -5.06721E-01 -1.55696E-01 -2.74504E-01
  -3.34584E-01 -4.54776E-01 -4.24696E-01 -2.95631E-01 -1.58873E-01  4.04132E-01  4.04158E-01  5.22199E-01  6.27283E-01  5.52932E-01
   4.88793E-01  3.13345E-01  1.60784E-01 -1.15924E-01 -1.53317E-01  3.59725E-01  2.16445E-01 -1.55586E-01  2.85537E-01  1.50370E-01
   2.51828E-02  2.25531E-01  2.12674E-01  6.98560E-01  3.00000E-01  1.60577E-02  6.70180E-01  3.66743E-01  2.70970E-01  3.92462E-01
   2.88134E-01  3.13578E-01  3.78232E-01  4.71233E-01  1.16645E-01 -6.20793E-02 -4.14371E-02 -7.94812E-03 -1.02865E-01 -3.12508E-01
  -3.39057E-01 -4.35579E-01 -3.08429E-01 -2.21946E-01 -2.74435E-01 -4.20282E-02 -1.98056E-01 -1.49272E-02  8.77055E-02  7.01058E-02
   1.58646E-01 -2.12324E-01  4.30935E-02 -2.61433E-01 -2.60073E-01 -1.07181E-01 -2.43987E-01 -8.68361E-02 -4.04556E-02 -4.02624E-01
  -7.40531E-01 -1.01905E+00 -3.12678E+00 -2.29554E+00 -3.61107E-01 -3.39660E-01 -2.18013E-01 -3.52168E-01  2.39027E-02 -1.70056E-01
   5.89308E-02  9.61732E-02  2.21140E-01  1.58542E-01  1.37957E-01  3.88106E-01 -1.47084E-01  1.60697E-01 -1.07875E-01 -2.20806E-01
   1.99827E-01  1.25693E-01  1.39783E-01  4.43569E-02 -4.95028E-02  1.45558E-01  1.32010E-01 -1.92386E-02  5.68161E-02  2.39247E-01
  -5.00030E-02  8.56557E-03  2.29330E-01 -3.76086E-02  4.09482E-01  2.26625E-01  1.53505E-01  2.32678E-01  1.80682E-01  3.16376E-01
   1.35273E-01  7.23105E-02  1.62948E-01  3.01604E-01  2.49653E-01  3.64100E-01  1.61288E-04  3.91425E-01  3.51944E-01  1.22258E-01
   2.80543E-01  2.14253E-01  4.64287E-01  2.24484E-01  6.03192E-01  1.58320E-01  7.93733E-02  5.27863E-01  3.66002E-01  3.43888E-01
   7.51444E-02  3.16701E-02  3.02437E-02  1.74405E-01  1.68844E-02 -2.18867E-01 -1.25149E-01  2.08741E-01 -1.09860E-01 -2.60882E-01
   4.54177E-02 -1.50581E-01  5.29567E-02  5.35197E-02 -2.50478E-01 -1.62361E-01  1.01343E-01 -6.86342E-02 -2.30768E-01 -2.98800E-01
  -3.65851E-01 -1.95238E-01 -2.03372E-01  7.45106E-02 -1.39289E-02 -1.17333E-02  8.15261E-02 -2.49878E-01 -2.06395E-01 -2.73081E-01
   2.49400E-02 -1.19400E-01 -5.72684E-02  1.64193E-01 -2.76245E-01  1.03691E-02  1.56959E-02 -6.57338E-03 -1.12971E-01 -3.28621E-01
  -1.21226E-01 -2.08250E-01 -2.92867E-01  5.30513E-02  2.84878E-03  4.29730E-02  2.79526E-01  3.67675E-01  1.68323E-01 -1.56302E-01
   1.81425E-02 -2.22132E-01  1.86297E-01 -2.18474E-01  1.16317E-02  1.07098E-02 -7.50846E-01  2.21663E-01 -2.26779E-01 -8.47993E-02
   3.91237E-02  8.28497E-02  2.40171E-01 -3.02670E-02  2.29860E-02 -2.10852E-01 -2.12303E-01 -4.09057E-01  7.90878E-02 -5.75490E-02
  -1.57714E-01 -1.87871E-01 -1.35951E-01 -1.31842E-01 -4.00664E-01 -1.35687E-02 -1.32509E-01 -1.33145E-01 -2.37618E-01  7.93745E-02
  -9.01260E-02 -2.01521E-01  3.85583E-01  1.35516E-01 -2.67729E-02 -5.13611E-02  1.87056E-01  1.29855E-01 -7.86384E-02  2.26601E-02
   4.39248E-02  1.71592E-01 -8.26159E-02 -1.50855E-01 -1.86907E-01 -9.08207E-02  1.78396E-01  8.52022E-03  1.88670E-01  3.08889E-01
   2.70761E-01  9.02030E-02 -1.16079E-02  2.54707E-01  2.09661E-01 -1.11621E-01 -1.22418E-04  2.42540E-01  3.18505E-01  4.26801E-01
   2.63668E-01  1.43499E-01  5.12444E-02  1.51680E-01  1.27752E-01  6.67466E-02 -8.15396E-02 -2.08762E-03  1.20517E-01  8.12393E-02
   6.68527E-02 -1.48282E-01  3.22379E-01  8.26233E-02 -3.05521E-01 -4.61220E-01 -7.96026E-01 -5.57862E-01 -4.06136E-01 -5.29984E-01
  -4.85532E-01 -2.43263E-01 -1.38248E-01 -1.66337E-01 -2.61405E-01 -2.36181E-01 -2.41496E-01  8.09541E-03 -4.36112E-01 -5.81407E-01
  -3.33232E-01 -5.27215E-01 -3.04301E-01 -3.36828E-01 -3.99535E-01 -2.07887E-01  3.45334E-02  1.69559E-01  2.57616E-01 -2.79727E-02
   5.57346E-02  1.00310E-01  3.02789E-01  2.13830E-01 -1.54195E-01  2.73440E-01 -2.89176E-02  2.59070E-01  2.68543E-01 -1.29513E-01
   3.15118E-01  1.07465E-01 -2.76277E-01  5.22930E-02  2.28658E-02 -2.06964E-02  1.71285E-01 -9.78403E-02 -1.62071E-01  3.86379E-03
   1.35701E-02 -3.20748E-02  2.64032E-01  6.59897E-02 -4.46010E-02  3.81878E-02  3.26275E-02  4.41819E-02  3.20694E-02  2.44247E-02
   4.77515E-02  5.78782E-02 -3.62932E-01 -2.72900E-02 -6.17242E-03  7.45076E-02  9.31625E-02 -5.44003E-02  1.70328E-01  6.30380E-02
   4.71347E-02 -2.13305E-01 -1.62317E-01  7.32193E-02  6.05041E-02 -9.79497E-02  2.22777E-01  9.48218E-02 -8.85285E-02  1.55377E-01
  -2.38059E-02 -6.54854E-02  9.25525E-02  3.13907E-01 -9.05502E-02 -1.49276E-01 -1.69724E-01 -3.64260E-01  3.13001E-02  1.20402E-01
  -8.11385E-03  1.26128E-02  4.01815E-02 -1.05591E-02 -7.99939E-02 -1.51888E-01  2.44231E-03 -1.30013E-02 -2.50122E-01  8.60467E-02
   6.59168E-02  2.29521E-02 -2.15764E-02 -3.89328E-01 -1.25193E-01 -2.68728E-01 -1.02958E-02  1.10310E-01 -1.16371E-01  9.32782E-02
   1.74065E-01  1.14333E-01 -4.80357E-03  1.55134E-01  2.02513E-02  9.16746E-02 -1.79319E-01 -3.92628E-02  2.14622E-01  1.90617E-01
   1.38007E-01  1.08434E-01  2.01895E-01 -1.65059E-01  2.41976E-01  9.93211E-03  4.19000E-03 -1.86177E-02 -1.92825E-02  4.11849E-01
   9.32570E-02  2.10281E-01  1.72442E-02 -1.03831E-01
 NY points of the fit to the data follow
   3.91814E-02  2.91370E-02  1.64432E-02  8.70443E-03  1.25504E-02  1.94625E-02  1.80705E-02  7.69662E-03  7.77106E-02  1.67726E-01
   2.21075E-01  5.67903E-01  7.38137E-01  4.44741E-01  3.43774E-01  7.47701E-01  6.55888E-01  2.56823E-01  2.33001E-01  1.36180E-01
   1.19919E-01  7.11835E-02  4.83801E-02  2.05425E-03 -2.97126E-02 -5.35648E-02 -7.18954E-02 -7.54666E-02 -8.65963E-02 -1.02570E-01
  -1.03068E-01 -1.14740E-01 -1.39970E-01 -1.78155E-01 -2.19744E-01 -2.60299E-01 -2.87055E-01 -2.99993E-01 -2.85186E-01 -1.42050E-01
  -2.58354E-02  9.83556E-02  2.74107E-01  3.80629E-01  4.53793E-01  3.83387E-01  2.91830E-01  2.05254E-01  1.53989E-01  1.39187E-01
   7.40071E-02  5.17515E-02  3.18530E-02 -1.06242E-02 -5.52838E-02 -1.05979E-01 -1.20665E-01 -1.01282E-01 -1.27911E-01 -2.23617E-01
  -2.73544E-01 -3.42008E-01 -4.30510E-01 -2.23249E-01 -2.27760E-01 -2.49303E-01  2.07491E-01  2.45696E-01  2.76544E-01  4.78334E-01
   4.17920E-01  3.27480E-01  2.15057E-01  1.60011E-01  8.71485E-02  1.66956E-03 -1.35821E-01 -2.76559E-01 -3.85991E-01 -6.65571E-01
  -5.98980E-01 -5.27574E-02  1.78183E-02  5.79385E-02  4.18967E-01  5.17301E-01  4.39451E-01  3.60290E-01  3.22052E-01  2.70809E-01
   2.43990E-01  2.26727E-01  1.83501E-01  1.50603E-01  7.29017E-02 -2.29155E-02 -1.97439E-01 -4.25470E-01 -4.70357E-01 -5.59856E-01
  -3.21698E-01 -3.25428E-02  1.28780E-01  3.30762E-01  2.92815E-01  3.27372E-01  3.07675E-01  3.10693E-01  3.03893E-01  3.09373E-01
   3.07700E-01  3.09610E-01  3.07977E-01  3.06690E-01  3.07079E-01  3.10051E-01  3.14623E-01  3.18959E-01  3.21692E-01  2.94964E-01
   2.79497E-01  2.51746E-01  5.60987E-02  6.58021E-02  6.32336E-02 -1.95488E-01 -2.18010E-01 -4.52834E-01 -5.66086E-01 -8.11443E-01
  -7.36097E-01 -5.06793E-01 -4.65194E-01 -4.47342E-01 -7.61285E-01 -6.49256E-01 -9.41843E-01 -7.71129E-01 -3.33127E-01 -2.32421E-01
  -1.06995E-01 -8.77213E-02 -9.47961E-03  8.57974E-03  3.38362E-02  6.08745E-02  8.61634E-02  1.06592E-01  1.27243E-01  1.44650E-01
   1.61138E-01  1.79793E-01  1.97256E-01  2.15729E-01  2.38428E-01  2.62017E-01  2.89603E-01  3.21775E-01  3.57300E-01  3.97067E-01
   4.52614E-01  5.36694E-01  6.75764E-01  8.66178E-01  9.34070E-01  9.79636E-01  8.90103E-01 -2.28406E-01 -1.26253E+00 -1.11955E+00
  -7.57863E-01 -5.97232E-01 -5.42754E-01 -4.47625E-01 -4.00009E-01 -3.69438E-01 -3.30938E-01 -3.10331E-01 -3.08607E-01 -2.94766E-01
  -2.63202E-01 -2.39606E-01 -2.37693E-01 -2.27685E-01 -2.19077E-01 -2.12702E-01 -1.99782E-01 -1.90138E-01 -1.78399E-01 -1.73395E-01
  -1.62186E-01 -1.51686E-01 -1.41205E-01 -1.32902E-01 -1.21431E-01 -1.12945E-01 -1.05693E-01 -9.62574E-02 -8.59657E-02 -7.50319E-02
  -6.38950E-02 -5.19347E-02 -3.11399E-02 -2.76653E-02 -4.96452E-02 -5.35842E-02 -4.15335E-02 -1.20596E-02 -8.99362E-03 -5.41394E-02
  -7.67668E-02 -7.38530E-02 -6.62915E-02 -6.40600E-02 -6.20935E-02 -5.69781E-02 -5.87020E-02 -5.92253E-02 -6.03124E-02 -5.85350E-02
  -5.76218E-02 -3.90955E-02  7.03161E-03  5.85530E-02  1.75972E-01  3.18538E-01  3.34595E-01  2.41918E-01  2.07985E-01  4.25996E-01
   5.77063E-01  3.23655E-01  9.19566E-02  3.81132E-02 -1.91037E-03 -3.08417E-02 -5.30178E-02 -5.40189E-02 -6.12380E-02 -7.08136E-02
  -8.12469E-02 -8.83465E-02 -9.24744E-02 -9.69818E-02 -9.70946E-02 -1.06182E-01 -1.06366E-01 -1.10204E-01 -1.16989E-01 -1.17478E-01
  -1.39188E-01 -1.55530E-01 -1.87880E-01 -1.95262E-01 -1.88674E-01 -2.29562E-01 -2.71534E-02  5.28888E-02 -8.21021E-02  1.02773E-01
   1.37104E-01  1.70370E-01  1.39479E-01  4.12410E-02  1.88092E-01  1.46101E-01  1.30144E-01  1.06288E-01  1.08844E-01  1.21809E-01
   6.14956E-02  4.52635E-02 -1.17340E-02 -4.24901E-02 -8.37737E-02 -1.24273E-01 -1.71114E-01 -2.28548E-01 -3.03676E-01 -3.64562E-01
  -4.78429E-01 -5.10014E-01 -4.29959E-01 -3.76055E-01 -6.74638E-02  2.35515E-01  3.82340E-01  5.57794E-01  5.15133E-01  4.01138E-01
   3.37246E-01  2.67195E-01  2.42978E-01  2.11910E-01  1.98507E-01  2.32535E-01  2.39125E-01  2.48859E-01  2.60011E-01  2.41725E-01
   2.39882E-01  2.31153E-01  2.26366E-01  2.19401E-01  2.18390E-01  2.12534E-01  2.07345E-01  2.00804E-01  1.91218E-01  1.78628E-01
   1.61368E-01  1.40290E-01  1.11489E-01  7.21435E-02  3.17950E-02 -2.49733E-02 -9.14647E-02 -1.63674E-01 -2.37312E-01 -2.77066E-01
  -3.21822E-01 -3.35303E-01 -3.10010E-01 -2.86439E-01 -1.87538E-01 -9.27455E-02  7.32291E-03  6.73578E-02  9.26005E-02  8.56040E-02
   4.44050E-03 -3.29710E-02 -1.52596E-01 -1.41138E-01 -1.73406E-01 -1.37486E-01 -6.47117E-02 -3.10601E-02  1.05390E-02 -3.91651E-01
  -6.07808E-01 -1.19388E+00 -2.99806E+00 -2.31108E+00 -6.45161E-01 -4.57448E-01 -1.85985E-01 -2.23770E-01 -2.36448E-02 -6.67482E-02
  -5.57344E-02 -3.90137E-02 -2.33900E-02 -1.28561E-02 -2.97271E-03  5.72763E-03  1.28614E-02  1.34257E-02  1.08866E-02  6.23776E-03
  -1.49368E-02 -1.61306E-02 -3.77377E-02 -4.09110E-02 -3.49641E-02 -3.28361E-02 -7.31089E-03 -2.00763E-03  1.25126E-02  1.79180E-02
   2.77632E-02  3.22400E-02  3.96852E-02  4.61539E-02  4.78638E-02  5.05833E-02  5.51534E-02  5.89538E-02  6.44909E-02  6.77429E-02
   6.93394E-02  7.20539E-02  7.53003E-02  7.97250E-02  8.31392E-02  8.39527E-02  8.56507E-02  8.56353E-02  8.91718E-02  9.42634E-02
   9.76719E-02  1.01313E-01  1.02126E-01  1.01495E-01  9.75737E-02  9.50209E-02  9.34305E-02  8.99727E-02  8.61406E-02  8.16304E-02
   7.46430E-02  6.77043E-02  6.21023E-02  5.36048E-02  4.48598E-02  3.87629E-02  3.44630E-02  2.74142E-02  1.94386E-02  1.51132E-02
   1.01637E-02  4.51620E-03  2.32657E-03 -5.52550E-04 -4.99762E-03 -7.91236E-03 -1.15945E-02 -1.52800E-02 -1.78617E-02 -1.98044E-02
  -2.07108E-02 -2.26198E-02 -2.37699E-02 -2.10194E-02 -1.89805E-02 -1.73477E-02 -1.30240E-02 -8.06210E-03 -5.00788E-03  1.64439E-03
   5.91818E-03  5.76634E-03  6.97897E-03  1.05769E-02  1.98174E-02  2.77829E-02  3.57183E-02  4.16983E-02  4.83355E-02  5.77221E-02
   6.80650E-02  8.00532E-02  9.19848E-02  1.03712E-01  1.14447E-01  1.26910E-01  1.37986E-01  1.48198E-01  1.54445E-01  1.58844E-01
   1.59150E-01  1.58393E-01  1.58957E-01  1.55080E-01  1.52795E-01  1.47646E-01  1.38233E-01  1.30162E-01  1.18622E-01  1.11802E-01
   1.18124E-01  1.09553E-01  1.02384E-01  9.05874E-02  6.61232E-02  5.69952E-02  4.73147E-02  3.89838E-02  3.11981E-02  2.49759E-02
   2.10305E-02  1.60348E-02  1.18293E-02  8.93081E-03  7.80052E-03  1.01508E-02  1.34619E-02  1.52967E-02  1.82948E-02  2.35539E-02
   2.73875E-02  3.36395E-02  4.12900E-02  4.52226E-02  4.81539E-02  5.01876E-02  5.25916E-02  5.28052E-02  5.49758E-02  5.95886E-02
   6.08354E-02  6.02547E-02  5.83920E-02  5.56986E-02  5.37375E-02  5.11170E-02  4.49543E-02  4.12182E-02  3.88456E-02  3.54798E-02
   3.16442E-02  2.70722E-02  2.40395E-02  2.02366E-02  1.50529E-02  1.09068E-02  6.76548E-03  1.85867E-03  1.01732E-03 -8.07049E-04
  -5.94531E-03 -1.03630E-02 -1.42798E-02 -1.93853E-02 -2.80894E-02 -3.74893E-02 -4.47449E-02 -5.32556E-02 -6.38291E-02 -7.67680E-02
  -9.43657E-02 -1.14692E-01 -1.32838E-01 -1.48118E-01 -1.64981E-01 -1.81494E-01 -1.96165E-01 -2.08649E-01 -2.18877E-01 -2.29543E-01
  -2.36830E-01 -2.36082E-01 -2.33306E-01 -2.33143E-01 -2.30626E-01 -2.22058E-01 -2.11756E-01 -2.05365E-01 -1.99013E-01 -1.91414E-01
  -1.85572E-01 -1.78611E-01 -1.66969E-01 -1.57368E-01 -1.48071E-01 -1.36228E-01 -1.24499E-01 -1.12976E-01 -1.04873E-01 -9.28068E-02
  -8.35577E-02 -7.61857E-02 -6.50351E-02 -5.61688E-02 -5.05670E-02 -4.47135E-02 -3.79817E-02 -2.91656E-02 -2.39551E-02 -2.41205E-02
  -1.89502E-02 -1.30124E-02 -1.09833E-02 -9.12724E-03 -6.57466E-03 -6.37761E-03 -4.37035E-03 -1.26647E-03 -1.85643E-03 -3.75569E-03
  -8.90445E-04  3.32745E-03  3.71057E-03  6.44474E-03  9.85877E-03  9.83476E-03  8.48765E-03  9.27012E-03  9.89545E-03  8.29332E-03
   8.90175E-03  8.89835E-03  7.55100E-03  8.29454E-03  7.57037E-03  7.25267E-03  9.64131E-03  9.81583E-03  1.04778E-02  1.06152E-02
   4.96261E-03  7.97279E-04  4.75804E-03  7.71823E-03  6.23724E-03  4.54578E-03  4.78916E-03  5.26210E-03  1.86198E-03  7.68048E-04
   1.86454E-03  5.68757E-03  7.79526E-03  6.39614E-03  7.68372E-03  8.82710E-03  1.07984E-02  1.20072E-02  1.25317E-02  1.34629E-02
   1.50234E-02  1.54315E-02  1.19695E-02  1.03495E-02  1.31027E-02  1.43082E-02  1.55466E-02  1.73948E-02  1.83440E-02  2.01293E-02
   1.83714E-02  2.03433E-02  2.81914E-02  2.88430E-02  3.00024E-02  2.92406E-02  2.46379E-02  2.55765E-02  2.75539E-02  3.01795E-02
   3.17763E-02  3.05443E-02  3.00011E-02  3.14450E-02  3.25111E-02  3.38785E-02  3.58171E-02  3.40638E-02  3.65471E-02  4.13735E-02
   4.30283E-02  4.25251E-02  4.44129E-02  4.72667E-02  4.88383E-02  5.25718E-02  5.44464E-02  6.05497E-02  6.82747E-02  7.14401E-02
   7.49969E-02  7.71924E-02  8.15795E-02  8.57338E-02
 NY background values follow
     4.079E-02    4.089E-02    4.098E-02    4.108E-02    4.117E-02    4.127E-02    4.136E-02    4.146E-02    4.155E-02    4.165E-02
     4.174E-02    4.184E-02    4.193E-02    4.202E-02    4.212E-02    4.221E-02    4.231E-02    4.240E-02    4.250E-02    4.259E-02
     4.269E-02    4.278E-02    4.287E-02    4.297E-02    4.306E-02    4.315E-02    4.325E-02    4.334E-02    4.343E-02    4.352E-02
     4.362E-02    4.371E-02    4.380E-02    4.389E-02    4.398E-02    4.408E-02    4.417E-02    4.426E-02    4.435E-02    4.444E-02
     4.453E-02    4.462E-02    4.470E-02    4.479E-02    4.488E-02    4.497E-02    4.506E-02    4.514E-02    4.523E-02    4.532E-02
     4.540E-02    4.549E-02    4.558E-02    4.566E-02    4.574E-02    4.583E-02    4.591E-02    4.599E-02    4.608E-02    4.616E-02
     4.624E-02    4.632E-02    4.640E-02    4.648E-02    4.656E-02    4.664E-02    4.672E-02    4.679E-02    4.687E-02    4.694E-02
