 
 $NMID
 ID=''
 FMTDAT='(2E13.5)'
 TRAMP=   1.00000E+0
 VOLUME=   1.00000E+0
 $END
   6.38878E+2   2.64869E+2
  -1.64740E+3   1.32748E+3
   2.31681E+3   1.04832E+3
   7.75023E+2   2.27412E+3
   1.13902E+3  -5.98698E+2
   5.03454E+3   3.18314E+2
   2.17998E+3  -1.51926E+3
   2.99361E+3  -2.72080E+3
   1.02037E+3  -3.16805E+3
  -9.61678E+2  -1.04355E+3
  -2.19199E+3  -3.16954E+3
   1.57485E+3  -3.09331E+3
  -1.12682E+3  -1.43756E+2
  -1.75367E+3   1.94547E+3
  -2.52361E+3  -4.40328E+2
  -1.48684E+3  -1.69629E+3
   6.06951E+2   4.02466E+2
   1.21097E+1   3.95230E+3
  -4.98656E+3   8.42530E+2
   4.60769E+1  -2.65385E+3
   1.69139E+3   2.65249E+2
  -2.07894E+2   5.90092E+3
  -2.54230E+3   2.25117E+3
  -9.39557E+2  -9.48813E+2
   2.38381E+3   1.75171E+2
  -6.31390E+2   4.14748E+3
  -1.50130E+3   1.17019E+3
   1.32922E+2  -2.13086E+3
   1.65269E+3  -2.59024E+3
   4.12341E+3   2.97377E+2
   2.81199E+3   2.98075E+3
  -2.66456E+3   3.72342E+3
  -1.88623E+3  -7.33440E+2
  -2.46007E+2  -8.03080E+2
   1.25598E+3  -1.15875E+3
   1.54236E+2  -3.31706E+3
   8.37515E+2  -1.85372E+3
   2.01819E+3   7.36272E+2
   1.65878E+2   3.15737E+3
  -2.37953E+3  -3.87096E+2
  -1.37237E+3   1.08425E+3
  -3.02107E+3  -1.43847E+3
   3.69363E+3  -1.39173E+3
   5.41654E+3   1.43226E+3
   4.01408E+1   2.81754E+3
  -2.55443E+2   9.08810E+2
   1.04382E+3   5.78119E+2
  -4.83472E+1  -1.07596E+2
   3.25342E+2   8.63053E+2
  -1.74275E+3  -2.23291E+2
  -4.91703E+2  -1.15105E+3
   1.32749E+3  -7.23719E+2
   6.69666E+2   9.22503E+2
  -2.24101E+3   1.45502E+3
  -2.61440E+3  -3.91709E+3
  -3.51516E+3  -2.05474E+3
  -2.73140E+3  -4.95457E+3
   6.13199E+2  -2.50797E+3
   2.35551E+3  -3.80621E+3
   1.56366E+3   9.61738E+2
   1.13285E+3  -5.32211E+1
  -2.40142E+3   2.15132E+2
   3.63067E+1  -1.55708E+3
   6.95423E+2  -1.06173E+3
  -7.73903E+2   8.17383E+2
   4.72880E+1   8.34455E+2
  -1.08525E+3  -1.73950E+3
  -6.47734E+2  -2.59231E+2
   1.92976E+3   2.18233E+3
  -1.46420E+3   1.67787E+3
  -8.87842E+2   1.76203E+3
   2.16006E+2   6.72646E+2
  -7.05051E+2   7.93332E+2
  -9.71372E+1   3.34996E+2
  -1.14149E+3  -1.11942E+3
  -9.71795E+2  -6.97352E+2
  -7.75107E+2  -9.19801E+2
   5.60539E+0   7.56789E+2
  -6.44449E+2   2.26711E+2
   6.66066E+2  -1.11413E+3
   5.47064E+2   5.90108E+2
   1.75164E+3   9.24956E+2
   3.42289E+3  -2.36016E+2
   2.13383E+3   3.46753E+2
  -1.00185E+3  -1.09568E+2
   7.81437E+2   2.47049E+3
  -4.42736E+2   1.77898E+3
   3.65279E+1   3.38101E+3
  -7.25460E+2   1.34365E+3
   1.75843E+3  -1.48293E+3
   4.97386E+2   4.46644E+2
  -4.23262E+2   4.59300E+2
  -1.25524E+3  -8.13929E+2
   1.67145E+2  -7.78046E+1
  -7.92741E+2   3.23475E+3
  -3.30465E+2   8.81539E+2
  -1.92447E+2  -1.67216E+2
  -1.47967E+3  -1.86387E+2
  -1.16641E+3   2.03550E+3
  -1.33654E+3   1.38258E+2
  -8.84504E+2  -1.08722E+2
  -6.72280E+2  -6.91453E+2
   9.29642E+2   2.69492E+2
  -5.90148E+2   7.67583E+2
   7.32014E+2   3.12298E+2
  -2.52360E+3   7.51600E+0
  -1.46429E+3   1.88468E+2
   9.54377E+2   1.10951E+3
   2.02511E+3  -8.00360E+2
  -6.97779E+2  -4.07778E+2
   3.74538E+1  -3.09983E+2
  -3.83887E+2  -1.62035E+3
  -3.40387E+2  -1.93142E+3
   1.29555E+2   1.51573E+3
   7.99378E+2  -4.13614E+0
  -1.28892E+3  -1.15605E+2
   2.90582E+2   2.89513E+2
   1.83847E+3  -7.20243E+2
   1.43827E+2  -3.36984E+3
   2.14470E+3  -9.60004E+2
   1.58277E+3  -2.01003E+2
   4.15553E+2  -1.85032E+2
   1.39485E+2   8.81982E+2
   1.75661E+0  -1.28712E+3
   1.12131E+3   1.88084E+2
   1.01216E+2   9.67031E+2
   1.27343E+3  -8.43974E+2
   6.41568E+2   9.62622E+2
   4.24449E+2   5.07031E+2
  -3.87130E+2   1.17447E+2
   4.71824E+2  -2.61744E+3
   1.08440E+3  -1.38666E+3
   8.01523E+2  -5.24570E+2
  -6.99209E+2   8.52659E+2
   7.72110E+2   9.39614E+1
  -2.12101E+3   2.54759E+2
   1.01707E+3   9.18287E+2
  -5.12707E+2  -5.85308E+2
  -8.23432E+2  -1.42731E+2
   4.56595E+1   1.08201E+2
  -1.56021E+2   1.10912E+3
   9.69049E+1   2.33529E+3
  -1.08892E+1   1.27415E+3
  -1.53914E+3   2.02797E+3
   2.92706E+2  -9.80644E+2
  -7.02009E+2  -5.30256E+2
   2.35895E+2  -1.39350E+2
  -2.00377E+3   1.13633E+2
  -1.36302E+2  -2.17123E+3
   7.14602E+2   4.38730E+2
   9.43187E+2  -1.47961E+3
  -8.20967E+2   1.47968E+3
  -5.74276E+2  -2.25716E+2
   2.07620E+2  -4.63925E+2
   1.20457E+3   1.29344E+3
  -3.32789E+2   4.08272E+2
   5.16731E+2  -1.13418E+3
   1.79468E+1   1.44642E+3
   1.24803E+2   3.09933E+2
   4.32987E+2   1.01607E+3
  -7.53543E+2   1.01134E+3
  -8.73839E+2   4.48662E+2
  -3.53172E+2   2.04600E+3
  -7.32877E+1   3.35808E+2
   1.53659E+2   9.24025E+2
   1.13305E+3   1.17713E+3
  -9.32587E+2   4.11308E+2
  -8.04083E+2   7.97221E+2
  -6.01044E+2  -1.99603E+3
  -3.44610E+2  -7.20704E+2
   5.87013E+1   5.44715E+2
   4.52671E+2  -1.05623E+3
   1.25508E+3   1.94773E+2
  -2.04110E+2  -7.69623E+2
   1.17286E+3  -6.11890E+2
   7.68949E+2   6.77734E+2
  -4.13896E+2   1.99558E+3
   1.74410E+2   5.80467E+2
   1.32145E+2  -1.35016E+2
   3.72180E+2   1.00136E+3
   8.93684E+2  -2.90739E+2
   4.32236E+2   7.63192E+2
   4.88551E+2   1.72833E+3
  -1.84839E+2   2.29115E+2
   1.51459E+3   3.62546E+2
   1.55234E+3  -4.64514E+2
   1.11996E+2  -8.04960E+2
  -6.59086E+2  -1.74626E+3
   3.95701E+2  -1.75994E+2
  -6.49283E+1   3.30011E+2
   6.33626E+2   2.31873E+2
   9.19950E+2  -3.41494E+2
   4.95923E+2  -1.04413E+2
   8.89425E+2  -1.20728E+3
   8.07558E+2  -1.39995E+3
  -1.29591E+3  -1.90132E+2
   4.05410E+2  -9.69043E+2
   1.25028E+2  -1.86404E+3
   7.07025E+2  -3.70138E+2
   4.27581E+2  -3.57425E+2
   1.94548E+3  -8.94608E+2
   7.83889E+2  -1.04830E+3
  -1.72437E+2   7.84873E+2
   4.77083E+2  -1.10219E+3
   1.13412E+2  -9.55965E+2
  -1.08030E+3  -2.57743E+1
  -7.41699E+2  -8.34480E+1
   1.20239E+2   1.20672E+3
  -8.29401E+2   6.30898E+2
  -8.11436E+2  -2.18185E+3
  -4.47357E+1  -2.58389E+3
  -1.22321E+3  -1.12568E+3
   5.37066E+2   6.34637E+2
   1.19762E+3  -2.77926E+3
  -2.76611E+2  -7.72715E+2
  -5.85372E+2  -8.00863E+2
   1.28198E+3  -9.81637E+2
  -8.17805E+2  -8.95341E+2
  -8.58033E+2  -9.76619E+1
  -5.28642E+2  -5.11700E+1
   2.44912E+2  -1.73385E+2
   8.40273E+2   1.15169E+2
   8.63084E+2  -1.17520E+3
   5.78503E+2   1.88511E+1
   1.08212E+3   1.04173E+2
  -1.95572E+3  -4.50759E+2
  -2.37279E+3  -2.30263E+3
   3.54538E+2   8.86474E+1
   1.80441E+2  -9.46454E+2
   1.93721E+3   1.82680E+3
   7.87015E+2  -8.28626E+2
   4.87387E+2   9.12051E+2
   1.33760E+3   2.11413E+3
  -3.07882E+2   1.52099E+3
  -6.25779E+2   1.58368E+2
   1.93722E+3  -3.10651E+2
   2.14418E+2  -1.31761E+3
  -3.65196E+2   8.33289E+2
   6.01905E+2   8.11885E+2
   2.00256E+2   6.97185E+1
   4.04776E+2   5.69035E+2
   5.76597E+2  -1.69237E+3
   1.85413E+3  -9.22470E+2
  -1.18757E+3  -2.97741E+2
  -7.97734E+2   3.95911E+2
  -6.18170E+2  -4.96472E+2
   1.05657E+2  -9.31132E+2
  -7.35660E+2   1.94839E+3
  -2.50912E+1  -1.25779E+3
  -5.12973E+1   7.51937E+2
  -5.25284E+1  -8.08546E+2
   1.81601E+2  -8.27440E+2
  -1.51244E+3   1.38334E+3
  -1.44418E+3   8.81372E+2
  -7.02018E+2   3.32689E+2
   2.76031E+2   1.59628E+3
   3.55183E+2  -1.24873E+3
  -9.58215E+2  -6.94863E+2
  -7.38452E+2   6.30434E+2
   5.61491E+2  -4.90562E+2
   1.14149E+3   4.69110E+2
  -3.40514E+2  -1.30077E+2
  -1.76159E+3   5.52976E+2
   1.14882E+3  -7.91031E+2
  -1.00841E+2   5.06155E+2
   7.46066E+2   1.52667E+3
   1.14602E+3   4.89730E+2
  -1.70706E+3  -1.64773E+3
  -1.71586E+3  -4.32406E+1
  -7.64826E+2   4.27381E+2
  -2.22546E+3  -2.90295E+2
   3.23562E+2   2.43563E+2
   1.55684E+2   1.20051E+3
   5.43934E+2  -8.51134E+2
   2.81633E+2   3.24759E+2
   2.76358E+2   1.64892E+3
   2.02225E+3   1.20403E+2
  -2.78010E+2  -5.39794E+2
  -3.87834E+2  -3.28240E+2
   1.37327E+3   1.73580E+1
  -1.69945E+3   3.71815E+0
  -1.99919E+2  -1.04286E+3
   1.04856E+2  -4.08525E+2
   4.09383E+2   6.20415E+1
  -1.57571E+2  -4.48844E+2
  -5.44575E+1  -4.11237E+1
  -3.19952E+2  -3.49053E+1
  -1.77031E+3   1.24962E+2
   7.39253E+2   8.20189E+2
  -7.47838E+2   9.87044E+2
  -2.85187E+1   1.74691E+3
  -1.19965E+3  -6.21874E+2
   5.11930E+2  -5.46343E+2
  -8.66770E+2   1.77757E+3
   2.68547E+3  -2.58017E+3
   1.84014E+2   3.78929E+2
   8.67807E+2  -1.44353E+3
  -1.60813E+3  -9.71889E+2
   2.43152E+3   1.31772E+2
  -6.93062E+1  -4.21969E+2
  -3.25856E+2   1.16475E+3
   5.78057E+1   1.23228E+3
   1.78395E+3  -1.54500E+2
  -1.15797E+3  -5.52157E+2
   8.07707E+2  -9.46079E+2
   8.31153E+2  -1.55888E+3
  -7.47363E+2  -2.66302E+2
  -1.02708E+3   3.03350E+2
  -3.01902E+2   1.85311E+3
   1.02851E+3   7.57799E+2
  -7.52047E+2  -1.21534E+2
  -7.59995E+2  -8.72706E+2
  -4.02141E+3   4.28843E+2
  -1.45085E+3  -7.39648E+2
  -6.22723E+2  -8.41631E+2
   5.61914E+2   7.41962E+2
  -1.79483E+3   1.92154E+3
  -6.89276E+2  -1.28856E+3
   9.59035E+2  -2.56337E+2
  -8.25102E+2  -1.11788E+3
   3.16992E+1   2.15827E+3
   1.45322E+2  -1.71001E+2
   5.92250E+1   1.52572E+2
   5.70719E+2  -5.77020E+2
  -1.54484E+3   9.13779E+2
  -2.96366E+2   1.37982E+2
   1.59130E+3  -2.46056E+3
  -2.75762E+1   1.81293E+3
   1.72406E+3   1.21149E+3
  -4.68209E+2   3.55730E+1
   5.79958E+2  -9.43074E+2
   1.97635E+3   4.28134E+2
  -2.35517E+3  -2.80976E+2
  -8.72327E+2   3.04143E+1
   2.14584E+3   4.37863E+2
   9.40886E+2  -3.07922E+2
   8.37865E+2   6.82287E+2
  -7.48671E+2   1.48728E+3
  -1.28397E+3  -5.06092E+2
  -1.33632E+3   4.86089E+2
  -5.80031E+2   1.30449E+3
  -1.00764E+3   4.19096E+2
   2.81561E+2   7.36514E+2
  -5.99795E+2   1.80917E+3
   9.59461E+2  -1.83673E+2
   2.81524E+1  -1.02803E+3
  -3.88717E+2   2.74536E+1
  -1.21101E+3   6.52008E+2
  -3.07021E+2  -3.64550E+2
  -8.70292E+2   1.25682E+3
   4.22395E+2  -1.43726E+2
   7.38210E+2  -1.75865E+2
  -1.82086E+3   5.30612E+2
   8.88793E+2   8.57142E+2
   7.67443E+1   3.29075E+2
   1.14242E+3  -8.21824E+1
   1.86008E+2  -1.47892E+3
   8.23554E+2  -6.61075E+2
   2.64612E+3  -5.84358E+2
   1.80545E+3   1.06998E+3
   1.94891E+2   3.05706E+3
   1.10085E+3  -8.10942E+2
   5.18431E+2  -8.70190E+2
  -1.42927E+3  -4.36888E+2
   1.87021E+2   1.41790E+3
  -2.58491E+2  -4.10221E+2
   4.27730E+2  -9.38963E+2
