 
 $NMID
 ID=''
 FMTDAT='(2E13.5)'
 TRAMP=   1.00000E+0
 VOLUME=   1.00000E+0
 $END
  -1.99989E+4  -1.23777E+3
  -4.87403E+4  -1.82665E+4
  -5.10947E+4  -1.01617E+4
  -4.72339E+4  -1.02691E+4
  -4.86878E+4  -1.27344E+4
  -4.89610E+4  -1.14096E+4
  -4.69022E+4  -1.22550E+4
  -4.72107E+4  -1.40154E+4
  -4.73069E+4  -1.33428E+4
  -4.57852E+4  -1.42077E+4
  -4.56929E+4  -1.55411E+4
  -4.55087E+4  -1.49909E+4
  -4.44348E+4  -1.54227E+4
  -4.42301E+4  -1.67396E+4
  -4.38799E+4  -1.67634E+4
  -4.28208E+4  -1.71645E+4
  -4.25752E+4  -1.81607E+4
  -4.22748E+4  -1.81480E+4
  -4.15780E+4  -1.86632E+4
  -4.12218E+4  -1.94904E+4
  -4.07729E+4  -1.95649E+4
  -4.02003E+4  -1.98005E+4
  -4.00644E+4  -2.06047E+4
  -3.95840E+4  -2.09144E+4
  -3.87861E+4  -2.12247E+4
  -3.86289E+4  -2.17641E+4
  -3.83216E+4  -2.21522E+4
  -3.74958E+4  -2.26005E+4
  -3.70636E+4  -2.32042E+4
  -3.66684E+4  -2.35518E+4
  -3.60569E+4  -2.38360E+4
  -3.58753E+4  -2.44277E+4
  -3.52758E+4  -2.48715E+4
  -3.46648E+4  -2.52502E+4
  -3.42442E+4  -2.56222E+4
  -3.38440E+4  -2.59880E+4
  -3.31683E+4  -2.63013E+4
  -3.27444E+4  -2.66489E+4
  -3.23441E+4  -2.69061E+4
  -3.18115E+4  -2.72723E+4
  -3.13218E+4  -2.77262E+4
  -3.07861E+4  -2.81612E+4
  -3.00452E+4  -2.86208E+4
  -2.94959E+4  -2.88263E+4
  -2.89820E+4  -2.90594E+4
  -2.84595E+4  -2.94380E+4
  -2.79202E+4  -2.98048E+4
  -2.74418E+4  -3.01346E+4
  -2.69497E+4  -3.04545E+4
  -2.63561E+4  -3.07225E+4
  -2.58008E+4  -3.10976E+4
  -2.51497E+4  -3.13586E+4
  -2.45435E+4  -3.15207E+4
  -2.41129E+4  -3.17470E+4
  -2.34826E+4  -3.20573E+4
  -2.28643E+4  -3.23614E+4
  -2.22581E+4  -3.25453E+4
  -2.16176E+4  -3.28580E+4
  -2.09212E+4  -3.29565E+4
  -2.02843E+4  -3.31296E+4
  -1.97383E+4  -3.32111E+4
  -1.91847E+4  -3.32946E+4
  -1.85941E+4  -3.34626E+4
  -1.79986E+4  -3.35734E+4
  -1.73612E+4  -3.36849E+4
  -1.67814E+4  -3.37791E+4
  -1.62228E+4  -3.39280E+4
  -1.56186E+4  -3.41156E+4
  -1.48455E+4  -3.41720E+4
  -1.43483E+4  -3.41529E+4
  -1.38303E+4  -3.41616E+4
  -1.31180E+4  -3.42660E+4
  -1.25881E+4  -3.43624E+4
  -1.18801E+4  -3.43718E+4
  -1.14121E+4  -3.43071E+4
  -1.07597E+4  -3.44533E+4
  -1.02391E+4  -3.44300E+4
  -9.52828E+3  -3.43581E+4
  -8.95158E+3  -3.43741E+4
  -8.43861E+3  -3.44126E+4
  -7.81819E+3  -3.44469E+4
  -7.17659E+3  -3.44362E+4
  -6.53578E+3  -3.43388E+4
  -5.82701E+3  -3.43154E+4
  -5.17171E+3  -3.42747E+4
  -4.41668E+3  -3.41803E+4
  -3.71852E+3  -3.40549E+4
  -3.14429E+3  -3.38486E+4
  -2.51415E+3  -3.37062E+4
  -1.87987E+3  -3.36818E+4
  -1.20825E+3  -3.35067E+4
  -6.19589E+2  -3.31588E+4
  -2.30345E+1  -3.30184E+4
   5.73154E+2  -3.28233E+4
   1.26490E+3  -3.25312E+4
   1.87070E+3  -3.21256E+4
   2.35540E+3  -3.18267E+4
   2.96665E+3  -3.15356E+4
   3.54597E+3  -3.12797E+4
   4.19875E+3  -3.07871E+4
   4.73467E+3  -3.03886E+4
   5.19356E+3  -2.99458E+4
   5.63491E+3  -2.95441E+4
   6.22892E+3  -2.91695E+4
   6.69106E+3  -2.87093E+4
   7.12245E+3  -2.82015E+4
   7.53756E+3  -2.77340E+4
   7.93564E+3  -2.72623E+4
   8.31182E+3  -2.66758E+4
   8.70806E+3  -2.61473E+4
   8.97313E+3  -2.55769E+4
   9.35218E+3  -2.51460E+4
   9.59523E+3  -2.46019E+4
   9.85545E+3  -2.40828E+4
   1.01655E+4  -2.34811E+4
   1.03395E+4  -2.29997E+4
   1.05664E+4  -2.23928E+4
   1.07841E+4  -2.18022E+4
   1.08050E+4  -2.13383E+4
   1.10006E+4  -2.08223E+4
   1.10698E+4  -2.02780E+4
   1.11898E+4  -1.97637E+4
   1.13339E+4  -1.92551E+4
   1.13326E+4  -1.87026E+4
   1.13461E+4  -1.82102E+4
   1.14652E+4  -1.77765E+4
   1.14473E+4  -1.72970E+4
   1.14661E+4  -1.68325E+4
   1.14076E+4  -1.63921E+4
   1.14410E+4  -1.59683E+4
   1.14137E+4  -1.55127E+4
   1.13748E+4  -1.50858E+4
   1.13515E+4  -1.46598E+4
   1.13264E+4  -1.42504E+4
   1.12677E+4  -1.38673E+4
   1.12491E+4  -1.34510E+4
   1.11345E+4  -1.30612E+4
   1.10966E+4  -1.26748E+4
   1.09622E+4  -1.23505E+4
   1.09201E+4  -1.20687E+4
   1.08321E+4  -1.16717E+4
   1.07201E+4  -1.13152E+4
   1.06809E+4  -1.10061E+4
   1.06199E+4  -1.07133E+4
   1.05322E+4  -1.03565E+4
   1.04803E+4  -1.00024E+4
   1.02939E+4  -9.75219E+3
   1.03136E+4  -9.40156E+3
   1.01847E+4  -9.17069E+3
   1.01046E+4  -8.79086E+3
   1.01169E+4  -8.52325E+3
   9.92779E+3  -8.27427E+3
   9.85405E+3  -7.95336E+3
   9.79152E+3  -7.62207E+3
   9.63446E+3  -7.37520E+3
   9.57791E+3  -7.09155E+3
   9.47054E+3  -6.80522E+3
   9.39379E+3  -6.46119E+3
   9.29993E+3  -6.24596E+3
   9.18297E+3  -5.97624E+3
   9.10187E+3  -5.66269E+3
   8.94388E+3  -5.40700E+3
   8.80315E+3  -5.13602E+3
   8.68039E+3  -4.92934E+3
   8.52433E+3  -4.72570E+3
   8.43483E+3  -4.39194E+3
   8.25743E+3  -4.11734E+3
   8.16656E+3  -3.90506E+3
   8.02847E+3  -3.66260E+3
   7.88052E+3  -3.45651E+3
   7.76951E+3  -3.21606E+3
   7.66956E+3  -2.96847E+3
   7.49157E+3  -2.77475E+3
   7.38006E+3  -2.60042E+3
   7.18030E+3  -2.38445E+3
   7.08217E+3  -2.15381E+3
   6.87327E+3  -1.96762E+3
   6.72540E+3  -1.80128E+3
   6.58799E+3  -1.62701E+3
   6.48934E+3  -1.43442E+3
   6.28580E+3  -1.27285E+3
   6.17607E+3  -1.12940E+3
   5.97603E+3  -9.37411E+2
   5.89115E+3  -8.29507E+2
   5.70649E+3  -6.71412E+2
   5.59022E+3  -5.75329E+2
   5.40844E+3  -4.38346E+2
   5.30198E+3  -2.70534E+2
   5.15587E+3  -1.60471E+2
   4.98133E+3   3.01830E+1
   4.87781E+3   7.11580E+1
   4.76197E+3   1.67591E+2
   4.58486E+3   3.51334E+2
   4.48129E+3   4.77115E+2
   4.40158E+3   5.06026E+2
   4.24611E+3   6.52138E+2
   4.11132E+3   6.90731E+2
   3.96040E+3   8.33403E+2
   3.84002E+3   9.19895E+2
   3.79298E+3   1.01350E+3
   3.64220E+3   1.11210E+3
   3.53919E+3   1.13679E+3
   3.37141E+3   1.22608E+3
   3.26835E+3   1.31801E+3
   3.12276E+3   1.37137E+3
   3.05988E+3   1.45385E+3
   2.97578E+3   1.47645E+3
   2.86482E+3   1.62612E+3
   2.79524E+3   1.64189E+3
   2.69491E+3   1.67038E+3
   2.51843E+3   1.79619E+3
   2.40604E+3   1.83293E+3
   2.37191E+3   1.90768E+3
   2.34004E+3   1.92792E+3
   2.16673E+3   1.93167E+3
   2.02995E+3   1.97283E+3
   1.90508E+3   2.11158E+3
   1.85804E+3   2.08890E+3
   1.73509E+3   2.08234E+3
   1.64952E+3   2.20174E+3
   1.55351E+3   2.20518E+3
   1.49641E+3   2.22369E+3
   1.33821E+3   2.30758E+3
   1.21738E+3   2.27794E+3
   1.14540E+3   2.34349E+3
   1.10983E+3   2.32452E+3
   1.02031E+3   2.38386E+3
   9.25874E+2   2.38174E+3
   8.93681E+2   2.36769E+3
   7.65991E+2   2.39759E+3
   6.30486E+2   2.39022E+3
   6.14244E+2   2.42868E+3
   4.56741E+2   2.40797E+3
   3.91175E+2   2.43734E+3
   3.17143E+2   2.44026E+3
   2.24515E+2   2.37437E+3
   2.35563E+2   2.45627E+3
   1.20532E+2   2.43602E+3
   2.18418E+1   2.43715E+3
  -2.19186E+1   2.44715E+3
  -1.26932E+2   2.43235E+3
  -1.68812E+2   2.36066E+3
  -2.38912E+2   2.34253E+3
  -2.88169E+2   2.35931E+3
  -3.86043E+2   2.32214E+3
  -4.18251E+2   2.31499E+3
  -4.40249E+2   2.32388E+3
  -4.48212E+2   2.24427E+3
  -5.52065E+2   2.28570E+3
  -6.03698E+2   2.30132E+3
  -5.82531E+2   2.20568E+3
  -7.23209E+2   2.21766E+3
  -7.75865E+2   2.20926E+3
  -7.24147E+2   2.12429E+3
  -8.06490E+2   2.18007E+3
  -8.32005E+2   2.08242E+3
  -9.41097E+2   2.06988E+3
  -8.97867E+2   2.00594E+3
  -9.97816E+2   2.01896E+3
  -1.05339E+3   1.98586E+3
  -1.03482E+3   1.97669E+3
  -1.06009E+3   1.90329E+3
  -1.07373E+3   1.86087E+3
  -1.19489E+3   1.85338E+3
  -1.14545E+3   1.75133E+3
  -1.13946E+3   1.86704E+3
  -1.18073E+3   1.80236E+3
  -1.21112E+3   1.77041E+3
  -1.24318E+3   1.75383E+3
  -1.26993E+3   1.68911E+3
  -1.28539E+3   1.63850E+3
  -1.29103E+3   1.62044E+3
  -1.30160E+3   1.63652E+3
  -1.33535E+3   1.53105E+3
  -1.40021E+3   1.48050E+3
  -1.40425E+3   1.52972E+3
  -1.38930E+3   1.47014E+3
  -1.35373E+3   1.42987E+3
  -1.38924E+3   1.41612E+3
  -1.43442E+3   1.33105E+3
  -1.48075E+3   1.33944E+3
  -1.51339E+3   1.24459E+3
  -1.51133E+3   1.24896E+3
  -1.52869E+3   1.23469E+3
  -1.51463E+3   1.19034E+3
  -1.46675E+3   1.19068E+3
  -1.56157E+3   1.15767E+3
  -1.47296E+3   1.06130E+3
  -1.43936E+3   9.75883E+2
  -1.55067E+3   1.03752E+3
  -1.49429E+3   9.54965E+2
  -1.50018E+3   9.50943E+2
  -1.49021E+3   8.98390E+2
  -1.47084E+3   8.31151E+2
  -1.45749E+3   8.38475E+2
  -1.45747E+3   8.44482E+2
  -1.51578E+3   7.82082E+2
  -1.42804E+3   7.34686E+2
  -1.43637E+3   7.32954E+2
  -1.49299E+3   6.20378E+2
  -1.48584E+3   7.38996E+2
  -1.43116E+3   6.02852E+2
  -1.47158E+3   5.30861E+2
  -1.43908E+3   5.22654E+2
  -1.42285E+3   4.92356E+2
  -1.36331E+3   4.74535E+2
  -1.43022E+3   4.72410E+2
  -1.36043E+3   4.30073E+2
  -1.33333E+3   3.66233E+2
  -1.30486E+3   4.00586E+2
  -1.33669E+3   4.17533E+2
  -1.29537E+3   3.18133E+2
  -1.24898E+3   3.28345E+2
  -1.25987E+3   3.00030E+2
  -1.24291E+3   2.90993E+2
  -1.19590E+3   2.80703E+2
  -1.30238E+3   2.46902E+2
  -1.29885E+3   1.72037E+2
  -1.22259E+3   1.99971E+2
  -1.15465E+3   2.08040E+2
  -1.15524E+3   1.49968E+2
  -1.12831E+3   1.82751E+2
  -1.11547E+3   1.40922E+2
  -1.15843E+3   1.28584E+2
  -1.11923E+3   9.69873E+1
  -1.05706E+3   5.90108E+1
  -1.03070E+3   2.27200E+1
  -1.08230E+3   2.28715E+1
  -1.06809E+3  -2.91381E+1
  -1.01835E+3  -3.74144E+1
  -9.53391E+2  -5.25015E+1
  -9.56454E+2  -9.56458E+1
  -9.06479E+2  -5.91186E+1
  -9.21293E+2  -8.41677E+1
  -8.96507E+2  -9.42573E+1
  -9.28213E+2  -1.10767E+2
  -8.75388E+2  -1.54902E+2
  -8.58422E+2  -1.68845E+2
  -8.60489E+2  -1.45051E+2
  -7.59928E+2  -1.89253E+2
  -8.36153E+2  -1.78056E+2
  -8.08185E+2  -1.59208E+2
  -7.61967E+2  -1.97946E+2
  -7.00267E+2  -2.51238E+2
  -7.84921E+2  -2.12184E+2
  -6.20003E+2  -2.29867E+2
  -6.91289E+2  -2.61710E+2
  -6.05735E+2  -2.52693E+2
  -5.67608E+2  -2.80924E+2
  -5.52205E+2  -2.64878E+2
  -5.05486E+2  -2.61165E+2
  -5.72591E+2  -2.52574E+2
  -5.82384E+2  -2.91646E+2
  -5.24860E+2  -3.39420E+2
  -4.88467E+2  -3.13677E+2
  -4.57005E+2  -3.60309E+2
  -4.13921E+2  -3.41653E+2
  -4.02538E+2  -3.18526E+2
  -3.86114E+2  -3.34458E+2
  -3.75341E+2  -3.54141E+2
  -3.59565E+2  -3.87241E+2
  -3.29738E+2  -3.30076E+2
  -3.39328E+2  -3.52850E+2
  -3.11593E+2  -3.38493E+2
  -3.50276E+2  -3.62098E+2
  -3.19316E+2  -3.78109E+2
  -3.07555E+2  -3.36742E+2
