 
 $NMID
 ID=''
 FMTDAT='(2E13.5)'
 TRAMP=   1.00000E+0
 VOLUME=   1.00000E+0
 $END
  -4.85747E+2   1.82540E+4
  -1.37420E+4   4.48141E+4
  -4.65348E+3   4.66069E+4
  -3.14426E+3   4.27122E+4
  -3.49943E+3   4.39842E+4
  -3.57182E+2   4.40803E+4
   4.45191E+2   4.21589E+4
   4.51255E+2   4.23867E+4
   2.57704E+3   4.22491E+4
   3.30484E+3   4.08066E+4
   3.60414E+3   4.06997E+4
   5.30837E+3   4.03226E+4
   6.28336E+3   3.90869E+4
   6.43161E+3   3.88972E+4
   7.72804E+3   3.83797E+4
   8.56389E+3   3.72194E+4
   8.85433E+3   3.67961E+4
   9.99909E+3   3.62685E+4
   1.07279E+4   3.51627E+4
   1.11330E+4   3.46754E+4
   1.20259E+4   3.39079E+4
   1.27085E+4   3.28015E+4
   1.31156E+4   3.22048E+4
   1.38074E+4   3.15231E+4
   1.42821E+4   3.04981E+4
   1.45258E+4   2.97760E+4
   1.49607E+4   2.91693E+4
   1.51837E+4   2.81132E+4
   1.51889E+4   2.74081E+4
   1.54753E+4   2.66622E+4
   1.57116E+4   2.56561E+4
   1.57535E+4   2.49435E+4
   1.58584E+4   2.41598E+4
   1.59961E+4   2.31954E+4
   1.60142E+4   2.23034E+4
   1.61262E+4   2.14550E+4
   1.61754E+4   2.04184E+4
   1.60821E+4   1.94870E+4
   1.62056E+4   1.86630E+4
   1.61231E+4   1.76801E+4
   1.60601E+4   1.68785E+4
   1.60688E+4   1.60625E+4
   1.59086E+4   1.52208E+4
   1.58718E+4   1.42701E+4
   1.58746E+4   1.34502E+4
   1.58852E+4   1.26656E+4
   1.57801E+4   1.19281E+4
   1.57274E+4   1.11897E+4
   1.56601E+4   1.03865E+4
   1.55874E+4   9.72175E+3
   1.55331E+4   9.10591E+3
   1.54349E+4   8.38759E+3
   1.52943E+4   7.77149E+3
   1.51709E+4   7.23794E+3
   1.51154E+4   6.66225E+3
   1.49815E+4   6.19151E+3
   1.48205E+4   5.71345E+3
   1.46407E+4   5.25369E+3
   1.44696E+4   4.81644E+3
   1.43153E+4   4.38870E+3
   1.41852E+4   3.93564E+3
   1.39293E+4   3.60541E+3
   1.37557E+4   3.27466E+3
   1.35427E+4   2.91809E+3
   1.33106E+4   2.54667E+3
   1.31332E+4   2.31879E+3
   1.28790E+4   2.04083E+3
   1.26080E+4   1.76659E+3
   1.23473E+4   1.55694E+3
   1.20977E+4   1.29881E+3
   1.18425E+4   1.11026E+3
   1.15960E+4   9.03425E+2
   1.12447E+4   7.84163E+2
   1.10845E+4   6.08090E+2
   1.07232E+4   4.66942E+2
   1.04798E+4   2.50589E+2
   1.01372E+4   1.08928E+2
   9.80576E+3   3.63006E+1
   9.62418E+3  -1.11969E+2
   9.30341E+3  -2.29979E+2
   9.01776E+3  -2.75266E+2
   8.73812E+3  -3.58722E+2
   8.47953E+3  -4.31011E+2
   8.21357E+3  -3.85694E+2
   7.88377E+3  -3.47121E+2
   7.59658E+3  -3.79518E+2
   7.33366E+3  -4.09775E+2
   6.96712E+3  -4.52394E+2
   6.68219E+3  -4.19914E+2
   6.46124E+3  -4.53378E+2
   6.12552E+3  -4.42979E+2
   5.86399E+3  -3.75577E+2
   5.55016E+3  -3.30811E+2
   5.37089E+3  -3.97313E+2
   5.08776E+3  -2.99249E+2
   4.70197E+3  -2.49118E+2
   4.45341E+3  -2.56604E+2
   4.27762E+3  -2.52691E+2
   4.07333E+3  -1.97179E+2
   3.75878E+3  -8.95225E+1
   3.56480E+3  -4.19066E+1
   3.26657E+3  -5.80115E+1
   3.09195E+3   4.80912E+0
   2.92977E+3   6.10619E+1
   2.70319E+3   4.07819E+1
   2.51276E+3   1.28592E+2
   2.34712E+3   1.38656E+2
   2.21008E+3   2.16462E+2
   2.01223E+3   2.09419E+2
   1.84991E+3   2.97454E+2
   1.71084E+3   2.27109E+2
   1.53909E+3   3.02909E+2
   1.42529E+3   3.42116E+2
   1.36245E+3   4.00017E+2
   1.30279E+3   4.05431E+2
   1.20494E+3   4.29761E+2
   1.07180E+3   4.02800E+2
   9.80055E+2   4.85357E+2
   1.00499E+3   4.78962E+2
   1.02228E+3   4.81920E+2
   9.39999E+2   4.80851E+2
   9.25160E+2   5.69186E+2
   9.30623E+2   5.65279E+2
   8.91758E+2   5.14111E+2
   1.04121E+3   5.06625E+2
   1.00322E+3   5.44987E+2
   1.04618E+3   5.91286E+2
   1.11362E+3   5.52101E+2
   1.17914E+3   6.17496E+2
   1.31593E+3   6.00624E+2
   1.38581E+3   6.32032E+2
   1.50126E+3   5.94014E+2
   1.46702E+3   5.74941E+2
   1.66736E+3   5.76886E+2
   1.70651E+3   5.91519E+2
   1.89248E+3   6.03531E+2
   2.01993E+3   6.09256E+2
   2.03752E+3   6.04364E+2
   2.19849E+3   5.13503E+2
   2.32283E+3   5.03333E+2
   2.41346E+3   5.03483E+2
   2.58515E+3   4.31990E+2
   2.67152E+3   5.17042E+2
   2.82297E+3   3.90027E+2
   2.93323E+3   3.82181E+2
   3.10932E+3   4.05338E+2
   3.13158E+3   3.83157E+2
   3.21568E+3   3.38227E+2
   3.35212E+3   3.18759E+2
   3.45560E+3   2.61288E+2
   3.58296E+3   2.38195E+2
   3.64228E+3   1.73744E+2
   3.69981E+3   1.90950E+2
   3.78050E+3   1.07993E+2
   3.82012E+3   6.46746E+1
   3.87949E+3   4.73890E+1
   3.96405E+3  -8.57648E+0
   4.00448E+3  -8.02096E+0
   4.03880E+3  -1.01531E+2
   4.06669E+3  -1.07404E+2
   4.09476E+3  -1.47642E+2
   4.18273E+3  -1.88100E+2
   4.13116E+3  -3.12836E+2
   4.16540E+3  -3.21823E+2
   4.16911E+3  -3.02714E+2
   4.20843E+3  -4.23814E+2
   4.15156E+3  -5.16824E+2
   4.14123E+3  -5.53308E+2
   4.18700E+3  -6.84243E+2
   4.12228E+3  -6.82433E+2
   4.11485E+3  -6.95651E+2
   4.07825E+3  -7.42874E+2
   4.02619E+3  -8.12131E+2
   4.00842E+3  -8.46407E+2
   3.98266E+3  -8.89219E+2
   3.98337E+3  -9.72432E+2
   3.89650E+3  -1.00469E+3
   3.78414E+3  -1.04265E+3
   3.79017E+3  -1.07814E+3
   3.70994E+3  -1.12507E+3
   3.63338E+3  -1.17359E+3
   3.65693E+3  -1.21598E+3
   3.48037E+3  -1.28025E+3
   3.43150E+3  -1.24184E+3
   3.39104E+3  -1.28357E+3
   3.30040E+3  -1.30172E+3
   3.29710E+3  -1.34394E+3
   3.13678E+3  -1.35239E+3
   3.09465E+3  -1.35448E+3
   2.98073E+3  -1.46379E+3
   2.81057E+3  -1.41984E+3
   2.85137E+3  -1.42083E+3
   2.78351E+3  -1.41881E+3
   2.69378E+3  -1.43574E+3
   2.67734E+3  -1.40862E+3
   2.62987E+3  -1.40517E+3
   2.51293E+3  -1.38959E+3
   2.45862E+3  -1.41516E+3
   2.40539E+3  -1.42681E+3
   2.23479E+3  -1.31112E+3
   2.21688E+3  -1.31001E+3
   2.18112E+3  -1.35615E+3
   2.09773E+3  -1.25825E+3
   2.01818E+3  -1.21287E+3
   1.96422E+3  -1.21944E+3
   1.89863E+3  -1.24028E+3
   1.80843E+3  -1.12961E+3
   1.76907E+3  -1.15147E+3
   1.75693E+3  -1.07135E+3
   1.67128E+3  -1.01952E+3
   1.59565E+3  -9.77033E+2
   1.57816E+3  -9.77693E+2
   1.53828E+3  -9.94187E+2
   1.48514E+3  -8.88357E+2
   1.41497E+3  -9.33482E+2
   1.36772E+3  -8.76545E+2
   1.30787E+3  -7.96314E+2
   1.22470E+3  -7.57910E+2
   1.21317E+3  -6.81106E+2
   1.20166E+3  -6.31990E+2
   1.17386E+3  -6.97207E+2
   1.18980E+3  -6.10067E+2
   1.09675E+3  -6.42424E+2
   1.10805E+3  -4.50955E+2
   1.09318E+3  -5.09211E+2
   1.03390E+3  -4.12368E+2
   9.86672E+2  -4.81398E+2
   1.00524E+3  -4.63480E+2
   9.30760E+2  -3.09960E+2
   9.42209E+2  -3.58836E+2
   9.33487E+2  -3.38982E+2
   9.39330E+2  -3.19202E+2
   9.14844E+2  -2.79215E+2
   8.98838E+2  -3.23043E+2
   8.98350E+2  -1.50305E+2
   8.81146E+2  -1.62118E+2
   8.93854E+2  -1.73712E+2
   8.74577E+2  -9.44273E+1
   8.69780E+2  -1.23232E+2
   7.63763E+2  -1.34024E+2
   8.37982E+2  -8.09408E+1
   8.48608E+2  -8.26076E+1
   8.65145E+2  -6.21073E+1
   8.27816E+2   6.27947E+1
   8.39443E+2   3.58896E+1
   8.83416E+2   6.92828E+1
   8.34785E+2   2.77739E+1
   8.13876E+2   9.94930E+1
   8.23904E+2   9.31814E+1
   8.33554E+2   7.54371E+1
   8.72567E+2   1.28597E+2
   8.48040E+2   1.62696E+2
   9.00160E+2   1.77315E+2
   8.00056E+2   1.27995E+2
   8.73349E+2   1.34469E+2
   9.40847E+2   1.73786E+2
   8.56047E+2   1.92334E+2
   9.00693E+2   1.98333E+2
   8.58249E+2   2.56123E+2
   8.69974E+2   1.70310E+2
   8.97408E+2   2.66934E+2
   9.09220E+2   2.52902E+2
   9.04530E+2   2.95642E+2
   9.30919E+2   2.45752E+2
   9.27043E+2   2.96728E+2
   8.80305E+2   2.68366E+2
   8.88754E+2   2.86207E+2
   8.90161E+2   2.78397E+2
   8.85335E+2   3.23439E+2
   9.43856E+2   3.53136E+2
   8.80163E+2   3.17597E+2
   9.51153E+2   3.81083E+2
   9.32043E+2   3.30286E+2
   9.00157E+2   3.91766E+2
   9.58234E+2   3.55257E+2
   9.40468E+2   3.81810E+2
   9.29819E+2   4.17852E+2
   9.69175E+2   3.99503E+2
   9.78326E+2   4.20896E+2
   9.72462E+2   3.39063E+2
   9.44371E+2   3.91148E+2
   9.87554E+2   3.89816E+2
   9.12685E+2   4.14310E+2
   9.38201E+2   3.80772E+2
   1.00261E+3   4.15701E+2
   9.98529E+2   3.95369E+2
   1.03897E+3   3.68596E+2
   9.97661E+2   3.97689E+2
   1.02504E+3   3.55550E+2
   9.71713E+2   3.76171E+2
   9.78679E+2   4.83074E+2
   1.00921E+3   4.66301E+2
   9.99754E+2   3.97555E+2
   9.70368E+2   3.42926E+2
   9.90955E+2   4.54945E+2
   1.04448E+3   4.33851E+2
   1.01496E+3   4.75116E+2
   1.04242E+3   4.17889E+2
   9.73062E+2   4.14598E+2
   1.00258E+3   3.53259E+2
   1.00401E+3   3.90826E+2
   1.01806E+3   4.22626E+2
   9.61822E+2   3.61158E+2
   1.00677E+3   4.16064E+2
   9.50518E+2   4.08525E+2
   9.96375E+2   3.78550E+2
   1.04460E+3   4.20368E+2
   9.80232E+2   3.92596E+2
   9.64865E+2   3.67502E+2
   9.89668E+2   4.23865E+2
   9.87849E+2   3.73478E+2
   9.43581E+2   4.27334E+2
   9.91035E+2   3.71827E+2
   9.73184E+2   3.98868E+2
   9.62016E+2   4.07236E+2
   9.30975E+2   3.84013E+2
   1.03799E+3   3.71595E+2
   9.42302E+2   4.20271E+2
   9.51362E+2   4.21305E+2
   8.95612E+2   3.87891E+2
   9.38966E+2   3.40827E+2
   9.53323E+2   3.22914E+2
   9.47242E+2   3.58898E+2
   9.09374E+2   4.03916E+2
   8.99927E+2   3.13435E+2
   8.61325E+2   3.22577E+2
   8.71448E+2   3.94016E+2
   8.60455E+2   3.52618E+2
   8.12180E+2   3.07614E+2
   8.59733E+2   3.64076E+2
   8.39512E+2   3.53944E+2
   8.66034E+2   3.28095E+2
   7.91907E+2   3.24825E+2
   7.97580E+2   3.63380E+2
   8.08862E+2   2.99281E+2
   8.10924E+2   3.05034E+2
   7.80934E+2   2.80445E+2
   8.08972E+2   3.06342E+2
   7.78642E+2   2.83338E+2
   7.91641E+2   3.66690E+2
   8.01020E+2   3.55048E+2
   7.86988E+2   3.37092E+2
   7.40418E+2   3.39995E+2
   6.97970E+2   3.25405E+2
   7.39143E+2   2.73557E+2
   7.67048E+2   3.20028E+2
   7.36887E+2   3.31766E+2
   7.33672E+2   3.50006E+2
   7.32790E+2   2.87433E+2
   7.07303E+2   2.81477E+2
   7.72194E+2   3.46363E+2
   7.63922E+2   3.31406E+2
   6.66495E+2   3.92419E+2
   7.39340E+2   2.88206E+2
   7.22777E+2   3.08525E+2
   6.69587E+2   3.28083E+2
   7.08144E+2   3.14856E+2
   6.98342E+2   3.44378E+2
   7.20874E+2   3.99247E+2
   6.86712E+2   3.59134E+2
   6.38547E+2   3.25073E+2
   6.51973E+2   4.20746E+2
   6.56156E+2   3.98322E+2
   6.40220E+2   3.28261E+2
   6.90680E+2   3.72809E+2
   6.32877E+2   3.47355E+2
   5.85985E+2   3.12688E+2
