 
 $NMID
 ID=''
 FMTDAT='(2E13.5)'
 TRAMP=   1.00000E+0
 VOLUME=   1.00000E+0
 $END
  -2.20742E+4  -8.67638E+2
  -5.37706E+4  -1.80994E+4
  -5.55992E+4  -7.95637E+3
  -5.11324E+4  -7.00894E+3
  -5.29713E+4  -8.72516E+3
  -5.35692E+4  -6.07407E+3
  -5.18199E+4  -5.80088E+3
  -5.27682E+4  -6.35524E+3
  -5.32853E+4  -4.13480E+3
  -5.21821E+4  -3.55213E+3
  -5.23923E+4  -3.53021E+3
  -5.25039E+4  -1.56324E+3
  -5.14909E+4  -5.90422E+2
  -5.16326E+4  -5.75317E+2
  -5.13598E+4   7.33012E+2
  -5.01813E+4   1.43772E+3
  -5.01504E+4   1.66443E+3
  -4.98053E+4   2.65449E+3
  -4.89125E+4   3.38533E+3
  -4.87496E+4   3.45649E+3
  -4.84279E+4   4.39868E+3
  -4.77689E+4   5.23738E+3
  -4.77220E+4   5.53031E+3
  -4.74793E+4   6.23404E+3
  -4.68084E+4   6.73873E+3
  -4.66265E+4   7.19783E+3
  -4.64795E+4   7.77052E+3
  -4.60153E+4   8.21757E+3
  -4.57704E+4   8.40961E+3
  -4.54848E+4   9.01289E+3
  -4.50268E+4   9.65655E+3
  -4.49224E+4   1.00525E+4
  -4.47737E+4   1.05135E+4
  -4.42312E+4   1.09645E+4
  -4.39598E+4   1.14315E+4
  -4.38114E+4   1.20196E+4
  -4.33414E+4   1.24721E+4
  -4.28599E+4   1.30326E+4
  -4.26576E+4   1.36819E+4
  -4.22215E+4   1.42417E+4
  -4.18660E+4   1.48083E+4
  -4.15721E+4   1.52573E+4
  -4.11415E+4   1.55786E+4
  -4.05780E+4   1.61405E+4
  -4.01686E+4   1.67458E+4
  -3.97757E+4   1.71215E+4
  -3.92978E+4   1.75249E+4
  -3.89622E+4   1.81091E+4
  -3.84799E+4   1.85247E+4
  -3.79723E+4   1.89241E+4
  -3.76177E+4   1.93931E+4
  -3.70952E+4   1.97319E+4
  -3.65384E+4   2.01910E+4
  -3.61191E+4   2.06838E+4
  -3.57046E+4   2.10668E+4
  -3.52546E+4   2.13715E+4
  -3.47215E+4   2.17177E+4
  -3.43416E+4   2.20113E+4
  -3.37915E+4   2.22904E+4
  -3.32379E+4   2.25627E+4
  -3.26733E+4   2.28362E+4
  -3.21365E+4   2.31493E+4
  -3.16659E+4   2.34262E+4
  -3.12001E+4   2.36862E+4
  -3.07021E+4   2.39621E+4
  -3.00389E+4   2.42612E+4
  -2.96094E+4   2.45873E+4
  -2.91863E+4   2.47662E+4
  -2.86103E+4   2.50548E+4
  -2.81389E+4   2.53262E+4
  -2.75088E+4   2.56001E+4
  -2.70589E+4   2.57725E+4
  -2.64937E+4   2.60576E+4
  -2.59378E+4   2.62550E+4
  -2.53971E+4   2.65703E+4
  -2.48209E+4   2.67969E+4
  -2.42661E+4   2.69786E+4
  -2.38041E+4   2.72082E+4
  -2.32909E+4   2.74148E+4
  -2.27188E+4   2.77060E+4
  -2.22362E+4   2.78834E+4
  -2.16930E+4   2.80944E+4
  -2.12728E+4   2.82794E+4
  -2.07434E+4   2.84184E+4
  -2.02540E+4   2.85863E+4
  -1.97098E+4   2.86944E+4
  -1.92861E+4   2.87954E+4
  -1.87038E+4   2.89694E+4
  -1.82754E+4   2.90503E+4
  -1.77660E+4   2.92438E+4
  -1.72773E+4   2.93489E+4
  -1.67198E+4   2.94171E+4
  -1.62278E+4   2.95500E+4
  -1.57282E+4   2.96165E+4
  -1.52723E+4   2.97019E+4
  -1.47744E+4   2.96746E+4
  -1.42457E+4   2.97651E+4
  -1.37047E+4   2.98395E+4
  -1.32914E+4   2.99223E+4
  -1.28870E+4   2.98263E+4
  -1.22682E+4   2.97938E+4
  -1.17453E+4   2.98227E+4
  -1.12717E+4   2.98292E+4
  -1.07829E+4   2.97987E+4
  -1.02775E+4   2.97644E+4
  -9.79119E+3   2.96849E+4
  -9.28906E+3   2.96153E+4
  -8.80073E+3   2.96139E+4
  -8.34093E+3   2.95317E+4
  -7.87294E+3   2.93950E+4
  -7.32136E+3   2.93279E+4
  -6.73117E+3   2.92412E+4
  -6.19677E+3   2.91935E+4
  -5.78500E+3   2.91527E+4
  -5.38469E+3   2.90418E+4
  -4.92123E+3   2.89169E+4
  -4.44505E+3   2.87991E+4
  -3.94229E+3   2.86496E+4
  -3.44228E+3   2.85105E+4
  -2.98275E+3   2.83573E+4
  -2.49496E+3   2.82359E+4
  -2.05571E+3   2.81158E+4
  -1.57596E+3   2.78850E+4
  -1.19477E+3   2.78559E+4
  -7.77541E+2   2.77621E+4
  -3.91378E+2   2.76131E+4
   2.31959E+1   2.73976E+4
   4.45907E+2   2.72470E+4
   8.43821E+2   2.71534E+4
   1.25472E+3   2.69590E+4
   1.61610E+3   2.67557E+4
   1.99582E+3   2.66499E+4
   2.39748E+3   2.64283E+4
   2.77260E+3   2.63103E+4
   3.12951E+3   2.61258E+4
   3.44762E+3   2.59624E+4
   3.72089E+3   2.57737E+4
   4.07340E+3   2.54815E+4
   4.42549E+3   2.53308E+4
   4.77141E+3   2.51582E+4
   5.05689E+3   2.49959E+4
   5.32894E+3   2.45963E+4
   5.62928E+3   2.45116E+4
   5.96677E+3   2.43045E+4
   6.17214E+3   2.41068E+4
   6.37512E+3   2.38521E+4
   6.71820E+3   2.35891E+4
   6.93480E+3   2.33468E+4
   7.20023E+3   2.30809E+4
   7.41056E+3   2.29137E+4
   7.53168E+3   2.26831E+4
   7.78006E+3   2.23535E+4
   7.97282E+3   2.20629E+4
   8.18075E+3   2.18062E+4
   8.40296E+3   2.15189E+4
   8.56733E+3   2.12398E+4
   8.70308E+3   2.10315E+4
   8.89963E+3   2.07522E+4
   8.99971E+3   2.04249E+4
   9.17059E+3   2.02449E+4
   9.30745E+3   1.99110E+4
   9.44745E+3   1.95987E+4
   9.49010E+3   1.93184E+4
   9.61975E+3   1.89903E+4
   9.76983E+3   1.87396E+4
   9.89475E+3   1.84545E+4
   9.90964E+3   1.82117E+4
   9.99495E+3   1.78753E+4
   1.01283E+4   1.75328E+4
   1.01289E+4   1.72934E+4
   1.02493E+4   1.70233E+4
   1.02468E+4   1.66929E+4
   1.03404E+4   1.64278E+4
   1.03796E+4   1.60475E+4
   1.04147E+4   1.58056E+4
   1.04139E+4   1.55485E+4
   1.04644E+4   1.51937E+4
   1.04905E+4   1.49558E+4
   1.04890E+4   1.46971E+4
   1.05363E+4   1.44375E+4
   1.05448E+4   1.40712E+4
   1.04720E+4   1.38226E+4
   1.05422E+4   1.35524E+4
   1.05721E+4   1.32922E+4
   1.04979E+4   1.30491E+4
   1.05720E+4   1.27367E+4
   1.04774E+4   1.24752E+4
   1.04943E+4   1.22394E+4
   1.04867E+4   1.18863E+4
   1.04047E+4   1.16155E+4
   1.04087E+4   1.13634E+4
   1.03745E+4   1.11282E+4
   1.02416E+4   1.09149E+4
   1.02117E+4   1.05748E+4
   1.01985E+4   1.03543E+4
   1.01037E+4   1.00037E+4
   1.01253E+4   9.75798E+3
   1.00607E+4   9.55100E+3
   9.97168E+3   9.30578E+3
   9.99030E+3   9.06016E+3
   9.83230E+3   8.87175E+3
   9.81873E+3   8.70016E+3
   9.67762E+3   8.38456E+3
   9.66465E+3   8.17325E+3
   9.54110E+3   7.87240E+3
   9.49080E+3   7.67043E+3
   9.36230E+3   7.44343E+3
   9.34927E+3   7.31807E+3
   9.24950E+3   7.03034E+3
   9.20816E+3   6.81659E+3
   9.15343E+3   6.58010E+3
   9.06573E+3   6.39714E+3
   8.94935E+3   6.20272E+3
   8.89557E+3   5.97874E+3
   8.82476E+3   5.81886E+3
   8.62575E+3   5.62467E+3
   8.57733E+3   5.45860E+3
   8.55648E+3   5.19596E+3
   8.40535E+3   5.07923E+3
   8.36111E+3   4.86207E+3
   8.16751E+3   4.63096E+3
   8.14445E+3   4.47403E+3
   8.02452E+3   4.39419E+3
   7.94568E+3   4.23018E+3
   7.91592E+3   4.03890E+3
   7.71495E+3   3.85717E+3
   7.72552E+3   3.64893E+3
   7.59264E+3   3.55693E+3
   7.54680E+3   3.42892E+3
   7.44116E+3   3.37140E+3
   7.31076E+3   3.16127E+3
   7.28289E+3   3.05853E+3
   7.19562E+3   2.89466E+3
   7.06463E+3   2.75739E+3
   7.00908E+3   2.59956E+3
   6.90664E+3   2.52778E+3
   6.72946E+3   2.38261E+3
   6.71751E+3   2.30635E+3
   6.58629E+3   2.18278E+3
   6.51954E+3   2.01955E+3
   6.39133E+3   1.92249E+3
   6.31158E+3   1.81790E+3
   6.30871E+3   1.66294E+3
   6.18341E+3   1.63740E+3
   6.04904E+3   1.51583E+3
   6.03721E+3   1.41240E+3
   5.88513E+3   1.33749E+3
   5.90681E+3   1.24652E+3
   5.71499E+3   1.18762E+3
   5.63651E+3   1.01996E+3
   5.55408E+3   1.05633E+3
   5.48303E+3   9.30092E+2
   5.41039E+3   8.12488E+2
   5.38679E+3   7.62238E+2
   5.28149E+3   6.50860E+2
   5.21431E+3   6.20462E+2
   5.09647E+3   5.18418E+2
   5.01442E+3   4.39225E+2
   4.94898E+3   4.43849E+2
   4.89320E+3   3.68236E+2
   4.83578E+3   2.67948E+2
   4.86292E+3   2.29848E+2
   4.67197E+3   1.11153E+2
   4.66741E+3   1.24156E+2
   4.57505E+3  -9.32473E+0
   4.52101E+3   1.01409E-1
   4.47979E+3  -1.26088E+2
   4.38638E+3  -1.18630E+2
   4.25820E+3  -2.34577E+2
   4.25899E+3  -2.83447E+2
   4.24896E+3  -2.78587E+2
   4.14091E+3  -3.22046E+2
   4.05683E+3  -4.06269E+2
   4.01604E+3  -4.24832E+2
   3.96964E+3  -4.83041E+2
   3.92311E+3  -5.27588E+2
   3.86158E+3  -5.70967E+2
   3.73816E+3  -6.23258E+2
   3.77413E+3  -6.98251E+2
   3.70999E+3  -6.65980E+2
   3.68496E+3  -7.25627E+2
   3.52519E+3  -8.00113E+2
   3.50024E+3  -8.32021E+2
   3.50037E+3  -8.92310E+2
   3.41970E+3  -8.45805E+2
   3.40376E+3  -9.32372E+2
   3.28860E+3  -9.59443E+2
   3.36781E+3  -9.38076E+2
   3.21479E+3  -9.79119E+2
   3.20585E+3  -1.02462E+3
   3.19177E+3  -1.08052E+3
   3.11944E+3  -1.10383E+3
   3.07104E+3  -1.19305E+3
   3.06534E+3  -1.16204E+3
   3.01803E+3  -1.18096E+3
   2.94866E+3  -1.19377E+3
   2.93494E+3  -1.26292E+3
   2.79636E+3  -1.30142E+3
   2.78340E+3  -1.30660E+3
   2.72609E+3  -1.29655E+3
   2.76757E+3  -1.36533E+3
   2.75112E+3  -1.43433E+3
   2.63667E+3  -1.46590E+3
   2.64248E+3  -1.38138E+3
   2.58886E+3  -1.48436E+3
   2.56929E+3  -1.44295E+3
   2.56545E+3  -1.51589E+3
   2.48443E+3  -1.57831E+3
   2.43923E+3  -1.63144E+3
   2.43179E+3  -1.63832E+3
   2.36547E+3  -1.61382E+3
   2.33838E+3  -1.63268E+3
   2.25812E+3  -1.71811E+3
   2.32949E+3  -1.78442E+3
   2.22772E+3  -1.76336E+3
   2.25475E+3  -1.74357E+3
   2.19126E+3  -1.74107E+3
   2.17079E+3  -1.81493E+3
   2.13393E+3  -1.80832E+3
   2.09061E+3  -1.89692E+3
   2.07316E+3  -1.89824E+3
   2.08830E+3  -1.87492E+3
   1.99710E+3  -1.91842E+3
   1.99939E+3  -1.94969E+3
   1.90849E+3  -1.98928E+3
   1.98048E+3  -2.02774E+3
   1.89999E+3  -2.00100E+3
   1.85603E+3  -2.01730E+3
   1.85164E+3  -2.03328E+3
   1.87143E+3  -2.12867E+3
   1.77533E+3  -2.13980E+3
   1.74374E+3  -2.11283E+3
   1.81027E+3  -2.07906E+3
   1.70303E+3  -2.17109E+3
   1.60922E+3  -2.17946E+3
   1.67374E+3  -2.17400E+3
   1.57701E+3  -2.15421E+3
   1.59549E+3  -2.20735E+3
   1.51975E+3  -2.24732E+3
   1.50441E+3  -2.28787E+3
   1.51322E+3  -2.20393E+3
   1.48567E+3  -2.24160E+3
   1.43352E+3  -2.24493E+3
   1.37803E+3  -2.33456E+3
   1.39879E+3  -2.34978E+3
   1.35640E+3  -2.30760E+3
   1.29885E+3  -2.35374E+3
   1.26482E+3  -2.35105E+3
   1.28272E+3  -2.37774E+3
   1.22071E+3  -2.42466E+3
   1.19353E+3  -2.40181E+3
   1.13709E+3  -2.39901E+3
   1.17690E+3  -2.39931E+3
   1.13339E+3  -2.46944E+3
   1.06351E+3  -2.41161E+3
   1.05393E+3  -2.51170E+3
   9.95756E+2  -2.49526E+3
   9.88924E+2  -2.50736E+3
   9.81923E+2  -2.47502E+3
   1.01012E+3  -2.45752E+3
   9.18703E+2  -2.57205E+3
   8.73955E+2  -2.50815E+3
   8.63771E+2  -2.52009E+3
   9.14560E+2  -2.60162E+3
   8.16639E+2  -2.50522E+3
   7.34934E+2  -2.58004E+3
   7.50020E+2  -2.59317E+3
