 
 $NMID
 ID=''
 FMTDAT='(2E13.5)'
 TRAMP=   1.00000E+0
 VOLUME=   1.00000E+0
 $END
   6.32175E+2  -2.94510E+2
  -4.63662E+2   2.06952E+3
   1.61214E+3  -4.21715E+3
  -3.19714E+2   1.23662E+3
  -1.64922E+3  -2.38056E+2
   2.11865E+3   2.06279E+3
   1.63393E+3   2.78837E+3
   1.90699E+3  -9.20570E+2
   2.17824E+3  -3.41775E+3
   2.73263E+2  -4.57344E+3
   2.31073E+3  -4.21529E+3
   1.90118E+3  -2.43459E+3
  -3.04611E+3   2.18297E+3
  -4.22995E+3   2.00460E+3
  -3.30249E+3  -2.56309E+3
   3.56826E+1  -1.30967E+3
   9.43179E+2   5.71252E+2
   7.44976E+2   3.70621E+3
  -1.67178E+3   3.37801E+3
  -4.53809E+1   1.06880E+3
   2.74563E+3  -1.26645E+3
   1.33054E+3   6.12987E+2
  -2.45007E+3   2.94184E+3
  -7.89123E+2  -1.16612E+3
   2.11364E+3   1.03441E+3
   1.45870E+2   5.11535E+3
  -5.59406E+3   2.75116E+3
  -3.94339E+3   6.07803E+1
   3.75174E+3  -2.05679E+3
   4.70846E+3   1.15458E+3
   5.17649E+3   6.99101E+3
  -3.07265E+3   7.42261E+3
  -3.34767E+3   2.54835E+2
   2.90114E+3  -1.38207E+3
   1.31427E+2   9.68280E+2
  -1.17199E+3  -4.08974E+3
   3.96957E+3  -4.53206E+3
   4.79135E+3   1.30662E+3
   4.81975E+2   3.42671E+3
  -1.38519E+3   1.57752E+3
  -1.99200E+3   1.01315E+3
  -5.87026E+3  -1.86590E+3
  -2.04443E+3  -7.44743E+3
   3.77805E+3  -5.65470E+3
   2.60530E+3  -2.51168E+2
   8.60532E+2   2.71551E+3
   1.07223E+3   1.48541E+3
   1.37670E+3   2.69333E+3
  -3.66904E+2   1.31447E+3
  -2.38777E+3  -1.10501E+3
   6.57396E+2  -1.75406E+3
   4.87265E+3  -1.17438E+3
   3.98125E+3  -9.36713E+2
   4.41883E+2   3.86668E+3
  -1.51730E+3   1.11246E+3
   9.14614E+2   2.63458E+2
  -5.43282E+3  -2.19949E+3
  -3.20659E+3  -4.85119E+3
   2.92020E+2  -7.48505E+3
   2.06206E+3  -3.67527E+3
   4.62153E+3   4.41903E+2
   4.09728E+3   1.81463E+3
   1.33947E+3   2.96746E+3
  -2.90771E+3  -4.70140E+2
   1.32884E+3   4.46960E+1
   2.65386E+3   4.20622E+3
  -2.35142E+3   2.28518E+3
  -3.49031E+3   1.95694E+2
  -1.03129E+2  -1.84166E+3
  -2.24069E+3   1.05597E+2
  -1.09314E+3   1.76992E+3
  -7.37660E+2   3.99040E+2
  -8.09617E+1  -8.59088E+2
  -2.04444E+3   6.19823E+2
  -9.79115E+2   3.75403E+2
  -4.61122E+2   1.83426E+3
  -9.60164E+1   2.15102E+3
   3.90076E+2  -1.29763E+3
   1.00699E+3  -8.03239E+2
  -1.10248E+3   2.45695E+3
  -2.84786E+3   1.13839E+3
  -2.71509E+3   6.64972E+2
  -2.25555E+3   2.14210E+3
  -3.73778E+3   2.67554E+3
  -4.49693E+3   3.28094E+2
  -4.52851E+3  -5.61076E+3
   9.95360E+2  -3.22193E+3
   2.79068E+3  -1.71689E+3
   1.69678E+3  -5.58274E+2
  -2.57839E+2   2.87625E+3
  -5.74485E+2  -4.28942E+2
   8.52990E+2   8.34254E+1
  -2.33885E+3   3.81794E+3
  -3.30301E+3   1.12067E+3
  -2.10164E+3  -4.15705E+3
   5.13146E+3  -3.91510E+3
   3.34466E+3  -5.74375E+2
  -1.63203E+3   2.92280E+3
  -3.05991E+3   7.70055E+2
  -4.38014E+2  -3.77218E+3
   2.64406E+3  -5.74117E+3
   2.56138E+3  -6.00321E+2
   9.70574E+2   2.70938E+3
  -1.49034E+3   2.00009E+3
  -2.58772E+3   2.25633E+2
  -4.30094E+2  -5.52478E+2
  -1.04867E+3  -4.38924E+2
  -4.94492E+2  -1.30970E+3
  -1.32237E+3  -2.99095E+3
   3.90602E+3  -9.15884E+0
   4.01173E+3   1.18400E+3
   1.14814E+3   2.17909E+3
  -1.27728E+3   1.32641E+3
  -1.44954E+3   1.47350E+3
  -2.71889E+3  -6.05044E+2
  -1.40171E+3  -2.72713E+3
   9.56956E+2  -6.07049E+2
   3.67037E+2  -2.05260E+3
   1.27501E+3  -1.92254E+3
   8.61020E+1   3.45526E+2
  -4.05298E+2   2.50127E+3
  -1.25234E+3  -7.07797E+2
   8.81094E+1  -2.57047E+3
   3.49168E+3  -1.38763E+3
  -9.46241E+2   7.94632E+1
   4.24690E+2  -8.74771E+2
   1.04205E+3   2.01840E+2
   1.88496E+3   1.19345E+3
   1.03268E+3   8.85502E+2
   1.61868E+3   7.13861E+0
   3.90019E+2  -1.55235E+3
   8.00366E+2  -1.35258E+3
   8.77263E+2   2.92509E+3
  -5.51373E+2   1.26815E+3
  -1.03460E+3  -1.02322E+3
  -2.98044E+3  -1.04220E+3
   1.71394E+3   5.10386E+1
   3.11422E+3  -2.87564E+1
  -9.09993E-1  -1.09559E+3
   1.02585E+3   1.33311E+3
   1.45636E+3   3.83611E+2
   1.27407E+3   4.60804E+2
   1.83142E+3   3.87589E+2
  -4.74249E+2  -1.92193E+3
  -1.19276E+2  -9.61590E+2
  -1.16988E+3   3.41931E+2
  -2.53858E+2   4.58170E+2
  -1.59542E+3  -1.06824E+3
  -1.08946E+3   6.93438E+2
  -2.21344E+3   2.64053E+2
   6.19574E+2  -1.12992E+3
  -1.68735E+2  -3.88151E+3
   2.90616E+3  -6.70065E+2
   2.75020E+3  -1.80880E+3
   1.48767E+3  -2.83362E+2
   8.45432E+2  -8.28335E+2
  -5.69467E+2   7.33596E+2
  -1.11871E+3   4.79986E+1
   1.71123E+2   7.75005E+2
   1.80278E+1  -9.15182E+2
  -2.53228E+2  -1.36065E+3
  -8.95136E+2   6.88644E+2
   1.29927E+3  -3.12652E+1
   1.95702E+3  -1.34375E+3
  -1.63825E+3   1.83656E+3
  -3.60821E+2  -1.19501E+3
  -6.17825E+1   4.92951E+2
   2.03316E+3   3.57106E+2
  -2.73385E+3   2.97643E+3
  -2.94094E+3   1.29151E+3
  -1.09263E+3  -1.21822E+3
   6.36628E+2  -3.77996E+2
  -1.26772E+3   1.29693E+3
  -3.81147E+2   7.90788E+2
   2.48330E+3   7.09288E+1
  -2.94754E+2  -4.99500E+2
   1.63684E+3  -6.27049E+1
  -1.05398E+3   2.38682E+3
  -1.16657E+3  -1.83214E+3
  -2.44768E+3  -2.39707E+3
   8.88577E+2  -2.82615E+2
   8.08943E+2   9.30242E+2
   7.48079E+1   8.67197E+0
  -7.81375E+2  -3.53788E+2
  -6.25474E+2   1.90133E+3
  -1.47358E+3   3.60664E+3
  -2.36820E+3  -7.61281E+2
  -1.68347E+3  -2.29719E+2
   8.16624E+2  -1.52588E+3
  -9.33470E+2  -9.26858E+2
  -5.39409E+2  -6.36254E+2
  -7.11910E+2   2.19732E+3
  -1.28526E+3  -1.22395E+3
   1.08706E+3   1.05087E+3
   1.31368E+2   5.56845E+2
  -1.98675E+3   1.89971E+3
   1.01461E+2   5.62537E+2
  -1.96975E+3  -1.01437E+2
   1.48804E+3   7.54383E+2
  -3.43684E+3   1.28749E+3
  -4.24065E+3  -1.33646E+3
  -3.50637E+3  -2.12249E+3
   2.16278E+3  -1.96942E+3
  -5.29880E+1  -4.13453E+2
   3.40049E+2   2.04447E+3
  -2.14569E+3   1.75871E+2
  -2.04406E+3   5.24028E-1
  -4.75211E+2   8.79763E+2
  -1.09964E+3   1.26402E+3
  -2.21143E+3   2.01301E+3
  -4.66391E+2  -3.68260E+3
   1.13261E+2  -7.98009E+2
   5.85108E+2   3.40024E+3
  -8.41654E+2   1.03090E+3
  -4.29691E+2  -3.36874E+2
  -2.82042E+2   1.08151E+2
   1.51043E+1   5.60990E+2
   5.66366E+2  -4.00912E+2
  -4.26180E+2  -7.79519E+2
   3.94229E+2  -9.76524E+1
   3.61541E+2   2.35287E+3
   5.33907E+2  -4.13821E+2
  -2.06000E+3   9.86552E+2
  -7.34215E+2  -1.58523E+2
   8.89689E+2   1.09042E+3
   1.04829E+3   9.36061E+2
   7.88293E+2   3.14913E+3
  -2.90758E+2  -3.77976E+1
  -2.34396E+3   1.17591E+2
   1.40161E+2  -1.12129E+3
   9.20735E+1  -2.43493E+3
  -6.29159E+2  -4.19800E+2
   2.67136E+2  -1.21993E+3
   1.14321E+3   1.84004E+3
  -1.43017E+3   4.23825E+3
  -4.18619E+2   1.97346E+3
  -2.32793E+3  -3.11359E+2
  -5.35331E+2   3.76605E+1
   1.13566E+3  -2.90428E+2
  -6.25539E+2   4.36017E+2
  -3.38910E+3   2.27857E+2
  -3.48350E+3   5.71414E+2
  -1.21620E+3  -2.21430E+3
  -5.76897E+2   2.59148E+2
   1.29577E+3   1.06404E+3
  -1.11844E+3   8.15602E+2
   1.81671E+2  -1.19361E+2
   2.60088E+3   1.30026E+3
  -1.07796E+3   1.85616E+3
  -1.70479E+3   2.23862E+3
  -5.79687E+2   7.62256E+2
   1.00154E+3  -2.57571E+3
   2.38476E+3  -4.61606E+2
   1.26302E+3   1.40681E+3
   2.01083E+3   1.78922E+3
  -1.32317E+1  -8.32549E+1
  -1.50239E+3   1.44934E+3
  -2.58630E+3   1.31308E+3
  -3.28565E+3   4.68154E+2
   5.37114E+2  -1.98276E+3
  -3.27539E+2   1.78876E+1
   1.05032E+3   1.75690E+3
  -1.18062E+3   2.14602E+3
   4.20063E+2  -1.01566E+3
   5.03742E+2  -2.58491E+2
   9.24171E+2   3.65200E+2
  -8.11936E+2   7.79673E+2
   9.66153E+2  -1.94853E+2
   7.33651E+2  -7.33062E+1
  -3.14062E+2  -9.55566E+2
   1.04058E+2   8.33996E+2
  -1.53639E+3   1.45834E+3
  -1.14718E+3  -1.61008E+3
  -6.63227E+0  -6.88669E+2
   1.16937E+3  -6.77853E+2
  -7.15637E+2   2.10851E+3
   2.43189E+2   2.07188E+3
   1.83357E+2   1.58582E+2
   1.40052E+3  -7.15406E+2
   4.30055E+2   2.26403E+2
  -3.62541E+2  -7.67401E+2
  -1.12189E+3  -1.65601E+3
   1.52695E+2  -1.31828E+3
   5.01009E+2  -1.01640E+3
  -6.55648E+2   4.85288E+2
   6.90715E+2   6.55420E+2
   1.64559E+3  -1.74203E+3
  -1.85093E+3   6.19488E+2
   1.94012E+3   1.47621E+3
   1.78945E+3   7.08878E+2
  -2.26724E+3   1.35404E+2
   1.12165E+3   6.50869E+2
  -7.59547E+2   4.03492E+2
  -7.41302E+2   4.92219E+2
  -1.50455E+3  -1.47934E+3
   9.45663E+2  -5.44460E+2
   3.07586E+3  -4.05642E+2
   2.16081E+3   1.48029E+3
  -1.07655E+2  -1.04772E+3
  -1.06147E+3   6.42395E+0
   1.15851E+3   1.76500E+3
  -2.55557E+2   1.08854E+3
   1.50961E+3   7.02802E+2
  -6.25019E+2  -1.30093E+3
   1.01804E+3  -8.44341E+2
   1.93707E+3   1.19810E+3
   1.30467E+3  -3.73651E+2
  -4.90559E+2  -1.08894E+3
  -7.79879E+2   3.67286E+2
   1.50517E+3  -1.22678E+3
   1.35097E+3  -1.95421E+3
   1.65116E+3   2.34049E+2
   8.94173E+2   1.55071E+2
   1.17682E+2  -4.55126E+2
  -2.06193E+2   1.04922E+2
   6.04953E+2   3.85902E+2
  -1.31083E+3  -1.20029E+3
  -1.11984E+2  -9.71731E+2
   2.31879E+3  -1.58245E+3
   1.32733E+3   2.09461E+3
   2.85398E+2   7.17354E+2
  -7.70494E+2  -1.25141E+3
   1.05935E+3   2.39091E+2
   1.05565E+3   1.41663E+3
   7.48958E+2  -9.40506E+2
   8.78609E+2  -5.76975E+2
   3.10940E+3  -9.89945E+2
   1.73047E+3   1.16226E+3
   3.75696E+2   8.79230E+1
  -4.66398E+2  -2.43652E+2
   8.01225E+2   9.83979E+2
  -1.43441E+3   1.23201E+3
   2.27500E+3  -3.37284E+3
   1.91075E+3   4.83690E+2
   5.33464E+2  -5.11740E+1
   8.15112E+2   5.52614E+2
   2.63921E+2  -5.20218E+2
  -1.11280E+3  -6.38655E+2
  -2.06176E+3  -1.54076E+3
   1.14290E+3  -3.34156E+3
   6.11334E+2  -3.66770E+2
   2.34123E+3   2.11558E+2
  -4.27837E+1  -2.31030E+2
   2.18754E+3   9.46831E+2
   6.56910E+2  -1.93218E+2
   4.74887E+1  -2.16797E+3
   1.22661E+3   7.09154E+2
   8.50828E+2   1.57312E+3
   5.83080E+2   1.18981E+3
   2.08405E+3  -5.57450E+2
  -7.85380E+1   8.66294E+2
  -3.85542E+2   1.91366E+3
   1.07661E+3   1.73360E+3
   8.35482E+2  -2.23154E+3
   5.09600E+2  -5.42260E+2
  -9.37560E+1   8.37807E+2
  -3.09423E+2   6.85108E+2
   1.73009E+1   5.11113E+2
  -2.33082E+2  -1.70593E+3
  -8.75373E+2   3.76568E+2
   9.89424E+1  -2.51582E+2
   8.38456E+2   4.04103E+2
   2.97645E+2   1.18192E+3
   4.82449E+1  -2.26525E+2
  -1.43707E+3   8.91150E+2
  -1.09005E+3  -6.29978E+2
  -6.20366E+2  -7.07808E+2
