 
 $NMID
 ID=''
 FMTDAT='(2E13.5)'
 TRAMP=   1.00000E+0
 VOLUME=   1.00000E+0
 $END
   3.60027E+2   6.55622E+2
  -1.94051E+3   1.02128E+3
   4.41371E+3   3.38623E+2
   1.46269E+3  -1.34878E+2
  -1.26889E+3  -2.48259E+3
   1.64693E+3   5.14709E+2
  -4.11706E+3   5.22260E+2
  -1.27965E+3  -1.43347E+3
   2.87100E+1  -4.41009E+2
   5.36078E+1   4.13058E+2
   1.17823E+3   4.97627E+1
   3.37716E+3   5.54797E+3
  -3.21621E+3   4.69434E+3
  -4.91248E+3  -2.05374E+3
   1.25631E+3  -2.17281E+3
   2.59653E+3   3.05883E+2
   1.61400E+3   1.57677E+3
   1.97206E+3   1.75836E+3
  -1.17982E+3   4.76012E+2
   2.49985E+3  -4.97223E+2
   3.12443E+3   2.05008E+3
  -3.88754E+3   4.49620E+2
  -3.85653E+3  -3.67883E+3
   5.01088E+3  -2.90826E+3
  -1.46668E+3   1.64534E+3
  -4.05413E+3  -1.72274E+3
   7.71163E+1  -2.12037E+3
   1.49314E+3  -2.26445E+2
   4.83817E+3  -2.57927E+3
   1.32547E+3   3.67519E+3
  -4.73023E+3   6.59223E+3
  -8.10240E+3  -1.88177E+3
   1.83642E+3  -4.84127E+3
   5.03540E+3   2.34905E+3
  -1.39458E+3  -3.54239E+2
   2.76985E+3  -1.58034E+3
   2.93418E+3   2.23187E+3
  -2.65179E+3   2.57255E+3
  -4.01605E+3  -3.96649E+3
   1.27292E+3  -1.61749E+3
   3.50706E+3  -1.83846E+3
   2.86582E+3  -2.59819E+3
   5.42973E+3   3.74789E+3
   9.27499E+2   4.81100E+3
  -5.49921E+3   3.95872E+3
  -3.67270E+3  -1.13244E+3
   8.88228E+1  -1.84207E+3
  -2.00768E+2  -1.95407E+3
  -2.00394E+3  -2.53534E+3
   1.59707E+3  -1.78001E+3
   1.06806E+3   1.09088E+3
  -3.57549E+3   2.16855E+3
  -3.85486E+3   2.34858E+3
  -2.06076E+3  -1.69747E+3
  -1.11421E+3  -1.94831E+3
   3.78102E+2  -1.81423E+3
   6.03287E+3  -1.38250E+3
   2.66911E+3   3.39308E+3
  -1.05546E+3   3.48979E+3
  -2.35874E+3   1.39962E+3
  -2.32403E+3  -5.93660E+2
  -3.40125E+3  -1.88986E+3
   2.13271E+3  -2.10004E+3
   2.11204E+3   6.10764E+2
  -5.97719E+2   7.58992E+2
  -3.48615E+2  -6.34108E+2
   4.87364E+3  -3.47052E+2
   3.37795E+3   7.32447E+2
  -1.21449E+3   1.71330E+3
   1.54386E+3   4.71162E+2
  -3.29012E+2   1.86436E+2
  -2.06841E+2   3.02199E+3
  -1.89617E+3  -8.04779E+2
  -2.40057E+2   8.37267E+2
  -1.75089E+3  -3.55289E+3
   1.28179E+3  -1.57548E+3
  -1.96379E+3  -4.92554E+2
  -1.01538E+3  -1.23300E+3
  -1.26715E+2  -2.69952E+2
   9.32542E+2   6.34116E+1
   5.98077E+2  -7.50475E+2
   3.05137E+3  -2.54068E+2
   2.93677E+3   1.01139E+3
   3.86374E+2   2.17464E+3
  -3.96915E+2   1.71437E+3
  -1.60369E+3   2.31440E+3
  -1.18985E+3  -2.08994E+3
   1.48143E+3  -5.43783E+2
   1.36077E+3   1.75932E+3
   2.32335E+2  -1.47329E+2
  -7.86925E+2  -9.89587E+1
   1.12780E+3  -1.38367E+2
   7.24923E+2   1.33940E+3
  -1.60796E+3   1.46268E+3
  -1.73750E+3   1.95986E+2
  -9.26178E+2  -2.08151E+3
   1.51217E+3  -1.62130E+3
   3.17284E+2   1.23386E+3
  -9.29934E+2   1.35353E+3
  -1.39345E+3  -3.05552E+3
  -1.45284E+3  -2.08628E+3
   2.96477E+3  -2.37009E+3
  -1.14915E+3   5.47757E+2
  -8.00831E+2  -3.52645E+3
   6.12225E+1  -2.77364E+3
   4.11869E+2  -3.19462E+1
  -5.16041E+2  -3.25445E+2
  -1.02424E+1  -1.52329E+3
   1.51052E+3   8.53184E+1
   2.02901E+3   3.71645E+2
   3.25551E+3   1.45709E+3
   1.73605E+3   2.72531E+2
  -3.94758E+2  -4.94519E+2
  -1.04057E+3   8.88039E+2
  -1.98442E+3   1.70426E+3
  -9.14318E+2  -2.72222E+3
   1.14980E+3   3.14697E+2
  -1.98558E+3   5.65406E+2
   4.42608E+2   9.53759E+2
  -1.85303E+2   3.61109E+2
  -9.36868E+1   1.06887E+3
   1.08650E+3  -1.30916E+3
  -1.98400E+2  -1.17252E+3
   5.64641E+2   1.29033E+3
  -1.31214E+3  -9.40783E+2
  -1.13744E+3   6.01683E+2
  -3.33051E+2  -1.41971E+3
  -2.54678E+1   9.51258E+1
   2.37876E+3  -1.34201E+3
   1.75989E+3   1.00689E+2
   1.14760E+3   2.65657E+2
   6.31336E+2  -8.92154E+2
  -2.15882E+3  -5.17127E+2
  -1.89186E+3  -3.77609E+2
  -7.81581E+2   7.41152E+2
   7.24868E+2   2.27898E+2
   8.24687E+2   1.57414E+3
   1.81229E+3  -4.36491E+0
   5.63564E+2  -1.20146E+3
  -1.56864E+3   1.00738E+3
   2.85171E+2   1.46606E+3
  -8.09936E+2   2.29730E+3
  -2.34296E+2  -2.35858E+3
  -1.88120E+3  -5.89128E+1
  -8.11772E+1  -1.60720E+2
   8.51875E+1  -1.10541E+3
   4.40592E+2  -1.64667E+3
  -5.53126E+2  -6.14434E+2
   6.45972E+1   2.41762E+2
   1.14276E+3  -5.92426E+2
   1.36803E+3  -1.36752E+3
  -3.70934E+2   7.40297E+2
  -1.08492E+3   2.24916E+3
   1.18291E+3   9.97122E+2
  -1.05405E+3   3.54895E+2
   6.45783E+2   1.04826E+3
  -7.51670E+2   3.06342E+2
   3.05619E+3  -9.06851E+2
  -6.06934E+2  -7.97555E+1
  -1.69710E+3  -5.94119E+2
  -1.20970E+3  -3.09097E+2
  -4.31972E+2  -2.65672E+3
  -1.07522E+3   4.23868E+1
  -2.89045E+2  -8.68120E+2
   3.38958E+2   2.07085E+2
   4.21433E+2   9.48273E+2
  -4.36117E+2  -4.52191E+2
  -5.77896E+2   1.36856E+3
   1.22495E+3   7.03433E+2
   1.55406E+0   9.24115E+2
  -5.42133E+1  -9.24294E+1
   9.46579E+2   6.03760E+0
   1.25458E+3  -5.60062E+2
  -5.65257E+2  -1.72041E+3
   9.36086E+2   1.33274E+3
  -9.24426E+2   8.04092E+2
  -1.29171E+3  -5.76600E+2
  -6.59736E+2   1.49932E+3
   1.37563E+3   1.85895E+3
   1.37300E+2  -4.06636E+2
  -2.19461E+3   1.17805E+3
   4.31296E+2   1.28528E+3
  -8.31517E+2  -1.26386E+3
   4.67480E+2  -1.95244E+3
  -7.22449E+2   7.44761E+2
  -3.38577E+2  -8.98164E+2
  -3.01500E+2   1.44721E+3
  -1.69331E+3   8.29938E+2
   7.45707E+2   9.19248E+2
   1.39036E+2   3.23822E+2
  -4.94004E+2   4.54275E+2
   2.76961E+2  -2.23213E+2
  -1.50615E+3   2.50506E+2
  -9.50360E+2  -1.08127E+3
  -1.83940E+3   6.09803E+2
  -7.69754E+1   1.65700E+3
   8.37722E+2   2.57829E+3
   9.44412E+2  -1.14660E+2
  -1.12611E+3   1.27310E+2
   1.19712E+3   1.18499E+3
   1.17159E+3  -4.85283E+2
   6.53582E+2   4.89331E+2
   6.82214E+2   1.59288E+3
  -5.48716E+2   3.07257E+2
   5.88853E+2   1.28946E+2
   8.00142E+2   7.93009E+2
   1.10398E+2  -2.04955E+2
   3.11101E+2   7.35713E+2
   3.80518E+2  -9.78637E+2
   1.00330E+3  -9.40786E+2
   1.15301E+3   5.92000E+2
   5.17373E+2  -2.34553E+3
   1.94113E+3   1.69510E+2
   1.55925E+3   8.86043E+2
   1.36443E+3   6.88200E+1
  -1.13869E+3   1.48633E+3
   2.72677E+2  -8.06704E+2
   1.04239E+3  -2.33504E+2
  -6.86655E+1  -1.86344E+2
   3.66056E+1  -7.21729E+2
  -1.22729E+3   5.37865E+2
   4.16150E+2   1.88497E+2
   1.59062E+3  -5.21826E+2
   3.02739E+2   3.57179E+2
   8.05967E+2  -4.18774E+2
   7.88721E+2  -3.11750E+1
  -1.21374E+1  -2.33118E+2
   1.58793E+3  -7.34852E+0
   3.50262E+2  -1.79849E+3
   3.58754E+3   6.05423E+1
   6.20720E+2   2.60411E+3
  -4.03003E+2  -5.87727E+2
  -1.32313E+3   2.21363E+2
  -1.10373E+3   1.87064E+2
   3.99982E+2  -4.63078E+2
  -1.24237E+2   1.13604E+3
   2.20866E+2   1.05511E+3
  -6.65642E+2   1.18136E+3
   7.67208E+2  -5.63145E+2
   5.34887E+2   1.53758E+3
  -1.88081E+2   9.73723E+2
  -1.78203E+3   2.77177E+3
   1.24131E+3   1.14712E+3
   1.36617E+3   1.94136E+3
  -1.14244E+2   2.31464E+3
   1.87970E+3   3.91540E+2
  -9.25294E+2  -1.33066E+2
   6.15653E+2   7.22455E+2
   5.63025E+2   1.06525E+3
   7.15153E+2   1.83621E+3
   6.05041E+2  -1.10651E+3
   2.29996E+1   1.73954E+3
   7.44657E+2  -1.59413E+2
  -3.60702E+2   1.81554E+3
   3.10474E+2   7.47434E+2
  -3.85379E+2  -1.55721E+2
  -1.56805E+3   1.89881E+3
  -1.49018E+3   1.17489E+3
   8.32021E+0   7.90926E+2
  -2.44839E+3   6.68766E+2
  -1.46721E+3   8.51706E+2
   1.97403E+2  -7.10557E+1
  -1.24681E+3   1.52637E+3
  -2.10224E+2  -1.35902E+3
  -7.97834E+2  -1.38253E+2
  -3.65939E+2  -1.67912E+2
  -8.36675E+2   3.99425E+1
  -1.65331E+2   1.13409E+3
   1.07307E+1   1.34711E+3
  -9.48061E+2   1.71313E+3
   1.83154E+1   2.11016E+2
   1.49763E+2   2.79804E+2
   1.30938E+2   8.56456E+2
   1.17282E+2   2.98193E+2
  -1.93826E+1  -1.45889E+3
   9.91695E+2  -3.14474E+2
   4.04785E+2   2.51540E+3
   1.00190E+3  -2.36036E+2
   2.04975E+3   1.23053E+2
  -1.40315E+3   2.06628E+3
  -8.71801E+2   1.05352E+3
  -1.84992E+2  -1.61693E+3
   9.94318E+2  -1.89508E+3
   5.15758E+2  -2.67157E+2
   9.27088E+1  -1.64481E+3
   1.57798E+3   7.30338E+1
   9.76452E+2   9.38484E+2
  -6.27226E+2   1.68892E+3
   5.59887E+2  -1.63105E+3
   5.65682E+2  -1.29442E+3
   4.06071E+2   1.35036E+3
   7.03972E+2  -1.36971E+3
  -7.90496E+1  -1.88903E+3
  -1.28530E+2  -2.70254E+2
   1.87759E+3  -9.56288E+2
   1.84817E+3  -4.34205E+2
  -3.70639E+1  -6.30391E+2
  -1.07288E+3  -8.40884E+2
   3.78777E+2   2.57739E+2
  -1.23333E+3   7.69488E+2
   7.29539E+2   1.38517E+3
   1.21889E+3   1.76505E+3
   1.19282E+3   4.51501E+2
   7.52349E+2   3.92541E+2
  -1.44343E+2  -7.21634E+2
   1.82676E+3   6.02196E+2
   1.44971E+3  -7.99204E+2
  -1.70978E+3  -1.14936E+2
   4.11534E+2   2.56827E+2
   1.32472E+3   1.58008E+3
   6.14588E+2  -1.17373E+1
   2.75889E+2  -1.33513E+3
  -3.54852E+2  -2.58692E+3
   9.00483E+2   7.31526E+2
  -1.00342E+3   5.70467E+2
   4.43877E+2   1.95134E+3
  -3.41299E+2  -1.28515E+3
  -1.18122E+3  -6.95488E+2
  -8.09469E+2  -8.48495E+2
  -6.87068E+2  -5.30408E+2
  -2.22273E+3   1.14003E+2
  -6.73507E+2   1.57308E+2
  -1.05409E+3   8.18469E+2
  -1.52760E+2  -2.01239E+3
  -8.45033E+2  -2.26614E+3
  -1.38062E+2  -9.92988E+2
  -1.57982E+2  -4.96461E+2
  -7.05775E+2   1.19266E+3
   5.88190E+2  -1.34816E+3
  -8.15000E+1  -5.23670E+2
   1.31597E+3  -1.76815E+3
   1.26969E+3   7.15815E+2
  -1.23666E+3  -1.21055E+3
   6.76487E+2   1.20789E+2
   1.22845E+3  -2.36522E+2
   2.64031E+2  -1.19628E+2
   4.64161E+2  -8.35229E+2
   1.07339E+3  -9.21749E+2
  -6.01857E+2  -1.78496E+2
  -8.67323E+2   6.81919E+2
  -8.09514E+2   8.30974E+2
  -9.46227E+2   2.45313E+3
   7.14223E+2   1.85969E+2
   3.12220E+3   1.05902E+3
   1.13166E+3  -1.72854E+3
   1.98277E+1   2.29585E+2
  -4.20588E+2   9.25621E+2
   1.75589E+2  -5.28466E+2
   4.54419E+2  -7.68052E+2
   1.40013E+2  -4.49774E+2
   1.65456E+3   3.36225E+2
  -1.04460E+1  -2.14256E+3
  -5.84813E+2  -2.39228E+3
  -5.87670E+2   1.97057E+3
   1.57072E+3  -1.08565E+3
   6.79167E+2   3.31328E+2
   5.12569E+2  -2.82395E+2
  -7.32636E+2  -4.96294E+2
  -1.98355E+1   1.12428E+3
  -6.18273E+2  -1.02978E+3
  -1.08222E+3  -1.63032E+2
   4.82852E+2  -6.68486E+2
   1.11271E+3   2.91477E+2
  -7.88122E+2  -7.17666E+2
   2.00679E+3  -1.74524E+2
   6.43164E+2   1.85541E+2
   2.36529E+2  -7.02097E+2
