 
 $NMID
 ID=''
 FMTDAT='(2E13.5)'
 TRAMP=   1.00000E+0
 VOLUME=   1.00000E+0
 $END
  -1.52092E+4   9.90709E+3
  -4.46862E+4   1.35247E+4
  -4.14478E+4   2.13859E+4
  -3.79566E+4   1.99800E+4
  -3.98697E+4   1.95790E+4
  -3.87846E+4   2.14458E+4
  -3.73963E+4   2.02062E+4
  -3.81961E+4   1.96236E+4
  -3.76523E+4   2.06289E+4
  -3.67578E+4   1.98691E+4
  -3.71714E+4   1.94670E+4
  -3.65222E+4   2.03546E+4
  -3.56863E+4   2.00742E+4
  -3.60091E+4   1.97512E+4
  -3.54763E+4   2.01666E+4
  -3.46971E+4   1.99015E+4
  -3.48052E+4   1.97354E+4
  -3.43571E+4   2.01250E+4
  -3.37094E+4   2.00106E+4
  -3.38238E+4   1.98116E+4
  -3.33577E+4   2.00630E+4
  -3.26585E+4   2.00974E+4
  -3.27781E+4   2.01507E+4
  -3.24216E+4   2.01983E+4
  -3.18329E+4   2.00887E+4
  -3.17011E+4   2.01280E+4
  -3.14537E+4   2.01568E+4
  -3.10751E+4   1.98838E+4
  -3.09448E+4   1.96788E+4
  -3.05316E+4   1.97825E+4
  -3.00791E+4   1.97323E+4
  -2.99490E+4   1.96758E+4
  -2.96256E+4   1.97573E+4
  -2.91927E+4   1.95874E+4
  -2.89357E+4   1.95300E+4
  -2.85481E+4   1.96134E+4
  -2.80774E+4   1.96335E+4
  -2.77775E+4   1.97139E+4
  -2.73794E+4   1.98506E+4
  -2.70383E+4   1.99749E+4
  -2.67952E+4   2.00009E+4
  -2.66443E+4   2.00417E+4
  -2.63081E+4   1.99336E+4
  -2.60781E+4   1.99089E+4
  -2.57745E+4   1.99989E+4
  -2.54944E+4   2.00581E+4
  -2.52946E+4   2.00342E+4
  -2.51084E+4   2.00708E+4
  -2.48588E+4   2.01884E+4
  -2.46026E+4   2.00312E+4
  -2.43839E+4   2.00468E+4
  -2.41026E+4   2.00361E+4
  -2.37986E+4   2.00369E+4
  -2.34856E+4   2.01040E+4
  -2.32149E+4   2.01414E+4
  -2.29925E+4   2.00692E+4
  -2.27019E+4   2.00300E+4
  -2.24960E+4   1.99890E+4
  -2.22222E+4   1.99926E+4
  -2.19299E+4   1.99245E+4
  -2.16421E+4   1.99769E+4
  -2.13400E+4   1.99626E+4
  -2.11119E+4   2.00045E+4
  -2.09199E+4   1.99303E+4
  -2.07704E+4   1.99133E+4
  -2.04402E+4   2.00043E+4
  -2.03003E+4   1.99583E+4
  -2.00050E+4   1.99519E+4
  -1.97281E+4   1.99272E+4
  -1.95036E+4   1.98962E+4
  -1.92926E+4   1.98212E+4
  -1.90984E+4   1.97795E+4
  -1.88658E+4   1.97343E+4
  -1.86479E+4   1.97313E+4
  -1.83445E+4   1.96948E+4
  -1.81047E+4   1.95926E+4
  -1.78895E+4   1.96676E+4
  -1.76812E+4   1.95317E+4
  -1.73735E+4   1.94888E+4
  -1.72067E+4   1.95160E+4
  -1.69814E+4   1.94913E+4
  -1.67273E+4   1.94807E+4
  -1.64949E+4   1.94078E+4
  -1.63091E+4   1.93436E+4
  -1.61915E+4   1.94016E+4
  -1.59956E+4   1.92514E+4
  -1.57748E+4   1.92020E+4
  -1.55794E+4   1.91033E+4
  -1.52791E+4   1.90293E+4
  -1.51137E+4   1.90150E+4
  -1.49111E+4   1.89974E+4
  -1.47166E+4   1.89215E+4
  -1.45278E+4   1.89431E+4
  -1.43669E+4   1.88944E+4
  -1.41799E+4   1.88323E+4
  -1.38736E+4   1.87984E+4
  -1.37116E+4   1.87381E+4
  -1.33952E+4   1.86873E+4
  -1.32271E+4   1.86742E+4
  -1.31341E+4   1.86061E+4
  -1.28945E+4   1.84835E+4
  -1.26351E+4   1.83744E+4
  -1.23128E+4   1.84249E+4
  -1.22264E+4   1.83752E+4
  -1.20405E+4   1.83262E+4
  -1.17724E+4   1.82664E+4
  -1.15905E+4   1.81807E+4
  -1.13925E+4   1.82061E+4
  -1.11830E+4   1.80892E+4
  -1.10619E+4   1.80238E+4
  -1.07514E+4   1.79670E+4
  -1.05469E+4   1.79621E+4
  -1.04179E+4   1.79046E+4
  -1.02467E+4   1.78588E+4
  -9.98624E+3   1.77801E+4
  -9.82082E+3   1.76884E+4
  -9.66090E+3   1.76340E+4
  -9.45163E+3   1.74973E+4
  -9.29386E+3   1.74610E+4
  -9.06316E+3   1.73964E+4
  -8.86142E+3   1.73166E+4
  -8.67104E+3   1.72145E+4
  -8.47148E+3   1.71457E+4
  -8.33208E+3   1.70570E+4
  -8.10825E+3   1.69675E+4
  -7.87651E+3   1.68847E+4
  -7.74911E+3   1.68552E+4
  -7.49827E+3   1.67874E+4
  -7.40751E+3   1.66939E+4
  -7.18958E+3   1.65745E+4
  -7.04158E+3   1.64785E+4
  -6.88508E+3   1.63946E+4
  -6.65923E+3   1.63628E+4
  -6.51172E+3   1.61548E+4
  -6.39721E+3   1.61396E+4
  -6.30792E+3   1.60461E+4
  -6.07199E+3   1.59114E+4
  -5.92029E+3   1.57987E+4
  -5.69068E+3   1.57408E+4
  -5.60807E+3   1.56036E+4
  -5.46675E+3   1.55008E+4
  -5.20272E+3   1.54921E+4
  -5.10863E+3   1.53301E+4
  -4.87972E+3   1.51778E+4
  -4.81351E+3   1.51517E+4
  -4.58087E+3   1.49648E+4
  -4.48705E+3   1.48816E+4
  -4.34113E+3   1.48391E+4
  -4.23799E+3   1.47381E+4
  -4.07276E+3   1.46173E+4
  -3.87910E+3   1.46050E+4
  -3.82631E+3   1.44895E+4
  -3.66869E+3   1.42368E+4
  -3.49465E+3   1.41669E+4
  -3.35419E+3   1.41426E+4
  -3.24322E+3   1.40714E+4
  -3.13598E+3   1.39422E+4
  -2.98933E+3   1.38030E+4
  -2.86653E+3   1.37699E+4
  -2.73776E+3   1.35907E+4
  -2.69949E+3   1.35628E+4
  -2.50976E+3   1.34054E+4
  -2.44411E+3   1.33474E+4
  -2.30955E+3   1.32036E+4
  -2.15673E+3   1.31005E+4
  -2.14007E+3   1.30508E+4
  -1.99135E+3   1.29446E+4
  -1.86985E+3   1.27971E+4
  -1.73306E+3   1.27397E+4
  -1.63661E+3   1.26112E+4
  -1.57979E+3   1.25909E+4
  -1.51050E+3   1.24410E+4
  -1.42856E+3   1.23421E+4
  -1.37955E+3   1.22403E+4
  -1.23400E+3   1.21390E+4
  -1.14124E+3   1.20405E+4
  -9.77597E+2   1.19489E+4
  -8.90763E+2   1.19306E+4
  -8.04829E+2   1.17574E+4
  -8.20231E+2   1.17406E+4
  -6.60203E+2   1.15760E+4
  -5.86480E+2   1.14714E+4
  -5.30818E+2   1.13379E+4
  -5.30751E+2   1.13352E+4
  -4.35498E+2   1.12174E+4
  -3.10674E+2   1.11357E+4
  -2.89105E+2   1.09837E+4
  -2.60686E+2   1.08628E+4
  -1.02391E+2   1.08142E+4
  -6.99001E+1   1.06871E+4
   4.98641E+1   1.06071E+4
   5.56547E+1   1.04786E+4
   1.38589E+2   1.03915E+4
   2.14730E+2   1.03631E+4
   2.56502E+2   1.02475E+4
   2.90408E+2   1.01566E+4
   3.43747E+2   1.00299E+4
   4.23579E+2   1.00083E+4
   5.50042E+2   9.91316E+3
   6.25692E+2   9.76665E+3
   5.96071E+2   9.68773E+3
   6.20406E+2   9.59943E+3
   6.96514E+2   9.49782E+3
   7.04703E+2   9.42887E+3
   8.33842E+2   9.28508E+3
   8.25484E+2   9.28271E+3
   9.18178E+2   9.19914E+3
   9.78266E+2   9.15680E+3
   1.03800E+3   8.96909E+3
   1.04763E+3   8.92569E+3
   1.07481E+3   8.85727E+3
   1.13166E+3   8.73016E+3
   1.18817E+3   8.66212E+3
   1.22906E+3   8.59878E+3
   1.33747E+3   8.57064E+3
   1.34445E+3   8.46361E+3
   1.40299E+3   8.37732E+3
   1.38144E+3   8.35160E+3
   1.48786E+3   8.23234E+3
   1.52018E+3   8.09457E+3
   1.55423E+3   8.04937E+3
   1.57471E+3   7.98123E+3
   1.61158E+3   7.85149E+3
   1.64707E+3   7.83536E+3
   1.59708E+3   7.80287E+3
   1.68245E+3   7.68979E+3
   1.69939E+3   7.63100E+3
   1.67343E+3   7.56634E+3
   1.70721E+3   7.53615E+3
   1.73080E+3   7.37075E+3
   1.76269E+3   7.34366E+3
   1.83743E+3   7.24762E+3
   1.86421E+3   7.23793E+3
   1.87281E+3   7.10501E+3
   1.90650E+3   7.01795E+3
   1.94028E+3   6.96811E+3
   1.96428E+3   6.89945E+3
   1.92851E+3   6.89283E+3
   1.99752E+3   6.79281E+3
   2.07630E+3   6.67684E+3
   1.97042E+3   6.73026E+3
   2.08815E+3   6.56225E+3
   2.06628E+3   6.60788E+3
   2.09247E+3   6.46428E+3
   2.07531E+3   6.40160E+3
   2.09879E+3   6.36767E+3
   2.13608E+3   6.28252E+3
   2.16513E+3   6.22231E+3
   2.18156E+3   6.18357E+3
   2.16864E+3   6.09786E+3
   2.23066E+3   6.07692E+3
   2.18546E+3   6.01717E+3
   2.21930E+3   5.90785E+3
   2.28360E+3   5.82958E+3
   2.27965E+3   5.82867E+3
   2.32445E+3   5.75610E+3
   2.25848E+3   5.64957E+3
   2.32095E+3   5.55173E+3
   2.32101E+3   5.60631E+3
   2.32136E+3   5.52203E+3
   2.39944E+3   5.48129E+3
   2.41009E+3   5.41284E+3
   2.44541E+3   5.38308E+3
   2.42809E+3   5.26514E+3
   2.37639E+3   5.27580E+3
   2.45020E+3   5.16683E+3
   2.46660E+3   5.17780E+3
   2.44987E+3   5.12191E+3
   2.44449E+3   5.06609E+3
   2.42698E+3   4.95106E+3
   2.51648E+3   4.88999E+3
   2.48912E+3   4.85628E+3
   2.49252E+3   4.82176E+3
   2.48486E+3   4.81838E+3
   2.52488E+3   4.74303E+3
   2.50218E+3   4.69361E+3
   2.52739E+3   4.65250E+3
   2.58363E+3   4.60556E+3
   2.53764E+3   4.50440E+3
   2.54410E+3   4.46582E+3
   2.59695E+3   4.44379E+3
   2.60275E+3   4.41652E+3
   2.58871E+3   4.33486E+3
   2.59466E+3   4.30908E+3
   2.63663E+3   4.20551E+3
   2.61658E+3   4.21139E+3
   2.54811E+3   4.20625E+3
   2.59788E+3   4.14226E+3
   2.59733E+3   4.15427E+3
   2.59236E+3   4.03432E+3
   2.62476E+3   3.99853E+3
   2.59213E+3   3.99653E+3
   2.65048E+3   3.96413E+3
   2.60855E+3   3.79858E+3
   2.65132E+3   3.85989E+3
   2.68150E+3   3.76176E+3
   2.57564E+3   3.79759E+3
   2.61288E+3   3.74784E+3
   2.59089E+3   3.70860E+3
   2.62203E+3   3.61036E+3
   2.59801E+3   3.59432E+3
   2.62562E+3   3.59108E+3
   2.62416E+3   3.54252E+3
   2.58365E+3   3.51403E+3
   2.66020E+3   3.47870E+3
   2.62191E+3   3.47647E+3
   2.63787E+3   3.35947E+3
   2.63274E+3   3.29809E+3
   2.69860E+3   3.33327E+3
   2.57619E+3   3.26999E+3
   2.61514E+3   3.26847E+3
   2.62553E+3   3.19778E+3
   2.69287E+3   3.09813E+3
   2.68792E+3   3.09134E+3
   2.63428E+3   3.14101E+3
   2.57684E+3   3.04641E+3
   2.67686E+3   3.05189E+3
   2.61577E+3   2.98595E+3
   2.63702E+3   2.97556E+3
   2.63276E+3   2.94106E+3
   2.57378E+3   2.88965E+3
   2.59240E+3   2.84710E+3
   2.56756E+3   2.83297E+3
   2.66990E+3   2.77998E+3
   2.62631E+3   2.78049E+3
   2.60352E+3   2.69505E+3
   2.60417E+3   2.68082E+3
   2.59073E+3   2.63395E+3
   2.62590E+3   2.64375E+3
   2.55322E+3   2.57153E+3
   2.61352E+3   2.60822E+3
   2.58055E+3   2.51146E+3
   2.58485E+3   2.43113E+3
   2.54809E+3   2.46613E+3
   2.62758E+3   2.38746E+3
   2.62680E+3   2.47645E+3
   2.60388E+3   2.36308E+3
   2.61217E+3   2.31871E+3
   2.54724E+3   2.33724E+3
   2.59659E+3   2.32950E+3
   2.59780E+3   2.28911E+3
   2.57797E+3   2.28572E+3
   2.55168E+3   2.22113E+3
   2.60704E+3   2.10648E+3
   2.59838E+3   2.16136E+3
   2.57701E+3   2.11024E+3
   2.56995E+3   2.09333E+3
   2.55682E+3   2.04953E+3
   2.54154E+3   2.02791E+3
   2.54718E+3   1.95144E+3
   2.52469E+3   2.00982E+3
   2.54339E+3   1.92423E+3
   2.54374E+3   1.88520E+3
   2.59404E+3   1.94043E+3
   2.52184E+3   1.86240E+3
   2.51253E+3   1.80878E+3
   2.58532E+3   1.80674E+3
   2.54521E+3   1.76771E+3
   2.52891E+3   1.81015E+3
   2.55368E+3   1.75143E+3
   2.52138E+3   1.73093E+3
   2.52412E+3   1.65197E+3
   2.53765E+3   1.59067E+3
   2.46746E+3   1.69933E+3
   2.51886E+3   1.61923E+3
   2.53371E+3   1.55962E+3
   2.49140E+3   1.47734E+3
