 
 $NMID
 ID=''
 FMTDAT='(2E13.5)'
 TRAMP=   1.00000E+0
 VOLUME=   1.00000E+0
 $END
  -1.02917E+2  -7.69858E+2
   1.92840E+3   1.35898E+3
  -3.47472E+3  -3.96449E+3
   1.33071E+3   2.55771E+3
   3.34649E+3   7.30153E+2
   2.33666E+3  -3.96801E+3
   1.53763E+3  -2.70859E+3
  -3.48747E+3  -3.04043E+3
  -5.36738E+3  -4.34549E+3
  -5.43359E+3  -6.82510E+2
  -1.07625E+3   2.05828E+2
   3.73750E+2   5.43506E+2
   1.27492E+3   2.63461E+3
   7.41640E+1   5.06873E+3
   1.43203E+3   1.49152E+3
   2.63281E+3  -2.97715E+3
   4.87720E+2  -4.00354E+3
   1.25279E+3  -4.50793E+3
  -2.57998E+2  -1.67732E+3
  -3.01011E+3   9.26935E+2
  -1.94410E+3  -2.96519E+3
   2.19584E+3   1.74489E+3
   9.73864E+2   4.42642E+3
  -1.80898E+3   2.67271E+3
   4.89353E+2  -2.42687E+3
   2.79967E+3   1.11357E+3
   2.98018E+3   1.90914E+3
  -2.18461E+3   1.74181E+3
  -2.19489E+3  -1.52968E+3
   3.20319E+3  -5.13937E+3
   6.52883E+3  -3.04528E+3
   4.32764E+3   5.13582E+3
  -2.30001E+3   2.03157E+3
  -2.87272E+3  -2.88258E+3
  -3.38214E+3  -7.72114E+2
  -5.02841E+3   6.54275E+2
  -3.23070E+3  -1.18143E+3
   1.63794E+3  -7.17737E+2
   3.57657E+3   1.16131E+3
   1.51923E+3   1.93726E+3
   1.59199E+3   5.11633E+3
  -3.03174E+3   3.69180E+3
  -5.49802E+3  -6.60364E+2
  -8.10787E+2  -4.67040E+3
   3.04506E+3  -2.80047E+3
   1.78281E+3  -2.73989E+2
   2.58273E+3  -4.61041E+2
   3.18333E+3   1.19962E+3
   2.32699E+3  -5.94580E+2
   7.82838E+2  -2.96608E+2
  -1.96194E+2   3.19867E+2
  -1.07149E+3  -3.34530E+3
  -9.70632E+2  -5.76853E+3
   3.61060E+3  -2.21302E+3
   1.51613E+3   1.35232E+3
   1.97396E+2   1.98075E+3
   7.86723E+2   2.78791E+3
  -3.84623E+3   1.30795E+3
  -7.19560E+3  -7.97173E+2
  -3.06854E+3  -3.69910E+3
  -1.49532E+3  -3.64465E+3
   1.56329E+3  -1.61127E+3
   3.13975E+3   1.18083E+3
  -2.55582E+3   2.20382E+3
  -1.93238E+3   1.12429E+3
   3.32414E+3  -9.02129E+1
   2.91292E+3   3.86998E+3
   1.33943E+3   3.39600E+3
   2.08393E+2   1.90631E+3
   2.36815E+3   1.54971E+2
   4.85723E+3   1.24664E+3
   1.75064E+3   1.48801E+3
  -1.61227E+3   7.52366E+2
  -4.51950E+2  -2.47831E+3
   2.96819E+2  -1.16550E+2
   7.21635E+2   8.46714E+2
  -5.40055E+2   9.32324E+2
  -2.57905E+3   2.67271E+2
   4.95973E+2  -1.11172E+3
   9.11199E-2  -3.72822E+2
  -6.24250E+2   5.42367E+2
  -1.92153E+3   2.05157E+3
   1.28249E+2  -7.86536E+2
   3.65795E+3   2.43915E+3
   7.32918E+2   3.54008E+3
  -1.94807E+3   3.48316E+3
  -2.70463E+3  -1.52126E+3
  -1.87466E+3  -1.23999E+3
   3.21378E+3  -2.42113E+3
   2.20453E+3   2.44774E+3
   3.43318E+3   7.50047E+2
   1.07535E+3  -1.92239E+3
   2.64007E+3  -1.44434E+3
   3.30611E+3   3.67040E+3
  -2.74890E+3   3.43917E+3
  -2.94019E+3  -2.92221E+2
  -9.01388E+2  -1.89554E+3
   2.45483E+3   2.36488E+3
   1.37530E+3   1.77719E+3
  -2.20714E+3   3.11221E+3
  -2.62014E+3  -3.04375E+3
  -7.24113E+2  -4.18954E+3
   8.61389E+2  -1.39907E+3
   8.90746E+2   2.01241E+3
   2.21398E+3  -7.52484E+2
  -2.20089E+2  -1.00748E+3
   1.69304E+3   5.98590E+2
  -2.40365E+3   7.97170E+2
  -3.84080E+3   8.43890E+2
  -2.43801E+3  -1.66064E+3
  -1.70422E+3  -3.31824E+3
   9.74369E+2  -2.95513E+3
   9.42085E+2  -9.64898E+2
   6.01474E+2  -1.31797E+3
   1.18602E+3  -1.77496E+3
  -1.25136E+3   1.28175E+3
  -2.72233E+3   1.58491E+3
  -6.50135E+2  -1.00182E+3
  -2.92605E+3  -3.50481E+2
   1.32919E+3  -2.38144E+3
   2.41871E+3  -6.42026E+2
   2.61622E+3  -7.02432E+2
  -7.78245E+1  -8.28981E+2
  -5.61921E+2  -1.57998E+3
  -2.24234E+2  -1.67023E+3
   7.42112E+2  -9.64357E+2
  -9.52789E+2  -1.53478E+3
   4.57628E+2   7.86837E+1
   9.99399E+2   8.29103E+2
  -2.78731E+2   1.72145E+3
  -2.29104E+2   6.87933E+2
  -8.30311E+2   1.42312E+2
   2.71495E+2  -3.14658E+3
   1.87924E+3  -6.18009E+2
   2.12406E+3   2.78442E+3
  -1.11108E+2   4.06927E+3
  -7.93240E+2   1.37659E+3
  -9.64777E+2   4.15172E+2
  -1.33691E+3   2.15883E+0
  -1.43523E+2  -1.43096E+3
   8.54694E+2   7.94194E+2
   2.00490E+3  -2.15238E+3
  -4.12890E+2  -2.42184E+3
   2.10603E+3  -1.54557E+3
  -7.24539E+2  -1.48956E+2
   7.97162E+2  -1.09295E+3
  -9.54152E+2  -1.20514E+3
  -1.10797E+3  -2.52114E+3
   1.86454E+3   1.91083E+3
   1.07073E+3   7.47569E+2
   7.26394E+2   1.48353E+3
  -7.67446E+2   9.46592E+2
  -1.77082E+3   8.15562E+2
  -3.36286E+3  -1.02008E+3
   4.84318E+1   3.31688E+2
  -9.16629E+2  -3.19387E+2
  -1.19278E+3  -7.65233E+2
  -1.45557E+3  -1.81284E+3
   9.02962E+2  -5.56006E+2
   4.64406E+2  -4.16472E+2
   2.44084E+2   6.19378E+2
  -1.77431E+3   1.09531E+3
  -2.63005E+3  -1.97684E+2
   7.17859E+2   2.29343E+2
  -4.14712E+2   3.35484E+1
  -5.22602E+2   2.18812E+3
  -2.04271E+3   2.43424E+3
  -3.46522E+3   5.76220E+2
   3.45092E+2  -1.37550E+3
   2.73136E+3   8.54634E+2
   9.20289E+2   4.32052E+1
  -1.08601E+3   1.35145E+3
  -8.89305E+2   1.41871E+3
   1.59240E+3  -1.66454E+2
  -7.70151E+2  -1.46820E+3
  -5.09133E+2   4.14227E+2
  -6.85205E+2   1.36662E+2
   5.07743E+2  -1.35907E+3
  -2.10384E+3   1.52852E+3
  -2.00558E+3   1.67262E+3
  -3.97490E+2   9.65467E+2
  -1.48185E+3   6.11263E+2
  -4.13940E+2  -7.94426E+2
  -1.76983E+3  -1.92936E+1
   8.03175E+2  -2.88476E+2
   1.09628E+3  -1.29883E+3
   2.00664E+3  -7.36429E+2
  -1.50530E+3   1.58328E+3
  -2.25800E+2   1.13808E+3
  -8.19909E+2  -9.28403E+2
  -2.16241E+3  -1.63547E+3
   9.79460E+2  -2.44870E+2
  -1.05224E+3  -1.69966E+2
  -9.36980E+2  -8.66413E+2
  -1.54368E+3  -5.33239E+2
  -7.95345E+2  -2.38647E+3
  -2.25385E+2  -1.52343E+3
  -1.08244E+3  -2.75579E+2
  -5.16362E+2  -1.18381E+3
   1.05625E+2  -1.44343E+3
   1.67720E+3   4.21273E+2
  -1.79061E+3   1.53456E+3
  -1.91419E+3   2.42790E+2
  -1.72531E+2  -4.18206E+2
  -1.85395E+3   1.23903E+3
   8.52052E+2  -1.90242E+3
   6.41590E+1   3.13560E+1
   9.82009E+2  -1.38427E+3
   1.10552E+3   7.58712E+1
  -1.89527E+3  -4.00292E+2
  -1.53175E+3   6.06418E+1
  -6.60455E+2   3.00275E+2
  -1.70555E+3   5.01747E+2
   2.57925E+2   3.75528E+1
   4.96018E+2   1.98581E+3
   2.57726E+3   2.81053E+3
   7.22528E+2   1.58291E+3
  -2.34952E+3   4.30665E+2
  -1.18444E+3   1.04642E+2
  -6.68464E+2  -6.20141E+2
  -1.71698E+3   1.77589E+3
   2.18842E+3  -1.44961E+3
   1.42758E+3  -6.38943E+2
   9.33045E+2   1.34562E+3
  -1.87652E+3  -1.13270E+3
   1.04110E+2  -9.47989E+2
   1.24192E+3  -2.33007E+3
   2.09614E+3   2.89380E+2
   1.12812E+3   2.41109E+3
   9.54286E+2   1.40001E+3
   1.27014E+2   8.60973E+2
  -5.19955E+2   5.16797E+2
  -9.41331E+2   8.91406E+2
   1.24471E+3   2.19794E+3
  -1.76000E+2  -2.51709E+2
   7.41338E+2  -2.19289E+3
   2.51038E+3  -1.30100E+3
   1.89386E+3   1.00005E+2
   2.33536E+3   1.82853E+3
  -3.46061E+2  -1.61515E+3
   2.10395E+2  -6.29390E+2
   9.06894E+2   5.31657E+1
   1.23621E+3   1.04880E+3
  -1.36404E+3   6.31825E+2
  -6.39805E+2  -4.19729E+2
   3.61338E+2   9.27863E+1
   5.55149E+2  -5.37821E+2
  -1.57700E+3   1.24839E+3
  -1.11823E+3  -4.95902E+2
   9.51746E+2  -8.44565E+2
   2.99033E+2  -1.53687E+1
   1.61857E+3   1.07173E+2
   5.82636E+1  -7.21631E+2
   4.56811E+1  -1.54774E+2
  -5.06388E+2  -1.20521E+3
   2.96440E+3   1.25531E+2
   8.82930E+2  -2.05664E+2
   9.42310E+2  -1.78636E+3
   1.03985E+3   6.65841E+2
   2.19115E+3  -1.16646E+3
   3.44345E+2   2.93714E+3
  -1.67551E+3   1.23532E+3
   3.69248E+2  -3.32518E+3
  -1.42145E+3   2.84226E+2
   1.23128E+3  -2.89053E+2
   7.91925E+2   2.25345E+3
   1.50215E+3  -1.56480E+2
   7.31540E+2   9.97875E+2
   1.49914E+3   2.02196E+3
   4.34288E+2   4.73364E+2
  -2.07610E+3  -1.47955E+3
  -1.61349E+3  -1.33915E+3
  -1.89740E+1  -1.08912E+3
   1.53207E+3  -1.79481E+3
   9.36993E+2  -3.91523E+2
   3.96759E+2   1.86520E+3
   2.93750E+2  -6.34558E+2
   1.63208E+3   1.08053E+3
  -1.51402E+3   6.91639E+2
   1.31788E+3  -8.18637E+2
  -9.23644E+2  -3.31083E+2
   1.48239E+3  -1.97586E+3
   2.34577E+3   3.71673E+2
  -2.02097E+3  -1.19922E+3
   5.84120E+2  -3.92721E+2
   1.46522E+3  -1.08997E+3
   1.44444E+3   3.95337E+2
  -1.44731E+3   1.46969E+3
  -2.46196E+3   4.71167E+2
  -1.08198E+3   2.61687E+2
   9.04982E+2  -1.33192E+3
  -2.78248E+1  -6.63159E+2
  -1.78759E+3   8.99137E+2
  -8.37951E+2   3.24417E+2
  -4.03436E+2  -9.88631E+2
  -2.38654E+2   1.80151E+3
  -9.56535E+2   3.78067E+2
  -1.31387E+3   9.11355E+2
  -1.17900E+1   9.07286E+1
  -1.93939E+3  -6.80587E+2
  -7.11740E+2   1.15629E+3
  -4.59992E+2   5.54208E+2
  -7.30274E+2  -1.81957E+2
   1.04052E+3   1.48314E+3
  -6.11169E+2   9.50614E+2
  -2.92236E+2   2.28238E+3
   4.55038E+2   5.19404E+2
   2.21024E+2   1.40757E+2
   1.83093E+3   5.01350E+2
   1.25082E+3   9.61600E+2
  -1.64441E+3   2.93700E+3
  -1.01968E+3   6.00165E+2
   8.06417E+2  -9.07820E+2
   1.02971E+3   4.32545E+2
   5.02582E+2   1.32586E+2
  -1.69967E+3   5.45823E+2
   8.94267E+2   1.71591E+2
   1.09714E+3   9.87778E+1
   6.80048E+2   1.15996E+3
   1.43958E+3   1.92145E+3
   9.30923E+2  -2.22703E+1
  -2.56143E+1   4.38998E+2
   2.26251E+2  -1.60852E+3
   7.72268E+2   1.06776E+3
  -1.63874E+2  -6.86318E+2
  -6.55666E+2   1.99774E+3
   9.54492E+2  -2.96465E+2
   1.60734E+3   2.20790E+3
  -1.66578E+3   1.88507E+3
  -1.46984E+1  -7.00675E+2
  -3.33117E+2  -1.01875E+3
  -1.43879E+2   1.06670E+3
   2.15900E+3  -6.74481E+2
   7.93835E+2   1.65920E+3
   8.78063E+2   1.94517E+2
   1.95186E+3  -1.52249E+2
   5.70492E+2   6.29031E+2
  -1.77300E+2  -7.06636E+1
   1.72299E+3  -5.08190E+2
   2.28351E+3  -2.97577E+2
   2.20725E+3   3.18670E+3
  -9.25187E+2   4.15252E+2
   3.92574E+2   1.11381E+3
   5.95320E+2  -7.83826E+2
   2.72250E+3   3.24704E+2
   1.33229E+3   1.18069E+2
  -1.17805E+3  -1.73997E+2
   6.49460E+2  -8.84582E+2
  -3.70835E+2  -3.66365E+2
   8.77525E+2  -1.58299E+3
  -1.78319E+3   9.62908E+1
   1.91162E+2   5.48714E+2
   1.72887E+3  -2.76524E+3
  -2.90774E+2   5.67971E+1
  -3.62345E+2   1.67536E+3
  -1.48676E+3   8.78560E+2
  -2.21722E+3  -6.83496E+2
   5.12343E+2  -4.36959E+2
   1.18640E+3  -3.66444E+2
   7.42209E+0   7.73501E+2
   6.51893E+2   6.61394E+2
   7.65974E+2  -1.11919E+3
  -6.27274E+2   8.35791E+2
  -2.42798E+3  -1.17726E+3
   1.17412E+3  -1.07616E+3
  -9.65876E+2   1.13395E+2
   1.13243E+3  -3.03077E+3
