 
 $NMID
 ID=''
 FMTDAT='(2E13.5)'
 TRAMP=   1.00000E+0
 VOLUME=   1.00000E+0
 $END
   3.23790E+2  -1.03146E+2
  -1.92395E+2   2.24417E+3
   4.00232E+3  -3.29475E+3
  -8.04317E+2  -3.75964E+3
  -5.43687E+3   2.26689E+2
  -2.17932E+3   3.93343E+3
   3.55636E+3   6.99076E+3
   1.82111E+3  -1.30570E+3
   7.36570E+2  -3.16124E+3
  -7.76117E+2   9.10689E+2
   3.42387E+3  -1.77471E+2
   6.75088E+3   1.62257E+3
   5.13068E+3   3.09851E+3
  -1.97887E+3  -1.06925E+2
  -7.67054E+2  -2.09829E+3
   1.14455E+3  -2.65002E+3
   5.29639E+3  -2.97398E+3
   1.86753E+3  -2.40874E+3
  -2.34783E+2  -7.96879E+2
  -4.72723E+2  -2.92319E+3
   2.81259E+3  -2.31566E+2
   9.01685E+1   3.46328E+3
  -3.42666E+3   6.49651E+2
  -4.89175E+3  -4.21620E+3
  -5.07171E+1  -1.94406E+3
  -2.48142E+2   2.22488E+3
  -1.99455E+3   2.23328E+3
  -2.40096E+3  -1.54653E+3
  -5.03768E+2  -2.77199E+3
   3.61816E+3  -6.35233E+2
   4.00126E+3   4.63213E+3
  -3.00595E+3   8.55540E+3
  -7.16198E+3  -1.40246E+2
   6.64969E+2  -1.87823E+3
  -1.84812E+3   7.43521E+2
  -3.15932E+3  -2.41150E+3
   2.08005E+3  -5.86064E+3
   2.60969E+3  -1.33939E+3
   2.90902E+3   2.93182E+3
   1.90897E+2  -6.21281E+2
  -1.23011E+3   3.00799E+3
  -5.55785E+3   2.00200E+3
  -2.74060E+3  -3.50808E+3
   3.46257E+3  -4.14942E+3
   2.86017E+3   4.36703E+2
   1.08236E+3   8.22734E+2
   1.84702E+3   1.62006E+3
   1.04299E+3   3.46077E+3
  -1.18071E+3   3.50050E+3
  -2.27140E+3   2.45280E+3
  -2.34419E+3  -5.49250E+2
  -6.77076E+2  -3.03581E+3
   5.03331E+3  -1.37176E+3
   3.38703E+3   2.62707E+3
   1.14138E+3   3.54043E+3
   1.34236E+3   3.37379E+3
  -3.23541E+3   4.98460E+3
  -5.68687E+3   1.13667E+3
  -2.37002E+3  -1.59983E+3
   3.33225E+2  -2.67670E+3
   4.84635E+3  -2.07311E+3
   4.67954E+3   2.94116E+3
   1.91207E+3   3.28575E+3
  -4.15707E+2   2.28216E+3
   9.08547E+2  -8.26714E+2
   3.96173E+3   1.69437E+3
   3.68064E+2   3.38860E+3
  -1.44326E+3   2.53222E+3
  -3.16787E+3   5.30298E+2
  -1.18229E+3  -1.28481E+2
  -2.61536E+2   1.39789E+3
  -4.28845E+3   7.59146E+2
  -2.96884E+3  -1.90557E+3
   4.09649E+2  -3.17087E+3
   9.11891E+2  -1.62870E+3
  -3.96511E+2   2.48169E+2
   9.95979E+2  -3.50850E+2
   1.98309E+3  -1.45536E+3
   1.77928E+3  -6.97411E+2
   3.21582E+2   3.35317E+3
   5.89620E+2   2.35543E+3
  -1.88298E+3   5.86895E+2
  -3.71953E+1   1.59206E+3
   9.76442E+2   2.83253E+3
  -2.69468E+3   8.10641E+2
  -3.36604E+3  -3.62431E+2
  -5.18042E+3  -4.14141E+3
   2.82211E+3  -4.46083E+3
   1.70940E+3  -2.13472E+3
  -2.71974E+3   1.53634E+3
  -3.37886E+3  -9.77718E+1
   1.86259E+3  -2.22191E+3
   1.33373E+3   1.44457E+3
  -3.83648E+3   3.26186E+2
  -3.18301E+3  -2.88235E+3
  -9.10266E+2  -4.52331E+3
   2.25729E+2  -2.22702E+3
   9.83905E+2   9.64349E+2
  -2.53157E+3   5.56476E+2
  -1.15181E+3  -1.99459E+3
   7.57466E+2  -4.82791E+3
   3.74463E+3  -2.74622E+3
   2.04701E+3   2.63646E+3
  -1.31560E+3   9.47679E+2
  -1.82218E+3  -5.03549E+2
  -3.30273E+3  -3.46159E+3
  -2.32403E+3  -2.06840E+3
  -2.73129E+3  -8.00375E+2
  -2.44730E+3  -2.44479E+3
   4.09240E+2  -3.95946E+3
   3.39767E+3  -1.82161E+3
   2.86368E+3   2.24609E+3
   1.83402E+3   3.07040E+2
   5.31972E+2   1.18121E+3
  -1.27738E+3   2.07775E+2
  -1.90980E+3   2.40792E+2
   9.97848E+0  -1.46541E+3
   2.50458E+3  -7.09423E+2
   1.21231E+3  -2.52241E+3
   1.17053E+3  -1.14999E+3
  -4.30539E+1  -1.96248E+2
  -6.08037E+2   8.31944E+2
  -2.01836E+3  -1.74713E+3
   1.15841E+3  -1.36037E+3
   1.44528E+2   2.14693E+2
  -1.96382E+2   2.88247E+2
  -8.74098E+2  -1.91316E+3
  -6.14016E+2  -1.67003E+2
  -7.47082E+1   8.77786E+2
  -3.65931E+2   6.74945E+2
  -1.17661E+3  -3.44900E+3
  -4.12580E+2  -2.79663E+3
   3.19901E+3   1.58107E+3
   1.43472E+3   6.70690E+2
   1.42683E+2   2.02423E+2
  -2.93938E+3  -2.61808E+2
  -6.96485E+2  -1.72937E+3
   2.90396E+2  -1.24450E+3
  -1.07201E+3  -1.96786E+3
   2.89111E+2  -1.81729E+3
   1.16651E+3  -1.72893E+3
   2.83405E+3  -1.54301E+3
   2.42331E+3   2.64773E+3
  -9.62600E+2   1.48166E+3
  -8.02000E+2   8.85782E+2
   1.37435E+2  -1.20629E+3
   1.71701E+3  -2.75294E+2
   1.27557E+2  -4.50898E+2
  -1.32948E+3  -1.27379E+3
  -3.94239E+3  -1.16474E+3
  -2.00296E+3  -5.99058E+2
  -1.51950E+3  -2.94994E+3
  -1.95677E+3  -3.28324E+3
   9.56598E+2  -3.43771E+3
   2.46040E+3  -1.39849E+3
   1.45312E+3   1.70130E+2
  -3.43698E+2   1.16846E+3
  -1.99503E+3   2.66311E+3
  -5.82947E+2   8.08911E+2
  -1.41117E+3   1.48448E+2
  -1.16422E+3   1.62075E+3
  -1.67361E+2   6.94671E+2
  -8.53889E+2   2.82802E+2
   7.57876E+0  -1.58937E+3
   5.64880E+1   6.67034E+2
  -1.64068E+3  -1.67713E+2
  -1.22709E+3  -3.27312E+3
   2.37351E+3  -2.54868E+3
   2.85721E+3   1.79599E+2
  -4.19996E+2   1.37930E+3
  -2.27384E+3  -7.77572E+2
  -2.08681E+3   1.17473E+3
  -6.73397E+2  -5.51262E+2
   1.08059E+3  -9.80950E+2
   1.28048E+3  -1.28197E+2
  -3.75657E+2  -2.29604E+3
  -3.44275E+2  -1.23964E+3
   1.94507E+3   2.16299E+3
  -1.10734E+3   9.52342E+2
  -8.58975E+2  -2.66798E+0
  -1.73639E+3  -3.66458E+3
   1.04915E+3  -2.26584E+3
   1.50593E+3   4.48440E+2
   2.62098E+3  -2.52115E+3
  -6.05104E+2  -8.22251E+1
   2.79408E+3  -4.13530E+1
  -1.31148E+3   3.37682E+3
  -1.15282E+2   1.13650E+2
  -1.36215E+3   3.83019E+2
   1.08994E+3  -2.99303E+3
   2.28723E+3   4.13510E+2
   1.09883E+3   1.23094E+3
  -8.76204E+2   5.03678E+2
   5.84511E+2  -9.72514E+2
   2.68045E+2   9.53482E+2
   2.18512E+3  -3.09139E+1
  -2.82597E+2  -7.74476E+1
  -1.91641E+3   8.00911E+2
  -6.89373E+2  -5.74058E+2
   2.14528E+3   3.11428E+1
  -6.72442E+2  -1.09096E+2
  -3.37924E+3   2.05277E+3
   1.96470E+2  -2.92977E+3
   2.18937E+2  -1.69345E+3
   1.08007E+3   1.79139E+3
   1.95619E+3   2.08936E+3
  -2.33172E+2   1.00830E+3
   1.28139E+3   3.91890E+2
   9.56181E+2   3.13934E+2
  -3.53088E+2   1.18361E+3
   1.71998E+2   4.46793E+2
  -2.11574E+3  -1.25255E+3
   1.99679E+3  -6.23011E+2
   2.43744E+3  -6.18877E+2
  -1.28353E+3   5.08196E+2
  -7.90278E+2  -1.62575E+2
  -3.08029E+2   9.94077E+2
   8.62493E+2  -1.55271E+2
  -6.22626E+2  -2.75389E+3
  -1.23629E+3   1.81619E+2
   4.07802E+2  -8.96098E+2
  -1.49087E+2  -1.05307E+3
   2.40851E+2   1.17334E+3
  -1.83837E+3  -1.09990E+3
   1.40365E+3  -8.86277E+1
   1.61983E+3  -1.45663E+3
  -2.66857E+2   2.00266E+3
   2.92034E+2  -1.19459E+3
  -9.67630E+1  -3.25152E+2
  -1.79117E+3  -2.67543E+2
   8.70217E+2  -1.08966E+3
  -4.78307E+2   6.67922E+2
  -2.00734E+3  -1.10145E+3
   2.60692E+3  -2.64266E+3
   1.62098E+2  -1.81653E+3
   1.73122E+3   3.19997E+3
   6.90205E+2   6.38421E+2
  -1.36104E+3  -2.70752E+2
  -5.27088E+2  -4.79090E+2
   3.44106E+2  -2.20082E+2
   9.10082E+2  -5.39748E+2
  -7.60539E+2   3.31868E+1
  -1.28134E+3   2.35538E+3
  -4.21124E+2   1.53779E+2
  -8.02703E+2  -7.08303E+2
   5.50680E+2  -7.16199E+1
   4.59962E+2  -1.53917E+1
  -4.28873E+2  -2.00859E+3
   8.96251E+2  -1.10012E+3
   1.18983E+3   1.86172E+3
  -2.11817E+2   3.31873E+3
  -1.19258E+3   4.32839E+1
  -1.95823E+3   1.14685E+3
   3.16866E+2  -9.27222E+2
  -2.41380E+2  -2.12233E+3
  -1.74418E+3   1.41626E+2
   1.93888E+3  -1.44316E+2
   1.59716E+3   1.04360E+3
  -3.70788E+2   3.07405E+3
  -1.99414E+3   3.35821E+1
  -2.06374E+3   1.31155E+2
   9.81961E+2  -2.04144E+3
  -1.19578E+2  -1.10683E+3
   1.12588E+2   8.04149E+2
   4.45962E+2   4.08112E+2
  -5.10717E+2  -2.18896E+2
   1.14879E+2  -2.56674E+2
  -1.09516E+3   7.69810E+1
  -1.41929E+3  -3.49670E+2
   1.27768E+3  -6.97624E+2
   1.66072E+2  -1.67092E+3
   2.28695E+2   8.76892E+2
   9.21315E+2   4.70217E+2
  -1.31497E+3   2.26900E+3
  -7.82582E+2   5.62489E+2
   5.18845E+2  -3.25078E+2
   2.80710E+2   2.89627E+3
  -1.45939E+3   2.81478E+2
  -6.13258E+2   1.68163E+3
   2.71582E+3  -2.68478E+2
   5.69040E+2   2.53064E+3
  -2.18058E+3   1.11521E+3
  -7.80021E+2  -5.34734E+2
   6.11747E+1   3.37779E+2
   1.30589E+3  -9.55664E+2
   1.18426E+3  -8.74225E+2
  -7.32256E+2  -8.44450E+2
   3.39701E+2   4.13514E+2
  -1.03257E+3   1.03325E+3
   2.80316E+2  -2.08555E+2
  -2.51139E+2   1.08306E+3
  -7.84130E+2   7.42055E+1
  -6.79966E+2   1.32989E+2
  -1.22210E+3   2.44017E+3
  -1.65609E+3   2.76625E+2
  -5.54452E+2  -8.72718E+2
   8.69407E+2  -2.69769E+3
   4.89739E+2  -1.78382E+3
   1.82188E+3   5.61667E+2
  -4.84613E+2   1.33588E+3
   8.85486E+2  -3.28692E+2
   7.51592E+2   2.47438E+2
   1.23512E+3  -5.72293E+2
  -9.30322E+1   1.64756E+3
  -7.63318E+2   8.83420E+0
  -4.20088E+2  -1.66469E+3
   1.36441E+3  -1.58720E+2
   1.39141E+3   2.97836E+3
  -4.17622E+2   2.39932E+3
  -8.20487E+2   1.34561E+3
  -1.07002E+3  -1.38684E+3
  -4.85640E+2  -7.64014E+2
   1.08101E+3   5.97382E+2
   1.62588E+3   1.25305E+3
  -1.98219E+2   7.97923E+2
   1.90461E+3   3.49205E+2
   3.07715E+3   2.65619E+3
  -2.05691E+3   3.36304E+2
   6.58396E+2  -1.67658E+3
   2.30478E+3  -6.46684E+2
   2.27067E+3   1.28923E+3
   2.20678E+3   3.00805E+3
   2.63003E+3   2.18765E+3
   1.37671E+3   6.82438E+2
   6.89033E+2   6.89301E+2
   1.47506E+2   4.89793E+2
   1.42696E+3   1.81385E+3
   8.13009E+2  -1.13567E+1
   2.06944E+3  -1.43866E+2
   1.80271E+3   2.64672E+2
  -7.03649E+2   2.25233E+3
  -3.40879E+2   1.71860E+3
  -7.38120E+2  -3.85951E+2
   3.16396E+2  -9.24013E+2
   6.53881E+2   1.51736E+3
  -2.11869E+3   1.51287E+3
   1.24924E+3  -9.82203E+2
   1.03982E+3  -6.25565E+2
  -7.84401E+1   1.83289E+3
  -7.76468E+2   1.34079E+3
  -8.08987E+2   8.80948E+2
   2.29565E+3   4.37823E+2
   3.06065E+2  -6.04898E+2
   1.17499E+3  -6.96515E+2
   4.11460E+2   2.72660E+3
  -5.87662E+2   1.63034E+3
   2.72251E+2  -7.90932E+2
   8.18735E+2  -2.15788E+3
  -6.45761E+2  -1.16294E+3
  -5.85815E+2   2.48871E+2
  -9.41628E+2   8.09876E+2
   1.66945E+2   7.99653E+2
   3.02794E+1   8.14479E+2
  -5.60943E+0   1.00605E+2
   1.43047E+3   7.87798E+1
   5.14766E+2  -3.18588E+2
   1.47419E+3  -2.09468E+3
   2.74869E+2   1.08934E+3
  -8.65531E+2   6.05042E+2
   2.44335E+2   7.91012E+2
   1.60585E+3   2.90528E+2
  -1.03485E+3   1.29005E+3
  -1.76690E+2  -8.42690E+2
   1.69389E+2  -5.60623E+2
   1.56166E+3   2.57323E+2
   3.48652E+2   8.83859E+2
  -4.05007E+2  -3.98083E+1
