 
 $NMID
 ID=''
 FMTDAT='(2E13.5)'
 TRAMP=   1.00000E+0
 VOLUME=   1.00000E+0
 $END
  -1.12786E+4   1.79455E+4
  -4.08811E+4   3.59153E+4
  -3.38531E+4   4.23115E+4
  -3.12826E+4   3.88411E+4
  -3.37342E+4   3.94122E+4
  -3.18843E+4   4.08089E+4
  -3.10889E+4   3.88426E+4
  -3.23369E+4   3.88729E+4
  -3.11998E+4   3.97458E+4
  -3.06186E+4   3.84804E+4
  -3.12521E+4   3.82590E+4
  -3.02307E+4   3.88749E+4
  -2.95717E+4   3.81340E+4
  -3.02663E+4   3.79681E+4
  -2.95812E+4   3.82750E+4
  -2.90486E+4   3.75825E+4
  -2.93853E+4   3.73526E+4
  -2.88029E+4   3.76007E+4
  -2.83418E+4   3.71610E+4
  -2.85949E+4   3.69024E+4
  -2.81455E+4   3.70329E+4
  -2.76364E+4   3.66772E+4
  -2.77848E+4   3.67085E+4
  -2.75275E+4   3.67311E+4
  -2.70979E+4   3.62303E+4
  -2.70909E+4   3.62732E+4
  -2.69582E+4   3.62824E+4
  -2.66983E+4   3.57928E+4
  -2.66967E+4   3.55640E+4
  -2.64550E+4   3.54993E+4
  -2.60645E+4   3.52778E+4
  -2.60153E+4   3.52500E+4
  -2.58608E+4   3.52319E+4
  -2.55904E+4   3.48802E+4
  -2.53797E+4   3.47795E+4
  -2.51305E+4   3.46619E+4
  -2.47973E+4   3.44794E+4
  -2.45787E+4   3.42539E+4
  -2.43067E+4   3.41675E+4
  -2.40408E+4   3.40519E+4
  -2.39581E+4   3.38513E+4
  -2.37973E+4   3.37167E+4
  -2.36261E+4   3.33758E+4
  -2.33505E+4   3.31348E+4
  -2.30639E+4   3.30062E+4
  -2.28302E+4   3.28293E+4
  -2.26657E+4   3.26492E+4
  -2.24268E+4   3.24732E+4
  -2.21653E+4   3.22842E+4
  -2.20084E+4   3.20642E+4
  -2.18553E+4   3.18778E+4
  -2.16076E+4   3.15808E+4
  -2.12198E+4   3.14345E+4
  -2.09590E+4   3.13238E+4
  -2.07954E+4   3.10855E+4
  -2.05511E+4   3.09179E+4
  -2.03543E+4   3.07912E+4
  -2.02324E+4   3.05629E+4
  -1.99722E+4   3.02441E+4
  -1.96940E+4   3.01173E+4
  -1.94058E+4   2.98765E+4
  -1.91288E+4   2.97764E+4
  -1.89948E+4   2.96501E+4
  -1.87385E+4   2.94321E+4
  -1.85117E+4   2.92332E+4
  -1.83103E+4   2.90601E+4
  -1.80811E+4   2.89871E+4
  -1.78431E+4   2.87636E+4
  -1.76238E+4   2.85881E+4
  -1.74592E+4   2.83350E+4
  -1.72368E+4   2.82236E+4
  -1.69721E+4   2.80268E+4
  -1.67911E+4   2.78736E+4
  -1.65963E+4   2.77164E+4
  -1.63581E+4   2.75355E+4
  -1.61113E+4   2.74593E+4
  -1.59216E+4   2.72055E+4
  -1.57352E+4   2.71049E+4
  -1.55462E+4   2.69912E+4
  -1.53283E+4   2.68427E+4
  -1.51307E+4   2.68037E+4
  -1.50244E+4   2.65620E+4
  -1.47854E+4   2.64788E+4
  -1.46201E+4   2.62688E+4
  -1.45083E+4   2.61229E+4
  -1.43508E+4   2.58444E+4
  -1.42990E+4   2.57495E+4
  -1.41360E+4   2.55552E+4
  -1.39225E+4   2.54658E+4
  -1.37545E+4   2.53678E+4
  -1.35998E+4   2.52027E+4
  -1.34600E+4   2.50479E+4
  -1.33206E+4   2.49007E+4
  -1.32026E+4   2.48274E+4
  -1.30354E+4   2.45584E+4
  -1.28608E+4   2.44461E+4
  -1.26621E+4   2.43191E+4
  -1.25693E+4   2.42718E+4
  -1.24634E+4   2.41293E+4
  -1.23567E+4   2.39788E+4
  -1.21982E+4   2.36959E+4
  -1.20420E+4   2.36649E+4
  -1.19328E+4   2.34894E+4
  -1.18271E+4   2.34358E+4
  -1.17141E+4   2.32615E+4
  -1.16587E+4   2.30895E+4
  -1.15239E+4   2.29188E+4
  -1.13881E+4   2.28136E+4
  -1.12940E+4   2.26446E+4
  -1.11447E+4   2.25217E+4
  -1.10777E+4   2.23070E+4
  -1.09022E+4   2.21357E+4
  -1.07832E+4   2.20169E+4
  -1.06511E+4   2.19407E+4
  -1.06325E+4   2.17767E+4
  -1.05152E+4   2.15833E+4
  -1.04058E+4   2.14445E+4
  -1.02784E+4   2.12822E+4
  -1.01676E+4   2.11465E+4
  -1.01211E+4   2.10265E+4
  -9.99365E+3   2.08704E+4
  -9.91436E+3   2.07321E+4
  -9.83372E+3   2.05178E+4
  -9.65851E+3   2.03599E+4
  -9.59369E+3   2.01755E+4
  -9.47379E+3   2.00535E+4
  -9.36927E+3   1.99309E+4
  -9.24520E+3   1.97753E+4
  -9.12171E+3   1.96165E+4
  -9.00045E+3   1.94710E+4
  -8.93212E+3   1.93254E+4
  -8.78838E+3   1.91707E+4
  -8.65462E+3   1.90286E+4
  -8.50289E+3   1.89215E+4
  -8.43334E+3   1.87196E+4
  -8.35063E+3   1.85499E+4
  -8.18483E+3   1.84447E+4
  -8.11618E+3   1.83091E+4
  -7.95379E+3   1.80659E+4
  -7.81198E+3   1.79839E+4
  -7.71410E+3   1.78059E+4
  -7.62467E+3   1.76900E+4
  -7.53541E+3   1.75841E+4
  -7.35155E+3   1.74817E+4
  -7.26399E+3   1.72825E+4
  -7.15612E+3   1.71298E+4
  -7.01327E+3   1.69830E+4
  -6.90260E+3   1.67713E+4
  -6.77687E+3   1.66303E+4
  -6.67403E+3   1.65331E+4
  -6.57119E+3   1.63281E+4
  -6.46129E+3   1.61844E+4
  -6.26297E+3   1.60586E+4
  -6.17899E+3   1.58568E+4
  -5.98857E+3   1.56967E+4
  -5.91815E+3   1.56913E+4
  -5.75084E+3   1.55800E+4
  -5.68376E+3   1.53152E+4
  -5.53075E+3   1.52558E+4
  -5.41699E+3   1.51364E+4
  -5.29657E+3   1.49014E+4
  -5.14198E+3   1.47777E+4
  -5.11039E+3   1.46420E+4
  -4.99522E+3   1.45342E+4
  -4.79794E+3   1.44010E+4
  -4.73839E+3   1.42923E+4
  -4.66820E+3   1.41405E+4
  -4.43554E+3   1.39616E+4
  -4.38249E+3   1.39057E+4
  -4.27351E+3   1.38087E+4
  -4.12217E+3   1.37135E+4
  -4.04966E+3   1.35193E+4
  -3.92811E+3   1.34801E+4
  -3.84378E+3   1.33187E+4
  -3.76118E+3   1.31549E+4
  -3.60179E+3   1.30563E+4
  -3.52207E+3   1.29065E+4
  -3.50380E+3   1.28170E+4
  -3.35954E+3   1.26719E+4
  -3.29562E+3   1.25953E+4
  -3.20623E+3   1.25601E+4
  -3.16533E+3   1.24083E+4
  -3.06490E+3   1.22367E+4
  -3.00086E+3   1.20689E+4
  -2.88181E+3   1.21084E+4
  -2.84646E+3   1.18814E+4
  -2.78510E+3   1.17815E+4
  -2.66776E+3   1.16855E+4
  -2.63563E+3   1.15494E+4
  -2.56219E+3   1.14725E+4
  -2.48458E+3   1.13084E+4
  -2.44518E+3   1.12076E+4
  -2.35404E+3   1.11819E+4
  -2.24451E+3   1.09731E+4
  -2.18046E+3   1.09076E+4
  -2.12592E+3   1.07463E+4
  -2.09161E+3   1.07212E+4
  -2.07638E+3   1.05160E+4
  -1.93783E+3   1.04807E+4
  -1.86828E+3   1.03333E+4
  -1.89339E+3   1.02762E+4
  -1.83651E+3   1.01486E+4
  -1.78972E+3   1.00884E+4
  -1.70980E+3   9.88107E+3
  -1.65518E+3   9.79064E+3
  -1.59660E+3   9.79619E+3
  -1.60970E+3   9.58911E+3
  -1.47165E+3   9.47324E+3
  -1.45165E+3   9.38142E+3
  -1.33845E+3   9.35988E+3
  -1.33531E+3   9.21014E+3
  -1.28736E+3   9.06793E+3
  -1.26229E+3   8.99579E+3
  -1.18862E+3   8.92581E+3
  -1.06933E+3   8.86121E+3
  -1.15456E+3   8.75526E+3
  -9.91955E+2   8.59161E+3
  -9.64882E+2   8.49355E+3
  -9.29285E+2   8.40376E+3
  -9.18129E+2   8.30743E+3
  -8.89053E+2   8.29039E+3
  -8.35215E+2   8.19046E+3
  -9.04054E+2   8.07782E+3
  -7.71842E+2   7.96998E+3
  -7.57476E+2   7.89676E+3
  -7.14008E+2   7.75660E+3
  -6.53254E+2   7.66453E+3
  -6.23763E+2   7.61841E+3
  -7.02796E+2   7.49264E+3
  -5.86848E+2   7.46036E+3
  -6.38527E+2   7.33374E+3
  -5.09039E+2   7.25442E+3
  -6.05102E+2   7.16548E+3
  -5.59697E+2   7.01611E+3
  -4.93012E+2   6.97270E+3
  -4.31541E+2   6.96002E+3
  -4.76700E+2   6.85118E+3
  -3.90363E+2   6.74096E+3
  -3.88474E+2   6.70458E+3
  -3.67679E+2   6.61709E+3
  -2.65078E+2   6.48590E+3
  -3.00150E+2   6.45157E+3
  -2.80931E+2   6.31452E+3
  -3.01710E+2   6.28929E+3
  -2.61421E+2   6.16132E+3
  -1.82821E+2   6.12581E+3
  -1.81161E+2   6.07314E+3
  -1.65919E+2   5.93573E+3
  -1.03697E+2   5.87250E+3
  -4.45946E+1   5.77876E+3
  -6.69616E+1   5.71150E+3
  -7.93273E+1   5.63414E+3
  -2.20353E+1   5.53459E+3
  -3.50402E+1   5.52057E+3
   5.83453E+1   5.37068E+3
   5.15613E+1   5.30599E+3
   8.56907E+1   5.22010E+3
   9.31258E+1   5.17921E+3
   8.21937E+1   5.16384E+3
   2.63971E+0   5.02811E+3
   1.40153E+2   4.95597E+3
   1.37071E+2   4.94659E+3
   2.07989E+2   4.91060E+3
   1.87576E+2   4.84644E+3
   1.34824E+2   4.74176E+3
   2.05870E+2   4.70170E+3
   2.00277E+2   4.60828E+3
   2.63166E+2   4.56969E+3
   3.11597E+2   4.42411E+3
   1.96247E+2   4.42609E+3
   3.24521E+2   4.38301E+3
   3.08257E+2   4.36557E+3
   2.97701E+2   4.25325E+3
   3.37638E+2   4.22547E+3
   2.79448E+2   4.19430E+3
   3.56074E+2   4.02095E+3
   4.05529E+2   3.98879E+3
   3.72374E+2   3.93020E+3
   4.07702E+2   3.91769E+3
   3.96628E+2   3.79378E+3
   4.21304E+2   3.79573E+3
   4.30707E+2   3.75591E+3
   4.19974E+2   3.70265E+3
   3.94975E+2   3.65854E+3
   3.85873E+2   3.58184E+3
   4.52922E+2   3.51768E+3
   4.61514E+2   3.43570E+3
   4.31806E+2   3.47249E+3
   5.00938E+2   3.36617E+3
   3.73324E+2   3.31324E+3
   5.17082E+2   3.30695E+3
   4.69026E+2   3.22735E+3
   5.15237E+2   3.17131E+3
   4.63153E+2   3.17834E+3
   5.37437E+2   3.08727E+3
   4.82257E+2   3.04490E+3
   4.87424E+2   2.97048E+3
   5.39585E+2   2.99823E+3
   4.83706E+2   2.86053E+3
   5.65370E+2   2.86156E+3
   4.89431E+2   2.86691E+3
   4.94863E+2   2.69316E+3
   5.70397E+2   2.69774E+3
   5.44968E+2   2.66208E+3
   5.51476E+2   2.60877E+3
   5.33013E+2   2.53432E+3
   5.22156E+2   2.52069E+3
   5.74717E+2   2.43966E+3
   5.84698E+2   2.46289E+3
   6.07870E+2   2.38356E+3
   5.33201E+2   2.35535E+3
   5.46229E+2   2.34628E+3
   5.81202E+2   2.23796E+3
   4.86034E+2   2.22539E+3
   5.92547E+2   2.14964E+3
   5.62859E+2   2.17181E+3
   5.57649E+2   2.02684E+3
   5.82609E+2   2.05834E+3
   5.06322E+2   1.96404E+3
   5.53283E+2   2.02004E+3
   5.34616E+2   1.96110E+3
   5.51092E+2   1.94508E+3
   5.83921E+2   1.86024E+3
   5.90887E+2   1.77628E+3
   5.91475E+2   1.78334E+3
   5.90696E+2   1.76461E+3
   5.18854E+2   1.70857E+3
   6.21849E+2   1.73039E+3
   5.35656E+2   1.70825E+3
   5.97259E+2   1.66739E+3
   5.95949E+2   1.55549E+3
   6.25066E+2   1.69136E+3
   5.40665E+2   1.57293E+3
   5.62664E+2   1.53580E+3
   6.14101E+2   1.43366E+3
   5.49906E+2   1.49312E+3
   5.46382E+2   1.42994E+3
   6.37440E+2   1.38812E+3
   6.32567E+2   1.37046E+3
   5.79829E+2   1.32629E+3
   6.23764E+2   1.33953E+3
   5.85360E+2   1.25986E+3
   5.88190E+2   1.28904E+3
   5.99841E+2   1.19109E+3
   5.67518E+2   1.16982E+3
   6.20985E+2   1.10284E+3
   6.38828E+2   1.13735E+3
   6.41304E+2   1.11141E+3
   5.55545E+2   1.12863E+3
   5.89562E+2   1.02943E+3
   5.76021E+2   1.04419E+3
   5.99288E+2   1.00208E+3
   5.96664E+2   1.04608E+3
   6.19472E+2   9.96080E+2
   5.95578E+2   9.38602E+2
   6.16199E+2   9.02494E+2
   6.28770E+2   8.61922E+2
   6.02904E+2   8.96583E+2
   6.01116E+2   8.32681E+2
   5.64075E+2   8.33996E+2
   5.72821E+2   7.70728E+2
   5.75624E+2   7.64878E+2
   5.65050E+2   7.38744E+2
   5.72417E+2   7.67206E+2
   5.55886E+2   6.93049E+2
   5.52539E+2   6.63530E+2
   5.88596E+2   5.86239E+2
