 
 $NMID
 ID=''
 FMTDAT='(2E13.5)'
 TRAMP=   1.00000E+0
 VOLUME=   1.00000E+0
 $END
  -1.30188E+4   1.66455E+4
  -4.42956E+4   3.15377E+4
  -3.79429E+4   3.86976E+4
  -3.48683E+4   3.57243E+4
  -3.71541E+4   3.61847E+4
  -3.55291E+4   3.77893E+4
  -3.44751E+4   3.58302E+4
  -3.56304E+4   3.55328E+4
  -3.45912E+4   3.64174E+4
  -3.39533E+4   3.52244E+4
  -3.45920E+4   3.47446E+4
  -3.37854E+4   3.54209E+4
  -3.31028E+4   3.47734E+4
  -3.37427E+4   3.44266E+4
  -3.31648E+4   3.47132E+4
  -3.25669E+4   3.40895E+4
  -3.27575E+4   3.39636E+4
  -3.22942E+4   3.42274E+4
  -3.17470E+4   3.37905E+4
  -3.19744E+4   3.36381E+4
  -3.14359E+4   3.36278E+4
  -3.08914E+4   3.34637E+4
  -3.10221E+4   3.33537E+4
  -3.05624E+4   3.33987E+4
  -3.01650E+4   3.30051E+4
  -3.00875E+4   3.29455E+4
  -2.98202E+4   3.29569E+4
  -2.94326E+4   3.25560E+4
  -2.94728E+4   3.22666E+4
  -2.91182E+4   3.22458E+4
  -2.87417E+4   3.20035E+4
  -2.86332E+4   3.19883E+4
  -2.85497E+4   3.18980E+4
  -2.82031E+4   3.16293E+4
  -2.81087E+4   3.15347E+4
  -2.78573E+4   3.14896E+4
  -2.75484E+4   3.12978E+4
  -2.73981E+4   3.11871E+4
  -2.71352E+4   3.11769E+4
  -2.68649E+4   3.10959E+4
  -2.67263E+4   3.09309E+4
  -2.66511E+4   3.08167E+4
  -2.65046E+4   3.04996E+4
  -2.63564E+4   3.04327E+4
  -2.60832E+4   3.04297E+4
  -2.59950E+4   3.01366E+4
  -2.58443E+4   3.00103E+4
  -2.56852E+4   2.98817E+4
  -2.55522E+4   2.97261E+4
  -2.54209E+4   2.95466E+4
  -2.53534E+4   2.93425E+4
  -2.51751E+4   2.91380E+4
  -2.49674E+4   2.90148E+4
  -2.47564E+4   2.89043E+4
  -2.46118E+4   2.87222E+4
  -2.45179E+4   2.85053E+4
  -2.43938E+4   2.83008E+4
  -2.42555E+4   2.81373E+4
  -2.40220E+4   2.77662E+4
  -2.37936E+4   2.75493E+4
  -2.35311E+4   2.74273E+4
  -2.33479E+4   2.71970E+4
  -2.31480E+4   2.70187E+4
  -2.29110E+4   2.68615E+4
  -2.28110E+4   2.65450E+4
  -2.25083E+4   2.63319E+4
  -2.22437E+4   2.62507E+4
  -2.20494E+4   2.59588E+4
  -2.18796E+4   2.57756E+4
  -2.15793E+4   2.55511E+4
  -2.13576E+4   2.54013E+4
  -2.10858E+4   2.51965E+4
  -2.08089E+4   2.49883E+4
  -2.05443E+4   2.47695E+4
  -2.02695E+4   2.45994E+4
  -1.99691E+4   2.45258E+4
  -1.96847E+4   2.44013E+4
  -1.95163E+4   2.41739E+4
  -1.91395E+4   2.39889E+4
  -1.89056E+4   2.38603E+4
  -1.86821E+4   2.37111E+4
  -1.83603E+4   2.35294E+4
  -1.80594E+4   2.33551E+4
  -1.78957E+4   2.32592E+4
  -1.76002E+4   2.31456E+4
  -1.73888E+4   2.29382E+4
  -1.70976E+4   2.28751E+4
  -1.68247E+4   2.27175E+4
  -1.65395E+4   2.26398E+4
  -1.62948E+4   2.25464E+4
  -1.60520E+4   2.23690E+4
  -1.57300E+4   2.22925E+4
  -1.55025E+4   2.21793E+4
  -1.52524E+4   2.21649E+4
  -1.50771E+4   2.20200E+4
  -1.47883E+4   2.18855E+4
  -1.45040E+4   2.18290E+4
  -1.42647E+4   2.17772E+4
  -1.41180E+4   2.17093E+4
  -1.39413E+4   2.14692E+4
  -1.37267E+4   2.13888E+4
  -1.34629E+4   2.12719E+4
  -1.32591E+4   2.12701E+4
  -1.30428E+4   2.12282E+4
  -1.28848E+4   2.10383E+4
  -1.26391E+4   2.09118E+4
  -1.24956E+4   2.08376E+4
  -1.23101E+4   2.07673E+4
  -1.21074E+4   2.06179E+4
  -1.18895E+4   2.05065E+4
  -1.16943E+4   2.03738E+4
  -1.14449E+4   2.03266E+4
  -1.13078E+4   2.02554E+4
  -1.12176E+4   2.01541E+4
  -1.10511E+4   2.00121E+4
  -1.09447E+4   2.00049E+4
  -1.07789E+4   1.98215E+4
  -1.05774E+4   1.97540E+4
  -1.05047E+4   1.96425E+4
  -1.03599E+4   1.95715E+4
  -1.02454E+4   1.94655E+4
  -1.00535E+4   1.93747E+4
  -1.00059E+4   1.92235E+4
  -9.85812E+3   1.90214E+4
  -9.74359E+3   1.90066E+4
  -9.68771E+3   1.88123E+4
  -9.52098E+3   1.87053E+4
  -9.47596E+3   1.86114E+4
  -9.38649E+3   1.84857E+4
  -9.26134E+3   1.83862E+4
  -9.15444E+3   1.82107E+4
  -9.02653E+3   1.81697E+4
  -8.92311E+3   1.80359E+4
  -8.82588E+3   1.79410E+4
  -8.79560E+3   1.78553E+4
  -8.75124E+3   1.77214E+4
  -8.63078E+3   1.76050E+4
  -8.51652E+3   1.74308E+4
  -8.43024E+3   1.73060E+4
  -8.38457E+3   1.71667E+4
  -8.27088E+3   1.71612E+4
  -8.17472E+3   1.70087E+4
  -8.10570E+3   1.68562E+4
  -8.03444E+3   1.67507E+4
  -8.01749E+3   1.66807E+4
  -7.95917E+3   1.65144E+4
  -7.92180E+3   1.64271E+4
  -7.83797E+3   1.62639E+4
  -7.77766E+3   1.61915E+4
  -7.71977E+3   1.60554E+4
  -7.64678E+3   1.60220E+4
  -7.64353E+3   1.58481E+4
  -7.53041E+3   1.56745E+4
  -7.43688E+3   1.55249E+4
  -7.42012E+3   1.54543E+4
  -7.37007E+3   1.53510E+4
  -7.27857E+3   1.51753E+4
  -7.22672E+3   1.51159E+4
  -7.21570E+3   1.49644E+4
  -7.20367E+3   1.48169E+4
  -7.16403E+3   1.47220E+4
  -7.12448E+3   1.46513E+4
  -7.07126E+3   1.45206E+4
  -7.05293E+3   1.43425E+4
  -6.94973E+3   1.42849E+4
  -6.93590E+3   1.41009E+4
  -6.85742E+3   1.40186E+4
  -6.79979E+3   1.38594E+4
  -6.69867E+3   1.37967E+4
  -6.67713E+3   1.37186E+4
  -6.62796E+3   1.36052E+4
  -6.68336E+3   1.34650E+4
  -6.59699E+3   1.33394E+4
  -6.53004E+3   1.32337E+4
  -6.47655E+3   1.31671E+4
  -6.35188E+3   1.29915E+4
  -6.30512E+3   1.28497E+4
  -6.24252E+3   1.27418E+4
  -6.20827E+3   1.26568E+4
  -6.25170E+3   1.25507E+4
  -6.19359E+3   1.24702E+4
  -6.03395E+3   1.23045E+4
  -6.01439E+3   1.21794E+4
  -5.98450E+3   1.21231E+4
  -5.94443E+3   1.19962E+4
  -5.84077E+3   1.19273E+4
  -5.77322E+3   1.18224E+4
  -5.79998E+3   1.17024E+4
  -5.74565E+3   1.15921E+4
  -5.65852E+3   1.14643E+4
  -5.57695E+3   1.13892E+4
  -5.58494E+3   1.12876E+4
  -5.52012E+3   1.12418E+4
  -5.51692E+3   1.11807E+4
  -5.33833E+3   1.09986E+4
  -5.28282E+3   1.09418E+4
  -5.29802E+3   1.08723E+4
  -5.22299E+3   1.07585E+4
  -5.15641E+3   1.06758E+4
  -5.13431E+3   1.06143E+4
  -5.13145E+3   1.05189E+4
  -5.07892E+3   1.04246E+4
  -5.02486E+3   1.02936E+4
  -4.91602E+3   1.02183E+4
  -5.00340E+3   1.00880E+4
  -4.85898E+3   1.00908E+4
  -4.85305E+3   1.00208E+4
  -4.80200E+3   9.94189E+3
  -4.75590E+3   9.87583E+3
  -4.70464E+3   9.75706E+3
  -4.68018E+3   9.72019E+3
  -4.59468E+3   9.56217E+3
  -4.56608E+3   9.46669E+3
  -4.47403E+3   9.38377E+3
  -4.51731E+3   9.38763E+3
  -4.42620E+3   9.22541E+3
  -4.38456E+3   9.16684E+3
  -4.35979E+3   9.11438E+3
  -4.28936E+3   9.05014E+3
  -4.24891E+3   9.00445E+3
  -4.19070E+3   8.90443E+3
  -4.16936E+3   8.82835E+3
  -4.08948E+3   8.70761E+3
  -4.06067E+3   8.70071E+3
  -4.09054E+3   8.55511E+3
  -4.01779E+3   8.51359E+3
  -3.99559E+3   8.48468E+3
  -3.86501E+3   8.35345E+3
  -3.90792E+3   8.29382E+3
  -3.81339E+3   8.22886E+3
  -3.81221E+3   8.19569E+3
  -3.76163E+3   8.12865E+3
  -3.73672E+3   8.07538E+3
  -3.68328E+3   7.92168E+3
  -3.61613E+3   7.89751E+3
  -3.57652E+3   7.79805E+3
  -3.50783E+3   7.76520E+3
  -3.53138E+3   7.71603E+3
  -3.51848E+3   7.67918E+3
  -3.44598E+3   7.63774E+3
  -3.40504E+3   7.54101E+3
  -3.35370E+3   7.55003E+3
  -3.35882E+3   7.43147E+3
  -3.29319E+3   7.34528E+3
  -3.26157E+3   7.32245E+3
  -3.26993E+3   7.36856E+3
  -3.25133E+3   7.25412E+3
  -3.17046E+3   7.15523E+3
  -3.09126E+3   7.10922E+3
  -3.06120E+3   7.08612E+3
  -3.07181E+3   7.04019E+3
  -3.06255E+3   6.94645E+3
  -3.04114E+3   6.95167E+3
  -2.95980E+3   6.88267E+3
  -2.92588E+3   6.85132E+3
  -2.88761E+3   6.76077E+3
  -2.86345E+3   6.74914E+3
  -2.84368E+3   6.67873E+3
  -2.82024E+3   6.60372E+3
  -2.81314E+3   6.55864E+3
  -2.75193E+3   6.54215E+3
  -2.73611E+3   6.53695E+3
  -2.65181E+3   6.44311E+3
  -2.66647E+3   6.37109E+3
  -2.64380E+3   6.30465E+3
  -2.62650E+3   6.33012E+3
  -2.55436E+3   6.16103E+3
  -2.56477E+3   6.20259E+3
  -2.55967E+3   6.07410E+3
  -2.48583E+3   6.16390E+3
  -2.47122E+3   6.03580E+3
  -2.47573E+3   5.94872E+3
  -2.36292E+3   5.98955E+3
  -2.34560E+3   5.91311E+3
  -2.33580E+3   5.90555E+3
  -2.23863E+3   5.84264E+3
  -2.21968E+3   5.75529E+3
  -2.22107E+3   5.72821E+3
  -2.14957E+3   5.78100E+3
  -2.05879E+3   5.63457E+3
  -2.10515E+3   5.67395E+3
  -2.03458E+3   5.56607E+3
  -2.06539E+3   5.56079E+3
  -2.02247E+3   5.56484E+3
  -1.92903E+3   5.52861E+3
  -1.99720E+3   5.41696E+3
  -1.92716E+3   5.32970E+3
  -1.92837E+3   5.32607E+3
  -1.88272E+3   5.28759E+3
  -1.81788E+3   5.25323E+3
  -1.77000E+3   5.26453E+3
  -1.76149E+3   5.17577E+3
  -1.76412E+3   5.13645E+3
  -1.75552E+3   5.16254E+3
  -1.70834E+3   5.13182E+3
  -1.65267E+3   5.12130E+3
  -1.69292E+3   5.07922E+3
  -1.62052E+3   4.92698E+3
  -1.58047E+3   4.94390E+3
  -1.61994E+3   4.98217E+3
  -1.54726E+3   4.91082E+3
  -1.58145E+3   4.87594E+3
  -1.49590E+3   4.84676E+3
  -1.43504E+3   4.84462E+3
  -1.43442E+3   4.80277E+3
  -1.42871E+3   4.73122E+3
  -1.40991E+3   4.70687E+3
  -1.39344E+3   4.73867E+3
  -1.30515E+3   4.68356E+3
  -1.35780E+3   4.62796E+3
  -1.27846E+3   4.56686E+3
  -1.33842E+3   4.55091E+3
  -1.29316E+3   4.58675E+3
  -1.13337E+3   4.49567E+3
  -1.20644E+3   4.48024E+3
  -1.18952E+3   4.49197E+3
  -1.14690E+3   4.47386E+3
  -1.14154E+3   4.40077E+3
  -1.13161E+3   4.37325E+3
  -1.13450E+3   4.36639E+3
  -1.07212E+3   4.31128E+3
  -9.97237E+2   4.28617E+3
  -1.04009E+3   4.32485E+3
  -1.03287E+3   4.27100E+3
  -9.51981E+2   4.25716E+3
  -9.22584E+2   4.26427E+3
  -9.99207E+2   4.19258E+3
  -9.49117E+2   4.20432E+3
  -8.50311E+2   4.12659E+3
  -8.37416E+2   4.11990E+3
  -8.73124E+2   4.09261E+3
  -8.00474E+2   4.05016E+3
  -8.45944E+2   3.99213E+3
  -7.83097E+2   4.01285E+3
  -7.86810E+2   3.99938E+3
  -7.57342E+2   3.96295E+3
  -7.97473E+2   3.90358E+3
  -7.50461E+2   3.94989E+3
  -7.00263E+2   3.83574E+3
  -6.05766E+2   3.90048E+3
  -6.14373E+2   3.82990E+3
  -6.05741E+2   3.79980E+3
  -6.33464E+2   3.81487E+3
  -6.32367E+2   3.77655E+3
  -6.07811E+2   3.70645E+3
  -5.30074E+2   3.66375E+3
  -5.90739E+2   3.73447E+3
  -5.37368E+2   3.65957E+3
  -4.76165E+2   3.59812E+3
  -5.09621E+2   3.66213E+3
  -4.42266E+2   3.61002E+3
  -4.34812E+2   3.55118E+3
  -4.68166E+2   3.51876E+3
  -4.47541E+2   3.47916E+3
  -4.40312E+2   3.53435E+3
  -4.10607E+2   3.46855E+3
  -3.43232E+2   3.46329E+3
  -4.28537E+2   3.46524E+3
  -3.10269E+2   3.41050E+3
  -3.46063E+2   3.42176E+3
  -3.49548E+2   3.47586E+3
  -3.47940E+2   3.34880E+3
  -1.92323E+2   3.35633E+3
  -2.85530E+2   3.36957E+3
  -2.06668E+2   3.23606E+3
  -1.48816E+2   3.24928E+3
  -1.57968E+2   3.27376E+3
