 LCModel (Version 6.3-1N) Copyright: S.W. Provencher.          Ref.: Magn. Reson. Med. 30:672-679 (1993).                
 Slice_N1@14_21  02-Jun-2023 14:37:26
 27 lines in following concentration table = NCONC+1
    Conc.  %SD /Cr+PCr  Metabolite                                         
 1.68E-06  22% 1.9E-04 Mac                                                 
 4.30E-02  20%   4.985 Cr                                                  
 2.60E-02  34%   3.015 PCr                                                 
 7.53E-02  12%   8.728 Ins                                                 
 9.42E-02   7%  10.920 NAA                                                 
 6.67E-02  12%   7.733 Tau                                                 
 9.37E-03  20%   1.086 PCho                                                
    0.000 999%   0.000 GPC                                                 
 7.90E-02  13%   9.161 Glu                                                 
 2.26E-02  33%   2.619 Gln                                                 
    0.000 999%   0.000 Ala                                                 
 7.46E-03 177%   0.866 Asc                                                 
 5.22E-03 144%   0.606 Asp                                                 
 5.93E-03  68%   0.688 GABA                                                
 4.55E-03 107%   0.527 Glc                                                 
 1.04E-02  39%   1.209 GSH                                                 
    0.000 999%   0.000 Lac                                                 
 9.03E-03  57%   1.047 NAAG                                                
    0.000 999%   0.000 PE                                                  
 9.37E-03  20%   1.086 GPC+PCho                                            
    0.103   8%  11.967 NAA+NAAG                                            
    0.102  11%  11.780 Glu+Gln                                             
 6.90E-02   9%   8.000 Cr+PCr                                              
    0.103   8%  11.967 NAA+NAAG                                            
 6.90E-02   9%   8.000 Cr+PCr                                              
    0.102  11%  11.780 Glu+Gln                                             
   6 lines in following misc. output table
  FWHM = 0.029 ppm    S/N =   4                                            
  Data shift = 0.012 ppm                                                   
  Ph: -23 deg     -10.5 deg/ppm                                            
  alphaB,S = 3.1E+01,   1.7E+01                                            
   18 spline knots.   Ns = 5(1)                                            
   2 inflections.     1 extrema                                            
  654 points on ppm-axis = NY
      4.000000     3.994181     3.988363     3.982544     3.976726     3.970907     3.965088     3.959270     3.953451     3.947633
      3.941814     3.935995     3.930177     3.924358     3.918540     3.912721     3.906902     3.901084     3.895265     3.889446
      3.883628     3.877809     3.871991     3.866172     3.860353     3.854535     3.848716     3.842898     3.837079     3.831260
      3.825442     3.819623     3.813805     3.807986     3.802167     3.796349     3.790530     3.784712     3.778893     3.773074
      3.767256     3.761437     3.755619     3.749800     3.743981     3.738163     3.732344     3.726526     3.720707     3.714888
      3.709070     3.703251     3.697433     3.691614     3.685795     3.679977     3.674158     3.668339     3.662521     3.656702
      3.650884     3.645065     3.639246     3.633428     3.627609     3.621791     3.615972     3.610153     3.604335     3.598516
      3.592698     3.586879     3.581060     3.575242     3.569423     3.563605     3.557786     3.551967     3.546149     3.540330
      3.534512     3.528693     3.522874     3.517056     3.511237     3.505419     3.499600     3.493781     3.487963     3.482144
      3.476326     3.470507     3.464688     3.458870     3.453051     3.447232     3.441414     3.435595     3.429777     3.423958
      3.418139     3.412321     3.406502     3.400684     3.394865     3.389046     3.383228     3.377409     3.371591     3.365772
      3.359953     3.354135     3.348316     3.342498     3.336679     3.330860     3.325042     3.319223     3.313405     3.307586
      3.301767     3.295949     3.290130     3.284312     3.278493     3.272674     3.266856     3.261037     3.255219     3.249400
      3.243581     3.237763     3.231944     3.226125     3.220307     3.214488     3.208670     3.202851     3.197032     3.191214
      3.185395     3.179577     3.173758     3.167939     3.162121     3.156302     3.150484     3.144665     3.138846     3.133028
      3.127209     3.121391     3.115572     3.109753     3.103935     3.098116     3.092298     3.086479     3.080660     3.074842
      3.069023     3.063205     3.057386     3.051567     3.045749     3.039930     3.034111     3.028293     3.022474     3.016656
      3.010837     3.005018     2.999200     2.993381     2.987563     2.981744     2.975925     2.970107     2.964288     2.958470
      2.952651     2.946832     2.941014     2.935195     2.929377     2.923558     2.917739     2.911921     2.906102     2.900284
      2.894465     2.888646     2.882828     2.877009     2.871191     2.865372     2.859553     2.853735     2.847916     2.842098
      2.836279     2.830460     2.824642     2.818823     2.813004     2.807186     2.801367     2.795549     2.789730     2.783911
      2.778093     2.772274     2.766456     2.760637     2.754818     2.749000     2.743181     2.737363     2.731544     2.725725
      2.719907     2.714088     2.708270     2.702451     2.696632     2.690814     2.684995     2.679177     2.673358     2.667539
      2.661721     2.655902     2.650084     2.644265     2.638446     2.632628     2.626809     2.620991     2.615172     2.609353
      2.603535     2.597716     2.591897     2.586079     2.580260     2.574442     2.568623     2.562804     2.556986     2.551167
      2.545349     2.539530     2.533711     2.527893     2.522074     2.516256     2.510437     2.504618     2.498800     2.492981
      2.487163     2.481344     2.475525     2.469707     2.463888     2.458070     2.452251     2.446432     2.440614     2.434795
      2.428977     2.423158     2.417339     2.411521     2.405702     2.399884     2.394065     2.388246     2.382428     2.376609
      2.370790     2.364972     2.359153     2.353335     2.347516     2.341697     2.335879     2.330060     2.324242     2.318423
      2.312604     2.306786     2.300967     2.295149     2.289330     2.283511     2.277693     2.271874     2.266056     2.260237
      2.254418     2.248600     2.242781     2.236963     2.231144     2.225325     2.219507     2.213688     2.207870     2.202051
      2.196232     2.190414     2.184595     2.178777     2.172958     2.167139     2.161321     2.155502     2.149683     2.143865
      2.138046     2.132228     2.126409     2.120590     2.114772     2.108953     2.103135     2.097316     2.091497     2.085679
      2.079860     2.074042     2.068223     2.062404     2.056586     2.050767     2.044949     2.039130     2.033311     2.027493
      2.021674     2.015856     2.010037     2.004218     1.998400     1.992581     1.986763     1.980944     1.975126     1.969307
      1.963489     1.957670     1.951852     1.946033     1.940215     1.934397     1.928578     1.922760     1.916941     1.911123
      1.905304     1.899486     1.893667     1.887849     1.882030     1.876212     1.870393     1.864575     1.858756     1.852938
      1.847119     1.841301     1.835482     1.829664     1.823845     1.818027     1.812208     1.806390     1.800571     1.794753
      1.788934     1.783116     1.777297     1.771479     1.765660     1.759842     1.754023     1.748205     1.742386     1.736568
      1.730749     1.724931     1.719113     1.713294     1.707476     1.701657     1.695839     1.690020     1.684202     1.678383
      1.672565     1.666746     1.660928     1.655109     1.649291     1.643472     1.637654     1.631835     1.626017     1.620198
      1.614380     1.608561     1.602743     1.596924     1.591106     1.585287     1.579469     1.573650     1.567832     1.562013
      1.556195     1.550376     1.544558     1.538739     1.532921     1.527102     1.521284     1.515465     1.509647     1.503829
      1.498010     1.492192     1.486373     1.480555     1.474736     1.468918     1.463099     1.457281     1.451462     1.445644
      1.439825     1.434007     1.428188     1.422370     1.416551     1.410733     1.404914     1.399096     1.393277     1.387459
      1.381640     1.375822     1.370003     1.364185     1.358366     1.352548     1.346729     1.340911     1.335092     1.329274
      1.323455     1.317637     1.311818     1.306000     1.300182     1.294363     1.288545     1.282726     1.276908     1.271089
      1.265271     1.259452     1.253634     1.247815     1.241997     1.236178     1.230360     1.224541     1.218723     1.212904
      1.207086     1.201267     1.195449     1.189630     1.183812     1.177993     1.172175     1.166356     1.160538     1.154719
      1.148901     1.143082     1.137264     1.131445     1.125627     1.119808     1.113990     1.108171     1.102353     1.096534
      1.090716     1.084898     1.079079     1.073261     1.067442     1.061624     1.055805     1.049987     1.044168     1.038350
      1.032531     1.026713     1.020894     1.015076     1.009257     1.003439     0.997620     0.991802     0.985983     0.980165
      0.974346     0.968528     0.962709     0.956891     0.951072     0.945254     0.939435     0.933617     0.927798     0.921980
      0.916161     0.910343     0.904524     0.898706     0.892887     0.887069     0.881251     0.875432     0.869614     0.863795
      0.857977     0.852158     0.846340     0.840521     0.834703     0.828884     0.823066     0.817247     0.811429     0.805610
      0.799792     0.793973     0.788155     0.782336     0.776518     0.770699     0.764881     0.759062     0.753244     0.747425
      0.741607     0.735788     0.729970     0.724151     0.718333     0.712514     0.706696     0.700877     0.695059     0.689240
      0.683422     0.677603     0.671785     0.665967     0.660148     0.654330     0.648511     0.642693     0.636874     0.631056
      0.625237     0.619419     0.613600     0.607782     0.601963     0.596145     0.590326     0.584508     0.578689     0.572871
      0.567052     0.561234     0.555415     0.549597     0.543778     0.537960     0.532141     0.526323     0.520504     0.514686
      0.508867     0.503049     0.497230     0.491412     0.485593     0.479775     0.473956     0.468138     0.462319     0.456501
      0.450682     0.444864     0.439045     0.433227     0.427408     0.421590     0.415771     0.409953     0.404134     0.398316
      0.392497     0.386679     0.380860     0.375042     0.369223     0.363405     0.357586     0.351767     0.345949     0.340130
      0.334312     0.328493     0.322675     0.316856     0.311038     0.305219     0.299401     0.293582     0.287764     0.281945
      0.276127     0.270308     0.264490     0.258671     0.252853     0.247034     0.241216     0.235397     0.229579     0.223760
      0.217942     0.212123     0.206305     0.200486
 NY phased data points follow
   4.89136E-02 -1.66745E-01 -2.31387E-01 -9.63673E-02 -2.12974E-01 -1.69024E-01 -2.80815E-01 -1.43435E-01 -2.71485E-01  1.31513E-02
   1.48619E-01  2.26575E-02  4.65513E-01  2.07106E-01 -5.08373E-02  1.35204E-01  2.79557E-01  1.57551E-01  9.16918E-02  1.53548E-01
   2.60058E-02  8.03884E-02  1.46679E-01 -1.99529E-02 -1.69619E-01  8.65285E-02  3.22391E-01 -3.47586E-02  4.05583E-02 -2.64348E-01
  -5.45955E-01 -3.43629E-02 -1.61632E-01 -1.40111E-01 -1.77814E-01 -8.91591E-02 -1.43020E-01 -1.01874E-01 -1.19386E-01 -2.01316E-01
   5.08614E-02 -3.31820E-02  6.46408E-01  5.31775E-01  3.79191E-01  5.27937E-01  4.70875E-01  4.60651E-01  1.04273E-01  1.42259E-01
  -8.22439E-02 -1.75575E-02  5.71265E-02  7.29756E-02 -2.01099E-01 -2.54804E-01 -2.67649E-02 -2.71682E-01 -2.38100E-01 -5.75637E-01
  -2.16707E-01 -2.09290E-01 -6.28465E-01 -2.76396E-01 -4.40563E-01 -9.19309E-02 -1.23339E-01 -2.09786E-01 -1.23972E-02  3.00314E-01
   7.87187E-01  1.78385E-01  1.23656E-01  2.27091E-01 -4.82614E-02 -2.94515E-01 -5.62581E-02 -2.79845E-01 -5.46240E-01 -2.93322E-01
  -3.87745E-01  4.78525E-01  2.34896E-01  7.31831E-02  3.07484E-01 -3.73335E-02  2.58857E-01 -8.39686E-02 -3.60028E-02  3.52842E-01
   1.64881E-01  3.14046E-01  2.88887E-01  1.62446E-01  4.71663E-01  1.02104E-01 -8.87679E-02 -1.99616E-01 -4.67820E-01 -1.16139E-01
  -1.06228E-01 -6.10136E-02 -9.44581E-03  2.35389E-01  5.89898E-01  3.97531E-01  6.34789E-01  6.77040E-01  3.26382E-01  8.33545E-02
   9.76778E-02  4.96369E-01  4.00720E-01  3.09186E-01  7.65522E-02 -5.15747E-02  1.72618E-01  5.65323E-01  2.98882E-01 -7.89193E-02
   5.21748E-01  2.09247E-01 -1.95438E-01  8.97805E-02  6.94917E-02 -5.31176E-01 -6.81707E-02 -1.61394E-01 -7.44320E-01 -3.82374E-01
  -9.11266E-01 -8.65435E-01 -6.90394E-01 -9.22750E-02 -4.10293E-02 -4.36981E-01 -4.28204E-01 -1.01624E+00 -3.37636E-01 -4.26780E-02
  -3.07208E-01  2.58117E-01  2.19463E-01 -9.65432E-02  3.66773E-02 -6.42121E-02  4.98109E-03  1.29400E-01 -1.23933E-01  1.57853E-02
   2.05252E-01  4.21228E-01  4.52031E-01  1.62641E-01  3.41599E-01  3.16589E-01  3.50164E-01  5.23982E-01  6.13546E-01  5.19949E-01
   4.83037E-01  7.44608E-01  5.43964E-01  8.40127E-01  6.94106E-01  5.85128E-01  5.63202E-01  1.88512E-01 -4.69236E-01 -1.42348E+00
  -1.24653E+00 -9.59904E-01 -3.74916E-01 -3.34453E-01 -5.20253E-01 -4.03432E-01 -2.91746E-01 -4.56629E-01 -4.62854E-01 -5.01224E-02
  -9.15673E-02  1.58128E-01 -2.99005E-02  7.40170E-02 -1.71977E-01 -1.14622E-01 -2.15693E-01 -6.19342E-01 -2.55055E-01 -6.12508E-01
  -4.70449E-01 -2.47125E-01 -1.85914E-01 -4.16767E-01 -2.91770E-01 -1.95451E-02 -3.61948E-01 -5.45389E-01 -4.63633E-01  5.03620E-02
   1.34182E-01 -1.05214E-01 -4.16253E-02  2.79178E-02 -2.94059E-01 -1.48323E-01 -2.23340E-01 -2.53760E-01  1.72531E-02 -9.31100E-02
  -2.92202E-02 -3.77046E-01 -4.49104E-01 -1.92564E-01  3.54657E-01  2.61935E-01 -3.37666E-02  4.01691E-01  2.27633E-01  5.61714E-03
  -1.23669E-01 -5.84221E-02  9.69687E-02  2.90896E-01  7.16493E-02 -2.73164E-02  3.03244E-01  6.51065E-02  8.29506E-03  3.12508E-01
   3.81242E-01  3.68964E-01  5.62278E-01  2.49485E-01  3.64075E-01 -6.12812E-02 -2.82713E-01  1.58868E-01 -9.97070E-02  2.58615E-01
  -2.10530E-02 -1.29116E-01 -1.28979E-01 -8.83809E-02  7.90197E-02 -3.49545E-02  4.40292E-04 -5.13862E-02  7.30099E-02  5.84288E-02
  -2.24725E-01 -3.58947E-01  3.64258E-01 -1.29060E-01 -1.78316E-01 -6.49348E-02 -2.46013E-01  3.44089E-01 -4.36478E-02  3.74663E-02
   1.20399E-01  2.07914E-01  1.98002E-01  1.22468E-01  2.14904E-01  2.97305E-01  1.21758E-01 -5.71421E-02  1.41445E-02 -2.69944E-02
  -6.50128E-03  2.10571E-01  2.05274E-01 -2.26334E-01  1.95449E-01 -2.14988E-01 -2.23796E-02 -1.18363E-01 -2.39684E-01  2.94259E-01
  -3.44212E-01 -2.71181E-01 -6.71477E-01 -1.18609E-01  4.53607E-01  5.79633E-01  5.96883E-01  2.82379E-01  3.39676E-01  4.71860E-01
   6.36833E-01  9.72006E-02  2.83703E-01  4.72870E-02  2.26932E-01  3.04918E-01  6.79080E-02  4.32545E-01 -5.49319E-02  1.24413E-01
   3.18763E-01  8.53490E-02  3.32151E-01  5.19008E-01  6.04509E-01  6.27638E-01 -9.33395E-02  9.41811E-02  3.31952E-01 -1.22056E-01
   1.74479E-01  7.03130E-02  3.04476E-01  2.94250E-01  1.88232E-01  2.17655E-01  1.34897E-01  1.43565E-01 -3.69882E-01 -1.77161E-01
  -2.32302E-01 -1.66832E-01 -2.47861E-01 -6.53109E-01 -1.49475E-01 -9.93710E-02 -1.38786E-01  1.78278E-01  3.06125E-01 -1.51683E-04
   1.82441E-01  1.66850E-01 -1.07553E-01 -2.73721E-01 -4.55931E-01 -7.98356E-02 -4.14546E-01 -3.42113E-01 -2.50576E-01 -3.14198E-01
  -4.79078E-01 -1.06268E+00 -1.38842E+00 -1.99443E+00 -1.69514E+00 -8.30786E-01 -2.68312E-01 -1.60257E-01  1.64431E-01  3.51969E-02
  -1.60797E-01  3.43474E-01 -1.18833E-02 -2.70350E-01  1.09954E-01  1.31461E-01 -2.82602E-01  2.86543E-01  1.73647E-01 -1.80121E-01
   8.45920E-02 -2.05372E-01  1.09186E-01 -1.04377E-01  7.79272E-02  5.10946E-02 -7.67562E-02  1.05710E-01 -1.94630E-01  3.43774E-01
   1.78337E-01  5.85304E-02 -8.00047E-03  1.31571E-01  3.92297E-01  1.20569E-01  4.43350E-01  1.93621E-01  1.84559E-01  6.38712E-01
   2.17751E-01  1.09938E-01  5.35232E-01  2.59466E-01  3.32353E-01  2.39608E-01  2.71111E-01  4.10463E-01 -6.60427E-02  1.04530E-01
   9.10372E-02  3.68401E-01  2.82550E-01  1.75759E-01  3.13801E-01  3.35926E-01  5.89612E-01  1.17940E-01  2.00920E-01  2.63423E-01
  -1.09290E-01  1.40845E-01  3.00153E-01  3.28568E-01  1.77254E-01 -8.42920E-02 -1.10820E-01 -3.84687E-01 -1.42588E-01 -2.23182E-01
  -6.78651E-02  2.20846E-01 -2.75341E-01  2.02674E-03  5.33194E-02 -3.51608E-02 -4.61783E-01 -3.02654E-01  1.09321E-01 -2.33773E-01
  -2.95015E-03 -1.77398E-01 -5.51647E-01 -1.22728E-01 -1.12820E-01 -1.58317E-01  1.76572E-01 -2.57792E-01 -9.60101E-02  1.58164E-01
  -2.35073E-01 -3.21941E-01  8.01755E-02 -2.62996E-02  2.07003E-01  4.37053E-02 -4.40055E-01  3.03184E-01 -2.03968E-01 -4.16754E-01
  -3.22374E-01  4.02223E-03 -2.46490E-02 -3.54957E-01 -6.05981E-03 -3.77329E-01 -1.96668E-01 -7.90787E-02  2.32773E-02  2.62220E-01
   2.30151E-01  8.04823E-02 -1.85278E-02 -3.00644E-02  1.69329E-01  1.44119E-01  2.83605E-02  1.09649E-01  1.23410E-01  2.26877E-01
   8.68461E-03  1.33168E-01  2.45602E-01  8.27584E-02 -2.32124E-01 -1.02448E-01  1.90275E-01  7.14646E-02 -5.90370E-02  1.52564E-01
   1.19586E-02 -2.72697E-01  2.12199E-02  1.12469E-01 -2.04978E-01 -6.67656E-01  1.36626E-01  1.76672E-01 -2.51695E-01  1.77173E-01
   7.13948E-02 -5.45790E-02 -1.06475E-01 -7.09084E-02  1.29733E-02  2.17562E-02 -2.24735E-01 -1.02592E-01  2.71390E-01  2.86953E-02
  -2.09304E-01  2.95855E-01  8.37883E-02 -3.09640E-01  1.82625E-01  4.77648E-01  2.40155E-01  3.16475E-02 -5.88208E-02 -7.28049E-02
  -2.71305E-01 -3.10662E-01  4.11659E-01  2.19063E-01  4.56380E-01  2.64376E-01 -2.02634E-01  2.17856E-01  9.37391E-02  1.78709E-01
   2.83902E-01  2.45570E-01  4.51833E-02  1.71149E-01  3.07565E-02  7.00807E-02 -1.50290E-02 -4.85788E-03  1.59918E-01 -1.28205E-01
  -2.66146E-01 -1.95626E-01  1.07060E-01 -2.41222E-01 -8.03626E-02  7.36815E-03 -4.24864E-01 -5.37305E-01 -2.22398E-01 -3.24242E-01
  -5.46354E-01 -3.13567E-01 -5.15300E-01 -5.37704E-01 -1.72974E-01 -1.34851E-01 -2.55734E-01 -4.20232E-02  2.29580E-02  1.76605E-01
  -2.32362E-01 -1.07758E-01  1.55690E-01 -1.50407E-01  2.03057E-02  2.23136E-01  2.76243E-01 -3.23004E-03  1.49754E-01  3.13944E-01
   2.39857E-01  3.40292E-01  3.48824E-01 -2.01324E-01  4.80462E-02  8.63780E-02  3.55612E-02  3.58914E-01 -8.57794E-02  1.72318E-01
   3.85168E-02  9.20550E-02  1.45767E-02  4.57801E-02  3.43560E-01 -5.94631E-02  2.62890E-01  1.51552E-01 -2.63514E-01  1.88542E-01
   3.69244E-01  4.11499E-02  3.10617E-01  1.76401E-01 -2.87830E-01  1.41683E-01  1.86316E-01 -7.20116E-02 -6.28091E-02 -2.19834E-01
  -2.04178E-01  2.59017E-01  2.27436E-01 -2.33938E-01  5.75419E-02  5.57853E-02  8.54846E-02 -2.40317E-01 -1.12260E-01  4.15314E-01
  -2.75691E-01 -7.27041E-02  2.21398E-02 -4.07267E-03 -1.00290E-01 -3.04101E-02  6.00644E-02 -5.24879E-02  2.66369E-01  1.44569E-01
  -2.04585E-02 -1.39751E-01  5.47460E-02 -3.01539E-01 -1.21159E-01  2.62929E-01  2.62012E-01  2.20191E-02 -1.57262E-01  1.81391E-02
  -1.09585E-01 -8.12940E-02 -1.46010E-01  3.63826E-01  1.18362E-01 -2.20039E-01 -9.89880E-02 -8.98083E-03  1.53147E-01 -1.57787E-01
   5.18704E-02  2.54601E-01 -1.86676E-01 -1.57061E-01 -2.85858E-02 -2.94378E-01 -1.27061E-01  1.75643E-01  2.87657E-01  5.65616E-02
   7.61327E-02 -8.76032E-02  1.43771E-01  8.44964E-02  8.81456E-03  1.80853E-01 -1.19844E-01  1.40599E-01 -1.22103E-01  1.61048E-01
   9.08204E-03 -2.37034E-01 -2.16126E-01 -4.60726E-02  1.07930E-01 -8.33546E-02  2.35771E-01 -1.17142E-01  3.00254E-02  6.43503E-02
   1.45504E-01  1.08998E-01  2.39162E-02  1.92925E-01
 NY points of the fit to the data follow
   2.94158E-02  2.44034E-02  1.72876E-02  1.12426E-02  7.70063E-03  8.19567E-03  1.47523E-02  3.46528E-02  5.98195E-02  1.07785E-01
   1.89580E-01  3.10565E-01  4.24317E-01  4.67837E-01  4.66689E-01  4.91115E-01  4.92619E-01  3.87586E-01  2.17995E-01  6.18556E-02
  -1.64685E-02 -2.85261E-02 -2.71452E-02 -4.29189E-02 -6.05342E-02 -7.63248E-02 -8.87908E-02 -9.83039E-02 -1.06555E-01 -1.15386E-01
  -1.25214E-01 -1.36419E-01 -1.50587E-01 -1.70095E-01 -1.94361E-01 -2.20086E-01 -2.35490E-01 -2.39920E-01 -2.07706E-01 -1.33398E-01
   7.21186E-03  1.77836E-01  3.24787E-01  4.06007E-01  4.19615E-01  3.79933E-01  3.03275E-01  2.21768E-01  1.42639E-01  9.51750E-02
   5.95527E-02  3.49447E-02  5.47971E-03 -2.46262E-02 -5.96448E-02 -9.83787E-02 -1.42094E-01 -1.92917E-01 -2.40134E-01 -2.91697E-01
  -3.36515E-01 -3.48386E-01 -3.28801E-01 -2.57311E-01 -1.78908E-01 -8.54205E-02  7.47840E-02  2.28142E-01  3.11608E-01  3.61132E-01
   3.62225E-01  2.96407E-01  2.17754E-01  1.18275E-01  2.22298E-02 -5.58674E-02 -1.42944E-01 -2.48261E-01 -3.52608E-01 -4.18570E-01
  -3.72792E-01 -1.91258E-01  2.70627E-02  2.10318E-01  3.55963E-01  4.39749E-01  4.41212E-01  3.93253E-01  3.17824E-01  2.56035E-01
   2.23389E-01  1.94686E-01  1.59676E-01  1.13793E-01  4.80906E-02 -3.73657E-02 -1.49534E-01 -2.71709E-01 -3.71946E-01 -4.01142E-01
  -3.20512E-01 -1.42360E-01  7.35185E-02  2.47664E-01  3.36684E-01  3.43862E-01  3.18358E-01  2.91007E-01  2.76690E-01  2.71706E-01
   2.68562E-01  2.65904E-01  2.63118E-01  2.60147E-01  2.57109E-01  2.54936E-01  2.53200E-01  2.47293E-01  2.38714E-01  2.21162E-01
   1.83384E-01  1.31020E-01  5.77588E-02 -1.70929E-02 -8.51221E-02 -1.84707E-01 -2.56787E-01 -3.53134E-01 -4.80848E-01 -6.04407E-01
  -6.53766E-01 -6.18707E-01 -4.77129E-01 -3.40619E-01 -2.93890E-01 -3.71406E-01 -5.59065E-01 -6.07506E-01 -4.62563E-01 -2.26522E-01
  -5.10857E-02  3.38586E-02  3.71061E-02  5.33644E-02  7.35618E-02  9.28661E-02  1.11018E-01  1.27882E-01  1.43561E-01  1.58002E-01
   1.71873E-01  1.85801E-01  2.00536E-01  2.16266E-01  2.33810E-01  2.53812E-01  2.76990E-01  3.04220E-01  3.36764E-01  3.76936E-01
   4.30904E-01  5.10823E-01  5.99896E-01  6.76907E-01  7.35140E-01  7.14276E-01  5.19081E-01  2.15049E-02 -6.43680E-01 -1.08116E+00
  -1.08096E+00 -8.10359E-01 -5.26461E-01 -3.76212E-01 -3.49112E-01 -3.29081E-01 -3.01574E-01 -2.73824E-01 -2.56317E-01 -2.45116E-01
  -2.37855E-01 -2.23123E-01 -2.06221E-01 -1.93771E-01 -1.90221E-01 -1.90085E-01 -1.88949E-01 -1.82963E-01 -1.73226E-01 -1.65534E-01
  -1.57465E-01 -1.50034E-01 -1.40470E-01 -1.30892E-01 -1.21470E-01 -1.13446E-01 -1.06109E-01 -9.89063E-02 -9.17580E-02 -8.47498E-02
  -7.81201E-02 -7.16420E-02 -6.57494E-02 -6.24577E-02 -6.25496E-02 -6.34133E-02 -6.17187E-02 -5.75770E-02 -5.54278E-02 -5.89570E-02
  -6.50051E-02 -6.79995E-02 -6.54709E-02 -5.88569E-02 -5.14989E-02 -4.37832E-02 -3.54670E-02 -2.83167E-02 -2.52596E-02 -2.61491E-02
  -1.93050E-02 -7.81561E-04  3.00309E-02  7.11561E-02  1.30799E-01  2.08873E-01  2.62382E-01  2.58002E-01  2.29900E-01  2.40610E-01
   3.01655E-01  3.34000E-01  2.58633E-01  1.13756E-01 -9.20653E-03 -6.93402E-02 -7.81621E-02 -7.39792E-02 -8.03679E-02 -8.80799E-02
  -9.65111E-02 -1.04756E-01 -1.11402E-01 -1.16197E-01 -1.20504E-01 -1.24091E-01 -1.28848E-01 -1.32353E-01 -1.34583E-01 -1.35184E-01
  -1.35579E-01 -1.40612E-01 -1.45880E-01 -1.58575E-01 -1.61240E-01 -1.43120E-01 -9.14184E-02 -6.66136E-03  5.29469E-02  8.57114E-02
   1.22915E-01  1.60735E-01  1.69057E-01  1.57644E-01  1.40072E-01  1.34105E-01  1.32268E-01  1.19390E-01  1.10710E-01  1.07387E-01
   1.09750E-01  1.02060E-01  7.29492E-02  3.24060E-02 -1.39732E-02 -6.33872E-02 -1.12924E-01 -1.67183E-01 -2.29315E-01 -2.95275E-01
  -3.54755E-01 -3.87856E-01 -3.50736E-01 -2.34932E-01 -4.61798E-02  1.71466E-01  3.51353E-01  4.52984E-01  4.74669E-01  4.24197E-01
   3.48345E-01  2.84561E-01  2.39282E-01  2.19517E-01  2.12435E-01  2.13924E-01  2.21587E-01  2.26414E-01  2.25069E-01  2.18045E-01
   2.06516E-01  1.97930E-01  1.89130E-01  1.81679E-01  1.72929E-01  1.62972E-01  1.49625E-01  1.32910E-01  1.12435E-01  8.83028E-02
   6.68687E-02  4.73172E-02  3.02507E-02  1.72623E-02 -3.13849E-03 -3.10123E-02 -7.68462E-02 -1.33984E-01 -1.98645E-01 -2.52629E-01
  -2.96247E-01 -3.21540E-01 -3.24079E-01 -3.02159E-01 -2.46969E-01 -1.67773E-01 -6.66579E-02  2.05404E-02  8.14606E-02  9.20586E-02
   5.98966E-02  1.27187E-03 -7.00082E-02 -1.30433E-01 -1.82902E-01 -2.23020E-01 -2.56062E-01 -2.84390E-01 -3.10732E-01 -3.66231E-01
  -5.62764E-01 -9.61706E-01 -1.52461E+00 -1.87942E+00 -1.64521E+00 -9.96374E-01 -3.89805E-01 -7.42101E-02 -2.28182E-02 -6.67806E-02
  -5.29101E-02 -3.50347E-02 -1.89603E-02 -5.83135E-03  5.08837E-03  1.35141E-02  2.02239E-02  2.31378E-02  2.20392E-02  1.58077E-02
   5.19301E-03 -6.84535E-03 -1.79972E-02 -2.56760E-02 -2.89030E-02 -2.69123E-02 -2.14692E-02 -1.25013E-02 -2.74296E-03  7.05968E-03
   1.58817E-02  2.37422E-02  3.10978E-02  3.76887E-02  4.29458E-02  4.68223E-02  5.00008E-02  5.33436E-02  5.68895E-02  6.04854E-02
   6.34961E-02  6.59795E-02  6.85081E-02  7.11231E-02  7.39790E-02  7.63421E-02  7.81608E-02  7.94709E-02  8.12729E-02  8.38016E-02
   8.69377E-02  8.99225E-02  9.19571E-02  9.26149E-02  9.17459E-02  9.00481E-02  8.80398E-02  8.63109E-02  8.43384E-02  8.15984E-02
   7.79032E-02  7.33662E-02  6.85651E-02  6.35273E-02  5.82466E-02  5.31669E-02  4.86901E-02  4.46426E-02  4.04379E-02  3.61901E-02
   3.22103E-02  2.88083E-02  2.59181E-02  2.35028E-02  2.11424E-02  1.88330E-02  1.65623E-02  1.42015E-02  1.20848E-02  1.03510E-02
   9.01201E-03  8.02426E-03  7.38667E-03  7.53147E-03  8.63553E-03  1.05122E-02  1.29110E-02  1.58669E-02  1.91114E-02  2.25339E-02
   2.58625E-02  2.82803E-02  2.99080E-02  3.17419E-02  3.51603E-02  4.02888E-02  4.64928E-02  5.24317E-02  5.79470E-02  6.36874E-02
   7.04251E-02  7.84484E-02  8.71507E-02  9.61765E-02  1.05030E-01  1.13739E-01  1.22238E-01  1.30252E-01  1.36922E-01  1.41781E-01
   1.44753E-01  1.46004E-01  1.46307E-01  1.45803E-01  1.44471E-01  1.42063E-01  1.38159E-01  1.32370E-01  1.24993E-01  1.17009E-01
   1.09125E-01  1.01969E-01  9.49288E-02  8.79020E-02  8.07528E-02  7.40371E-02  6.82623E-02  6.31482E-02  5.82562E-02  5.36038E-02
   4.95999E-02  4.61685E-02  4.34037E-02  4.10853E-02  3.96920E-02  3.96904E-02  4.09792E-02  4.30222E-02  4.54828E-02  4.83095E-02
   5.15616E-02  5.52745E-02  5.95148E-02  6.36888E-02  6.72469E-02  6.98605E-02  7.17227E-02  7.31674E-02  7.46579E-02  7.66008E-02
   7.87475E-02  8.01075E-02  8.01516E-02  7.91168E-02  7.74889E-02  7.57711E-02  7.36566E-02  7.10542E-02  6.85350E-02  6.64261E-02
   6.43180E-02  6.20265E-02  5.94083E-02  5.67286E-02  5.41245E-02  5.13270E-02  4.84104E-02  4.56105E-02  4.34340E-02  4.18166E-02
   4.00744E-02  3.76029E-02  3.45094E-02  3.09170E-02  2.66048E-02  2.14256E-02  1.55500E-02  9.23383E-03  2.39395E-03 -5.78767E-03
  -1.59433E-02 -2.81904E-02 -4.16803E-02 -5.51049E-02 -6.78205E-02 -7.99842E-02 -9.15526E-02 -1.02139E-01 -1.11678E-01 -1.19949E-01
  -1.26737E-01 -1.31134E-01 -1.32724E-01 -1.32376E-01 -1.31057E-01 -1.28556E-01 -1.24561E-01 -1.19508E-01 -1.14367E-01 -1.09883E-01
  -1.05735E-01 -1.01321E-01 -9.58988E-02 -8.94240E-02 -8.24002E-02 -7.49380E-02 -6.72499E-02 -5.94192E-02 -5.18306E-02 -4.44736E-02
  -3.75452E-02 -3.08151E-02 -2.42111E-02 -1.76844E-02 -1.18595E-02 -6.84969E-03 -2.01917E-03  2.82279E-03  7.56134E-03  1.12264E-02
   1.40153E-02  1.67303E-02  1.95697E-02  2.20562E-02  2.39883E-02  2.52475E-02  2.63349E-02  2.75468E-02  2.85685E-02  2.92508E-02
   2.99360E-02  3.11823E-02  3.28609E-02  3.46463E-02  3.63038E-02  3.75055E-02  3.79833E-02  3.80074E-02  3.79224E-02  3.78135E-02
   3.77200E-02  3.76590E-02  3.74408E-02  3.72001E-02  3.72340E-02  3.72322E-02  3.72798E-02  3.76553E-02  3.80866E-02  3.80400E-02
   3.68978E-02  3.47408E-02  3.32644E-02  3.33301E-02  3.40397E-02  3.43497E-02  3.39889E-02  3.33177E-02  3.23287E-02  3.12074E-02
   3.04512E-02  3.06988E-02  3.16743E-02  3.26174E-02  3.30141E-02  3.31930E-02  3.36250E-02  3.42338E-02  3.46853E-02  3.49159E-02
   3.50630E-02  3.50447E-02  3.44274E-02  3.32499E-02  3.23258E-02  3.22625E-02  3.28192E-02  3.35701E-02  3.42338E-02  3.44584E-02
   3.45353E-02  3.45256E-02  3.52850E-02  3.68797E-02  3.82149E-02  3.83675E-02  3.71049E-02  3.51298E-02  3.38842E-02  3.38830E-02
   3.42802E-02  3.42862E-02  3.33793E-02  3.21391E-02  3.14184E-02  3.11028E-02  3.09207E-02  3.02855E-02  2.95374E-02  2.94018E-02
   2.97765E-02  2.97065E-02  2.90494E-02  2.83350E-02  2.78503E-02  2.77643E-02  2.79195E-02  2.84926E-02  2.99268E-02  3.16277E-02
   3.26924E-02  3.27472E-02  3.22843E-02  3.18292E-02
 NY background values follow
     4.754E-02    4.745E-02    4.737E-02    4.728E-02    4.719E-02    4.710E-02    4.701E-02    4.692E-02    4.683E-02    4.674E-02
     4.665E-02    4.656E-02    4.647E-02    4.638E-02    4.629E-02    4.620E-02    4.611E-02    4.603E-02    4.594E-02    4.585E-02
     4.576E-02    4.567E-02    4.558E-02    4.549E-02    4.540E-02    4.531E-02    4.522E-02    4.513E-02    4.504E-02    4.495E-02
     4.486E-02    4.477E-02    4.468E-02    4.459E-02    4.450E-02    4.441E-02    4.432E-02    4.423E-02    4.414E-02    4.405E-02
     4.396E-02    4.387E-02    4.378E-02    4.369E-02    4.360E-02    4.351E-02    4.342E-02    4.333E-02    4.324E-02    4.315E-02
     4.306E-02    4.297E-02    4.288E-02    4.279E-02    4.270E-02    4.261E-02    4.252E-02    4.243E-02    4.234E-02    4.225E-02
     4.216E-02    4.207E-02    4.198E-02    4.189E-02    4.180E-02    4.171E-02    4.162E-02    4.153E-02    4.144E-02    4.135E-02
