 
 $NMID
 ID=''
 FMTDAT='(2E13.5)'
 TRAMP=   1.00000E+0
 VOLUME=   1.00000E+0
 $END
  -1.79079E+4   1.21666E+4
  -5.32618E+4   1.69787E+4
  -4.95239E+4   2.58095E+4
  -4.57519E+4   2.35547E+4
  -4.83491E+4   2.29127E+4
  -4.73508E+4   2.48473E+4
  -4.59622E+4   2.31335E+4
  -4.71989E+4   2.21720E+4
  -4.65772E+4   2.31752E+4
  -4.57135E+4   2.18911E+4
  -4.63856E+4   2.11334E+4
  -4.58300E+4   2.18034E+4
  -4.51468E+4   2.11465E+4
  -4.56996E+4   2.03843E+4
  -4.52499E+4   2.07398E+4
  -4.46552E+4   2.00244E+4
  -4.49159E+4   1.94763E+4
  -4.44551E+4   1.96648E+4
  -4.38698E+4   1.91601E+4
  -4.40670E+4   1.87287E+4
  -4.35675E+4   1.87794E+4
  -4.29564E+4   1.85566E+4
  -4.31391E+4   1.82338E+4
  -4.27627E+4   1.80865E+4
  -4.21612E+4   1.77510E+4
  -4.21699E+4   1.75285E+4
  -4.18823E+4   1.73459E+4
  -4.14629E+4   1.69772E+4
  -4.14607E+4   1.64727E+4
  -4.11438E+4   1.63690E+4
  -4.07217E+4   1.62355E+4
  -4.07535E+4   1.59379E+4
  -4.06377E+4   1.56432E+4
  -4.01313E+4   1.51972E+4
  -3.99931E+4   1.51264E+4
  -3.97150E+4   1.50116E+4
  -3.94369E+4   1.46605E+4
  -3.91338E+4   1.45427E+4
  -3.89699E+4   1.44641E+4
  -3.86968E+4   1.42388E+4
  -3.85423E+4   1.39716E+4
  -3.83817E+4   1.37750E+4
  -3.80512E+4   1.34112E+4
  -3.77689E+4   1.32273E+4
  -3.74663E+4   1.30936E+4
  -3.72945E+4   1.28565E+4
  -3.70106E+4   1.26180E+4
  -3.68244E+4   1.24678E+4
  -3.64851E+4   1.22737E+4
  -3.63464E+4   1.20038E+4
  -3.60972E+4   1.17717E+4
  -3.58535E+4   1.15907E+4
  -3.55539E+4   1.14172E+4
  -3.53012E+4   1.13501E+4
  -3.51672E+4   1.10960E+4
  -3.49104E+4   1.09397E+4
  -3.47384E+4   1.07106E+4
  -3.45314E+4   1.04267E+4
  -3.42556E+4   1.01246E+4
  -3.39492E+4   9.93657E+3
  -3.36570E+4   9.76293E+3
  -3.34580E+4   9.67561E+3
  -3.32864E+4   9.39193E+3
  -3.30081E+4   9.20206E+3
  -3.27323E+4   8.99857E+3
  -3.24975E+4   8.74746E+3
  -3.22876E+4   8.64814E+3
  -3.20401E+4   8.37109E+3
  -3.18153E+4   8.19770E+3
  -3.15010E+4   8.03044E+3
  -3.12642E+4   7.80735E+3
  -3.10187E+4   7.62343E+3
  -3.07707E+4   7.39032E+3
  -3.04708E+4   7.20035E+3
  -3.02205E+4   7.07198E+3
  -3.00691E+4   6.93664E+3
  -2.97468E+4   6.83627E+3
  -2.95668E+4   6.67702E+3
  -2.92218E+4   6.53539E+3
  -2.89770E+4   6.38173E+3
  -2.87880E+4   6.24569E+3
  -2.85417E+4   6.12722E+3
  -2.84140E+4   6.05121E+3
  -2.81152E+4   5.86440E+3
  -2.79589E+4   5.66365E+3
  -2.77044E+4   5.41536E+3
  -2.74752E+4   5.37199E+3
  -2.72293E+4   5.13065E+3
  -2.69737E+4   5.06482E+3
  -2.67712E+4   4.85469E+3
  -2.65457E+4   4.79449E+3
  -2.64132E+4   4.60408E+3
  -2.62384E+4   4.48072E+3
  -2.59879E+4   4.35524E+3
  -2.57840E+4   4.17809E+3
  -2.55263E+4   3.99999E+3
  -2.53325E+4   3.91302E+3
  -2.51622E+4   3.74326E+3
  -2.49639E+4   3.66799E+3
  -2.47578E+4   3.43491E+3
  -2.44885E+4   3.25179E+3
  -2.42031E+4   3.18728E+3
  -2.39205E+4   3.07350E+3
  -2.38491E+4   2.88862E+3
  -2.36192E+4   2.76543E+3
  -2.33504E+4   2.61431E+3
  -2.31438E+4   2.43632E+3
  -2.29262E+4   2.33846E+3
  -2.26829E+4   2.02427E+3
  -2.23953E+4   1.93102E+3
  -2.21645E+4   1.77578E+3
  -2.20316E+4   1.81479E+3
  -2.17754E+4   1.69431E+3
  -2.15807E+4   1.48842E+3
  -2.13917E+4   1.34290E+3
  -2.11259E+4   1.24530E+3
  -2.08138E+4   1.06700E+3
  -2.06694E+4   9.73452E+2
  -2.04083E+4   8.42496E+2
  -2.00900E+4   7.02743E+2
  -1.99653E+4   6.06866E+2
  -1.97886E+4   4.72632E+2
  -1.95315E+4   1.95514E+2
  -1.92720E+4   2.29094E+2
  -1.90360E+4   9.38477E+1
  -1.88838E+4  -1.69122E+1
  -1.85277E+4  -1.23886E+2
  -1.82742E+4  -2.33422E+2
  -1.81240E+4  -2.73998E+2
  -1.79020E+4  -4.37373E+2
  -1.76399E+4  -5.41243E+2
  -1.74301E+4  -5.89692E+2
  -1.72285E+4  -6.84151E+2
  -1.70283E+4  -7.82305E+2
  -1.68739E+4  -7.78773E+2
  -1.65815E+4  -8.32478E+2
  -1.64026E+4  -8.87007E+2
  -1.61344E+4  -1.01471E+3
  -1.60105E+4  -1.05213E+3
  -1.58353E+4  -1.09114E+3
  -1.56646E+4  -1.17004E+3
  -1.54514E+4  -1.23784E+3
  -1.53030E+4  -1.28941E+3
  -1.50845E+4  -1.30854E+3
  -1.49637E+4  -1.40412E+3
  -1.46962E+4  -1.48132E+3
  -1.45326E+4  -1.53400E+3
  -1.43534E+4  -1.59679E+3
  -1.42992E+4  -1.59504E+3
  -1.40552E+4  -1.59875E+3
  -1.39096E+4  -1.70707E+3
  -1.36942E+4  -1.85570E+3
  -1.35089E+4  -1.87037E+3
  -1.33634E+4  -1.89174E+3
  -1.32288E+4  -1.90627E+3
  -1.30086E+4  -1.96121E+3
  -1.28684E+4  -2.08417E+3
  -1.26779E+4  -2.05559E+3
  -1.25389E+4  -2.15031E+3
  -1.24558E+4  -2.16877E+3
  -1.22226E+4  -2.19553E+3
  -1.21314E+4  -2.24050E+3
  -1.19670E+4  -2.32202E+3
  -1.18901E+4  -2.33990E+3
  -1.16360E+4  -2.37391E+3
  -1.15664E+4  -2.40734E+3
  -1.14014E+4  -2.44535E+3
  -1.12840E+4  -2.48308E+3
  -1.11063E+4  -2.47266E+3
  -1.10498E+4  -2.57813E+3
  -1.08574E+4  -2.60204E+3
  -1.06876E+4  -2.57457E+3
  -1.06094E+4  -2.73900E+3
  -1.04053E+4  -2.72787E+3
  -1.02697E+4  -2.79667E+3
  -1.01794E+4  -2.79272E+3
  -1.00708E+4  -2.81203E+3
  -9.87134E+3  -2.85451E+3
  -9.73941E+3  -2.87547E+3
  -9.58670E+3  -2.96362E+3
  -9.48361E+3  -2.89111E+3
  -9.35915E+3  -2.96524E+3
  -9.22334E+3  -3.01259E+3
  -9.02634E+3  -3.06108E+3
  -8.91928E+3  -3.02057E+3
  -8.83413E+3  -3.06737E+3
  -8.69397E+3  -3.08850E+3
  -8.58379E+3  -3.08865E+3
  -8.44318E+3  -3.11283E+3
  -8.33858E+3  -3.09880E+3
  -8.19683E+3  -3.15167E+3
  -8.06900E+3  -3.12005E+3
  -7.96593E+3  -3.22903E+3
  -7.84096E+3  -3.12848E+3
  -7.74580E+3  -3.12730E+3
  -7.63566E+3  -3.11565E+3
  -7.54877E+3  -3.13666E+3
  -7.35742E+3  -3.18687E+3
  -7.27647E+3  -3.15186E+3
  -7.19459E+3  -3.16806E+3
  -7.09878E+3  -3.15618E+3
  -6.91710E+3  -3.21271E+3
  -6.80936E+3  -3.16920E+3
  -6.71844E+3  -3.16590E+3
  -6.59262E+3  -3.13726E+3
  -6.52051E+3  -3.16521E+3
  -6.42619E+3  -3.12245E+3
  -6.31273E+3  -3.08850E+3
  -6.21425E+3  -3.18774E+3
  -6.10321E+3  -3.16032E+3
  -6.05672E+3  -3.11713E+3
  -5.87299E+3  -3.09894E+3
  -5.80670E+3  -3.10646E+3
  -5.71644E+3  -3.00678E+3
  -5.65256E+3  -3.10185E+3
  -5.54338E+3  -3.06649E+3
  -5.46956E+3  -3.03906E+3
  -5.32830E+3  -3.05073E+3
  -5.25831E+3  -3.03934E+3
  -5.13531E+3  -2.99786E+3
  -5.11642E+3  -2.97700E+3
  -4.96260E+3  -3.02855E+3
  -4.90819E+3  -2.92568E+3
  -4.81637E+3  -2.97659E+3
  -4.69964E+3  -2.93683E+3
  -4.63636E+3  -2.84854E+3
  -4.54717E+3  -2.91082E+3
  -4.49861E+3  -2.85840E+3
  -4.43691E+3  -2.82470E+3
  -4.32316E+3  -2.89133E+3
  -4.19241E+3  -2.84626E+3
  -4.14689E+3  -2.81848E+3
  -4.03189E+3  -2.78662E+3
  -3.98090E+3  -2.64231E+3
  -3.92332E+3  -2.70327E+3
  -3.85287E+3  -2.65353E+3
  -3.78165E+3  -2.64862E+3
  -3.68096E+3  -2.71443E+3
  -3.56191E+3  -2.68003E+3
  -3.64458E+3  -2.67115E+3
  -3.49988E+3  -2.61103E+3
  -3.39540E+3  -2.52839E+3
  -3.36327E+3  -2.52619E+3
  -3.35857E+3  -2.57862E+3
  -3.26194E+3  -2.50623E+3
  -3.16277E+3  -2.47028E+3
  -3.10836E+3  -2.44783E+3
  -3.01210E+3  -2.41892E+3
  -2.89860E+3  -2.35807E+3
  -2.92481E+3  -2.33287E+3
  -2.87097E+3  -2.33369E+3
  -2.79219E+3  -2.29755E+3
  -2.73092E+3  -2.21561E+3
  -2.71126E+3  -2.21979E+3
  -2.62283E+3  -2.16015E+3
  -2.59916E+3  -2.13977E+3
  -2.54660E+3  -2.09568E+3
  -2.46321E+3  -2.08657E+3
  -2.44814E+3  -2.07241E+3
  -2.39125E+3  -2.09120E+3
  -2.38827E+3  -2.01055E+3
  -2.32852E+3  -2.00799E+3
  -2.31811E+3  -1.96084E+3
  -2.22904E+3  -1.92596E+3
  -2.22038E+3  -1.87533E+3
  -2.18323E+3  -1.84072E+3
  -2.12004E+3  -1.82865E+3
  -2.07022E+3  -1.81885E+3
  -2.03285E+3  -1.83006E+3
  -1.99491E+3  -1.76530E+3
  -1.97715E+3  -1.74240E+3
  -1.91828E+3  -1.71607E+3
  -1.90008E+3  -1.70491E+3
  -1.88617E+3  -1.66092E+3
  -1.79767E+3  -1.63830E+3
  -1.82604E+3  -1.59211E+3
  -1.75937E+3  -1.58465E+3
  -1.65741E+3  -1.57441E+3
  -1.69941E+3  -1.51350E+3
  -1.60483E+3  -1.50372E+3
  -1.58887E+3  -1.48251E+3
  -1.64009E+3  -1.49529E+3
  -1.48401E+3  -1.52581E+3
  -1.53190E+3  -1.46432E+3
  -1.44080E+3  -1.40964E+3
  -1.46593E+3  -1.35761E+3
  -1.46700E+3  -1.33544E+3
  -1.32671E+3  -1.31675E+3
  -1.37576E+3  -1.31844E+3
  -1.28856E+3  -1.33764E+3
  -1.28623E+3  -1.29749E+3
  -1.29297E+3  -1.24913E+3
  -1.28046E+3  -1.23587E+3
  -1.18875E+3  -1.13486E+3
  -1.19810E+3  -1.21942E+3
  -1.12324E+3  -1.17428E+3
  -1.18142E+3  -1.19418E+3
  -1.09717E+3  -1.06120E+3
  -1.06412E+3  -1.10137E+3
  -1.06264E+3  -1.02486E+3
  -1.10562E+3  -1.00575E+3
  -1.02874E+3  -9.52786E+2
  -9.76276E+2  -1.01216E+3
  -9.51102E+2  -1.01793E+3
  -9.34209E+2  -9.55578E+2
  -8.98749E+2  -8.99164E+2
  -9.19619E+2  -9.45104E+2
  -8.96278E+2  -9.33763E+2
  -8.45892E+2  -8.66433E+2
  -8.74331E+2  -9.28297E+2
  -8.67968E+2  -8.95404E+2
  -8.14642E+2  -8.50431E+2
  -8.46020E+2  -7.89860E+2
  -7.76602E+2  -8.22015E+2
  -7.34993E+2  -7.77227E+2
  -7.50219E+2  -7.69458E+2
  -6.98721E+2  -7.48593E+2
  -7.08906E+2  -7.55341E+2
  -6.55603E+2  -7.26120E+2
  -6.86524E+2  -7.43300E+2
  -6.93504E+2  -6.95846E+2
  -6.24821E+2  -6.67119E+2
  -6.01522E+2  -6.96123E+2
  -5.92113E+2  -6.91828E+2
  -5.61808E+2  -5.76348E+2
  -5.73853E+2  -6.33111E+2
  -5.20032E+2  -5.94366E+2
  -5.51335E+2  -5.33007E+2
  -5.38601E+2  -5.72233E+2
  -5.22059E+2  -5.57581E+2
  -5.56205E+2  -5.71536E+2
  -5.12660E+2  -5.38911E+2
  -5.52360E+2  -5.36725E+2
  -4.41029E+2  -4.91984E+2
  -4.51004E+2  -5.16255E+2
  -4.62172E+2  -4.50948E+2
  -3.84038E+2  -4.60767E+2
  -3.88307E+2  -4.94917E+2
  -3.98195E+2  -4.76367E+2
  -3.87453E+2  -4.43865E+2
  -3.88497E+2  -4.71787E+2
  -3.29489E+2  -4.45184E+2
  -3.60048E+2  -3.75123E+2
  -3.92966E+2  -3.80691E+2
  -3.15377E+2  -3.99628E+2
  -2.89041E+2  -2.95505E+2
  -2.98729E+2  -3.86354E+2
  -3.04409E+2  -3.48862E+2
  -3.00449E+2  -3.22065E+2
  -3.01967E+2  -3.54788E+2
  -2.95597E+2  -2.88724E+2
  -2.75552E+2  -3.35320E+2
  -2.06381E+2  -2.85723E+2
  -1.82870E+2  -2.92912E+2
  -2.20330E+2  -3.42001E+2
  -1.56588E+2  -2.91591E+2
  -2.12935E+2  -2.61506E+2
  -1.97187E+2  -1.60582E+2
  -2.43503E+2  -2.31868E+2
  -1.88450E+2  -2.47867E+2
  -2.10307E+2  -2.52038E+2
  -1.92462E+2  -1.50765E+2
  -1.69070E+2  -2.04117E+2
  -1.89962E+2  -2.21516E+2
  -2.03599E+2  -1.97761E+2
  -1.98902E+2  -1.49386E+2
  -1.83876E+2  -1.84796E+2
