 
 $NMID
 ID=''
 FMTDAT='(2E13.5)'
 TRAMP=   1.00000E+0
 VOLUME=   1.00000E+0
 $END
  -1.88430E+4  -8.21165E+3
  -4.07690E+4  -3.37825E+4
  -4.61594E+4  -2.56111E+4
  -4.27595E+4  -2.29939E+4
  -4.37251E+4  -2.49010E+4
  -4.48430E+4  -2.25246E+4
  -4.29568E+4  -2.14835E+4
  -4.31042E+4  -2.23066E+4
  -4.37950E+4  -2.07413E+4
  -4.25173E+4  -1.99662E+4
  -4.24500E+4  -2.03002E+4
  -4.29155E+4  -1.89505E+4
  -4.21726E+4  -1.81582E+4
  -4.20971E+4  -1.83630E+4
  -4.23038E+4  -1.74812E+4
  -4.15970E+4  -1.67704E+4
  -4.16212E+4  -1.67492E+4
  -4.17326E+4  -1.59867E+4
  -4.11922E+4  -1.52605E+4
  -4.10593E+4  -1.51889E+4
  -4.11505E+4  -1.44246E+4
  -4.07325E+4  -1.36513E+4
  -4.08309E+4  -1.35637E+4
  -4.07122E+4  -1.29747E+4
  -4.03191E+4  -1.24152E+4
  -4.01631E+4  -1.20353E+4
  -4.02425E+4  -1.15872E+4
  -3.98042E+4  -1.12643E+4
  -3.94601E+4  -1.11463E+4
  -3.93309E+4  -1.07084E+4
  -3.89817E+4  -1.01437E+4
  -3.88482E+4  -9.94053E+3
  -3.87360E+4  -9.59799E+3
  -3.83249E+4  -9.24934E+3
  -3.80728E+4  -8.89370E+3
  -3.78858E+4  -8.42173E+3
  -3.75408E+4  -7.96089E+3
  -3.72066E+4  -7.64177E+3
  -3.70264E+4  -7.26966E+3
  -3.67434E+4  -6.84383E+3
  -3.65138E+4  -6.58519E+3
  -3.62981E+4  -6.35515E+3
  -3.58289E+4  -6.04415E+3
  -3.54598E+4  -5.59652E+3
  -3.52697E+4  -5.19566E+3
  -3.48924E+4  -4.94219E+3
  -3.46064E+4  -4.67331E+3
  -3.44304E+4  -4.24207E+3
  -3.40893E+4  -3.85905E+3
  -3.37832E+4  -3.54562E+3
  -3.34632E+4  -3.26398E+3
  -3.32685E+4  -2.97530E+3
  -3.28684E+4  -2.61937E+3
  -3.26273E+4  -2.25903E+3
  -3.23882E+4  -1.97252E+3
  -3.21522E+4  -1.77456E+3
  -3.18861E+4  -1.46988E+3
  -3.16361E+4  -1.25457E+3
  -3.13088E+4  -1.05990E+3
  -3.09610E+4  -7.43975E+2
  -3.06950E+4  -4.41596E+2
  -3.04086E+4  -1.70436E+2
  -3.02356E+4   1.11529E+2
  -2.98956E+4   3.14950E+2
  -2.95702E+4   4.68603E+2
  -2.93067E+4   8.10219E+2
  -2.91436E+4   1.00239E+3
  -2.87952E+4   1.17245E+3
  -2.85151E+4   1.40941E+3
  -2.82865E+4   1.50195E+3
  -2.79686E+4   1.80353E+3
  -2.77645E+4   1.99093E+3
  -2.74739E+4   2.23489E+3
  -2.72412E+4   2.41662E+3
  -2.69595E+4   2.57117E+3
  -2.67046E+4   2.87975E+3
  -2.65224E+4   3.05522E+3
  -2.61898E+4   3.21533E+3
  -2.59677E+4   3.38869E+3
  -2.57341E+4   3.66655E+3
  -2.54480E+4   3.78482E+3
  -2.52339E+4   3.89797E+3
  -2.49886E+4   4.08485E+3
  -2.47246E+4   4.19539E+3
  -2.45817E+4   4.35708E+3
  -2.42781E+4   4.35296E+3
  -2.40643E+4   4.47353E+3
  -2.38355E+4   4.58713E+3
  -2.36188E+4   4.65880E+3
  -2.33643E+4   4.87443E+3
  -2.31639E+4   4.90672E+3
  -2.28700E+4   4.98413E+3
  -2.25697E+4   5.11491E+3
  -2.24460E+4   5.18564E+3
  -2.21357E+4   5.19360E+3
  -2.18718E+4   5.32810E+3
  -2.16118E+4   5.45251E+3
  -2.14884E+4   5.47730E+3
  -2.12128E+4   5.57551E+3
  -2.10132E+4   5.52949E+3
  -2.07064E+4   5.55343E+3
  -2.03989E+4   5.63932E+3
  -2.02342E+4   5.70627E+3
  -2.00141E+4   5.72048E+3
  -1.97614E+4   5.70983E+3
  -1.95817E+4   5.80178E+3
  -1.92054E+4   5.84545E+3
  -1.90107E+4   5.84298E+3
  -1.87243E+4   5.84955E+3
  -1.84581E+4   5.88443E+3
  -1.82072E+4   5.89971E+3
  -1.79903E+4   5.99667E+3
  -1.77830E+4   5.97895E+3
  -1.75669E+4   5.97198E+3
  -1.73788E+4   5.93864E+3
  -1.70720E+4   5.96985E+3
  -1.68468E+4   5.91475E+3
  -1.66293E+4   5.97705E+3
  -1.63796E+4   5.96700E+3
  -1.60946E+4   5.92961E+3
  -1.59534E+4   5.98372E+3
  -1.57461E+4   5.95370E+3
  -1.55062E+4   5.93936E+3
  -1.52983E+4   5.92488E+3
  -1.50796E+4   5.90002E+3
  -1.48085E+4   5.86295E+3
  -1.46400E+4   5.95312E+3
  -1.44054E+4   5.93515E+3
  -1.41622E+4   5.90496E+3
  -1.40560E+4   5.87236E+3
  -1.37817E+4   5.84645E+3
  -1.35432E+4   5.85586E+3
  -1.33829E+4   5.82493E+3
  -1.31445E+4   5.87617E+3
  -1.29437E+4   5.84194E+3
  -1.27647E+4   5.90969E+3
  -1.25938E+4   5.81136E+3
  -1.23765E+4   5.81451E+3
  -1.21722E+4   5.89418E+3
  -1.20813E+4   5.85482E+3
  -1.17877E+4   5.85793E+3
  -1.16850E+4   5.79451E+3
  -1.14609E+4   5.77797E+3
  -1.13001E+4   5.83427E+3
  -1.10747E+4   5.81350E+3
  -1.09384E+4   5.79544E+3
  -1.07273E+4   5.81856E+3
  -1.06117E+4   5.79622E+3
  -1.03884E+4   5.74847E+3
  -1.03146E+4   5.81542E+3
  -1.01136E+4   5.77640E+3
  -9.96718E+3   5.66813E+3
  -9.74077E+3   5.62354E+3
  -9.61641E+3   5.70136E+3
  -9.45748E+3   5.73014E+3
  -9.30083E+3   5.72794E+3
  -9.15633E+3   5.67136E+3
  -9.05569E+3   5.72572E+3
  -8.86031E+3   5.63063E+3
  -8.70430E+3   5.60041E+3
  -8.67301E+3   5.59592E+3
  -8.50234E+3   5.64138E+3
  -8.39540E+3   5.53982E+3
  -8.27028E+3   5.57082E+3
  -8.13958E+3   5.47721E+3
  -7.93221E+3   5.45787E+3
  -7.86216E+3   5.46769E+3
  -7.72913E+3   5.48427E+3
  -7.58826E+3   5.40345E+3
  -7.53409E+3   5.36991E+3
  -7.33536E+3   5.42692E+3
  -7.22869E+3   5.32734E+3
  -7.12250E+3   5.33894E+3
  -7.05582E+3   5.30712E+3
  -6.89887E+3   5.34837E+3
  -6.80152E+3   5.24087E+3
  -6.65222E+3   5.20586E+3
  -6.61486E+3   5.25933E+3
  -6.54219E+3   5.20329E+3
  -6.42377E+3   5.23064E+3
  -6.37049E+3   5.22644E+3
  -6.25312E+3   5.17936E+3
  -6.11156E+3   5.15258E+3
  -6.04833E+3   5.13551E+3
  -5.94435E+3   5.05550E+3
  -5.85769E+3   5.03031E+3
  -5.83127E+3   5.06994E+3
  -5.73571E+3   5.02531E+3
  -5.68476E+3   5.02983E+3
  -5.57860E+3   4.90295E+3
  -5.45470E+3   4.89297E+3
  -5.38731E+3   4.88679E+3
  -5.31863E+3   4.91364E+3
  -5.30483E+3   4.81930E+3
  -5.21437E+3   4.75089E+3
  -5.12085E+3   4.79680E+3
  -5.03025E+3   4.74583E+3
  -4.95426E+3   4.71349E+3
  -4.91973E+3   4.69102E+3
  -4.88318E+3   4.69078E+3
  -4.81627E+3   4.64960E+3
  -4.80810E+3   4.58684E+3
  -4.68288E+3   4.57274E+3
  -4.66527E+3   4.56593E+3
  -4.52749E+3   4.52719E+3
  -4.44118E+3   4.45708E+3
  -4.46888E+3   4.44149E+3
  -4.38351E+3   4.38520E+3
  -4.34276E+3   4.37258E+3
  -4.23213E+3   4.42585E+3
  -4.21955E+3   4.40808E+3
  -4.15582E+3   4.39477E+3
  -4.20033E+3   4.28656E+3
  -4.00977E+3   4.31506E+3
  -4.00991E+3   4.28653E+3
  -3.96931E+3   4.33521E+3
  -3.95156E+3   4.29246E+3
  -3.85760E+3   4.20372E+3
  -3.86519E+3   4.19378E+3
  -3.80830E+3   4.16032E+3
  -3.80897E+3   4.15052E+3
  -3.70395E+3   4.10574E+3
  -3.62575E+3   4.14081E+3
  -3.70356E+3   4.05997E+3
  -3.61837E+3   3.98041E+3
  -3.51774E+3   4.00669E+3
  -3.51469E+3   3.94456E+3
  -3.56789E+3   3.90276E+3
  -3.51685E+3   3.87183E+3
  -3.48037E+3   3.89270E+3
  -3.40888E+3   3.87321E+3
  -3.41222E+3   3.77562E+3
  -3.38394E+3   3.86375E+3
  -3.41067E+3   3.75033E+3
  -3.31004E+3   3.64368E+3
  -3.25033E+3   3.69289E+3
  -3.26111E+3   3.66144E+3
  -3.23008E+3   3.59900E+3
  -3.17255E+3   3.59491E+3
  -3.22593E+3   3.48773E+3
  -3.15676E+3   3.56629E+3
  -3.18267E+3   3.54074E+3
  -3.09181E+3   3.51953E+3
  -3.09750E+3   3.45469E+3
  -3.04430E+3   3.42921E+3
  -2.96096E+3   3.41302E+3
  -3.02933E+3   3.37621E+3
  -2.91715E+3   3.40339E+3
  -2.93048E+3   3.40919E+3
  -2.88646E+3   3.26523E+3
  -2.88919E+3   3.31589E+3
  -2.91623E+3   3.27563E+3
  -2.87086E+3   3.20272E+3
  -2.80631E+3   3.25091E+3
  -2.77467E+3   3.13463E+3
  -2.76133E+3   3.13482E+3
  -2.71550E+3   3.13028E+3
  -2.70198E+3   3.19443E+3
  -2.70561E+3   3.11839E+3
  -2.76012E+3   3.05980E+3
  -2.68249E+3   3.00587E+3
  -2.63012E+3   3.03590E+3
  -2.57197E+3   3.00725E+3
  -2.53436E+3   3.00822E+3
  -2.57139E+3   3.04171E+3
  -2.56401E+3   3.00333E+3
  -2.52340E+3   2.94156E+3
  -2.42804E+3   2.91931E+3
  -2.51727E+3   2.93817E+3
  -2.46177E+3   2.86805E+3
  -2.41667E+3   2.86329E+3
  -2.42574E+3   2.83494E+3
  -2.36993E+3   2.88086E+3
  -2.40938E+3   2.87433E+3
  -2.38898E+3   2.79515E+3
  -2.40034E+3   2.77784E+3
  -2.28524E+3   2.74602E+3
  -2.30972E+3   2.77486E+3
  -2.33449E+3   2.72270E+3
  -2.31745E+3   2.67844E+3
  -2.24523E+3   2.76098E+3
  -2.26630E+3   2.66499E+3
  -2.18941E+3   2.72177E+3
  -2.26284E+3   2.69121E+3
  -2.25562E+3   2.64003E+3
  -2.12842E+3   2.70427E+3
  -2.16900E+3   2.61110E+3
  -2.14600E+3   2.60422E+3
  -2.14400E+3   2.58282E+3
  -2.14415E+3   2.61939E+3
  -2.16299E+3   2.56854E+3
  -2.09603E+3   2.48929E+3
  -2.10808E+3   2.48856E+3
  -2.00793E+3   2.51153E+3
  -2.08471E+3   2.47702E+3
  -1.98387E+3   2.47754E+3
  -1.98382E+3   2.46246E+3
  -1.94755E+3   2.38536E+3
  -1.96905E+3   2.43339E+3
  -2.00220E+3   2.38232E+3
  -1.99696E+3   2.40905E+3
  -1.96856E+3   2.41017E+3
  -1.99390E+3   2.42445E+3
  -1.90166E+3   2.43620E+3
  -1.92325E+3   2.33369E+3
  -1.90853E+3   2.32441E+3
  -1.85336E+3   2.31995E+3
  -1.86415E+3   2.30569E+3
  -1.80347E+3   2.25609E+3
  -1.75303E+3   2.27432E+3
  -1.77740E+3   2.30107E+3
  -1.81326E+3   2.22763E+3
  -1.79278E+3   2.26313E+3
  -1.72627E+3   2.24148E+3
  -1.84950E+3   2.21133E+3
  -1.75813E+3   2.18272E+3
  -1.75642E+3   2.21305E+3
  -1.62460E+3   2.18183E+3
  -1.63092E+3   2.18516E+3
  -1.63413E+3   2.14321E+3
  -1.55667E+3   2.11201E+3
  -1.64754E+3   2.13718E+3
  -1.63526E+3   2.12462E+3
  -1.64893E+3   2.05922E+3
  -1.53439E+3   2.12404E+3
  -1.55547E+3   2.07180E+3
  -1.50866E+3   2.05792E+3
  -1.50340E+3   2.04778E+3
  -1.52104E+3   1.99849E+3
  -1.48293E+3   1.94440E+3
  -1.47988E+3   1.94809E+3
  -1.44417E+3   1.97175E+3
  -1.47510E+3   1.95914E+3
  -1.45335E+3   1.99025E+3
  -1.44286E+3   1.91827E+3
  -1.36852E+3   2.00014E+3
  -1.37904E+3   1.97741E+3
  -1.35160E+3   1.90794E+3
  -1.33480E+3   1.87682E+3
  -1.26273E+3   1.90198E+3
  -1.32720E+3   1.87893E+3
  -1.29732E+3   1.85630E+3
  -1.30846E+3   1.80990E+3
  -1.25765E+3   1.87324E+3
  -1.24205E+3   1.82704E+3
  -1.26473E+3   1.82421E+3
  -1.23396E+3   1.71747E+3
  -1.17986E+3   1.79145E+3
  -1.17318E+3   1.78287E+3
  -1.12325E+3   1.75120E+3
  -1.15791E+3   1.73579E+3
  -1.08446E+3   1.73377E+3
  -1.12341E+3   1.71143E+3
  -1.11893E+3   1.62844E+3
  -1.03143E+3   1.68587E+3
  -1.05755E+3   1.67234E+3
  -1.00191E+3   1.63848E+3
  -1.00170E+3   1.56953E+3
  -9.81484E+2   1.62706E+3
  -9.83538E+2   1.64709E+3
  -9.92558E+2   1.58746E+3
  -9.26117E+2   1.59612E+3
  -9.30067E+2   1.57894E+3
  -8.93856E+2   1.57739E+3
  -9.06157E+2   1.53625E+3
  -9.23270E+2   1.57895E+3
  -9.39840E+2   1.52806E+3
