 
 $NMID
 ID=''
 FMTDAT='(2E13.5)'
 TRAMP=   1.00000E+0
 VOLUME=   1.00000E+0
 $END
   2.33975E+2  -4.40076E+2
  -4.38047E+2   1.78409E+3
   1.22815E+3  -5.37661E+3
  -1.92167E+3   8.49126E+2
  -1.88902E+3   1.76110E+3
   2.05527E+3   4.45296E+3
   4.14707E+3   2.89986E+3
   7.31122E+2  -2.71190E+3
  -7.23430E+2  -4.70711E+3
  -8.76963E+2  -6.23636E+3
  -1.22240E+2  -3.64225E+3
   2.52190E+2   3.41360E+3
   1.04937E+1   6.12642E+3
  -3.36445E+3   4.84918E+3
  -4.27319E+2  -9.83550E+2
   1.83075E+3  -9.75960E+2
   3.26566E+3  -9.49229E+2
   8.73118E+2  -1.84934E+2
   1.30905E+3  -2.22663E+2
  -1.67902E+3   9.22449E+2
   1.98904E+3  -1.79620E+3
   1.09020E+3   3.15401E+3
  -4.03380E+3   5.15663E+3
  -1.40604E+3  -1.67258E+2
   1.36625E+3   1.64603E+3
   1.17599E+3   8.45639E+3
  -1.42671E+3   3.00092E+3
   2.51203E+3  -7.88609E+2
   5.82209E+3  -3.94180E+3
   1.01820E+4   1.94313E+3
   6.60849E+3   6.54869E+3
  -2.31435E+3   4.53902E+3
  -3.92221E+3  -2.29963E+3
   2.22924E+3  -3.12924E+3
   9.63550E+2  -9.93065E+2
  -3.59056E+3  -8.41828E+3
   3.73832E+3  -7.09339E+3
   7.48616E+3   6.52994E+2
   7.91523E+2   3.96167E+3
  -1.22841E+3  -1.44448E+3
  -3.82786E+3   7.60534E+2
  -9.35809E+3  -2.91757E+3
  -4.00585E+3  -9.82130E+3
   2.38625E+3  -6.36731E+3
   6.43453E+2  -3.89385E+2
  -1.84437E+3  -6.30537E+2
  -1.35085E+3   1.50393E+3
  -2.97346E+3   4.68208E+3
  -5.54453E+3   4.05197E+3
  -3.83959E+3   1.71952E+3
  -3.29151E+3  -7.88427E+2
   2.85587E+3  -3.47211E+3
   5.07593E+3   2.86868E+3
   1.15713E+3   4.92176E+3
  -2.78806E+3   8.61660E+2
  -2.30495E+3   9.35796E+2
  -4.84450E+3   2.55785E+3
  -5.07548E+3  -3.73270E+3
  -8.26150E+2  -7.46830E+3
   4.09353E+3  -4.56551E+3
   4.91710E+3  -4.74061E+2
   3.03195E+3   4.15060E+3
  -5.82609E+1   4.82425E+3
  -7.39281E+2   1.77326E+3
   1.58762E+2  -4.57868E+2
   1.53204E+3   2.13774E+3
  -1.54751E+3   3.87063E+3
  -5.45144E+3   4.21757E+2
  -3.29584E+3  -2.43704E+3
  -1.14324E+3  -3.54046E+3
  -3.83228E+3  -1.73288E+3
  -4.72553E+3  -1.49956E+3
  -2.62945E+3  -3.43012E+3
  -2.78355E+2  -2.98268E+3
   7.98344E+2   2.17369E+3
  -2.16003E+2   5.71501E+2
   1.98106E+3  -2.44076E+3
   1.80393E+3  -1.41861E+2
   4.27012E+3   3.48146E+2
   1.10908E+3   3.66139E+3
  -2.11003E+3   5.14019E+3
   1.49595E+3  -8.55755E+2
   4.67815E+2   3.13300E+3
  -5.50604E+2   2.61455E+3
  -4.94095E+3   6.48300E+2
  -1.39101E+3  -2.99054E+3
   5.89003E+1  -5.30419E+3
   6.21166E+3  -1.59345E+3
   4.92807E+3   8.74282E+2
   6.25782E+2   2.72124E+2
  -7.00137E+2   5.65470E+2
   1.53239E+3   1.91530E+3
  -5.75869E+2   7.49059E+2
  -2.55590E+3   2.59563E+2
  -3.63047E+2  -3.72884E+3
   3.21681E+3  -2.77129E+3
   4.82361E+3   7.47287E+2
   2.44064E+3   4.26061E+3
  -1.87938E+3   8.25178E+2
   4.17900E-1  -3.21230E+3
   4.76574E+3  -4.63553E+3
   3.91251E+3   2.96821E+3
   2.67772E+3   3.06006E+3
  -1.70114E+3   3.81741E+3
  -3.39435E+3  -1.43557E+3
  -8.39984E+2  -5.39722E+2
  -2.85607E+3  -2.03574E+3
  -1.52128E+3  -3.29047E+3
   1.72425E+2  -4.29252E+3
   4.71242E+3  -5.01320E+3
   6.58243E+3  -1.06632E+2
   3.40120E+3   2.48009E+3
   1.70160E+3   3.90246E+3
  -1.33436E+3   2.04254E+3
  -2.41078E+3   1.38673E+3
  -9.83950E+2  -2.15968E+3
  -1.07901E+2  -1.51288E+3
  -5.71513E+2  -1.02950E+3
   2.74470E+3  -1.08050E+3
   1.12387E+3   1.58448E+2
   9.14319E+2   1.20214E+3
  -2.82106E+3  -1.19979E+3
   6.13230E+2  -3.05005E+3
   2.35211E+3  -1.70238E+2
   8.68368E+2   3.45372E+3
  -2.44464E+2   1.60862E+3
   1.20447E+2   9.18975E+2
   5.84567E+2   3.48324E+3
  -3.86656E+2   2.95410E+3
  -1.55859E+3  -5.89567E+2
   1.52134E+1  -3.33167E+3
   2.29455E+3  -3.52774E+3
   6.43013E+2   2.68168E+3
  -1.88876E+3   2.56072E+3
  -3.47984E+3   1.66290E+3
  -2.62574E+3  -2.09190E+3
  -1.84946E+2  -2.94043E+3
   2.37524E+3  -1.51732E+3
   1.86395E+2  -1.59335E+3
  -4.94222E+2   9.45747E+2
   1.89470E+3  -1.58962E+3
   3.01080E+3  -5.28036E+2
   1.29382E+3   2.24699E+3
  -6.24609E+2   1.50319E+3
  -3.93342E+2   1.04774E+3
   1.34295E+3  -1.22545E+3
  -3.39696E+2  -8.69034E+1
  -1.32064E+3   3.41830E+2
  -1.43965E+3   2.31113E+3
  -3.60690E+3  -1.13229E+3
  -2.73436E+3  -2.23235E+3
   1.10044E+2  -2.51646E+3
   2.95804E+3  -2.10518E+3
   4.33870E+3   2.90548E+2
   3.09911E+3   2.94971E+2
   1.42379E+3   2.53512E+3
  -1.67246E+3   7.16892E+2
   1.41190E+3   2.93592E+3
  -5.16999E+2   2.95669E+2
  -1.38282E+3  -2.52089E+2
  -2.55879E+3  -1.27948E+3
  -6.98200E+2  -2.66553E+3
   1.30684E+3   1.10698E+3
   1.44438E+3   2.10247E+3
  -3.26058E+2   2.67012E+3
  -1.99758E+3  -8.27766E+2
  -3.81425E+2  -2.89785E+3
   3.23581E+3   1.75559E+3
  -3.74086E+2   4.22248E+3
  -1.39785E+3   2.08756E+3
  -2.35253E+3  -6.44051E+2
  -1.73831E+2  -1.87919E+3
  -7.93516E+2  -1.53115E+3
   9.45788E+2  -7.66813E+1
  -1.45154E+1   1.60020E+3
  -1.22559E+1   3.77050E+2
   2.46817E+3   1.76330E+3
  -1.23265E+3   3.41912E+3
  -1.84838E+3   3.51407E+3
  -2.23208E+3   3.98307E+2
  -3.22572E+3  -1.14599E+3
   2.85047E+2  -1.60931E+3
  -3.61978E+1  -1.25615E+3
  -1.17258E+2  -4.75779E+2
  -3.40047E+2   2.43972E+3
  -1.16982E+2   5.84096E+2
  -6.81953E+2   2.06670E+2
  -1.73498E+3   3.58210E+2
  -6.86133E+2  -3.20186E+3
   3.59291E+3   8.94358E+2
   1.73788E+3   1.50154E+3
  -2.10731E+3   2.07635E+3
  -4.07266E+1   1.36079E+3
  -1.59606E+3  -5.02315E+2
   1.29504E+2   9.57915E+2
  -9.96320E+2   2.09751E+3
  -1.00817E+3   6.48345E+1
  -7.05405E+2   1.68462E+3
  -5.80951E+2   1.84004E+3
  -1.13115E+3   2.56068E+3
  -3.92371E+3   1.48483E+3
  -1.54917E+3  -9.24226E+2
  -1.35406E+2  -2.06927E+3
   1.36528E+3  -1.26344E+3
   2.46437E+3   1.96403E+3
   4.78012E+2   1.67737E+3
  -7.09561E+2   1.31614E+2
  -1.39953E+3  -1.45100E+2
  -6.43200E+2   3.46904E+3
  -1.29296E+2   2.51771E+1
  -1.99470E+2  -3.26956E+3
   6.48288E+2  -2.77747E+3
   3.12223E+3   1.71253E+3
  -4.65903E+2   2.67329E+3
  -2.18324E+3   1.82275E+3
  -6.10581E+2  -1.24265E+3
  -1.51529E+2  -1.00064E+3
  -1.12978E+3  -1.98932E+3
  -1.76808E+3  -9.88993E+2
  -7.08203E+1  -2.16630E+3
   6.15491E+2  -4.67290E+1
   6.68583E+2   4.86045E+2
   6.00376E+2  -7.89011E+1
   6.77577E+2  -2.22240E+2
  -9.87179E+2  -1.07558E+3
   5.98986E+2   1.22737E+3
  -1.66486E+3   2.04081E+3
   1.24518E+2   5.48278E+2
  -1.55710E+3  -5.98141E+2
  -1.45446E+2   8.59727E+2
   1.27635E+3   1.62978E+3
  -1.03341E+3   1.37712E+3
   1.49623E+3  -4.24764E+2
   1.83256E+3  -2.05286E+3
   8.63668E+2  -8.08572E+2
   8.52098E+2   1.57921E+3
  -2.36338E+3   2.14399E+3
  -1.31236E+3  -1.11948E+3
   5.62257E+2  -2.23151E+3
  -2.09151E+0   2.64730E+2
   8.39320E+2   1.16539E+3
   3.30448E+2   3.42496E+2
   1.59308E+2   4.43637E+2
  -3.27180E+2  -1.14856E+3
  -1.00492E+2  -1.16196E+3
   1.64828E+3   7.07010E+1
  -8.05091E+2  -1.47115E+3
   2.77555E+3  -2.65573E+3
   1.45635E+3   1.28585E+3
  -1.10347E+3   1.83755E+3
  -2.72971E+3   1.72516E+3
  -2.68863E+3  -2.31175E+3
  -1.23260E+2  -2.65453E+3
   1.07322E+3  -5.48836E+2
   9.47745E+2  -5.21110E+2
  -5.53025E+2  -5.68543E+2
   4.50200E+2   1.51606E+3
   1.88481E+3   3.32063E+3
  -3.84372E+2   1.30983E+3
  -2.34266E+3  -6.82997E+2
  -1.76878E+3  -2.97237E+3
   1.14786E+3   3.20864E+0
   7.64468E+2  -7.92472E+2
  -3.78964E+1  -3.69382E+2
  -1.75143E+3  -1.05208E+3
   1.45032E+3  -5.56202E+2
   9.12555E+2   1.00233E+3
  -5.01388E+2   4.98154E+2
  -1.94152E+3  -1.10838E+3
   7.98725E+2  -2.24728E+3
   2.93285E+3   1.33751E+2
   3.32793E+1   5.05698E+2
  -2.25084E+3  -1.30192E+3
  -1.74969E+3  -2.02714E+3
  -8.83941E+2  -4.30438E+2
   1.23920E+3  -1.19731E+3
   1.80171E+3   1.40315E+2
   1.59643E+3   1.35396E+3
   1.22783E+3  -3.40681E+2
   3.33523E+1  -2.54338E+2
  -1.54583E+3   2.27906E+3
   1.08313E+2   6.72591E+2
  -3.05484E+2  -4.85303E+3
  -1.67908E+2  -2.72678E+3
  -1.00065E+3   1.35254E+3
  -5.69892E+2   8.46778E+2
  -1.08419E+3  -1.13398E+3
   4.26209E+2  -1.73473E+2
   2.57404E+3  -6.47171E+2
   9.13784E+2   4.63819E+2
  -3.93145E+2  -5.41007E+2
  -1.59570E+3   4.06727E+2
  -1.66687E+2   1.11527E+3
  -1.67165E+3  -8.29088E+1
  -2.80827E+3  -3.18889E+2
  -1.05065E+3  -2.11673E+3
  -7.49820E+2  -9.32458E+2
   2.96849E+3   5.98817E+2
  -5.04254E+2   9.05105E+2
  -1.24287E+3   4.67274E+2
  -3.09897E+2  -5.86750E+2
  -2.08411E+2  -2.12616E+2
   3.65832E+2   2.38700E+2
  -1.16317E+3  -1.88685E+3
   6.20190E+2  -2.69814E+3
   1.81505E+3  -1.52549E+3
   9.14821E+2   1.48727E+3
  -9.85945E+1   3.76100E+2
  -1.57850E+3   1.41522E+3
  -1.19601E+3  -2.09735E+2
   1.74571E+3  -5.12363E+2
   3.17032E+2  -9.29491E+2
  -1.42828E+3   4.19079E+2
   2.42881E+3  -1.60233E+3
   9.64258E+2  -1.53607E+2
  -4.19623E+2   1.89598E+3
  -1.89044E+3   1.40397E+3
  -9.20102E+2  -7.70147E+2
   2.76278E+2  -2.74525E+3
   3.22776E+3  -1.14860E+3
   2.06520E+3   2.37286E+3
  -1.51612E+3   2.25066E+2
  -4.59268E+2  -5.69718E+2
  -3.81614E+2  -7.57844E+2
   1.05564E+3   1.53603E+1
   1.31508E+3  -7.62498E+2
  -2.64121E+2   2.32292E+3
   1.66766E+3  -3.70176E+1
   1.00525E+3   2.84761E+2
   9.19795E+2   1.69638E+3
  -2.38686E+3   3.07475E+3
  -7.48658E+2  -8.79341E+2
  -8.68664E+2   4.36461E+2
   1.30939E+3   7.14823E+2
  -1.50493E+2   1.29378E+2
   1.26458E+3  -1.96261E+1
  -1.90194E+2  -2.20342E+3
   1.30917E+3   5.18010E+2
  -4.41615E+2  -2.66710E+2
   4.13362E+2   3.90628E+2
   4.04032E+1  -2.39386E+3
   1.13847E+3  -1.57032E+3
   2.74874E+3   2.16374E+3
   2.37188E+3   2.34812E+2
  -2.49379E+3   1.16398E+3
   5.85293E+2   1.19220E+3
  -4.31505E+2  -1.09496E+3
   7.31616E+2   1.95490E+0
  -6.71223E+2  -1.58791E+3
   1.25918E+3   5.33238E+2
   2.66905E+3  -6.65204E+2
   2.17165E+3  -5.45017E+2
  -1.28307E+3   4.16440E+2
   8.01091E+2  -1.30783E+3
  -1.97168E+2  -1.82318E+3
   3.10988E+3   8.70180E+2
   1.21988E+3   1.47379E+3
   4.25004E+1   6.44168E+2
  -1.03482E+3  -3.94054E+2
  -7.74900E+2  -6.24646E+2
  -1.49227E+3   1.35605E+3
   1.70576E+2   4.69107E+2
  -2.45757E+2  -1.18881E+2
   5.11244E+1   4.41811E+2
   1.25041E+3   6.78607E+2
   1.41226E+3   5.61958E+2
  -4.05460E+2   1.06949E+3
