 
 $NMID
 ID=''
 FMTDAT='(2E13.5)'
 TRAMP=   1.00000E+0
 VOLUME=   1.00000E+0
 $END
   2.94218E+2  -3.58306E+2
   1.19195E+3   1.21600E+3
   9.86941E+2  -3.57843E+3
  -9.97397E+2  -1.33639E+3
  -2.48440E+2  -1.24688E+2
  -1.37575E+3  -1.58634E+3
  -8.45245E+2   2.35015E+1
  -3.53809E+3   1.00186E+3
  -1.88817E+3   1.47526E+3
  -6.13732E+1   1.25705E+2
  -7.64442E+2   1.74606E+3
   3.93351E+3   1.80547E+2
   4.09714E+3   2.80855E+3
   2.83035E+3   3.73534E+3
  -7.43370E+2   4.89154E+2
   3.85942E+3  -2.79680E+3
   1.87318E+3  -2.61641E+3
   2.50018E+3  -4.29100E+3
   2.24101E+3  -3.25547E+1
  -2.02708E+3  -2.51976E+3
   1.44825E+3  -4.18678E+3
   1.79926E+3   1.36808E+3
  -9.73918E+2   4.44586E+3
  -5.13299E+3  -9.13909E+2
   6.81776E+2  -4.12734E+2
   3.30093E+3  -2.23727E+2
   3.13737E+3   8.78114E+2
  -3.58994E+3   3.15743E+3
  -3.64991E+3  -8.73135E+2
   2.37108E+3  -7.68843E+3
   8.00726E+3  -1.49517E+3
  -9.45539E+1   6.12840E+3
  -4.77175E+3   3.29352E+3
  -8.39039E+2   1.56131E+2
  -1.15984E+3   2.01545E+3
  -5.50362E+3  -2.90555E+1
  -3.59384E+3  -3.87030E+3
   2.41694E+3  -3.52282E+2
   2.34764E+3   6.43421E+2
   1.80374E+3  -1.95548E+3
   3.05385E+3   2.76565E+3
  -6.32774E+2   5.31866E+3
  -5.30514E+3  -3.28019E+2
  -2.23431E+3  -4.79068E+3
   1.29607E+2  -2.00669E+3
  -9.18993E+2  -1.96769E+3
   2.75216E+2  -8.24769E+2
   9.86530E+1  -3.70235E+2
  -1.11168E+3   2.20653E+3
  -5.72121E+2   2.81015E+3
  -1.62234E+3   6.34934E+2
  -1.60535E+3  -1.53956E+3
  -7.66244E+2  -1.53202E+3
  -1.81093E+2  -4.94127E+2
   1.59723E+3   1.86787E+3
   1.57746E+3   3.74821E+2
  -1.54152E+3   4.33233E+3
  -5.14634E+3   2.03982E+3
  -5.38090E+3  -1.00550E+2
  -1.99830E+3  -1.06436E+3
  -9.87083E+1  -4.37050E+3
   1.32041E+3  -2.43493E+3
   3.72402E+3  -4.74650E+2
   1.83495E+3   2.31680E+2
  -6.29035E+2  -1.28771E+3
   9.23103E+2  -8.97086E+2
   3.09053E+3   1.33002E+3
   1.17222E+3   7.49849E+2
  -9.92254E+2   6.34292E+2
   5.40498E+2   4.03548E+2
   7.83859E+2   3.96218E+2
   2.71414E+3   3.15524E+2
  -9.88632E+1  -2.85618E+2
   2.43888E+2  -1.73895E+3
   4.34556E+3   8.14129E+2
   1.66759E+3  -6.99323E+2
   2.49290E+3   1.64665E+3
   1.54843E+3   6.83450E+2
  -9.57239E+1  -6.23707E+2
   2.62851E+3  -3.35578E+2
   2.65240E+2   1.56015E+3
  -1.08343E+3   2.42183E+3
   1.65857E+3   1.37014E+3
   1.38122E+2   9.81338E+2
  -1.63851E+3   2.32047E+3
   2.10677E+2   1.75814E+3
  -1.94692E+3  -1.14338E+3
  -1.54321E+3  -2.54999E+3
   1.17913E+3   1.30448E+3
  -3.43171E+2   1.15501E+3
   6.90350E+2  -4.09801E+2
  -7.02075E+2  -2.30541E+3
   8.99451E+2   6.33843E+1
   2.85140E+2   2.77145E+3
  -2.30301E+3   7.80405E+2
  -2.30659E+3  -1.06653E+3
   1.32985E+2  -9.67017E+2
  -8.65558E+1  -8.22067E+2
   9.20151E+2   7.10132E+2
  -2.20161E+3   1.03432E+3
  -4.65035E+3   4.27103E+2
  -2.15415E+3  -1.39435E+3
   1.98318E+3  -1.97037E+3
   2.37859E+2  -1.34546E+3
   1.46397E+3   9.41860E+1
  -2.12340E+2  -1.54531E+3
   4.47635E+2  -1.64929E+3
  -1.74734E+3  -5.78487E+1
   5.18301E+2  -1.05411E+3
   1.06977E+3   1.12707E+3
  -3.59363E+2  -8.24845E+2
  -1.36933E+3  -1.19602E+3
   1.13682E+3  -2.31376E+1
   2.78220E+3   2.08821E+3
  -4.04115E+0   1.65814E+3
  -1.16864E+3  -1.00328E+3
  -1.09133E+3  -1.17585E+2
   8.74398E+2  -1.84848E+3
  -2.61784E+2   9.04247E+2
   4.61845E+2  -2.39612E+3
   1.57845E+3  -3.29344E+3
   1.26606E+3   1.87071E+3
   7.23856E+2  -3.51237E+2
  -9.76184E+2  -1.28184E+2
   1.63102E+3   3.70567E+2
  -9.76038E+2  -1.20350E+3
  -2.83797E+2  -4.00440E+2
  -7.87387E+2   1.85075E+2
  -6.31924E+1   2.21521E+2
  -1.74976E+3   1.43381E+2
  -7.90099E+2  -2.46986E+2
   7.98564E+2   9.59360E+2
   6.25203E+2  -9.68101E+2
  -8.63105E+2   1.62527E+3
   1.75686E+3   7.01754E+1
  -4.08031E+2   5.40465E+2
  -1.67212E+2  -1.19283E+3
  -6.65655E+2   1.51419E+3
  -1.49686E+3   3.10775E+3
   3.56341E+2   9.28844E+2
   1.47909E+2   1.63673E+3
  -1.06580E+2   8.88020E+1
   4.72558E+2  -3.96359E+2
  -5.67111E+2  -9.92127E+2
   2.55839E+2  -2.17169E+3
   1.03125E+3   5.94284E+1
  -4.19959E+1  -1.33056E+3
  -1.98827E+2  -4.95390E+2
   1.35095E+2   2.67990E+2
   2.49768E+2  -3.38635E+2
  -3.26054E+1   1.29517E+3
  -1.67100E+2   2.13853E+3
  -2.31470E+2   2.07646E+3
   1.88890E+3   1.67350E+3
   1.14058E+3  -3.35621E+0
   2.54509E+1   9.79164E+2
  -1.44087E+3  -2.35128E+3
   9.40021E+2   2.43125E+1
  -1.94202E+3   3.82929E+1
  -5.92805E+2   2.04076E+3
  -3.10262E+2   7.69284E+2
  -6.48227E+2  -3.46364E+3
  -6.99661E+2  -2.86587E+1
  -1.86099E+3  -9.90558E+2
  -2.21499E+2   2.58757E+2
  -1.09601E+3   6.49219E+2
  -5.30569E+2   1.68715E+2
   7.45345E+2   1.99263E+2
  -8.44233E+2   2.25368E+3
   3.98275E+2   1.60903E+3
   7.25506E+2   7.41189E+2
  -2.50979E+2   6.19562E+2
  -8.62185E+2   1.71993E+3
  -4.46863E+2  -1.54360E+3
   5.88354E+2  -5.07337E+2
  -4.19637E+2   4.47680E+2
   8.21542E+2   1.30427E+3
  -4.36766E+2   4.12811E+1
  -1.20228E+3   5.03460E+2
  -5.29293E+2  -1.66323E+3
  -1.28576E+2   1.10660E+3
  -7.67556E+0  -9.95118E+2
  -2.48267E+3   2.03504E+3
  -1.25748E+3   9.54142E+2
   5.18366E+2   1.20332E+3
  -1.26562E+2  -1.53129E+2
   1.71856E+3   4.59562E+2
  -1.10928E+3  -1.25497E+3
   9.59408E+2  -6.75255E+2
   5.09110E+2   4.02015E+2
  -1.39552E+3  -2.64174E+2
   3.96561E+2  -7.49447E+2
  -2.05221E+2  -1.09345E+3
   1.02648E+3  -1.76283E+2
  -5.84071E+2   9.98488E+2
  -1.76593E+3  -8.98813E+2
  -7.20041E+2   1.52727E+3
   1.25395E+1   3.82581E+2
   7.23381E+2   5.39185E+2
   6.45448E+2   4.53807E+2
  -8.86999E+2   1.86763E+2
   5.30514E+2   1.96721E+2
   1.87658E+2   1.73889E+1
   8.44160E+2  -1.75284E+3
   5.73996E+1   6.29757E+2
  -5.09692E+2  -1.28635E+3
   2.39303E+2  -7.29174E+2
  -4.26690E+2   9.01255E+2
   5.58148E+1  -9.42787E+2
  -7.10773E+2   3.90157E+1
  -9.43244E+2  -4.49322E+2
   1.73782E+3   1.01569E+3
   1.04374E+3  -9.95733E+2
   1.90913E+2  -7.96670E+2
  -1.70753E+3  -4.34336E+2
  -8.11545E+2  -8.00983E+1
   9.44724E+2  -7.65384E+2
   2.40127E+2  -4.12915E+2
   3.17273E+1  -1.31082E+3
  -5.37530E+2  -7.01050E+2
   9.70904E+2  -7.79373E+2
  -7.84782E+2   1.31506E+2
  -1.29040E+3  -1.94125E+3
   1.60039E+3  -8.63236E+2
  -1.36392E+3  -1.37909E+3
  -6.86323E+2  -1.01881E+3
  -4.09588E+2  -5.69972E+1
  -4.36731E+2  -1.09533E+3
  -8.95406E+2   3.59209E+2
   1.59533E+3  -3.39088E+1
  -1.14358E+3   3.39880E+2
  -1.41592E+3  -5.47027E+2
  -2.61989E+3  -5.72465E+2
   6.05191E+2  -9.63634E+2
  -9.97196E+2   4.70466E+2
  -2.26836E+2  -4.16887E+2
  -3.49855E+2   1.09029E+3
  -2.24159E+3   8.41796E+2
  -1.60773E+3  -1.15542E+3
  -9.10076E+1  -5.53885E+2
   3.02953E+2   7.17210E+2
   4.78961E+2  -1.41802E+3
  -5.31178E+2  -2.50655E+2
   5.70620E+2  -8.06079E+2
   1.55869E+3  -6.85552E+2
  -9.02134E+2  -1.14568E+3
   1.72815E+2   6.69523E+2
  -1.33476E+3  -1.20289E+3
  -1.46496E+2  -2.51478E+3
  -1.65834E+3  -9.71179E+1
  -4.79183E+1   2.04378E+2
  -7.18251E+2   7.49105E+2
   1.72441E+3  -1.87600E+3
   4.82587E+2  -1.46584E+3
  -6.55865E+2  -1.77556E+2
  -1.08607E+2  -7.77213E+2
  -3.21778E+2   2.22014E+3
   2.18963E+3   1.54784E+2
   2.75928E+3  -6.01710E+2
   8.14379E+2  -7.01683E+2
  -3.15108E+2   8.66386E+2
  -1.29324E+3  -6.81706E+2
  -7.55855E+2  -8.29843E+1
  -1.12308E+3   5.90253E+2
   1.91524E+3  -6.15351E+2
  -1.36003E+3   1.21422E+3
  -1.37252E+3  -7.08638E+2
  -9.29791E+2   1.83668E+3
   7.00593E+1  -2.31557E+3
   5.51619E+2  -2.97093E+3
  -1.31798E+3   4.57109E+2
   4.19818E+2   2.51857E+2
   1.88727E+3  -6.81134E+2
   7.01555E+2   1.80431E+3
  -2.00902E+3  -1.30042E+3
   5.14819E+2  -5.20574E+2
   1.03648E+3   9.98755E+2
  -3.01710E+1  -6.03730E+2
  -1.41603E+3  -6.81801E+1
   7.12854E+1  -7.32851E+2
   1.38025E+2   8.60897E+2
   1.36445E+3   4.71375E+2
   4.97787E+2  -1.31351E+3
  -7.21645E+2   2.20092E+3
  -1.48862E+3   4.57476E+2
  -4.16336E+2   6.67148E+1
   1.28853E+3  -2.80895E+0
  -1.06648E+3  -7.17545E+2
   1.25137E+3   1.41458E+3
   1.51351E+3   8.83682E+2
  -1.79263E+2  -3.18705E+2
  -6.78957E+2  -8.47895E+1
  -2.73314E+1  -5.20021E+2
   5.51036E+2  -1.38562E+3
   8.01996E+2   1.31990E+2
   1.47279E+3  -1.09157E+3
  -8.51726E+2  -1.66124E+3
  -9.34437E+2   1.04804E+2
   9.55826E+2   7.25766E+2
   1.29565E+3   1.16403E+3
   1.15790E+3  -2.45399E+2
   5.71914E+2   1.01725E+3
   4.58946E+2   1.02621E+2
  -2.80320E+2   1.13068E+1
  -2.35553E+3   1.64192E+3
   5.37939E+2  -5.11750E+2
   1.47970E+3  -5.11661E+2
   6.66752E+2   3.53220E+2
  -4.78963E+2   1.12025E+3
   1.63723E+3  -5.34004E+2
   1.52059E+2   1.33895E+3
   2.30585E+3   7.08301E+2
   1.19923E+3  -4.20316E+2
   6.30177E+2  -1.69040E+3
  -3.91301E+2   1.76120E+3
  -2.62802E+2  -2.78557E+2
  -7.65473E+2  -1.14781E+3
   8.43356E+2   1.09290E+3
   8.57850E+2  -8.41479E+2
   8.70990E+2  -2.51956E+2
   1.07810E+3   2.00656E+2
   4.64346E+2  -1.59594E+3
  -3.88078E+2  -1.35879E+3
   1.94277E+3   6.42991E+1
   2.18746E+3  -5.49775E+1
   1.34640E+3  -2.92652E+2
   2.59761E+2   4.04583E+1
   1.16662E+3  -6.96893E+1
   9.37651E+2  -1.12518E+3
  -2.05900E+2  -1.24397E+3
   6.04101E+2   1.95199E+3
   6.87624E+1  -2.84861E+2
   1.06310E+3  -5.92120E+2
  -5.69510E+2  -1.43608E+3
   1.68010E+3   7.33587E+2
  -1.24655E+2   3.96942E+2
  -1.14888E+3   5.51188E+2
   6.77530E+2   1.09774E+3
   3.16301E+2  -1.46364E+3
   1.69598E+3  -1.08446E+3
  -3.79354E+1  -2.84839E+2
   1.00202E+2   1.55380E+3
  -5.66222E+0   1.07244E+3
  -1.28664E+3   1.21643E+2
   7.36545E+1  -1.43139E+3
  -8.72950E+2  -6.46774E+2
   4.46209E+2   3.18147E+2
   2.51238E+2   5.80377E+2
  -1.36832E+2   5.06753E+2
  -1.52057E+2   3.35741E+2
   1.67228E+3   2.06348E+2
  -6.87351E+2  -3.62948E+2
  -1.63827E+1  -1.30593E+3
   2.23002E+2   1.60054E+3
  -1.12980E+3  -2.61441E+2
  -1.03132E+3  -1.13512E+3
  -2.17608E+2  -4.96280E+2
   1.30081E+3   9.94522E+2
  -1.27945E+3   2.01734E+2
   1.23243E+3   1.68713E+2
   9.87574E+2  -6.68889E+1
   2.21845E+2  -1.47764E+2
  -1.18565E+3   1.11612E+2
  -1.22683E+3  -2.80210E+2
   8.41172E+2   1.69099E+2
  -6.70626E+2   2.10649E+2
  -2.46740E+3   3.68714E+2
