 LCModel (Version 6.3-1N) Copyright: S.W. Provencher.          Ref.: Magn. Reson. Med. 30:672-679 (1993).                
 Slice_N1@23_20  02-Jun-2023 14:37:34
 27 lines in following concentration table = NCONC+1
    Conc.  %SD /Cr+PCr  Metabolite                                         
 2.04E-06  17% 2.8E-04 Mac                                                 
 4.05E-02  32%   5.475 Cr                                                  
 1.87E-02  70%   2.525 PCr                                                 
 7.17E-02  13%   9.695 Ins                                                 
 7.43E-02  10%  10.045 NAA                                                 
 7.59E-02  12%  10.255 Tau                                                 
 1.89E-02  18%   2.557 PCho                                                
    0.000 999%   0.000 GPC                                                 
 5.76E-02  18%   7.780 Glu                                                 
 2.96E-02  26%   4.000 Gln                                                 
    0.000 999%   0.000 Ala                                                 
 4.76E-02  29%   6.436 Asc                                                 
 7.50E-03  85%   1.013 Asp                                                 
 7.02E-03  51%   0.948 GABA                                                
 4.88E-03  83%   0.659 Glc                                                 
 1.09E-02  42%   1.479 GSH                                                 
    0.000 999%   0.000 Lac                                                 
    0.000 999%   0.000 NAAG                                                
 8.55E-05 999% 1.2E-02 PE                                                  
 1.89E-02  18%   2.557 GPC+PCho                                            
 7.43E-02  10%  10.045 NAA+NAAG                                            
 8.72E-02  14%  11.780 Glu+Gln                                             
 5.92E-02  11%   8.000 Cr+PCr                                              
 7.43E-02  10%  10.045 NAA+NAAG                                            
 5.92E-02  11%   8.000 Cr+PCr                                              
 8.72E-02  14%  11.780 Glu+Gln                                             
   6 lines in following misc. output table
  FWHM = 0.041 ppm    S/N =   2                                            
  Data shift = 0.029 ppm                                                   
  Ph:  23 deg      -7.2 deg/ppm                                            
  alphaB,S = 3.1E+01,   5.5E+01                                            
   18 spline knots.   Ns = 8(1)                                            
  ( 4) 2 infls.   ( 2) 1 extrs.                                            
  654 points on ppm-axis = NY
      4.000000     3.994181     3.988363     3.982544     3.976726     3.970907     3.965088     3.959270     3.953451     3.947633
      3.941814     3.935995     3.930177     3.924358     3.918540     3.912721     3.906902     3.901084     3.895265     3.889446
      3.883628     3.877809     3.871991     3.866172     3.860353     3.854535     3.848716     3.842898     3.837079     3.831260
      3.825442     3.819623     3.813805     3.807986     3.802167     3.796349     3.790530     3.784712     3.778893     3.773074
      3.767256     3.761437     3.755619     3.749800     3.743981     3.738163     3.732344     3.726526     3.720707     3.714888
      3.709070     3.703251     3.697433     3.691614     3.685795     3.679977     3.674158     3.668339     3.662521     3.656702
      3.650884     3.645065     3.639246     3.633428     3.627609     3.621791     3.615972     3.610153     3.604335     3.598516
      3.592698     3.586879     3.581060     3.575242     3.569423     3.563605     3.557786     3.551967     3.546149     3.540330
      3.534512     3.528693     3.522874     3.517056     3.511237     3.505419     3.499600     3.493781     3.487963     3.482144
      3.476326     3.470507     3.464688     3.458870     3.453051     3.447232     3.441414     3.435595     3.429777     3.423958
      3.418139     3.412321     3.406502     3.400684     3.394865     3.389046     3.383228     3.377409     3.371591     3.365772
      3.359953     3.354135     3.348316     3.342498     3.336679     3.330860     3.325042     3.319223     3.313405     3.307586
      3.301767     3.295949     3.290130     3.284312     3.278493     3.272674     3.266856     3.261037     3.255219     3.249400
      3.243581     3.237763     3.231944     3.226125     3.220307     3.214488     3.208670     3.202851     3.197032     3.191214
      3.185395     3.179577     3.173758     3.167939     3.162121     3.156302     3.150484     3.144665     3.138846     3.133028
      3.127209     3.121391     3.115572     3.109753     3.103935     3.098116     3.092298     3.086479     3.080660     3.074842
      3.069023     3.063205     3.057386     3.051567     3.045749     3.039930     3.034111     3.028293     3.022474     3.016656
      3.010837     3.005018     2.999200     2.993381     2.987563     2.981744     2.975925     2.970107     2.964288     2.958470
      2.952651     2.946832     2.941014     2.935195     2.929377     2.923558     2.917739     2.911921     2.906102     2.900284
      2.894465     2.888646     2.882828     2.877009     2.871191     2.865372     2.859553     2.853735     2.847916     2.842098
      2.836279     2.830460     2.824642     2.818823     2.813004     2.807186     2.801367     2.795549     2.789730     2.783911
      2.778093     2.772274     2.766456     2.760637     2.754818     2.749000     2.743181     2.737363     2.731544     2.725725
      2.719907     2.714088     2.708270     2.702451     2.696632     2.690814     2.684995     2.679177     2.673358     2.667539
      2.661721     2.655902     2.650084     2.644265     2.638446     2.632628     2.626809     2.620991     2.615172     2.609353
      2.603535     2.597716     2.591897     2.586079     2.580260     2.574442     2.568623     2.562804     2.556986     2.551167
      2.545349     2.539530     2.533711     2.527893     2.522074     2.516256     2.510437     2.504618     2.498800     2.492981
      2.487163     2.481344     2.475525     2.469707     2.463888     2.458070     2.452251     2.446432     2.440614     2.434795
      2.428977     2.423158     2.417339     2.411521     2.405702     2.399884     2.394065     2.388246     2.382428     2.376609
      2.370790     2.364972     2.359153     2.353335     2.347516     2.341697     2.335879     2.330060     2.324242     2.318423
      2.312604     2.306786     2.300967     2.295149     2.289330     2.283511     2.277693     2.271874     2.266056     2.260237
      2.254418     2.248600     2.242781     2.236963     2.231144     2.225325     2.219507     2.213688     2.207870     2.202051
      2.196232     2.190414     2.184595     2.178777     2.172958     2.167139     2.161321     2.155502     2.149683     2.143865
      2.138046     2.132228     2.126409     2.120590     2.114772     2.108953     2.103135     2.097316     2.091497     2.085679
      2.079860     2.074042     2.068223     2.062404     2.056586     2.050767     2.044949     2.039130     2.033311     2.027493
      2.021674     2.015856     2.010037     2.004218     1.998400     1.992581     1.986763     1.980944     1.975126     1.969307
      1.963489     1.957670     1.951852     1.946033     1.940215     1.934397     1.928578     1.922760     1.916941     1.911123
      1.905304     1.899486     1.893667     1.887849     1.882030     1.876212     1.870393     1.864575     1.858756     1.852938
      1.847119     1.841301     1.835482     1.829664     1.823845     1.818027     1.812208     1.806390     1.800571     1.794753
      1.788934     1.783116     1.777297     1.771479     1.765660     1.759842     1.754023     1.748205     1.742386     1.736568
      1.730749     1.724931     1.719113     1.713294     1.707476     1.701657     1.695839     1.690020     1.684202     1.678383
      1.672565     1.666746     1.660928     1.655109     1.649291     1.643472     1.637654     1.631835     1.626017     1.620198
      1.614380     1.608561     1.602743     1.596924     1.591106     1.585287     1.579469     1.573650     1.567832     1.562013
      1.556195     1.550376     1.544558     1.538739     1.532921     1.527102     1.521284     1.515465     1.509647     1.503829
      1.498010     1.492192     1.486373     1.480555     1.474736     1.468918     1.463099     1.457281     1.451462     1.445644
      1.439825     1.434007     1.428188     1.422370     1.416551     1.410733     1.404914     1.399096     1.393277     1.387459
      1.381640     1.375822     1.370003     1.364185     1.358366     1.352548     1.346729     1.340911     1.335092     1.329274
      1.323455     1.317637     1.311818     1.306000     1.300182     1.294363     1.288545     1.282726     1.276908     1.271089
      1.265271     1.259452     1.253634     1.247815     1.241997     1.236178     1.230360     1.224541     1.218723     1.212904
      1.207086     1.201267     1.195449     1.189630     1.183812     1.177993     1.172175     1.166356     1.160538     1.154719
      1.148901     1.143082     1.137264     1.131445     1.125627     1.119808     1.113990     1.108171     1.102353     1.096534
      1.090716     1.084898     1.079079     1.073261     1.067442     1.061624     1.055805     1.049987     1.044168     1.038350
      1.032531     1.026713     1.020894     1.015076     1.009257     1.003439     0.997620     0.991802     0.985983     0.980165
      0.974346     0.968528     0.962709     0.956891     0.951072     0.945254     0.939435     0.933617     0.927798     0.921980
      0.916161     0.910343     0.904524     0.898706     0.892887     0.887069     0.881251     0.875432     0.869614     0.863795
      0.857977     0.852158     0.846340     0.840521     0.834703     0.828884     0.823066     0.817247     0.811429     0.805610
      0.799792     0.793973     0.788155     0.782336     0.776518     0.770699     0.764881     0.759062     0.753244     0.747425
      0.741607     0.735788     0.729970     0.724151     0.718333     0.712514     0.706696     0.700877     0.695059     0.689240
      0.683422     0.677603     0.671785     0.665967     0.660148     0.654330     0.648511     0.642693     0.636874     0.631056
      0.625237     0.619419     0.613600     0.607782     0.601963     0.596145     0.590326     0.584508     0.578689     0.572871
      0.567052     0.561234     0.555415     0.549597     0.543778     0.537960     0.532141     0.526323     0.520504     0.514686
      0.508867     0.503049     0.497230     0.491412     0.485593     0.479775     0.473956     0.468138     0.462319     0.456501
      0.450682     0.444864     0.439045     0.433227     0.427408     0.421590     0.415771     0.409953     0.404134     0.398316
      0.392497     0.386679     0.380860     0.375042     0.369223     0.363405     0.357586     0.351767     0.345949     0.340130
      0.334312     0.328493     0.322675     0.316856     0.311038     0.305219     0.299401     0.293582     0.287764     0.281945
      0.276127     0.270308     0.264490     0.258671     0.252853     0.247034     0.241216     0.235397     0.229579     0.223760
      0.217942     0.212123     0.206305     0.200486
 NY phased data points follow
   7.05992E-03  2.28993E-01  2.68287E-01  4.67440E-01  2.96676E-02 -3.46971E-01 -1.58508E-01 -1.23138E-02  1.91812E-01  3.51712E-03
   2.78852E-01  3.79477E-01  1.24640E-01  4.75289E-03  2.50113E-01  6.08555E-01  1.96925E-01  1.98289E-01  2.55138E-01 -9.33522E-02
   6.43277E-02  1.45927E-01  1.99260E-01  6.30683E-02 -1.83237E-01 -4.86125E-02 -3.98362E-01 -1.98800E-01 -2.58693E-02 -1.78706E-02
  -1.77595E-01 -3.17921E-01 -7.13609E-03 -3.71628E-01 -3.30266E-01 -6.37703E-01 -5.16046E-01 -1.93598E-01 -2.16206E-01 -6.03091E-02
  -9.68369E-02  7.07480E-02  2.01015E-01  2.54726E-01  1.86556E-01  5.17080E-01  4.41925E-01  4.78669E-01  2.21504E-01  3.16473E-01
   4.20178E-01  3.05427E-02  2.04086E-01 -3.69566E-01  8.10915E-03 -3.87769E-02 -3.38200E-01 -5.40544E-02 -1.85811E-01 -1.32214E-01
  -3.51347E-01 -3.14661E-01 -1.71772E-01  1.02318E-01 -7.15501E-02 -1.47322E-01 -4.27290E-02 -3.36530E-02  2.07005E-01  1.39944E-01
   2.76115E-01  3.12462E-01  2.33499E-01  1.09403E-02 -1.96874E-01 -1.83763E-01 -3.32508E-02 -2.30774E-03 -5.23612E-01 -3.18937E-01
   1.58867E-01 -2.55578E-01 -7.57464E-02  3.23128E-01  1.50018E-01  4.32731E-01  3.64439E-01  8.34393E-02  7.25469E-03  1.03964E-01
   5.05075E-01  3.32107E-02 -5.14897E-02  1.43041E-01 -1.50584E-01  1.46724E-01  6.21634E-02 -1.41352E-01 -2.04098E-01 -2.08339E-01
  -7.20888E-02 -1.56817E-01  4.42086E-02 -3.41905E-01 -1.57076E-01  5.93857E-01  3.07457E-01  5.65536E-01  7.34804E-01  1.40402E-01
   5.64442E-02  3.98728E-01  5.95362E-01  3.98839E-01  4.83070E-02  4.27278E-01  2.51756E-01  4.24443E-02  6.68042E-01  1.20524E-01
   2.09804E-01  2.97973E-01  6.87500E-02  1.59255E-01 -5.70668E-02 -1.86204E-02 -4.60112E-01 -1.85165E-01 -1.77040E-01 -5.13688E-01
  -7.25544E-01 -7.40590E-01 -5.47470E-01 -7.79889E-01 -5.55199E-01 -6.70913E-01 -7.34541E-01 -8.20640E-01 -6.78241E-01 -5.47013E-01
  -7.25513E-01 -2.49310E-01 -1.59305E-01  2.25136E-03  1.30906E-01 -1.36265E-01  2.29227E-01 -1.05747E-02 -8.99590E-03  3.50528E-01
   2.01205E-01  3.76188E-01  1.29795E-01  5.02908E-01  3.04303E-01  3.85710E-02  3.37162E-01  1.77502E-01  3.32375E-01  3.79818E-01
   5.46539E-01  3.34174E-01  3.32946E-01  2.98081E-01  6.17790E-01  8.38548E-01  5.69341E-01  2.18646E-01 -1.66901E-01 -2.60092E-02
  -6.18351E-01 -7.82448E-01 -5.71572E-01 -6.77615E-01 -5.37173E-01 -2.94598E-01 -1.83668E-01 -3.30819E-01 -3.97259E-01  5.75979E-02
  -3.16061E-01 -3.46405E-01  8.52708E-02 -3.73049E-01 -2.44308E-02 -4.14513E-01 -5.79341E-01 -5.90272E-01 -3.18376E-01  2.28581E-01
  -2.51485E-01 -1.99749E-02 -4.39983E-02 -3.16821E-01 -2.43826E-01 -1.09940E-01 -1.12039E-01  1.18794E-01  5.51196E-02 -5.93860E-02
   9.64189E-02  1.94808E-02 -1.86804E-01 -1.62234E-01  9.39701E-02  9.48426E-05  1.54893E-01 -1.61939E-01 -1.40284E-01 -3.12262E-02
  -2.83794E-01  7.30477E-02  2.54817E-02 -1.32498E-01  1.29623E-01 -4.85728E-02 -1.06766E-01  3.03623E-01  8.99703E-02  1.07998E-01
  -2.97142E-01 -3.17195E-01  4.69274E-01  1.01378E-01 -2.91278E-02  8.31297E-02  3.28387E-01  4.62349E-01  3.06095E-01  3.89773E-01
  -7.45074E-02  7.27244E-02  4.30575E-01  7.60856E-02 -1.02698E-01  2.65773E-01  1.03455E-01 -1.40517E-01 -7.47767E-02 -4.51468E-01
  -3.32749E-01 -4.66239E-01 -2.09036E-01 -2.21534E-01 -3.01958E-01 -8.20440E-02 -4.75654E-02  1.98585E-01 -4.48944E-01 -1.69950E-01
   4.71816E-02  4.94102E-02  3.79938E-01  1.54353E-02 -3.67657E-01 -2.31748E-02  2.33281E-01 -2.26584E-02  2.28876E-01  1.94361E-01
   2.31871E-01  5.20343E-01  3.38897E-01 -9.90591E-02  8.58484E-03 -3.90188E-02  1.92715E-01  1.58036E-01  1.88242E-01  3.79271E-01
   1.53704E-02  5.30292E-01  1.78330E-01  1.71302E-03  1.77981E-01  6.71588E-02 -1.41776E-01 -1.44185E-02  1.57302E-01 -1.77901E-01
  -2.79059E-01 -5.82048E-01 -3.04606E-01 -1.48739E-01  1.02494E-01  2.21747E-01  3.77043E-01  3.28184E-01  2.25925E-01  6.48989E-01
   2.78015E-01  2.77909E-02  9.39508E-02  6.62993E-02  7.82522E-02  2.08550E-01  2.06294E-01  1.36895E-01  1.13650E-01  2.65130E-01
   3.02024E-01  1.34656E-01 -5.35106E-02  3.47672E-01  3.58575E-01 -2.07666E-01  4.47682E-01  3.80065E-01  9.89254E-02  2.63448E-01
   2.33793E-01  4.48958E-01  3.55900E-02  1.01104E-01  2.27796E-01 -3.09970E-02  9.00409E-02 -5.70848E-02  9.36433E-02 -2.52768E-01
  -1.42403E-01  1.25738E-01 -6.06678E-01 -6.76405E-01 -6.33251E-01 -3.71052E-01 -2.57849E-01  2.35990E-01  1.09178E-01 -1.36899E-01
   2.74736E-01 -2.03507E-02  1.53414E-01  4.94697E-02 -1.03874E-01 -1.80425E-01 -2.03910E-01 -1.58458E-01 -1.48808E-01 -3.46439E-01
  -6.99038E-01 -6.72395E-01 -7.46636E-01 -1.16675E+00 -8.56709E-01 -3.68984E-01 -5.82977E-01 -2.35009E-01 -1.34813E-01  1.45713E-01
   1.80301E-01  5.46773E-01  2.74587E-01  1.18332E-01  5.42505E-01 -2.13834E-03  4.31019E-01 -5.95591E-02  8.49801E-03 -1.36119E-01
  -3.10361E-02  1.93929E-01 -7.23197E-02  2.41947E-01 -1.30812E-01  4.87538E-01 -2.13337E-01 -1.47728E-02  2.63419E-01  3.92235E-02
   1.88811E-01 -1.55196E-01  5.30995E-01 -1.04430E-01 -5.11584E-02  1.30061E-01 -3.01294E-02  1.16500E-01  2.61516E-02  6.53904E-02
  -7.26995E-02  1.45639E-01 -2.96629E-02 -2.39089E-02  2.24272E-02 -1.11483E-01 -4.68524E-02  1.37856E-01  1.79675E-01  1.82023E-01
  -1.47904E-01  1.22397E-01  4.19399E-01  2.57092E-01  4.16172E-01 -1.42694E-01  3.43698E-01  3.83978E-01  1.80095E-01  5.28920E-01
   6.91645E-02 -7.15981E-02 -1.53108E-01 -4.14747E-03 -1.19037E-01 -2.15927E-01  2.89834E-03  6.94929E-02 -1.95120E-02 -1.97498E-01
  -1.68606E-01 -7.18042E-02 -8.26694E-02 -1.75449E-01 -2.47472E-02  1.07361E-01 -5.01644E-01 -3.95458E-01  1.40868E-01 -8.53320E-02
   3.87056E-02 -1.94244E-01 -3.09292E-01 -1.27317E-01  5.48770E-03 -1.43749E-01 -1.34246E-01 -1.93301E-01 -2.92115E-01  1.94071E-01
  -1.04288E-01 -1.73986E-01  6.12535E-02  2.02269E-01 -2.82200E-01  4.13594E-02  2.61577E-01 -1.43290E-01  2.18216E-01 -3.82902E-02
   1.21700E-01  8.86078E-02  1.66112E-01  1.52741E-01  7.13564E-02  1.55619E-02  6.18774E-03  1.86824E-01  1.17090E-01  3.60102E-01
   2.50284E-01  2.65289E-01  3.75352E-02  9.54395E-02  2.22883E-02 -1.05915E-01 -5.44797E-03 -8.55535E-02 -2.50830E-02 -2.03681E-01
  -9.27537E-02 -7.62511E-02 -5.15128E-02  5.79925E-02  2.11180E-01 -4.57886E-02 -3.32863E-01 -4.38901E-02  2.69375E-02 -8.26869E-02
  -4.65622E-02 -1.36941E-01 -1.23400E-01  1.33939E-02 -2.34522E-01 -2.07658E-01 -1.93981E-01 -2.87488E-01 -1.64105E-01 -4.00108E-02
  -7.21252E-02 -1.49107E-01 -3.82075E-04  7.47793E-02  6.88457E-02  7.19604E-02  2.33699E-01  4.45176E-01  1.41626E-01 -5.10373E-03
   1.33302E-01 -1.64306E-01 -1.29938E-01  1.20168E-01  1.20404E-02  1.33740E-02  1.89022E-01  2.14742E-01  2.81520E-01  1.32376E-01
   2.41092E-02 -2.34401E-01 -2.04726E-01  3.66310E-01  1.93613E-01  3.13907E-01  9.41539E-02  1.35402E-01  2.34864E-01 -9.90747E-03
   1.83958E-01 -3.10326E-01 -1.65910E-01  7.17006E-03  1.04542E-01  1.71952E-01  1.03746E-01  1.64477E-01 -8.44537E-02 -2.03190E-01
  -1.56510E-01  2.24350E-02 -4.12525E-01 -2.61867E-01 -1.70367E-01 -2.59261E-01  3.19939E-02 -3.05216E-01 -3.89778E-01 -2.19654E-01
  -3.69262E-02 -4.20971E-01 -4.78607E-01  3.56166E-02 -5.21030E-03 -2.30129E-02  6.69289E-02 -1.10979E-01 -2.95663E-01 -2.23489E-01
  -2.01151E-01 -3.01646E-01 -3.30776E-01 -8.36708E-02  7.52652E-04  6.61350E-02  1.51587E-01 -5.12705E-02 -1.05906E-01  1.53345E-01
   2.85524E-01  4.66360E-02 -2.93696E-02 -3.68737E-02  1.51808E-01  4.78408E-01  3.01539E-01  1.00951E-01  2.45889E-01 -2.59963E-03
   2.03912E-01  5.19108E-01 -4.48166E-02 -1.50684E-01 -1.34517E-02  1.64746E-01  3.30016E-01  3.22044E-01  1.58927E-01  9.03354E-02
   2.19454E-01  2.36365E-01  2.08961E-01 -1.93065E-02 -1.09856E-01  1.06084E-01  3.28757E-01  2.49163E-01  3.00577E-01  1.67467E-01
   2.79882E-02  1.51374E-01 -1.59891E-01 -1.32482E-01  2.33713E-01  1.35592E-01  2.25172E-02  1.89042E-03  3.26978E-01  4.87844E-01
  -6.02087E-02  4.69909E-02  8.15107E-02  8.93262E-02  9.46595E-02  3.86011E-02  3.19615E-01 -7.11040E-03  6.42221E-02  3.54347E-01
   2.43110E-01  2.32874E-01  1.87317E-01  1.79747E-01  2.81999E-01  1.40631E-01 -1.79682E-02 -2.39093E-01 -2.32931E-03  2.03335E-01
   2.12709E-02  2.56338E-02  5.69904E-02  3.57748E-01  1.21242E-01  8.84752E-02  1.81720E-01  8.71109E-02  1.39969E-01  2.95893E-01
   1.38446E-02  1.07124E-01  3.98958E-01 -3.32207E-01  2.38970E-02 -5.33526E-02 -8.31552E-02  3.54548E-01 -1.05741E-01 -1.53302E-01
   2.20018E-01  1.94172E-01  1.26861E-01  2.11658E-01 -1.61974E-01  2.61918E-01  2.89740E-01 -1.21255E-02 -9.30484E-02 -8.44859E-02
   9.65294E-02 -1.22418E-01  6.17901E-03 -3.86336E-02  6.12334E-02 -1.21995E-01 -2.16656E-01  1.22960E-01  8.36046E-02  4.04976E-02
  -1.08078E-01 -8.72515E-02  2.99467E-01  2.79904E-01
 NY points of the fit to the data follow
   1.60966E-01  1.42046E-01  1.11060E-01  7.70507E-02  4.84483E-02  3.10038E-02  2.46489E-02  2.96145E-02  5.51426E-02  9.55120E-02
   1.40612E-01  1.86485E-01  2.38058E-01  2.97965E-01  3.51894E-01  3.80018E-01  3.73936E-01  3.32240E-01  2.57449E-01  1.67457E-01
   7.91125E-02 -7.49054E-04 -6.58911E-02 -1.07654E-01 -1.22382E-01 -1.22913E-01 -1.31820E-01 -1.43472E-01 -1.54873E-01 -1.66036E-01
  -1.77945E-01 -1.91334E-01 -2.03993E-01 -2.16447E-01 -2.28889E-01 -2.38041E-01 -2.35481E-01 -2.12626E-01 -1.66967E-01 -1.00082E-01
  -2.02569E-02  6.62769E-02  1.51770E-01  2.30352E-01  2.96127E-01  3.42684E-01  3.67042E-01  3.70779E-01  3.55939E-01  3.22984E-01
   2.72632E-01  2.10892E-01  1.43268E-01  7.81599E-02  1.79942E-02 -3.85694E-02 -8.93828E-02 -1.39544E-01 -1.83615E-01 -2.13811E-01
  -2.26778E-01 -2.19672E-01 -1.92689E-01 -1.47381E-01 -8.29674E-02 -2.98669E-03  8.29596E-02  1.69377E-01  2.45688E-01  2.95727E-01
   3.16871E-01  3.06051E-01  2.59656E-01  1.89330E-01  1.07281E-01  2.28276E-02 -6.32316E-02 -1.49082E-01 -2.11223E-01 -2.39160E-01
  -2.29244E-01 -1.75274E-01 -7.62972E-02  5.09512E-02  1.79464E-01  2.90196E-01  3.64080E-01  3.87861E-01  3.68619E-01  3.24005E-01
   2.70127E-01  2.11598E-01  1.45809E-01  8.77657E-02  2.91854E-02 -4.00709E-02 -1.20686E-01 -2.04896E-01 -2.75301E-01 -3.09327E-01
  -2.90122E-01 -2.15235E-01 -9.51061E-02  4.55289E-02  1.81412E-01  2.90088E-01  3.55961E-01  3.78436E-01  3.69000E-01  3.41874E-01
   3.18383E-01  2.99534E-01  2.91100E-01  2.85416E-01  2.79902E-01  2.72131E-01  2.63903E-01  2.55199E-01  2.40637E-01  2.19723E-01
   1.90524E-01  1.48101E-01  9.48609E-02  2.91314E-02 -4.06436E-02 -1.13261E-01 -1.93419E-01 -2.83151E-01 -3.83828E-01 -4.90534E-01
  -5.70592E-01 -6.05517E-01 -6.16468E-01 -6.34555E-01 -6.79136E-01 -7.30723E-01 -7.58823E-01 -7.56828E-01 -7.06626E-01 -5.98990E-01
  -4.56439E-01 -2.87781E-01 -1.24231E-01  2.88354E-03  6.83231E-02  8.06681E-02  8.21406E-02  9.73462E-02  1.13654E-01  1.29329E-01
   1.44240E-01  1.58644E-01  1.72912E-01  1.87674E-01  2.03587E-01  2.21221E-01  2.41087E-01  2.64247E-01  2.92820E-01  3.29462E-01
   3.68732E-01  3.94913E-01  4.19935E-01  4.55087E-01  4.83380E-01  4.59285E-01  3.45617E-01  1.47631E-01 -9.50678E-02 -3.38385E-01
  -5.37558E-01 -6.54667E-01 -6.85303E-01 -6.38572E-01 -5.31546E-01 -4.06219E-01 -3.10036E-01 -2.67983E-01 -2.61326E-01 -2.48256E-01
  -2.34219E-01 -2.21462E-01 -2.10190E-01 -2.00873E-01 -1.91783E-01 -1.82831E-01 -1.74894E-01 -1.67745E-01 -1.60403E-01 -1.51598E-01
  -1.41861E-01 -1.31938E-01 -1.22133E-01 -1.12528E-01 -1.03115E-01 -9.37685E-02 -8.49742E-02 -7.68079E-02 -6.89711E-02 -6.08963E-02
  -5.31943E-02 -4.70330E-02 -4.27688E-02 -3.97745E-02 -3.74579E-02 -3.57870E-02 -3.51985E-02 -3.59918E-02 -3.78589E-02 -4.02515E-02
  -4.24248E-02 -4.38880E-02 -4.47215E-02 -4.45560E-02 -4.28705E-02 -3.98251E-02 -3.59397E-02 -3.02044E-02 -2.27358E-02 -1.45660E-02
  -4.45342E-03  1.28246E-02  4.32826E-02  8.41189E-02  1.23676E-01  1.55216E-01  1.80126E-01  2.00806E-01  2.15779E-01  2.19581E-01
   2.07138E-01  1.78681E-01  1.37657E-01  9.04220E-02  4.28584E-02 -5.14250E-03 -4.77527E-02 -7.58743E-02 -8.70524E-02 -8.68932E-02
  -8.65773E-02 -8.94626E-02 -9.20291E-02 -9.41377E-02 -9.53871E-02 -9.59325E-02 -9.62091E-02 -9.69191E-02 -9.92017E-02 -1.00813E-01
  -1.04075E-01 -1.10982E-01 -1.17238E-01 -1.17768E-01 -1.09267E-01 -9.30709E-02 -6.91592E-02 -3.67055E-02  5.99147E-04  3.43484E-02
   6.20591E-02  8.27596E-02  9.45477E-02  9.90015E-02  1.01094E-01  1.04215E-01  1.09709E-01  1.13633E-01  1.21989E-01  1.31426E-01
   1.32868E-01  1.25357E-01  1.07545E-01  8.19566E-02  4.73407E-02  6.42781E-03 -3.52221E-02 -7.58618E-02 -1.12892E-01 -1.46074E-01
  -1.73424E-01 -1.86406E-01 -1.77715E-01 -1.39348E-01 -7.11419E-02  1.93584E-02  1.17575E-01  2.06515E-01  2.70013E-01  3.01142E-01
   2.99246E-01  2.72934E-01  2.37574E-01  2.04906E-01  1.84498E-01  1.76816E-01  1.77503E-01  1.82989E-01  1.86303E-01  1.86070E-01
   1.82388E-01  1.75907E-01  1.68456E-01  1.60511E-01  1.53596E-01  1.46192E-01  1.38244E-01  1.28468E-01  1.16070E-01  1.00574E-01
   8.09768E-02  5.65010E-02  2.70329E-02 -7.92001E-03 -4.81090E-02 -9.21326E-02 -1.38643E-01 -1.84860E-01 -2.28328E-01 -2.65148E-01
  -2.91481E-01 -3.03297E-01 -2.98101E-01 -2.74565E-01 -2.33421E-01 -1.79733E-01 -1.19166E-01 -6.10194E-02 -1.33700E-02  1.75459E-02
   2.79444E-02  2.07264E-02  1.33125E-04 -2.76837E-02 -6.93075E-02 -1.23783E-01 -1.69556E-01 -2.11286E-01 -2.82174E-01 -4.16620E-01
  -6.03851E-01 -7.89302E-01 -9.17545E-01 -9.55369E-01 -8.86964E-01 -7.25267E-01 -5.13790E-01 -2.91406E-01 -9.47770E-02  3.39281E-02
   7.90703E-02  6.23889E-02  4.25082E-02  4.40212E-02  4.72456E-02  4.93713E-02  4.97242E-02  4.81125E-02  4.45640E-02  3.94082E-02
   3.33479E-02  2.72682E-02  2.24230E-02  1.97544E-02  2.00422E-02  2.33191E-02  2.89239E-02  3.60010E-02  4.36853E-02  5.10009E-02
   5.78705E-02  6.35889E-02  6.84359E-02  7.24717E-02  7.59596E-02  7.92130E-02  8.21768E-02  8.49867E-02  8.75648E-02  9.00157E-02
   9.23677E-02  9.47574E-02  9.70840E-02  9.92205E-02  1.01123E-01  1.02868E-01  1.04497E-01  1.06129E-01  1.07794E-01  1.09523E-01
   1.11166E-01  1.12482E-01  1.13127E-01  1.12904E-01  1.11674E-01  1.09522E-01  1.06552E-01  1.02943E-01  9.88697E-02  9.43403E-02
   8.93734E-02  8.38328E-02  7.78497E-02  7.16027E-02  6.53557E-02  5.93091E-02  5.35918E-02  4.82220E-02  4.32122E-02  3.85728E-02
   3.43728E-02  3.05866E-02  2.71497E-02  2.40545E-02  2.13112E-02  1.88382E-02  1.66275E-02  1.46120E-02  1.28748E-02  1.14872E-02
   1.05434E-02  1.02118E-02  1.05623E-02  1.16284E-02  1.34154E-02  1.58903E-02  1.90530E-02  2.28778E-02  2.70466E-02  3.11945E-02
   3.51088E-02  3.88991E-02  4.28384E-02  4.71925E-02  5.21424E-02  5.78003E-02  6.41712E-02  7.12553E-02  7.90266E-02  8.73763E-02
   9.60931E-02  1.05158E-01  1.14587E-01  1.24278E-01  1.34022E-01  1.43410E-01  1.51971E-01  1.59350E-01  1.65235E-01  1.69423E-01
   1.71824E-01  1.72457E-01  1.71526E-01  1.69173E-01  1.65453E-01  1.60384E-01  1.53955E-01  1.46272E-01  1.37657E-01  1.28422E-01
   1.18907E-01  1.09420E-01  1.00261E-01  9.16464E-02  8.36994E-02  7.63013E-02  6.94524E-02  6.32517E-02  5.78056E-02  5.30953E-02
   4.91001E-02  4.58135E-02  4.33397E-02  4.18226E-02  4.13916E-02  4.21168E-02  4.37991E-02  4.63434E-02  4.96103E-02  5.34896E-02
   5.77344E-02  6.21228E-02  6.64905E-02  7.06239E-02  7.42831E-02  7.73164E-02  7.97578E-02  8.18073E-02  8.34452E-02  8.46401E-02
   8.54028E-02  8.56672E-02  8.52799E-02  8.41137E-02  8.21756E-02  7.95650E-02  7.65493E-02  7.33452E-02  7.01366E-02  6.69376E-02
   6.36897E-02  6.04638E-02  5.72258E-02  5.38918E-02  5.04614E-02  4.69500E-02  4.35449E-02  4.02892E-02  3.71090E-02  3.39338E-02
   3.06208E-02  2.69626E-02  2.26882E-02  1.76249E-02  1.16354E-02  4.76910E-03 -2.93077E-03 -1.15563E-02 -2.13546E-02 -3.24694E-02
  -4.48173E-02 -5.81871E-02 -7.23309E-02 -8.68019E-02 -1.00922E-01 -1.14187E-01 -1.26294E-01 -1.36949E-01 -1.45852E-01 -1.52758E-01
  -1.57533E-01 -1.60139E-01 -1.60494E-01 -1.58776E-01 -1.55192E-01 -1.50027E-01 -1.43746E-01 -1.36891E-01 -1.29792E-01 -1.22510E-01
  -1.14973E-01 -1.07208E-01 -9.91806E-02 -9.07179E-02 -8.16585E-02 -7.20996E-02 -6.22745E-02 -5.24970E-02 -4.29753E-02 -3.37547E-02
  -2.48447E-02 -1.63935E-02 -8.54772E-03 -1.21600E-03  5.71357E-03  1.21646E-02  1.80742E-02  2.33917E-02  2.81559E-02  3.24303E-02
   3.62104E-02  3.95863E-02  4.24535E-02  4.48404E-02  4.69159E-02  4.87566E-02  5.03344E-02  5.16631E-02  5.27948E-02  5.39788E-02
   5.53361E-02  5.68392E-02  5.84727E-02  6.00682E-02  6.15142E-02  6.27246E-02  6.35850E-02  6.40494E-02  6.42016E-02  6.42025E-02
   6.41381E-02  6.41038E-02  6.41441E-02  6.41595E-02  6.42251E-02  6.44837E-02  6.48673E-02  6.51455E-02  6.50873E-02  6.47762E-02
   6.43013E-02  6.36906E-02  6.31505E-02  6.28581E-02  6.28035E-02  6.29068E-02  6.30720E-02  6.32062E-02  6.32715E-02  6.32774E-02
   6.34562E-02  6.40115E-02  6.48792E-02  6.59455E-02  6.71768E-02  6.84221E-02  6.95879E-02  7.05876E-02  7.14948E-02  7.22932E-02
   7.28915E-02  7.32682E-02  7.34613E-02  7.36270E-02  7.39669E-02  7.46729E-02  7.56747E-02  7.68669E-02  7.81814E-02  7.95865E-02
   8.10690E-02  8.26464E-02  8.42508E-02  8.57976E-02  8.70070E-02  8.78468E-02  8.84629E-02  8.89337E-02  8.93140E-02  8.96563E-02
   9.00248E-02  9.06542E-02  9.15187E-02  9.24246E-02  9.32606E-02  9.40036E-02  9.49044E-02  9.61355E-02  9.75824E-02  9.91471E-02
   1.00794E-01  1.02540E-01  1.04369E-01  1.06323E-01  1.08454E-01  1.10887E-01  1.13718E-01  1.17079E-01  1.20892E-01  1.24834E-01
   1.28695E-01  1.32471E-01  1.36234E-01  1.40050E-01
 NY background values follow
     6.027E-02    6.012E-02    5.996E-02    5.981E-02    5.966E-02    5.951E-02    5.936E-02    5.921E-02    5.905E-02    5.890E-02
     5.875E-02    5.860E-02    5.845E-02    5.829E-02    5.814E-02    5.799E-02    5.784E-02    5.769E-02    5.753E-02    5.738E-02
     5.723E-02    5.708E-02    5.692E-02    5.677E-02    5.662E-02    5.647E-02    5.632E-02    5.616E-02    5.601E-02    5.586E-02
     5.571E-02    5.555E-02    5.540E-02    5.525E-02    5.510E-02    5.494E-02    5.479E-02    5.464E-02    5.448E-02    5.433E-02
     5.418E-02    5.403E-02    5.387E-02    5.372E-02    5.357E-02    5.342E-02    5.326E-02    5.311E-02    5.296E-02    5.280E-02
     5.265E-02    5.250E-02    5.235E-02    5.219E-02    5.204E-02    5.189E-02    5.173E-02    5.158E-02    5.143E-02    5.127E-02
     5.112E-02    5.097E-02    5.081E-02    5.066E-02    5.051E-02    5.035E-02    5.020E-02    5.005E-02    4.990E-02    4.974E-02
