 LCModel (Version 6.3-1N) Copyright: S.W. Provencher.          Ref.: Magn. Reson. Med. 30:672-679 (1993).                
 Slice_N1@23_18  02-Jun-2023 14:37:45
 27 lines in following concentration table = NCONC+1
    Conc.  %SD /Cr+PCr  Metabolite                                         
 2.37E-06  13% 3.7E-04 Mac                                                 
 5.16E-02  13%   8.000 Cr                                                  
    0.000 999%   0.000 PCr                                                 
 7.80E-02  13%  12.081 Ins                                                 
 9.65E-02   8%  14.954 NAA                                                 
 7.50E-02  12%  11.623 Tau                                                 
 1.86E-02  13%   2.876 PCho                                                
    0.000 999%   0.000 GPC                                                 
 6.49E-02  15%  10.051 Glu                                                 
 2.01E-02  36%   3.119 Gln                                                 
    0.000 999%   0.000 Ala                                                 
 1.21E-02 114%   1.870 Asc                                                 
 7.08E-03 102%   1.097 Asp                                                 
 3.64E-03 110%   0.564 GABA                                                
 6.10E-03  77%   0.945 Glc                                                 
 9.83E-03  42%   1.523 GSH                                                 
    0.000 999%   0.000 Lac                                                 
    0.000 999%   0.000 NAAG                                                
    0.000 999%   0.000 PE                                                  
 1.86E-02  13%   2.876 GPC+PCho                                            
 9.65E-02   8%  14.954 NAA+NAAG                                            
 8.50E-02  15%  13.170 Glu+Gln                                             
 5.16E-02  13%   8.000 Cr+PCr                                              
 9.65E-02   8%  14.954 NAA+NAAG                                            
 5.16E-02  13%   8.000 Cr+PCr                                              
 8.50E-02  15%  13.170 Glu+Gln                                             
   6 lines in following misc. output table
  FWHM = 0.035 ppm    S/N =   3                                            
  Data shift = 0.000 ppm                                                   
  Ph:   4 deg     -16.4 deg/ppm                                            
  alphaB,S = 1.6E+01,   4.9E+01                                            
   18 spline knots.   Ns = 8(1)                                            
  ( 6) 3 infls.   ( 1) 1 extrs.                                            
  654 points on ppm-axis = NY
      4.000000     3.994181     3.988363     3.982544     3.976726     3.970907     3.965088     3.959270     3.953451     3.947633
      3.941814     3.935995     3.930177     3.924358     3.918540     3.912721     3.906902     3.901084     3.895265     3.889446
      3.883628     3.877809     3.871991     3.866172     3.860353     3.854535     3.848716     3.842898     3.837079     3.831260
      3.825442     3.819623     3.813805     3.807986     3.802167     3.796349     3.790530     3.784712     3.778893     3.773074
      3.767256     3.761437     3.755619     3.749800     3.743981     3.738163     3.732344     3.726526     3.720707     3.714888
      3.709070     3.703251     3.697433     3.691614     3.685795     3.679977     3.674158     3.668339     3.662521     3.656702
      3.650884     3.645065     3.639246     3.633428     3.627609     3.621791     3.615972     3.610153     3.604335     3.598516
      3.592698     3.586879     3.581060     3.575242     3.569423     3.563605     3.557786     3.551967     3.546149     3.540330
      3.534512     3.528693     3.522874     3.517056     3.511237     3.505419     3.499600     3.493781     3.487963     3.482144
      3.476326     3.470507     3.464688     3.458870     3.453051     3.447232     3.441414     3.435595     3.429777     3.423958
      3.418139     3.412321     3.406502     3.400684     3.394865     3.389046     3.383228     3.377409     3.371591     3.365772
      3.359953     3.354135     3.348316     3.342498     3.336679     3.330860     3.325042     3.319223     3.313405     3.307586
      3.301767     3.295949     3.290130     3.284312     3.278493     3.272674     3.266856     3.261037     3.255219     3.249400
      3.243581     3.237763     3.231944     3.226125     3.220307     3.214488     3.208670     3.202851     3.197032     3.191214
      3.185395     3.179577     3.173758     3.167939     3.162121     3.156302     3.150484     3.144665     3.138846     3.133028
      3.127209     3.121391     3.115572     3.109753     3.103935     3.098116     3.092298     3.086479     3.080660     3.074842
      3.069023     3.063205     3.057386     3.051567     3.045749     3.039930     3.034111     3.028293     3.022474     3.016656
      3.010837     3.005018     2.999200     2.993381     2.987563     2.981744     2.975925     2.970107     2.964288     2.958470
      2.952651     2.946832     2.941014     2.935195     2.929377     2.923558     2.917739     2.911921     2.906102     2.900284
      2.894465     2.888646     2.882828     2.877009     2.871191     2.865372     2.859553     2.853735     2.847916     2.842098
      2.836279     2.830460     2.824642     2.818823     2.813004     2.807186     2.801367     2.795549     2.789730     2.783911
      2.778093     2.772274     2.766456     2.760637     2.754818     2.749000     2.743181     2.737363     2.731544     2.725725
      2.719907     2.714088     2.708270     2.702451     2.696632     2.690814     2.684995     2.679177     2.673358     2.667539
      2.661721     2.655902     2.650084     2.644265     2.638446     2.632628     2.626809     2.620991     2.615172     2.609353
      2.603535     2.597716     2.591897     2.586079     2.580260     2.574442     2.568623     2.562804     2.556986     2.551167
      2.545349     2.539530     2.533711     2.527893     2.522074     2.516256     2.510437     2.504618     2.498800     2.492981
      2.487163     2.481344     2.475525     2.469707     2.463888     2.458070     2.452251     2.446432     2.440614     2.434795
      2.428977     2.423158     2.417339     2.411521     2.405702     2.399884     2.394065     2.388246     2.382428     2.376609
      2.370790     2.364972     2.359153     2.353335     2.347516     2.341697     2.335879     2.330060     2.324242     2.318423
      2.312604     2.306786     2.300967     2.295149     2.289330     2.283511     2.277693     2.271874     2.266056     2.260237
      2.254418     2.248600     2.242781     2.236963     2.231144     2.225325     2.219507     2.213688     2.207870     2.202051
      2.196232     2.190414     2.184595     2.178777     2.172958     2.167139     2.161321     2.155502     2.149683     2.143865
      2.138046     2.132228     2.126409     2.120590     2.114772     2.108953     2.103135     2.097316     2.091497     2.085679
      2.079860     2.074042     2.068223     2.062404     2.056586     2.050767     2.044949     2.039130     2.033311     2.027493
      2.021674     2.015856     2.010037     2.004218     1.998400     1.992581     1.986763     1.980944     1.975126     1.969307
      1.963489     1.957670     1.951852     1.946033     1.940215     1.934397     1.928578     1.922760     1.916941     1.911123
      1.905304     1.899486     1.893667     1.887849     1.882030     1.876212     1.870393     1.864575     1.858756     1.852938
      1.847119     1.841301     1.835482     1.829664     1.823845     1.818027     1.812208     1.806390     1.800571     1.794753
      1.788934     1.783116     1.777297     1.771479     1.765660     1.759842     1.754023     1.748205     1.742386     1.736568
      1.730749     1.724931     1.719113     1.713294     1.707476     1.701657     1.695839     1.690020     1.684202     1.678383
      1.672565     1.666746     1.660928     1.655109     1.649291     1.643472     1.637654     1.631835     1.626017     1.620198
      1.614380     1.608561     1.602743     1.596924     1.591106     1.585287     1.579469     1.573650     1.567832     1.562013
      1.556195     1.550376     1.544558     1.538739     1.532921     1.527102     1.521284     1.515465     1.509647     1.503829
      1.498010     1.492192     1.486373     1.480555     1.474736     1.468918     1.463099     1.457281     1.451462     1.445644
      1.439825     1.434007     1.428188     1.422370     1.416551     1.410733     1.404914     1.399096     1.393277     1.387459
      1.381640     1.375822     1.370003     1.364185     1.358366     1.352548     1.346729     1.340911     1.335092     1.329274
      1.323455     1.317637     1.311818     1.306000     1.300182     1.294363     1.288545     1.282726     1.276908     1.271089
      1.265271     1.259452     1.253634     1.247815     1.241997     1.236178     1.230360     1.224541     1.218723     1.212904
      1.207086     1.201267     1.195449     1.189630     1.183812     1.177993     1.172175     1.166356     1.160538     1.154719
      1.148901     1.143082     1.137264     1.131445     1.125627     1.119808     1.113990     1.108171     1.102353     1.096534
      1.090716     1.084898     1.079079     1.073261     1.067442     1.061624     1.055805     1.049987     1.044168     1.038350
      1.032531     1.026713     1.020894     1.015076     1.009257     1.003439     0.997620     0.991802     0.985983     0.980165
      0.974346     0.968528     0.962709     0.956891     0.951072     0.945254     0.939435     0.933617     0.927798     0.921980
      0.916161     0.910343     0.904524     0.898706     0.892887     0.887069     0.881251     0.875432     0.869614     0.863795
      0.857977     0.852158     0.846340     0.840521     0.834703     0.828884     0.823066     0.817247     0.811429     0.805610
      0.799792     0.793973     0.788155     0.782336     0.776518     0.770699     0.764881     0.759062     0.753244     0.747425
      0.741607     0.735788     0.729970     0.724151     0.718333     0.712514     0.706696     0.700877     0.695059     0.689240
      0.683422     0.677603     0.671785     0.665967     0.660148     0.654330     0.648511     0.642693     0.636874     0.631056
      0.625237     0.619419     0.613600     0.607782     0.601963     0.596145     0.590326     0.584508     0.578689     0.572871
      0.567052     0.561234     0.555415     0.549597     0.543778     0.537960     0.532141     0.526323     0.520504     0.514686
      0.508867     0.503049     0.497230     0.491412     0.485593     0.479775     0.473956     0.468138     0.462319     0.456501
      0.450682     0.444864     0.439045     0.433227     0.427408     0.421590     0.415771     0.409953     0.404134     0.398316
      0.392497     0.386679     0.380860     0.375042     0.369223     0.363405     0.357586     0.351767     0.345949     0.340130
      0.334312     0.328493     0.322675     0.316856     0.311038     0.305219     0.299401     0.293582     0.287764     0.281945
      0.276127     0.270308     0.264490     0.258671     0.252853     0.247034     0.241216     0.235397     0.229579     0.223760
      0.217942     0.212123     0.206305     0.200486
 NY phased data points follow
  -2.24889E-01 -8.08205E-02  2.31734E-01 -9.72043E-03 -1.66747E-01 -8.50401E-02  4.95491E-02 -9.76902E-02  3.48934E-02  1.08916E-01
   4.64509E-02  1.14484E-01  1.43842E-01  1.05670E-01 -2.11303E-02  1.56369E-01  3.38051E-01  1.46013E-01  3.07409E-02  2.78179E-01
   2.55068E-01  1.79640E-01  1.76868E-01  1.29949E-01  1.96546E-01 -3.87593E-02  5.33061E-02 -1.10230E-01 -2.57482E-01 -2.84607E-02
  -2.48627E-01 -4.99886E-02 -1.79230E-01 -2.04484E-01  1.95858E-03 -3.49349E-01 -3.13729E-01 -1.20349E-01 -2.15582E-01 -3.24049E-01
  -1.35657E-01  1.41491E-01  2.42944E-01  5.34252E-03  2.73553E-01  4.75155E-01  1.27182E-01  2.62709E-01  1.82196E-01 -3.64073E-03
   1.15642E-01  9.18189E-02 -2.51114E-02 -1.29845E-01  1.55074E-02  1.95239E-01 -3.20376E-01 -2.72774E-01 -4.07325E-02 -2.49170E-01
  -1.14418E-01 -2.43227E-01 -1.59600E-01 -3.10201E-01 -1.10222E-01  7.80670E-02 -1.96236E-01  4.00983E-01  3.33812E-01 -1.11622E-02
   1.06206E-01  7.22449E-02  1.13847E-01  1.56153E-01  7.36879E-02 -1.21485E-01  5.30256E-02  2.10026E-01 -3.33168E-02 -1.60539E-01
  -8.21233E-02 -2.90321E-01 -2.13937E-01  1.25963E-01 -3.37267E-02  2.80492E-01  2.59605E-01  1.03617E-01  1.72443E-01 -2.59814E-02
   2.88565E-01  1.73948E-01  2.71338E-01  1.05757E-01 -1.23389E-01  2.89817E-01  4.82772E-02  2.87925E-02 -2.24913E-01 -1.98658E-01
   6.20238E-02 -3.16411E-01 -2.81801E-01 -1.20550E-01  2.62068E-01  3.81798E-01  1.31463E-01  1.44811E-01  4.00974E-01  5.76365E-01
   4.74832E-01  3.93076E-01  1.84621E-01  3.70521E-01  2.28159E-01  2.77564E-01  6.47806E-01  2.88346E-01  5.34558E-02  9.51437E-02
   2.82555E-01 -5.69702E-02  1.15646E-01  2.17569E-01 -8.22251E-02 -1.48473E-01 -3.43782E-01 -2.23408E-01 -5.31709E-01 -4.03540E-01
  -4.39054E-01 -4.19451E-01 -5.94169E-01 -9.12763E-01 -4.42147E-01 -7.08026E-01 -3.68924E-01 -5.32576E-01 -9.68150E-01 -5.41017E-01
  -7.09807E-01 -2.58021E-01 -2.09389E-01 -2.65412E-01  5.34164E-03 -2.05230E-01  1.05030E-01 -1.01839E-01  2.65483E-01  2.71716E-01
  -8.78827E-02  2.61447E-01 -2.42712E-01  1.86999E-01  1.47732E-01 -1.58128E-01  4.48439E-01  2.58309E-01  1.10064E-01  2.13748E-01
   2.81457E-01  4.97952E-01  4.10532E-01  5.43886E-01  5.11779E-01  4.61091E-01  7.00574E-01 -1.19650E-01 -3.48699E-02 -2.34417E-01
  -7.91371E-01 -2.55626E-01 -2.89959E-01 -5.80112E-01 -4.90881E-01 -1.07590E-01 -4.10255E-01 -3.18014E-01 -2.26194E-01 -2.49454E-01
  -2.20025E-01 -1.26457E-01 -1.09498E-01 -3.07981E-01 -2.16799E-01 -6.83230E-01 -1.50811E-01 -5.85379E-02 -3.21330E-01 -4.07530E-01
  -4.37570E-01 -3.78306E-02 -3.77691E-01 -3.30702E-01 -2.21136E-01  7.05029E-02  1.42222E-01 -9.50567E-02 -1.48701E-01 -1.71524E-01
  -7.33960E-02 -1.85441E-02 -7.35805E-02 -1.25917E-01  1.73506E-01  1.86486E-01  1.07607E-01 -2.28941E-03 -1.41815E-01 -9.26691E-02
  -1.36281E-01 -2.49201E-02  2.67291E-01  1.58373E-01 -9.53151E-02 -1.60215E-01 -2.30104E-02 -1.38219E-01 -2.46559E-01  5.12517E-02
  -1.14953E-01  4.64388E-02  1.12975E-01  1.97016E-01  2.27931E-01  2.61930E-02  3.65710E-01  3.28064E-01  3.17444E-01  1.68516E-01
   1.47533E-01  1.65041E-01  1.30360E-01  4.08299E-01  2.30031E-01 -1.14556E-01  8.11485E-02  2.55747E-01 -1.33739E-01 -2.06461E-01
  -2.12709E-01 -9.56682E-02  1.42412E-01  2.05004E-01 -6.01206E-02 -7.16636E-02  1.38410E-01 -2.09711E-01  5.83091E-02  1.75286E-01
   2.72020E-02  7.91580E-02 -6.80294E-02 -1.53291E-02  1.59301E-01 -1.29539E-01 -1.53654E-01  1.62008E-01 -1.13156E-01  3.29177E-01
   3.60162E-01  4.71118E-03  9.75753E-02 -1.52085E-01  1.55446E-01  3.37134E-01  1.77292E-01  1.80930E-01  3.57697E-01  4.96360E-01
   3.63244E-01  3.16708E-01  2.95054E-01  1.01328E-01 -1.25644E-02  1.10971E-01 -4.21145E-02 -7.45280E-02  1.97076E-02 -2.68299E-01
  -1.97290E-01 -1.24115E-01 -2.97552E-01 -1.59518E-01  1.32965E-02  7.71276E-02  2.05394E-01  2.95407E-01  3.18431E-01  3.01535E-01
   3.64709E-01  5.98167E-01  3.54759E-01  3.54981E-01  5.35074E-01  2.09218E-01  1.03919E-01  1.13921E-01 -1.05001E-02 -1.03004E-01
   2.23035E-01  1.78627E-01 -1.05569E-02  1.41316E-01  1.28263E-01  2.80409E-01  3.98985E-01  3.20897E-01  5.05240E-01  3.46174E-01
   5.05614E-02  2.85654E-01  5.73178E-02  2.35100E-01  4.25502E-01 -9.46338E-03 -1.04721E-01  2.25830E-01  2.04526E-01 -1.87637E-01
  -2.16467E-02 -2.71657E-01 -3.93300E-01  8.14062E-02  8.51746E-02 -3.92507E-01 -3.71129E-01 -3.00904E-01 -1.64003E-01  8.30002E-02
  -4.30174E-02 -1.81508E-02 -7.22565E-02  2.04020E-01 -9.62723E-02 -2.49553E-01 -1.35680E-01 -4.59488E-01 -4.16986E-01 -2.51438E-01
  -4.27319E-01 -8.70326E-01 -6.79216E-01 -9.43297E-01 -1.26798E+00 -1.09826E+00 -8.12456E-01 -2.27411E-01 -3.07683E-01 -3.39790E-01
  -1.35553E-01 -3.97029E-01 -1.57207E-01 -5.03041E-03 -1.19036E-01  2.30781E-01  2.66037E-01  1.28561E-01  7.17969E-02  6.25314E-02
   1.18499E-01  5.50573E-02  4.47917E-04 -8.71421E-02 -3.10363E-01  1.15384E-01  1.35869E-01 -1.18335E-01  5.65291E-02  1.27600E-01
   1.22807E-01 -3.02494E-01  9.59914E-02  8.02485E-02  1.06369E-04  5.79878E-03 -4.16139E-02  4.66419E-01  1.14851E-01 -1.10017E-01
   1.38969E-01  2.90083E-01  1.20302E-02  1.28776E-01  1.92845E-01  5.07849E-01  4.34720E-01  2.02219E-01  5.01867E-01  6.93167E-02
   3.67911E-01  2.70025E-01  1.30243E-01  1.68282E-01  3.92577E-02  3.10999E-01  1.45951E-01  2.04271E-01  2.37379E-01  1.61118E-01
   2.03687E-01  4.23561E-02  1.45542E-01  7.04875E-02  4.29532E-02  3.86759E-01 -5.71137E-02 -4.47565E-02  3.55002E-01  1.14392E-01
  -4.88319E-02 -1.43470E-01 -2.51768E-01 -7.64812E-02 -1.10163E-01 -1.36312E-01 -2.68593E-02 -3.24506E-01 -9.46656E-02 -8.09396E-03
  -1.53259E-01 -1.17047E-01 -3.90141E-03  4.76556E-02 -2.45547E-01 -3.52562E-01 -2.90189E-02 -8.47167E-02 -2.42894E-01  1.30872E-01
  -3.38518E-02  1.32879E-03 -1.27228E-01 -3.58807E-01 -2.54566E-01 -7.85398E-02 -1.54771E-02 -1.85801E-01  1.88502E-01  4.25146E-02
  -5.46073E-02 -3.55360E-02 -2.55494E-01  1.04383E-01  2.82118E-01  4.33587E-02  5.75079E-02 -1.50510E-02  2.48933E-02  4.61687E-01
   2.74916E-01 -4.68350E-02  1.17069E-01  4.57346E-02 -1.83057E-01  1.40016E-01  2.20088E-01  9.09432E-03  1.16422E-01 -8.65072E-03
  -8.83722E-02 -2.05370E-01 -9.97837E-02  7.72208E-02 -5.61739E-02  1.85076E-01  1.17198E-01 -3.11253E-02 -3.14356E-01 -4.40539E-02
   2.56303E-01 -1.99834E-01 -1.85816E-02 -1.74314E-01 -8.78333E-02 -2.15878E-01 -1.03154E-01 -1.53278E-01 -3.43501E-01  3.09188E-02
  -2.55289E-01  9.25246E-02  3.01698E-02 -9.74621E-02 -1.12724E-01  3.69347E-02  9.63926E-02  9.73819E-04 -1.56122E-02 -4.73681E-03
   1.02387E-01 -6.04011E-02  3.72162E-01  1.08166E-01  3.01682E-01  3.06925E-02  2.01289E-02  2.49299E-01 -3.28729E-01 -3.18910E-02
  -9.93587E-02 -9.59617E-02  3.60535E-02  3.82356E-01  2.70221E-03  1.76888E-01  4.57480E-01 -5.75618E-02  2.22315E-01  1.42538E-01
   2.22850E-01  2.64026E-01  1.75623E-01  1.16531E-01 -1.89907E-01 -1.03495E-01  3.01826E-01  3.50072E-01  1.19771E-01  8.47112E-02
   1.53593E-01 -1.54021E-01 -1.98197E-01  1.98023E-02 -1.21698E-01 -2.55197E-01 -3.28442E-01 -1.16198E-01 -1.98643E-01 -2.92753E-01
  -3.48128E-01 -6.51209E-01 -6.50075E-01 -5.72414E-01 -3.46480E-01 -2.57782E-01 -2.22925E-01 -2.42540E-02 -3.18814E-01 -1.85941E-01
   9.31469E-03 -1.10517E-01 -2.19606E-01 -4.69956E-01 -2.67527E-02  4.60492E-02  4.90514E-02 -1.33456E-01 -1.52479E-01  5.82226E-02
  -5.11138E-03  2.08011E-01  1.28524E-01  1.64273E-01 -2.16451E-02  1.89545E-01  2.64049E-01 -2.69118E-02  3.71571E-02  5.06887E-01
   3.47599E-01  1.89109E-02  3.74908E-01  3.64237E-02  3.31537E-01  4.42311E-01  3.03779E-01  3.11162E-01  6.43217E-02  2.01402E-01
   1.29255E-01  5.02887E-02  4.97026E-02  8.20522E-02 -1.47558E-01 -5.15480E-02  2.77857E-01  7.23556E-02  5.50148E-02  2.05686E-02
   9.49188E-02 -1.57502E-02 -1.43454E-01  1.64772E-01 -1.24557E-01  6.63797E-02  1.93497E-01 -2.28726E-02  1.55023E-02  3.34272E-02
   1.82667E-01  1.93210E-01 -1.02287E-01 -1.58285E-01  1.57943E-01 -3.12529E-01  4.04498E-02  9.93259E-02  2.29652E-02  2.14579E-01
  -1.61356E-01  1.53985E-01  7.64682E-02 -1.14554E-01 -1.66427E-01  3.86444E-02  1.87459E-01  2.40792E-01 -4.67598E-03 -1.83407E-01
  -1.68039E-01  2.24966E-01  1.42377E-01 -2.74191E-01  1.45956E-01  1.32491E-01  2.94691E-01  7.97809E-02  1.83165E-01  1.64301E-01
   1.15779E-01  1.90198E-01  1.56891E-01  6.56126E-02 -1.01477E-01 -6.43925E-02 -1.66761E-01  6.66494E-03 -3.12635E-01  3.00513E-01
  -1.66963E-02  5.93212E-02  4.51290E-01  5.13178E-02  2.10288E-01 -9.97452E-02  1.53189E-01 -2.20450E-01 -1.02203E-01  2.49669E-01
  -4.03117E-02 -1.46008E-01  1.15296E-01 -7.36736E-02 -7.97996E-02  3.95354E-01  2.08444E-01  2.84429E-01  1.53675E-01  7.90506E-02
   1.29018E-01 -5.85753E-02  2.62579E-02  6.79298E-03
 NY points of the fit to the data follow
   7.07140E-02  7.24835E-02  7.15397E-02  6.85793E-02  6.51343E-02  6.23852E-02  6.09951E-02  6.49114E-02  7.45585E-02  9.16256E-02
   1.16081E-01  1.44400E-01  1.77680E-01  2.21550E-01  2.73800E-01  3.24244E-01  3.62233E-01  3.65059E-01  3.19313E-01  2.43359E-01
   1.68540E-01  1.11824E-01  7.17569E-02  3.73907E-02 -2.82784E-03 -3.57190E-02 -5.54020E-02 -7.10727E-02 -8.43543E-02 -9.65795E-02
  -1.08667E-01 -1.20914E-01 -1.31700E-01 -1.41577E-01 -1.48337E-01 -1.52217E-01 -1.50274E-01 -1.40118E-01 -1.16139E-01 -7.84661E-02
  -2.79721E-02  3.06986E-02  8.71426E-02  1.34463E-01  1.70987E-01  1.97706E-01  2.11682E-01  2.11009E-01  1.94078E-01  1.61822E-01
   1.26557E-01  8.88868E-02  5.11597E-02  1.04316E-02 -3.11769E-02 -7.42793E-02 -1.15869E-01 -1.56446E-01 -1.93107E-01 -2.24117E-01
  -2.45354E-01 -2.48870E-01 -2.32792E-01 -1.97816E-01 -1.42386E-01 -7.35870E-02 -3.13865E-03  7.52003E-02  1.52643E-01  2.12746E-01
   2.50827E-01  2.62850E-01  2.40027E-01  1.90849E-01  1.31747E-01  5.90081E-02 -7.48234E-03 -6.65408E-02 -1.30777E-01 -1.76333E-01
  -1.93965E-01 -1.78296E-01 -1.16701E-01 -1.94333E-02  8.20046E-02  1.69985E-01  2.37889E-01  2.79774E-01  2.96241E-01  2.93086E-01
   2.65440E-01  2.26868E-01  1.85471E-01  1.31232E-01  6.81784E-02  4.17834E-03 -6.08700E-02 -1.23342E-01 -1.77953E-01 -2.11192E-01
  -2.09958E-01 -1.66505E-01 -8.48676E-02  1.46724E-02  1.09344E-01  1.81926E-01  2.30129E-01  2.60078E-01  2.78399E-01  2.91176E-01
   2.93990E-01  2.93215E-01  2.87639E-01  2.82200E-01  2.76670E-01  2.69778E-01  2.61849E-01  2.50423E-01  2.35580E-01  2.16490E-01
   1.87314E-01  1.49158E-01  9.51563E-02  2.96510E-02 -4.88773E-02 -1.26918E-01 -2.07935E-01 -2.86090E-01 -3.68353E-01 -4.52928E-01
  -5.26711E-01 -5.79897E-01 -5.91861E-01 -5.78529E-01 -5.63698E-01 -5.80404E-01 -6.26780E-01 -6.79401E-01 -7.06388E-01 -6.42361E-01
  -5.19720E-01 -3.77271E-01 -2.67281E-01 -1.91620E-01 -1.32867E-01 -6.56417E-02 -2.20028E-03  3.43582E-02  6.17777E-02  8.43285E-02
   1.03763E-01  1.21086E-01  1.37221E-01  1.52854E-01  1.68539E-01  1.84908E-01  2.02871E-01  2.23399E-01  2.48243E-01  2.80775E-01
   3.09124E-01  3.35885E-01  3.48236E-01  3.46999E-01  3.36618E-01  3.14659E-01  2.52712E-01  1.45076E-01 -7.83637E-03 -2.01700E-01
  -3.68630E-01 -4.49121E-01 -4.46525E-01 -4.10237E-01 -3.77859E-01 -3.62493E-01 -3.50495E-01 -3.03044E-01 -2.70510E-01 -2.49173E-01
  -2.33912E-01 -2.20616E-01 -2.08377E-01 -1.97009E-01 -1.87508E-01 -1.79776E-01 -1.72272E-01 -1.64214E-01 -1.55145E-01 -1.46357E-01
  -1.37913E-01 -1.29217E-01 -1.20324E-01 -1.11200E-01 -1.01999E-01 -9.30028E-02 -8.42562E-02 -7.58486E-02 -6.78581E-02 -6.02023E-02
  -5.27879E-02 -4.58674E-02 -3.97907E-02 -3.50273E-02 -3.19582E-02 -3.02096E-02 -2.91431E-02 -2.81025E-02 -2.71907E-02 -2.73484E-02
  -2.92002E-02 -3.17596E-02 -3.30413E-02 -3.23556E-02 -3.04608E-02 -2.84438E-02 -2.65576E-02 -2.26347E-02 -1.57309E-02 -5.12423E-03
   9.05843E-03  2.62942E-02  4.88121E-02  8.01611E-02  1.20038E-01  1.64795E-01  2.06520E-01  2.35836E-01  2.50182E-01  2.54619E-01
   2.56170E-01  2.56217E-01  2.41548E-01  1.98990E-01  1.35410E-01  7.55773E-02  3.31744E-02  5.64586E-03 -1.62919E-02 -3.98692E-02
  -5.90140E-02 -6.91312E-02 -7.66587E-02 -8.20561E-02 -8.62409E-02 -8.96832E-02 -9.30222E-02 -9.67321E-02 -1.01291E-01 -1.05040E-01
  -1.09370E-01 -1.13176E-01 -1.15403E-01 -1.16794E-01 -1.13030E-01 -9.98809E-02 -7.77642E-02 -4.69891E-02 -6.45227E-03  3.40463E-02
   6.75800E-02  9.81982E-02  1.24768E-01  1.44265E-01  1.54274E-01  1.59748E-01  1.58464E-01  1.60008E-01  1.57723E-01  1.46294E-01
   1.34896E-01  1.18564E-01  9.89879E-02  7.08805E-02  3.80621E-02  4.75447E-03 -3.16026E-02 -6.65684E-02 -1.01759E-01 -1.32137E-01
  -1.56208E-01 -1.70356E-01 -1.71274E-01 -1.53524E-01 -1.10956E-01 -4.47321E-02  3.98059E-02  1.28616E-01  2.03673E-01  2.55217E-01
   2.81159E-01  2.86673E-01  2.78328E-01  2.66430E-01  2.52138E-01  2.37502E-01  2.26502E-01  2.15103E-01  2.07055E-01  2.01214E-01
   1.95950E-01  1.91645E-01  1.87349E-01  1.83523E-01  1.78945E-01  1.73903E-01  1.67813E-01  1.60279E-01  1.50678E-01  1.38592E-01
   1.22889E-01  1.03509E-01  7.96153E-02  5.14116E-02  1.87622E-02 -1.71311E-02 -5.56833E-02 -9.46031E-02 -1.32049E-01 -1.65220E-01
  -1.91079E-01 -2.06919E-01 -2.11654E-01 -2.05173E-01 -1.88237E-01 -1.62629E-01 -1.31016E-01 -9.61431E-02 -6.32949E-02 -3.57930E-02
  -1.80147E-02 -1.15981E-02 -1.67252E-02 -2.87994E-02 -5.50792E-02 -9.78322E-02 -1.57830E-01 -2.37976E-01 -3.27601E-01 -4.27167E-01
  -5.56132E-01 -7.23657E-01 -8.97738E-01 -1.04890E+00 -1.11031E+00 -1.01696E+00 -8.08067E-01 -5.83798E-01 -4.17494E-01 -3.11392E-01
  -2.35051E-01 -1.45646E-01 -6.36255E-02 -3.10484E-02 -1.17699E-02  1.02640E-03  1.00686E-02  1.63178E-02  2.05126E-02  2.30942E-02
   2.46499E-02  2.54380E-02  2.60760E-02  2.68840E-02  2.79988E-02  2.98278E-02  3.24867E-02  3.61469E-02  4.04847E-02  4.52023E-02
   4.98578E-02  5.44601E-02  5.92178E-02  6.37330E-02  6.82718E-02  7.22395E-02  7.58687E-02  7.92327E-02  8.25844E-02  8.58772E-02
   8.90761E-02  9.20237E-02  9.46532E-02  9.72301E-02  9.98595E-02  1.02457E-01  1.04900E-01  1.07050E-01  1.08981E-01  1.10872E-01
   1.12869E-01  1.14764E-01  1.16303E-01  1.17035E-01  1.16842E-01  1.15697E-01  1.13659E-01  1.10998E-01  1.07666E-01  1.03730E-01
   9.90317E-02  9.36712E-02  8.76916E-02  8.13112E-02  7.47464E-02  6.80400E-02  6.13530E-02  5.49142E-02  4.87959E-02  4.29021E-02
   3.72898E-02  3.20534E-02  2.72749E-02  2.30436E-02  1.92285E-02  1.57136E-02  1.24257E-02  9.46325E-03  6.81485E-03  4.54298E-03
   2.80071E-03  1.61482E-03  1.06124E-03  1.18093E-03  2.06125E-03  3.73353E-03  6.10043E-03  9.03674E-03  1.25165E-02  1.64574E-02
   2.06700E-02  2.51060E-02  2.95060E-02  3.39698E-02  3.88820E-02  4.46385E-02  5.13530E-02  5.88389E-02  6.68326E-02  7.50989E-02
   8.40032E-02  9.36930E-02  1.04122E-01  1.14942E-01  1.25813E-01  1.36486E-01  1.46689E-01  1.56311E-01  1.64926E-01  1.72169E-01
   1.77663E-01  1.81306E-01  1.83033E-01  1.83100E-01  1.81642E-01  1.78608E-01  1.74073E-01  1.67920E-01  1.60325E-01  1.51466E-01
   1.41890E-01  1.31939E-01  1.21958E-01  1.12089E-01  1.02349E-01  9.29523E-02  8.40430E-02  7.58632E-02  6.84525E-02  6.17303E-02
   5.57563E-02  5.06124E-02  4.64159E-02  4.31354E-02  4.09335E-02  3.97207E-02  3.97833E-02  4.10476E-02  4.32910E-02  4.62321E-02
   4.97312E-02  5.37543E-02  5.81522E-02  6.27796E-02  6.73456E-02  7.14916E-02  7.50448E-02  7.80357E-02  8.05639E-02  8.26771E-02
   8.44659E-02  8.57055E-02  8.62089E-02  8.58935E-02  8.47550E-02  8.29420E-02  8.06490E-02  7.79606E-02  7.48084E-02  7.13823E-02
   6.78869E-02  6.43325E-02  6.06570E-02  5.68883E-02  5.30228E-02  4.91682E-02  4.53069E-02  4.14081E-02  3.75490E-02  3.37340E-02
   2.99480E-02  2.59476E-02  2.14647E-02  1.63541E-02  1.05223E-02  3.80939E-03 -3.92850E-03 -1.27277E-02 -2.26018E-02 -3.35466E-02
  -4.57754E-02 -5.94084E-02 -7.43230E-02 -9.00411E-02 -1.05871E-01 -1.21310E-01 -1.36081E-01 -1.49900E-01 -1.62495E-01 -1.73465E-01
  -1.82419E-01 -1.89125E-01 -1.93536E-01 -1.95519E-01 -1.95271E-01 -1.93185E-01 -1.89530E-01 -1.84356E-01 -1.77976E-01 -1.70816E-01
  -1.63272E-01 -1.55421E-01 -1.47038E-01 -1.37981E-01 -1.28285E-01 -1.18188E-01 -1.07785E-01 -9.71489E-02 -8.64212E-02 -7.58158E-02
  -6.54176E-02 -5.53144E-02 -4.56351E-02 -3.63028E-02 -2.75011E-02 -1.92661E-02 -1.16628E-02 -4.63179E-03  1.89318E-03  7.86116E-03
   1.32206E-02  1.78191E-02  2.18874E-02  2.55892E-02  2.88634E-02  3.16211E-02  3.39593E-02  3.59116E-02  3.77931E-02  3.95766E-02
   4.11164E-02  4.25537E-02  4.41377E-02  4.58660E-02  4.75642E-02  4.91166E-02  5.03663E-02  5.12290E-02  5.18244E-02  5.22476E-02
   5.24589E-02  5.26082E-02  5.27554E-02  5.27582E-02  5.26982E-02  5.26733E-02  5.26435E-02  5.26515E-02  5.27599E-02  5.27519E-02
   5.24588E-02  5.18925E-02  5.10878E-02  5.03279E-02  5.00484E-02  5.00346E-02  4.99558E-02  4.96673E-02  4.92440E-02  4.89029E-02
   4.88233E-02  4.89738E-02  4.93999E-02  5.02156E-02  5.11951E-02  5.21034E-02  5.29196E-02  5.37712E-02  5.47171E-02  5.55843E-02
   5.63319E-02  5.68394E-02  5.72655E-02  5.75042E-02  5.75831E-02  5.77484E-02  5.82393E-02  5.91287E-02  6.02268E-02  6.12869E-02
   6.22953E-02  6.33172E-02  6.44788E-02  6.58097E-02  6.72712E-02  6.84791E-02  6.91723E-02  6.93096E-02  6.92381E-02  6.93309E-02
   6.98027E-02  7.03259E-02  7.06606E-02  7.08800E-02  7.10267E-02  7.14283E-02  7.20305E-02  7.26987E-02  7.34145E-02  7.41163E-02
   7.50722E-02  7.62998E-02  7.76199E-02  7.89296E-02  8.03611E-02  8.20016E-02  8.39864E-02  8.63766E-02  8.89791E-02  9.19378E-02
   9.51411E-02  9.83148E-02  1.01246E-01  1.04110E-01
 NY background values follow
     8.702E-02    8.683E-02    8.664E-02    8.645E-02    8.625E-02    8.606E-02    8.587E-02    8.568E-02    8.548E-02    8.529E-02
     8.510E-02    8.491E-02    8.471E-02    8.452E-02    8.433E-02    8.414E-02    8.394E-02    8.375E-02    8.356E-02    8.336E-02
     8.317E-02    8.298E-02    8.279E-02    8.259E-02    8.240E-02    8.221E-02    8.201E-02    8.182E-02    8.163E-02    8.144E-02
     8.124E-02    8.105E-02    8.086E-02    8.066E-02    8.047E-02    8.028E-02    8.008E-02    7.989E-02    7.970E-02    7.950E-02
     7.931E-02    7.912E-02    7.892E-02    7.873E-02    7.854E-02    7.834E-02    7.815E-02    7.795E-02    7.776E-02    7.757E-02
     7.737E-02    7.718E-02    7.699E-02    7.679E-02    7.660E-02    7.640E-02    7.621E-02    7.602E-02    7.582E-02    7.563E-02
     7.543E-02    7.524E-02    7.505E-02    7.485E-02    7.466E-02    7.446E-02    7.427E-02    7.408E-02    7.388E-02    7.369E-02
