 
 $NMID
 ID=''
 FMTDAT='(2E13.5)'
 TRAMP=   1.00000E+0
 VOLUME=   1.00000E+0
 $END
   2.54306E+2  -1.77006E+2
   1.43836E+3   1.57300E+3
  -5.68465E+2  -4.58192E+3
  -1.22948E+2  -1.00778E+3
   1.91127E+2  -1.08092E+3
  -3.83854E+2  -2.08093E+3
  -8.28521E+2   9.36028E+2
  -1.90430E+3   1.82517E+3
  -2.98213E+3   1.22103E+2
  -2.70354E+3  -2.42551E+3
   5.89909E+2  -1.83033E+3
   3.21563E+3  -6.11097E+2
   4.19296E+3   1.38180E+3
  -8.37502E+2   2.56106E+3
  -2.43385E+3  -1.25040E+3
  -1.30273E+3  -2.34559E+3
   6.12706E+2   4.79611E+1
   6.30670E+2  -2.67042E+3
   8.76243E+2   1.19369E+3
  -3.86717E+3  -1.09209E+3
   2.44916E+3  -1.81149E+3
   3.08200E+3   2.46434E+2
  -6.72730E+2   2.50187E+3
  -2.37405E+3   3.49616E+2
   6.23086E+2  -2.67523E+3
   3.99330E+3  -3.66621E+2
  -1.91591E+3   4.02206E+3
  -4.99917E+3  -1.06708E+3
  -3.23132E+3  -3.71772E+3
   2.79495E+3  -3.81811E+3
   2.90764E+3   7.87164E+2
   5.41556E+2   3.76242E+3
  -3.12040E+3   2.90568E+3
  -1.51278E+3   9.97454E+2
  -3.87851E+2   1.92056E+3
  -6.75635E+2   8.21470E+2
  -1.08814E+3  -1.92190E+3
   3.68564E+3   6.93399E+2
   4.40935E+3   3.26728E+3
   1.02097E+3   1.63895E+2
   5.95244E+2   1.23409E+3
  -2.21969E+3   1.88310E+3
  -2.57699E+3  -4.85697E+3
  -3.22510E+2  -6.06473E+3
   1.72839E+3  -2.32819E+3
   6.74123E+1  -1.17148E+3
   2.65140E+3  -3.20237E+3
   2.99414E+3   3.63062E+3
   9.96837E+2   2.68337E+3
   5.05823E+2   1.68189E+3
  -2.12596E+3   3.97718E+2
  -1.99537E+3  -3.02606E+3
   2.06196E+3  -1.01113E+3
   1.72573E+3  -3.21230E+2
   1.49050E+1   9.98699E+2
  -1.68259E+3   2.48149E+3
  -1.78095E+3   4.39741E+3
  -5.42623E+3   8.09744E+2
  -3.89913E+3   2.74509E+2
  -2.27128E+2  -2.41740E+3
   2.76207E+3  -2.73308E+3
   3.56893E+3  -6.42182E+2
   8.11049E+2  -1.80220E+2
   1.21795E+3   5.26580E+2
  -1.08004E+2  -3.73536E+2
   4.33944E+3   6.84077E+2
   3.77156E+3   1.91864E+3
   1.01151E+3   1.16922E+3
   1.59348E+3   7.49772E+2
   1.53359E+3  -1.80138E+3
   6.80639E+2   2.84241E+1
  -6.65442E+2   2.33705E+3
  -3.76462E+3   1.34778E+3
  -1.48115E+2  -9.00862E+2
   1.33020E+2   1.84612E+3
   4.71131E+2   1.22985E+3
  -1.88652E+3   2.50191E+2
  -3.46322E+3  -4.22690E+2
  -8.77954E+2   5.93559E+2
   1.02784E+3   2.62254E+3
  -1.54694E+3  -2.16117E+2
  -1.33316E+3  -2.32545E+3
  -4.74507E+2  -1.65983E+3
   5.53512E+0   2.39402E+3
  -8.29127E+2   1.04597E+3
  -3.24070E+3  -1.73942E+2
  -2.77713E+2  -3.59926E+3
   1.39087E+1  -1.78277E+3
   1.26678E+3  -2.39826E+3
   7.77804E+1  -7.64726E+2
   6.53248E+2  -1.53224E+2
   1.82232E+3  -7.21680E+2
   1.09346E+3   1.33401E+3
  -3.32552E+1   2.08984E+3
  -2.84416E+3   2.39398E+3
  -9.27887E+2  -2.58013E+3
   5.81810E+2  -1.43354E+3
   1.90615E+3   3.02372E+2
   7.89184E+2   1.25115E+3
  -2.17198E+3  -1.91688E+3
   5.20899E+2  -1.30996E+3
   6.35450E+2  -2.84002E+3
   1.13473E+3   1.49769E+3
   8.98380E+2   2.05408E+3
  -1.06769E+3   2.12255E+3
   3.77475E+2  -7.18767E+2
  -2.52226E+3   1.73631E+3
  -1.25455E+3   6.20052E+2
  -2.44564E+3  -1.56420E+3
  -5.98140E+2  -1.87907E+3
   1.60318E+3  -1.46088E+3
   2.81653E+3  -3.56232E+2
   4.59927E+2   1.09786E+3
   1.86473E+3   8.25173E+2
  -4.90432E+2   1.07639E+3
  -4.87250E+2   1.92713E+3
  -2.61688E+3  -1.19196E+3
  -4.72931E+2  -9.08659E+2
  -1.97203E+3  -5.35142E+2
  -6.65697E+2  -1.47128E+3
   8.22037E+2   1.14653E+3
  -1.08259E+3  -1.30392E+3
  -1.23602E+3  -9.54718E+2
  -6.28856E+2  -1.29488E+3
   1.87511E+3  -4.06711E+2
   8.55924E+2   1.39458E+2
  -9.90775E+1  -7.03832E+2
  -5.79039E+2  -1.48310E+3
   7.52132E+2  -9.62388E+2
  -2.61829E+2   1.01621E+3
   6.64211E+2  -1.33358E+3
   1.20937E+3  -1.10764E+3
   2.71240E+3   4.08740E+2
   2.48565E+3   5.63812E+2
  -7.61940E+2   2.87206E+3
  -3.30427E+2   1.69646E+3
  -1.93063E+3   2.56929E+2
  -1.53004E+3  -2.35617E+2
  -1.65069E+3  -2.29005E+3
  -4.69519E+2  -4.44479E+2
   2.64844E+2   1.64733E+2
   2.12093E+3  -9.39595E+2
   1.66036E+3   1.89908E+3
   5.46658E+2   9.05693E+2
  -1.91393E+3   2.35406E+3
   1.13829E+3   7.02639E+2
   1.36317E+2   1.17364E+3
  -1.01742E+3   4.88067E+2
   7.32350E+2   1.44798E+3
   7.74491E+2   1.75628E+3
   5.15480E+2   1.41367E+3
  -4.71395E+2   2.87069E+3
  -3.40652E+2  -8.42552E+2
  -1.45729E+3   8.55020E+2
   2.84213E+2   6.36373E+2
  -3.59570E+1   8.67185E+2
   1.64493E+3   2.20174E+3
   2.25352E+2   6.62071E+2
   1.84919E+3   1.11209E+3
  -4.98349E+2   2.02245E+2
  -2.78098E+3   9.19953E+2
  -9.05973E+2   1.29557E+3
  -1.46858E+3   1.05768E+3
  -1.31149E+3  -8.86136E+2
   6.36290E+2   8.77779E+2
  -1.38579E+3   2.41846E+3
  -1.96328E+3   4.29138E+2
   7.71767E+2  -3.43580E+3
   1.35817E+3   3.36776E+2
   5.18151E+2  -4.89650E+2
  -3.43189E+1  -5.16126E+2
  -7.99482E+2  -1.92430E+2
  -1.31172E+3  -5.41542E+2
  -4.06329E+2  -1.21685E+3
   7.35036E+2  -1.23669E+3
  -1.17063E+3  -1.45458E+3
   2.64655E+2  -2.43823E+3
   7.66692E+2   8.14767E+2
  -7.10589E+2  -1.08800E+3
  -5.90497E+2  -6.33329E+2
   4.19620E+2  -1.13374E+3
  -4.42487E+2   1.47337E+2
  -1.37218E+3  -2.67401E+3
  -5.83045E+2  -2.54754E+3
   4.10091E+2  -1.29022E+3
   1.84782E+3  -1.55580E+2
   1.09956E+3   1.18740E+3
   1.13319E+3   7.91777E+2
  -7.42770E+2  -4.94005E+2
   1.70056E+3  -1.72231E+3
   9.57475E+2  -4.02831E+3
   1.58398E+3  -1.13037E+3
  -2.04423E+3  -1.47341E+3
  -5.68872E+2  -3.62997E+2
   7.02562E+1  -9.23813E+2
  -7.54867E+2   5.20853E+2
  -2.47531E+2   2.81896E+1
   2.50431E+2  -1.28756E+3
   7.84932E+2  -1.34999E+3
   2.93724E+3   1.42224E+3
   7.00340E+2   1.22601E+3
  -1.02427E+3  -6.32450E+2
  -2.92616E+2  -2.54616E+2
   1.53092E+3   1.11426E+3
   2.93001E+2  -2.38985E+2
   5.65090E+2   2.46868E+2
  -2.17622E+2  -2.96216E+2
   1.25322E+3  -2.74724E+2
  -2.53126E+2  -1.36580E+3
   1.60345E+2  -1.62588E+3
   1.58814E+3   4.28672E+2
   6.91738E+2   2.72546E+2
  -1.20971E+3   1.12485E+3
   1.86206E+3  -4.11778E+2
  -3.79479E+2   1.30293E+3
  -6.11362E+2   1.13961E+3
  -4.73943E+2  -2.09310E+2
  -1.33283E+2   1.29962E+2
  -6.42114E+2  -1.16704E+3
   9.35148E+2  -2.10920E+3
   2.07806E+2  -1.42572E+1
   8.49450E+2  -4.18420E+1
   8.01213E+2  -8.91504E+2
  -2.65579E+2   1.41733E+3
   2.88936E+2  -7.69068E+2
  -6.50047E+2  -7.06898E+2
  -1.98925E+3   1.73661E+3
   5.28927E+2   8.78666E+2
  -2.88852E+2  -2.23741E+1
  -6.37640E+2  -1.34576E+2
  -3.76727E+2   2.00125E+2
  -1.15724E+3   1.05517E+3
  -6.07197E+2   4.66677E+2
   4.74193E+2   3.95622E+2
   2.54922E+3  -1.46020E+3
   2.44872E+2   1.50906E+3
   3.67349E+2   5.64381E+1
   7.60565E+2   3.52175E+3
  -8.99960E+2  -7.30605E+2
  -1.09653E+2   1.63940E+3
  -6.90392E+2   1.17702E+3
  -6.71965E+2  -4.43103E+1
  -8.94852E+2   8.85992E+1
  -8.40368E+2   1.47118E+3
  -1.49386E+3  -1.51627E+2
   1.36045E+3  -6.29721E+2
  -3.52370E+2   7.69708E+2
   6.62006E+2  -1.72755E+2
   1.44100E+3   3.52607E+2
   5.45031E+2  -1.17260E+2
   8.15879E+2  -5.11517E+1
  -1.26896E+3   1.83030E+3
  -2.73084E+2  -4.01175E+2
   8.09221E+2  -2.08974E+3
   2.26971E+2   5.98514E+2
   4.53222E+2  -5.50157E+1
  -6.52153E+2  -7.77601E+2
   1.64497E+2   9.47803E+2
  -1.19986E+2  -9.05306E+2
  -4.21854E+2   3.62532E+2
   2.31300E+3  -6.20323E+2
   1.03535E+3   7.53612E+2
   1.40146E+3   3.47149E+2
  -6.59439E+2   6.75457E+2
   7.86770E+1  -2.23239E+3
  -2.58888E+2   5.98360E+2
  -2.23244E+2  -8.50472E+1
  -7.29811E+2   1.18990E+1
  -8.08423E+2  -8.54398E+2
  -1.84902E+3   9.23021E+2
  -3.62485E+2  -1.16820E+3
   1.12277E+2  -8.97821E+2
   9.79777E+2  -5.66146E+2
   1.44693E+3   3.27522E+2
   1.04088E+2   6.89339E+2
   1.78723E+2   8.92976E+2
   1.39048E+3   1.78260E+2
   6.86904E+2  -1.66271E+3
  -8.33239E+1  -1.04310E+3
  -3.64606E+2  -2.38842E+3
   6.55998E+2  -4.34196E+2
   6.43413E+2   1.10310E+3
   7.31740E+2  -6.22232E+2
   1.05001E+3   5.84795E+2
   1.95281E+3   1.10543E+3
  -2.28890E+3  -3.35647E+2
   4.33083E+1   1.22177E+3
   5.35383E+2   2.42151E+3
  -1.49251E+3  -2.25817E+3
   9.21705E+2  -5.84617E+1
  -7.00793E+2  -2.26542E+3
  -5.13528E+2  -2.66687E+3
   4.23670E+1   1.44777E+3
  -1.46636E+3   1.69846E+3
   5.32038E+1  -1.51100E+3
  -6.06869E+2  -8.11774E+1
  -5.40979E+2   4.25838E+2
  -1.45505E+3   7.68492E+2
   1.98707E+3   1.34384E+3
   1.41309E+2  -3.23063E+2
   4.95911E+2   2.47066E+3
  -4.03698E+2   1.39300E+3
  -8.12712E+2  -1.32789E+3
  -2.65780E+3   8.37854E+2
   3.02870E+2   1.03556E+3
  -1.19290E+3  -6.63368E+2
   1.50318E+3   1.40364E+3
   6.44271E+2  -1.62845E+3
  -3.48347E+0   2.23325E+3
  -3.73035E+2  -7.16667E+2
   1.68823E+3   1.59361E+3
   3.18670E+3  -4.69587E+2
   1.08229E+3  -3.09819E+2
   1.77994E+3   3.22743E+2
   8.20435E+2  -1.24043E+3
  -3.88904E+2  -8.18382E+2
   5.40492E+2   3.77427E+2
  -9.62575E+2   3.81254E+2
   8.61982E+2  -7.23810E+2
   4.16665E+1   8.91360E+2
   4.11045E+2   1.52758E+2
   2.51226E+3  -3.20434E+2
   7.78065E+1   1.78318E+3
  -8.14793E+2   1.65930E+3
   2.17548E+2   4.07458E+2
   1.14309E+3   1.12885E+3
  -9.60918E+2  -4.04881E+1
   4.94022E+2  -4.86275E+2
   7.66804E+2  -9.94715E+2
   6.80397E+2   1.35205E+3
   1.48929E+2   1.75405E+3
  -9.13719E+2   1.50521E+3
   1.84108E+2   4.47089E+2
  -1.87369E+3   1.42123E+3
   7.07288E+2   1.30268E+3
  -3.34076E+3  -1.71447E+3
  -5.64941E+2   5.32187E+2
  -7.02809E+2  -1.31267E+3
   1.01706E+3   2.32911E+2
   4.47494E+2  -5.93288E+2
  -5.98048E+2   9.17215E+2
  -1.99547E+3   1.52558E+2
   8.34346E+1   2.72038E+2
  -2.29804E+3   1.30202E+3
   1.61501E+3  -1.39436E+3
  -1.15517E+3  -4.95968E+2
  -2.00223E+2  -1.15788E+3
   1.29057E+3   3.73016E+2
   2.06331E+3  -8.67601E+2
  -3.38611E+2   1.26566E+2
  -1.64778E+3   9.74216E+2
  -2.50912E+3  -7.64930E+2
   1.99637E+3  -7.62378E+2
   1.81761E+2   2.21674E+2
  -1.52626E+3   1.48775E+3
   1.13175E+3   5.57593E+2
   5.65084E+2   8.83358E+2
   6.37018E+2   1.47613E+3
  -5.70173E+2   2.42664E+3
  -3.43920E+2   1.77423E+0
  -1.28610E+3  -9.71261E+2
   4.35760E+2  -9.78945E+2
  -3.96876E+2  -6.36299E+2
   3.48768E+1  -2.00347E+2
   9.28913E+2  -1.31870E+2
  -7.77823E+2  -1.66591E+3
  -8.94169E+2   9.04806E+2
