 
 $NMID
 ID=''
 FMTDAT='(2E13.5)'
 TRAMP=   1.00000E+0
 VOLUME=   1.00000E+0
 $END
  -1.57675E+4   1.40664E+4
  -4.90799E+4   2.31081E+4
  -4.39976E+4   3.10764E+4
  -4.05721E+4   2.82745E+4
  -4.33245E+4   2.80088E+4
  -4.21589E+4   2.98622E+4
  -4.10082E+4   2.82863E+4
  -4.22678E+4   2.80720E+4
  -4.15182E+4   2.93775E+4
  -4.06464E+4   2.85441E+4
  -4.11908E+4   2.82506E+4
  -4.03438E+4   2.91553E+4
  -3.95218E+4   2.88330E+4
  -4.00330E+4   2.84932E+4
  -3.93780E+4   2.88571E+4
  -3.86400E+4   2.84441E+4
  -3.88554E+4   2.81882E+4
  -3.83209E+4   2.84727E+4
  -3.77161E+4   2.80271E+4
  -3.79399E+4   2.77778E+4
  -3.73974E+4   2.79978E+4
  -3.67918E+4   2.78144E+4
  -3.69899E+4   2.77660E+4
  -3.66864E+4   2.77811E+4
  -3.61307E+4   2.75546E+4
  -3.61117E+4   2.75354E+4
  -3.58793E+4   2.75939E+4
  -3.55786E+4   2.73461E+4
  -3.54907E+4   2.70544E+4
  -3.51202E+4   2.71541E+4
  -3.47616E+4   2.72049E+4
  -3.46559E+4   2.71093E+4
  -3.45194E+4   2.71028E+4
  -3.40796E+4   2.69084E+4
  -3.38648E+4   2.69361E+4
  -3.35492E+4   2.70742E+4
  -3.30665E+4   2.69694E+4
  -3.28253E+4   2.69825E+4
  -3.25427E+4   2.72123E+4
  -3.21595E+4   2.71386E+4
  -3.18980E+4   2.71863E+4
  -3.17087E+4   2.71731E+4
  -3.14422E+4   2.69870E+4
  -3.10255E+4   2.69340E+4
  -3.07644E+4   2.69651E+4
  -3.04011E+4   2.69097E+4
  -3.01758E+4   2.68632E+4
  -2.98883E+4   2.68667E+4
  -2.95890E+4   2.67515E+4
  -2.93051E+4   2.67498E+4
  -2.89946E+4   2.67474E+4
  -2.87286E+4   2.66702E+4
  -2.83194E+4   2.65976E+4
  -2.79862E+4   2.67490E+4
  -2.77952E+4   2.66673E+4
  -2.74940E+4   2.66401E+4
  -2.72145E+4   2.65874E+4
  -2.70146E+4   2.65244E+4
  -2.67803E+4   2.64687E+4
  -2.65217E+4   2.63830E+4
  -2.62976E+4   2.63375E+4
  -2.59684E+4   2.63015E+4
  -2.57888E+4   2.62751E+4
  -2.56395E+4   2.62258E+4
  -2.54792E+4   2.61662E+4
  -2.51787E+4   2.60465E+4
  -2.49623E+4   2.61030E+4
  -2.47995E+4   2.59158E+4
  -2.46555E+4   2.58586E+4
  -2.43887E+4   2.57420E+4
  -2.42112E+4   2.56612E+4
  -2.39482E+4   2.56020E+4
  -2.36665E+4   2.54140E+4
  -2.35369E+4   2.53193E+4
  -2.33305E+4   2.52797E+4
  -2.29884E+4   2.51733E+4
  -2.27820E+4   2.50703E+4
  -2.26018E+4   2.49072E+4
  -2.24192E+4   2.47988E+4
  -2.21397E+4   2.47929E+4
  -2.19269E+4   2.46256E+4
  -2.17726E+4   2.45677E+4
  -2.15587E+4   2.43989E+4
  -2.13006E+4   2.43203E+4
  -2.12265E+4   2.42236E+4
  -2.10167E+4   2.39936E+4
  -2.08110E+4   2.37995E+4
  -2.05174E+4   2.36828E+4
  -2.02646E+4   2.35773E+4
  -2.00929E+4   2.34774E+4
  -1.98726E+4   2.33063E+4
  -1.96361E+4   2.31428E+4
  -1.94079E+4   2.31056E+4
  -1.91940E+4   2.30411E+4
  -1.90206E+4   2.28917E+4
  -1.87588E+4   2.27276E+4
  -1.84590E+4   2.26462E+4
  -1.82470E+4   2.25707E+4
  -1.80741E+4   2.24592E+4
  -1.79514E+4   2.22404E+4
  -1.76716E+4   2.21083E+4
  -1.74415E+4   2.19562E+4
  -1.72903E+4   2.19352E+4
  -1.70136E+4   2.18482E+4
  -1.68578E+4   2.17842E+4
  -1.67078E+4   2.15979E+4
  -1.64980E+4   2.15226E+4
  -1.63343E+4   2.13694E+4
  -1.61578E+4   2.12448E+4
  -1.59870E+4   2.10725E+4
  -1.57658E+4   2.09398E+4
  -1.55601E+4   2.09380E+4
  -1.54390E+4   2.09186E+4
  -1.52829E+4   2.07695E+4
  -1.50366E+4   2.07270E+4
  -1.49978E+4   2.05770E+4
  -1.47881E+4   2.03744E+4
  -1.45384E+4   2.03883E+4
  -1.44469E+4   2.03145E+4
  -1.42422E+4   2.01237E+4
  -1.40401E+4   2.00350E+4
  -1.39809E+4   1.99411E+4
  -1.38304E+4   1.97997E+4
  -1.37278E+4   1.97247E+4
  -1.35208E+4   1.96538E+4
  -1.34088E+4   1.94997E+4
  -1.33126E+4   1.93373E+4
  -1.31327E+4   1.92979E+4
  -1.30458E+4   1.92008E+4
  -1.28762E+4   1.90503E+4
  -1.27648E+4   1.89312E+4
  -1.26549E+4   1.88114E+4
  -1.25018E+4   1.88023E+4
  -1.23173E+4   1.87056E+4
  -1.22255E+4   1.85853E+4
  -1.20909E+4   1.84919E+4
  -1.20107E+4   1.84479E+4
  -1.18728E+4   1.83149E+4
  -1.17237E+4   1.82385E+4
  -1.16228E+4   1.80706E+4
  -1.15496E+4   1.80330E+4
  -1.13196E+4   1.79318E+4
  -1.11926E+4   1.78249E+4
  -1.11590E+4   1.78080E+4
  -1.10113E+4   1.77673E+4
  -1.09202E+4   1.76095E+4
  -1.07950E+4   1.74751E+4
  -1.06414E+4   1.74324E+4
  -1.06269E+4   1.73311E+4
  -1.04402E+4   1.72345E+4
  -1.04165E+4   1.71588E+4
  -1.02557E+4   1.70805E+4
  -1.02556E+4   1.69615E+4
  -1.00355E+4   1.69045E+4
  -9.98219E+3   1.67961E+4
  -9.87802E+3   1.67767E+4
  -9.86245E+3   1.66852E+4
  -9.73782E+3   1.66628E+4
  -9.62668E+3   1.65477E+4
  -9.53096E+3   1.64817E+4
  -9.40737E+3   1.64397E+4
  -9.35879E+3   1.63701E+4
  -9.32135E+3   1.62412E+4
  -9.17691E+3   1.62540E+4
  -9.12176E+3   1.61667E+4
  -9.08338E+3   1.60478E+4
  -9.04496E+3   1.60554E+4
  -8.89945E+3   1.60198E+4
  -8.80732E+3   1.58959E+4
  -8.75493E+3   1.58893E+4
  -8.70976E+3   1.58340E+4
  -8.60533E+3   1.57842E+4
  -8.62796E+3   1.56721E+4
  -8.50162E+3   1.56366E+4
  -8.41360E+3   1.55593E+4
  -8.36262E+3   1.54969E+4
  -8.30171E+3   1.54738E+4
  -8.24193E+3   1.54396E+4
  -8.15542E+3   1.53564E+4
  -8.09614E+3   1.54200E+4
  -8.03802E+3   1.53037E+4
  -7.89540E+3   1.51589E+4
  -7.77305E+3   1.51427E+4
  -7.80530E+3   1.51276E+4
  -7.66853E+3   1.50984E+4
  -7.72569E+3   1.49544E+4
  -7.55747E+3   1.49936E+4
  -7.49377E+3   1.49894E+4
  -7.50728E+3   1.48554E+4
  -7.39765E+3   1.48405E+4
  -7.29595E+3   1.47383E+4
  -7.26193E+3   1.47913E+4
  -7.17071E+3   1.46562E+4
  -7.11091E+3   1.46145E+4
  -7.13747E+3   1.46124E+4
  -6.96962E+3   1.45200E+4
  -6.98042E+3   1.44602E+4
  -6.91560E+3   1.44888E+4
  -6.81472E+3   1.44164E+4
  -6.74493E+3   1.43839E+4
  -6.66583E+3   1.44209E+4
  -6.62196E+3   1.43005E+4
  -6.56109E+3   1.43349E+4
  -6.47790E+3   1.42152E+4
  -6.41224E+3   1.41812E+4
  -6.35637E+3   1.41533E+4
  -6.23284E+3   1.40642E+4
  -6.26539E+3   1.40445E+4
  -6.13174E+3   1.40461E+4
  -6.09262E+3   1.39804E+4
  -6.07415E+3   1.40140E+4
  -5.97488E+3   1.39418E+4
  -5.86823E+3   1.38726E+4
  -5.83195E+3   1.38284E+4
  -5.72312E+3   1.38715E+4
  -5.74900E+3   1.38365E+4
  -5.65626E+3   1.37762E+4
  -5.51226E+3   1.37207E+4
  -5.50444E+3   1.37061E+4
  -5.42028E+3   1.36961E+4
  -5.34254E+3   1.35874E+4
  -5.30692E+3   1.35710E+4
  -5.21270E+3   1.36324E+4
  -5.16335E+3   1.35376E+4
  -5.13722E+3   1.35521E+4
  -5.02874E+3   1.34015E+4
  -4.98491E+3   1.34449E+4
  -4.92186E+3   1.34846E+4
  -4.88393E+3   1.33576E+4
  -4.82899E+3   1.33313E+4
  -4.72192E+3   1.33281E+4
  -4.69906E+3   1.32787E+4
  -4.58379E+3   1.31601E+4
  -4.53223E+3   1.31820E+4
  -4.44715E+3   1.31089E+4
  -4.40042E+3   1.31083E+4
  -4.30288E+3   1.30750E+4
  -4.21741E+3   1.30020E+4
  -4.24635E+3   1.29112E+4
  -4.08906E+3   1.29161E+4
  -4.02583E+3   1.28878E+4
  -3.92075E+3   1.28489E+4
  -3.91377E+3   1.28809E+4
  -3.93574E+3   1.28171E+4
  -3.82758E+3   1.28160E+4
  -3.74660E+3   1.27483E+4
  -3.65429E+3   1.27098E+4
  -3.61590E+3   1.27329E+4
  -3.44640E+3   1.26039E+4
  -3.45077E+3   1.24836E+4
  -3.38278E+3   1.25759E+4
  -3.39161E+3   1.25288E+4
  -3.25389E+3   1.24795E+4
  -3.24949E+3   1.24110E+4
  -3.05420E+3   1.23824E+4
  -3.09099E+3   1.24072E+4
  -2.94080E+3   1.22461E+4
  -2.86526E+3   1.22406E+4
  -2.84466E+3   1.22891E+4
  -2.85149E+3   1.21948E+4
  -2.72006E+3   1.21501E+4
  -2.64912E+3   1.21177E+4
  -2.59103E+3   1.20285E+4
  -2.55574E+3   1.19738E+4
  -2.41442E+3   1.19886E+4
  -2.37533E+3   1.18596E+4
  -2.33755E+3   1.18964E+4
  -2.28093E+3   1.18275E+4
  -2.19440E+3   1.17755E+4
  -2.10347E+3   1.17354E+4
  -2.06808E+3   1.16428E+4
  -1.96396E+3   1.15844E+4
  -1.90878E+3   1.16255E+4
  -1.85599E+3   1.15640E+4
  -1.86836E+3   1.15184E+4
  -1.72237E+3   1.14575E+4
  -1.72933E+3   1.13322E+4
  -1.64119E+3   1.13161E+4
  -1.54148E+3   1.12447E+4
  -1.51506E+3   1.11966E+4
  -1.44295E+3   1.11309E+4
  -1.46813E+3   1.11110E+4
  -1.37496E+3   1.10623E+4
  -1.33703E+3   1.10146E+4
  -1.17220E+3   1.09475E+4
  -1.24177E+3   1.08904E+4
  -1.08240E+3   1.08877E+4
  -1.10003E+3   1.07666E+4
  -1.01162E+3   1.06886E+4
  -9.72255E+2   1.06536E+4
  -8.88273E+2   1.05920E+4
  -8.65483E+2   1.05943E+4
  -7.82859E+2   1.04681E+4
  -7.87074E+2   1.04563E+4
  -7.17649E+2   1.03860E+4
  -7.17682E+2   1.03050E+4
  -6.41825E+2   1.02601E+4
  -5.94850E+2   1.02205E+4
  -5.42569E+2   1.01619E+4
  -5.45694E+2   1.00799E+4
  -4.70735E+2   1.00531E+4
  -4.65543E+2   9.92229E+3
  -3.97277E+2   9.97972E+3
  -2.97043E+2   9.90675E+3
  -3.34413E+2   9.86407E+3
  -3.21212E+2   9.73109E+3
  -2.78498E+2   9.69036E+3
  -2.06680E+2   9.63316E+3
  -1.80187E+2   9.56656E+3
  -1.64611E+2   9.51768E+3
  -1.38299E+2   9.43479E+3
  -3.93433E+1   9.34854E+3
  -5.98894E+1   9.38712E+3
   4.15891E+1   9.26361E+3
  -1.96268E+1   9.21859E+3
   6.47802E+1   9.20372E+3
   1.58446E+2   9.19449E+3
   1.60686E+2   9.09778E+3
   1.02765E+2   9.00262E+3
   1.90944E+2   8.87722E+3
   2.02440E+2   8.92180E+3
   2.97636E+2   8.79993E+3
   2.65894E+2   8.79811E+3
   3.31993E+2   8.76255E+3
   3.54256E+2   8.70006E+3
   4.25866E+2   8.60955E+3
   3.68270E+2   8.53349E+3
   4.27399E+2   8.50122E+3
   4.34641E+2   8.40832E+3
   5.00195E+2   8.34345E+3
   6.04700E+2   8.34452E+3
   5.20520E+2   8.17285E+3
   5.18500E+2   8.15568E+3
   5.74927E+2   8.13805E+3
   5.94137E+2   8.13829E+3
   6.67601E+2   8.10940E+3
   6.74924E+2   7.98775E+3
   7.12080E+2   7.92629E+3
   7.46772E+2   7.79412E+3
   7.91798E+2   7.87285E+3
   7.46773E+2   7.69625E+3
   7.45717E+2   7.68144E+3
   7.87944E+2   7.62275E+3
   8.30155E+2   7.56232E+3
   8.22093E+2   7.52904E+3
   8.79078E+2   7.50674E+3
   9.28101E+2   7.38768E+3
   9.19182E+2   7.31721E+3
   8.67290E+2   7.29927E+3
   9.10552E+2   7.19706E+3
   9.55540E+2   7.16913E+3
   1.00182E+3   7.08894E+3
   9.82714E+2   7.03601E+3
   9.78663E+2   6.96179E+3
   1.03564E+3   6.95540E+3
   1.01774E+3   6.91867E+3
   9.99264E+2   6.85366E+3
   1.09560E+3   6.76343E+3
   1.08131E+3   6.76166E+3
   1.06718E+3   6.68026E+3
   1.06389E+3   6.66768E+3
   1.10205E+3   6.61949E+3
   1.04660E+3   6.54783E+3
   1.15470E+3   6.45991E+3
   1.12703E+3   6.40369E+3
   1.13716E+3   6.37174E+3
   1.13139E+3   6.31509E+3
