 LCModel (Version 6.3-1N) Copyright: S.W. Provencher.          Ref.: Magn. Reson. Med. 30:672-679 (1993).                
 Slice_N1@15_23  02-Jun-2023 14:37:02
 27 lines in following concentration table = NCONC+1
    Conc.  %SD /Cr+PCr  Metabolite                                         
 1.93E-06  21% 3.4E-04 Mac                                                 
 4.54E-02  17%   8.000 Cr                                                  
    0.000 999%   0.000 PCr                                                 
 9.38E-02  13%  16.539 Ins                                                 
 9.89E-02   9%  17.447 NAA                                                 
 6.28E-02  18%  11.075 Tau                                                 
 1.96E-02  15%   3.459 PCho                                                
    0.000 999%   0.000 GPC                                                 
 9.33E-02  14%  16.451 Glu                                                 
 1.77E-02  49%   3.117 Gln                                                 
    0.000 999%   0.000 Ala                                                 
    0.000 999%   0.000 Asc                                                 
 6.50E-03 102%   1.146 Asp                                                 
 6.32E-03  61%   1.114 GABA                                                
 5.62E-03  74%   0.992 Glc                                                 
 7.30E-03  59%   1.287 GSH                                                 
    0.000 999%   0.000 Lac                                                 
    0.000 999%   0.000 NAAG                                                
    0.000 999%   0.000 PE                                                  
 1.96E-02  15%   3.459 GPC+PCho                                            
 9.89E-02   9%  17.447 NAA+NAAG                                            
    0.111  13%  19.568 Glu+Gln                                             
 4.54E-02  17%   8.000 Cr+PCr                                              
 9.89E-02   9%  17.447 NAA+NAAG                                            
 4.54E-02  17%   8.000 Cr+PCr                                              
    0.111  13%  19.568 Glu+Gln                                             
   6 lines in following misc. output table
  FWHM = 0.052 ppm    S/N =   2                                            
  Data shift =-0.017 ppm                                                   
  Ph:  31 deg      -0.2 deg/ppm                                            
  alphaB,S = 3.1E+01,   6.8E+01                                            
   18 spline knots.   Ns = 8(1)                                            
   2 inflections.     1 extrema                                            
  654 points on ppm-axis = NY
      4.000000     3.994181     3.988363     3.982544     3.976726     3.970907     3.965088     3.959270     3.953451     3.947633
      3.941814     3.935995     3.930177     3.924358     3.918540     3.912721     3.906902     3.901084     3.895265     3.889446
      3.883628     3.877809     3.871991     3.866172     3.860353     3.854535     3.848716     3.842898     3.837079     3.831260
      3.825442     3.819623     3.813805     3.807986     3.802167     3.796349     3.790530     3.784712     3.778893     3.773074
      3.767256     3.761437     3.755619     3.749800     3.743981     3.738163     3.732344     3.726526     3.720707     3.714888
      3.709070     3.703251     3.697433     3.691614     3.685795     3.679977     3.674158     3.668339     3.662521     3.656702
      3.650884     3.645065     3.639246     3.633428     3.627609     3.621791     3.615972     3.610153     3.604335     3.598516
      3.592698     3.586879     3.581060     3.575242     3.569423     3.563605     3.557786     3.551967     3.546149     3.540330
      3.534512     3.528693     3.522874     3.517056     3.511237     3.505419     3.499600     3.493781     3.487963     3.482144
      3.476326     3.470507     3.464688     3.458870     3.453051     3.447232     3.441414     3.435595     3.429777     3.423958
      3.418139     3.412321     3.406502     3.400684     3.394865     3.389046     3.383228     3.377409     3.371591     3.365772
      3.359953     3.354135     3.348316     3.342498     3.336679     3.330860     3.325042     3.319223     3.313405     3.307586
      3.301767     3.295949     3.290130     3.284312     3.278493     3.272674     3.266856     3.261037     3.255219     3.249400
      3.243581     3.237763     3.231944     3.226125     3.220307     3.214488     3.208670     3.202851     3.197032     3.191214
      3.185395     3.179577     3.173758     3.167939     3.162121     3.156302     3.150484     3.144665     3.138846     3.133028
      3.127209     3.121391     3.115572     3.109753     3.103935     3.098116     3.092298     3.086479     3.080660     3.074842
      3.069023     3.063205     3.057386     3.051567     3.045749     3.039930     3.034111     3.028293     3.022474     3.016656
      3.010837     3.005018     2.999200     2.993381     2.987563     2.981744     2.975925     2.970107     2.964288     2.958470
      2.952651     2.946832     2.941014     2.935195     2.929377     2.923558     2.917739     2.911921     2.906102     2.900284
      2.894465     2.888646     2.882828     2.877009     2.871191     2.865372     2.859553     2.853735     2.847916     2.842098
      2.836279     2.830460     2.824642     2.818823     2.813004     2.807186     2.801367     2.795549     2.789730     2.783911
      2.778093     2.772274     2.766456     2.760637     2.754818     2.749000     2.743181     2.737363     2.731544     2.725725
      2.719907     2.714088     2.708270     2.702451     2.696632     2.690814     2.684995     2.679177     2.673358     2.667539
      2.661721     2.655902     2.650084     2.644265     2.638446     2.632628     2.626809     2.620991     2.615172     2.609353
      2.603535     2.597716     2.591897     2.586079     2.580260     2.574442     2.568623     2.562804     2.556986     2.551167
      2.545349     2.539530     2.533711     2.527893     2.522074     2.516256     2.510437     2.504618     2.498800     2.492981
      2.487163     2.481344     2.475525     2.469707     2.463888     2.458070     2.452251     2.446432     2.440614     2.434795
      2.428977     2.423158     2.417339     2.411521     2.405702     2.399884     2.394065     2.388246     2.382428     2.376609
      2.370790     2.364972     2.359153     2.353335     2.347516     2.341697     2.335879     2.330060     2.324242     2.318423
      2.312604     2.306786     2.300967     2.295149     2.289330     2.283511     2.277693     2.271874     2.266056     2.260237
      2.254418     2.248600     2.242781     2.236963     2.231144     2.225325     2.219507     2.213688     2.207870     2.202051
      2.196232     2.190414     2.184595     2.178777     2.172958     2.167139     2.161321     2.155502     2.149683     2.143865
      2.138046     2.132228     2.126409     2.120590     2.114772     2.108953     2.103135     2.097316     2.091497     2.085679
      2.079860     2.074042     2.068223     2.062404     2.056586     2.050767     2.044949     2.039130     2.033311     2.027493
      2.021674     2.015856     2.010037     2.004218     1.998400     1.992581     1.986763     1.980944     1.975126     1.969307
      1.963489     1.957670     1.951852     1.946033     1.940215     1.934397     1.928578     1.922760     1.916941     1.911123
      1.905304     1.899486     1.893667     1.887849     1.882030     1.876212     1.870393     1.864575     1.858756     1.852938
      1.847119     1.841301     1.835482     1.829664     1.823845     1.818027     1.812208     1.806390     1.800571     1.794753
      1.788934     1.783116     1.777297     1.771479     1.765660     1.759842     1.754023     1.748205     1.742386     1.736568
      1.730749     1.724931     1.719113     1.713294     1.707476     1.701657     1.695839     1.690020     1.684202     1.678383
      1.672565     1.666746     1.660928     1.655109     1.649291     1.643472     1.637654     1.631835     1.626017     1.620198
      1.614380     1.608561     1.602743     1.596924     1.591106     1.585287     1.579469     1.573650     1.567832     1.562013
      1.556195     1.550376     1.544558     1.538739     1.532921     1.527102     1.521284     1.515465     1.509647     1.503829
      1.498010     1.492192     1.486373     1.480555     1.474736     1.468918     1.463099     1.457281     1.451462     1.445644
      1.439825     1.434007     1.428188     1.422370     1.416551     1.410733     1.404914     1.399096     1.393277     1.387459
      1.381640     1.375822     1.370003     1.364185     1.358366     1.352548     1.346729     1.340911     1.335092     1.329274
      1.323455     1.317637     1.311818     1.306000     1.300182     1.294363     1.288545     1.282726     1.276908     1.271089
      1.265271     1.259452     1.253634     1.247815     1.241997     1.236178     1.230360     1.224541     1.218723     1.212904
      1.207086     1.201267     1.195449     1.189630     1.183812     1.177993     1.172175     1.166356     1.160538     1.154719
      1.148901     1.143082     1.137264     1.131445     1.125627     1.119808     1.113990     1.108171     1.102353     1.096534
      1.090716     1.084898     1.079079     1.073261     1.067442     1.061624     1.055805     1.049987     1.044168     1.038350
      1.032531     1.026713     1.020894     1.015076     1.009257     1.003439     0.997620     0.991802     0.985983     0.980165
      0.974346     0.968528     0.962709     0.956891     0.951072     0.945254     0.939435     0.933617     0.927798     0.921980
      0.916161     0.910343     0.904524     0.898706     0.892887     0.887069     0.881251     0.875432     0.869614     0.863795
      0.857977     0.852158     0.846340     0.840521     0.834703     0.828884     0.823066     0.817247     0.811429     0.805610
      0.799792     0.793973     0.788155     0.782336     0.776518     0.770699     0.764881     0.759062     0.753244     0.747425
      0.741607     0.735788     0.729970     0.724151     0.718333     0.712514     0.706696     0.700877     0.695059     0.689240
      0.683422     0.677603     0.671785     0.665967     0.660148     0.654330     0.648511     0.642693     0.636874     0.631056
      0.625237     0.619419     0.613600     0.607782     0.601963     0.596145     0.590326     0.584508     0.578689     0.572871
      0.567052     0.561234     0.555415     0.549597     0.543778     0.537960     0.532141     0.526323     0.520504     0.514686
      0.508867     0.503049     0.497230     0.491412     0.485593     0.479775     0.473956     0.468138     0.462319     0.456501
      0.450682     0.444864     0.439045     0.433227     0.427408     0.421590     0.415771     0.409953     0.404134     0.398316
      0.392497     0.386679     0.380860     0.375042     0.369223     0.363405     0.357586     0.351767     0.345949     0.340130
      0.334312     0.328493     0.322675     0.316856     0.311038     0.305219     0.299401     0.293582     0.287764     0.281945
      0.276127     0.270308     0.264490     0.258671     0.252853     0.247034     0.241216     0.235397     0.229579     0.223760
      0.217942     0.212123     0.206305     0.200486
 NY phased data points follow
  -3.53981E-04 -7.74908E-02 -2.45071E-01  5.99445E-02  3.35344E-01  3.23599E-01  6.24618E-03 -1.87306E-01 -3.94413E-02  2.69860E-02
   1.97479E-02 -1.69562E-01  9.91593E-02  1.46731E-01  2.17310E-01 -1.94291E-01 -1.03320E-01  1.13562E-01 -2.08967E-01  5.33546E-02
  -1.30719E-02  1.70625E-01 -3.78174E-01 -4.54696E-01 -3.72580E-01 -2.06449E-01  3.77524E-01  3.10803E-01 -2.42994E-02 -3.16688E-01
   1.53371E-01 -1.76515E-01 -6.78599E-02 -1.09114E-01 -1.18652E-01  3.61659E-01 -1.35182E-01  1.68962E-02  7.89879E-02 -3.41397E-02
   1.43863E-01  5.48062E-01  3.56425E-01 -7.24939E-02  4.17447E-01  2.79761E-01  2.28568E-01  4.31838E-01  3.79650E-01  2.55507E-01
  -2.38623E-01 -4.62860E-02  4.59078E-02 -2.58095E-01 -1.28259E-01  3.34172E-01 -1.20330E-02 -4.09354E-01 -1.80931E-01 -4.73030E-01
  -2.04578E-01 -2.30853E-01 -2.15707E-01 -1.05565E-01 -3.67423E-01 -7.03920E-02 -5.03018E-01 -4.66891E-01 -9.28607E-02 -1.72215E-01
   6.91586E-01  8.38942E-01  2.32109E-01 -1.27534E-01 -2.61911E-01 -2.22120E-01 -6.97478E-01 -3.79863E-01 -2.82251E-01 -3.76581E-01
   6.26606E-02  8.54104E-02  2.73723E-01  1.15664E-01 -2.34467E-01  5.59246E-02  3.91847E-01 -1.23989E-01 -7.82370E-02  3.28449E-01
   2.63523E-01  5.11016E-01  1.32683E-01 -7.63996E-02  2.77920E-01 -9.65070E-02 -2.06099E-01 -2.44892E-01 -9.42973E-02 -3.16893E-03
  -2.61747E-01  9.98476E-02 -4.00473E-02  3.66359E-01  3.34369E-01  1.96119E-01  7.82437E-01  5.05414E-01  3.25496E-01  3.33648E-01
   2.44018E-01  3.56103E-01  7.67933E-01  6.01394E-01  7.11374E-01  5.92974E-01  5.48244E-01  6.43442E-01  4.08495E-01  5.38967E-01
   6.42652E-02 -5.04846E-02 -2.02272E-01 -3.14581E-02  4.78014E-02 -2.93961E-01 -1.12145E-01  3.71949E-02  6.74425E-02 -1.87157E-01
  -3.89584E-01 -3.75667E-01 -6.08764E-01 -6.55199E-01 -4.07065E-01 -5.41081E-01 -3.70115E-01 -6.81218E-01 -7.95274E-01 -7.82734E-01
  -9.42215E-01 -1.99857E-01 -4.26732E-02 -4.80639E-02  1.34730E-01  4.09192E-02 -6.14058E-02  2.32399E-01  1.73100E-01  2.19508E-01
   3.86526E-01 -1.89558E-01 -2.98053E-01 -1.94478E-01 -1.76516E-01 -1.61146E-01 -1.63326E-02  4.02480E-02  1.97387E-01  3.31184E-01
   2.39995E-01  4.09294E-01  6.04891E-01  9.25049E-01  7.39830E-01  7.44805E-01  6.44831E-01  3.34858E-02  1.60209E-01  2.76467E-01
   1.27041E-01 -5.28272E-01 -8.95838E-01 -4.26751E-01 -4.15229E-01 -2.87944E-01  6.72867E-02 -1.25043E-01 -5.81928E-01 -4.98222E-01
  -3.43956E-01 -6.49352E-01 -6.27682E-01 -3.68442E-01 -3.01631E-01 -2.76381E-01 -2.56137E-01 -5.18330E-01 -2.70566E-01  1.92999E-01
   6.04108E-02 -1.40077E-01  3.38597E-02  2.62239E-01  5.40513E-02  2.23218E-01  2.47469E-01  1.89930E-01 -5.56478E-02 -4.10339E-02
   2.54166E-01 -2.13100E-01  5.16568E-02  1.01240E-01 -1.41824E-01 -1.41494E-01  1.55786E-01  4.34700E-01  2.75937E-01  1.98845E-01
  -4.94133E-02  1.44033E-01 -2.18248E-01 -4.19357E-01 -1.67921E-01 -2.77246E-01  8.27046E-02 -8.28984E-02 -2.84646E-01 -9.80051E-02
  -1.07795E-01  3.42644E-02 -8.71606E-02  1.59726E-01  1.95131E-01  1.84959E-01  2.29128E-01  2.25429E-01  7.50747E-01  2.91552E-01
   2.90981E-01  5.84877E-02  1.25481E-01  4.38261E-01 -5.79246E-02  1.60287E-01  2.62105E-01  2.82679E-01 -7.19604E-02 -2.31230E-01
  -2.18255E-01  1.21489E-01 -2.84519E-01 -4.04429E-01 -3.93822E-02 -1.62426E-01  1.29635E-01 -7.83772E-02 -1.85944E-01 -3.06788E-01
   5.29039E-03 -4.22278E-01  4.82188E-03  1.83023E-01 -4.72121E-01 -5.35537E-02 -1.93771E-01  1.97020E-01  9.49121E-02  4.29347E-02
   1.50849E-01  3.63719E-02  5.54834E-02  3.90582E-01  3.65565E-01 -5.95311E-02  1.43150E-01 -1.27380E-01  1.17923E-01  5.43045E-02
  -1.12615E-01  1.35891E-01 -2.92326E-01 -5.25352E-02  6.57924E-02 -2.09150E-01 -3.19464E-02 -2.39516E-01 -2.02830E-01 -1.40891E-01
  -1.68166E-01 -2.00618E-01 -3.75907E-01 -1.18245E-01  1.67757E-02  8.16906E-02  2.28109E-01  1.01796E-01  2.92220E-01  4.15587E-01
   1.96751E-01  5.84722E-01  3.13987E-01  5.44850E-01  4.11708E-01 -6.72343E-02  3.60415E-01  1.57408E-01  4.87664E-01  4.00165E-01
   1.76745E-01  3.58408E-02  3.97588E-01  6.07037E-01  3.35235E-02 -8.55401E-02  1.31792E-01  4.30618E-01  2.95198E-01  2.87994E-01
   9.26738E-02  2.49587E-01  1.55411E-01  1.66471E-01  6.14063E-02 -2.40493E-01  1.76983E-01  1.92232E-01  1.78558E-01 -1.12173E-01
  -1.33910E-01 -7.75955E-02 -2.57268E-01 -2.78659E-01 -4.41031E-01 -4.10148E-01 -3.81427E-01 -3.64388E-01 -3.40528E-01 -1.55339E-01
  -4.52144E-02 -8.24643E-02  3.06292E-01 -4.53887E-02 -1.12584E-01 -1.99890E-02 -4.06058E-01 -1.20919E-01 -4.41818E-01 -6.81499E-01
  -7.49183E-01 -6.60842E-01 -9.05790E-01 -1.16977E+00 -7.58561E-01 -9.99076E-01 -1.33891E+00 -5.88255E-01  1.04146E-01 -5.30416E-02
   2.31928E-01 -1.63407E-01 -9.11289E-02 -6.02258E-02 -3.22753E-02 -3.25681E-02 -3.51938E-01  2.38566E-01 -1.52195E-01  4.54348E-01
   3.19523E-01 -2.94041E-01  8.98486E-02 -1.52781E-01 -1.85603E-01 -1.50265E-01 -9.46864E-02 -1.66978E-01  1.63926E-01  7.48245E-02
   1.54092E-01  3.13620E-01  3.46522E-01  3.79286E-01  5.07567E-02  1.65718E-01  3.88468E-01  5.36539E-01  3.11901E-01  6.47734E-01
   5.13476E-01  1.00385E-01  9.27873E-02  2.90479E-01  6.94992E-01  5.56419E-01  4.50712E-01  3.32451E-01  3.14686E-01 -1.51050E-01
   2.64009E-01  3.50541E-01 -6.49675E-02  5.55806E-01  3.75615E-01  3.19893E-01  5.46165E-01  3.32476E-01  2.48282E-02 -1.61442E-02
  -4.34215E-02  2.91397E-01  4.10741E-01  4.88210E-02  6.53913E-03  1.35361E-02 -9.17749E-02 -5.91620E-02  1.78746E-01 -4.82152E-02
  -1.12374E-01 -2.00184E-01 -3.74577E-01 -1.96604E-01 -1.01211E-01 -2.89046E-01 -2.27849E-01 -1.35704E-01 -1.11573E-01 -3.74324E-01
  -4.40590E-01 -2.22411E-01 -6.10455E-01 -2.86968E-01 -1.41065E-01 -6.37735E-02  1.41464E-01  1.20919E-01 -1.11563E-01 -8.87479E-02
  -2.90493E-02 -4.58888E-01 -3.68518E-01 -8.07057E-02  1.30684E-01 -7.07537E-02  1.70415E-01  1.95198E-01 -1.57995E-01 -5.32214E-01
  -2.44327E-02  2.27337E-01  1.04819E-01  2.51277E-01 -1.49445E-01  3.43107E-01  1.11078E-01  2.42661E-01  2.47373E-01  2.11688E-03
   2.09464E-01  7.56489E-02  2.91816E-02 -5.81583E-02  2.42204E-01  3.02455E-01  1.56148E-01  1.43116E-01  5.18404E-02 -1.66594E-01
   7.87069E-02  9.05683E-03 -4.60658E-02 -1.89954E-01  8.50712E-02 -7.28224E-02 -1.48292E-01  8.89091E-02 -4.73791E-01 -2.33737E-01
  -3.59523E-01 -4.92688E-02 -2.49799E-01 -2.41216E-01 -3.28372E-01 -3.25620E-01 -1.15798E-01 -5.41104E-01 -1.15058E-01 -1.68526E-01
   3.94366E-01  6.40345E-02 -2.76131E-01 -7.10456E-03 -1.49509E-01  1.82609E-01  1.48250E-01  8.72424E-02  6.45687E-02 -2.48998E-02
   2.88335E-01  2.20777E-01 -9.65928E-03  1.34622E-01 -3.59626E-01  9.51448E-02  4.74454E-01  2.89241E-01  2.67473E-01  1.55263E-02
   1.22346E-01 -1.08957E-02  2.57484E-01  4.49192E-01 -8.11163E-02  5.74050E-02  2.25377E-01  4.27632E-02  3.25411E-01  3.74897E-02
  -1.73474E-01  1.14776E-01  2.18093E-01  2.45932E-01 -3.62442E-03 -3.01551E-01 -7.03929E-03 -1.77312E-01 -2.92806E-01  2.36030E-01
   1.04716E-01  1.34586E-01 -4.38517E-02 -2.72470E-01 -4.14024E-01 -2.21918E-01 -1.42248E-01 -4.29396E-01 -1.40997E-01 -1.16773E-01
  -1.08121E-01 -2.89214E-01 -5.96255E-01 -2.71348E-01  1.98889E-01 -8.71288E-02 -3.09005E-01  1.02330E-01  9.39968E-02 -2.20944E-01
  -3.14267E-01 -4.05008E-01 -4.09193E-01 -1.82590E-01  6.88846E-02 -9.77061E-02 -1.11641E-01  8.24950E-02  9.65389E-02  3.00576E-01
   1.59155E-01  3.04454E-01  5.06755E-01  1.06181E-01  4.53315E-01  7.10340E-01 -1.45873E-01  3.80346E-02 -6.15383E-02 -9.90789E-02
   5.87457E-02 -1.90759E-01  4.92824E-01 -5.31451E-02  2.02026E-01  1.74818E-01 -8.47455E-02  2.24866E-01 -1.99994E-01  1.22095E-01
   1.45372E-01  2.70831E-01  1.23830E-01  7.13427E-02  2.28887E-01  1.74882E-01  1.28521E-02 -3.13748E-02  2.25525E-01  6.76906E-02
   6.67761E-02  1.33253E-01  9.94452E-04 -9.03619E-02 -8.93752E-02  2.32512E-01  1.05162E-01 -2.00422E-01 -1.24092E-01 -8.01848E-02
   1.23567E-01 -1.44311E-01  2.83458E-01  1.03115E-01 -1.35443E-01  2.48984E-01 -3.99330E-03  3.93128E-01  5.46522E-02 -1.48205E-01
  -1.44606E-01 -2.72712E-01 -4.89722E-02  8.60503E-02  2.74197E-01  7.60694E-02 -2.78688E-02  2.35435E-01 -1.91884E-01 -1.33240E-01
   1.63678E-01 -2.50899E-01 -9.05065E-02 -7.09029E-02  7.35158E-02 -5.32598E-02 -9.71404E-02 -1.57879E-01 -6.19861E-02  1.30885E-01
   1.64342E-02  6.09843E-02 -9.06261E-02 -1.25776E-01 -1.40246E-01  9.23956E-02 -2.11289E-03  2.05746E-01 -2.29060E-01 -9.03643E-02
   1.75736E-01 -2.73614E-02 -3.89967E-02 -4.32962E-01  6.65929E-02 -4.14189E-01 -2.08168E-01  1.01808E-01  7.02267E-02  3.85224E-01
  -1.69507E-01 -2.07463E-01  1.44072E-01  1.80147E-01 -5.39019E-02  2.15855E-02  2.74097E-01  1.67794E-01  6.07031E-02  1.14559E-01
  -3.12177E-02  2.67688E-01  1.10648E-01  2.66053E-01
 NY points of the fit to the data follow
   4.44556E-02  4.78181E-02  4.94069E-02  5.02809E-02  5.05657E-02  5.02714E-02  4.92603E-02  4.79051E-02  5.24243E-02  7.04933E-02
   1.02331E-01  1.44972E-01  1.90946E-01  2.30215E-01  2.59496E-01  2.81502E-01  3.01373E-01  3.17389E-01  3.18091E-01  2.90855E-01
   2.27641E-01  1.41738E-01  6.35478E-02  1.23487E-02 -1.21978E-02 -2.47862E-02 -3.91842E-02 -5.42568E-02 -6.88619E-02 -8.34666E-02
  -9.90167E-02 -1.16255E-01 -1.34360E-01 -1.51084E-01 -1.63696E-01 -1.68203E-01 -1.60812E-01 -1.38874E-01 -1.01290E-01 -5.01199E-02
   1.08010E-02  7.62929E-02  1.40548E-01  1.98451E-01  2.43746E-01  2.70790E-01  2.75170E-01  2.53821E-01  2.09164E-01  1.49252E-01
   8.59379E-02  2.98095E-02 -1.70875E-02 -5.84418E-02 -9.93478E-02 -1.42641E-01 -1.85495E-01 -2.25582E-01 -2.63544E-01 -2.94352E-01
  -3.11882E-01 -3.13103E-01 -2.90822E-01 -2.42776E-01 -1.74363E-01 -9.33139E-02 -8.74449E-03  7.44151E-02  1.50467E-01  2.15656E-01
   2.66330E-01  2.87161E-01  2.65863E-01  2.01325E-01  1.04292E-01 -2.79141E-03 -1.02696E-01 -1.78916E-01 -2.20767E-01 -2.34625E-01
  -2.24702E-01 -1.89378E-01 -1.23929E-01 -2.71787E-02  9.46726E-02  2.22384E-01  3.25588E-01  3.88646E-01  4.12060E-01  3.98042E-01
   3.54418E-01  2.88104E-01  2.09954E-01  1.34975E-01  6.56151E-02  5.42815E-03 -3.97001E-02 -6.87716E-02 -8.12045E-02 -7.75746E-02
  -5.42673E-02 -5.77756E-03  6.66047E-02  1.55475E-01  2.42293E-01  3.08048E-01  3.44943E-01  3.54858E-01  3.49710E-01  3.42676E-01
   3.37331E-01  3.36610E-01  3.37048E-01  3.38072E-01  3.39258E-01  3.38297E-01  3.33032E-01  3.23346E-01  3.06132E-01  2.79297E-01
   2.42702E-01  1.92226E-01  1.25603E-01  4.42822E-02 -4.59524E-02 -1.34230E-01 -2.09060E-01 -2.60764E-01 -3.04205E-01 -3.62811E-01
  -4.34755E-01 -5.13516E-01 -5.80374E-01 -6.11801E-01 -6.13198E-01 -6.06937E-01 -6.21466E-01 -6.60445E-01 -6.88137E-01 -6.60613E-01
  -5.43406E-01 -3.63872E-01 -1.96229E-01 -8.78549E-02 -4.04914E-02 -2.01113E-02  4.63033E-03  2.76101E-02  4.82473E-02  6.69219E-02
   8.40951E-02  1.00228E-01  1.15717E-01  1.30999E-01  1.46563E-01  1.62921E-01  1.80778E-01  2.01200E-01  2.25840E-01  2.57737E-01
   3.02503E-01  3.52119E-01  3.86645E-01  3.95144E-01  3.68804E-01  3.10035E-01  2.35887E-01  1.57034E-01  7.33864E-02 -2.85163E-02
  -1.56289E-01 -2.94413E-01 -4.11403E-01 -4.60650E-01 -4.28336E-01 -3.54546E-01 -2.85504E-01 -2.46793E-01 -2.31137E-01 -2.15742E-01
  -2.02240E-01 -1.91127E-01 -1.81549E-01 -1.72578E-01 -1.63588E-01 -1.55306E-01 -1.48205E-01 -1.41826E-01 -1.35377E-01 -1.28339E-01
  -1.20943E-01 -1.13561E-01 -1.06318E-01 -9.91398E-02 -9.18375E-02 -8.43079E-02 -7.68232E-02 -6.97223E-02 -6.32670E-02 -5.74548E-02
  -5.20657E-02 -4.70107E-02 -4.24176E-02 -3.86649E-02 -3.63582E-02 -3.57509E-02 -3.65372E-02 -3.78552E-02 -3.87617E-02 -3.91924E-02
  -3.98394E-02 -4.14566E-02 -4.38884E-02 -4.58137E-02 -4.62382E-02 -4.53112E-02 -4.37144E-02 -4.02108E-02 -3.13971E-02 -1.54403E-02
   6.91832E-03  3.30731E-02  6.15561E-02  9.44794E-02  1.33586E-01  1.78629E-01  2.25230E-01  2.62633E-01  2.80727E-01  2.75926E-01
   2.54458E-01  2.28633E-01  2.04163E-01  1.75886E-01  1.33163E-01  7.40642E-02  1.46812E-02 -2.75629E-02 -4.87690E-02 -5.70934E-02
  -6.33235E-02 -7.07273E-02 -7.77035E-02 -8.41547E-02 -9.00636E-02 -9.58040E-02 -1.02192E-01 -1.10080E-01 -1.20440E-01 -1.31423E-01
  -1.39714E-01 -1.45114E-01 -1.45643E-01 -1.39549E-01 -1.27807E-01 -1.09605E-01 -8.44294E-02 -5.10938E-02 -1.08511E-02  3.13224E-02
   7.17139E-02  1.03359E-01  1.23957E-01  1.37477E-01  1.43456E-01  1.41945E-01  1.33928E-01  1.21099E-01  1.07506E-01  9.04434E-02
   6.80927E-02  4.22255E-02  1.28165E-02 -2.11947E-02 -6.32248E-02 -1.12443E-01 -1.65964E-01 -2.19013E-01 -2.63428E-01 -2.92831E-01
  -3.00419E-01 -2.82857E-01 -2.41912E-01 -1.80170E-01 -1.01625E-01 -9.01310E-03  9.33071E-02  1.96187E-01  2.88279E-01  3.54784E-01
   3.85712E-01  3.82924E-01  3.55615E-01  3.20147E-01  2.90304E-01  2.70747E-01  2.61482E-01  2.57764E-01  2.55578E-01  2.53365E-01
   2.49607E-01  2.44271E-01  2.37800E-01  2.30990E-01  2.24412E-01  2.17539E-01  2.10010E-01  2.01085E-01  1.90090E-01  1.76185E-01
   1.58549E-01  1.36141E-01  1.08258E-01  7.45375E-02  3.49440E-02 -9.51284E-03 -5.75477E-02 -1.06884E-01 -1.53889E-01 -1.94560E-01
  -2.24299E-01 -2.39611E-01 -2.38879E-01 -2.22806E-01 -1.94398E-01 -1.57772E-01 -1.17385E-01 -7.81495E-02 -4.49390E-02 -2.21460E-02
  -1.29682E-02 -1.72103E-02 -3.14997E-02 -5.06884E-02 -7.96374E-02 -1.39566E-01 -2.40734E-01 -3.74091E-01 -5.23161E-01 -6.59340E-01
  -7.63005E-01 -8.40529E-01 -9.10332E-01 -9.80712E-01 -1.02576E+00 -9.97679E-01 -8.58779E-01 -6.16165E-01 -3.53889E-01 -1.63866E-01
  -7.48293E-02 -5.42752E-02 -4.75910E-02 -3.35935E-02 -2.18141E-02 -1.31451E-02 -7.33994E-03 -3.90077E-03 -2.42118E-03 -2.33163E-03
  -3.16339E-03 -4.41900E-03 -5.45581E-03 -5.77999E-03 -4.86202E-03 -2.39916E-03  1.65185E-03  7.20913E-03  1.37848E-02  2.07228E-02
   2.74749E-02  3.35515E-02  3.89908E-02  4.38987E-02  4.83580E-02  5.24667E-02  5.61815E-02  5.95937E-02  6.28183E-02  6.59801E-02
   6.90522E-02  7.19619E-02  7.46326E-02  7.71059E-02  7.95805E-02  8.21619E-02  8.47786E-02  8.72669E-02  8.94511E-02  9.13086E-02
   9.29189E-02  9.43445E-02  9.54980E-02  9.61339E-02  9.59774E-02  9.48881E-02  9.28615E-02  9.00575E-02  8.66883E-02  8.29062E-02
   7.87711E-02  7.42123E-02  6.92336E-02  6.39023E-02  5.83699E-02  5.28413E-02  4.74679E-02  4.23519E-02  3.75897E-02  3.31665E-02
   2.90077E-02  2.50538E-02  2.13358E-02  1.79517E-02  1.49072E-02  1.21345E-02  9.58946E-03  7.24287E-03  5.17703E-03  3.48680E-03
   2.25399E-03  1.57323E-03  1.48909E-03  2.04804E-03  3.22385E-03  4.93046E-03  7.10462E-03  9.65318E-03  1.25041E-02  1.56915E-02
   1.92240E-02  2.30398E-02  2.70161E-02  3.10872E-02  3.53835E-02  4.02135E-02  4.59095E-02  5.25595E-02  5.99567E-02  6.78299E-02
   7.60163E-02  8.45707E-02  9.35565E-02  1.02824E-01  1.12050E-01  1.20833E-01  1.28880E-01  1.36039E-01  1.42180E-01  1.47150E-01
   1.50703E-01  1.52603E-01  1.52800E-01  1.51407E-01  1.48650E-01  1.44770E-01  1.39871E-01  1.33962E-01  1.27076E-01  1.19350E-01
   1.11067E-01  1.02625E-01  9.44003E-02  8.65881E-02  7.91933E-02  7.21392E-02  6.54504E-02  5.92472E-02  5.36960E-02  4.88791E-02
   4.47822E-02  4.14179E-02  3.88434E-02  3.70956E-02  3.62228E-02  3.62523E-02  3.71996E-02  3.90661E-02  4.17321E-02  4.49369E-02
   4.83701E-02  5.18729E-02  5.54059E-02  5.89319E-02  6.23590E-02  6.55343E-02  6.82773E-02  7.04679E-02  7.20912E-02  7.32165E-02
   7.39470E-02  7.43105E-02  7.42283E-02  7.35830E-02  7.22832E-02  7.03872E-02  6.80745E-02  6.55075E-02  6.27995E-02  5.99513E-02
   5.69947E-02  5.40388E-02  5.10978E-02  4.81484E-02  4.51806E-02  4.22032E-02  3.92464E-02  3.62492E-02  3.31492E-02  2.99075E-02
   2.64994E-02  2.28732E-02  1.88519E-02  1.41985E-02  8.68578E-03  2.16162E-03 -5.42920E-03 -1.41067E-02 -2.38195E-02 -3.44488E-02
  -4.59279E-02 -5.82394E-02 -7.13186E-02 -8.48891E-02 -9.84234E-02 -1.11364E-01 -1.23263E-01 -1.33835E-01 -1.42914E-01 -1.50345E-01
  -1.55991E-01 -1.59754E-01 -1.61612E-01 -1.61668E-01 -1.60094E-01 -1.57168E-01 -1.53233E-01 -1.48519E-01 -1.43080E-01 -1.37030E-01
  -1.30575E-01 -1.23883E-01 -1.16957E-01 -1.09665E-01 -1.01916E-01 -9.37174E-02 -8.52074E-02 -7.65942E-02 -6.80391E-02 -5.96818E-02
  -5.16160E-02 -4.38994E-02 -3.65833E-02 -2.96372E-02 -2.30953E-02 -1.70326E-02 -1.14628E-02 -6.40531E-03 -1.79815E-03  2.41760E-03
   6.21322E-03  9.52749E-03  1.22940E-02  1.46582E-02  1.67887E-02  1.86740E-02  2.03356E-02  2.18379E-02  2.32532E-02  2.46691E-02
   2.60495E-02  2.73559E-02  2.86184E-02  2.98805E-02  3.11379E-02  3.22448E-02  3.30804E-02  3.36058E-02  3.38310E-02  3.38552E-02
   3.37994E-02  3.37944E-02  3.38906E-02  3.40018E-02  3.40452E-02  3.39781E-02  3.38162E-02  3.36194E-02  3.34289E-02  3.32720E-02
   3.30685E-02  3.26701E-02  3.20527E-02  3.13117E-02  3.06699E-02  3.03717E-02  3.03908E-02  3.05031E-02  3.05390E-02  3.05052E-02
   3.05467E-02  3.07427E-02  3.11394E-02  3.18048E-02  3.26781E-02  3.35608E-02  3.42674E-02  3.47739E-02  3.51666E-02  3.54943E-02
   3.57767E-02  3.60032E-02  3.61914E-02  3.63482E-02  3.64578E-02  3.66063E-02  3.69431E-02  3.76335E-02  3.86828E-02  3.98643E-02
   4.09354E-02  4.17759E-02  4.24349E-02  4.30765E-02  4.37620E-02  4.44709E-02  4.50186E-02  4.51971E-02  4.50442E-02  4.47860E-02
   4.46719E-02  4.48228E-02  4.51245E-02  4.53908E-02  4.55471E-02  4.56960E-02  4.60011E-02  4.64808E-02  4.70489E-02  4.76278E-02
   4.82466E-02  4.90403E-02  5.00930E-02  5.13501E-02  5.27186E-02  5.41972E-02  5.58247E-02  5.76464E-02  5.96965E-02  6.19420E-02
   6.43941E-02  6.69995E-02  6.95490E-02  7.19257E-02
 NY background values follow
     9.812E-02    9.790E-02    9.768E-02    9.747E-02    9.725E-02    9.703E-02    9.682E-02    9.660E-02    9.638E-02    9.617E-02
     9.595E-02    9.573E-02    9.552E-02    9.530E-02    9.508E-02    9.486E-02    9.465E-02    9.443E-02    9.421E-02    9.400E-02
     9.378E-02    9.356E-02    9.335E-02    9.313E-02    9.291E-02    9.270E-02    9.248E-02    9.226E-02    9.205E-02    9.183E-02
     9.161E-02    9.140E-02    9.118E-02    9.096E-02    9.075E-02    9.053E-02    9.031E-02    9.009E-02    8.988E-02    8.966E-02
     8.944E-02    8.923E-02    8.901E-02    8.879E-02    8.858E-02    8.836E-02    8.814E-02    8.793E-02    8.771E-02    8.749E-02
     8.728E-02    8.706E-02    8.684E-02    8.663E-02    8.641E-02    8.619E-02    8.597E-02    8.576E-02    8.554E-02    8.532E-02
     8.511E-02    8.489E-02    8.467E-02    8.446E-02    8.424E-02    8.402E-02    8.381E-02    8.359E-02    8.337E-02    8.316E-02
