 
 $NMID
 ID=''
 FMTDAT='(2E13.5)'
 TRAMP=   1.00000E+0
 VOLUME=   1.00000E+0
 $END
  -2.36584E+3   1.87281E+4
  -1.89224E+4   4.45068E+4
  -1.00332E+4   4.71691E+4
  -8.37321E+3   4.33777E+4
  -9.55200E+3   4.46121E+4
  -7.00468E+3   4.50665E+4
  -6.67522E+3   4.31459E+4
  -7.37579E+3   4.36256E+4
  -5.85728E+3   4.38772E+4
  -5.40811E+3   4.28380E+4
  -5.73104E+3   4.31885E+4
  -4.34766E+3   4.33831E+4
  -3.59957E+3   4.27100E+4
  -3.79564E+3   4.29837E+4
  -2.60943E+3   4.30723E+4
  -1.87765E+3   4.22658E+4
  -1.71199E+3   4.22343E+4
  -7.29984E+2   4.20993E+4
  -4.66747E+0   4.13996E+4
   1.46441E+2   4.12514E+4
   1.04929E+3   4.08953E+4
   1.77113E+3   4.02463E+4
   2.16636E+3   4.01313E+4
   2.81740E+3   3.98462E+4
   3.48483E+3   3.90388E+4
   4.00334E+3   3.87622E+4
   4.68719E+3   3.86009E+4
   5.15617E+3   3.81498E+4
   5.46849E+3   3.78450E+4
   6.12396E+3   3.75585E+4
   6.72912E+3   3.70930E+4
   7.14735E+3   3.69242E+4
   7.60732E+3   3.67830E+4
   7.95576E+3   3.63553E+4
   8.34096E+3   3.60752E+4
   8.85112E+3   3.57863E+4
   9.27896E+3   3.53701E+4
   9.78507E+3   3.49897E+4
   1.03949E+4   3.47587E+4
   1.08603E+4   3.43139E+4
   1.12441E+4   3.41046E+4
   1.17726E+4   3.38070E+4
   1.20714E+4   3.33869E+4
   1.25678E+4   3.29753E+4
   1.31392E+4   3.26821E+4
   1.35674E+4   3.22911E+4
   1.39986E+4   3.19724E+4
   1.45249E+4   3.16198E+4
   1.49569E+4   3.13050E+4
   1.53934E+4   3.09737E+4
   1.57414E+4   3.06173E+4
   1.61850E+4   3.03142E+4
   1.66609E+4   2.98412E+4
   1.71357E+4   2.94460E+4
   1.75675E+4   2.91981E+4
   1.79141E+4   2.88430E+4
   1.82179E+4   2.86318E+4
   1.86061E+4   2.81804E+4
   1.88875E+4   2.78339E+4
   1.92248E+4   2.74872E+4
   1.95943E+4   2.70670E+4
   1.99148E+4   2.67379E+4
   2.02752E+4   2.64030E+4
   2.04762E+4   2.61415E+4
   2.07628E+4   2.57436E+4
   2.10441E+4   2.54149E+4
   2.14320E+4   2.50378E+4
   2.17161E+4   2.47219E+4
   2.18978E+4   2.43565E+4
   2.21259E+4   2.40902E+4
   2.23595E+4   2.37377E+4
   2.26021E+4   2.34076E+4
   2.26636E+4   2.31191E+4
   2.28181E+4   2.27020E+4
   2.30007E+4   2.23662E+4
   2.31880E+4   2.18691E+4
   2.33000E+4   2.15487E+4
   2.34194E+4   2.12516E+4
   2.35890E+4   2.08275E+4
   2.36800E+4   2.04662E+4
   2.37682E+4   2.00780E+4
   2.38036E+4   1.96640E+4
   2.39482E+4   1.92332E+4
   2.40475E+4   1.88144E+4
   2.40464E+4   1.84045E+4
   2.41261E+4   1.80386E+4
   2.41572E+4   1.76611E+4
   2.40978E+4   1.71157E+4
   2.42420E+4   1.66357E+4
   2.42910E+4   1.61726E+4
   2.42963E+4   1.57998E+4
   2.43156E+4   1.53296E+4
   2.43385E+4   1.48518E+4
   2.43779E+4   1.43679E+4
   2.43617E+4   1.39074E+4
   2.43979E+4   1.34527E+4
   2.43743E+4   1.28730E+4
   2.44061E+4   1.24597E+4
   2.44062E+4   1.19163E+4
   2.44139E+4   1.15316E+4
   2.42574E+4   1.10135E+4
   2.42881E+4   1.04028E+4
   2.42184E+4   9.85737E+3
   2.42382E+4   9.36129E+3
   2.42052E+4   8.84360E+3
   2.41197E+4   8.34062E+3
   2.40166E+4   7.75395E+3
   2.40400E+4   7.34640E+3
   2.40069E+4   6.82761E+3
   2.38785E+4   6.33906E+3
   2.37552E+4   5.67960E+3
   2.37846E+4   5.09764E+3
   2.36619E+4   4.70085E+3
   2.36098E+4   4.10585E+3
   2.35867E+4   3.68213E+3
   2.34657E+4   3.14226E+3
   2.34199E+4   2.57327E+3
   2.32421E+4   2.10800E+3
   2.31453E+4   1.58380E+3
   2.30861E+4   1.06944E+3
   2.29191E+4   5.58574E+2
   2.28502E+4   1.15655E+2
   2.27180E+4  -3.20671E+2
   2.26140E+4  -8.09682E+2
   2.24314E+4  -1.29740E+3
   2.23460E+4  -1.83501E+3
   2.21889E+4  -2.21728E+3
   2.20956E+4  -2.72155E+3
   2.19601E+4  -3.19898E+3
   2.18877E+4  -3.66769E+3
   2.17670E+4  -4.01292E+3
   2.15923E+4  -4.42020E+3
   2.13735E+4  -4.91506E+3
   2.13285E+4  -5.29079E+3
   2.12016E+4  -5.73677E+3
   2.10595E+4  -6.05315E+3
   2.09329E+4  -6.42030E+3
   2.07283E+4  -6.83044E+3
   2.05261E+4  -7.16672E+3
   2.03220E+4  -7.53833E+3
   2.00986E+4  -7.86373E+3
   1.99396E+4  -8.23600E+3
   1.97219E+4  -8.68126E+3
   1.96156E+4  -8.99503E+3
   1.94051E+4  -9.24802E+3
   1.92717E+4  -9.52311E+3
   1.90090E+4  -9.91033E+3
   1.88374E+4  -1.02668E+4
   1.86438E+4  -1.05133E+4
   1.84085E+4  -1.08012E+4
   1.82661E+4  -1.10798E+4
   1.80482E+4  -1.12952E+4
   1.77915E+4  -1.15815E+4
   1.74926E+4  -1.18250E+4
   1.73100E+4  -1.20945E+4
   1.70663E+4  -1.23929E+4
   1.68293E+4  -1.25868E+4
   1.66241E+4  -1.28386E+4
   1.64435E+4  -1.30160E+4
   1.61835E+4  -1.32040E+4
   1.59623E+4  -1.34539E+4
   1.56481E+4  -1.36948E+4
   1.54478E+4  -1.38362E+4
   1.52134E+4  -1.40096E+4
   1.49073E+4  -1.41538E+4
   1.46460E+4  -1.43926E+4
   1.44340E+4  -1.44508E+4
   1.41637E+4  -1.45873E+4
   1.38802E+4  -1.47951E+4
   1.36579E+4  -1.49551E+4
   1.33347E+4  -1.50680E+4
   1.32381E+4  -1.52162E+4
   1.29147E+4  -1.53073E+4
   1.26307E+4  -1.54126E+4
   1.24120E+4  -1.54884E+4
   1.21543E+4  -1.55266E+4
   1.18509E+4  -1.56698E+4
   1.16204E+4  -1.57641E+4
   1.13556E+4  -1.58463E+4
   1.10711E+4  -1.59811E+4
   1.07875E+4  -1.59981E+4
   1.05762E+4  -1.59975E+4
   1.03024E+4  -1.60594E+4
   1.00533E+4  -1.61378E+4
   9.73395E+3  -1.61245E+4
   9.47481E+3  -1.61711E+4
   9.21015E+3  -1.61520E+4
   8.99929E+3  -1.61988E+4
   8.69403E+3  -1.61830E+4
   8.49847E+3  -1.61285E+4
   8.12196E+3  -1.61846E+4
   7.90195E+3  -1.62562E+4
   7.64166E+3  -1.61033E+4
   7.39339E+3  -1.61140E+4
   7.15197E+3  -1.60034E+4
   6.87542E+3  -1.60241E+4
   6.66307E+3  -1.60823E+4
   6.42919E+3  -1.59414E+4
   6.08337E+3  -1.58907E+4
   5.82941E+3  -1.58702E+4
   5.70116E+3  -1.58707E+4
   5.50533E+3  -1.57854E+4
   5.18978E+3  -1.56881E+4
   4.97647E+3  -1.55877E+4
   4.72856E+3  -1.55100E+4
   4.48574E+3  -1.54727E+4
   4.28445E+3  -1.54158E+4
   4.03556E+3  -1.53194E+4
   3.78199E+3  -1.51673E+4
   3.57130E+3  -1.50958E+4
   3.36088E+3  -1.50480E+4
   3.12680E+3  -1.48918E+4
   2.87975E+3  -1.48085E+4
   2.69855E+3  -1.47110E+4
   2.47309E+3  -1.46737E+4
   2.30103E+3  -1.45323E+4
   2.13383E+3  -1.44081E+4
   1.88779E+3  -1.42360E+4
   1.71270E+3  -1.41754E+4
   1.50430E+3  -1.40375E+4
   1.25579E+3  -1.38959E+4
   1.20928E+3  -1.37443E+4
   9.27316E+2  -1.36248E+4
   8.15917E+2  -1.35230E+4
   5.62375E+2  -1.33683E+4
   4.64069E+2  -1.32405E+4
   2.32741E+2  -1.30337E+4
   6.94176E+1  -1.28583E+4
  -8.16155E+1  -1.28137E+4
  -2.28076E+2  -1.26285E+4
  -3.43553E+2  -1.24870E+4
  -6.47319E+2  -1.22778E+4
  -6.82491E+2  -1.21749E+4
  -8.27327E+2  -1.20181E+4
  -1.06202E+3  -1.18436E+4
  -1.23876E+3  -1.16762E+4
  -1.33463E+3  -1.15247E+4
  -1.47440E+3  -1.13492E+4
  -1.54319E+3  -1.12047E+4
  -1.72180E+3  -1.10596E+4
  -1.91908E+3  -1.08551E+4
  -2.06232E+3  -1.07922E+4
  -2.11821E+3  -1.05513E+4
  -2.23837E+3  -1.04374E+4
  -2.38390E+3  -1.02815E+4
  -2.53745E+3  -1.00803E+4
  -2.67639E+3  -9.95346E+3
  -2.73924E+3  -9.72502E+3
  -2.86126E+3  -9.55882E+3
  -2.99891E+3  -9.39725E+3
  -3.03808E+3  -9.28499E+3
  -3.14955E+3  -9.14963E+3
  -3.22642E+3  -8.95900E+3
  -3.38328E+3  -8.76829E+3
  -3.41929E+3  -8.58402E+3
  -3.53207E+3  -8.44971E+3
  -3.62478E+3  -8.27312E+3
  -3.75784E+3  -8.12925E+3
  -3.81826E+3  -8.01007E+3
  -3.86139E+3  -7.80740E+3
  -3.90633E+3  -7.63324E+3
  -4.00759E+3  -7.43843E+3
  -4.03928E+3  -7.29820E+3
  -4.08889E+3  -7.10357E+3
  -4.14744E+3  -6.96064E+3
  -4.25698E+3  -6.84714E+3
  -4.28416E+3  -6.63543E+3
  -4.29459E+3  -6.53618E+3
  -4.32795E+3  -6.27470E+3
  -4.39627E+3  -6.17677E+3
  -4.40944E+3  -6.04376E+3
  -4.48506E+3  -5.90024E+3
  -4.52290E+3  -5.77080E+3
  -4.58971E+3  -5.53061E+3
  -4.60124E+3  -5.38249E+3
  -4.61848E+3  -5.27968E+3
  -4.65394E+3  -5.08312E+3
  -4.71978E+3  -4.93694E+3
  -4.71052E+3  -4.79254E+3
  -4.71735E+3  -4.60414E+3
  -4.75793E+3  -4.51429E+3
  -4.74406E+3  -4.35571E+3
  -4.78740E+3  -4.27872E+3
  -4.79463E+3  -4.12004E+3
  -4.81359E+3  -3.99298E+3
  -4.82073E+3  -3.83419E+3
  -4.82826E+3  -3.69466E+3
  -4.83691E+3  -3.59738E+3
  -4.78897E+3  -3.43627E+3
  -4.78698E+3  -3.28869E+3
  -4.80668E+3  -3.15622E+3
  -4.77771E+3  -3.03222E+3
  -4.84499E+3  -2.93342E+3
  -4.73907E+3  -2.78361E+3
  -4.73100E+3  -2.67954E+3
  -4.78775E+3  -2.50877E+3
  -4.71379E+3  -2.46779E+3
  -4.72250E+3  -2.33254E+3
  -4.69463E+3  -2.19036E+3
  -4.66255E+3  -2.07923E+3
  -4.60980E+3  -2.01010E+3
  -4.55687E+3  -1.87814E+3
  -4.51313E+3  -1.72634E+3
  -4.56825E+3  -1.69679E+3
  -4.50572E+3  -1.54895E+3
  -4.55035E+3  -1.41705E+3
  -4.49532E+3  -1.30750E+3
  -4.40235E+3  -1.29090E+3
  -4.38345E+3  -1.19136E+3
  -4.40657E+3  -1.04155E+3
  -4.25670E+3  -9.31503E+2
  -4.27807E+3  -9.04463E+2
  -4.23067E+3  -7.81831E+2
  -4.21681E+3  -6.38374E+2
  -4.12058E+3  -5.91991E+2
  -4.09853E+3  -4.95094E+2
  -4.13626E+3  -3.84312E+2
  -4.05512E+3  -3.53423E+2
  -4.02517E+3  -3.43453E+2
  -3.91324E+3  -1.69943E+2
  -3.91271E+3  -1.02164E+2
  -3.90279E+3  -1.98189E+1
  -3.82353E+3   1.56881E+1
  -3.79907E+3   6.11867E+1
  -3.76435E+3   2.36715E+2
  -3.71472E+3   2.21615E+2
  -3.62162E+3   3.24194E+2
  -3.58020E+3   3.56268E+2
  -3.50952E+3   5.43782E+2
  -3.46420E+3   4.82087E+2
  -3.49564E+3   5.88692E+2
  -3.38616E+3   6.10566E+2
  -3.31248E+3   6.87199E+2
  -3.22108E+3   7.46178E+2
  -3.25097E+3   7.52350E+2
  -3.16823E+3   8.97911E+2
  -3.13101E+3   9.51882E+2
  -3.05166E+3   9.17517E+2
  -3.07440E+3   9.79941E+2
  -2.94824E+3   1.03210E+3
  -2.87802E+3   1.07692E+3
  -2.82589E+3   1.06249E+3
  -2.77264E+3   1.15855E+3
  -2.81055E+3   1.17574E+3
  -2.64296E+3   1.30971E+3
  -2.67598E+3   1.24997E+3
  -2.57306E+3   1.29516E+3
  -2.48835E+3   1.28644E+3
  -2.44710E+3   1.35853E+3
  -2.35871E+3   1.40150E+3
  -2.29587E+3   1.40549E+3
  -2.28950E+3   1.40763E+3
  -2.23776E+3   1.47611E+3
  -2.13680E+3   1.51690E+3
  -2.06244E+3   1.56717E+3
  -2.01140E+3   1.51123E+3
  -1.91467E+3   1.53651E+3
  -1.92548E+3   1.55269E+3
  -1.86906E+3   1.54440E+3
  -1.80487E+3   1.54927E+3
  -1.74823E+3   1.67379E+3
  -1.76127E+3   1.65727E+3
  -1.64663E+3   1.71016E+3
  -1.62441E+3   1.71612E+3
  -1.56272E+3   1.68362E+3
  -1.48324E+3   1.70831E+3
  -1.48301E+3   1.72995E+3
