 
 $NMID
 ID=''
 FMTDAT='(2E13.5)'
 TRAMP=   1.00000E+0
 VOLUME=   1.00000E+0
 $END
  -2.11465E+4  -1.77516E+1
  -5.23415E+4  -1.51911E+4
  -5.41592E+4  -5.46983E+3
  -4.98315E+4  -4.75824E+3
  -5.15495E+4  -6.29755E+3
  -5.18053E+4  -3.80215E+3
  -4.97226E+4  -3.93771E+3
  -5.02823E+4  -4.78979E+3
  -5.05684E+4  -3.28056E+3
  -4.92376E+4  -3.26150E+3
  -4.94562E+4  -3.82104E+3
  -4.94876E+4  -2.54248E+3
  -4.86219E+4  -2.35458E+3
  -4.88505E+4  -2.90960E+3
  -4.88456E+4  -2.14059E+3
  -4.79631E+4  -2.00819E+3
  -4.81517E+4  -2.26507E+3
  -4.79855E+4  -1.63606E+3
  -4.74195E+4  -1.43973E+3
  -4.74351E+4  -1.67414E+3
  -4.72060E+4  -1.18143E+3
  -4.67065E+4  -7.76855E+2
  -4.68067E+4  -8.33532E+2
  -4.65596E+4  -6.05110E+2
  -4.59436E+4  -3.52545E+2
  -4.58132E+4  -2.47415E+2
  -4.57781E+4  -1.68840E+1
  -4.52465E+4  -2.24284E+0
  -4.50791E+4  -9.39936E+1
  -4.47676E+4   2.52551E+2
  -4.43387E+4   5.08273E+2
  -4.41962E+4   5.86377E+2
  -4.40684E+4   6.83202E+2
  -4.36183E+4   8.13109E+2
  -4.34004E+4   9.87929E+2
  -4.31664E+4   1.23256E+3
  -4.27606E+4   1.43013E+3
  -4.25164E+4   1.59369E+3
  -4.23613E+4   2.01444E+3
  -4.19770E+4   2.21674E+3
  -4.18631E+4   2.29917E+3
  -4.16710E+4   2.37423E+3
  -4.12673E+4   2.44310E+3
  -4.09296E+4   2.58239E+3
  -4.06198E+4   2.83701E+3
  -4.03656E+4   3.02738E+3
  -4.00983E+4   3.10293E+3
  -3.98437E+4   3.30667E+3
  -3.94647E+4   3.50048E+3
  -3.92597E+4   3.64651E+3
  -3.89815E+4   3.81357E+3
  -3.86814E+4   3.93227E+3
  -3.83189E+4   4.15765E+3
  -3.81123E+4   4.31758E+3
  -3.78721E+4   4.54816E+3
  -3.76667E+4   4.65096E+3
  -3.73433E+4   4.81887E+3
  -3.71254E+4   4.95029E+3
  -3.68706E+4   5.00083E+3
  -3.64180E+4   5.17129E+3
  -3.62982E+4   5.34156E+3
  -3.59978E+4   5.48456E+3
  -3.57536E+4   5.69928E+3
  -3.55676E+4   5.76468E+3
  -3.52010E+4   5.81330E+3
  -3.49950E+4   5.97969E+3
  -3.48438E+4   6.17746E+3
  -3.45342E+4   6.25725E+3
  -3.42257E+4   6.32618E+3
  -3.40062E+4   6.44629E+3
  -3.37982E+4   6.55545E+3
  -3.35776E+4   6.66481E+3
  -3.33140E+4   6.72786E+3
  -3.30900E+4   6.80474E+3
  -3.27955E+4   6.96280E+3
  -3.25746E+4   7.07730E+3
  -3.23580E+4   7.22409E+3
  -3.20869E+4   7.22846E+3
  -3.18164E+4   7.40248E+3
  -3.15472E+4   7.50053E+3
  -3.13495E+4   7.55438E+3
  -3.10477E+4   7.58389E+3
  -3.07830E+4   7.64556E+3
  -3.06079E+4   7.70789E+3
  -3.03627E+4   7.79014E+3
  -3.01203E+4   7.78153E+3
  -2.98843E+4   7.78865E+3
  -2.95924E+4   7.79692E+3
  -2.93140E+4   7.92441E+3
  -2.91054E+4   8.03514E+3
  -2.89168E+4   8.05350E+3
  -2.86793E+4   8.10769E+3
  -2.84160E+4   8.14474E+3
  -2.81376E+4   8.26916E+3
  -2.78408E+4   8.41899E+3
  -2.76949E+4   8.31078E+3
  -2.73232E+4   8.40942E+3
  -2.71046E+4   8.46833E+3
  -2.69233E+4   8.48339E+3
  -2.67361E+4   8.51961E+3
  -2.64578E+4   8.52276E+3
  -2.61679E+4   8.53645E+3
  -2.59335E+4   8.63358E+3
  -2.57553E+4   8.64762E+3
  -2.55088E+4   8.66791E+3
  -2.52780E+4   8.67452E+3
  -2.50917E+4   8.76832E+3
  -2.48141E+4   8.76945E+3
  -2.45842E+4   8.73992E+3
  -2.43978E+4   8.80964E+3
  -2.41471E+4   8.84387E+3
  -2.39395E+4   8.95456E+3
  -2.36856E+4   8.98284E+3
  -2.34530E+4   8.92626E+3
  -2.33341E+4   9.01660E+3
  -2.31272E+4   8.93782E+3
  -2.28571E+4   9.00829E+3
  -2.26512E+4   8.97494E+3
  -2.24598E+4   8.98529E+3
  -2.23257E+4   8.99630E+3
  -2.21038E+4   9.06848E+3
  -2.19344E+4   9.04451E+3
  -2.17501E+4   9.06096E+3
  -2.15456E+4   9.00430E+3
  -2.12610E+4   9.09350E+3
  -2.11383E+4   9.09249E+3
  -2.10087E+4   9.08421E+3
  -2.08696E+4   9.12407E+3
  -2.06774E+4   9.22679E+3
  -2.04702E+4   9.23703E+3
  -2.03115E+4   9.18139E+3
  -2.01274E+4   9.16435E+3
  -1.99567E+4   9.23198E+3
  -1.97862E+4   9.29780E+3
  -1.96709E+4   9.29762E+3
  -1.95191E+4   9.23725E+3
  -1.93308E+4   9.30761E+3
  -1.92816E+4   9.28923E+3
  -1.89927E+4   9.29599E+3
  -1.88911E+4   9.33801E+3
  -1.87147E+4   9.28891E+3
  -1.85083E+4   9.31183E+3
  -1.84396E+4   9.32590E+3
  -1.82335E+4   9.33620E+3
  -1.80943E+4   9.31810E+3
  -1.79174E+4   9.33213E+3
  -1.78093E+4   9.40728E+3
  -1.77248E+4   9.33898E+3
  -1.74782E+4   9.36455E+3
  -1.73211E+4   9.39976E+3
  -1.72664E+4   9.40511E+3
  -1.70473E+4   9.45350E+3
  -1.68800E+4   9.39708E+3
  -1.66860E+4   9.39262E+3
  -1.65370E+4   9.33384E+3
  -1.64527E+4   9.44609E+3
  -1.62757E+4   9.44030E+3
  -1.61690E+4   9.46690E+3
  -1.60584E+4   9.44730E+3
  -1.58798E+4   9.38660E+3
  -1.57444E+4   9.39728E+3
  -1.56403E+4   9.41548E+3
  -1.54392E+4   9.44781E+3
  -1.53285E+4   9.44376E+3
  -1.51770E+4   9.41320E+3
  -1.50118E+4   9.47481E+3
  -1.48945E+4   9.46427E+3
  -1.47404E+4   9.49363E+3
  -1.45953E+4   9.56211E+3
  -1.44738E+4   9.54637E+3
  -1.43644E+4   9.55853E+3
  -1.42460E+4   9.54933E+3
  -1.40445E+4   9.56010E+3
  -1.38792E+4   9.56488E+3
  -1.37956E+4   9.53302E+3
  -1.36545E+4   9.60579E+3
  -1.35855E+4   9.63036E+3
  -1.33838E+4   9.68872E+3
  -1.32932E+4   9.67790E+3
  -1.32475E+4   9.64909E+3
  -1.30149E+4   9.70522E+3
  -1.29303E+4   9.69219E+3
  -1.27714E+4   9.70352E+3
  -1.26416E+4   9.64305E+3
  -1.25681E+4   9.71751E+3
  -1.24002E+4   9.71766E+3
  -1.22863E+4   9.70946E+3
  -1.22307E+4   9.73123E+3
  -1.21154E+4   9.64540E+3
  -1.19581E+4   9.67785E+3
  -1.17502E+4   9.68247E+3
  -1.17185E+4   9.67885E+3
  -1.15763E+4   9.68900E+3
  -1.14982E+4   9.68166E+3
  -1.13496E+4   9.65081E+3
  -1.13078E+4   9.64229E+3
  -1.11162E+4   9.67302E+3
  -1.10029E+4   9.60870E+3
  -1.09284E+4   9.62847E+3
  -1.07827E+4   9.60045E+3
  -1.07446E+4   9.63240E+3
  -1.06222E+4   9.57545E+3
  -1.04812E+4   9.53258E+3
  -1.02693E+4   9.53360E+3
  -1.01875E+4   9.46844E+3
  -1.01120E+4   9.51267E+3
  -9.94733E+3   9.50178E+3
  -9.91812E+3   9.39332E+3
  -9.72866E+3   9.44256E+3
  -9.65302E+3   9.41046E+3
  -9.51614E+3   9.38442E+3
  -9.41189E+3   9.36866E+3
  -9.28405E+3   9.38344E+3
  -9.08840E+3   9.39839E+3
  -9.09934E+3   9.32425E+3
  -8.95442E+3   9.31257E+3
  -8.84016E+3   9.26198E+3
  -8.71640E+3   9.21531E+3
  -8.60439E+3   9.22407E+3
  -8.54728E+3   9.22162E+3
  -8.37696E+3   9.16276E+3
  -8.29216E+3   9.14472E+3
  -8.20016E+3   9.08273E+3
  -8.10237E+3   9.14952E+3
  -7.93856E+3   9.07418E+3
  -7.82767E+3   9.01733E+3
  -7.74862E+3   9.01525E+3
  -7.67170E+3   9.02487E+3
  -7.53586E+3   8.99783E+3
  -7.48641E+3   9.01574E+3
  -7.31069E+3   8.90566E+3
  -7.26251E+3   8.91658E+3
  -7.18605E+3   8.79473E+3
  -7.04708E+3   8.82427E+3
  -6.96068E+3   8.71197E+3
  -6.82775E+3   8.76261E+3
  -6.77046E+3   8.79976E+3
  -6.67912E+3   8.71385E+3
  -6.62051E+3   8.66781E+3
  -6.40937E+3   8.61242E+3
  -6.37393E+3   8.58550E+3
  -6.28792E+3   8.54469E+3
  -6.20526E+3   8.51959E+3
  -6.09757E+3   8.48332E+3
  -6.03462E+3   8.40661E+3
  -5.87797E+3   8.46738E+3
  -5.86093E+3   8.36479E+3
  -5.70984E+3   8.33255E+3
  -5.70034E+3   8.18926E+3
  -5.52714E+3   8.26807E+3
  -5.47689E+3   8.21076E+3
  -5.40691E+3   8.22247E+3
  -5.27363E+3   8.18624E+3
  -5.25434E+3   8.11054E+3
  -5.17820E+3   8.09096E+3
  -5.10679E+3   8.04880E+3
  -4.99381E+3   7.94089E+3
  -4.93836E+3   7.98678E+3
  -4.88441E+3   7.89653E+3
  -4.83812E+3   7.93704E+3
  -4.71441E+3   7.84987E+3
  -4.71991E+3   7.78746E+3
  -4.47079E+3   7.76491E+3
  -4.50465E+3   7.74604E+3
  -4.44022E+3   7.71167E+3
  -4.32437E+3   7.71394E+3
  -4.28642E+3   7.67474E+3
  -4.25641E+3   7.56864E+3
  -4.20271E+3   7.60378E+3
  -4.14099E+3   7.54817E+3
  -4.09171E+3   7.46475E+3
  -3.87984E+3   7.45252E+3
  -3.90765E+3   7.39865E+3
  -3.84859E+3   7.44206E+3
  -3.78497E+3   7.36348E+3
  -3.69311E+3   7.22682E+3
  -3.64165E+3   7.31254E+3
  -3.55654E+3   7.14332E+3
  -3.50898E+3   7.24502E+3
  -3.46759E+3   7.13185E+3
  -3.41879E+3   7.09760E+3
  -3.37362E+3   7.08058E+3
  -3.34126E+3   7.02029E+3
  -3.30412E+3   6.99662E+3
  -3.21224E+3   6.99075E+3
  -3.20166E+3   6.91109E+3
  -3.11529E+3   6.89802E+3
  -3.06839E+3   6.81050E+3
  -3.04149E+3   6.80205E+3
  -2.94139E+3   6.76553E+3
  -2.94748E+3   6.73948E+3
  -2.89088E+3   6.64181E+3
  -2.76960E+3   6.57553E+3
  -2.74707E+3   6.55024E+3
  -2.69171E+3   6.55454E+3
  -2.71162E+3   6.57828E+3
  -2.63359E+3   6.52735E+3
  -2.60088E+3   6.43342E+3
  -2.53182E+3   6.37783E+3
  -2.48623E+3   6.35350E+3
  -2.42756E+3   6.34393E+3
  -2.40641E+3   6.27150E+3
  -2.37996E+3   6.22607E+3
  -2.28807E+3   6.17832E+3
  -2.27774E+3   6.21240E+3
  -2.27175E+3   6.17054E+3
  -2.27614E+3   6.08401E+3
  -2.15958E+3   6.09564E+3
  -2.17481E+3   6.11443E+3
  -2.16257E+3   5.99932E+3
  -2.07572E+3   5.91623E+3
  -2.04769E+3   5.90472E+3
  -1.99608E+3   5.89026E+3
  -1.93946E+3   5.88667E+3
  -1.96898E+3   5.87111E+3
  -1.83329E+3   5.76108E+3
  -1.87276E+3   5.76987E+3
  -1.89607E+3   5.72163E+3
  -1.82183E+3   5.74680E+3
  -1.80034E+3   5.71408E+3
  -1.75161E+3   5.61835E+3
  -1.67264E+3   5.61800E+3
  -1.72348E+3   5.54348E+3
  -1.50932E+3   5.57020E+3
  -1.56579E+3   5.53265E+3
  -1.55280E+3   5.52906E+3
  -1.46646E+3   5.45552E+3
  -1.46319E+3   5.42640E+3
  -1.50188E+3   5.39531E+3
  -1.42532E+3   5.39179E+3
  -1.43315E+3   5.33295E+3
  -1.35029E+3   5.32257E+3
  -1.34176E+3   5.22777E+3
  -1.34468E+3   5.26387E+3
  -1.22345E+3   5.22019E+3
  -1.28102E+3   5.16320E+3
  -1.22422E+3   5.14728E+3
  -1.22356E+3   5.11768E+3
  -1.20041E+3   5.08062E+3
  -1.08005E+3   5.07520E+3
  -1.14249E+3   5.06398E+3
  -1.07773E+3   4.96080E+3
  -9.91272E+2   4.95912E+3
  -9.99119E+2   4.94936E+3
  -9.31635E+2   4.87067E+3
  -9.81329E+2   4.84095E+3
  -9.00634E+2   4.83068E+3
  -9.69386E+2   4.80930E+3
  -9.08403E+2   4.82599E+3
  -8.82720E+2   4.75846E+3
  -7.73164E+2   4.81516E+3
  -7.85715E+2   4.70194E+3
  -7.89765E+2   4.69938E+3
  -7.27658E+2   4.70216E+3
  -7.05031E+2   4.59221E+3
  -6.54346E+2   4.63746E+3
  -7.43722E+2   4.63563E+3
  -5.94382E+2   4.57327E+3
  -6.14020E+2   4.57802E+3
  -6.27547E+2   4.53069E+3
  -5.50596E+2   4.45271E+3
  -6.03068E+2   4.46335E+3
  -5.24917E+2   4.39731E+3
  -4.81183E+2   4.41867E+3
  -5.12445E+2   4.46753E+3
  -4.45553E+2   4.39979E+3
  -5.00289E+2   4.32734E+3
