 LCModel (Version 6.3-1N) Copyright: S.W. Provencher.          Ref.: Magn. Reson. Med. 30:672-679 (1993).                
 Slice_N1@22_12  02-Jun-2023 14:37:34
 27 lines in following concentration table = NCONC+1
    Conc.  %SD /Cr+PCr  Metabolite                                         
 2.28E-06  13% 2.7E-04 Mac                                                 
 1.77E-02  47%   2.088 Cr                                                  
 5.01E-02  17%   5.912 PCr                                                 
 6.70E-02  11%   7.911 Ins                                                 
 9.08E-02   6%  10.720 NAA                                                 
 6.65E-02  10%   7.849 Tau                                                 
 1.35E-02  13%   1.591 PCho                                                
    0.000 999%   0.000 GPC                                                 
 9.07E-02   9%  10.715 Glu                                                 
 1.65E-02  37%   1.943 Gln                                                 
 1.32E-03 480%   0.156 Ala                                                 
 2.34E-02  50%   2.768 Asc                                                 
 8.79E-03  86%   1.038 Asp                                                 
 8.84E-03  45%   1.044 GABA                                                
 1.08E-02  47%   1.279 Glc                                                 
 9.30E-03  36%   1.098 GSH                                                 
    0.000 999%   0.000 Lac                                                 
 4.18E-03 103%   0.493 NAAG                                                
    0.000 999%   0.000 PE                                                  
 1.35E-02  13%   1.591 GPC+PCho                                            
 9.50E-02   7%  11.213 NAA+NAAG                                            
    0.107   9%  12.658 Glu+Gln                                             
 6.77E-02   8%   8.000 Cr+PCr                                              
 9.50E-02   7%  11.213 NAA+NAAG                                            
 6.77E-02   8%   8.000 Cr+PCr                                              
    0.107   9%  12.658 Glu+Gln                                             
   6 lines in following misc. output table
  FWHM = 0.023 ppm    S/N =   5                                            
  Data shift = 0.035 ppm                                                   
  Ph: -46 deg     -12.4 deg/ppm                                            
  alphaB,S = 7.2E-01,   1.7E+01                                            
   18 spline knots.   Ns = 5(1)                                            
  ( 3) 3 infls.   ( 3) 1 extrs.                                            
  654 points on ppm-axis = NY
      4.000000     3.994181     3.988363     3.982544     3.976726     3.970907     3.965088     3.959270     3.953451     3.947633
      3.941814     3.935995     3.930177     3.924358     3.918540     3.912721     3.906902     3.901084     3.895265     3.889446
      3.883628     3.877809     3.871991     3.866172     3.860353     3.854535     3.848716     3.842898     3.837079     3.831260
      3.825442     3.819623     3.813805     3.807986     3.802167     3.796349     3.790530     3.784712     3.778893     3.773074
      3.767256     3.761437     3.755619     3.749800     3.743981     3.738163     3.732344     3.726526     3.720707     3.714888
      3.709070     3.703251     3.697433     3.691614     3.685795     3.679977     3.674158     3.668339     3.662521     3.656702
      3.650884     3.645065     3.639246     3.633428     3.627609     3.621791     3.615972     3.610153     3.604335     3.598516
      3.592698     3.586879     3.581060     3.575242     3.569423     3.563605     3.557786     3.551967     3.546149     3.540330
      3.534512     3.528693     3.522874     3.517056     3.511237     3.505419     3.499600     3.493781     3.487963     3.482144
      3.476326     3.470507     3.464688     3.458870     3.453051     3.447232     3.441414     3.435595     3.429777     3.423958
      3.418139     3.412321     3.406502     3.400684     3.394865     3.389046     3.383228     3.377409     3.371591     3.365772
      3.359953     3.354135     3.348316     3.342498     3.336679     3.330860     3.325042     3.319223     3.313405     3.307586
      3.301767     3.295949     3.290130     3.284312     3.278493     3.272674     3.266856     3.261037     3.255219     3.249400
      3.243581     3.237763     3.231944     3.226125     3.220307     3.214488     3.208670     3.202851     3.197032     3.191214
      3.185395     3.179577     3.173758     3.167939     3.162121     3.156302     3.150484     3.144665     3.138846     3.133028
      3.127209     3.121391     3.115572     3.109753     3.103935     3.098116     3.092298     3.086479     3.080660     3.074842
      3.069023     3.063205     3.057386     3.051567     3.045749     3.039930     3.034111     3.028293     3.022474     3.016656
      3.010837     3.005018     2.999200     2.993381     2.987563     2.981744     2.975925     2.970107     2.964288     2.958470
      2.952651     2.946832     2.941014     2.935195     2.929377     2.923558     2.917739     2.911921     2.906102     2.900284
      2.894465     2.888646     2.882828     2.877009     2.871191     2.865372     2.859553     2.853735     2.847916     2.842098
      2.836279     2.830460     2.824642     2.818823     2.813004     2.807186     2.801367     2.795549     2.789730     2.783911
      2.778093     2.772274     2.766456     2.760637     2.754818     2.749000     2.743181     2.737363     2.731544     2.725725
      2.719907     2.714088     2.708270     2.702451     2.696632     2.690814     2.684995     2.679177     2.673358     2.667539
      2.661721     2.655902     2.650084     2.644265     2.638446     2.632628     2.626809     2.620991     2.615172     2.609353
      2.603535     2.597716     2.591897     2.586079     2.580260     2.574442     2.568623     2.562804     2.556986     2.551167
      2.545349     2.539530     2.533711     2.527893     2.522074     2.516256     2.510437     2.504618     2.498800     2.492981
      2.487163     2.481344     2.475525     2.469707     2.463888     2.458070     2.452251     2.446432     2.440614     2.434795
      2.428977     2.423158     2.417339     2.411521     2.405702     2.399884     2.394065     2.388246     2.382428     2.376609
      2.370790     2.364972     2.359153     2.353335     2.347516     2.341697     2.335879     2.330060     2.324242     2.318423
      2.312604     2.306786     2.300967     2.295149     2.289330     2.283511     2.277693     2.271874     2.266056     2.260237
      2.254418     2.248600     2.242781     2.236963     2.231144     2.225325     2.219507     2.213688     2.207870     2.202051
      2.196232     2.190414     2.184595     2.178777     2.172958     2.167139     2.161321     2.155502     2.149683     2.143865
      2.138046     2.132228     2.126409     2.120590     2.114772     2.108953     2.103135     2.097316     2.091497     2.085679
      2.079860     2.074042     2.068223     2.062404     2.056586     2.050767     2.044949     2.039130     2.033311     2.027493
      2.021674     2.015856     2.010037     2.004218     1.998400     1.992581     1.986763     1.980944     1.975126     1.969307
      1.963489     1.957670     1.951852     1.946033     1.940215     1.934397     1.928578     1.922760     1.916941     1.911123
      1.905304     1.899486     1.893667     1.887849     1.882030     1.876212     1.870393     1.864575     1.858756     1.852938
      1.847119     1.841301     1.835482     1.829664     1.823845     1.818027     1.812208     1.806390     1.800571     1.794753
      1.788934     1.783116     1.777297     1.771479     1.765660     1.759842     1.754023     1.748205     1.742386     1.736568
      1.730749     1.724931     1.719113     1.713294     1.707476     1.701657     1.695839     1.690020     1.684202     1.678383
      1.672565     1.666746     1.660928     1.655109     1.649291     1.643472     1.637654     1.631835     1.626017     1.620198
      1.614380     1.608561     1.602743     1.596924     1.591106     1.585287     1.579469     1.573650     1.567832     1.562013
      1.556195     1.550376     1.544558     1.538739     1.532921     1.527102     1.521284     1.515465     1.509647     1.503829
      1.498010     1.492192     1.486373     1.480555     1.474736     1.468918     1.463099     1.457281     1.451462     1.445644
      1.439825     1.434007     1.428188     1.422370     1.416551     1.410733     1.404914     1.399096     1.393277     1.387459
      1.381640     1.375822     1.370003     1.364185     1.358366     1.352548     1.346729     1.340911     1.335092     1.329274
      1.323455     1.317637     1.311818     1.306000     1.300182     1.294363     1.288545     1.282726     1.276908     1.271089
      1.265271     1.259452     1.253634     1.247815     1.241997     1.236178     1.230360     1.224541     1.218723     1.212904
      1.207086     1.201267     1.195449     1.189630     1.183812     1.177993     1.172175     1.166356     1.160538     1.154719
      1.148901     1.143082     1.137264     1.131445     1.125627     1.119808     1.113990     1.108171     1.102353     1.096534
      1.090716     1.084898     1.079079     1.073261     1.067442     1.061624     1.055805     1.049987     1.044168     1.038350
      1.032531     1.026713     1.020894     1.015076     1.009257     1.003439     0.997620     0.991802     0.985983     0.980165
      0.974346     0.968528     0.962709     0.956891     0.951072     0.945254     0.939435     0.933617     0.927798     0.921980
      0.916161     0.910343     0.904524     0.898706     0.892887     0.887069     0.881251     0.875432     0.869614     0.863795
      0.857977     0.852158     0.846340     0.840521     0.834703     0.828884     0.823066     0.817247     0.811429     0.805610
      0.799792     0.793973     0.788155     0.782336     0.776518     0.770699     0.764881     0.759062     0.753244     0.747425
      0.741607     0.735788     0.729970     0.724151     0.718333     0.712514     0.706696     0.700877     0.695059     0.689240
      0.683422     0.677603     0.671785     0.665967     0.660148     0.654330     0.648511     0.642693     0.636874     0.631056
      0.625237     0.619419     0.613600     0.607782     0.601963     0.596145     0.590326     0.584508     0.578689     0.572871
      0.567052     0.561234     0.555415     0.549597     0.543778     0.537960     0.532141     0.526323     0.520504     0.514686
      0.508867     0.503049     0.497230     0.491412     0.485593     0.479775     0.473956     0.468138     0.462319     0.456501
      0.450682     0.444864     0.439045     0.433227     0.427408     0.421590     0.415771     0.409953     0.404134     0.398316
      0.392497     0.386679     0.380860     0.375042     0.369223     0.363405     0.357586     0.351767     0.345949     0.340130
      0.334312     0.328493     0.322675     0.316856     0.311038     0.305219     0.299401     0.293582     0.287764     0.281945
      0.276127     0.270308     0.264490     0.258671     0.252853     0.247034     0.241216     0.235397     0.229579     0.223760
      0.217942     0.212123     0.206305     0.200486
 NY phased data points follow
  -2.43815E-02  7.30371E-02 -1.72031E-01 -7.46534E-02 -3.49510E-02 -7.23955E-02 -8.47510E-02  2.03270E-02 -6.74036E-02 -3.49347E-02
   1.17395E-01  1.62294E-01  2.70764E-01  3.17690E-01  4.34612E-01  4.01359E-01  6.37623E-02  9.31357E-02  1.04358E-01 -3.67934E-02
   5.57478E-02 -2.46501E-01  1.38571E-01  1.07746E-01 -2.69737E-01  1.97792E-01 -8.96809E-02 -3.23802E-02  1.37134E-01 -8.72738E-02
   5.59553E-02 -1.45458E-01 -1.82288E-01 -6.59130E-02 -2.48972E-01 -2.42873E-01 -1.74215E-01 -2.37974E-01 -4.11061E-01 -3.62970E-01
  -3.74043E-01 -1.16120E-01  5.80176E-02  3.26840E-02  3.13261E-01  3.51465E-01  6.48369E-01  4.17418E-01  3.64164E-01  2.19725E-01
   1.50323E-02  2.13468E-01  2.64411E-01  7.28442E-02 -1.51888E-01  2.77647E-01 -1.81877E-01 -1.53511E-01 -3.40584E-01 -3.32166E-01
   2.79568E-02 -1.83016E-01 -7.01111E-02 -3.84553E-01 -1.91699E-01 -2.35746E-01 -6.83026E-02 -1.12980E-02  2.00103E-01  1.97845E-01
   2.86379E-01  5.25138E-01 -1.47793E-01  8.03192E-02 -1.76078E-02  9.49999E-02  2.56390E-01 -1.57558E-01 -1.66254E-01 -1.78545E-01
  -2.60311E-01 -3.71554E-01 -2.59435E-01  5.28447E-02  2.81141E-01  3.09051E-01  8.63858E-02  2.86679E-01  2.23466E-01 -3.78354E-02
   1.55308E-01 -2.56501E-01 -1.68986E-02  1.03234E-01  6.46931E-02  3.38795E-02 -7.03511E-02  1.70723E-01 -8.44872E-02 -1.63093E-01
  -2.84011E-01 -2.05020E-01 -3.01088E-01 -7.86379E-02  1.46178E-01  1.53145E-01  2.51428E-01  3.78164E-01  5.05697E-01  2.42005E-01
   4.25922E-01  2.94707E-01  2.87215E-01  4.48561E-01  3.60192E-01  2.90412E-01  5.06210E-01  4.41475E-01  2.06521E-01  5.07386E-01
   3.66215E-01  3.35623E-01  1.20833E-01 -4.38848E-03  2.02752E-01  1.01382E-01 -6.23237E-02 -4.28228E-01 -3.16186E-01 -3.74612E-01
  -8.36441E-01 -7.30272E-01 -5.19504E-01 -4.10601E-01 -5.73263E-01 -7.79571E-01 -7.98794E-01 -7.06834E-01 -5.57729E-01 -2.26833E-01
  -1.99881E-02 -4.91614E-01 -1.92025E-01  2.91741E-01  5.30524E-03  1.45635E-02 -1.93814E-02 -1.75444E-01  1.91433E-01  4.00087E-01
   5.90603E-03 -2.25478E-01  3.21992E-01  4.16894E-01 -5.94107E-02  1.39599E-01  2.14089E-01  4.02265E-01  2.02391E-01  2.64702E-01
   4.72765E-01  1.42823E-01  5.22773E-01  4.86680E-01  7.67063E-01  1.02696E+00  9.50349E-01  7.38185E-01  4.34875E-02 -4.08819E-01
  -9.61116E-01 -7.73348E-01 -6.14427E-01 -8.04596E-01 -4.68003E-01 -5.29360E-01 -3.22552E-01 -9.33072E-02 -5.56227E-01 -1.89783E-01
  -3.12833E-01 -7.87426E-01 -3.61810E-01 -4.74468E-01 -2.87187E-01 -2.45124E-01 -5.49967E-01 -4.33585E-01 -4.03073E-01 -2.91282E-01
  -6.98776E-02 -1.17132E-01 -3.37207E-01 -4.75611E-02 -3.01669E-01 -3.51238E-01 -7.93924E-02 -2.76590E-01  3.96902E-02 -8.88096E-03
  -1.37093E-01  8.84231E-02  1.77903E-01  1.10454E-01  1.74532E-01 -2.27547E-02 -2.30961E-01 -1.10359E-01 -2.12680E-01 -1.41891E-01
  -1.85215E-01 -3.03577E-01 -1.70634E-01 -8.31334E-02 -1.48648E-01 -6.03468E-02  5.04335E-02 -8.12217E-03 -2.41370E-01 -5.88987E-02
  -1.13580E-01 -2.00310E-01  2.94743E-01  6.12421E-02  1.00207E-01  1.83795E-01  2.50195E-01  3.56395E-01  2.73352E-01  3.90697E-01
   2.96621E-01  3.84381E-01  4.69961E-01  1.96576E-01 -3.79479E-02  9.13170E-02  1.27181E-01  6.70562E-02 -6.70163E-02 -1.09817E-01
  -1.71956E-01  1.50227E-01  2.55013E-01 -3.84368E-02 -7.71341E-02 -1.47601E-01 -6.69214E-02 -6.39038E-02  1.58087E-01 -1.20298E-01
  -3.14819E-01  1.41971E-02  2.93799E-01  2.67198E-03 -5.39557E-02  1.74206E-01 -1.86725E-02  4.52428E-02 -1.25744E-01  2.74225E-01
   3.22514E-01  8.56058E-02  2.43768E-01  3.66633E-01  2.36906E-01  1.17317E-02  2.01787E-01  3.08074E-01  5.42073E-02 -1.34763E-01
   5.65040E-02  4.82227E-02  3.51532E-01  1.41461E-01  1.27857E-01  2.35320E-01 -9.65006E-02 -1.99404E-01 -4.20008E-01 -2.32513E-01
  -1.75420E-01 -3.40536E-01 -5.33652E-01 -4.71687E-01 -2.79084E-01  2.32684E-02  1.93544E-01  7.25478E-01  8.64245E-01  4.90583E-01
   4.99788E-01  1.64000E-01  2.84978E-01  8.78681E-02  1.62524E-01  3.63927E-01  1.42572E-01  2.77646E-01  1.99244E-01  4.33055E-01
   3.22512E-01  3.47088E-02  3.04283E-01  4.08333E-01  3.83018E-01  3.90262E-01  5.42265E-01  3.31047E-01  3.71481E-01  4.85101E-01
   2.70647E-01  4.23744E-01  2.96833E-01  3.64760E-01  1.28257E-01 -1.83525E-02 -3.71165E-01 -1.63780E-01  2.98939E-01 -3.78230E-01
  -2.50363E-01 -3.11039E-01 -1.15705E-01 -1.94290E-01 -2.15483E-01 -2.40194E-02 -4.82425E-01 -1.96970E-01  4.07474E-02 -7.14114E-02
   1.55292E-01  2.79374E-01 -1.83401E-02  2.49739E-01 -4.02078E-02 -2.83268E-01 -1.45612E-01 -5.00149E-01 -6.40493E-01 -3.53253E-01
  -1.64541E-01 -7.84337E-01 -1.44888E+00 -1.44258E+00 -1.26173E+00 -1.12251E+00 -4.99626E-01 -5.69222E-01 -2.37721E-01  6.78842E-02
  -1.18671E-01  2.29527E-01 -3.97527E-02 -1.91986E-01  9.48077E-02  1.82678E-01 -1.01568E-01  1.73412E-03  1.10349E-01  1.19379E-01
  -3.54924E-02 -1.87514E-01  5.91686E-02  2.11525E-01  6.11585E-02 -3.54150E-02 -3.03147E-02 -2.96871E-02  2.08067E-01 -3.51271E-03
   1.52886E-01  3.31667E-01  3.18510E-01  5.37075E-02  9.21835E-02  2.54762E-01 -1.35692E-01 -1.60797E-01 -4.24801E-02  3.37760E-01
   1.10296E-01  2.63773E-02  1.52499E-01 -4.51441E-03  1.68791E-02  2.11090E-01  1.67974E-01 -7.23642E-02  1.72285E-02  2.03501E-01
   4.20243E-01  2.65789E-01  1.51253E-01  1.56476E-01  2.25335E-01  1.60184E-01  2.41525E-01  3.03969E-01  3.05915E-01  2.59138E-01
   5.66486E-02  1.41429E-01  7.12526E-02 -8.23702E-02  1.73495E-02 -2.46182E-02 -3.26036E-01 -1.04326E-01  1.92418E-02  7.98386E-02
  -1.31841E-01 -1.37905E-01  1.11726E-02 -4.67537E-02  4.16330E-02 -1.03255E-01  4.39956E-02 -1.79590E-01  3.11849E-02  1.23386E-01
  -2.14868E-01 -1.27963E-01 -1.02827E-01 -1.10090E-01 -1.55386E-01 -1.25581E-01  6.77730E-02 -6.37334E-02 -5.92169E-03  1.23415E-01
  -1.78677E-01  1.40079E-01 -8.48897E-02 -1.46699E-01  2.83297E-02  7.43257E-02  1.66888E-01  2.08165E-01  1.76031E-01 -3.23704E-01
   9.72410E-02  1.01725E-01 -1.65129E-01 -1.02605E-01 -1.39529E-02  1.91690E-01  7.80483E-02 -7.01368E-02  1.29535E-01  2.71319E-01
   1.81323E-01  1.63138E-01 -2.50276E-02  8.09209E-02  9.40088E-02  2.92589E-01  2.41416E-01 -1.30539E-01 -4.63103E-02 -3.04841E-01
  -2.50737E-01  7.57164E-02 -9.98932E-02  1.88523E-01  3.70928E-02 -2.53996E-01 -1.28133E-02 -6.61146E-02  9.50421E-02 -1.07204E-01
  -1.03654E-01 -1.72665E-03 -3.66124E-01 -4.26799E-01 -4.58068E-02 -2.72515E-01 -1.77937E-01  1.29332E-01 -8.74330E-02  3.37367E-02
  -3.53322E-01 -3.73043E-01 -8.66909E-02  9.96005E-02 -1.13123E-01 -2.74990E-02  1.32274E-01  1.65348E-01  2.22364E-01 -1.79036E-01
  -5.34245E-02 -2.68351E-02  1.05754E-01  1.47023E-01  1.75962E-01  7.65183E-02  6.05333E-02  1.39730E-01  1.36558E-01  1.98757E-01
   2.63865E-01 -8.20055E-02 -4.09975E-02  3.03784E-01 -1.79005E-01  2.27600E-01  1.77436E-01  2.52513E-01  3.74389E-01  1.91834E-01
   7.11578E-02 -1.02325E-01  1.25084E-01  5.56971E-02  2.66088E-01  7.99042E-02  9.31376E-02  9.00529E-02  3.84251E-02 -1.89400E-01
  -6.22832E-02 -4.22552E-02 -3.81544E-01 -2.42199E-01 -4.51613E-01 -2.76187E-01 -3.43534E-01 -4.39757E-01 -3.65568E-01 -4.59741E-01
  -4.95983E-01 -3.56992E-01 -4.35091E-01 -2.55124E-01 -2.38119E-01 -3.24273E-01 -1.16188E-01 -1.49759E-01 -7.25293E-02 -3.22595E-01
   6.85297E-02 -9.33354E-02 -3.89371E-01 -1.23544E-01  4.78227E-02  1.51878E-02 -2.09941E-01  2.31539E-01  1.78290E-01  8.73705E-02
   6.19685E-02 -3.23749E-01 -1.93313E-01  5.11481E-02 -3.31229E-02  2.36383E-01  1.68665E-01  5.13509E-02  1.17197E-01  1.15568E-01
   2.13438E-01 -1.00665E-01 -2.36317E-02  3.67166E-03  1.87669E-02 -1.04632E-01 -1.60353E-01  1.36022E-02  1.32816E-02  1.80849E-01
   7.21829E-02 -1.79600E-02  1.67901E-01  6.33750E-02 -2.73191E-01  1.28511E-01  4.25420E-01  8.59974E-03 -2.73315E-01  7.45271E-02
   1.17281E-01  9.79116E-02  1.27995E-01 -2.10847E-01  4.23802E-02 -1.18351E-01  9.33156E-02  1.74141E-01 -6.72662E-02  1.07568E-01
  -1.49728E-01 -2.31298E-02  4.33150E-01  3.23573E-01 -1.10971E-01  1.29064E-01 -2.67723E-02  1.05187E-01  2.40389E-01  4.83103E-02
   1.75705E-01 -1.35815E-01 -6.24543E-02  6.84761E-03  3.33434E-02  3.56534E-02  2.42874E-01  1.95276E-01  1.79125E-01  1.98380E-01
  -6.37010E-02  6.21287E-02  1.31132E-01  2.39260E-02 -1.46043E-01  2.23980E-02  1.16164E-01  1.51228E-01 -3.24693E-01 -6.08060E-02
   1.21243E-01 -2.14728E-01  1.51497E-01  7.37775E-02  4.05764E-02 -1.18147E-01  8.87588E-02  8.34823E-02 -1.21694E-01 -6.13323E-03
   2.49343E-01  1.40535E-01 -1.51850E-01  8.31261E-02 -1.32926E-01 -1.46756E-01  1.68358E-01  1.52470E-01 -6.10269E-03  1.78049E-01
   2.70285E-01 -1.58639E-02 -1.04485E-01  1.94066E-01  1.31303E-01 -3.38462E-02  6.22254E-02  1.45721E-01  1.78937E-01  1.00166E-01
  -1.31507E-01 -3.58078E-03  2.53521E-01 -4.30884E-02
 NY points of the fit to the data follow
   6.40416E-02  4.99312E-02  2.60648E-02  6.26744E-03 -8.37792E-03 -1.63804E-02 -1.80886E-02  4.95190E-03  3.65096E-02  1.81761E-02
   7.16851E-02  2.53481E-01  4.26675E-01  5.13492E-01  5.23427E-01  4.67321E-01  3.63175E-01  2.96113E-01  2.36362E-01  1.47274E-01
   8.39054E-02  4.63575E-02  1.49326E-02 -1.29520E-02 -4.19640E-02 -6.90336E-02 -8.86403E-02 -1.02991E-01 -1.15387E-01 -1.26378E-01
  -1.35248E-01 -1.45972E-01 -1.60790E-01 -1.82109E-01 -2.10155E-01 -2.37084E-01 -2.65611E-01 -2.91577E-01 -3.06823E-01 -2.67102E-01
  -2.05744E-01 -9.95936E-02  1.48408E-02  1.30899E-01  2.49895E-01  3.43817E-01  3.90532E-01  3.75324E-01  3.36703E-01  2.72621E-01
   2.17140E-01  1.79590E-01  1.39895E-01  9.79625E-02  5.67963E-02  1.27127E-02 -3.74622E-02 -9.48046E-02 -1.41833E-01 -1.79069E-01
  -2.25217E-01 -2.08654E-01 -1.93437E-01 -2.20314E-01 -1.87788E-01 -1.17523E-01 -4.20564E-02  4.87467E-02  1.79521E-01  2.61981E-01
   2.95929E-01  3.14859E-01  2.65943E-01  1.95666E-01  1.28847E-01  4.96284E-02  3.26689E-03 -6.73090E-02 -2.09042E-01 -3.17645E-01
  -3.43457E-01 -3.00997E-01 -1.95795E-01 -2.78392E-02  1.21788E-01  2.22504E-01  3.02916E-01  3.20057E-01  2.89758E-01  2.57003E-01
   2.27940E-01  1.99715E-01  1.67362E-01  1.29828E-01  8.82311E-02  2.40717E-02 -5.20885E-02 -1.65826E-01 -2.84451E-01 -3.68243E-01
  -3.67907E-01 -2.69149E-01 -1.14741E-01  4.70114E-02  1.58950E-01  2.22053E-01  2.46222E-01  2.52861E-01  2.57772E-01  2.61353E-01
   2.64274E-01  2.67055E-01  2.68153E-01  2.68339E-01  2.68263E-01  2.69258E-01  2.71180E-01  2.69870E-01  2.63353E-01  2.69881E-01
   2.49971E-01  2.19034E-01  1.86097E-01  9.91504E-02  4.94027E-02 -3.58935E-02 -8.06050E-02 -1.93369E-01 -3.22840E-01 -4.56841E-01
  -6.25135E-01 -6.21157E-01 -5.23020E-01 -4.66510E-01 -5.82388E-01 -7.34849E-01 -8.02084E-01 -7.55558E-01 -5.53433E-01 -3.41757E-01
  -2.16350E-01 -1.37195E-01 -8.02409E-02 -3.77043E-02 -3.07193E-03  2.64022E-02  5.28257E-02  7.64123E-02  9.74028E-02  1.16330E-01
   1.34546E-01  1.51736E-01  1.68948E-01  1.86908E-01  2.05439E-01  2.25992E-01  2.49791E-01  2.76621E-01  3.06478E-01  3.42317E-01
   3.90081E-01  4.60564E-01  5.59266E-01  5.30655E-01  6.27080E-01  8.40170E-01  8.67750E-01  5.38296E-01  6.61273E-03 -4.92655E-01
  -8.18205E-01 -7.96637E-01 -6.42831E-01 -5.45153E-01 -4.80765E-01 -4.26874E-01 -3.84109E-01 -3.46487E-01 -3.22258E-01 -3.03274E-01
  -2.88174E-01 -2.68997E-01 -2.49944E-01 -2.33884E-01 -2.25286E-01 -2.21135E-01 -2.13137E-01 -2.05504E-01 -1.96374E-01 -1.87471E-01
  -1.78560E-01 -1.69893E-01 -1.59492E-01 -1.48422E-01 -1.38183E-01 -1.28489E-01 -1.18895E-01 -1.08594E-01 -9.99508E-02 -9.19573E-02
  -8.18973E-02 -7.02423E-02 -5.97740E-02 -5.63123E-02 -5.83586E-02 -5.85395E-02 -5.29319E-02 -4.62732E-02 -4.54278E-02 -5.10689E-02
  -5.96659E-02 -6.55077E-02 -6.48039E-02 -6.12371E-02 -5.74908E-02 -5.29049E-02 -4.77332E-02 -4.37043E-02 -4.25168E-02 -4.14827E-02
  -2.61542E-02 -1.62716E-02 -8.96643E-03  2.38146E-02  9.50833E-02  1.88268E-01  2.36290E-01  2.22239E-01  2.15665E-01  2.57903E-01
   3.16935E-01  3.34038E-01  2.88128E-01  1.84971E-01  7.86518E-02  1.94008E-02 -1.28045E-02 -3.35368E-02 -4.68853E-02 -5.89952E-02
  -6.95535E-02 -7.93573E-02 -8.69194E-02 -9.17568E-02 -9.70635E-02 -1.00220E-01 -1.05882E-01 -1.10193E-01 -1.14086E-01 -1.17395E-01
  -1.20239E-01 -1.30501E-01 -1.22567E-01 -1.47074E-01 -1.74576E-01 -1.44847E-01 -1.02302E-01 -5.53577E-02 -1.72878E-02  4.23511E-02
   8.54072E-02  1.12401E-01  1.40907E-01  1.38553E-01  1.38616E-01  1.36619E-01  1.30816E-01  1.19520E-01  9.91511E-02  9.17020E-02
   8.12452E-02  6.47075E-02  4.12463E-02  8.88966E-03 -2.66870E-02 -6.61487E-02 -1.09847E-01 -1.63533E-01 -2.08797E-01 -2.70038E-01
  -3.35238E-01 -3.97240E-01 -4.59910E-01 -4.48658E-01 -3.49649E-01 -1.63083E-01  6.38060E-02  2.77680E-01  4.20690E-01  4.55640E-01
   4.43108E-01  3.82110E-01  3.21893E-01  2.86199E-01  2.67348E-01  2.67379E-01  2.72843E-01  2.81485E-01  2.80516E-01  2.76221E-01
   2.68170E-01  2.58033E-01  2.49904E-01  2.42424E-01  2.34232E-01  2.26509E-01  2.18112E-01  2.06227E-01  1.93893E-01  1.76928E-01
   1.57438E-01  1.36891E-01  1.13816E-01  9.06714E-02  6.41518E-02  3.40541E-02 -9.57023E-03 -6.50331E-02 -1.17428E-01 -1.74306E-01
  -2.13821E-01 -2.48345E-01 -2.62439E-01 -2.67208E-01 -2.51684E-01 -2.13792E-01 -1.64498E-01 -8.77034E-02 -2.56676E-02  2.89233E-02
   4.46494E-02  2.31727E-02 -2.38526E-02 -7.51154E-02 -1.14466E-01 -1.65051E-01 -1.92473E-01 -2.78405E-01 -3.45490E-01 -2.53060E-01
  -3.70692E-01 -8.22281E-01 -1.34315E+00 -1.59165E+00 -1.49339E+00 -1.09373E+00 -5.93273E-01 -3.21203E-01 -1.98807E-01 -1.19815E-01
  -7.35804E-02 -4.18329E-02 -1.87301E-02 -2.06277E-03  1.21426E-02  2.11227E-02  2.93626E-02  3.30136E-02  3.20963E-02  2.69943E-02
   1.71036E-02  6.35465E-03 -5.83415E-03 -1.36911E-02 -1.81308E-02 -1.62391E-02 -9.32392E-03 -2.97612E-04  1.05570E-02  1.99772E-02
   2.88163E-02  3.76901E-02  4.57015E-02  5.27534E-02  5.83364E-02  6.29617E-02  6.68588E-02  7.14697E-02  7.58477E-02  7.95828E-02
   8.28257E-02  8.55897E-02  8.86251E-02  9.19473E-02  9.55679E-02  9.77679E-02  9.96517E-02  1.01154E-01  1.03158E-01  1.05961E-01
   1.09425E-01  1.12768E-01  1.14799E-01  1.15344E-01  1.14015E-01  1.11580E-01  1.08905E-01  1.06174E-01  1.03000E-01  9.86131E-02
   9.35285E-02  8.77110E-02  8.10181E-02  7.35361E-02  6.61605E-02  5.94015E-02  5.27445E-02  4.68835E-02  4.08621E-02  3.48026E-02
   2.92967E-02  2.46659E-02  2.04855E-02  1.66731E-02  1.32311E-02  9.75670E-03  6.29963E-03  3.10070E-03  5.89807E-04 -1.45632E-03
  -3.39231E-03 -4.84495E-03 -5.46719E-03 -5.29368E-03 -4.10966E-03 -1.72237E-03  1.04043E-03  4.43641E-03  9.51257E-03  1.58292E-02
   2.05111E-02  2.49261E-02  3.00739E-02  3.67349E-02  4.55649E-02  5.50027E-02  6.22428E-02  6.55161E-02  6.81784E-02  7.20046E-02
   7.81804E-02  8.75555E-02  9.84292E-02  1.09379E-01  1.20410E-01  1.31521E-01  1.42487E-01  1.52358E-01  1.60670E-01  1.66370E-01
   1.69731E-01  1.71193E-01  1.71181E-01  1.69899E-01  1.67753E-01  1.64096E-01  1.58128E-01  1.49534E-01  1.39240E-01  1.28317E-01
   1.17608E-01  1.07915E-01  9.79146E-02  8.76321E-02  7.76829E-02  6.88363E-02  6.06415E-02  5.32142E-02  4.64738E-02  4.01361E-02
   3.49331E-02  3.04634E-02  2.61385E-02  2.29731E-02  2.15926E-02  2.15991E-02  2.30206E-02  2.55463E-02  2.85766E-02  3.18908E-02
   3.63050E-02  4.13608E-02  4.64048E-02  5.13382E-02  5.56350E-02  5.89694E-02  6.09187E-02  6.25414E-02  6.46110E-02  6.67417E-02
   6.89607E-02  6.97833E-02  6.92877E-02  6.77877E-02  6.56986E-02  6.28541E-02  5.91569E-02  5.56363E-02  5.19331E-02  4.85579E-02
   4.52508E-02  4.15053E-02  3.75630E-02  3.38054E-02  2.99856E-02  2.55627E-02  2.11107E-02  1.73230E-02  1.40674E-02  1.08416E-02
   7.53036E-03  3.83189E-03 -6.98531E-04 -6.16923E-03 -1.28787E-02 -2.07314E-02 -2.89761E-02 -3.77266E-02 -4.71527E-02 -5.89406E-02
  -7.32210E-02 -8.93924E-02 -1.06080E-01 -1.22814E-01 -1.39484E-01 -1.55220E-01 -1.69645E-01 -1.82528E-01 -1.94448E-01 -2.04648E-01
  -2.11775E-01 -2.15613E-01 -2.16985E-01 -2.16015E-01 -2.13134E-01 -2.08448E-01 -2.01943E-01 -1.94038E-01 -1.86440E-01 -1.79661E-01
  -1.72519E-01 -1.64810E-01 -1.56403E-01 -1.47165E-01 -1.36898E-01 -1.26214E-01 -1.15556E-01 -1.04223E-01 -9.33972E-02 -8.35815E-02
  -7.39678E-02 -6.41918E-02 -5.46168E-02 -4.60612E-02 -3.88231E-02 -3.19258E-02 -2.46633E-02 -1.81873E-02 -1.25914E-02 -7.83136E-03
  -3.89404E-03 -1.46678E-04  3.68540E-03  6.69172E-03  8.49674E-03  1.06557E-02  1.27095E-02  1.37866E-02  1.47503E-02  1.57434E-02
   1.69689E-02  1.85684E-02  2.09316E-02  2.35142E-02  2.51293E-02  2.63964E-02  2.72513E-02  2.71814E-02  2.69868E-02  2.71567E-02
   2.71036E-02  2.67228E-02  2.65932E-02  2.66213E-02  2.65968E-02  2.64981E-02  2.66675E-02  2.78466E-02  2.88590E-02  2.80498E-02
   2.61060E-02  2.44738E-02  2.38449E-02  2.36427E-02  2.40707E-02  2.44784E-02  2.46471E-02  2.43196E-02  2.34443E-02  2.30135E-02
   2.31369E-02  2.42932E-02  2.58013E-02  2.68920E-02  2.77123E-02  2.90125E-02  3.04103E-02  3.15827E-02  3.24878E-02  3.38310E-02
   3.46749E-02  3.47983E-02  3.45117E-02  3.39549E-02  3.39639E-02  3.46816E-02  3.63208E-02  3.82282E-02  3.98748E-02  4.10080E-02
   4.20484E-02  4.34746E-02  4.58174E-02  4.86364E-02  5.08181E-02  5.15061E-02  5.09266E-02  5.04994E-02  5.12101E-02  5.27918E-02
   5.43087E-02  5.51964E-02  5.53577E-02  5.56339E-02  5.70819E-02  5.87415E-02  5.95067E-02  6.06361E-02  6.25423E-02  6.46421E-02
   6.70994E-02  6.92157E-02  7.11684E-02  7.33810E-02  7.59713E-02  7.85379E-02  8.17445E-02  8.62326E-02  9.13542E-02  9.65655E-02
   1.01814E-01  1.05993E-01  1.09741E-01  1.14220E-01
 NY background values follow
     1.127E-02    1.153E-02    1.179E-02    1.205E-02    1.231E-02    1.257E-02    1.283E-02    1.308E-02    1.334E-02    1.360E-02
     1.386E-02    1.412E-02    1.438E-02    1.463E-02    1.489E-02    1.515E-02    1.541E-02    1.567E-02    1.593E-02    1.618E-02
     1.644E-02    1.670E-02    1.696E-02    1.721E-02    1.747E-02    1.773E-02    1.799E-02    1.824E-02    1.850E-02    1.876E-02
     1.901E-02    1.927E-02    1.952E-02    1.978E-02    2.003E-02    2.029E-02    2.054E-02    2.080E-02    2.105E-02    2.131E-02
     2.156E-02    2.182E-02    2.207E-02    2.232E-02    2.257E-02    2.283E-02    2.308E-02    2.333E-02    2.358E-02    2.383E-02
     2.408E-02    2.433E-02    2.458E-02    2.483E-02    2.508E-02    2.533E-02    2.558E-02    2.583E-02    2.607E-02    2.632E-02
     2.657E-02    2.681E-02    2.706E-02    2.730E-02    2.755E-02    2.779E-02    2.803E-02    2.827E-02    2.852E-02    2.876E-02
