 
 $NMID
 ID=''
 FMTDAT='(2E13.5)'
 TRAMP=   1.00000E+0
 VOLUME=   1.00000E+0
 $END
  -1.45896E+1  -4.42093E+2
   8.24315E+2   1.19704E+3
  -6.03145E+2  -2.90466E+3
  -3.71142E+2   1.83076E+2
   6.38000E+2  -7.65781E+1
  -2.18010E+2  -6.92885E+2
   1.08070E+1   7.72704E+2
  -1.16540E+3   7.51763E+2
  -2.30549E+3   2.09470E+2
  -3.99693E+2  -1.78528E+3
  -5.49410E+2  -2.20697E+3
   3.17828E+3  -8.73911E+2
   2.02180E+3   2.30078E+3
  -1.71752E+3   2.30039E+3
  -3.72580E+3   7.06975E+2
  -9.08156E+2  -1.23517E+3
   9.27778E+2  -1.95909E+3
   5.22925E+2   1.04906E+3
   1.07823E+3   1.24936E+3
  -1.55959E+2  -5.55363E+2
   2.58724E+2  -2.97325E+3
   3.29444E+3   1.42245E+3
   1.13468E+3   3.30127E+3
  -3.40575E+3  -2.20752E+3
  -1.48644E+3  -3.92564E+3
   3.82621E+3  -1.93495E+3
  -1.03415E+3   3.56054E+3
  -4.24849E+3  -1.22597E+3
  -4.04594E+3  -3.80470E+3
   2.41812E+3  -3.92678E+3
   6.11626E+3   1.02362E+3
   8.60314E+2   8.26357E+3
  -4.35763E+3   3.06951E+3
   1.73933E+2  -1.48949E+3
   7.39850E+2   1.23427E+3
  -3.59257E+3   9.27872E+1
   7.49622E+2  -3.12012E+3
   6.16137E+3  -2.12557E+3
   3.95658E+3  -1.85312E+1
   1.28526E+3  -5.61510E+1
   6.37550E+2   2.00729E+3
  -3.36072E+3   1.99124E+3
  -5.47613E+3  -1.93707E+3
   5.17804E+2  -4.01548E+3
   1.48900E+3  -1.64451E+3
  -1.59718E+2  -5.62773E+2
   1.00552E+3   2.29929E+3
   1.33611E+3   2.99592E+3
   1.08483E+3   1.74033E+3
  -8.79031E+2   2.89288E+3
  -5.10546E+3   3.29192E+1
  -1.88196E+3  -3.16576E+3
   9.00387E+2  -4.60747E+3
   2.14906E+3  -8.06082E+2
   3.74505E+2   2.39961E+2
  -4.26238E+2   3.92628E+3
  -1.15982E+2   3.08196E+3
  -4.00252E+3   2.42877E+3
  -4.87747E+3  -3.68664E+3
  -1.76870E+3  -3.95292E+3
   3.89204E+3  -4.74686E+3
   2.93851E+3  -1.66698E+3
   3.40567E+3   1.69216E+2
  -2.25952E+3  -1.06883E+3
  -4.04916E+2  -1.65233E+3
   1.37361E+3  -1.73979E+3
   1.38682E+3   2.67869E+3
  -2.89493E+2   1.13677E+3
  -1.54955E+3  -1.98084E+2
   1.12654E+3  -5.48936E+2
  -8.13582E+2   1.65512E+3
  -2.44170E+3   6.37665E+2
  -1.30293E+3   1.01794E+3
  -1.60562E+3   1.79210E+2
   1.41301E+2  -1.37294E+3
   2.04117E+2  -1.44245E+3
   3.94900E+2  -1.33853E+3
   1.06308E+3  -2.60191E+3
   1.82313E+3   5.47358E+2
   1.08318E+3   9.26386E+2
  -5.56114E+2   3.03765E+3
   3.24448E+2   2.30749E+3
   3.18656E+2   2.00099E+3
   2.13354E+3   1.73303E+3
   6.02932E+2   9.49377E+2
  -2.13505E+3   9.83921E+2
  -3.73593E+2  -1.63476E+3
   8.60516E+2  -5.54789E+3
   2.69374E+3  -2.86547E+3
  -2.67212E+0   1.51745E+3
   8.05610E+2   7.30162E+1
   5.67187E+2  -6.88645E+2
   2.02589E+3   2.55986E+3
  -5.85141E+1   1.46706E+3
  -3.54718E+3   1.18735E+2
  -1.97851E+3  -2.92005E+3
   1.81235E+3  -2.35871E+3
   2.87854E+3   1.20787E+3
   4.40420E+2   2.92637E+3
  -2.68147E+3   1.13377E+3
  -1.46991E+3  -2.59852E+3
   3.83061E+3  -1.33666E+3
   1.00510E+3   2.09848E+2
   1.10205E+3   2.04653E+3
  -2.42076E+3   4.78445E+2
  -2.14579E+3  -2.99055E+2
   4.05685E+2   8.29449E+2
  -4.11441E+3   1.95866E+3
  -2.89391E+3  -7.19582E+2
  -4.82803E+2  -4.71231E+3
   2.28757E+3  -1.24818E+3
   1.65873E+3  -3.84687E+2
   5.54497E+2   5.19554E+2
   1.45806E+3   5.36018E+2
  -1.71621E+3   2.54142E+3
  -2.31015E+3   1.62149E+3
  -2.18620E+3  -2.24354E+3
  -2.46308E+3  -1.56695E+3
  -2.17888E+3  -1.05264E+3
   2.42401E+3   2.28325E+2
  -6.44320E+2   4.95354E+2
  -2.07743E+3   2.89999E+3
  -3.94651E+3   8.94695E+2
  -8.53095E+2  -8.02723E+2
  -3.35778E+2  -1.32863E+3
  -1.10985E+3   1.15722E+2
   1.11696E+3  -1.69699E+3
  -3.06574E+2  -3.51946E+2
   2.04449E+1  -1.02500E+2
   1.86314E-1   2.36065E+3
   2.53072E+1  -9.93686E+2
  -1.22976E+3  -1.56339E+3
   1.69476E+3  -2.26240E+2
   1.67976E+3   1.02167E+3
   2.61579E+2   2.41245E+3
  -2.36394E+2   1.13241E+3
  -9.96946E+2   1.93820E+3
  -1.56514E+3   7.24003E+2
  -1.22336E+3   1.51959E+3
  -1.01360E+3  -1.01976E+3
  -8.78918E+2  -4.93624E+2
   4.61533E+1  -4.44491E+2
  -4.06389E+1   1.12495E+3
  -3.01906E+2   1.98373E+3
   8.44353E+2  -1.88198E+2
  -1.86484E+3  -1.04389E+3
   5.62123E+2  -1.14816E+2
   8.38055E+2  -1.22706E+2
  -9.72606E+2   6.92081E+0
   5.76115E+1   6.51172E+1
  -7.51981E+2  -3.18223E+2
  -2.12594E+2  -7.78142E+2
   1.21246E+2  -2.02520E+3
  -1.91258E+3  -2.17870E+3
   1.51161E+3  -1.75841E+3
   1.21334E+3  -1.45580E+3
   2.31453E+2   4.84317E+2
   1.99881E+2  -1.27635E+3
   9.37921E+2  -1.96366E+2
  -1.00148E+3   7.82201E+1
   8.24125E+2   5.94255E+2
  -1.80449E+2  -1.77220E+2
   8.59096E+2  -2.20992E+3
   3.50995E+2  -1.73923E+3
   5.41200E+2   9.31807E+2
  -6.76502E+2   8.66448E+2
   7.01592E+2  -1.52461E+3
   1.47902E+3  -3.86472E+2
  -2.83727E+2   3.68276E+3
   1.62336E+3   1.39053E+3
   1.81621E+3   7.17801E+2
   5.64435E+2  -1.35751E+2
   1.29687E+3  -1.80512E+2
   2.04956E+3  -7.88236E+2
   2.35072E+3   7.67177E+2
   1.94240E+3  -2.92439E+2
   1.40419E+2   2.26288E+2
   1.45884E+3  -2.14816E+1
   1.66067E+3   1.67964E+3
  -2.07594E+2   2.40649E+3
  -1.90371E+3   5.73258E+2
   3.72343E+2   1.27986E+3
   6.77268E+2   4.10424E+2
   4.26821E+2   1.84657E+3
   1.78955E+3  -7.62520E+2
   1.65033E+3   3.91022E+2
  -3.31562E+2   1.78744E+3
  -1.05325E+2   2.39488E+3
  -2.93706E+2  -3.99240E+2
  -2.53538E+3  -1.16715E+3
  -7.51347E+1  -1.38836E+3
  -2.09659E+2   1.82178E+3
   3.06803E+2  -1.85425E+2
  -7.69669E+2   8.36081E+2
   1.24224E+3  -2.21395E+3
  -1.10973E+3  -3.91862E+2
   1.55985E+3   8.76316E+2
   1.37626E+1  -2.50909E+2
   9.74687E+2  -8.93674E+2
   1.29489E+3   3.94236E+2
  -1.62655E+3   2.65613E+3
  -2.67175E+3   1.92799E+3
  -1.85904E+2   8.04704E+0
   9.68495E+2  -9.73246E+1
   1.31247E+3  -1.54534E+3
  -5.52274E+2   6.34513E+2
   1.87831E+3   4.62821E+2
   1.55252E+3  -1.42777E+3
   9.43838E+2  -4.38871E+2
   9.50120E+2   6.89269E+2
   3.52108E+3   3.37887E+2
  -5.50340E+1  -2.37029E+3
   1.28088E+3   7.99983E+1
   5.81574E+2   8.66186E+1
   2.48909E+3   6.82772E+2
   6.20721E+2   5.06694E+2
  -7.76137E+2  -6.25804E+2
   3.48352E+2   1.75950E+3
  -8.08716E+2   1.06388E+3
  -4.36122E+2   1.92795E+2
   6.36291E+2   9.07940E+2
   1.52503E+3  -2.06204E+3
  -2.87208E+2   3.20576E+2
   9.59841E+2   1.49435E+3
   6.14891E+2  -2.07684E+3
   1.67319E+3  -1.85545E+3
  -1.24716E+2  -2.28766E+2
   2.20617E+3   2.17134E+2
   4.06384E+2   2.06216E+3
   5.30392E+1   1.36450E+2
   4.48323E+2   2.74361E+3
   7.33384E+2  -1.21408E+2
   1.58105E+2   2.44576E+2
   5.04089E+2  -9.87266E+2
   1.72709E+3  -1.31109E+3
   8.92768E+2   6.95138E+2
   1.47710E+3   1.31607E+3
   1.44103E+3   1.34091E+3
  -6.67752E+2   3.97902E+2
  -1.60089E+3  -2.82037E+3
  -1.07995E+3  -7.99473E+2
  -4.84723E+2   4.48253E+2
   2.00199E+3  -4.79853E+2
   7.90235E+2   1.19373E+3
  -7.11397E+2   1.76095E+3
   1.23280E+2   3.79665E+2
  -1.44453E+3   1.96475E+3
   7.28639E+2  -9.58441E+2
   1.28769E+3   9.29066E+2
  -1.21581E+2  -6.08787E+2
   7.77763E+2  -1.42597E+3
  -5.28934E+1   8.65533E+2
   1.21800E+3   1.09752E+3
   6.93194E+2  -5.81732E+2
  -1.35011E+3  -1.25994E+2
  -4.17385E+1  -2.09768E+3
  -1.54033E+3  -7.67849E+2
   1.03826E+3  -5.40429E+2
   3.75445E+2   1.56158E+3
   8.76317E+2   1.21103E+3
   1.63576E+3   4.19134E+2
   1.39611E+3  -3.36107E+3
   1.57717E+3  -9.36032E+2
  -1.18451E+3  -1.22387E+3
   1.11866E+3  -9.03884E+1
   1.00574E+3   3.45347E+2
   6.88793E+2  -1.86649E+3
  -5.76643E+2  -2.98359E+2
   2.72502E+2   8.87201E+2
  -1.09040E+3  -3.57021E+2
   1.51149E+3  -1.26178E+3
   8.57551E+2  -3.27974E+2
  -5.75267E+2  -4.52086E+2
  -9.99923E+2   1.27921E+2
  -6.11873E+2  -1.83240E+2
   7.18285E+2  -5.75220E+0
  -3.56022E+2   1.18565E+3
  -9.92263E+2   7.99597E+2
   3.34059E+3   2.86943E+3
   1.03055E+3  -1.91141E+3
   2.26278E+3  -9.38470E+2
   1.11881E+3   2.13120E+3
  -8.80522E+2   8.87701E+2
   1.62827E+2  -2.07595E+3
   8.42249E+2  -7.99309E+2
  -1.06494E+3   9.43116E+1
  -3.92747E+2   1.79190E+2
   1.94632E+2  -2.68727E+2
  -3.49547E+2   5.07366E+2
   4.19242E+2  -1.88592E+2
   8.02226E+2   1.43119E+2
  -1.46039E+3  -5.05708E+2
  -1.44284E+3  -7.50381E+2
  -5.17792E+2   8.37407E+2
   1.74568E+3   1.26616E+3
  -2.56866E+1  -6.06718E+2
   2.50392E+1   1.56915E+3
   1.46912E+3   2.74780E+2
   1.09901E+3  -1.05021E+3
   1.38840E+2   2.08288E+3
  -1.60934E+3   1.46678E+3
  -1.33451E+3  -7.65405E+2
   1.03157E+3   1.41646E+3
  -1.21483E+3   8.19780E+2
  -9.63570E+2  -6.06222E+2
  -1.25556E+3  -9.98724E+1
   3.17886E+2  -1.16210E+3
   6.69003E+2  -1.27525E+3
  -7.02302E+2   5.14063E+2
  -4.27406E+2  -1.25453E+3
   1.63093E+3   1.48977E+2
   5.39907E+2   3.48467E+2
   3.45310E+2  -4.25854E+2
   1.87573E+3   3.37524E+2
   6.84424E+2   6.93839E+2
   2.58779E+1  -6.43272E+2
   1.41107E+3  -1.70511E+3
  -5.01402E+2  -9.02538E+1
  -1.66066E+2   7.13320E+2
  -6.48636E+2   5.54455E+2
   3.49138E+0  -1.04368E+3
  -3.20402E+1  -6.40860E+2
   2.16899E+2  -9.38893E+2
  -4.59738E+2   2.33290E+3
  -9.04191E+2   1.23513E+2
  -7.40734E+2  -1.08548E+3
  -1.04639E+3  -3.23574E+2
  -1.87290E+3   1.43220E+3
  -1.10868E+3  -8.91470E+2
   1.78983E+2   2.45574E+3
   2.17858E+3  -9.59517E+2
   6.66530E+2  -3.78767E+2
  -1.40909E+3  -2.99530E+2
   4.73198E+1  -5.44290E+2
  -5.18114E+2   1.23968E+2
   3.59769E+2  -1.19851E+3
   1.07669E+3   1.42307E+3
   4.44452E+2  -7.54567E+2
   4.93655E+2  -1.78417E+2
   1.50142E+3   2.06323E+3
   1.17779E+3   5.32541E+2
  -3.33180E+3  -1.41374E+3
  -1.52891E+2  -1.23598E+3
   1.33305E+3  -6.46963E+1
   2.07209E+2   2.86213E+2
  -8.31930E+2  -1.21994E+3
  -6.57706E+2  -9.77706E+2
   1.14468E+3  -9.42265E+2
  -1.77670E+3   8.57553E+2
  -1.46563E+3   8.14797E+2
   1.61638E+1  -1.12332E+2
  -1.03610E+3   1.29446E+3
  -9.74868E+2   1.14602E+3
  -2.69487E+2  -3.12852E+2
  -2.63062E+2  -4.61018E+2
  -4.74233E+2  -1.23174E+3
   4.60314E+2   9.88314E+2
   1.36819E+3   1.15055E+3
  -1.83096E+2   8.43483E+2
   1.21692E+3   6.26886E+2
   1.52391E+3  -1.46804E+3
   1.99976E+3   5.50274E+2
   4.58263E+2  -4.23698E+2
  -1.85180E+3  -7.26856E+2
  -1.30409E+3   5.90386E+2
  -1.25398E+2   2.53376E+2
  -9.42199E+2  -2.10258E+3
