 LCModel (Version 6.3-1N) Copyright: S.W. Provencher.          Ref.: Magn. Reson. Med. 30:672-679 (1993).                
 Slice_N1@17_19  02-Jun-2023 14:37:01
 27 lines in following concentration table = NCONC+1
    Conc.  %SD /Cr+PCr  Metabolite                                         
 2.36E-06  14% 2.8E-04 Mac                                                 
 4.88E-02  12%   5.739 Cr                                                  
 1.92E-02  30%   2.261 PCr                                                 
 6.13E-02  12%   7.205 Ins                                                 
 7.04E-02   8%   8.268 NAA                                                 
 6.68E-02  10%   7.852 Tau                                                 
 6.04E-03  35%   0.709 PCho                                                
 1.11E-02  19%   1.306 GPC                                                 
 6.08E-02  14%   7.141 Glu                                                 
 1.70E-02  36%   2.000 Gln                                                 
    0.000 999%   0.000 Ala                                                 
 1.54E-02  75%   1.813 Asc                                                 
 1.49E-02  50%   1.747 Asp                                                 
 1.24E-02  32%   1.454 GABA                                                
 8.46E-03  60%   0.994 Glc                                                 
 7.06E-03  45%   0.829 GSH                                                 
 1.28E-02  48%   1.504 Lac                                                 
 9.30E-03  39%   1.092 NAAG                                                
    0.000 999%   0.000 PE                                                  
 1.72E-02  11%   2.015 GPC+PCho                                            
 7.97E-02   8%   9.360 NAA+NAAG                                            
 7.78E-02  13%   9.141 Glu+Gln                                             
 6.81E-02   8%   8.000 Cr+PCr                                              
 7.97E-02   8%   9.360 NAA+NAAG                                            
 6.81E-02   8%   8.000 Cr+PCr                                              
 7.78E-02  13%   9.141 Glu+Gln                                             
   6 lines in following misc. output table
  FWHM = 0.017 ppm    S/N =   6                                            
  Data shift = 0.017 ppm                                                   
  Ph: -21 deg     -11.7 deg/ppm                                            
  alphaB,S = 5.0E-01,   1.8E+00                                            
   18 spline knots.   Ns = 5(1)                                            
  ( 3) 2 infls.   ( 1) 1 extrs.                                            
  654 points on ppm-axis = NY
      4.000000     3.994181     3.988363     3.982544     3.976726     3.970907     3.965088     3.959270     3.953451     3.947633
      3.941814     3.935995     3.930177     3.924358     3.918540     3.912721     3.906902     3.901084     3.895265     3.889446
      3.883628     3.877809     3.871991     3.866172     3.860353     3.854535     3.848716     3.842898     3.837079     3.831260
      3.825442     3.819623     3.813805     3.807986     3.802167     3.796349     3.790530     3.784712     3.778893     3.773074
      3.767256     3.761437     3.755619     3.749800     3.743981     3.738163     3.732344     3.726526     3.720707     3.714888
      3.709070     3.703251     3.697433     3.691614     3.685795     3.679977     3.674158     3.668339     3.662521     3.656702
      3.650884     3.645065     3.639246     3.633428     3.627609     3.621791     3.615972     3.610153     3.604335     3.598516
      3.592698     3.586879     3.581060     3.575242     3.569423     3.563605     3.557786     3.551967     3.546149     3.540330
      3.534512     3.528693     3.522874     3.517056     3.511237     3.505419     3.499600     3.493781     3.487963     3.482144
      3.476326     3.470507     3.464688     3.458870     3.453051     3.447232     3.441414     3.435595     3.429777     3.423958
      3.418139     3.412321     3.406502     3.400684     3.394865     3.389046     3.383228     3.377409     3.371591     3.365772
      3.359953     3.354135     3.348316     3.342498     3.336679     3.330860     3.325042     3.319223     3.313405     3.307586
      3.301767     3.295949     3.290130     3.284312     3.278493     3.272674     3.266856     3.261037     3.255219     3.249400
      3.243581     3.237763     3.231944     3.226125     3.220307     3.214488     3.208670     3.202851     3.197032     3.191214
      3.185395     3.179577     3.173758     3.167939     3.162121     3.156302     3.150484     3.144665     3.138846     3.133028
      3.127209     3.121391     3.115572     3.109753     3.103935     3.098116     3.092298     3.086479     3.080660     3.074842
      3.069023     3.063205     3.057386     3.051567     3.045749     3.039930     3.034111     3.028293     3.022474     3.016656
      3.010837     3.005018     2.999200     2.993381     2.987563     2.981744     2.975925     2.970107     2.964288     2.958470
      2.952651     2.946832     2.941014     2.935195     2.929377     2.923558     2.917739     2.911921     2.906102     2.900284
      2.894465     2.888646     2.882828     2.877009     2.871191     2.865372     2.859553     2.853735     2.847916     2.842098
      2.836279     2.830460     2.824642     2.818823     2.813004     2.807186     2.801367     2.795549     2.789730     2.783911
      2.778093     2.772274     2.766456     2.760637     2.754818     2.749000     2.743181     2.737363     2.731544     2.725725
      2.719907     2.714088     2.708270     2.702451     2.696632     2.690814     2.684995     2.679177     2.673358     2.667539
      2.661721     2.655902     2.650084     2.644265     2.638446     2.632628     2.626809     2.620991     2.615172     2.609353
      2.603535     2.597716     2.591897     2.586079     2.580260     2.574442     2.568623     2.562804     2.556986     2.551167
      2.545349     2.539530     2.533711     2.527893     2.522074     2.516256     2.510437     2.504618     2.498800     2.492981
      2.487163     2.481344     2.475525     2.469707     2.463888     2.458070     2.452251     2.446432     2.440614     2.434795
      2.428977     2.423158     2.417339     2.411521     2.405702     2.399884     2.394065     2.388246     2.382428     2.376609
      2.370790     2.364972     2.359153     2.353335     2.347516     2.341697     2.335879     2.330060     2.324242     2.318423
      2.312604     2.306786     2.300967     2.295149     2.289330     2.283511     2.277693     2.271874     2.266056     2.260237
      2.254418     2.248600     2.242781     2.236963     2.231144     2.225325     2.219507     2.213688     2.207870     2.202051
      2.196232     2.190414     2.184595     2.178777     2.172958     2.167139     2.161321     2.155502     2.149683     2.143865
      2.138046     2.132228     2.126409     2.120590     2.114772     2.108953     2.103135     2.097316     2.091497     2.085679
      2.079860     2.074042     2.068223     2.062404     2.056586     2.050767     2.044949     2.039130     2.033311     2.027493
      2.021674     2.015856     2.010037     2.004218     1.998400     1.992581     1.986763     1.980944     1.975126     1.969307
      1.963489     1.957670     1.951852     1.946033     1.940215     1.934397     1.928578     1.922760     1.916941     1.911123
      1.905304     1.899486     1.893667     1.887849     1.882030     1.876212     1.870393     1.864575     1.858756     1.852938
      1.847119     1.841301     1.835482     1.829664     1.823845     1.818027     1.812208     1.806390     1.800571     1.794753
      1.788934     1.783116     1.777297     1.771479     1.765660     1.759842     1.754023     1.748205     1.742386     1.736568
      1.730749     1.724931     1.719113     1.713294     1.707476     1.701657     1.695839     1.690020     1.684202     1.678383
      1.672565     1.666746     1.660928     1.655109     1.649291     1.643472     1.637654     1.631835     1.626017     1.620198
      1.614380     1.608561     1.602743     1.596924     1.591106     1.585287     1.579469     1.573650     1.567832     1.562013
      1.556195     1.550376     1.544558     1.538739     1.532921     1.527102     1.521284     1.515465     1.509647     1.503829
      1.498010     1.492192     1.486373     1.480555     1.474736     1.468918     1.463099     1.457281     1.451462     1.445644
      1.439825     1.434007     1.428188     1.422370     1.416551     1.410733     1.404914     1.399096     1.393277     1.387459
      1.381640     1.375822     1.370003     1.364185     1.358366     1.352548     1.346729     1.340911     1.335092     1.329274
      1.323455     1.317637     1.311818     1.306000     1.300182     1.294363     1.288545     1.282726     1.276908     1.271089
      1.265271     1.259452     1.253634     1.247815     1.241997     1.236178     1.230360     1.224541     1.218723     1.212904
      1.207086     1.201267     1.195449     1.189630     1.183812     1.177993     1.172175     1.166356     1.160538     1.154719
      1.148901     1.143082     1.137264     1.131445     1.125627     1.119808     1.113990     1.108171     1.102353     1.096534
      1.090716     1.084898     1.079079     1.073261     1.067442     1.061624     1.055805     1.049987     1.044168     1.038350
      1.032531     1.026713     1.020894     1.015076     1.009257     1.003439     0.997620     0.991802     0.985983     0.980165
      0.974346     0.968528     0.962709     0.956891     0.951072     0.945254     0.939435     0.933617     0.927798     0.921980
      0.916161     0.910343     0.904524     0.898706     0.892887     0.887069     0.881251     0.875432     0.869614     0.863795
      0.857977     0.852158     0.846340     0.840521     0.834703     0.828884     0.823066     0.817247     0.811429     0.805610
      0.799792     0.793973     0.788155     0.782336     0.776518     0.770699     0.764881     0.759062     0.753244     0.747425
      0.741607     0.735788     0.729970     0.724151     0.718333     0.712514     0.706696     0.700877     0.695059     0.689240
      0.683422     0.677603     0.671785     0.665967     0.660148     0.654330     0.648511     0.642693     0.636874     0.631056
      0.625237     0.619419     0.613600     0.607782     0.601963     0.596145     0.590326     0.584508     0.578689     0.572871
      0.567052     0.561234     0.555415     0.549597     0.543778     0.537960     0.532141     0.526323     0.520504     0.514686
      0.508867     0.503049     0.497230     0.491412     0.485593     0.479775     0.473956     0.468138     0.462319     0.456501
      0.450682     0.444864     0.439045     0.433227     0.427408     0.421590     0.415771     0.409953     0.404134     0.398316
      0.392497     0.386679     0.380860     0.375042     0.369223     0.363405     0.357586     0.351767     0.345949     0.340130
      0.334312     0.328493     0.322675     0.316856     0.311038     0.305219     0.299401     0.293582     0.287764     0.281945
      0.276127     0.270308     0.264490     0.258671     0.252853     0.247034     0.241216     0.235397     0.229579     0.223760
      0.217942     0.212123     0.206305     0.200486
 NY phased data points follow
  -3.69507E-01 -2.21188E-01 -1.57894E-01 -8.37543E-02 -1.98031E-02  1.76903E-03 -7.70064E-02 -1.98542E-01 -2.30477E-01  1.03714E-01
  -6.41714E-02  3.21669E-01  5.70981E-01  8.13957E-02  3.13189E-01  7.53068E-01  5.94121E-01  4.74812E-01  4.93353E-01 -1.99797E-02
   2.77613E-01  3.74636E-01  2.32077E-01  5.49125E-02 -1.18961E-01  1.02311E-01 -1.22929E-01 -1.74207E-01  8.33155E-02  1.58011E-01
  -1.25397E-01 -1.21122E-01 -3.89763E-01 -2.40193E-01 -2.39156E-01 -4.21823E-01 -3.57121E-01 -7.36401E-01 -3.19092E-01 -2.20320E-01
  -3.89905E-01  1.28095E-01  2.48028E-01  5.34286E-02  2.37740E-01  2.26205E-01  2.80063E-01  1.93048E-01  1.28396E-02  5.64124E-02
   2.41295E-02  1.23137E-01 -1.12163E-01 -2.69665E-01  1.34961E-01 -5.67923E-02 -1.77219E-01  1.52307E-01 -3.01541E-01 -8.01569E-02
  -3.13849E-02  4.66970E-02  3.79734E-02 -2.48226E-01  1.08010E-02 -1.99599E-01  1.30572E-01  1.67358E-01  1.00469E-01  2.47465E-01
   3.93215E-01  3.32400E-01  3.46548E-01  3.36032E-01  5.72542E-02  1.52696E-01 -2.16168E-01 -3.11065E-01  5.10450E-02 -2.58157E-01
  -5.37680E-01 -2.52373E-02 -1.82696E-01 -3.02388E-02  4.57951E-01  5.91767E-01  6.35379E-01  4.49588E-01  1.67335E-01  2.16797E-02
   1.44640E-01  3.15907E-02  4.10204E-01  2.46360E-01  2.28649E-01  1.22714E-01  1.13534E-01 -3.16258E-02 -5.05702E-01 -2.20859E-01
  -5.79216E-01 -2.71517E-01 -2.50999E-01  2.52685E-02  3.05541E-01 -2.89228E-02  4.68745E-01  3.77246E-01  5.49575E-01  5.18145E-01
   2.25345E-01  6.39906E-01  3.29464E-01  1.76645E-01  1.42421E-01 -2.72339E-02  4.42509E-01  1.19129E-01  1.51880E-01  3.53899E-01
   9.97758E-02  3.49725E-01  5.34870E-02 -6.61009E-02 -1.05066E-01 -2.31339E-01 -1.00526E-01 -1.82399E-01 -1.97723E-01 -8.42819E-01
  -8.53958E-01 -4.60811E-01 -6.72315E-01 -5.50786E-01 -5.83383E-01 -6.41079E-01 -1.09836E+00 -1.19407E+00 -7.45333E-01 -2.41211E-01
  -3.01542E-01 -3.70439E-01 -1.00179E-01 -1.47856E-01  2.23613E-01  2.71764E-02  1.62003E-01  1.22678E-01  6.49308E-02  1.04220E-01
  -5.54703E-02  1.27970E-01 -3.72594E-02  6.97056E-02  2.36599E-01  3.94276E-01  5.90760E-02  6.51868E-02  3.66738E-01  3.54411E-01
   2.93024E-01  4.77110E-01  4.36506E-01  7.31814E-01  9.50904E-01  6.37201E-01  1.21627E+00  4.21635E-01 -7.95246E-01 -1.20419E+00
  -1.06092E+00 -6.34130E-01 -3.60916E-01 -4.74099E-01 -6.11112E-01 -4.72445E-01 -4.13139E-01 -5.08123E-02 -4.58939E-01 -3.53853E-01
  -4.28834E-01 -4.88360E-01 -3.33400E-01 -3.72531E-01 -1.17215E-02 -3.19023E-01 -2.58658E-01 -1.55179E-01 -2.87091E-01 -4.32613E-01
  -3.67781E-01 -1.79434E-01 -2.06774E-01 -3.30531E-01 -3.46424E-01 -1.76280E-01  1.97116E-02 -4.87345E-02  2.05086E-02  1.07756E-01
  -3.61602E-01 -2.59806E-01 -3.46374E-01 -3.16225E-02  6.51545E-02 -3.94328E-01 -1.65362E-01 -9.47439E-02  7.03858E-02 -1.18777E-01
  -1.32081E-03  9.39741E-03 -1.07536E-02  3.35496E-01 -4.94884E-02 -1.32396E-01  3.63241E-02  2.55338E-02 -1.72215E-01 -1.71715E-01
   7.28602E-02  6.81584E-02  3.30356E-01  3.25713E-01  7.92308E-02  4.11817E-01  5.60869E-01  5.29999E-01  3.17287E-01 -3.01813E-02
   4.06427E-01  5.48269E-01  1.08614E-01  2.83724E-01  1.55540E-01 -3.60617E-01 -1.36202E-02  1.77822E-02 -4.38610E-02  9.76530E-02
  -2.29050E-02 -1.25269E-01 -9.21204E-02  1.96284E-01 -5.62796E-02  8.57801E-02  3.58184E-03  1.69377E-01  1.59521E-01 -3.99784E-02
   3.30746E-01 -1.67334E-01 -7.40377E-02 -1.46091E-01 -7.55743E-02 -3.29670E-01 -3.86039E-02  2.47253E-01 -2.53907E-01  1.81444E-01
  -1.43947E-01  1.24893E-01  7.01226E-02 -1.88422E-01  2.94229E-02 -3.29042E-02 -6.91037E-02  1.09936E-01  1.85751E-01  5.39434E-02
   7.59695E-02 -1.18843E-01  2.47924E-02 -1.50295E-01  1.97561E-01  7.87919E-02 -1.03204E-02  1.72778E-01 -3.15605E-01 -1.38803E-01
  -5.31897E-02 -3.12230E-01 -2.77593E-01 -5.82799E-02 -2.09703E-01  2.66143E-01  2.77692E-01  4.75762E-01  6.96356E-01  2.17278E-01
   4.38838E-01  3.87724E-02 -9.04245E-02  2.17619E-01 -4.42956E-02 -1.64477E-02  2.86413E-01  1.26450E-01  3.12080E-02  1.72360E-01
   2.46773E-01  8.78394E-02  1.77031E-01  3.75006E-01  4.25757E-01  3.48561E-01  6.53053E-02  1.39651E-01  3.35934E-01  5.08704E-01
   2.75474E-01  1.09444E-01  1.74187E-01  4.71823E-01  2.78847E-01  3.24270E-01  4.41500E-01 -2.28794E-01 -2.67195E-01 -1.03714E-01
   8.79392E-02 -1.42272E-01 -9.90723E-02 -2.76616E-01 -3.61772E-01  1.78279E-02 -2.26095E-01 -8.84367E-02 -2.85026E-02 -1.29937E-01
   3.84832E-02  7.57028E-02  1.63415E-01  2.26914E-01 -2.39045E-01 -3.54145E-01 -1.87747E-01 -5.80536E-01 -5.17084E-01 -4.70517E-02
  -4.12628E-01 -5.32119E-02 -1.30988E+00 -2.59576E+00 -9.12563E-01 -5.11786E-01 -6.62740E-02 -1.24242E-01 -1.07779E-01  3.17387E-01
   2.01747E-01  2.58895E-01  1.54387E-01  4.80599E-01 -1.64986E-01  5.99566E-02  2.98258E-01  4.12987E-02  3.59796E-01  4.30118E-01
   1.77712E-01 -1.50007E-01  8.63570E-02  1.58781E-02 -1.76937E-01  6.95099E-02  1.66349E-01 -2.11243E-02 -9.07557E-02 -2.22846E-01
  -9.88135E-04 -7.02233E-02  1.18881E-01  4.52762E-01  5.48212E-02  7.23930E-02  1.22970E-01  4.78768E-02  2.36538E-02  3.81425E-03
   1.04599E-01  1.42765E-01  5.17127E-02  2.40453E-01  1.90136E-01  2.14293E-01  3.83305E-01  4.55107E-01  2.33494E-01  1.15751E-01
   4.03722E-01  1.04301E-01  2.74942E-01  2.50897E-01 -4.03863E-02  1.90377E-01  1.42377E-01  3.65352E-03  1.88749E-01  4.09045E-02
   5.69337E-02  2.21532E-01 -1.73174E-01 -6.42699E-02 -1.85159E-01 -2.43547E-01  7.34045E-02 -1.94963E-01  1.48910E-03  1.06069E-01
  -2.56423E-01 -2.27233E-01 -5.74407E-01 -2.66550E-01 -2.00070E-02 -7.50334E-02  2.99951E-02 -2.02317E-01 -2.93940E-01 -5.05093E-01
  -1.80434E-01 -3.89597E-01 -2.72372E-01 -1.97284E-01 -4.31384E-01 -4.03412E-01 -2.62872E-01  1.96223E-01  1.46385E-01 -2.32264E-02
  -1.50274E-01 -2.01610E-03 -4.47414E-01 -8.11556E-02  8.89104E-02  5.54593E-02  1.72466E-01 -1.39534E-01 -1.07656E-01 -3.33180E-02
   2.80529E-01 -9.40316E-02  1.22986E-01 -2.83082E-01 -2.39323E-01  2.68745E-02 -6.71786E-02  9.75598E-02  1.60901E-01  2.21608E-01
  -3.31202E-01  4.32421E-01  1.26051E-01 -1.09077E-01  9.16542E-02 -3.01788E-02 -1.00467E-01 -1.74850E-01 -8.45045E-03 -4.24474E-01
   3.43137E-01  1.54574E-01  1.00503E-01  4.26012E-01 -1.50927E-01 -1.42457E-01  1.55122E-01  1.11103E-01 -3.16333E-01  1.98820E-01
   2.24086E-01 -2.54890E-02  3.18885E-01  3.15375E-01  1.22583E-01 -3.13388E-01 -2.96626E-01  1.10473E-01  5.78847E-02  1.61569E-01
   2.34200E-01 -3.39838E-01 -2.88442E-01  1.59508E-01  1.97213E-01 -4.62742E-02 -1.09671E-01  2.53939E-01  8.58408E-02  2.24990E-02
   7.70421E-02 -5.51481E-03  1.20664E-01 -3.60124E-02 -9.87058E-03  1.37613E-01  1.31428E-01 -4.43552E-02 -1.63834E-01  1.96833E-01
   3.70977E-02 -7.48109E-02  3.91282E-01 -2.29198E-01 -6.14251E-02  9.99117E-02 -3.00871E-01  2.27259E-01  1.51919E-03  3.14352E-02
   8.92123E-02  3.49995E-01  2.25315E-01 -1.29077E-01  2.89161E-01  2.23778E-01  1.51095E-01  1.88687E-01 -1.12713E-02 -9.71609E-02
   5.01936E-01 -1.41306E-01 -4.24592E-01 -5.79916E-02 -4.00991E-01 -2.70428E-01 -1.95895E-01 -2.33683E-01 -4.39020E-01 -1.03432E-01
  -4.34341E-01 -7.45090E-01 -3.17112E-01 -1.20977E-01 -5.16054E-02  6.53982E-02  9.44261E-02 -3.69524E-01 -3.23060E-01 -3.38943E-01
  -3.33918E-01 -2.81060E-01 -1.14596E-01 -2.79142E-02 -5.20303E-02 -2.59292E-02 -2.74958E-01 -1.50318E-02  8.79814E-02  1.44491E-01
   2.08251E-01  1.99183E-01  1.48815E-01  2.12931E-01  6.02721E-02 -1.32964E-01  4.50457E-02  1.37800E-01  3.87084E-01  6.88681E-02
   1.10634E-02  1.74804E-01  1.46219E-01 -8.91384E-02  1.90036E-01  5.23071E-01 -3.32806E-02  1.67487E-01  1.21121E-01  8.20022E-02
  -4.03291E-03  8.08467E-02  1.32506E-01 -2.26239E-01  3.62685E-01  2.52829E-01 -4.57736E-02  1.63886E-01  2.86524E-02  1.88979E-01
   2.47202E-01 -6.89654E-02 -5.18561E-02 -2.32096E-01  1.36123E-01  6.54611E-02 -1.53563E-01  2.42684E-01  2.08003E-02  2.98598E-01
   1.84687E-01  2.93871E-01  2.38315E-01 -2.90475E-03  1.81717E-01  5.24773E-02  1.02866E-01  2.42781E-01  2.33134E-01 -6.48162E-02
   2.42753E-01  5.90543E-02 -3.00466E-01 -1.00815E-01  4.64149E-02 -7.59149E-02 -1.47796E-01  6.63100E-02  1.18919E-01  2.15411E-01
   1.09410E-01 -1.47294E-01 -1.09793E-01  8.34173E-02 -5.84588E-02  1.04735E-02 -9.83394E-02 -1.01140E-01  1.40267E-01  2.27088E-01
  -4.71308E-02  8.66157E-03  3.07038E-01 -8.83520E-02  2.80048E-01  1.73308E-01 -1.81207E-01  1.66282E-01  2.10354E-01  1.84429E-02
   1.68940E-01  1.42251E-01 -2.77818E-02  2.15198E-01  1.36124E-02  1.35520E-02  1.97092E-01 -2.02575E-01 -7.55555E-02  2.95906E-01
  -2.96002E-01 -1.18619E-01 -1.33900E-01 -1.16951E-01  4.85629E-01  3.49265E-02 -5.63996E-02  6.99387E-02  1.58180E-02 -1.59100E-01
  -1.19686E-01  5.31715E-02  1.24966E-01  1.18714E-01
 NY points of the fit to the data follow
   3.06891E-02  2.02972E-02  3.98875E-03 -1.28053E-02 -1.62390E-02 -1.19709E-02  6.64649E-03  2.82848E-02 -8.42029E-03  9.02935E-02
   3.28625E-02  2.23708E-01  5.21963E-01  3.13787E-01  2.78170E-01  7.17263E-01  7.90184E-01  4.95581E-01  3.00336E-01  1.38460E-01
   1.45535E-01  1.42742E-01  6.70983E-02  1.35579E-02 -1.50836E-02 -3.68118E-02 -6.04700E-02 -7.90142E-02 -8.68842E-02 -1.09684E-01
  -1.13911E-01 -1.16891E-01 -1.33891E-01 -1.55443E-01 -1.84219E-01 -2.17834E-01 -2.23824E-01 -2.79163E-01 -2.41820E-01 -2.46640E-01
  -1.96622E-01  4.49106E-02  7.45178E-02  1.59669E-01  2.46284E-01  2.14250E-01  2.80656E-01  2.15789E-01  1.28201E-01  1.31987E-01
   7.42534E-02  2.94862E-02  1.19461E-02 -3.09187E-02 -6.19966E-02 -9.30512E-02 -1.52205E-01 -2.03306E-01 -1.51985E-01 -9.20014E-02
  -1.21264E-01 -1.23214E-01 -3.11209E-01 -2.20430E-01 -1.23618E-01 -3.25246E-01  7.05648E-02  1.78932E-01  1.19056E-01  3.76947E-01
   3.45828E-01  3.02213E-01  2.47797E-01  1.51471E-01  1.05157E-01  4.39529E-02 -6.90660E-03 -1.41039E-01 -1.68295E-01 -3.30599E-01
  -6.18305E-01 -2.38236E-01  1.60668E-02 -4.55804E-02  2.04781E-01  3.40231E-01  3.51247E-01  3.32796E-01  2.66215E-01  2.16074E-01
   1.99797E-01  1.91050E-01  1.53630E-01  1.20246E-01  9.56223E-02 -2.88152E-02 -2.36991E-03 -3.29235E-01 -3.34338E-01 -5.16990E-01
  -5.70848E-01 -2.02787E-01 -1.28911E-01  2.07907E-01  2.67019E-01  2.50757E-01  2.77315E-01  2.47130E-01  2.56760E-01  2.61101E-01
   2.58396E-01  2.61354E-01  2.59865E-01  2.57537E-01  2.56017E-01  2.55569E-01  2.57150E-01  2.59819E-01  2.55267E-01  2.62615E-01
   2.14109E-01  2.59468E-01  1.47767E-01  2.97084E-03  1.52280E-01 -1.40121E-01 -2.56761E-02 -2.40283E-01 -3.48218E-01 -5.10188E-01
  -7.85405E-01 -4.90477E-01 -6.12265E-01 -2.53423E-01 -3.01381E-01 -7.74497E-01 -1.16961E+00 -1.20220E+00 -6.85585E-01 -3.64191E-01
  -1.88092E-01 -1.30269E-01 -1.08855E-01 -5.21661E-02 -1.42621E-02  1.91392E-02  4.75862E-02  7.17240E-02  9.59552E-02  1.13349E-01
   1.31670E-01  1.50148E-01  1.68476E-01  1.85065E-01  2.05018E-01  2.28378E-01  2.50960E-01  2.80452E-01  3.14162E-01  3.47634E-01
   3.93407E-01  4.63762E-01  5.32028E-01  6.22158E-01  7.87551E-01  6.33484E-01  1.15210E+00  4.37445E-01 -1.03982E+00 -1.13527E+00
  -9.75531E-01 -6.18914E-01 -4.57678E-01 -4.78678E-01 -4.70825E-01 -4.41188E-01 -3.85309E-01 -3.47733E-01 -3.15393E-01 -2.94240E-01
  -3.02950E-01 -2.66837E-01 -2.46123E-01 -2.38273E-01 -2.18386E-01 -2.20259E-01 -2.10975E-01 -1.98543E-01 -1.83694E-01 -1.74380E-01
  -1.68093E-01 -1.57308E-01 -1.45371E-01 -1.35670E-01 -1.23343E-01 -1.13470E-01 -1.05003E-01 -9.36011E-02 -8.41655E-02 -7.05750E-02
  -6.27280E-02 -4.89629E-02 -2.65397E-02 -1.70446E-02 -2.76036E-02 -4.53526E-02 -3.99548E-02 -1.11722E-02  8.15061E-03 -1.90175E-02
  -5.44112E-02 -6.47303E-02 -5.67541E-02 -4.80414E-02 -3.88567E-02 -3.33265E-02 -2.48875E-02 -3.78646E-03 -7.14201E-03 -1.98626E-02
  -1.57492E-02 -1.08620E-02  4.20429E-02  4.93616E-02  6.90331E-02  2.08156E-01  2.57684E-01  2.68348E-01  1.72503E-01  1.43130E-01
   4.03131E-01  3.95874E-01  2.06804E-01  1.01755E-01 -3.16017E-03 -1.52542E-02 -1.62729E-02 -3.55378E-02 -4.20216E-02 -5.20268E-02
  -6.25813E-02 -7.07027E-02 -7.73389E-02 -7.93490E-02 -8.41166E-02 -8.26700E-02 -9.63976E-02 -8.95105E-02 -9.58270E-02 -9.53441E-02
  -9.03360E-02 -9.54485E-02 -8.45416E-02 -1.31747E-01 -9.14045E-02 -1.43543E-01 -1.24039E-01  1.04913E-01 -4.08667E-02  2.93697E-02
   1.19586E-01  7.43305E-02  2.01087E-01  3.02631E-02  9.31620E-02  1.43176E-01  9.92508E-02  1.43923E-01  8.91462E-02  1.26212E-01
   1.12049E-01  8.98290E-02  6.52319E-02  2.30629E-02 -4.41999E-04 -3.05290E-02 -6.21753E-02 -9.68952E-02 -1.33412E-01 -1.96509E-01
  -2.12341E-01 -3.16757E-01 -3.50884E-01 -2.93927E-01 -2.85593E-01  8.11060E-03  1.83955E-01  2.74031E-01  4.18977E-01  3.21565E-01
   2.72720E-01  2.09244E-01  1.37465E-01  1.61715E-01  1.14750E-01  1.54858E-01  1.92334E-01  1.93787E-01  2.40889E-01  2.25880E-01
   2.18460E-01  2.13414E-01  1.99145E-01  1.94166E-01  1.89570E-01  1.80904E-01  1.67269E-01  1.55504E-01  1.43172E-01  9.62464E-02
   9.56354E-02  5.64866E-02  3.44371E-02  5.97118E-02  2.00170E-02  3.24255E-02 -3.10158E-03 -6.14059E-02 -1.16099E-01 -1.79989E-01
  -1.84848E-01 -2.35955E-01 -2.07069E-01 -2.10816E-01 -1.73942E-01 -1.17601E-01 -7.76316E-02  1.04196E-02  2.80831E-02  1.00173E-01
   4.43306E-02  3.37986E-02 -2.73611E-02 -9.30389E-02 -1.50099E-01 -1.34525E-01 -2.57736E-01 -4.31930E-01 -2.56393E-01 -1.20356E-01
  -5.07513E-01 -5.68797E-02 -1.35481E+00 -2.39948E+00 -1.13750E+00 -6.52465E-01 -1.45110E-01 -3.60525E-02 -1.62984E-01 -6.97717E-02
  -3.29722E-02 -1.05391E-02  9.70642E-03  2.23912E-02  3.20048E-02  4.18940E-02  4.94370E-02  5.89089E-02  4.31575E-02  5.92197E-02
   8.26141E-03  2.34692E-03 -2.59082E-02 -7.11124E-02 -5.71213E-02 -8.15154E-02 -5.40521E-02 -3.68108E-02 -2.27600E-02 -4.85962E-03
   5.76162E-03  1.71145E-02  2.88126E-02  4.06390E-02  4.40571E-02  4.94956E-02  5.37731E-02  5.84819E-02  6.44726E-02  6.96782E-02
   7.14872E-02  7.43128E-02  7.87384E-02  8.08199E-02  8.73626E-02  8.80937E-02  9.08058E-02  8.95095E-02  9.28273E-02  9.77141E-02
   1.00351E-01  1.06655E-01  1.07215E-01  1.07823E-01  1.05204E-01  1.00509E-01  9.85330E-02  9.66151E-02  9.35077E-02  8.91728E-02
   8.30238E-02  7.45393E-02  6.97365E-02  6.17407E-02  5.20136E-02  4.51785E-02  3.97783E-02  3.57430E-02  2.60420E-02  2.11282E-02
   1.58919E-02  9.49556E-03  7.51905E-03  3.22394E-03 -1.01877E-03 -3.23372E-03 -7.50930E-03 -1.09315E-02 -1.32876E-02 -1.66767E-02
  -1.66609E-02 -1.88627E-02 -2.21595E-02 -1.91795E-02 -1.78000E-02 -1.60958E-02 -1.26073E-02 -7.75317E-03 -3.87959E-03  1.14015E-03
   8.85165E-03  9.01271E-03  9.08951E-03  1.15479E-02  1.75613E-02  2.69896E-02  3.57591E-02  4.24007E-02  4.87210E-02  5.53709E-02
   6.61028E-02  7.82992E-02  8.80006E-02  1.01677E-01  1.11704E-01  1.21659E-01  1.34863E-01  1.44239E-01  1.51680E-01  1.56120E-01
   1.57517E-01  1.55270E-01  1.54698E-01  1.50660E-01  1.45020E-01  1.39472E-01  1.36106E-01  1.09410E-01  1.50493E-01  7.12285E-02
   1.96421E-01  2.67613E-01  2.55314E-01  3.46083E-01  2.10576E-01  1.51008E-01  1.15421E-01  8.26045E-02  8.34707E-02  6.83907E-02
   5.87783E-02  5.14871E-02  4.53338E-02  3.95438E-02  3.51366E-02  3.70165E-02  3.85198E-02  3.88219E-02  4.24678E-02  4.56708E-02
   4.95246E-02  5.36066E-02  6.05370E-02  6.61249E-02  6.92142E-02  7.20071E-02  7.38323E-02  7.51453E-02  7.48520E-02  7.95054E-02
   8.41596E-02  8.22396E-02  8.30020E-02  7.86247E-02  7.57000E-02  7.63891E-02  6.93654E-02  6.52900E-02  6.19733E-02  5.95109E-02
   5.64789E-02  5.14543E-02  4.77773E-02  4.37531E-02  4.01370E-02  3.58366E-02  3.07490E-02  2.54435E-02  2.34197E-02  2.25305E-02
   1.87378E-02  1.35571E-02  9.31423E-03  4.72814E-03 -2.83673E-03 -1.15875E-02 -2.01597E-02 -2.86644E-02 -3.66622E-02 -5.02691E-02
  -6.41535E-02 -8.34730E-02 -1.03963E-01 -1.19240E-01 -1.36404E-01 -1.53539E-01 -1.68721E-01 -1.81788E-01 -1.93129E-01 -2.03432E-01
  -2.14163E-01 -2.16643E-01 -2.13082E-01 -2.12672E-01 -2.11705E-01 -2.05588E-01 -1.96838E-01 -1.87491E-01 -1.80250E-01 -1.73671E-01
  -1.66808E-01 -1.61516E-01 -1.49802E-01 -1.39511E-01 -1.30606E-01 -1.17415E-01 -1.06947E-01 -9.38961E-02 -8.45979E-02 -7.29421E-02
  -6.26490E-02 -5.55651E-02 -4.29340E-02 -3.34953E-02 -2.72285E-02 -2.02679E-02 -1.50338E-02 -5.01744E-03  3.73790E-03  2.06126E-03
   7.93420E-03  1.37624E-02  1.58237E-02  2.10655E-02  2.17874E-02  2.31750E-02  2.53044E-02  2.74179E-02  2.95185E-02  2.73117E-02
   2.94542E-02  3.37148E-02  3.45259E-02  3.72462E-02  4.04109E-02  4.21566E-02  4.04329E-02  4.08695E-02  4.25695E-02  3.99496E-02
   4.13156E-02  4.27250E-02  3.94753E-02  4.08013E-02  4.21476E-02  4.02001E-02  4.17490E-02  4.22103E-02  4.32421E-02  4.63660E-02
   4.10534E-02  3.41168E-02  3.65712E-02  3.93237E-02  4.05279E-02  3.86758E-02  3.85172E-02  4.12538E-02  3.73779E-02  3.55512E-02
   3.55504E-02  3.82968E-02  4.12713E-02  4.10463E-02  4.17943E-02  4.23434E-02  4.41715E-02  4.69377E-02  4.57578E-02  4.72331E-02
   4.80629E-02  4.99528E-02  4.82993E-02  4.42620E-02  4.66814E-02  4.74308E-02  4.91723E-02  5.19027E-02  5.21854E-02  5.43155E-02
   5.47605E-02  5.21481E-02  5.83015E-02  6.19841E-02  6.34745E-02  6.57652E-02  6.05649E-02  5.93017E-02  5.99503E-02  6.23540E-02
   6.62534E-02  6.44534E-02  6.29940E-02  6.35878E-02  6.40163E-02  6.58798E-02  6.89221E-02  6.61818E-02  6.53703E-02  7.14209E-02
   7.40329E-02  7.30384E-02  7.45291E-02  7.54966E-02  7.76844E-02  8.08521E-02  8.11383E-02  8.44304E-02  9.24474E-02  9.71289E-02
   1.00674E-01  1.01884E-01  1.05652E-01  1.07617E-01
 NY background values follow
    -1.445E-03   -1.101E-03   -7.564E-04   -4.124E-04   -6.826E-05    2.758E-04    6.199E-04    9.639E-04    1.308E-03    1.652E-03
     1.996E-03    2.339E-03    2.683E-03    3.026E-03    3.369E-03    3.712E-03    4.055E-03    4.398E-03    4.740E-03    5.083E-03
     5.424E-03    5.766E-03    6.107E-03    6.448E-03    6.789E-03    7.129E-03    7.469E-03    7.809E-03    8.148E-03    8.486E-03
     8.825E-03    9.162E-03    9.500E-03    9.837E-03    1.017E-02    1.051E-02    1.084E-02    1.118E-02    1.151E-02    1.185E-02
     1.218E-02    1.251E-02    1.284E-02    1.317E-02    1.350E-02    1.383E-02    1.416E-02    1.449E-02    1.482E-02    1.514E-02
     1.547E-02    1.579E-02    1.612E-02    1.644E-02    1.676E-02    1.708E-02    1.741E-02    1.772E-02    1.804E-02    1.836E-02
     1.868E-02    1.899E-02    1.931E-02    1.962E-02    1.993E-02    2.024E-02    2.055E-02    2.086E-02    2.117E-02    2.148E-02
