 LCModel (Version 6.3-1N) Copyright: S.W. Provencher.          Ref.: Magn. Reson. Med. 30:672-679 (1993).                
 Slice_N1@13_11  02-Jun-2023 14:36:31
 27 lines in following concentration table = NCONC+1
    Conc.  %SD /Cr+PCr  Metabolite                                         
 1.36E-06  27% 1.3E-04 Mac                                                 
 6.43E-02  28%   6.169 Cr                                                  
 1.91E-02 100%   1.831 PCr                                                 
 9.35E-02  12%   8.977 Ins                                                 
 9.53E-02   9%   9.149 NAA                                                 
 7.20E-02  14%   6.912 Tau                                                 
 1.70E-02  16%   1.631 PCho                                                
    0.000 999%   0.000 GPC                                                 
 8.66E-02  13%   8.312 Glu                                                 
 3.24E-02  26%   3.110 Gln                                                 
    0.000 999%   0.000 Ala                                                 
 1.10E-02 137%   1.061 Asc                                                 
 7.82E-03 101%   0.751 Asp                                                 
 6.92E-03  63%   0.664 GABA                                                
 7.85E-03  64%   0.753 Glc                                                 
 1.08E-02  45%   1.037 GSH                                                 
    0.000 999%   0.000 Lac                                                 
 7.10E-03  93%   0.681 NAAG                                                
    0.000 999%   0.000 PE                                                  
 1.70E-02  16%   1.631 GPC+PCho                                            
    0.102   9%   9.830 NAA+NAAG                                            
    0.119  12%  11.422 Glu+Gln                                             
 8.33E-02   9%   8.000 Cr+PCr                                              
    0.102   9%   9.830 NAA+NAAG                                            
 8.33E-02   9%   8.000 Cr+PCr                                              
    0.119  12%  11.422 Glu+Gln                                             
   6 lines in following misc. output table
  FWHM = 0.047 ppm    S/N =   3                                            
  Data shift = 0.006 ppm                                                   
  Ph: -78 deg      -5.0 deg/ppm                                            
  alphaB,S = 4.2E+00,   7.5E+01                                            
   18 spline knots.   Ns = 8(1)                                            
  ( 4) 4 infls.   ( 2) 1 extrs.                                            
  654 points on ppm-axis = NY
      4.000000     3.994181     3.988363     3.982544     3.976726     3.970907     3.965088     3.959270     3.953451     3.947633
      3.941814     3.935995     3.930177     3.924358     3.918540     3.912721     3.906902     3.901084     3.895265     3.889446
      3.883628     3.877809     3.871991     3.866172     3.860353     3.854535     3.848716     3.842898     3.837079     3.831260
      3.825442     3.819623     3.813805     3.807986     3.802167     3.796349     3.790530     3.784712     3.778893     3.773074
      3.767256     3.761437     3.755619     3.749800     3.743981     3.738163     3.732344     3.726526     3.720707     3.714888
      3.709070     3.703251     3.697433     3.691614     3.685795     3.679977     3.674158     3.668339     3.662521     3.656702
      3.650884     3.645065     3.639246     3.633428     3.627609     3.621791     3.615972     3.610153     3.604335     3.598516
      3.592698     3.586879     3.581060     3.575242     3.569423     3.563605     3.557786     3.551967     3.546149     3.540330
      3.534512     3.528693     3.522874     3.517056     3.511237     3.505419     3.499600     3.493781     3.487963     3.482144
      3.476326     3.470507     3.464688     3.458870     3.453051     3.447232     3.441414     3.435595     3.429777     3.423958
      3.418139     3.412321     3.406502     3.400684     3.394865     3.389046     3.383228     3.377409     3.371591     3.365772
      3.359953     3.354135     3.348316     3.342498     3.336679     3.330860     3.325042     3.319223     3.313405     3.307586
      3.301767     3.295949     3.290130     3.284312     3.278493     3.272674     3.266856     3.261037     3.255219     3.249400
      3.243581     3.237763     3.231944     3.226125     3.220307     3.214488     3.208670     3.202851     3.197032     3.191214
      3.185395     3.179577     3.173758     3.167939     3.162121     3.156302     3.150484     3.144665     3.138846     3.133028
      3.127209     3.121391     3.115572     3.109753     3.103935     3.098116     3.092298     3.086479     3.080660     3.074842
      3.069023     3.063205     3.057386     3.051567     3.045749     3.039930     3.034111     3.028293     3.022474     3.016656
      3.010837     3.005018     2.999200     2.993381     2.987563     2.981744     2.975925     2.970107     2.964288     2.958470
      2.952651     2.946832     2.941014     2.935195     2.929377     2.923558     2.917739     2.911921     2.906102     2.900284
      2.894465     2.888646     2.882828     2.877009     2.871191     2.865372     2.859553     2.853735     2.847916     2.842098
      2.836279     2.830460     2.824642     2.818823     2.813004     2.807186     2.801367     2.795549     2.789730     2.783911
      2.778093     2.772274     2.766456     2.760637     2.754818     2.749000     2.743181     2.737363     2.731544     2.725725
      2.719907     2.714088     2.708270     2.702451     2.696632     2.690814     2.684995     2.679177     2.673358     2.667539
      2.661721     2.655902     2.650084     2.644265     2.638446     2.632628     2.626809     2.620991     2.615172     2.609353
      2.603535     2.597716     2.591897     2.586079     2.580260     2.574442     2.568623     2.562804     2.556986     2.551167
      2.545349     2.539530     2.533711     2.527893     2.522074     2.516256     2.510437     2.504618     2.498800     2.492981
      2.487163     2.481344     2.475525     2.469707     2.463888     2.458070     2.452251     2.446432     2.440614     2.434795
      2.428977     2.423158     2.417339     2.411521     2.405702     2.399884     2.394065     2.388246     2.382428     2.376609
      2.370790     2.364972     2.359153     2.353335     2.347516     2.341697     2.335879     2.330060     2.324242     2.318423
      2.312604     2.306786     2.300967     2.295149     2.289330     2.283511     2.277693     2.271874     2.266056     2.260237
      2.254418     2.248600     2.242781     2.236963     2.231144     2.225325     2.219507     2.213688     2.207870     2.202051
      2.196232     2.190414     2.184595     2.178777     2.172958     2.167139     2.161321     2.155502     2.149683     2.143865
      2.138046     2.132228     2.126409     2.120590     2.114772     2.108953     2.103135     2.097316     2.091497     2.085679
      2.079860     2.074042     2.068223     2.062404     2.056586     2.050767     2.044949     2.039130     2.033311     2.027493
      2.021674     2.015856     2.010037     2.004218     1.998400     1.992581     1.986763     1.980944     1.975126     1.969307
      1.963489     1.957670     1.951852     1.946033     1.940215     1.934397     1.928578     1.922760     1.916941     1.911123
      1.905304     1.899486     1.893667     1.887849     1.882030     1.876212     1.870393     1.864575     1.858756     1.852938
      1.847119     1.841301     1.835482     1.829664     1.823845     1.818027     1.812208     1.806390     1.800571     1.794753
      1.788934     1.783116     1.777297     1.771479     1.765660     1.759842     1.754023     1.748205     1.742386     1.736568
      1.730749     1.724931     1.719113     1.713294     1.707476     1.701657     1.695839     1.690020     1.684202     1.678383
      1.672565     1.666746     1.660928     1.655109     1.649291     1.643472     1.637654     1.631835     1.626017     1.620198
      1.614380     1.608561     1.602743     1.596924     1.591106     1.585287     1.579469     1.573650     1.567832     1.562013
      1.556195     1.550376     1.544558     1.538739     1.532921     1.527102     1.521284     1.515465     1.509647     1.503829
      1.498010     1.492192     1.486373     1.480555     1.474736     1.468918     1.463099     1.457281     1.451462     1.445644
      1.439825     1.434007     1.428188     1.422370     1.416551     1.410733     1.404914     1.399096     1.393277     1.387459
      1.381640     1.375822     1.370003     1.364185     1.358366     1.352548     1.346729     1.340911     1.335092     1.329274
      1.323455     1.317637     1.311818     1.306000     1.300182     1.294363     1.288545     1.282726     1.276908     1.271089
      1.265271     1.259452     1.253634     1.247815     1.241997     1.236178     1.230360     1.224541     1.218723     1.212904
      1.207086     1.201267     1.195449     1.189630     1.183812     1.177993     1.172175     1.166356     1.160538     1.154719
      1.148901     1.143082     1.137264     1.131445     1.125627     1.119808     1.113990     1.108171     1.102353     1.096534
      1.090716     1.084898     1.079079     1.073261     1.067442     1.061624     1.055805     1.049987     1.044168     1.038350
      1.032531     1.026713     1.020894     1.015076     1.009257     1.003439     0.997620     0.991802     0.985983     0.980165
      0.974346     0.968528     0.962709     0.956891     0.951072     0.945254     0.939435     0.933617     0.927798     0.921980
      0.916161     0.910343     0.904524     0.898706     0.892887     0.887069     0.881251     0.875432     0.869614     0.863795
      0.857977     0.852158     0.846340     0.840521     0.834703     0.828884     0.823066     0.817247     0.811429     0.805610
      0.799792     0.793973     0.788155     0.782336     0.776518     0.770699     0.764881     0.759062     0.753244     0.747425
      0.741607     0.735788     0.729970     0.724151     0.718333     0.712514     0.706696     0.700877     0.695059     0.689240
      0.683422     0.677603     0.671785     0.665967     0.660148     0.654330     0.648511     0.642693     0.636874     0.631056
      0.625237     0.619419     0.613600     0.607782     0.601963     0.596145     0.590326     0.584508     0.578689     0.572871
      0.567052     0.561234     0.555415     0.549597     0.543778     0.537960     0.532141     0.526323     0.520504     0.514686
      0.508867     0.503049     0.497230     0.491412     0.485593     0.479775     0.473956     0.468138     0.462319     0.456501
      0.450682     0.444864     0.439045     0.433227     0.427408     0.421590     0.415771     0.409953     0.404134     0.398316
      0.392497     0.386679     0.380860     0.375042     0.369223     0.363405     0.357586     0.351767     0.345949     0.340130
      0.334312     0.328493     0.322675     0.316856     0.311038     0.305219     0.299401     0.293582     0.287764     0.281945
      0.276127     0.270308     0.264490     0.258671     0.252853     0.247034     0.241216     0.235397     0.229579     0.223760
      0.217942     0.212123     0.206305     0.200486
 NY phased data points follow
  -3.83709E-01 -1.32761E-01 -1.02487E-01 -2.10079E-01 -4.44510E-02  2.18130E-01  2.87355E-01  9.18688E-02  2.29939E-01  6.13176E-03
   2.14056E-01  6.11925E-01  2.86889E-01  8.84588E-02 -4.74469E-02  4.27433E-01  3.80317E-01  2.47177E-01  2.94682E-01  2.75622E-01
   2.08823E-01  1.69459E-02 -6.49426E-02 -2.11366E-01 -2.19806E-01 -2.07872E-01 -1.52341E-01 -3.73148E-01 -1.20827E-01 -1.22747E-01
  -2.48620E-01 -2.22218E-01  4.50237E-02  3.41610E-02 -2.12960E-01 -4.28792E-01 -6.60951E-01  3.10212E-02 -1.48739E-01  2.02280E-02
   1.65114E-01  1.88860E-01  3.02584E-01  2.11670E-02  3.43978E-01  5.37693E-01  5.59012E-01  2.95157E-01  4.54975E-01  2.70466E-01
  -1.27813E-01 -2.53176E-01 -4.55596E-02  6.93574E-02  5.27175E-02  1.97647E-01 -7.89252E-02 -4.06262E-01 -4.96436E-01  1.78935E-02
  -3.60763E-01 -6.36567E-01 -3.21898E-01 -2.01185E-01 -1.38216E-01 -2.59874E-01 -1.30740E-02 -9.87857E-02  3.03448E-01  6.19310E-01
   1.12987E-01  2.21627E-01  2.17728E-01 -7.79338E-02  9.25048E-02 -9.36031E-02 -2.31843E-01 -9.91087E-03  5.74179E-02 -2.31323E-01
  -4.59823E-01 -9.88732E-02 -2.05649E-01 -1.82344E-01  2.75274E-01  2.97813E-01  4.36292E-01  4.74119E-01 -5.01722E-03  2.21759E-01
   2.36440E-01 -1.81437E-01  1.44437E-01  1.78675E-01  3.39041E-01  9.78524E-02 -2.34053E-01 -2.70826E-01 -3.33999E-01 -1.81829E-01
  -1.77609E-01 -8.20405E-02 -1.68795E-01  2.99273E-02  8.66638E-02  1.75674E-01  1.72282E-01  5.81071E-01  6.86540E-01  1.29937E-01
   5.36652E-01  4.48859E-01  4.31806E-01  2.53808E-01  2.40959E-01  4.86006E-01  2.89358E-01  5.46964E-01  3.62395E-01  2.08001E-01
   3.86884E-01  5.65870E-02 -3.04356E-03  1.43867E-01 -3.38832E-01 -6.48839E-02  5.92763E-02 -4.77579E-01 -2.75629E-01 -2.69391E-01
  -4.80279E-01 -3.60006E-01 -4.24733E-01 -3.58186E-01 -3.57468E-01 -3.48469E-01 -3.39353E-01 -7.60361E-01 -6.73741E-01 -6.92599E-01
  -4.26403E-01 -1.67706E-01  1.61067E-02  2.45155E-01  7.26555E-02  1.43550E-01 -1.53638E-01 -4.51913E-02  1.57474E-01  1.29775E-01
   2.84317E-01  4.91118E-01  3.62888E-01  1.43990E-01  1.13413E-01  9.29866E-02  4.07382E-01  4.71553E-01  3.54991E-01  5.58245E-01
   7.68007E-01  5.16334E-01  4.33565E-01  4.43850E-01  5.36778E-01  6.83327E-01  3.65715E-01  1.42570E-02 -1.39677E-02 -8.08262E-02
  -8.78537E-01 -1.34683E+00 -8.15427E-01 -7.12305E-01 -7.10834E-01 -4.51051E-01 -2.48250E-01 -2.47919E-01 -4.86221E-01 -2.05719E-01
  -4.23077E-01 -2.16115E-01 -7.52909E-02 -2.25165E-01 -2.02332E-01 -2.05709E-01  8.63903E-02 -4.25867E-01 -3.25398E-01 -3.82861E-01
  -3.35662E-01 -1.73079E-01 -1.33158E-01 -7.09135E-04 -6.82587E-02 -1.40303E-01 -3.04126E-01 -2.38776E-01 -1.95934E-01  1.98548E-01
  -3.19590E-01 -2.13342E-01 -4.40924E-02 -9.38298E-02  9.37975E-02  4.97335E-02 -7.38346E-02 -2.58832E-01  7.04789E-02 -2.52253E-01
   2.68546E-02  4.80251E-02 -1.05049E-02 -7.41079E-02  9.50149E-02 -6.75378E-02 -1.48203E-01  3.19656E-01 -3.43229E-01  9.33696E-02
   3.96364E-02 -1.52038E-02  2.27324E-01  5.28824E-02  1.75806E-01  2.24144E-01  4.69784E-01  3.23107E-01  3.10234E-01  3.31387E-01
   2.70267E-01  3.28397E-01  3.33529E-01  3.43355E-01 -1.26268E-01 -2.93237E-01  2.85228E-01 -1.62527E-02 -9.81488E-03 -1.90458E-01
  -5.34189E-01 -1.84795E-01 -2.27478E-01  9.02518E-03  3.89801E-02  1.45567E-01 -1.18099E-01 -9.58230E-02  9.70380E-02 -3.47922E-01
  -1.10947E-01  2.95152E-01  2.92233E-01 -1.18831E-01 -2.98324E-02  1.02507E-01 -3.27803E-01 -2.97207E-01  1.47042E-01  1.16001E-01
  -3.25572E-02  2.56370E-01 -1.13332E-01 -4.75255E-02  2.19798E-01 -1.74490E-02  1.11415E-01 -2.80915E-01  3.23614E-01  3.21147E-01
  -3.53432E-01  2.57888E-01  2.36752E-01  9.83756E-02  9.87429E-02  2.22735E-01 -3.07878E-02 -2.32822E-01 -1.50715E-01 -1.74718E-01
  -6.28862E-03 -1.79750E-01 -1.95323E-01 -9.67936E-02 -4.42778E-02  3.28570E-01  6.09077E-01  3.59090E-01  6.09904E-01  5.41301E-01
   2.03130E-01  5.25644E-01  2.13046E-01 -1.20412E-02  4.38675E-01  2.98669E-01  1.98185E-01  2.01932E-01 -1.58274E-01  2.98501E-01
   1.84184E-01  6.58116E-02  4.21984E-01  4.07428E-01  4.27946E-01  2.30311E-01  4.29486E-01  2.41713E-01  5.73395E-02  2.44105E-01
   2.56311E-01  2.29250E-01  2.15075E-01  3.63838E-01  6.73470E-02 -2.49809E-01 -1.76787E-01 -2.64571E-01  4.56698E-02  4.48237E-02
  -3.46214E-01 -1.60941E-01 -5.67694E-01 -3.06949E-01  4.27146E-02 -8.55298E-02 -7.39526E-02 -3.38154E-01  5.52113E-02  1.26692E-01
   3.86239E-01  2.61989E-01 -6.13018E-02 -7.18402E-02 -3.51080E-01 -2.14266E-01 -2.12264E-01 -5.30982E-01 -9.83063E-01 -8.10547E-01
  -8.61482E-01 -6.73854E-01 -6.33271E-01 -7.07581E-01 -7.91134E-01 -1.61825E+00 -8.25779E-01 -2.20033E-01 -2.17625E-01  1.53226E-01
   3.25848E-02 -1.77768E-02  2.93734E-01  3.06882E-01  1.24970E-01  3.41970E-01  7.38217E-03 -4.16808E-01 -1.40674E-01  2.12245E-01
  -1.20527E-01 -8.14589E-02  8.31500E-02 -8.62521E-02  4.22877E-02 -1.63429E-02  1.76028E-01 -8.27495E-02 -7.06606E-02  1.48232E-01
  -1.62270E-01  2.92697E-01  3.94219E-01  1.59109E-01 -1.73692E-02 -2.21179E-01  1.59396E-02  1.21609E-01 -1.80263E-01  5.49966E-02
   5.22849E-01  1.24844E-01  2.64187E-01  2.81448E-01  3.77405E-01  3.67395E-01  7.57731E-02  3.20377E-01  3.12944E-01  4.79305E-01
   2.03407E-01  3.30449E-01  5.50515E-02 -1.68958E-02  2.52381E-01  1.75289E-01  2.02458E-01  1.82917E-01  4.64116E-01  3.95961E-01
   2.87763E-01 -5.47564E-01  1.48601E-01  2.69832E-01 -2.53946E-01  1.07078E-01  1.39697E-01  2.36255E-01 -1.21295E-01  5.63347E-01
   3.92684E-02 -4.35463E-01 -2.20610E-01  3.83349E-02  1.06414E-01 -2.36079E-01 -6.69774E-02  3.78083E-03  1.78799E-01 -2.06844E-01
   7.83836E-02 -1.34824E-02 -2.42740E-01 -1.25511E-01 -1.85347E-01 -3.40215E-01 -2.74268E-01  1.30841E-02 -2.79839E-01  1.47125E-02
   1.27713E-01 -2.16879E-01 -1.66332E-01  1.54375E-01 -3.82149E-02 -1.21603E-01 -1.25090E-01 -1.84330E-01  9.33514E-02  1.05529E-01
  -1.00119E-01 -2.31063E-01 -2.51915E-01 -1.46424E-01  2.30658E-01  1.67496E-01  1.20140E-01  2.96853E-01  1.62992E-01 -5.37570E-02
  -5.56272E-02 -1.79800E-01 -5.18540E-02  1.70653E-01 -1.42152E-01 -2.79857E-01 -8.03209E-02  8.41466E-02 -6.29163E-02 -1.93339E-01
  -1.24484E-01  3.15455E-02  9.97460E-03  2.73702E-01  3.56275E-01 -5.59215E-02 -3.13720E-02  5.67487E-02 -2.73728E-01 -2.95833E-01
  -1.65940E-01 -1.90680E-01 -1.25131E-01 -1.33308E-01 -2.05999E-01 -4.21650E-01  5.71867E-03  3.82060E-03 -2.23940E-01 -3.00403E-01
  -1.90879E-01  1.21439E-01 -2.15978E-01  6.57563E-02  3.75481E-01  4.02055E-01 -5.50404E-02 -1.16947E-01  2.19599E-01  5.21913E-02
   2.89020E-01  5.95946E-02 -9.63158E-02  3.36208E-01  1.44156E-01  6.42617E-03 -2.12538E-01 -2.77280E-01  3.51789E-01 -2.25596E-03
  -6.69851E-02  2.05104E-01  1.35888E-01  2.48027E-01  4.53157E-03  1.76344E-02  2.44855E-01  1.71028E-01  1.03731E-01  4.19600E-02
  -6.46796E-02  2.61778E-01  2.10898E-01  3.88052E-02  2.36929E-01  5.65326E-02  1.72120E-01  3.00352E-01 -2.37727E-01 -1.02764E-01
  -3.67859E-01 -4.83220E-01  7.17675E-02 -2.95492E-01 -1.50117E-01 -2.91124E-01 -4.44919E-01 -3.27383E-01 -3.62682E-01 -1.55369E-01
  -2.29460E-01 -2.64280E-01 -1.34661E-01 -2.57205E-01 -2.50297E-01  3.20334E-01  1.96256E-01 -1.02103E-01 -3.37560E-01 -6.50100E-02
   1.25561E-01 -6.69943E-01 -2.73246E-01  4.70061E-01 -1.45424E-01 -1.24382E-01  1.83992E-01  1.21949E-01  4.16187E-01  3.83261E-02
   3.08680E-01  5.69165E-02 -6.88154E-02  2.40561E-01 -1.02469E-01  3.17208E-01 -3.83461E-02  1.15108E-01  3.30418E-01  6.90722E-02
   1.74489E-01  8.18299E-02  8.87524E-02 -1.02142E-02  4.04065E-01  1.68929E-01 -2.92160E-01 -1.33870E-01 -1.36532E-01 -2.12205E-01
  -2.92178E-01  6.17258E-03 -1.88154E-01 -1.12936E-01  3.20833E-01  7.35980E-02 -2.13008E-01  3.58994E-02  3.91518E-01 -1.02565E-01
  -2.11389E-01 -2.09364E-01  3.97973E-02  2.75247E-01 -1.51817E-01 -2.02877E-01 -1.48811E-01 -3.50960E-02 -2.15358E-01  5.33768E-02
   3.87030E-02 -6.70083E-02  2.33868E-01  4.53558E-02  9.67164E-02 -1.83485E-01 -2.24371E-01 -9.24823E-03 -6.20099E-02  7.73892E-02
   4.23489E-02  2.03740E-01 -7.19602E-02 -1.67699E-01  3.18543E-01 -1.01141E-01  3.12119E-02  5.62485E-02 -1.69270E-01  2.30236E-01
   4.25905E-02 -1.30076E-01 -1.99044E-01  1.45844E-01  1.74879E-01 -3.29401E-01 -3.81354E-02 -5.58745E-02 -6.61298E-02  3.47694E-01
  -3.03676E-01 -1.65083E-01  3.95241E-01  8.12347E-03  9.57899E-02  9.38301E-02  1.21214E-01  1.47922E-01 -1.88772E-01 -9.25581E-02
   3.94618E-01  2.29068E-01 -4.86978E-02 -1.44545E-01 -1.02563E-01  1.05974E-01  2.36307E-01  1.87810E-01 -1.05791E-01  2.06622E-02
  -1.03722E-01  1.11397E-01  2.91581E-01  3.11717E-01  2.68169E-01 -1.33605E-01 -2.85468E-01  6.85033E-03  2.72692E-01 -2.88301E-02
   1.27974E-02 -7.66915E-02  1.69488E-01 -1.15437E-01
 NY points of the fit to the data follow
   1.25137E-02  1.38258E-02  1.12800E-02  7.36411E-03  8.40009E-03  1.57051E-02  2.89675E-02  5.76902E-02  1.03416E-01  1.58397E-01
   2.18804E-01  2.79914E-01  3.37332E-01  3.92127E-01  4.40909E-01  4.71410E-01  4.74900E-01  4.43776E-01  3.65393E-01  2.46833E-01
   1.22361E-01  2.28482E-02 -4.04357E-02 -6.67319E-02 -7.26545E-02 -8.19067E-02 -9.65814E-02 -1.10936E-01 -1.24605E-01 -1.38184E-01
  -1.52601E-01 -1.68105E-01 -1.81853E-01 -1.89686E-01 -1.91033E-01 -1.82475E-01 -1.63629E-01 -1.32266E-01 -8.67896E-02 -2.56961E-02
   4.98428E-02  1.35675E-01  2.21875E-01  2.92937E-01  3.35835E-01  3.45962E-01  3.24131E-01  2.77359E-01  2.16693E-01  1.52828E-01
   9.31646E-02  4.16084E-02 -2.15732E-03 -4.42469E-02 -8.67049E-02 -1.31876E-01 -1.74765E-01 -2.18272E-01 -2.56171E-01 -2.81825E-01
  -2.96715E-01 -2.91663E-01 -2.61101E-01 -2.07186E-01 -1.32122E-01 -4.09041E-02  5.55958E-02  1.48938E-01  2.35389E-01  3.02428E-01
   3.35680E-01  3.30412E-01  2.78807E-01  1.86449E-01  7.84697E-02 -2.38159E-02 -1.11616E-01 -1.75030E-01 -2.13556E-01 -2.35311E-01
  -2.32536E-01 -1.96075E-01 -1.15784E-01  1.07748E-02  1.58876E-01  2.91007E-01  3.85599E-01  4.31581E-01  4.26098E-01  3.84294E-01
   3.24852E-01  2.55989E-01  1.80286E-01  1.12706E-01  4.88557E-02 -1.16481E-02 -6.48597E-02 -1.10483E-01 -1.48327E-01 -1.72708E-01
  -1.73081E-01 -1.37357E-01 -5.96509E-02  5.42659E-02  1.80515E-01  2.90021E-01  3.62283E-01  3.91067E-01  3.88564E-01  3.70980E-01
   3.56801E-01  3.45316E-01  3.41111E-01  3.37698E-01  3.33373E-01  3.24684E-01  3.12741E-01  2.95868E-01  2.71893E-01  2.43782E-01
   2.07697E-01  1.59565E-01  9.72577E-02  2.03408E-02 -6.62974E-02 -1.51055E-01 -2.21984E-01 -2.76148E-01 -3.23372E-01 -3.81268E-01
  -4.48067E-01 -5.08611E-01 -5.42699E-01 -5.37665E-01 -5.06745E-01 -4.75997E-01 -4.69393E-01 -4.93917E-01 -5.23489E-01 -5.11084E-01
  -4.19103E-01 -2.66874E-01 -1.08240E-01  1.42297E-02  8.23000E-02  1.06231E-01  1.17098E-01  1.36304E-01  1.55891E-01  1.74991E-01
   1.93818E-01  2.12784E-01  2.32393E-01  2.53392E-01  2.76669E-01  3.03402E-01  3.35349E-01  3.75486E-01  4.29576E-01  5.02750E-01
   5.55389E-01  5.71251E-01  5.53308E-01  5.06144E-01  4.42962E-01  3.69045E-01  2.61936E-01  9.63587E-02 -1.35679E-01 -4.20296E-01
  -6.96587E-01 -8.57618E-01 -8.51341E-01 -7.23361E-01 -5.53145E-01 -4.11375E-01 -3.36898E-01 -3.16995E-01 -2.96028E-01 -2.75804E-01
  -2.58804E-01 -2.44730E-01 -2.31817E-01 -2.19851E-01 -2.09015E-01 -1.99825E-01 -1.92199E-01 -1.85188E-01 -1.77704E-01 -1.69008E-01
  -1.59831E-01 -1.50819E-01 -1.41901E-01 -1.33037E-01 -1.24073E-01 -1.15129E-01 -1.06677E-01 -9.90072E-02 -9.21137E-02 -8.54670E-02
  -7.88211E-02 -7.25311E-02 -6.71479E-02 -6.31898E-02 -6.10236E-02 -6.05693E-02 -6.11217E-02 -6.16838E-02 -6.17546E-02 -6.16348E-02
  -6.21470E-02 -6.36353E-02 -6.51032E-02 -6.48627E-02 -6.20913E-02 -5.70420E-02 -5.05346E-02 -4.07760E-02 -2.65058E-02 -8.99779E-03
   9.53511E-03  2.83555E-02  5.22016E-02  8.58433E-02  1.26947E-01  1.70323E-01  2.08689E-01  2.33945E-01  2.41171E-01  2.32318E-01
   2.15024E-01  1.95734E-01  1.72200E-01  1.34051E-01  7.67966E-02  1.01646E-02 -4.79727E-02 -8.56297E-02 -1.01657E-01 -1.04617E-01
  -1.06995E-01 -1.12159E-01 -1.17248E-01 -1.21892E-01 -1.25785E-01 -1.29524E-01 -1.33447E-01 -1.38173E-01 -1.44402E-01 -1.47759E-01
  -1.48454E-01 -1.48479E-01 -1.44821E-01 -1.37645E-01 -1.26161E-01 -1.08726E-01 -8.37433E-02 -5.05075E-02 -1.08616E-02  3.11491E-02
   6.70210E-02  9.30822E-02  1.13002E-01  1.25343E-01  1.29631E-01  1.30039E-01  1.29855E-01  1.27202E-01  1.24633E-01  1.21566E-01
   1.12760E-01  9.68887E-02  7.17187E-02  3.49544E-02 -1.32723E-02 -6.93534E-02 -1.25085E-01 -1.72179E-01 -2.06012E-01 -2.24221E-01
  -2.25882E-01 -2.10336E-01 -1.75495E-01 -1.16212E-01 -3.03766E-02  7.74611E-02  1.93609E-01  2.99041E-01  3.73128E-01  4.05597E-01
   3.98617E-01  3.64324E-01  3.19128E-01  2.79543E-01  2.52388E-01  2.37017E-01  2.31844E-01  2.30404E-01  2.28804E-01  2.25224E-01
   2.18291E-01  2.08190E-01  1.96002E-01  1.82890E-01  1.69611E-01  1.55808E-01  1.41240E-01  1.25264E-01  1.07273E-01  8.66090E-02
   6.28902E-02  3.55372E-02  5.48419E-03 -2.83050E-02 -6.50688E-02 -1.05175E-01 -1.48618E-01 -1.93720E-01 -2.37355E-01 -2.75142E-01
  -3.02331E-01 -3.14935E-01 -3.11128E-01 -2.90371E-01 -2.52720E-01 -2.01822E-01 -1.41519E-01 -8.05304E-02 -2.86754E-02  1.96166E-03
   7.12367E-03 -1.04094E-02 -4.40819E-02 -8.33603E-02 -1.39016E-01 -2.29786E-01 -3.39582E-01 -4.51172E-01 -5.51523E-01 -6.31984E-01
  -7.04366E-01 -7.94257E-01 -9.06497E-01 -1.01824E+00 -1.08067E+00 -1.02271E+00 -8.14893E-01 -5.21650E-01 -2.52106E-01 -7.18027E-02
   3.40724E-03  5.97308E-03 -4.23225E-03  3.33650E-03  1.10924E-02  1.66207E-02  1.96780E-02  2.03882E-02  1.88664E-02  1.52842E-02
   9.97018E-03  3.51991E-03 -3.18271E-03 -8.87827E-03 -1.23940E-02 -1.29744E-02 -1.03530E-02 -5.00196E-03  2.27546E-03  1.03287E-02
   1.84171E-02  2.57261E-02  3.21794E-02  3.77264E-02  4.24712E-02  4.65641E-02  5.00086E-02  5.29823E-02  5.56471E-02  5.81302E-02
   6.04740E-02  6.26812E-02  6.47099E-02  6.66137E-02  6.84919E-02  7.03547E-02  7.21219E-02  7.37115E-02  7.50602E-02  7.62541E-02
   7.73834E-02  7.84643E-02  7.93185E-02  7.97290E-02  7.94720E-02  7.84835E-02  7.68235E-02  7.46652E-02  7.22008E-02  6.94959E-02
   6.65376E-02  6.32333E-02  5.96012E-02  5.56938E-02  5.16762E-02  4.77068E-02  4.38759E-02  4.02706E-02  3.69329E-02  3.37972E-02
   3.08256E-02  2.80366E-02  2.54682E-02  2.31390E-02  2.10634E-02  1.91887E-02  1.74693E-02  1.58801E-02  1.44872E-02  1.33411E-02
   1.24965E-02  1.20270E-02  1.19846E-02  1.23777E-02  1.31759E-02  1.43714E-02  1.59262E-02  1.78045E-02  1.99929E-02  2.24510E-02
   2.50514E-02  2.76969E-02  3.03442E-02  3.30117E-02  3.58744E-02  3.92423E-02  4.32831E-02  4.79464E-02  5.30684E-02  5.84771E-02
   6.40688E-02  6.99169E-02  7.60742E-02  8.24252E-02  8.87512E-02  9.48217E-02  1.00426E-01  1.05426E-01  1.09710E-01  1.13088E-01
   1.15346E-01  1.16370E-01  1.16205E-01  1.14985E-01  1.12901E-01  1.10081E-01  1.06515E-01  1.02162E-01  9.70747E-02  9.13731E-02
   8.53087E-02  7.92002E-02  7.32856E-02  6.76511E-02  6.23190E-02  5.72494E-02  5.24663E-02  4.80678E-02  4.41847E-02  4.08020E-02
   3.78994E-02  3.55004E-02  3.36233E-02  3.22971E-02  3.15864E-02  3.15595E-02  3.21966E-02  3.35014E-02  3.53432E-02  3.75294E-02
   3.98979E-02  4.23703E-02  4.49103E-02  4.74701E-02  4.99503E-02  5.21777E-02  5.39783E-02  5.53622E-02  5.63715E-02  5.70721E-02
   5.75563E-02  5.78376E-02  5.77982E-02  5.72837E-02  5.62665E-02  5.48048E-02  5.30289E-02  5.10814E-02  4.90370E-02  4.69131E-02
   4.47613E-02  4.26397E-02  4.05265E-02  3.83896E-02  3.62297E-02  3.40220E-02  3.17925E-02  2.95424E-02  2.72565E-02  2.49391E-02
   2.25806E-02  2.01027E-02  1.73100E-02  1.40252E-02  1.00972E-02  5.47248E-03  1.42341E-04 -5.86241E-03 -1.25116E-02 -1.98033E-02
  -2.77661E-02 -3.64178E-02 -4.57074E-02 -5.54060E-02 -6.50812E-02 -7.42909E-02 -8.27576E-02 -9.03214E-02 -9.68569E-02 -1.02256E-01
  -1.06417E-01 -1.09261E-01 -1.10722E-01 -1.10858E-01 -1.09784E-01 -1.07713E-01 -1.04876E-01 -1.01409E-01 -9.74470E-02 -9.31696E-02
  -8.87007E-02 -8.41218E-02 -7.94072E-02 -7.44420E-02 -6.90874E-02 -6.33567E-02 -5.73990E-02 -5.13619E-02 -4.53758E-02 -3.95565E-02
  -3.39332E-02 -2.85462E-02 -2.34482E-02 -1.86376E-02 -1.41058E-02 -9.89631E-03 -6.03570E-03 -2.52532E-03  6.78589E-04  3.60217E-03
   6.19342E-03  8.41904E-03  1.03003E-02  1.19472E-02  1.33891E-02  1.46505E-02  1.57660E-02  1.67399E-02  1.75966E-02  1.84290E-02
   1.92497E-02  2.00315E-02  2.08484E-02  2.17316E-02  2.25974E-02  2.33521E-02  2.39380E-02  2.42674E-02  2.43367E-02  2.42792E-02
   2.41870E-02  2.41072E-02  2.40831E-02  2.40445E-02  2.39232E-02  2.37699E-02  2.36425E-02  2.35411E-02  2.34426E-02  2.33373E-02
   2.31130E-02  2.26684E-02  2.20431E-02  2.13856E-02  2.09302E-02  2.07764E-02  2.07876E-02  2.07894E-02  2.06995E-02  2.05127E-02
   2.03271E-02  2.02914E-02  2.04986E-02  2.09220E-02  2.14821E-02  2.20216E-02  2.24558E-02  2.27618E-02  2.30051E-02  2.32354E-02
   2.34344E-02  2.35716E-02  2.36317E-02  2.35944E-02  2.34886E-02  2.34592E-02  2.36424E-02  2.41089E-02  2.47816E-02  2.54928E-02
   2.61000E-02  2.65776E-02  2.70054E-02  2.75056E-02  2.80692E-02  2.85885E-02  2.88771E-02  2.88529E-02  2.86032E-02  2.83130E-02
   2.81532E-02  2.82197E-02  2.83993E-02  2.85240E-02  2.85748E-02  2.86176E-02  2.87431E-02  2.89964E-02  2.93320E-02  2.96934E-02
   3.01199E-02  3.07242E-02  3.14714E-02  3.22815E-02  3.31400E-02  3.40820E-02  3.51311E-02  3.64014E-02  3.79421E-02  3.96973E-02
   4.16154E-02  4.35658E-02  4.53967E-02  4.70980E-02
 NY background values follow
     5.792E-02    5.776E-02    5.760E-02    5.744E-02    5.728E-02    5.712E-02    5.696E-02    5.680E-02    5.664E-02    5.648E-02
     5.632E-02    5.616E-02    5.600E-02    5.584E-02    5.568E-02    5.552E-02    5.536E-02    5.520E-02    5.504E-02    5.488E-02
     5.472E-02    5.456E-02    5.439E-02    5.423E-02    5.407E-02    5.391E-02    5.375E-02    5.359E-02    5.343E-02    5.327E-02
     5.311E-02    5.295E-02    5.279E-02    5.263E-02    5.247E-02    5.231E-02    5.215E-02    5.199E-02    5.182E-02    5.166E-02
     5.150E-02    5.134E-02    5.118E-02    5.102E-02    5.086E-02    5.070E-02    5.054E-02    5.038E-02    5.021E-02    5.005E-02
     4.989E-02    4.973E-02    4.957E-02    4.941E-02    4.925E-02    4.909E-02    4.892E-02    4.876E-02    4.860E-02    4.844E-02
     4.828E-02    4.812E-02    4.796E-02    4.779E-02    4.763E-02    4.747E-02    4.731E-02    4.715E-02    4.699E-02    4.682E-02
