 
 $NMID
 ID=''
 FMTDAT='(2E13.5)'
 TRAMP=   1.00000E+0
 VOLUME=   1.00000E+0
 $END
   2.53754E+2   8.82232E+1
  -7.67105E+2   6.76167E+2
   3.18533E+3  -2.75737E+3
  -1.40667E+3  -7.04870E+2
  -2.32990E+3   9.37630E+2
   3.97912E+2   3.25702E+3
  -1.97470E+3  -1.02657E+2
  -1.53960E+3   2.16593E+3
   2.24268E+3  -8.73456E+2
   3.94600E+3  -1.69094E+3
   4.64640E+3   2.41428E+3
   2.16552E+3   3.01813E+3
  -1.12323E+3   1.34799E+3
  -4.01404E+3  -3.22093E+3
   1.89812E+3  -3.38631E+3
   1.26304E+3  -4.96722E+2
  -9.80385E+2  -4.93373E+1
   1.31448E+3   8.46523E+2
  -4.61468E+2   1.26268E+3
   9.67903E+2  -2.51842E+1
   1.32321E+3   2.20173E+3
  -1.73127E+2   1.58381E+3
  -3.52823E+3   5.47797E+2
  -1.61290E+3  -4.44281E+3
   2.39584E+3  -6.48158E+2
  -4.90338E+2   1.84972E+2
  -2.97373E+3   1.23900E+3
  -2.28221E+3  -2.88645E+3
   1.79195E+3  -8.96199E+2
   3.51994E+3   2.85931E+3
  -1.71595E+3   6.43762E+3
  -7.03899E+3   1.22166E+3
  -6.41807E+2  -3.50233E+3
   2.39929E+3  -1.44471E+3
  -1.13321E+3  -3.57492E+2
   1.99914E+3  -4.55400E+3
   5.34970E+3  -1.82259E+3
   1.65784E+3   3.74603E+3
  -6.69502E+2  -3.74896E+2
  -1.03477E+3   5.52057E+2
  -3.11494E+3   6.86588E+2
  -3.07373E+3  -3.52906E+3
   2.20409E+3  -4.12479E+3
   5.13698E+3  -1.00916E+3
   1.51979E+3   3.59081E+3
   7.31321E+2   6.98752E+2
   9.75130E+1   1.98274E+3
  -1.43287E+3   1.27936E+3
   1.87506E+2   1.71271E+3
   9.67013E+2  -2.17528E+3
   7.27535E+2  -2.41364E+3
   2.37192E+3   5.48133E+2
   4.05870E+3   3.50245E+3
   6.46234E+2   3.65942E+3
  -3.01002E+3   3.16144E+3
  -3.41595E+3   9.14852E+2
  -3.37412E+3  -9.09153E+1
  -8.11869E+2  -4.05168E+3
   1.44996E+3  -4.53295E+3
   4.52645E+3  -4.74555E+2
   2.51482E+3   1.71962E+3
  -2.73095E+2   2.76321E+3
  -4.29918E+2   2.43264E+3
  -1.01852E+3  -1.51061E+3
   1.21419E+3  -2.15560E+3
   1.15552E+3   1.22998E+3
  -3.59212E+3   2.35630E+3
  -4.14513E+3  -1.51207E+3
   2.32228E+1  -1.81680E+3
   6.05661E+2  -9.13998E+2
  -3.21997E+3  -1.29091E+3
  -2.47363E+2   1.12881E+2
   7.74153E+1  -4.12907E+2
   7.12481E+2   2.31969E+3
   5.59954E+2   1.56146E+3
  -4.91623E+2   2.36492E+3
   1.31832E+3   4.88021E+2
  -4.08065E+2  -2.38949E+3
   2.14002E+3   1.12874E+3
  -8.29833E+2   2.13640E+3
  -2.54762E+3   1.40789E+3
  -1.15851E+3   4.97899E+2
  -2.94708E+3   1.48686E+2
  -1.44218E+3  -4.31925E+2
  -4.46968E+3  -1.44728E+3
  -2.38532E+3  -3.48199E+3
   2.39852E+3  -3.02841E+3
   4.65089E+3  -2.64702E+3
   1.23619E+3   3.01006E+3
  -1.84910E+3  -9.57539E+2
  -1.39397E+3  -2.16933E+2
   1.54111E+2   1.12512E+3
  -2.41378E+3   1.72616E+3
  -3.14507E+3   1.74306E+3
  -2.58643E+3  -2.08211E+3
   3.52925E+3  -1.20947E+3
   4.26558E+3   3.13278E+3
  -9.89317E+1   1.37252E+3
  -2.37993E+3  -8.76976E+2
   1.71349E+2  -3.57103E+3
   2.47315E+3  -1.40968E+3
   3.71196E+3   3.00652E+3
  -6.07672E+2   1.60776E+3
  -7.13048E+2  -1.47041E+3
  -1.14094E+3  -8.39541E+2
  -2.38093E+2   5.09004E+2
  -1.97287E+3  -1.13572E+3
  -4.26076E+2  -3.59482E+2
  -9.16307E+1  -3.62830E+3
   4.32421E+3   8.49135E+2
   2.70038E+3  -4.59432E+1
   1.31454E+3   3.03391E+3
  -1.08480E+3   1.92572E+3
   2.59879E+2   3.86791E+2
  -1.99051E+3  -2.71425E+2
  -1.92082E+3   1.46216E+2
   4.28948E+2   9.17986E+2
   1.84732E+3   1.39062E+3
   1.71358E+3   1.28104E+3
   1.35889E+2   2.87889E+2
  -9.33223E+1   1.55998E+3
  -1.84487E+3  -6.23333E+2
   2.10087E+3  -3.60136E+2
   6.25662E+2   2.30993E+2
  -2.87480E+3   1.87478E+3
  -3.43967E+3   9.36530E+2
  -1.02906E+3  -8.18055E+1
  -7.04806E+2   2.68566E+3
  -1.54575E+3   7.42698E+2
  -2.08814E+3   8.36828E+2
  -1.77456E+3   2.03319E+1
   1.23772E+3   6.78714E+2
   3.48246E+3   2.69815E+3
  -1.14813E+3   9.58187E+2
  -4.18636E+3  -6.29237E+2
  -2.66814E+3  -3.34827E+3
  -9.20183E+2  -2.37357E+3
   3.17224E+3  -1.46226E+2
  -7.66507E+2   4.97337E+2
   1.93892E+3  -5.70099E+2
   7.34459E+2  -1.15594E+3
   1.40665E+3   1.29757E+2
  -1.09926E+2   6.97513E+2
  -7.56380E+2   2.10733E+3
  -1.78239E+3  -3.10580E+2
  -5.20036E+2  -5.12442E+2
  -6.81595E+2   6.19058E+2
   1.16020E+3   9.40572E+2
   1.26885E+2   2.06922E+3
   5.78406E+1   7.04468E+2
  -1.72090E+3   2.42400E+2
  -2.46866E+2  -2.69879E+2
  -2.44806E+2  -1.28384E+3
   1.19242E+3  -1.10177E+3
   3.24185E+2   8.28667E+2
  -2.54610E+3   1.63931E+3
   6.34547E+1   6.53981E+2
  -4.96751E+2  -1.20375E+3
  -1.93457E+3  -1.18159E+3
  -2.17084E+2  -1.37378E+3
  -7.62813E+2  -5.23375E+2
  -1.17038E+3  -4.76823E+3
   8.16068E+2  -9.29727E+0
   6.57764E+2  -3.07419E+2
   1.36303E+2   4.77030E+2
   3.71441E+2  -1.54968E+3
   3.75204E+1  -2.07622E+3
   2.70608E+3   1.12554E+3
  -1.29614E+3  -4.99417E+2
  -5.35751E+2  -4.98799E+2
  -2.23610E+2  -1.77900E+3
  -1.13242E+3  -2.22678E+2
  -1.14126E+2  -9.70123E+2
  -1.30635E+3  -2.61081E+2
  -3.95755E+2  -1.35113E+3
   2.06255E+3   7.44626E+2
   1.27378E+3   5.34211E+2
  -8.27691E+2  -9.39244E+2
  -2.21713E+3   2.58973E+2
  -3.80316E+2  -2.53980E+3
   1.73943E+3  -1.64790E+3
   1.72989E+2  -2.04103E+3
   1.58654E+3   2.24753E+2
   1.08669E+3  -7.17356E+2
  -3.00918E+2   9.41142E+2
  -7.20420E+2   1.61103E+2
  -5.40904E+2  -1.11418E+2
   7.90537E+2  -1.13997E+3
   3.09270E+3  -1.80322E+3
   2.45673E+3  -2.39078E+3
  -8.64649E+2   7.89102E+2
  -1.80330E+3  -1.06866E+3
  -1.46489E+3  -2.70983E+2
  -1.06336E+3  -2.61863E+3
  -1.69502E+2  -9.24079E+2
  -7.30626E+2  -3.04404E+2
   2.70310E+1  -6.35705E+2
   1.04551E+3  -1.36471E+3
  -1.79539E+2  -1.53775E+3
  -1.45065E+3   5.14147E+2
  -1.49985E+3   3.60464E+2
   9.25427E+2  -8.68806E+2
   6.61144E+2  -2.84286E+3
   1.53970E+3   1.13290E+3
  -1.06222E+3   2.00270E+3
   1.40794E+3   8.35326E+2
  -6.73297E+2  -5.42516E+2
   2.12492E+2   4.12704E+2
   1.64290E+3   8.27147E+2
  -2.66932E+3  -6.30372E+2
   3.29713E+2  -1.38420E+3
   1.33084E+3  -3.22812E+2
   5.70907E+2   1.28676E+3
   1.93558E+3   5.22539E+2
  -1.14063E+3  -9.17839E+2
  -5.50493E+2  -1.66703E+3
  -9.49703E+2   1.52213E+3
  -7.18815E+2  -8.16026E+2
  -9.03970E+1   7.76229E+0
   3.81861E+2  -4.87886E+2
  -1.24794E+3  -2.83157E+3
  -3.96402E+2  -2.70049E+3
   6.93930E+1   9.16309E+2
   6.55834E+2   4.19547E+2
   1.72252E+3   4.48148E+2
   1.39127E+2  -5.77968E+2
   4.73873E+2   6.88338E+2
  -6.43960E+2   7.44232E+2
  -8.78900E+2  -6.44342E+2
   1.25529E+3   2.53921E+2
  -5.99156E+2  -8.76846E+2
  -5.28753E+2   3.04039E+2
  -3.07598E+2  -1.41297E+3
   1.97283E+3  -1.89921E+3
   8.10979E+2   1.91316E+2
  -1.86227E+2   1.18677E+3
  -9.37579E+2  -1.14500E+3
  -1.58656E+2  -4.32410E+2
   1.12973E+3  -1.19583E+3
  -1.41507E+2  -5.29344E+2
  -1.82662E+3   3.10794E+2
  -2.06661E+3  -1.61771E+3
  -1.91646E+3  -1.83805E+3
   4.27429E+2  -9.83579E+2
   4.64155E+2   8.52782E+2
  -2.44002E+3   6.62799E+2
   6.02910E+2   6.73591E+2
   1.48790E+3   1.24813E+3
   1.23384E+3   1.96181E+3
   7.37721E+2   1.49552E+2
  -1.50126E+3   1.80087E+2
   7.92037E+2  -2.29158E+2
  -3.48533E+2   1.40061E+3
   4.78467E+2   1.62643E+3
  -2.73330E+2  -1.18809E+3
   6.17969E+2   3.02418E+2
   1.99482E+3  -9.99312E+2
  -7.89862E+2   3.33940E+3
   5.94781E+2   1.73315E+2
  -6.88698E+0  -1.56255E+3
  -8.22916E+2   8.17108E+2
   2.81046E+3   2.02890E+3
   3.92255E+2  -3.46335E+2
  -1.22463E+2   1.22469E+3
   2.58409E+1  -8.22685E+2
   1.78423E+3   1.04830E+3
  -3.73020E+2   9.45197E+2
  -4.10464E+2  -2.20958E+2
   1.60418E+3  -1.38472E+3
   1.50221E+3  -8.45920E+1
   2.74092E+3   1.96372E+3
   5.92337E+2   5.13760E+2
  -4.08109E+2  -4.57189E+1
  -4.26908E+2  -8.06516E+2
   1.38827E+3   6.99696E+2
   1.16479E+3  -3.26703E+3
  -1.04500E+3  -4.25756E+1
  -1.23794E+3   1.29727E+3
   5.21489E+2   4.41390E+2
  -1.42886E+3  -6.95712E+2
  -1.69219E+3   3.89365E+2
  -8.13455E+2  -1.51857E+2
   7.53304E+2  -2.37131E+3
   7.33976E+2  -7.51773E+2
   5.73230E+2  -3.49733E+2
  -2.94377E+2   4.72654E+2
  -4.93682E+2  -2.36580E+3
   2.48953E+3  -7.36195E+2
   6.51215E+2  -1.56310E+3
   8.82561E+2  -1.59657E+3
   1.38521E+2  -1.60862E+3
  -5.78750E+2  -3.44655E+2
  -7.63151E+2   1.50166E+3
  -9.76241E+2   9.36649E+2
  -1.41839E+3  -5.06338E+2
  -4.62080E+2   1.03775E+1
   8.19667E+2  -1.31890E+3
   1.43454E+2   1.25893E+3
  -7.28690E+2   3.48013E+2
  -1.74389E+2   5.82051E+2
  -1.71674E+3  -2.28514E+2
   1.62265E+3  -6.60283E+2
  -7.00602E+0  -1.14462E+2
   4.77421E+2  -1.53448E+2
  -1.26529E+3  -1.48030E+3
   1.48303E+3  -5.43263E+2
   1.23678E+3   1.49378E+3
  -6.86558E+2   9.63044E+2
  -1.61979E+3  -1.56839E+3
   4.04213E+2  -4.81800E+2
   2.49702E+2  -4.02413E+3
   3.80648E+2   9.23226E+2
   7.04141E+2   7.95661E+2
  -2.30363E+2   7.74612E+2
   1.31005E+3   1.09193E+3
   2.50762E+2   1.76804E+2
  -4.88484E+1   1.12651E+3
  -2.11010E+3  -1.83608E+2
   3.21834E+2  -1.46713E+3
   2.75952E+3   1.46604E+2
  -8.25562E+1  -9.92192E+2
  -6.07765E+2  -2.19380E+2
  -1.68051E+3  -1.98041E+2
   5.76851E+2  -4.34149E+1
   3.19199E+2   7.95444E+2
   2.73682E+3   7.59665E+2
  -1.60120E+3  -4.38245E+2
   1.67874E+3   3.39893E+2
   1.21061E+3  -7.36373E+2
  -5.65290E+2  -5.46663E+2
   4.65714E+1  -1.19481E+2
   6.92217E+2  -9.55707E+1
  -2.11004E+2   1.15481E+3
   8.47109E+2  -1.06636E+3
  -3.56934E+2  -1.55197E+2
  -3.12087E+2   4.77563E+2
   1.35424E+2   1.94074E+3
   2.27539E+2  -6.75306E+1
   1.45336E+3   7.30420E+2
  -3.22297E+3  -1.17875E+3
   7.59257E+2  -2.61375E+2
   5.83456E+2  -5.24000E+2
   1.54471E+3  -1.45378E+2
   2.16892E+3  -1.94440E+2
  -3.91551E+2  -7.72047E+2
   1.45132E+3   1.54765E+3
   5.20747E+2  -7.49524E+2
   1.69646E+2  -7.53664E+2
  -6.76125E+2   3.36616E+1
   1.68373E+1  -9.06486E+2
   2.90062E+2   6.67571E+2
   9.70385E+2  -2.52899E+2
  -2.76951E+1   1.56024E+3
  -3.78998E+2   1.17804E+3
   9.11473E+2   4.94557E+2
   2.97942E+3   3.30717E+1
   3.86600E+2   4.10690E+2
  -8.89501E+2  -5.71594E+2
  -1.47957E+3   3.45711E+2
  -6.24422E+1  -7.37040E+0
   4.43991E+2   5.48081E+2
   8.19333E+2  -2.96656E+2
   9.52018E+2   9.79956E+2
   7.68063E+2  -6.81615E+2
   2.33176E+2   1.05049E+3
  -3.50473E+2  -1.62978E+2
   4.96705E+2  -1.42203E+1
