 
 $NMID
 ID=''
 FMTDAT='(2E13.5)'
 TRAMP=   1.00000E+0
 VOLUME=   1.00000E+0
 $END
   9.52418E+0  -3.67792E+2
   7.39400E+2  -4.60355E+2
  -2.78312E+3  -5.08784E+3
  -4.28648E+3   9.91676E+1
  -3.28850E+3   3.01215E+3
   1.64004E+3   4.70305E+3
  -1.40786E+2   3.60831E+3
   1.68081E+3   2.06307E+3
  -3.56144E+2  -1.60468E+3
  -1.42345E+3  -4.85960E+3
   2.69897E+3  -6.11538E+3
   2.60629E+3  -2.17762E+3
  -1.21264E+3   1.98056E+3
  -7.26271E+3  -8.93273E+2
  -7.75692E+3  -1.67509E+3
  -3.55425E+3  -3.06293E+3
  -2.90807E+3  -3.89263E+2
  -2.11606E+3   1.71542E+3
  -1.43720E+3   3.08072E+3
  -1.82027E+2   4.23482E+3
   1.89281E+3   1.43403E+3
   4.40753E+3  -1.58628E+3
   3.57030E+3   7.95928E+2
  -3.29116E+2  -1.57266E+3
   4.42511E+2  -3.59571E+3
   3.42261E+3  -3.45951E+3
   1.12391E+3   1.91686E+3
  -2.01106E+3  -5.51363E+2
   1.59677E+2  -2.20313E+3
   5.18396E+3  -4.72377E+3
   9.66013E+3   2.55814E+3
   2.87584E+3   4.31291E+3
  -1.11156E+3   1.16523E+3
   1.75804E+3  -4.25411E+2
  -1.74542E+3   1.26950E+3
  -2.10195E+3   3.70942E+2
   6.38202E+2  -2.20678E+3
   4.74176E+3   1.94945E+3
   5.17045E+3   5.06250E+3
   3.46056E+3   4.61308E+3
   5.27208E+3   5.54371E+3
  -5.64110E+2   5.12069E+3
  -2.10940E+3  -8.24513E+2
   2.03699E+2  -1.26942E+3
  -7.78372E+2  -1.17629E+3
  -2.76685E+3   4.44214E+2
  -3.09264E+2   1.33803E+3
  -2.57854E+2   1.04782E+3
   2.75678E+3   3.73748E+3
  -2.24242E+3   5.81873E+3
  -2.02872E+3  -2.14975E+2
  -4.07336E+3  -5.47273E+3
   1.12948E+3  -3.35836E+3
   1.27466E+3  -5.03438E+2
  -1.13763E+3  -6.73797E+2
   2.27550E+3  -8.55042E+2
  -7.43623E+2   4.58407E+3
  -4.43854E+3   7.72322E+2
  -3.87945E+3  -5.03579E+3
  -1.64563E+3  -5.22570E+3
   3.43381E+3  -1.44497E+3
   3.27215E+3  -1.50860E+2
   1.45458E+3   2.66511E+3
  -2.04940E+3   3.39143E+3
  -3.59840E+2  -1.30694E+3
   3.08650E+3  -1.82322E+3
   3.69808E+3   2.47725E+3
  -6.50664E+2   1.88270E+3
  -3.62626E+2   1.47372E+2
  -2.15094E+3   4.39658E+2
  -2.29976E+3   1.08784E+3
  -2.63291E+3   1.86737E+1
  -2.34858E+3  -1.35752E+3
  -8.81300E+2  -2.89676E+3
   3.70571E+2   8.02813E+2
   9.96526E+2   1.60899E+3
   8.54774E+2  -3.49019E+2
  -2.08705E+3  -1.97696E+3
  -7.68326E+2  -3.18545E+3
   2.71127E+3  -3.63250E+3
   1.33943E+3  -5.46089E+2
   1.54982E+3  -7.61401E+2
   2.99685E+3   1.89443E+3
   2.79805E+3   8.94831E+2
  -9.03920E+2   4.77390E+3
  -1.98398E+3  -1.04661E+3
  -2.68254E+3  -3.23904E+3
  -1.89490E+3  -3.76661E+3
   7.24653E+2  -2.14567E+3
   2.81438E+3   2.73013E+3
   1.09305E+3   1.33543E+3
   1.78360E+3  -1.70769E+3
   2.18513E+3   1.28542E+3
   4.99832E+2   7.27649E+1
  -1.37822E+3  -3.34254E+2
  -1.56684E+3  -1.64988E+3
  -4.73667E+1  -5.14049E+1
   1.50836E+3  -2.58423E+2
  -9.49614E+2   5.02896E+3
  -2.77789E+3  -5.59162E+0
  -1.78370E+3  -1.68859E+3
   9.62634E+1   5.19452E+2
   3.67926E+3   1.40433E+3
   1.71870E+3   2.27349E+3
   4.41471E+1   2.64794E+3
   6.87587E+2  -4.06103E+2
  -5.78947E+2   2.29027E+3
  -2.69216E+3   1.40158E+3
  -4.48409E+3  -1.04696E+3
  -2.00264E+3  -2.08374E+3
   8.20659E+2  -1.76683E+3
   4.06118E+2  -1.07589E+3
   1.96620E+3   8.49899E+2
   1.36613E+3   1.21807E+3
   2.29773E+2   1.21882E+3
  -4.11977E+3   7.87522E+2
  -2.31239E+3  -1.08909E+3
   9.56488E+2  -1.30109E+3
   5.87651E+2   1.07858E+3
   1.01868E+3  -1.93105E+3
   1.99794E+3  -4.37415E+2
  -3.31786E+2   3.18243E+3
  -1.77122E+3   9.54401E+2
  -1.50018E+3  -1.01736E+3
  -6.95526E+0  -1.10511E+3
  -2.68517E+2  -4.05970E+2
   8.50963E+2  -1.12400E+3
  -1.11069E+3  -1.62369E+3
   2.51957E+3  -4.86944E+2
   2.57829E+2   3.72206E+2
  -5.81953E+2   1.28389E+3
  -8.72139E+2  -8.98130E+1
  -8.02906E+2  -1.50776E+3
   2.13956E+3   1.10930E+3
  -3.53330E+2   1.00694E+3
  -3.16593E+3   5.52709E+2
  -1.38219E+3  -3.60088E+1
  -1.73143E+3  -1.50464E+3
  -1.60226E+2   1.82603E+3
  -2.82499E+3  -1.13055E+2
  -1.23326E+3   2.10397E+3
  -1.24566E+3  -1.02975E+3
   5.83878E+2   1.37024E+3
   3.78606E+2   7.79353E+2
  -2.70570E+2  -1.68422E+3
   8.14616E+2  -5.10560E+2
   5.22930E+2   1.07341E+3
   1.83646E+3   3.71852E+0
   1.58057E+3  -5.16781E+2
   1.52757E+3   2.02702E+2
  -2.10565E+3   1.76074E+3
  -3.26099E+1   4.08492E+2
  -3.39489E+3  -9.21603E+2
   2.01435E+1  -1.75871E+3
   2.73135E+2  -1.57966E+3
   2.65795E+3  -5.41754E+2
   1.73512E+3   1.67776E+3
   2.13554E+2   2.02575E+3
  -1.01800E+3   4.56834E+2
  -2.36292E+3   1.71660E+3
  -1.44306E+3   1.70206E+1
  -1.44852E+3   2.42492E+1
  -1.35681E+3  -1.65053E+3
   1.90998E+3  -1.20792E+3
  -4.37397E+2  -1.69889E+2
   5.34025E+2   4.60483E+2
  -1.68607E+3   2.55690E+3
  -1.32263E+3  -2.05429E+3
   6.93791E+2  -1.63160E+3
   1.48875E+3  -2.92632E+2
  -1.61134E+3   1.29138E+3
  -2.06319E+3   6.79855E+2
  -1.61589E+3  -2.46626E+3
  -7.11889E+2  -1.30627E+3
  -1.00864E+3  -1.91970E+3
  -3.86778E+2  -3.70651E+2
  -9.90001E+1  -1.20890E+3
   1.28857E+3  -1.35768E+3
   2.84179E+2   6.53668E+2
  -6.37565E+2   1.34423E+3
  -5.32846E+2  -1.74553E+3
  -1.03422E+3  -1.78149E+2
   5.71386E+2  -3.31162E+2
   9.21236E+1   6.39559E+2
   2.56761E+3  -8.43230E+2
   3.80560E+3  -2.18077E+3
  -7.39879E+1   2.27500E+3
  -1.71002E+3   4.63932E+2
  -1.06294E+3   1.11308E+3
  -3.55695E+3  -6.63484E+2
  -1.17773E+3  -2.09934E+2
  -6.51821E+2  -2.92812E+3
  -8.53583E+1   1.20893E+3
   1.11399E+3  -2.04368E+3
  -3.69370E+0  -9.38506E+2
  -6.64672E+2   7.33799E+2
  -4.42675E+2   1.97022E+3
  -1.94873E+2  -9.37651E+1
  -3.09526E+3  -2.20900E+2
  -2.53742E+2  -1.53129E+3
  -2.88639E+1  -1.12765E+3
  -1.16990E+3   6.60754E+2
  -2.02901E+3   1.84284E+3
  -1.57338E+2  -2.42678E+3
  -1.91962E+2   4.04085E+2
  -6.48661E+2  -4.21948E+2
  -9.94991E+2   3.39998E+2
  -1.81896E+3  -6.52826E+1
  -7.81432E+2   1.12284E+3
  -1.19357E+3   3.45920E+2
  -1.84990E+3   7.40386E+2
  -2.17145E+3  -1.06792E+3
  -1.25886E+3  -2.22752E+3
   1.51065E+3  -8.95974E+2
   1.39066E+3  -6.86505E+2
   1.34472E+3   2.28068E+2
  -2.34443E+1   6.35952E+2
   9.98851E+2   5.26237E+2
   1.63746E+3   1.11859E+3
   2.46678E+2   4.99745E+2
  -1.16862E+3   1.45935E+3
  -3.26089E+3  -4.87134E+2
  -1.48722E+3  -1.88233E+3
   6.04666E+2  -1.81876E+3
  -1.23049E+3  -1.94046E+3
   4.67922E+2  -8.94680E+2
  -1.04870E+3  -3.46382E+3
   9.93911E+1   1.47683E+3
   1.43397E+3   2.03360E+3
   1.21206E+3   8.85435E+2
  -5.42316E+2   3.61243E+2
  -2.70227E+2   1.03992E+3
  -9.25023E+2   1.13145E+3
  -1.89830E+3  -1.05770E+3
  -5.77910E+2  -3.56766E+2
   1.03562E+3  -1.51691E+3
   1.81064E+3   9.28831E+2
  -2.97804E+1   2.32255E+2
  -7.94045E+2   9.79069E+2
   6.45457E+2   1.88011E+3
  -1.51991E+2  -2.19962E+2
  -1.93158E+3  -2.66957E+2
  -1.84518E+3   1.37136E+3
   1.11074E+3   9.26848E+2
  -2.05772E+3  -2.24470E+2
  -4.61920E+2  -1.74431E+3
  -2.49309E+3  -1.79735E+3
  -2.00283E+3  -1.76937E+2
   1.19113E+3   9.33482E+1
   1.33256E+3  -1.26324E+3
   3.24912E+2   6.61505E+1
   1.11230E+3  -3.13009E+2
  -5.64818E+2   5.55618E+2
   4.33916E+1   7.06772E+2
  -5.69370E+2  -3.53002E+2
  -1.24261E+2  -3.21522E+2
  -5.31582E+2  -1.21760E+3
   5.31593E+2   4.06595E+2
  -6.57834E+2   3.58496E+2
   3.28744E+2  -8.03719E+1
  -8.29127E+0  -6.52109E+2
  -7.30914E+2   7.77446E+2
   1.10708E+3  -9.00488E+2
   1.10747E+3  -1.92631E+3
   2.01551E+1   7.67384E+1
   1.27470E+3   4.82891E+2
  -1.49978E+3   7.20770E+2
  -8.07292E+1  -2.69689E+2
  -1.83413E+3   1.60702E+3
   6.08184E+2   2.58131E+3
  -1.22619E+3  -3.68234E+3
  -1.64598E+3  -3.00134E+2
  -1.90956E+2  -3.82924E+2
   3.23834E+2   1.71102E+3
  -1.27177E+3  -1.10094E+3
  -1.44094E+3   1.57252E+3
   2.66852E+1   6.22995E+2
  -8.31952E+2   6.73855E+2
  -1.28266E+3   2.40635E+3
  -1.87451E+2  -1.12420E+2
   9.56685E+2  -3.93202E+2
  -3.26446E+2   5.02878E+2
  -1.73625E+3   8.45162E+2
  -9.09865E+2  -1.80281E+2
  -5.36871E+1  -2.12390E+3
  -5.24504E+2   9.43421E+2
   3.97515E+2   1.58837E+3
  -4.20075E+1   1.40443E+3
  -4.84367E+2   1.33626E+3
   7.18375E+1  -2.36064E+2
  -9.16105E+2  -3.69618E+2
  -9.36269E+2   7.45161E+2
  -1.42004E+3  -5.92534E+2
  -1.84199E+2  -4.38384E+2
   1.32721E+3   1.64532E+3
  -1.48475E+3  -2.16699E+2
  -3.04080E+3   6.37660E+2
  -8.37320E+2  -8.10645E+2
   6.20536E+2   2.36374E+2
   5.52016E+2  -5.54604E+2
  -6.33799E+2   3.26036E+2
  -1.67984E+3   4.49393E+2
  -5.82136E+2  -8.96479E+2
   3.37479E+2  -1.00950E+1
  -1.54819E+3   1.05555E+3
  -3.35553E+2   5.30794E+2
  -1.46626E+3  -1.73823E+3
  -2.02212E+1  -2.30286E+3
  -7.60305E+2   3.87485E+2
  -8.28561E+1   1.95122E+3
  -3.76113E+2   1.83476E+3
   2.43983E+2   2.24388E+2
   3.94252E+1  -4.38714E+2
  -3.10855E+2  -5.84719E+2
   4.76248E+2  -1.53511E+2
  -9.78026E+2  -7.94233E+2
   5.02598E+2  -1.02804E+3
  -1.57981E+3  -9.98399E+2
  -5.27487E+2   1.47005E+3
  -3.43654E+3  -1.27257E+3
   9.05763E+2  -1.41203E+3
  -1.13729E+3  -2.27361E+3
  -7.59328E+2  -1.44304E+3
  -4.32937E+2   7.09950E+2
  -1.50956E+3  -1.11800E+3
   6.08028E+2   1.43335E+2
   2.71510E+2   5.60711E+1
  -9.20030E+1  -1.97501E+2
   1.20424E+3  -9.81371E+2
  -6.80125E+2  -1.14623E+3
  -8.91661E+2   8.56826E+2
   4.39955E+0   2.32444E+2
  -5.05561E+2  -4.33502E+2
  -4.16636E+2  -1.88595E+2
   6.33038E+0  -3.92427E+2
   6.18827E+2   3.47679E+2
  -1.10442E+3  -1.18800E+3
  -1.15124E+3  -2.61886E+2
  -4.32156E+2  -1.48206E+3
   1.12654E+3   4.77060E+2
   9.32847E+2  -4.60930E+1
  -2.56542E+3   3.48828E+2
  -1.38390E+2   6.35645E+2
  -1.79885E+3   2.00371E+2
  -8.16017E+2   2.16963E+2
  -6.47755E+1   7.90648E+2
   8.53723E+2  -6.84762E+2
   1.66010E+3  -8.29480E+1
  -6.88722E+2  -1.01415E+3
  -5.40639E+2  -1.95266E+2
  -1.20759E+3  -3.45527E+2
  -5.75634E+2  -9.45948E+2
   1.32344E+2  -7.36847E+2
   8.15091E+2   4.21674E+2
  -1.30261E+3   6.99616E+2
   1.63189E+3  -4.16486E+2
  -1.06946E+2   3.49014E+1
   1.55689E+3   6.28758E+1
  -1.15512E+3  -1.34353E+3
   2.84357E+2  -5.73945E+2
  -1.44475E+3   5.26153E+2
  -1.28017E+2  -1.63216E+3
   5.52516E+2   3.82050E+2
   3.24782E+2   9.46752E+2
  -1.11338E+2  -1.42395E+3
  -1.76334E+2   1.70247E+3
  -3.39851E+2  -2.73267E+2
