 
 $NMID
 ID=''
 FMTDAT='(2E13.5)'
 TRAMP=   1.00000E+0
 VOLUME=   1.00000E+0
 $END
   2.54767E+2  -2.65440E+2
  -2.13667E+2   2.30661E+3
   4.88982E+3  -1.94193E+3
   2.36693E+3  -3.02204E+2
   1.00999E+3  -2.34383E+3
  -2.38958E+1  -2.42158E+3
  -1.51208E+3  -2.15647E+3
  -3.07503E+3  -1.98599E+3
  -8.30407E+2  -3.97893E+3
   3.35236E+2  -2.51150E+3
   1.05726E+3   1.41124E+3
  -2.54254E+2   3.16792E+3
  -5.12738E+2  -5.34943E+2
  -2.27158E+3   3.23000E+3
  -1.21020E+3   1.28127E+3
  -1.73920E+3   1.14756E+3
   1.77077E+3  -1.54597E+3
   2.11181E+3  -6.79206E+2
   2.41263E+3   5.31475E+2
   1.62176E+3  -5.16024E+2
   3.14704E+3  -1.81129E+2
   3.04299E+3   5.57069E+3
  -5.97019E+3   1.47684E+3
  -3.61719E+3  -4.30628E+3
   1.67145E+3  -4.06130E+3
   1.01128E+3   3.07501E+3
  -5.74014E+3  -1.03950E+3
  -2.06624E+3  -6.24291E+3
   1.76018E+3  -1.48971E+3
   1.37806E+3   3.06787E+3
   1.00489E+3   4.84275E+3
  -3.81239E+3   5.38955E+3
  -4.74255E+3  -1.67264E+3
  -4.57255E+3  -4.82063E+2
  -4.35842E+3  -3.92278E+3
  -9.89267E+2  -5.30796E+3
   2.46447E+3   4.27088E+2
   1.33975E+3  -1.11708E+3
   2.56606E+3   2.19578E+2
   2.08671E+3   2.20043E+3
  -3.72730E+3   3.88753E+3
  -6.60627E+3   6.59519E+2
   1.36925E+2  -4.85516E+3
   3.20050E+3  -2.96027E+3
   2.56637E+3   1.52296E+2
   2.71410E+3   1.65194E+3
   2.14950E+3   1.68936E+3
   6.25555E+2   2.50090E+3
  -1.99009E+2  -1.20363E+3
   3.61727E+2   1.01294E+3
  -1.25740E+3  -1.58110E+3
   3.46845E+3  -3.82558E+3
   4.93487E+3  -2.03859E+3
   5.04525E+3   2.85494E+3
  -5.59563E+1   3.95661E+3
  -1.12421E+3  -2.91902E+2
  -6.75373E+2  -1.54478E+2
  -5.27732E+3  -1.79036E+3
  -4.07470E+3  -3.90345E+3
   1.43193E+3  -4.61749E+3
   2.31395E+3  -9.71064E+2
   3.03093E+3   8.76993E+2
   2.50765E+3   1.23854E+3
  -1.85451E+3   1.94968E+3
  -9.81464E+2   2.28076E+3
   1.09429E+1   1.90473E+3
   1.61844E+2   1.31950E+3
  -7.78874E+2   2.11812E+3
  -1.10960E+3  -1.26828E+3
   1.18774E+3  -1.46605E+3
   7.14463E+2  -1.44680E+3
  -3.00301E+1   9.83662E+1
  -8.36618E+2  -1.31301E+3
   6.95122E+2  -1.19344E+3
  -1.31998E+3   9.49358E+1
  -1.14957E+3   5.12023E+2
  -7.61029E+2  -2.09539E+3
  -2.94943E+2  -8.37785E+2
   2.54623E+3  -7.47472E+2
   2.00188E+2   1.66042E+3
  -7.86882E+1  -5.08601E+2
  -1.19692E+3  -1.22520E+3
  -2.55081E+3  -2.02072E+3
  -1.32587E+3  -6.96600E+2
  -1.75976E+3  -2.18351E+3
  -9.03797E+2  -3.54912E+3
   4.94931E+2  -5.55422E+3
   1.97179E+3  -2.11582E+3
   1.85439E+3  -5.46891E+1
  -9.18158E+1   1.29443E+3
   5.64954E+2  -1.16491E+3
   3.83171E+3  -1.65499E+3
   1.21584E+3   2.44075E+3
  -7.11187E+2   5.20237E+2
  -1.22096E+3  -9.41213E+2
   1.38344E+3  -4.41852E+3
   1.21060E+3   1.44897E+2
   7.61120E+2   8.42666E+2
  -2.33104E+3   2.99179E+3
  -2.10701E+3  -1.66638E+3
  -4.54686E+2  -3.12515E+3
   3.07492E+3   1.13066E+3
   1.97548E+3   5.14933E+3
   8.27377E+2   3.19266E+3
   4.91995E+2   4.38908E+2
  -9.05565E+2   8.95507E+1
  -3.83300E+2  -3.03320E+2
  -1.64907E+3  -1.00795E+3
   3.62749E+2  -3.74413E+3
   1.89365E+3  -2.20716E+3
   2.50560E+3   1.23892E+3
   2.24041E+3   1.51717E+3
   2.95927E+3   2.83608E+3
   1.02275E+3   3.14671E+3
  -6.81133E+2   3.17351E+3
  -2.44082E+3   1.53357E+3
   1.38454E+3  -2.34773E+3
   2.59556E+3   3.10081E+1
   1.84488E+3   2.15803E+3
   1.38722E+3   2.55661E+3
  -9.46758E+2   1.77388E+3
  -1.66843E+3  -7.69120E+2
   5.69460E+1  -5.67241E+2
   1.11246E+2   2.62645E+2
  -1.33071E+2   1.47080E+3
  -5.66806E+2   1.69726E+3
   4.65385E+2   1.67242E+3
   3.17618E+2   7.25162E+2
   1.31335E+3   1.93951E+3
  -1.60830E+3  -7.16820E+2
   7.18852E+2  -9.14570E+2
  -7.77397E+2   6.78056E+1
   2.31108E+3  -3.53956E+2
   2.92969E+3   2.73250E+2
  -2.03953E+3   2.34247E+3
  -2.15317E+3  -3.19595E+2
  -7.08173E+2  -2.31559E+3
   7.85374E+2  -5.51133E+2
   3.69542E+2  -3.03858E+2
   4.69183E+2  -1.73705E+2
   1.43850E+3   1.04331E+1
   7.40613E+2  -1.10791E+3
   2.79597E+3   8.93087E+2
  -3.32750E+1   8.00141E+2
  -1.01172E+3   1.11767E+3
  -2.36773E+3   1.66892E+3
  -5.78088E+2  -1.82730E+2
  -8.73810E+2  -1.11245E+2
   1.30938E+3   8.24626E+1
  -3.98074E+2   3.81448E+2
   1.78635E+3   1.26369E+3
  -3.66822E+2  -1.27306E+3
   9.13611E+2   3.15989E+1
   1.59357E+3  -2.35798E+3
   8.48481E+2  -5.95840E+2
   7.45217E+2   1.29509E+3
   1.68208E+3   2.23131E+3
   7.68739E+2  -4.07196E+2
  -2.72373E+2   2.41840E+3
  -1.27811E+3   1.25873E+3
  -1.75419E+3   7.84582E+2
  -1.06987E+3   9.54432E+2
  -1.22775E+3   7.64056E+1
  -1.96059E+3  -6.61191E+2
   5.74777E+2   7.34075E+2
   3.55893E+2   1.77148E+3
  -7.15141E+2  -1.84368E+3
   1.93340E+3  -1.23989E+3
   1.80642E+3   1.65776E+3
  -5.30606E+2   1.66713E+3
  -1.39912E+3  -1.04532E+2
  -1.43262E+3  -3.01985E+1
  -1.75650E+3   3.57131E+1
  -5.34436E+2  -3.09399E+2
  -6.22590E+2  -1.00564E+3
   6.36010E+2   5.96744E+2
   1.35478E+3  -1.03464E+3
   1.25559E+3   7.57104E+2
   3.29081E+2   2.19026E+3
  -1.31889E+3  -9.20823E+2
  -7.31389E+2   1.83109E+2
  -6.44686E+1  -1.81431E+3
   2.34522E+2   1.07142E+3
   1.58502E+3   6.75073E+2
   4.26417E+2   1.71429E+3
  -9.11165E+2   1.19298E+3
  -8.52599E+2   2.02027E+3
  -2.31146E+3  -1.62507E+2
  -1.12285E+3  -2.43400E+3
   9.50483E+2   8.96094E+2
  -6.32889E+2  -1.24887E+3
   5.56342E+2   6.85447E+2
   6.13629E+2   1.93168E+2
   4.44658E+2   6.99366E+2
  -1.41478E+3  -9.14352E+2
  -6.77493E+2   7.61024E+2
  -1.26622E+3   5.74905E+1
   5.64805E+2  -7.49265E+2
   1.65725E+3  -4.36028E+2
   1.54601E+3  -5.44054E+2
   9.08440E+2   2.52526E+3
  -1.79943E+3   2.26029E+3
  -2.62905E+3  -2.96830E+3
  -2.71586E+2  -5.06215E+2
   6.98788E+2  -1.16329E+3
  -9.78630E+2   6.85862E+1
  -4.11092E+1   1.29845E+2
   8.48636E+2  -8.95797E+2
  -1.08290E+2   1.07584E+3
  -8.53200E+2   6.85731E+2
  -2.80526E+3   1.78661E+3
   8.47761E+1  -1.75042E+3
  -4.95740E+2   2.82687E+2
   2.43917E+3   1.08066E+3
   4.61262E+2   1.27652E+3
  -9.05895E+1   3.71312E+2
  -1.55422E+2  -1.28385E+3
   2.98697E+2   2.53598E+2
  -4.98197E+0  -8.60301E+2
   1.39160E+3  -1.45640E+3
   6.63828E+2   1.02818E+2
  -1.18487E+3   8.20003E+2
  -1.06030E+2   2.56795E+2
   3.37429E+1  -3.79638E+2
   1.13491E+3  -8.19716E+2
  -1.06502E+3   3.82586E+1
   1.55568E+2  -8.41803E+2
  -1.06508E+3   1.27242E+3
  -1.89225E+3   5.02575E+2
  -2.50385E+3   9.37977E+2
  -2.19678E+3  -9.67383E+2
  -6.87498E+2   6.09633E+2
  -5.16775E+2   1.27346E+3
  -1.54610E+2  -1.92086E+3
   1.37550E+3  -6.80486E+2
   1.03449E+3  -5.19044E+2
  -8.41855E+1   8.90671E+2
  -2.62235E+3   1.41176E+3
  -5.65405E+2   1.16755E+3
   2.27794E+3  -2.43759E+2
   9.84857E+2   5.17660E+2
   7.56030E+2   9.29281E+1
  -1.36213E+2   2.50670E+3
  -2.22118E+2   2.59555E+2
  -4.29720E+2   2.66671E+3
  -1.08537E+3  -9.62537E+2
   1.53754E+3  -1.05994E+3
  -5.52372E+2   5.11396E+2
   9.66742E+2   3.26359E+2
  -3.02027E+1   9.74862E+2
   6.03724E+2   4.13242E+2
  -5.29422E+2  -1.02560E+3
   8.46423E+2  -1.11648E+3
  -4.20171E+2  -3.83617E+2
   6.65837E+2   8.23404E+2
   1.05327E+3  -9.33445E+1
   1.46153E+3  -9.31028E+2
   1.11106E+3   1.87197E+3
  -2.10996E+2   1.22703E+3
  -1.33860E+3   1.62149E+3
  -7.19379E+2  -9.16604E+2
  -1.83161E+2  -1.40846E+2
   1.39062E+3  -2.78883E+2
   3.69042E+2  -3.87383E+2
  -1.25677E+3  -6.88281E+2
   2.00518E+3   1.72311E+2
   1.45403E+3   4.02458E+2
   2.01740E+3  -7.06329E+1
  -3.16736E+1   2.00691E+2
  -1.30398E+3  -1.07965E+3
   1.57548E+3   5.40984E+2
   9.27104E+2  -7.40398E+2
   2.53488E+3   2.27579E+2
  -1.19047E+3  -5.32171E+2
   8.01520E+2  -7.49987E+2
   1.75119E+2   5.14471E+2
  -6.02153E+2   8.83607E+2
   9.07526E+2   7.57534E+1
  -7.30126E+2   1.36525E+3
  -4.99797E+2  -1.72776E+2
   1.60906E+2  -3.64834E+2
   1.55498E+3  -1.15143E+3
   2.66225E+2   1.12505E+2
   3.39014E+2   8.08954E+2
  -9.53236E+2   1.03337E+3
   1.26481E+2  -1.36273E+3
  -1.43484E+3  -3.04845E+2
  -8.68429E+2  -1.43313E+3
   1.22397E+3   1.06278E+3
  -4.78106E+2  -4.78978E+2
   1.53728E+2   5.48001E+2
  -1.64649E+3   1.22255E+3
   8.17513E+2  -2.84860E+3
  -4.27823E+1   1.40595E+3
  -1.26813E+3  -5.69517E+2
  -2.13705E+2   2.68627E+2
  -1.81341E+2  -4.76586E+2
   1.55973E+3  -5.20045E+2
   6.44404E+2   1.11546E+3
   3.63268E+2   1.02655E+3
  -1.64033E+2   8.33893E+2
  -4.89394E+2   7.51389E+1
  -3.37698E+2  -1.26674E+3
  -7.67404E+2  -2.53241E+3
  -1.33185E+3  -1.99476E+3
  -6.56963E+2  -9.87337E+2
   4.68657E+2   1.48769E+3
   3.20853E+1   6.77840E+2
  -4.86341E+0   1.45948E+3
  -1.14659E+3   1.17929E+3
  -2.25936E+3  -2.38030E+2
  -1.08923E+2   2.50896E+2
  -1.01647E+3  -9.02222E+2
  -2.05513E+3  -4.17306E+2
   8.30831E+2  -1.71132E+3
   5.97261E+2   1.43192E+3
   9.98134E+2   1.27600E+2
   1.94656E+3   1.90002E+3
  -7.29670E+2  -8.59518E+1
   8.68264E+2  -2.98083E+2
   1.82156E+3  -9.57856E+2
  -1.11180E+3  -5.19942E+2
  -1.04579E+3   1.86377E+3
  -3.32024E+2  -1.45826E+2
  -3.60184E+1   3.84239E+2
  -7.13914E+2  -1.44911E+2
  -1.07807E+1  -8.58536E+2
  -1.10201E+3  -1.16239E+3
   1.06910E+3  -3.23006E+3
   1.12629E+3   6.51714E+2
   6.49247E+2   1.30667E+3
  -4.63959E+2  -2.03257E+2
  -7.83366E+2   8.80140E+2
   1.64787E+2   3.39769E+2
   7.79091E+2  -4.82000E+2
   1.07154E+3  -5.79933E+2
  -1.21389E+3  -1.73955E+2
  -1.18142E+3   3.43478E+2
  -6.36428E+2  -1.19338E+3
   3.92142E+2   4.78458E+2
  -2.80346E+2   1.73509E+3
  -9.66808E+2  -2.47238E+3
  -7.94246E+2  -6.43954E+2
   2.10244E+3   1.44870E+2
  -3.67157E+2   2.38324E+2
  -2.45152E+3  -6.12133E+2
  -2.06282E+3   5.45657E+2
   1.48438E+3   6.20940E+2
   8.71822E+2   2.45760E+2
   1.73286E+2  -7.43580E+2
   7.98155E+1   1.79887E+2
   2.14456E+3   1.24527E+3
   1.29948E+3  -1.39319E+3
   5.44784E+2  -1.44594E+3
  -1.58103E+3   7.52834E+2
  -1.17494E+3   8.37207E+2
  -2.00547E+3   1.20726E+3
  -1.29645E+3   4.52539E+2
   1.17864E+3   1.04799E+3
  -2.49468E+3   6.29705E+2
   1.89692E+2  -1.32145E+3
   9.10846E+2  -1.35352E+2
  -8.18915E+2   2.04988E+3
   1.93527E+3  -1.84844E+3
   5.77436E+2  -7.58596E+2
  -1.20508E+3  -9.34395E+2
  -1.13267E+3  -1.64684E+3
