 LCModel (Version 6.3-1N) Copyright: S.W. Provencher.          Ref.: Magn. Reson. Med. 30:672-679 (1993).                
 Slice_N1@22_21  02-Jun-2023 14:37:20
 27 lines in following concentration table = NCONC+1
    Conc.  %SD /Cr+PCr  Metabolite                                         
 1.19E-06  29% 1.4E-04 Mac                                                 
 3.15E-02  26%   3.768 Cr                                                  
 3.54E-02  23%   4.232 PCr                                                 
 8.63E-02  11%  10.309 Ins                                                 
 8.89E-02   8%  10.621 NAA                                                 
 7.12E-02  12%   8.515 Tau                                                 
 1.31E-02  41%   1.562 PCho                                                
 5.66E-04 922% 6.8E-02 GPC                                                 
    0.106  10%  12.635 Glu                                                 
 3.76E-02  20%   4.497 Gln                                                 
    0.000 999%   0.000 Ala                                                 
 1.89E-03 724%   0.226 Asc                                                 
 6.80E-03 107%   0.813 Asp                                                 
 9.35E-03  43%   1.117 GABA                                                
 8.89E-03  53%   1.063 Glc                                                 
 6.00E-03  78%   0.717 GSH                                                 
    0.000 999%   0.000 Lac                                                 
    0.000 999%   0.000 NAAG                                                
    0.000 999%   0.000 PE                                                  
 1.36E-02  16%   1.630 GPC+PCho                                            
 8.89E-02   8%  10.621 NAA+NAAG                                            
    0.143   9%  17.131 Glu+Gln                                             
 6.69E-02  10%   8.000 Cr+PCr                                              
 8.89E-02   8%  10.621 NAA+NAAG                                            
 6.69E-02  10%   8.000 Cr+PCr                                              
    0.143   9%  17.131 Glu+Gln                                             
   6 lines in following misc. output table
  FWHM = 0.029 ppm    S/N =   4                                            
  Data shift = 0.035 ppm                                                   
  Ph:  42 deg       0.1 deg/ppm                                            
  alphaB,S = 3.1E+01,   1.1E+01                                            
   18 spline knots.   Ns = 6(1)                                            
   5 inflections.     1 extrema                                            
  654 points on ppm-axis = NY
      4.000000     3.994181     3.988363     3.982544     3.976726     3.970907     3.965088     3.959270     3.953451     3.947633
      3.941814     3.935995     3.930177     3.924358     3.918540     3.912721     3.906902     3.901084     3.895265     3.889446
      3.883628     3.877809     3.871991     3.866172     3.860353     3.854535     3.848716     3.842898     3.837079     3.831260
      3.825442     3.819623     3.813805     3.807986     3.802167     3.796349     3.790530     3.784712     3.778893     3.773074
      3.767256     3.761437     3.755619     3.749800     3.743981     3.738163     3.732344     3.726526     3.720707     3.714888
      3.709070     3.703251     3.697433     3.691614     3.685795     3.679977     3.674158     3.668339     3.662521     3.656702
      3.650884     3.645065     3.639246     3.633428     3.627609     3.621791     3.615972     3.610153     3.604335     3.598516
      3.592698     3.586879     3.581060     3.575242     3.569423     3.563605     3.557786     3.551967     3.546149     3.540330
      3.534512     3.528693     3.522874     3.517056     3.511237     3.505419     3.499600     3.493781     3.487963     3.482144
      3.476326     3.470507     3.464688     3.458870     3.453051     3.447232     3.441414     3.435595     3.429777     3.423958
      3.418139     3.412321     3.406502     3.400684     3.394865     3.389046     3.383228     3.377409     3.371591     3.365772
      3.359953     3.354135     3.348316     3.342498     3.336679     3.330860     3.325042     3.319223     3.313405     3.307586
      3.301767     3.295949     3.290130     3.284312     3.278493     3.272674     3.266856     3.261037     3.255219     3.249400
      3.243581     3.237763     3.231944     3.226125     3.220307     3.214488     3.208670     3.202851     3.197032     3.191214
      3.185395     3.179577     3.173758     3.167939     3.162121     3.156302     3.150484     3.144665     3.138846     3.133028
      3.127209     3.121391     3.115572     3.109753     3.103935     3.098116     3.092298     3.086479     3.080660     3.074842
      3.069023     3.063205     3.057386     3.051567     3.045749     3.039930     3.034111     3.028293     3.022474     3.016656
      3.010837     3.005018     2.999200     2.993381     2.987563     2.981744     2.975925     2.970107     2.964288     2.958470
      2.952651     2.946832     2.941014     2.935195     2.929377     2.923558     2.917739     2.911921     2.906102     2.900284
      2.894465     2.888646     2.882828     2.877009     2.871191     2.865372     2.859553     2.853735     2.847916     2.842098
      2.836279     2.830460     2.824642     2.818823     2.813004     2.807186     2.801367     2.795549     2.789730     2.783911
      2.778093     2.772274     2.766456     2.760637     2.754818     2.749000     2.743181     2.737363     2.731544     2.725725
      2.719907     2.714088     2.708270     2.702451     2.696632     2.690814     2.684995     2.679177     2.673358     2.667539
      2.661721     2.655902     2.650084     2.644265     2.638446     2.632628     2.626809     2.620991     2.615172     2.609353
      2.603535     2.597716     2.591897     2.586079     2.580260     2.574442     2.568623     2.562804     2.556986     2.551167
      2.545349     2.539530     2.533711     2.527893     2.522074     2.516256     2.510437     2.504618     2.498800     2.492981
      2.487163     2.481344     2.475525     2.469707     2.463888     2.458070     2.452251     2.446432     2.440614     2.434795
      2.428977     2.423158     2.417339     2.411521     2.405702     2.399884     2.394065     2.388246     2.382428     2.376609
      2.370790     2.364972     2.359153     2.353335     2.347516     2.341697     2.335879     2.330060     2.324242     2.318423
      2.312604     2.306786     2.300967     2.295149     2.289330     2.283511     2.277693     2.271874     2.266056     2.260237
      2.254418     2.248600     2.242781     2.236963     2.231144     2.225325     2.219507     2.213688     2.207870     2.202051
      2.196232     2.190414     2.184595     2.178777     2.172958     2.167139     2.161321     2.155502     2.149683     2.143865
      2.138046     2.132228     2.126409     2.120590     2.114772     2.108953     2.103135     2.097316     2.091497     2.085679
      2.079860     2.074042     2.068223     2.062404     2.056586     2.050767     2.044949     2.039130     2.033311     2.027493
      2.021674     2.015856     2.010037     2.004218     1.998400     1.992581     1.986763     1.980944     1.975126     1.969307
      1.963489     1.957670     1.951852     1.946033     1.940215     1.934397     1.928578     1.922760     1.916941     1.911123
      1.905304     1.899486     1.893667     1.887849     1.882030     1.876212     1.870393     1.864575     1.858756     1.852938
      1.847119     1.841301     1.835482     1.829664     1.823845     1.818027     1.812208     1.806390     1.800571     1.794753
      1.788934     1.783116     1.777297     1.771479     1.765660     1.759842     1.754023     1.748205     1.742386     1.736568
      1.730749     1.724931     1.719113     1.713294     1.707476     1.701657     1.695839     1.690020     1.684202     1.678383
      1.672565     1.666746     1.660928     1.655109     1.649291     1.643472     1.637654     1.631835     1.626017     1.620198
      1.614380     1.608561     1.602743     1.596924     1.591106     1.585287     1.579469     1.573650     1.567832     1.562013
      1.556195     1.550376     1.544558     1.538739     1.532921     1.527102     1.521284     1.515465     1.509647     1.503829
      1.498010     1.492192     1.486373     1.480555     1.474736     1.468918     1.463099     1.457281     1.451462     1.445644
      1.439825     1.434007     1.428188     1.422370     1.416551     1.410733     1.404914     1.399096     1.393277     1.387459
      1.381640     1.375822     1.370003     1.364185     1.358366     1.352548     1.346729     1.340911     1.335092     1.329274
      1.323455     1.317637     1.311818     1.306000     1.300182     1.294363     1.288545     1.282726     1.276908     1.271089
      1.265271     1.259452     1.253634     1.247815     1.241997     1.236178     1.230360     1.224541     1.218723     1.212904
      1.207086     1.201267     1.195449     1.189630     1.183812     1.177993     1.172175     1.166356     1.160538     1.154719
      1.148901     1.143082     1.137264     1.131445     1.125627     1.119808     1.113990     1.108171     1.102353     1.096534
      1.090716     1.084898     1.079079     1.073261     1.067442     1.061624     1.055805     1.049987     1.044168     1.038350
      1.032531     1.026713     1.020894     1.015076     1.009257     1.003439     0.997620     0.991802     0.985983     0.980165
      0.974346     0.968528     0.962709     0.956891     0.951072     0.945254     0.939435     0.933617     0.927798     0.921980
      0.916161     0.910343     0.904524     0.898706     0.892887     0.887069     0.881251     0.875432     0.869614     0.863795
      0.857977     0.852158     0.846340     0.840521     0.834703     0.828884     0.823066     0.817247     0.811429     0.805610
      0.799792     0.793973     0.788155     0.782336     0.776518     0.770699     0.764881     0.759062     0.753244     0.747425
      0.741607     0.735788     0.729970     0.724151     0.718333     0.712514     0.706696     0.700877     0.695059     0.689240
      0.683422     0.677603     0.671785     0.665967     0.660148     0.654330     0.648511     0.642693     0.636874     0.631056
      0.625237     0.619419     0.613600     0.607782     0.601963     0.596145     0.590326     0.584508     0.578689     0.572871
      0.567052     0.561234     0.555415     0.549597     0.543778     0.537960     0.532141     0.526323     0.520504     0.514686
      0.508867     0.503049     0.497230     0.491412     0.485593     0.479775     0.473956     0.468138     0.462319     0.456501
      0.450682     0.444864     0.439045     0.433227     0.427408     0.421590     0.415771     0.409953     0.404134     0.398316
      0.392497     0.386679     0.380860     0.375042     0.369223     0.363405     0.357586     0.351767     0.345949     0.340130
      0.334312     0.328493     0.322675     0.316856     0.311038     0.305219     0.299401     0.293582     0.287764     0.281945
      0.276127     0.270308     0.264490     0.258671     0.252853     0.247034     0.241216     0.235397     0.229579     0.223760
      0.217942     0.212123     0.206305     0.200486
 NY phased data points follow
  -3.65641E-01 -2.62518E-01 -3.96493E-01  1.00759E-01 -1.16594E-01 -2.51283E-01 -3.15965E-01 -1.69360E-01  2.83986E-02 -4.02897E-02
   2.71012E-01  2.93722E-01  1.73267E-01  2.32264E-01  1.43547E-01  1.05693E-01  3.70359E-01  7.96288E-04  9.27249E-02  3.35423E-02
   6.39353E-02  2.61984E-01  1.09595E-02 -3.21890E-02 -3.18629E-01 -2.59981E-02 -5.25982E-02 -1.96085E-01  4.97942E-02  6.28763E-02
  -9.53482E-02  1.64302E-01 -3.88185E-03 -2.37271E-01 -3.08401E-01 -4.27117E-01 -2.75310E-02 -3.74367E-01 -4.24500E-01 -1.95951E-03
   1.14788E-02  7.16384E-02  1.89733E-01  3.60772E-01  3.33330E-01  1.76792E-01  7.67062E-01  4.07146E-01  7.56120E-02  3.02100E-01
   1.62475E-02  9.31687E-02  2.92078E-01  3.35110E-01 -2.92437E-01  1.12862E-01  6.59962E-02 -1.94673E-01 -9.81602E-02 -1.35873E-01
  -2.72482E-02 -3.44863E-01 -1.75590E-01 -3.75796E-01 -4.08440E-01 -4.53045E-01 -3.68002E-01 -1.26459E-01 -8.33132E-02  1.48607E-01
   2.42054E-01  2.38114E-02 -8.55511E-02 -1.77623E-01 -1.50036E-01 -3.23400E-01 -6.98959E-02  1.77176E-01 -5.80674E-01 -2.68993E-01
  -3.34938E-01 -5.53990E-01 -2.59689E-01  3.34737E-01  1.58254E-01  1.35341E-01  4.87067E-01  1.12374E-01  4.38927E-01  9.06686E-02
   1.14077E-01  4.50469E-01  3.72288E-01 -2.67530E-01  4.15277E-02  4.44802E-01  9.03765E-02  8.98077E-02 -1.09238E-01 -7.96523E-02
  -4.30554E-01 -5.36670E-02 -4.32030E-03  1.23245E-03  2.52739E-01  4.19172E-02  3.79892E-01  6.66516E-01  5.19410E-01  5.42446E-01
   5.27913E-01  4.04344E-01  6.88372E-01  4.15336E-01  3.12219E-01  3.58371E-01  5.62089E-02  3.33810E-01  3.93318E-01  2.36673E-01
   4.49352E-01  2.51804E-01  2.38561E-02  2.73019E-01  4.43310E-01 -4.91832E-02 -3.22370E-02 -1.78592E-01 -5.10891E-01 -3.90075E-01
  -5.89146E-01 -4.51404E-01 -6.85504E-01 -3.36012E-01 -3.71615E-01 -7.19282E-01 -6.54658E-01 -5.50946E-01 -7.13096E-01 -6.10552E-01
   1.63391E-02 -5.36839E-01 -4.34981E-01 -7.21010E-03  1.34836E-01 -5.43869E-02  1.42838E-01  1.91494E-01  1.35947E-01  4.11992E-01
   8.59650E-02  2.19743E-01  9.76997E-02  2.82181E-01  4.92686E-01  2.52942E-01  2.81460E-01  1.22274E-01  3.45469E-02  2.72945E-01
   1.84982E-01  5.95078E-01  4.38311E-01  6.00139E-01  1.13525E+00  6.20984E-01  7.07346E-01  3.25184E-01 -4.50521E-03 -4.00439E-01
  -4.53811E-01 -5.94868E-01 -9.64347E-01 -4.77416E-01 -4.22132E-01 -4.76241E-01 -4.20494E-01 -4.66610E-01 -4.49102E-01 -3.50581E-01
  -2.91983E-02 -1.20969E-01 -3.56622E-01 -2.16724E-02 -3.78515E-01 -4.28006E-01 -6.11258E-01 -8.53958E-02 -3.38092E-02 -4.60072E-01
   1.49107E-01 -4.33841E-01  8.33872E-02 -5.19658E-02 -2.39783E-01  2.13911E-02 -1.72077E-01  4.50455E-01 -7.51486E-02 -1.15569E-01
   1.93667E-01 -2.08828E-01 -4.84376E-02 -2.70329E-01 -3.63940E-01 -3.64438E-01 -3.53094E-01  2.84965E-01  1.21098E-01  4.94603E-01
   1.30057E-01 -5.47646E-01 -1.06699E-01  8.31394E-02  2.38959E-01 -8.47890E-02 -1.22227E-01  4.65937E-02  4.78330E-02 -7.84554E-03
   1.85498E-01 -1.02909E-02 -2.01886E-01  1.32462E-01  1.48208E-01  2.52591E-01  3.70559E-01  3.85376E-01  2.84020E-01  1.37142E-01
   3.31394E-01  2.84001E-01  1.35332E-01  2.58120E-01 -3.29743E-02 -1.50961E-01 -9.44064E-02  7.04885E-02 -2.27243E-02  1.25198E-01
   4.98985E-02 -2.13075E-01  1.80687E-01  1.27474E-02 -1.21660E-01 -1.00031E-01  1.06279E-01 -2.43084E-02 -9.47984E-02  8.32098E-02
   1.54168E-02 -1.59533E-01 -2.30281E-01 -2.23340E-01 -1.10136E-01  7.35492E-02 -3.22406E-01 -1.91945E-01 -2.22391E-01 -2.83168E-01
  -1.87455E-01  1.89870E-02  2.98793E-01  1.14497E-02 -1.05759E-01 -1.74518E-01  8.03387E-03  3.01746E-01  3.48390E-01  1.01937E-01
   9.04254E-02  2.13587E-01 -9.98685E-02 -6.41210E-02  2.20362E-01 -1.83123E-01 -1.50855E-01  1.31404E-01 -1.96348E-01 -3.29126E-01
  -4.06545E-01 -4.33410E-01 -3.99278E-01 -2.16238E-01 -1.24436E-01  9.85993E-02  5.60387E-01  6.11384E-01  7.06232E-01  5.41560E-01
   3.16524E-01  3.68267E-01  1.90804E-01  2.75589E-01 -1.64343E-01  3.83442E-02  6.07105E-01  1.22598E-01  1.65852E-01  1.05478E-01
   3.87141E-01  4.84256E-01  1.10226E-01  2.74301E-01  2.63592E-01  3.36304E-01  6.58721E-01  6.56870E-01  3.93967E-01  3.15897E-01
   3.76519E-01  3.34995E-01  3.33514E-01  5.16186E-01  1.81378E-01  2.35550E-01  1.10408E-01 -1.31509E-01 -1.44483E-01 -4.13485E-01
  -2.09782E-01 -4.41081E-01 -4.52107E-01 -5.24805E-01 -5.52243E-01 -4.02150E-01 -1.63894E-01  2.18235E-01  5.82633E-02  6.84575E-02
  -1.33989E-01  9.40369E-02  1.73854E-01 -6.85313E-02  9.80681E-03 -2.51077E-01  8.13687E-03 -2.92701E-01 -6.64288E-01 -8.24534E-02
  -7.25153E-01 -1.35479E+00 -1.36101E+00 -1.50273E+00 -8.17367E-01 -6.31115E-01 -8.83153E-01 -6.61400E-01 -1.39212E-01  4.70755E-01
   1.18989E-01  3.94362E-02  2.89055E-01  2.26620E-02  2.56970E-01 -4.48290E-02 -1.88774E-01  2.56580E-01  2.03122E-01  1.00311E-01
  -1.47194E-01  1.95470E-01 -1.44785E-02 -1.39252E-04  4.82687E-01 -2.75490E-01 -4.11379E-02  6.95117E-02  1.13945E-01  3.40746E-01
  -9.76805E-02 -2.38526E-01 -1.64751E-02  4.80456E-01  4.57931E-01  5.34444E-01 -7.07736E-02 -2.41073E-02  2.49422E-01  9.52485E-02
   2.69188E-01 -6.18361E-02  2.46928E-01  1.97421E-01  1.80897E-01  2.77627E-01  2.99366E-01 -9.17456E-02  3.87847E-02  4.36975E-01
   7.42541E-02  4.67232E-02  3.24650E-02  3.61178E-01  1.27699E-01  1.63685E-01  1.24269E-01  2.60185E-01  3.11522E-01 -1.14667E-01
   9.59338E-02 -1.08213E-01 -8.53952E-03  2.82089E-01  5.04420E-01  5.85377E-02 -2.85467E-01 -7.66765E-02 -1.51685E-01  2.16975E-01
   1.07950E-01 -2.76917E-01 -6.75976E-02 -5.10118E-02 -1.36123E-01 -1.03172E-01 -9.47713E-02 -2.18207E-01  3.18898E-02  2.26829E-01
  -4.00464E-02 -5.28749E-02 -1.53532E-01 -2.35314E-01 -2.60740E-01  6.52380E-02  3.92259E-02 -2.20629E-02 -8.00419E-02 -3.31437E-01
  -1.07293E-01 -3.76514E-02  4.92641E-02 -8.96839E-02  2.93233E-02 -2.05173E-02 -3.24392E-02  2.05896E-01  1.29088E-02 -1.29313E-01
  -1.29530E-01 -1.38613E-01 -1.32908E-01 -1.30087E-01  1.02605E-01  1.70113E-01  6.09064E-03  3.26000E-02  1.44325E-01  5.85709E-01
   3.96713E-02  5.11098E-02  1.89376E-01  1.19456E-01  2.36767E-01 -2.96861E-01  1.70855E-01 -9.73480E-02 -3.50176E-01 -1.73794E-01
   3.39267E-02  4.00948E-01  1.53048E-01  1.79517E-01 -6.29050E-02 -2.09280E-01 -1.74814E-02 -3.42671E-01 -3.69630E-01 -2.03726E-01
  -3.34422E-01 -1.67835E-01  8.63489E-02  6.49184E-02 -3.68835E-02 -1.49896E-01 -2.50575E-01  7.71902E-02 -1.73696E-01 -2.17685E-01
  -8.79091E-03  1.27708E-01  2.31321E-01 -1.46533E-01 -9.59094E-02  1.36219E-01  8.48164E-02 -2.34918E-01  4.25616E-01  1.89695E-01
  -1.89667E-01  3.21734E-01  7.61945E-02 -2.70827E-01 -1.01764E-02  2.24834E-01 -4.52853E-02 -9.63576E-03 -1.54926E-02  3.39370E-01
   1.82912E-01  3.06410E-01  8.43087E-02 -3.22527E-01  1.40284E-02 -1.17309E-01 -1.79482E-02  1.72099E-01  1.92787E-01  8.25133E-02
   2.55524E-01  3.36861E-02  1.11883E-01  1.24138E-01 -1.37951E-01  3.95114E-02  2.03748E-01 -1.76181E-02  7.33544E-02 -4.36678E-02
  -1.25040E-01  2.51626E-01 -4.19757E-01 -2.32931E-01 -1.51328E-01 -3.24347E-01 -2.88491E-01 -2.58551E-01 -3.05271E-01 -3.83113E-01
  -1.23925E-01 -1.03184E-01 -7.71291E-02 -3.76221E-01 -4.24201E-01 -2.27434E-01  2.44799E-01  1.50042E-02 -1.78950E-01 -6.12117E-02
  -1.21757E-01 -6.22488E-02  9.60197E-02 -9.16623E-02 -1.48749E-01  2.32132E-01  2.49915E-01  2.49797E-01 -2.87749E-01  1.61917E-01
   3.15924E-01  1.25351E-01  1.85702E-01  8.81489E-03  1.69099E-01  8.18822E-02 -9.34581E-02 -6.91878E-02  9.74483E-02  1.18448E-01
   8.76014E-02 -1.03933E-01  2.56923E-01 -1.16159E-02  3.31702E-01  3.23757E-01 -2.24931E-01 -5.79987E-02  1.36067E-01  5.37508E-01
  -1.96890E-02  1.20357E-01  2.37259E-02 -1.47163E-01 -2.94315E-02 -1.02997E-02  1.51232E-02  4.73653E-02 -1.76024E-01 -4.39503E-01
   3.03635E-02 -4.18757E-02 -3.32976E-02 -1.04968E-01  2.35002E-01  1.95923E-01 -8.26718E-02  3.72310E-02 -8.25865E-02  1.00999E-01
   1.76042E-01  8.28019E-02  2.17159E-01  2.78855E-01 -2.45865E-02  1.81423E-01  1.61795E-01 -1.34659E-01  1.08094E-01  1.05260E-01
  -1.00039E-01  1.51987E-01 -4.44531E-03 -1.79720E-01 -8.17290E-02 -1.60064E-01 -2.38142E-02  6.51912E-02  5.85797E-02  3.06874E-01
   4.20813E-01  2.64366E-01  3.42046E-01 -3.87391E-02  1.49683E-01  1.24779E-01 -1.42768E-01  2.98527E-01  1.73141E-01 -1.78278E-01
  -2.26801E-02  1.89067E-01 -1.51391E-01  1.82974E-01 -5.32710E-02 -4.53010E-01 -1.66602E-01 -4.37879E-02  1.73302E-01 -1.15902E-01
   8.36251E-02  3.43880E-01  5.94781E-02  2.50861E-02 -3.09119E-02  1.13844E-01  1.14271E-01 -2.75199E-02  1.11922E-01  6.86811E-02
   1.09574E-01 -1.65787E-02 -4.31848E-02  5.21982E-02 -2.99715E-02 -1.07646E-01 -2.58994E-02 -4.56706E-02 -6.69624E-02 -7.70142E-02
  -2.58957E-01  1.08644E-03 -2.16725E-01 -3.02144E-02
 NY points of the fit to the data follow
  -1.75304E-02 -1.63606E-02 -1.60837E-02 -1.64631E-02 -1.73247E-02 -2.08667E-02 -1.91669E-02  2.54105E-02  3.34458E-02  5.96604E-02
   1.91804E-01  3.02241E-01  3.48683E-01  3.13320E-01  2.99793E-01  3.52158E-01  4.08517E-01  3.62459E-01  2.36647E-01  1.71604E-01
   1.46875E-01  1.14719E-01  4.01167E-02 -6.12697E-03 -2.93853E-02 -4.94302E-02 -6.29496E-02 -7.73469E-02 -9.10590E-02 -1.00309E-01
  -1.10753E-01 -1.22797E-01 -1.39170E-01 -1.65020E-01 -1.91343E-01 -2.28009E-01 -2.41883E-01 -2.57582E-01 -2.47970E-01 -1.66958E-01
  -5.96220E-02  9.15474E-02  2.18417E-01  3.30285E-01  3.93187E-01  4.08526E-01  3.76613E-01  3.09668E-01  2.56737E-01  1.91758E-01
   1.44953E-01  8.83240E-02  5.56277E-02  2.52350E-02 -7.75317E-03 -4.94669E-02 -8.86785E-02 -1.31270E-01 -2.01257E-01 -2.30866E-01
  -2.80187E-01 -3.72592E-01 -3.19992E-01 -3.07409E-01 -3.32213E-01 -2.00682E-01 -1.07266E-01 -3.78392E-03  1.72351E-01  2.55561E-01
   2.76576E-01  3.45892E-01  3.22399E-01  2.31547E-01  2.02765E-01  1.00580E-01 -1.91668E-02 -8.21639E-02 -2.51138E-01 -4.08743E-01
  -3.81329E-01 -3.27353E-01 -2.22930E-01 -5.61266E-02  6.49653E-02  2.11123E-01  3.74789E-01  3.92897E-01  3.50811E-01  3.77102E-01
   3.55453E-01  2.97025E-01  2.55705E-01  2.04518E-01  1.48885E-01  6.54977E-02 -3.55313E-02 -1.49321E-01 -2.60902E-01 -2.99444E-01
  -2.71187E-01 -1.70976E-01 -4.10199E-02  7.50668E-02  1.66784E-01  2.39993E-01  2.94791E-01  3.18962E-01  3.32560E-01  3.25548E-01
   3.24429E-01  3.24125E-01  3.22219E-01  3.21253E-01  3.21280E-01  3.21475E-01  3.23373E-01  3.29144E-01  3.13567E-01  3.13230E-01
   3.22424E-01  2.42473E-01  2.10332E-01  1.58714E-01  6.37680E-02 -2.36486E-02 -1.42635E-01 -2.63638E-01 -4.26183E-01 -4.95499E-01
  -5.67099E-01 -5.16576E-01 -4.64392E-01 -3.72169E-01 -2.79496E-01 -4.43846E-01 -5.61634E-01 -6.50435E-01 -5.91403E-01 -4.40033E-01
  -3.32720E-01 -3.21272E-01 -2.20710E-01 -5.53764E-02 -1.79341E-02  1.58136E-02  4.44022E-02  6.85268E-02  8.92765E-02  1.08343E-01
   1.26197E-01  1.43193E-01  1.60035E-01  1.77575E-01  1.95733E-01  2.15729E-01  2.38409E-01  2.63845E-01  2.93263E-01  3.29146E-01
   3.77286E-01  4.91232E-01  5.01233E-01  6.05610E-01  7.39917E-01  6.27013E-01  5.31176E-01  2.00984E-01 -1.68524E-01 -3.72141E-01
  -4.95383E-01 -5.87899E-01 -5.90166E-01 -5.36414E-01 -5.38085E-01 -4.13208E-01 -3.61030E-01 -3.21115E-01 -2.93093E-01 -2.73646E-01
  -2.47411E-01 -2.28528E-01 -2.11455E-01 -2.00732E-01 -1.92289E-01 -1.84195E-01 -1.74336E-01 -1.67559E-01 -1.61148E-01 -1.53901E-01
  -1.48274E-01 -1.40261E-01 -1.32613E-01 -1.25253E-01 -1.19148E-01 -1.12174E-01 -1.05761E-01 -9.90605E-02 -9.25150E-02 -8.68018E-02
  -8.02828E-02 -7.34283E-02 -6.73110E-02 -6.42435E-02 -6.44600E-02 -6.32489E-02 -5.84206E-02 -5.48838E-02 -5.68843E-02 -6.23630E-02
  -6.71234E-02 -6.85771E-02 -6.90553E-02 -7.06172E-02 -7.22630E-02 -7.23310E-02 -7.17569E-02 -7.19349E-02 -7.29831E-02 -7.54890E-02
  -5.96740E-02 -3.76070E-02 -2.99857E-02  2.22348E-02  1.18581E-01  1.82079E-01  2.00372E-01  2.01096E-01  2.26265E-01  2.82754E-01
   2.93568E-01  2.24166E-01  1.41802E-01  9.76600E-02  6.49443E-02  1.81047E-02 -2.92297E-02 -5.59486E-02 -6.64356E-02 -7.85499E-02
  -8.77074E-02 -9.59864E-02 -1.03950E-01 -1.09870E-01 -1.17468E-01 -1.23898E-01 -1.30173E-01 -1.38390E-01 -1.43194E-01 -1.52909E-01
  -1.66579E-01 -1.83884E-01 -1.88761E-01 -2.13635E-01 -2.32030E-01 -1.97769E-01 -1.63118E-01 -1.29156E-01 -1.08669E-01 -5.78668E-02
  -4.93983E-03  3.05124E-03  2.16390E-02  1.68012E-02  3.06341E-02  7.16164E-02  6.56824E-02  7.35769E-02  1.19598E-01  1.49251E-01
   1.38195E-01  1.26646E-01  1.02504E-01  5.62572E-02  1.67064E-02 -4.13928E-02 -1.11420E-01 -1.79636E-01 -2.54946E-01 -3.62153E-01
  -4.20609E-01 -4.74156E-01 -4.59634E-01 -3.22887E-01 -1.69728E-01  2.59753E-02  2.22330E-01  3.49195E-01  4.25714E-01  4.60499E-01
   4.37562E-01  4.03930E-01  3.70936E-01  3.26656E-01  3.02390E-01  2.96377E-01  2.96810E-01  2.98388E-01  2.92547E-01  2.88288E-01
   2.83800E-01  2.70807E-01  2.64023E-01  2.52380E-01  2.42724E-01  2.34514E-01  2.26314E-01  2.17657E-01  2.08745E-01  1.98158E-01
   1.85155E-01  1.70493E-01  1.46863E-01  1.20762E-01  8.13968E-02  3.12070E-02 -3.97384E-02 -1.19055E-01 -2.00248E-01 -2.95412E-01
  -3.61977E-01 -4.21469E-01 -4.42072E-01 -4.25904E-01 -3.72513E-01 -2.92468E-01 -1.87713E-01 -8.37397E-02 -2.59027E-02  2.89125E-02
   2.14199E-02  6.59846E-03 -2.47429E-02 -6.74930E-02 -8.70479E-02 -9.65827E-02 -2.80114E-02 -2.18762E-01 -2.53158E-01 -1.92578E-01
  -7.45453E-01 -1.21470E+00 -1.44748E+00 -1.40897E+00 -1.03749E+00 -7.28323E-01 -7.29409E-01 -5.57470E-01 -1.67947E-01 -1.08068E-01
  -7.37390E-02 -4.51054E-02 -2.30233E-02 -6.33196E-03  8.25534E-03  1.82079E-02  2.56210E-02  3.12316E-02  2.79383E-02  2.50792E-02
   1.65830E-02  6.08559E-03 -1.85980E-03 -9.76935E-03 -1.26159E-02 -1.13541E-02 -5.89090E-03 -1.24457E-04  9.43863E-03  1.70272E-02
   2.44466E-02  3.23560E-02  3.75097E-02  4.27374E-02  4.67593E-02  5.00334E-02  5.31313E-02  5.64731E-02  5.92667E-02  6.14759E-02
   6.39382E-02  6.60345E-02  6.83018E-02  7.05635E-02  7.25346E-02  7.40668E-02  7.53864E-02  7.70854E-02  7.86301E-02  8.07953E-02
   8.27445E-02  8.44810E-02  8.58873E-02  8.66715E-02  8.67120E-02  8.63262E-02  8.58269E-02  8.48845E-02  8.36708E-02  8.15962E-02
   7.92537E-02  7.68187E-02  7.37857E-02  7.03386E-02  6.67444E-02  6.34933E-02  6.02410E-02  5.70291E-02  5.38117E-02  5.04616E-02
   4.78707E-02  4.54561E-02  4.29163E-02  4.06890E-02  3.87653E-02  3.66928E-02  3.48906E-02  3.30871E-02  3.14194E-02  3.02167E-02
   2.87797E-02  2.76367E-02  2.70410E-02  2.67282E-02  2.69733E-02  2.77739E-02  2.87479E-02  3.01665E-02  3.23481E-02  3.44160E-02
   3.61005E-02  3.76040E-02  3.88829E-02  4.07175E-02  4.34740E-02  4.65542E-02  4.95969E-02  5.28436E-02  5.65436E-02  6.09745E-02
   6.57167E-02  7.09526E-02  7.66225E-02  8.22356E-02  8.83388E-02  9.47027E-02  1.00734E-01  1.06401E-01  1.11366E-01  1.15058E-01
   1.17999E-01  1.20261E-01  1.21454E-01  1.21981E-01  1.21713E-01  1.20563E-01  1.18237E-01  1.14751E-01  1.10486E-01  1.05921E-01
   1.01104E-01  9.62944E-02  9.11346E-02  8.55950E-02  8.08034E-02  7.62351E-02  7.18949E-02  6.77855E-02  6.38509E-02  6.01227E-02
   5.71938E-02  5.45846E-02  5.17158E-02  4.97024E-02  4.87020E-02  4.81568E-02  4.82370E-02  4.88834E-02  4.98910E-02  5.15265E-02
   5.36798E-02  5.60388E-02  5.85158E-02  6.10772E-02  6.32468E-02  6.52036E-02  6.67784E-02  6.81574E-02  6.97810E-02  7.11426E-02
   7.25437E-02  7.33237E-02  7.31438E-02  7.31942E-02  7.29012E-02  7.18462E-02  7.03743E-02  6.88827E-02  6.74319E-02  6.60314E-02
   6.45076E-02  6.25580E-02  6.08146E-02  5.91629E-02  5.73831E-02  5.52410E-02  5.31330E-02  5.14634E-02  5.00188E-02  4.85600E-02
   4.68379E-02  4.50012E-02  4.30251E-02  4.07305E-02  3.77982E-02  3.42403E-02  3.06803E-02  2.66694E-02  2.18740E-02  1.60777E-02
   8.89304E-03  1.05116E-03 -7.22083E-03 -1.59050E-02 -2.49218E-02 -3.39152E-02 -4.25807E-02 -5.03615E-02 -5.76963E-02 -6.47308E-02
  -7.00460E-02 -7.37164E-02 -7.63042E-02 -7.79256E-02 -7.84404E-02 -7.76026E-02 -7.54858E-02 -7.31080E-02 -7.07649E-02 -6.83567E-02
  -6.54012E-02 -6.20537E-02 -5.86235E-02 -5.46439E-02 -5.03333E-02 -4.56300E-02 -4.06887E-02 -3.54700E-02 -3.02669E-02 -2.54932E-02
  -2.04958E-02 -1.55626E-02 -1.08455E-02 -6.26899E-03 -2.41800E-03  1.09458E-03  5.33999E-03  8.99615E-03  1.17343E-02  1.44600E-02
   1.66985E-02  1.92179E-02  2.15804E-02  2.29392E-02  2.40670E-02  2.55343E-02  2.67544E-02  2.73933E-02  2.79214E-02  2.85527E-02
   2.93206E-02  3.02544E-02  3.12729E-02  3.23078E-02  3.30967E-02  3.38148E-02  3.44064E-02  3.44235E-02  3.45121E-02  3.47899E-02
   3.44950E-02  3.41391E-02  3.41731E-02  3.38971E-02  3.37782E-02  3.39161E-02  3.35957E-02  3.37985E-02  3.42519E-02  3.34858E-02
   3.23063E-02  3.15192E-02  3.12497E-02  3.11892E-02  3.05829E-02  2.99719E-02  2.97606E-02  2.96001E-02  2.88247E-02  2.79768E-02
   2.77898E-02  2.79852E-02  2.80630E-02  2.77561E-02  2.77515E-02  2.82226E-02  2.85784E-02  2.86311E-02  2.85905E-02  2.87061E-02
   2.88519E-02  2.83923E-02  2.77287E-02  2.70181E-02  2.66237E-02  2.66163E-02  2.64206E-02  2.62917E-02  2.64741E-02  2.64197E-02
   2.62811E-02  2.65819E-02  2.69411E-02  2.76090E-02  2.77286E-02  2.71696E-02  2.64661E-02  2.58332E-02  2.55200E-02  2.52536E-02
   2.46263E-02  2.38052E-02  2.29736E-02  2.21618E-02  2.19071E-02  2.14304E-02  2.01962E-02  1.94271E-02  1.91178E-02  1.87124E-02
   1.84351E-02  1.76805E-02  1.66048E-02  1.63301E-02  1.60085E-02  1.50868E-02  1.46428E-02  1.48755E-02  1.52608E-02  1.54121E-02
   1.53633E-02  1.50819E-02  1.45937E-02  1.44982E-02
 NY background values follow
     4.986E-02    4.977E-02    4.968E-02    4.959E-02    4.950E-02    4.941E-02    4.931E-02    4.922E-02    4.913E-02    4.904E-02
     4.895E-02    4.885E-02    4.876E-02    4.867E-02    4.858E-02    4.849E-02    4.839E-02    4.830E-02    4.821E-02    4.812E-02
     4.803E-02    4.793E-02    4.784E-02    4.775E-02    4.766E-02    4.757E-02    4.747E-02    4.738E-02    4.729E-02    4.720E-02
     4.711E-02    4.701E-02    4.692E-02    4.683E-02    4.674E-02    4.665E-02    4.655E-02    4.646E-02    4.637E-02    4.628E-02
     4.618E-02    4.609E-02    4.600E-02    4.591E-02    4.582E-02    4.572E-02    4.563E-02    4.554E-02    4.545E-02    4.536E-02
     4.526E-02    4.517E-02    4.508E-02    4.499E-02    4.489E-02    4.480E-02    4.471E-02    4.462E-02    4.453E-02    4.443E-02
     4.434E-02    4.425E-02    4.416E-02    4.406E-02    4.397E-02    4.388E-02    4.379E-02    4.369E-02    4.360E-02    4.351E-02
