 
 $NMID
 ID=''
 FMTDAT='(2E13.5)'
 TRAMP=   1.00000E+0
 VOLUME=   1.00000E+0
 $END
   1.47453E+2   3.30617E+2
  -1.66029E+3   8.98029E+2
   2.75597E+3   1.65587E+3
   1.10565E+3   6.31090E+2
   3.36208E+2  -5.09146E+1
   2.63511E+3   4.44803E+2
  -1.63780E+3   9.89973E+2
  -3.65294E+2  -1.05848E+3
   1.17761E+3   1.55541E+3
   4.44577E+2   5.80424E+1
   5.21151E+3  -1.10866E+3
   2.82296E+3   3.18246E+3
   8.31745E+2   1.77219E+3
  -3.57671E+3   1.66961E+2
  -3.18021E+3  -3.25524E+3
   4.14768E+2  -2.16727E+3
   1.22714E+3   2.01431E+3
   1.46433E+3   5.51070E+3
  -1.76784E+3   5.39913E+2
  -3.18951E+2  -1.16133E+3
   2.28997E+3   1.99056E+3
   1.65689E+3   3.75030E+3
  -1.04858E+3   1.14878E+3
  -2.06625E+3  -2.50218E+3
   2.70919E+3  -1.45537E+3
   2.59022E+3   1.37083E+3
  -2.30924E+3  -1.91536E+3
  -2.01530E+3  -3.56198E+3
   1.20218E+3  -5.79966E+3
   6.33939E+3  -2.47843E+3
   1.22856E+3   5.28067E+3
  -5.52347E+3   5.44078E+3
  -4.99007E+3  -2.10387E+3
  -9.12321E+2  -2.01837E+3
  -4.08210E+2   3.61237E+2
  -2.53560E+3  -3.92846E+3
   1.96550E+3  -4.37876E+3
   6.51512E+3  -2.18990E+3
   2.06635E+3   3.73895E+3
   1.23937E+3   3.72842E+3
   9.78266E+2   4.35134E+3
  -5.27734E+3   1.25625E+3
  -4.33689E+3  -7.26802E+3
   2.64485E+3  -1.29589E+3
   2.25375E+3   1.66442E+3
   2.35889E+3   2.73975E+3
  -2.46135E+2  -4.04136E+2
  -1.23851E+3   2.94536E+3
  -9.24430E+2   4.46345E+3
  -4.48080E+3   3.41670E+2
  -5.06432E+3  -2.69943E+3
  -4.24540E+3  -2.97986E+3
   1.93263E+3  -2.21618E+2
   1.70104E+3   2.01846E+3
  -5.66934E+2   4.15306E+2
  -3.48212E+2  -2.39468E+3
  -3.22476E+3  -1.22718E+2
  -6.40525E+3  -3.44980E+3
  -3.25281E+3  -5.77969E+3
  -2.43681E+2  -2.57483E+3
   7.96136E+2   6.04873E+2
   4.08230E+3   1.50369E+2
   2.50864E+3   4.73677E+3
   1.09252E+2   1.11184E+3
   3.03074E+2  -1.80386E+3
   3.42843E+3  -1.30696E+2
  -4.03849E+2   3.07505E+3
  -1.07213E+3   1.47971E+3
   1.49450E+3   4.64003E+2
   3.78306E+2  -1.58746E+3
   4.98985E+2   2.24266E+3
  -5.82370E+2   9.31189E+2
  -1.85694E+3   9.69692E+2
  -1.10846E+3  -9.61850E+1
  -9.74097E+1  -2.87891E+2
   1.88474E+3   1.48283E+3
   2.26001E+2   9.99378E+2
   4.75165E+2  -2.08432E+3
   8.03424E+2  -1.86009E+3
   4.70883E+2  -9.31708E+2
  -1.09512E+3  -2.73237E+2
  -5.40462E+2  -1.55331E+2
   1.29150E+3  -4.22037E+2
  -8.96545E+2   2.62660E+3
  -2.84167E+3   1.82008E+3
  -3.09087E+3  -1.01427E+2
  -3.43257E+3  -8.66784E+2
   8.68594E+2  -8.66493E+2
   2.03118E+3  -9.13860E+2
   7.30511E+2   1.93347E+3
   1.94595E+3  -5.77802E+1
   4.58681E+3  -3.92499E+2
   3.15458E+3   9.36823E+2
  -2.46346E+3   7.85121E+2
  -3.57431E+3   1.51296E+3
  -1.46632E+3  -3.20306E+2
   1.33127E+3   1.21297E+3
   3.11829E+3   3.95039E+2
   1.53358E+3   3.09410E+3
   4.15351E+2  -1.07721E+3
   6.26504E+2  -4.39731E+3
   2.67324E+3  -2.58025E+3
   2.11087E+3   1.04783E+3
  -1.56850E+3   1.22235E+3
  -7.69136E+2   9.87394E+2
   5.62430E+2   1.09656E+3
   1.36239E+3   1.37428E+3
   1.41653E+3   1.12997E+3
  -7.62932E+2   8.92799E+2
   3.27101E+1  -3.04680E+2
   2.59135E+3  -4.29541E+2
   1.93849E+3  -3.83880E+2
   1.62878E+1   1.58719E+3
   5.30012E+2   2.79309E+2
   7.35494E+1  -1.97828E+3
  -1.65106E+3   4.80876E+1
  -1.72104E+3   5.99499E+2
  -2.11361E+3   4.40759E+2
  -9.63891E+1  -1.32894E+3
  -6.85149E+2  -7.61237E+2
   7.85446E+2  -1.04906E+3
  -8.84399E+2   1.95645E+3
   6.47567E+1  -2.20934E+3
  -2.13239E+1  -3.03977E+3
   1.57341E+3  -7.11580E+2
  -1.50171E+3   1.84528E+2
  -2.68488E+3  -1.78690E+3
   3.23059E+1  -2.93181E+3
   9.60237E+2  -1.35619E+3
   1.46519E+3   1.10998E+2
   1.26820E+3  -5.73252E+2
  -1.20171E+3  -1.67108E+3
   3.52881E+3  -2.91596E+3
   8.10468E+2   1.24908E+3
  -1.23193E+3   4.18747E+2
   5.09396E+2  -3.68692E+2
   1.33758E+3   1.24766E+3
  -2.50223E+3  -1.02938E+3
   6.92566E+2  -1.80794E+2
  -1.39431E+3  -4.38148E+2
   4.95252E+2  -9.42250E+2
  -5.87961E+2  -1.19216E+3
   8.39375E+2   4.05445E+1
   5.33511E+2  -1.50264E+2
  -2.02303E+3  -5.96213E+2
   8.19818E+2  -3.02027E+2
  -2.24494E+2   7.61722E+2
   3.27938E+2   6.02083E+2
   8.42776E+2   3.80626E+2
  -9.55501E+2   5.20247E+2
   6.07052E+2  -8.29452E+2
   5.18848E+2   1.99952E+2
  -8.43930E+2   1.18891E+3
  -1.34252E+3  -6.65707E+2
   5.21014E+2   4.46540E+2
  -5.19701E+2  -2.61106E+2
  -1.84137E+3   1.81702E+3
   1.57375E+3   1.82486E+3
   1.35436E+2   1.23909E+3
   3.48257E+2  -1.27992E+3
  -1.36684E+3   4.03461E+2
  -1.79962E+3   1.96856E+3
   7.67151E+2  -5.14380E+2
  -1.14811E+3  -1.02647E+3
  -4.06733E+2   6.74930E+2
   1.16608E+2  -1.18095E+2
   1.78490E+3   6.38261E+2
  -1.05956E+3  -8.60043E+2
   6.88702E+2   1.51602E+3
  -1.78118E+3   8.92846E+2
   1.51801E+2   2.34264E+3
  -2.09587E+2   3.16816E+1
  -7.78577E+2  -1.07372E+3
  -1.29974E+3  -3.70888E+2
  -1.67317E+3   3.53093E+2
  -1.20043E+3   1.88460E+3
   7.39094E+2  -2.15763E+3
   7.18177E+2   4.42526E+2
  -3.88648E+2  -6.07782E+2
  -1.45306E+3   3.96726E+2
   5.16195E+2   5.81597E+2
   1.52990E+3   1.11141E+3
   1.83130E+3  -2.80134E+2
   9.53412E+2  -8.11587E+2
   3.25112E+2   8.00009E+2
  -2.73067E+2   1.19111E+3
   6.62967E+2  -3.20890E+1
   7.79132E+2  -6.65646E+2
  -1.64921E+2  -9.79630E+2
  -2.60946E+2   1.03167E+1
   6.97760E+2   8.03815E+2
  -2.25445E+3  -3.71502E+2
  -3.59943E+2  -7.78978E+2
  -2.71468E+2  -4.36490E+2
  -1.30216E+2  -9.43745E+2
  -1.47320E+2   1.12332E+3
   7.39740E+0  -4.48738E+1
   4.73982E+2   1.61544E+3
   8.89907E+2   1.04691E+3
   8.22893E+1   1.25061E+3
  -1.11718E+3  -9.73440E+2
   2.52361E+2  -1.01172E+3
  -6.52981E+2   1.01082E+3
  -5.50991E+2  -1.25003E+3
   6.87762E+2  -9.14143E+2
   1.15010E+3  -5.38541E+2
  -2.06157E+2  -2.88228E+2
  -4.46110E+2  -6.61975E+2
   9.05836E+2  -4.65065E+2
  -5.13253E+2   1.54048E+3
  -1.02771E+3  -1.46796E+3
   1.48237E+3  -2.12344E+2
   5.18147E+2  -1.07292E+3
   1.57277E+3  -1.91906E+2
  -3.51760E+2  -2.41234E+2
  -9.33221E+2  -8.97754E+2
   1.08088E+3  -1.41798E+3
  -1.07627E+1   7.25921E+2
  -4.26504E+2  -5.69979E+2
  -2.90200E+3  -1.29239E+3
  -3.96441E+2  -2.44387E+2
   3.01203E+2  -9.51736E+1
  -5.53188E+2   4.35767E+2
   3.04715E+2   1.07059E+3
   1.23407E+3  -2.37536E+2
   8.14820E+2  -1.80479E+2
  -1.70340E+2   8.16606E+2
   2.09006E+2   8.55290E+2
  -7.74045E+2   3.67236E+1
   6.63849E+2  -5.00763E+2
  -2.62981E+2  -4.30452E+2
  -1.82081E+2   8.67963E+2
  -6.22809E+2  -1.79885E+1
  -4.27926E+2  -7.18583E+2
   5.16577E+2   7.45644E+2
   4.10519E+2  -8.14331E+2
  -5.20347E+2   9.78210E+2
  -4.32861E+2  -8.73955E+2
   8.09929E+2  -9.42153E+2
   7.66110E+2   5.54213E+2
  -1.01472E+3  -2.04601E+2
   9.03128E+2  -1.84521E+3
  -1.82884E+3   6.82984E+2
   1.85456E+2   9.67436E+2
   1.23307E+2  -5.29799E+1
  -4.29813E+2  -1.94299E+2
  -1.96729E+3  -7.83944E+1
   1.44744E+3  -9.41992E+2
   1.00423E+3   2.12071E+2
   1.56012E+2   1.47916E+3
  -5.90056E+1  -3.30447E+2
  -7.99564E+2  -1.26827E+3
  -1.38745E+2  -4.15065E+2
  -4.20802E+2   6.38982E+1
   3.97832E+2  -7.32697E+1
  -5.84387E+2  -2.33141E+3
   5.26365E+1  -1.04507E+3
   4.93424E+2  -6.05895E+2
   5.66436E+2   4.70921E+2
  -1.11798E+3   8.59320E+2
  -1.02695E+3  -7.52916E+2
  -4.14345E+2  -9.77304E+2
  -3.89934E+2  -7.78531E+2
   1.40435E+2   4.34340E+2
  -1.72461E+2  -8.43775E+2
  -8.90178E+2  -7.36755E+1
   2.10866E+3   8.67769E+2
  -1.15164E+3   6.56957E+2
   1.88733E+3  -4.90497E+2
  -2.71255E+3  -3.27592E+3
  -1.09881E+2  -3.94113E+2
   7.59085E+2   5.70168E+2
  -5.20502E+1  -6.47998E+1
  -1.44287E+3  -1.16272E+3
  -8.40731E+2  -2.57676E+3
   1.10552E+3   1.51264E+2
   8.33777E+2  -3.55008E+2
  -1.04768E+3   3.07139E+1
  -1.56436E+2  -9.44567E+2
   8.51951E+2   4.70384E+2
  -5.99465E+1   3.73025E+3
   1.11045E+3  -3.23038E+2
  -3.46177E+2  -7.18808E+2
  -2.06725E+3   2.71862E+1
  -6.96200E+2   4.09602E+2
   3.04271E+3   5.17500E+1
   1.34139E+3   1.63496E+2
   4.90070E+2  -2.49584E+2
   4.22255E+2  -3.75758E+2
  -1.71709E+2   6.62326E+2
   4.58429E+2  -2.00838E+2
  -1.41251E+3   2.35957E+2
  -6.52339E+1   7.59919E+2
   9.84252E+2  -5.45378E+2
  -1.14296E+3   1.44364E+3
  -6.47171E+2   1.91440E+3
   4.58120E+2   3.99689E+2
   1.40299E+3   4.54812E+2
   1.90027E+3  -3.11263E+2
  -7.98631E+1   1.75176E+3
  -9.49399E+2  -5.51386E+2
   3.54798E+2  -6.44252E+1
   7.28031E+2  -2.79772E+2
   1.73738E+2   2.25221E+2
  -1.83663E+3   1.37475E+3
  -2.38194E+1  -1.23815E+3
  -4.79930E+2  -1.02824E+3
   1.28294E+3  -2.03176E+2
  -1.13945E+3   1.15758E+2
   9.96867E+2   7.57315E+2
  -1.18620E+3  -1.48045E+3
  -5.46888E+2  -9.69036E+2
   8.49310E+2   1.33320E+1
  -5.65379E+2  -1.82422E+3
  -9.50912E+2  -7.44281E+2
   7.90895E+1  -1.60867E+2
  -2.31772E+3   9.40269E+2
  -1.64756E+2   2.71869E+2
  -1.89198E+3   2.79561E+1
   4.30068E+2  -1.79910E+3
   1.53373E+2  -1.11174E+3
   3.12308E+2  -5.54571E+2
  -8.61609E+2  -9.94100E+2
   2.14309E+3  -1.88597E+3
  -1.13180E+3  -3.50115E+2
  -1.37360E+3  -7.62684E+1
   6.43660E+1   5.68236E+2
  -2.94035E+2   8.26114E+1
  -1.65880E+2   1.04398E+3
   6.78736E+2   1.14110E+3
  -2.13449E+3   1.64916E+3
  -1.40821E+3   4.31887E+2
   1.94488E+3   2.68366E+2
  -1.41572E+3   2.05793E+3
   7.80851E+2  -4.08749E+2
   6.55194E+2  -8.42821E+2
   1.36137E+3  -1.28405E+2
  -2.00361E+3  -7.25962E+2
   1.58000E+3   1.25261E+2
   3.35483E+2  -4.03452E+2
  -4.13386E+2  -2.48315E+2
   3.11197E+2  -2.11682E+3
   6.53542E+2   4.04365E+2
   6.03356E+2  -1.60317E+1
   6.49789E+2  -2.59820E+2
   1.07068E+3   2.52943E+2
   4.50011E+2  -5.22153E+1
  -1.15218E+3   3.16290E+2
   4.85302E+2  -1.55859E+3
   3.79647E+2   2.81898E+2
  -1.35823E+3  -4.26827E+2
   1.45314E+3  -4.88275E+2
  -6.91175E+2  -8.89684E+0
   5.57805E+1   4.41582E+2
  -1.64813E+3  -8.77338E+2
  -1.08307E+3  -1.01460E+3
  -5.70702E+1   1.15933E+3
  -6.96465E+0   1.44250E+3
  -3.89472E+2   5.90316E+2
  -1.25826E+3   2.66151E+2
   3.03328E+2  -2.23474E+1
  -7.83195E+1   1.40039E+3
  -3.12759E+2  -2.12138E+2
   1.19487E+3   1.37167E+3
   1.38647E+2  -9.30949E+2
  -7.90321E+2  -4.26798E+2
   1.68903E+3   2.23393E+2
