 LCModel (Version 6.3-1N) Copyright: S.W. Provencher.          Ref.: Magn. Reson. Med. 30:672-679 (1993).                
 Slice_N1@18_16  02-Jun-2023 14:36:49
 27 lines in following concentration table = NCONC+1
    Conc.  %SD /Cr+PCr  Metabolite                                         
 2.18E-06  14% 2.5E-04 Mac                                                 
 4.03E-02  18%   4.661 Cr                                                  
 2.89E-02  26%   3.339 PCr                                                 
 7.06E-02  10%   8.171 Ins                                                 
 8.32E-02   7%   9.620 NAA                                                 
 7.48E-02   9%   8.649 Tau                                                 
 1.08E-02  36%   1.250 PCho                                                
 2.71E-03 139%   0.313 GPC                                                 
 3.81E-02  22%   4.405 Glu                                                 
 1.40E-02  41%   1.615 Gln                                                 
 3.11E-03 194%   0.360 Ala                                                 
 4.56E-02  27%   5.270 Asc                                                 
 6.83E-03 104%   0.790 Asp                                                 
 8.51E-03  44%   0.985 GABA                                                
 6.81E-03  70%   0.788 Glc                                                 
 8.04E-03  39%   0.930 GSH                                                 
 2.13E-03 281%   0.246 Lac                                                 
 6.34E-03  62%   0.733 NAAG                                                
    0.000 999%   0.000 PE                                                  
 1.35E-02  13%   1.563 GPC+PCho                                            
 8.95E-02   8%  10.354 NAA+NAAG                                            
 5.20E-02  19%   6.020 Glu+Gln                                             
 6.92E-02   8%   8.000 Cr+PCr                                              
 8.95E-02   8%  10.354 NAA+NAAG                                            
 6.92E-02   8%   8.000 Cr+PCr                                              
 5.20E-02  19%   6.020 Glu+Gln                                             
   6 lines in following misc. output table
  FWHM = 0.017 ppm    S/N =   7                                            
  Data shift = 0.029 ppm                                                   
  Ph: -32 deg     -12.3 deg/ppm                                            
  alphaB,S = 7.6E-01,   3.6E-01                                            
   18 spline knots.   Ns = 5(1)                                            
   2 inflections.     1 extrema                                            
  654 points on ppm-axis = NY
      4.000000     3.994181     3.988363     3.982544     3.976726     3.970907     3.965088     3.959270     3.953451     3.947633
      3.941814     3.935995     3.930177     3.924358     3.918540     3.912721     3.906902     3.901084     3.895265     3.889446
      3.883628     3.877809     3.871991     3.866172     3.860353     3.854535     3.848716     3.842898     3.837079     3.831260
      3.825442     3.819623     3.813805     3.807986     3.802167     3.796349     3.790530     3.784712     3.778893     3.773074
      3.767256     3.761437     3.755619     3.749800     3.743981     3.738163     3.732344     3.726526     3.720707     3.714888
      3.709070     3.703251     3.697433     3.691614     3.685795     3.679977     3.674158     3.668339     3.662521     3.656702
      3.650884     3.645065     3.639246     3.633428     3.627609     3.621791     3.615972     3.610153     3.604335     3.598516
      3.592698     3.586879     3.581060     3.575242     3.569423     3.563605     3.557786     3.551967     3.546149     3.540330
      3.534512     3.528693     3.522874     3.517056     3.511237     3.505419     3.499600     3.493781     3.487963     3.482144
      3.476326     3.470507     3.464688     3.458870     3.453051     3.447232     3.441414     3.435595     3.429777     3.423958
      3.418139     3.412321     3.406502     3.400684     3.394865     3.389046     3.383228     3.377409     3.371591     3.365772
      3.359953     3.354135     3.348316     3.342498     3.336679     3.330860     3.325042     3.319223     3.313405     3.307586
      3.301767     3.295949     3.290130     3.284312     3.278493     3.272674     3.266856     3.261037     3.255219     3.249400
      3.243581     3.237763     3.231944     3.226125     3.220307     3.214488     3.208670     3.202851     3.197032     3.191214
      3.185395     3.179577     3.173758     3.167939     3.162121     3.156302     3.150484     3.144665     3.138846     3.133028
      3.127209     3.121391     3.115572     3.109753     3.103935     3.098116     3.092298     3.086479     3.080660     3.074842
      3.069023     3.063205     3.057386     3.051567     3.045749     3.039930     3.034111     3.028293     3.022474     3.016656
      3.010837     3.005018     2.999200     2.993381     2.987563     2.981744     2.975925     2.970107     2.964288     2.958470
      2.952651     2.946832     2.941014     2.935195     2.929377     2.923558     2.917739     2.911921     2.906102     2.900284
      2.894465     2.888646     2.882828     2.877009     2.871191     2.865372     2.859553     2.853735     2.847916     2.842098
      2.836279     2.830460     2.824642     2.818823     2.813004     2.807186     2.801367     2.795549     2.789730     2.783911
      2.778093     2.772274     2.766456     2.760637     2.754818     2.749000     2.743181     2.737363     2.731544     2.725725
      2.719907     2.714088     2.708270     2.702451     2.696632     2.690814     2.684995     2.679177     2.673358     2.667539
      2.661721     2.655902     2.650084     2.644265     2.638446     2.632628     2.626809     2.620991     2.615172     2.609353
      2.603535     2.597716     2.591897     2.586079     2.580260     2.574442     2.568623     2.562804     2.556986     2.551167
      2.545349     2.539530     2.533711     2.527893     2.522074     2.516256     2.510437     2.504618     2.498800     2.492981
      2.487163     2.481344     2.475525     2.469707     2.463888     2.458070     2.452251     2.446432     2.440614     2.434795
      2.428977     2.423158     2.417339     2.411521     2.405702     2.399884     2.394065     2.388246     2.382428     2.376609
      2.370790     2.364972     2.359153     2.353335     2.347516     2.341697     2.335879     2.330060     2.324242     2.318423
      2.312604     2.306786     2.300967     2.295149     2.289330     2.283511     2.277693     2.271874     2.266056     2.260237
      2.254418     2.248600     2.242781     2.236963     2.231144     2.225325     2.219507     2.213688     2.207870     2.202051
      2.196232     2.190414     2.184595     2.178777     2.172958     2.167139     2.161321     2.155502     2.149683     2.143865
      2.138046     2.132228     2.126409     2.120590     2.114772     2.108953     2.103135     2.097316     2.091497     2.085679
      2.079860     2.074042     2.068223     2.062404     2.056586     2.050767     2.044949     2.039130     2.033311     2.027493
      2.021674     2.015856     2.010037     2.004218     1.998400     1.992581     1.986763     1.980944     1.975126     1.969307
      1.963489     1.957670     1.951852     1.946033     1.940215     1.934397     1.928578     1.922760     1.916941     1.911123
      1.905304     1.899486     1.893667     1.887849     1.882030     1.876212     1.870393     1.864575     1.858756     1.852938
      1.847119     1.841301     1.835482     1.829664     1.823845     1.818027     1.812208     1.806390     1.800571     1.794753
      1.788934     1.783116     1.777297     1.771479     1.765660     1.759842     1.754023     1.748205     1.742386     1.736568
      1.730749     1.724931     1.719113     1.713294     1.707476     1.701657     1.695839     1.690020     1.684202     1.678383
      1.672565     1.666746     1.660928     1.655109     1.649291     1.643472     1.637654     1.631835     1.626017     1.620198
      1.614380     1.608561     1.602743     1.596924     1.591106     1.585287     1.579469     1.573650     1.567832     1.562013
      1.556195     1.550376     1.544558     1.538739     1.532921     1.527102     1.521284     1.515465     1.509647     1.503829
      1.498010     1.492192     1.486373     1.480555     1.474736     1.468918     1.463099     1.457281     1.451462     1.445644
      1.439825     1.434007     1.428188     1.422370     1.416551     1.410733     1.404914     1.399096     1.393277     1.387459
      1.381640     1.375822     1.370003     1.364185     1.358366     1.352548     1.346729     1.340911     1.335092     1.329274
      1.323455     1.317637     1.311818     1.306000     1.300182     1.294363     1.288545     1.282726     1.276908     1.271089
      1.265271     1.259452     1.253634     1.247815     1.241997     1.236178     1.230360     1.224541     1.218723     1.212904
      1.207086     1.201267     1.195449     1.189630     1.183812     1.177993     1.172175     1.166356     1.160538     1.154719
      1.148901     1.143082     1.137264     1.131445     1.125627     1.119808     1.113990     1.108171     1.102353     1.096534
      1.090716     1.084898     1.079079     1.073261     1.067442     1.061624     1.055805     1.049987     1.044168     1.038350
      1.032531     1.026713     1.020894     1.015076     1.009257     1.003439     0.997620     0.991802     0.985983     0.980165
      0.974346     0.968528     0.962709     0.956891     0.951072     0.945254     0.939435     0.933617     0.927798     0.921980
      0.916161     0.910343     0.904524     0.898706     0.892887     0.887069     0.881251     0.875432     0.869614     0.863795
      0.857977     0.852158     0.846340     0.840521     0.834703     0.828884     0.823066     0.817247     0.811429     0.805610
      0.799792     0.793973     0.788155     0.782336     0.776518     0.770699     0.764881     0.759062     0.753244     0.747425
      0.741607     0.735788     0.729970     0.724151     0.718333     0.712514     0.706696     0.700877     0.695059     0.689240
      0.683422     0.677603     0.671785     0.665967     0.660148     0.654330     0.648511     0.642693     0.636874     0.631056
      0.625237     0.619419     0.613600     0.607782     0.601963     0.596145     0.590326     0.584508     0.578689     0.572871
      0.567052     0.561234     0.555415     0.549597     0.543778     0.537960     0.532141     0.526323     0.520504     0.514686
      0.508867     0.503049     0.497230     0.491412     0.485593     0.479775     0.473956     0.468138     0.462319     0.456501
      0.450682     0.444864     0.439045     0.433227     0.427408     0.421590     0.415771     0.409953     0.404134     0.398316
      0.392497     0.386679     0.380860     0.375042     0.369223     0.363405     0.357586     0.351767     0.345949     0.340130
      0.334312     0.328493     0.322675     0.316856     0.311038     0.305219     0.299401     0.293582     0.287764     0.281945
      0.276127     0.270308     0.264490     0.258671     0.252853     0.247034     0.241216     0.235397     0.229579     0.223760
      0.217942     0.212123     0.206305     0.200486
 NY phased data points follow
   1.62437E-01 -1.91472E-01 -2.64154E-01  8.82994E-02  3.15111E-01 -3.87268E-01 -2.70940E-01  9.69722E-02 -3.96191E-01 -2.36627E-01
   9.90733E-03  6.37918E-01  3.03240E-01 -4.39346E-02  4.50443E-01  5.46209E-01  3.37194E-01  4.79644E-01  3.57441E-02 -1.21423E-01
   1.07623E-01  1.94100E-02  1.93669E-01 -2.60940E-01 -1.83455E-01 -2.43768E-01 -1.20728E-01  3.08797E-02 -1.08332E-01  3.42480E-02
  -1.64911E-02  9.27716E-03  1.70319E-01 -1.33384E-01 -4.27428E-01 -1.57266E-01 -5.48603E-01 -4.70249E-01 -1.63501E-01 -2.42917E-01
  -2.20757E-01  1.53143E-01  2.92214E-01  2.90955E-01  2.73250E-01  1.18952E-01  2.80405E-01  2.70859E-01  3.48873E-01  3.73243E-02
   9.41902E-02  2.02731E-02  2.18451E-01  4.12450E-01 -3.68165E-02 -6.77142E-02 -9.70994E-02 -1.42021E-01 -2.99997E-01 -1.79170E-01
  -1.81039E-01 -1.88024E-01 -2.23957E-01 -2.40078E-01 -3.53104E-01 -4.11742E-01 -7.58682E-03  7.78408E-02  3.19226E-01  6.36811E-01
   3.94632E-01  1.45411E-01  5.23363E-02 -2.36962E-03  1.00144E-01  1.01496E-01 -1.27272E-01 -3.14593E-01 -1.65326E-01 -5.46518E-01
  -3.34552E-01  1.95795E-01  1.33781E-01  3.29977E-01  2.04254E-01  1.25295E-01  3.09532E-01  3.92381E-01  2.42953E-01  3.61497E-01
   4.57299E-01  2.73014E-01  1.89189E-01  2.70998E-01  2.72744E-01  1.42807E-01 -1.87486E-01 -3.88361E-01 -4.75526E-01 -7.25615E-01
  -3.80014E-01 -2.43013E-01 -4.05910E-02  2.74118E-01  2.83881E-01  4.16596E-01  3.38718E-01  2.09533E-01  5.73575E-01  4.52487E-01
   2.58084E-01  4.13675E-01  1.82866E-01  3.48276E-01  2.36673E-01  3.74746E-01  6.08653E-01  3.18961E-01  4.05036E-01  1.55906E-01
  -2.11768E-01  1.09538E-01 -5.07020E-02 -1.51422E-01 -3.86739E-01 -4.69765E-01  2.32260E-02 -3.14516E-01 -3.07332E-01 -7.14599E-01
  -7.52128E-01 -7.23993E-01 -7.86343E-01 -3.93241E-01 -3.63065E-01 -7.00635E-01 -1.19517E+00 -6.27206E-01 -4.35493E-01 -3.38802E-01
  -1.75057E-01 -1.84660E-01  1.68051E-02  1.18916E-01 -3.22856E-01 -9.74309E-02 -4.56585E-02 -2.90556E-01  1.75633E-01 -3.49095E-02
   4.06107E-01  1.19774E-01 -1.44839E-02  1.17252E-01  1.88236E-03  2.90050E-01  2.82821E-01  2.64749E-01  2.23907E-01  3.57125E-01
   4.59291E-01  8.48662E-01  6.46623E-01  6.86491E-01  8.29468E-01  1.13525E+00  7.60763E-01 -4.15578E-01 -8.12644E-01 -9.25447E-01
  -6.72525E-01 -7.13842E-01 -5.76481E-01 -5.39724E-01 -5.81531E-01 -4.66666E-01 -4.25437E-01 -2.48908E-01 -1.45339E-01 -4.24194E-01
  -2.79154E-01 -3.46408E-01 -4.60033E-01 -1.79413E-01 -5.32454E-01 -2.03620E-01 -1.46883E-01 -2.24129E-01 -2.56571E-01 -4.22316E-01
  -1.09904E-01  1.39338E-02 -2.32071E-01 -4.33492E-02  1.40322E-01 -2.07120E-01 -8.93315E-02 -3.66619E-01 -2.54214E-01 -3.54394E-02
  -1.70408E-01 -1.74576E-01 -1.90797E-01 -1.90166E-01  1.69306E-02  2.51687E-01 -1.98617E-01 -1.62782E-01  2.24717E-02  2.16157E-01
   1.49034E-01 -2.82455E-02  3.23247E-01  1.61289E-01  6.09860E-02  3.88775E-02 -3.29400E-02 -6.03679E-02 -2.13767E-01  3.99858E-02
  -2.04842E-01 -1.81794E-01 -5.50348E-03 -1.47537E-01  3.03310E-01  1.32045E-01  3.29413E-01  4.41668E-01  2.87210E-01  5.29260E-01
   5.68675E-01  2.49490E-01  9.41192E-02  3.11240E-01 -2.56472E-01  8.85884E-02 -3.64175E-02 -3.69056E-01  9.63331E-03 -2.81114E-01
  -2.39174E-01 -3.16780E-01 -1.97487E-01 -2.69450E-01 -2.67442E-01 -1.09681E-01  2.98274E-02  8.12024E-02 -4.85632E-02  2.02453E-01
   1.63964E-01  1.29390E-01  1.10870E-01  1.28105E-01 -2.71119E-02 -2.37011E-02  3.78251E-02 -7.62856E-02  3.95104E-01  4.67859E-01
   1.19182E-01  1.30833E-01  9.53866E-02  1.94569E-01  2.11338E-01  7.95139E-02  2.43355E-01  2.93958E-02  8.88759E-02  3.46231E-01
   4.06682E-01  3.08117E-01  4.85686E-02 -5.22526E-02 -2.12525E-02  8.74373E-02 -1.53119E-01  5.31272E-02 -1.81300E-01 -3.44868E-01
   9.54987E-02 -1.90775E-01 -2.31702E-01 -2.61763E-02  9.53569E-02  2.28564E-01  3.80112E-01  5.23618E-01  3.75382E-01  1.77071E-01
   7.81730E-04 -6.84726E-02  3.54867E-02 -2.26658E-02  8.21108E-02 -1.52921E-01  1.97374E-02  5.55570E-02 -1.90739E-01  9.11326E-02
  -2.83670E-03  3.57985E-01  3.92930E-02  2.09406E-01  2.66790E-01  2.13954E-01  4.69718E-01 -3.86309E-02  3.77654E-01  1.39335E-01
   1.45039E-01  2.66469E-01  2.11098E-01  3.06227E-01  2.49605E-01  2.06383E-01 -1.20725E-01 -8.20276E-02 -2.69917E-02  1.01343E-01
  -9.78448E-02 -1.56311E-01 -2.13182E-01 -1.82440E-01  1.57279E-01  2.99283E-01  1.64557E-01  3.04172E-01  1.85891E-01 -1.01732E-01
   2.47074E-01  5.20993E-02  1.28930E-01 -7.69059E-03 -2.80030E-01 -1.71688E-01 -2.44946E-01 -2.64270E-01 -2.01608E-01  1.48543E-01
  -3.51469E-02 -1.38580E+00 -2.38925E+00 -1.51510E+00 -8.28092E-01 -7.53677E-01 -1.71520E-01 -5.26979E-02  1.90327E-02  1.02407E-01
  -9.32974E-02  3.05510E-02  5.16326E-02  6.45923E-02  5.60939E-02  1.43509E-01  3.69023E-01  1.75989E-01 -1.74684E-02  1.16743E-01
   1.48830E-01  5.19844E-02  1.52822E-01  2.07689E-01  3.98233E-01 -6.61844E-02 -1.26867E-01  2.04838E-01 -1.96798E-01  1.80917E-01
   1.83804E-01 -1.87761E-01  1.66540E-01  2.01888E-01  1.71730E-01  3.09577E-01  1.21200E-01  2.50950E-01  1.51521E-01  5.80840E-02
   1.73784E-01 -1.27853E-02  6.94077E-02  2.09240E-02  1.86085E-01  8.85802E-02 -3.58465E-02  3.31999E-01  1.29580E-01  2.49424E-01
   3.05915E-01  7.76434E-03  2.25909E-01  2.09048E-02  1.51007E-01  3.13156E-02 -6.03102E-02  5.04738E-01  1.33958E-01 -1.04256E-01
   1.58280E-01 -4.07418E-02 -1.99716E-01 -5.04589E-02 -5.25426E-01 -3.03623E-02 -6.03799E-03 -4.95005E-01  5.91808E-03 -5.39263E-02
   2.48787E-01  7.88439E-02 -2.84781E-01 -1.71760E-01 -1.47125E-01 -3.86680E-01 -1.94867E-01 -1.94920E-01 -2.04451E-01 -4.74357E-02
  -4.19585E-01 -2.90596E-01 -3.60270E-01 -1.04342E-01 -1.70483E-01 -2.66050E-01 -1.66478E-01 -2.75072E-01 -1.76577E-01 -2.39110E-01
  -1.44290E-01 -3.83771E-02  1.49789E-02  8.54213E-02  2.20859E-01  1.50946E-01  6.81218E-02 -4.62456E-02  1.68222E-02  3.87002E-02
   1.43244E-01  2.50303E-02  3.37551E-02 -1.46438E-02 -5.14890E-02  2.41516E-01 -6.64012E-02  2.50883E-01  2.67984E-01  1.89748E-01
   1.68656E-01  1.85042E-01  2.61480E-01  1.22759E-01 -6.58363E-03 -7.83394E-02  2.58623E-01 -3.02316E-02  1.10538E-01  1.81281E-01
   1.81563E-01  2.17060E-01  1.37204E-01  2.21420E-01 -1.28596E-01 -1.44417E-01  1.33278E-01  2.92645E-02 -3.42102E-01 -1.10019E-01
  -9.41917E-02  2.01726E-02 -1.98098E-02 -3.01366E-01 -6.78040E-02 -9.77725E-02 -7.54189E-02 -8.19536E-02  2.42025E-02  1.98563E-02
  -2.08353E-02  1.30379E-01  1.81577E-01  1.19106E-01 -1.81072E-01 -1.13964E-01 -6.54780E-02 -2.56963E-01 -7.53748E-02  1.21447E-01
   1.47029E-01  1.84038E-01  1.01675E-01 -7.52613E-03  6.28700E-02 -1.33037E-01 -1.10962E-01  5.99305E-02 -7.02093E-02  3.28092E-01
   4.61229E-01  1.05461E-01 -1.67490E-02  4.33821E-03 -1.85037E-02  1.65525E-01  1.23778E-01 -1.33974E-01  2.58056E-01  1.06347E-01
  -3.80296E-02  2.24823E-01  1.97010E-01  9.34449E-02  3.06274E-02  6.91591E-02 -3.18516E-01  1.35721E-01  2.85666E-01 -8.75671E-02
   1.01792E-02 -2.71898E-01 -2.33655E-02 -1.52290E-01 -2.29208E-01 -2.85693E-02 -1.56085E-01 -5.44799E-01 -5.68164E-01 -2.28217E-01
  -5.72009E-01 -2.23633E-01 -1.10728E-01 -6.33477E-02  6.24373E-02 -1.55559E-01 -2.54849E-01 -4.34682E-01 -8.94577E-02 -1.72253E-01
  -1.04606E-01  4.34338E-02 -1.20843E-01 -8.13764E-02 -1.77099E-02  8.14814E-02 -2.30925E-01 -1.02066E-01  3.53116E-01  4.04649E-01
   3.05280E-01  4.06288E-03 -1.12031E-01 -5.26280E-02  3.11029E-01  2.11770E-01 -1.68244E-01  1.78714E-01  2.44438E-01  3.46161E-01
   3.51140E-01  2.95926E-01  3.34442E-01  3.72838E-02 -1.34459E-01  1.71632E-01  4.29394E-01 -5.39402E-03 -8.29945E-02  4.62832E-02
   2.71409E-01  3.20389E-01 -6.72832E-02  5.11303E-02  8.26747E-02  5.27402E-02  4.93574E-02  7.39773E-03  1.62130E-01 -2.16578E-02
   2.41068E-01  2.32769E-01 -2.93813E-01 -2.00932E-01 -1.38678E-02  5.94575E-02  2.40767E-02  1.38274E-01  9.06100E-02  2.44835E-01
   7.49630E-02 -5.53774E-02 -6.39066E-02 -2.55878E-02  5.02631E-02 -1.10049E-01  3.28325E-01 -3.72444E-01 -1.04586E-01  1.75069E-01
  -2.40878E-01 -2.79814E-02  8.47193E-02  4.38884E-01 -1.55522E-01 -1.56418E-01 -5.86426E-02  3.00604E-02 -4.21990E-02 -3.31476E-02
   2.30631E-01 -5.43845E-02  1.40598E-01  3.53515E-02 -4.96533E-02 -4.80890E-02  1.42339E-01  5.19016E-02 -3.58879E-02  1.58602E-01
  -3.30683E-02  1.54344E-01  2.78779E-01  1.92252E-01  1.21763E-01  1.72823E-01  2.52978E-01  1.81296E-01 -1.41413E-01 -2.12089E-01
   2.57781E-01  5.31237E-03  2.14270E-02  2.31352E-01 -8.99393E-02 -5.18228E-02 -2.60567E-02 -5.87725E-02  2.25220E-02  9.72270E-02
  -2.13836E-01  2.00267E-01  4.14838E-02 -2.67710E-01  2.88937E-02 -3.08567E-01 -5.17756E-02 -1.03832E-01 -2.32952E-02 -4.98244E-02
   7.03062E-02  2.66079E-01  5.97706E-02  3.14960E-02
 NY points of the fit to the data follow
   1.37205E-01  8.14713E-02  9.16431E-03 -5.44495E-03 -2.07840E-02 -1.28471E-02 -6.26297E-03  3.47949E-02 -3.30540E-03 -1.82138E-03
   2.10362E-01  6.01253E-01  3.32899E-01  2.02157E-01  4.86744E-01  7.47643E-01  4.51764E-01  2.73397E-01  1.98360E-01  2.64926E-02
   3.27927E-02 -1.84374E-02 -3.93690E-02 -6.27916E-02 -8.42441E-02 -1.04111E-01 -1.16958E-01 -1.24711E-01 -1.40429E-01 -1.49086E-01
  -1.51678E-01 -1.65882E-01 -1.84676E-01 -2.09682E-01 -2.35905E-01 -2.57307E-01 -2.72016E-01 -3.03431E-01 -2.96107E-01 -1.81415E-01
  -7.87304E-03  1.15298E-02  9.09213E-02  1.21014E-01  1.66153E-01  2.69866E-01  2.70451E-01  2.15107E-01  2.77555E-01  2.32441E-01
   1.39874E-01  1.49554E-01  8.16303E-02  2.74325E-02 -1.32557E-02 -7.82289E-02 -1.20277E-01 -1.55064E-01 -1.95619E-01 -2.21969E-01
  -2.75164E-01 -3.39373E-01 -2.83851E-01 -1.73765E-01 -3.07123E-01 -1.63416E-01  1.70813E-01  6.82422E-02  2.74461E-01  4.24313E-01
   3.11455E-01  2.94812E-01  2.04003E-01  1.26735E-01  5.76554E-02 -3.35377E-02 -7.54804E-02 -1.35516E-01 -3.91595E-01 -6.45232E-01
  -4.05737E-01 -1.08998E-01 -1.87932E-01  8.02905E-02  3.78961E-01  3.64933E-01  3.89756E-01  3.49661E-01  2.80348E-01  2.39717E-01
   2.12730E-01  1.77219E-01  1.40846E-01  9.07645E-02  5.94950E-02 -4.80652E-02 -1.43720E-01 -3.85399E-01 -4.71937E-01 -7.34899E-01
  -4.09461E-01 -3.06736E-01  4.80493E-03  2.95254E-01  2.51316E-01  3.60620E-01  3.01535E-01  2.98617E-01  2.87191E-01  2.80999E-01
   2.79245E-01  2.75995E-01  2.71312E-01  2.68625E-01  2.65330E-01  2.65235E-01  2.65807E-01  2.63074E-01  2.44225E-01  2.62086E-01
   2.55416E-01  1.55688E-01  5.34080E-02  9.79427E-02 -2.41733E-02 -1.94966E-01 -6.92182E-02 -2.72668E-01 -5.15962E-01 -6.35046E-01
  -7.82814E-01 -6.81788E-01 -5.17336E-01 -2.45306E-01 -3.05809E-01 -7.20418E-01 -1.07171E+00 -7.40184E-01 -4.97836E-01 -3.50803E-01
  -1.25082E-01 -8.84798E-02 -2.52115E-02 -1.64825E-03  2.71527E-02  5.27018E-02  7.53047E-02  9.71146E-02  1.13927E-01  1.29851E-01
   1.48260E-01  1.62802E-01  1.78983E-01  1.96097E-01  2.15535E-01  2.36323E-01  2.62010E-01  2.90393E-01  3.17705E-01  3.54617E-01
   4.10085E-01  4.91058E-01  5.35467E-01  5.48857E-01  7.81882E-01  1.09538E+00  6.83343E-01 -4.19303E-01 -9.16508E-01 -8.95460E-01
  -8.26084E-01 -6.56995E-01 -4.97695E-01 -4.52671E-01 -4.10818E-01 -3.59575E-01 -3.26040E-01 -2.98797E-01 -2.90458E-01 -2.78953E-01
  -2.56825E-01 -2.28078E-01 -2.28054E-01 -2.05070E-01 -2.09659E-01 -2.05303E-01 -1.90466E-01 -1.80805E-01 -1.72944E-01 -1.67556E-01
  -1.54651E-01 -1.46502E-01 -1.35284E-01 -1.24774E-01 -1.15445E-01 -1.07988E-01 -9.81383E-02 -8.89519E-02 -8.21174E-02 -7.56458E-02
  -6.64713E-02 -5.14736E-02 -4.58016E-02 -5.00116E-02 -5.66326E-02 -5.35707E-02 -3.66900E-02 -3.06415E-02 -4.00805E-02 -5.10925E-02
  -5.34024E-02 -5.09858E-02 -4.69438E-02 -4.26811E-02 -3.60512E-02 -2.76300E-02 -1.59850E-02 -1.42826E-02 -2.55123E-02 -2.16384E-02
   5.74268E-03  1.09708E-02  2.86400E-03  4.56990E-02  2.03087E-01  2.95804E-01  2.40697E-01  1.33380E-01  1.67943E-01  4.06735E-01
   4.45469E-01  2.55573E-01  1.67072E-01  6.50052E-02 -9.29333E-03 -1.89329E-02 -3.77730E-02 -3.98269E-02 -4.72283E-02 -5.75476E-02
  -6.55580E-02 -7.20796E-02 -7.52280E-02 -7.71627E-02 -8.15881E-02 -8.55944E-02 -8.97797E-02 -8.88039E-02 -9.69681E-02 -8.18396E-02
  -8.53231E-02 -1.01145E-01 -9.27467E-02 -1.30271E-01 -1.71027E-01 -1.07921E-01  6.71578E-02  7.43744E-03 -1.84665E-02  1.89813E-01
   1.50987E-01  1.95108E-01  1.48538E-01  1.45998E-01  2.24863E-01  1.47686E-01  1.74838E-01  1.42471E-01  1.64624E-01  1.45003E-01
   1.26793E-01  1.12036E-01  6.81208E-02  5.41052E-02  2.11167E-02  7.82021E-04 -2.82174E-02 -5.23262E-02 -8.29370E-02 -1.30317E-01
  -1.77950E-01 -1.68464E-01 -1.53309E-01 -5.81167E-02  8.09093E-02  1.34720E-01  2.36812E-01  2.52455E-01  2.11263E-01  1.94331E-01
   1.46716E-01  1.12356E-01  1.04175E-01  8.14381E-02  1.17956E-01  1.35958E-01  1.48876E-01  1.75141E-01  1.68508E-01  1.70138E-01
   1.68096E-01  1.60215E-01  1.57583E-01  1.56107E-01  1.49383E-01  1.44582E-01  1.38270E-01  1.22283E-01  1.03879E-01  9.20885E-02
   6.67039E-02  4.88450E-02  4.95279E-02  2.42620E-02  2.10379E-02 -2.60562E-03 -6.84350E-02 -8.59315E-02 -1.36988E-01 -1.47512E-01
  -1.67304E-01 -1.50498E-01 -1.44362E-01 -1.11184E-01 -6.66862E-02 -1.74384E-02  4.17657E-02  7.06457E-02  8.85641E-02  6.98182E-02
   5.67525E-02  7.89244E-03 -1.90140E-02 -1.50856E-02 -7.14702E-02 -1.34010E-01 -1.83590E-01 -1.52050E-01 -2.17414E-01  3.36349E-02
  -1.29159E-01 -1.35773E+00 -2.42976E+00 -1.46891E+00 -9.61948E-01 -6.72443E-01 -1.64355E-01 -1.74143E-01 -6.90850E-02 -7.20126E-02
  -5.07737E-02 -3.19431E-02 -1.66973E-02 -7.40714E-03  4.72974E-03  1.32207E-02  1.88549E-02  2.04462E-02  1.86741E-02  7.28429E-03
  -6.38967E-03 -1.57644E-02 -4.37559E-02 -4.08548E-02 -5.18491E-02 -4.36984E-02 -2.95565E-02 -2.17436E-02 -4.35968E-03  2.83618E-03
   1.34327E-02  2.32302E-02  3.27815E-02  3.68439E-02  4.10493E-02  4.63237E-02  4.94660E-02  5.63576E-02  5.98131E-02  6.27483E-02
   6.51171E-02  6.91981E-02  7.24402E-02  7.68684E-02  8.06561E-02  8.08044E-02  8.22205E-02  8.36793E-02  8.86940E-02  9.09080E-02
   9.69692E-02  9.98675E-02  1.00522E-01  9.97156E-02  9.63479E-02  9.42091E-02  9.25244E-02  9.04507E-02  8.72045E-02  8.16386E-02
   7.63241E-02  7.11809E-02  6.42952E-02  5.48366E-02  4.92794E-02  4.45896E-02  3.88456E-02  3.25064E-02  2.68923E-02  2.24385E-02
   1.63948E-02  1.45912E-02  1.06347E-02  6.79942E-03  4.79767E-03  1.18197E-03 -2.32063E-03 -4.46620E-03 -6.55452E-03 -7.29715E-03
  -9.52312E-03 -1.18500E-02 -9.85873E-03 -8.64012E-03 -7.88367E-03 -3.63595E-03 -3.52167E-04  3.91132E-03  1.13764E-02  2.08411E-02
   2.29363E-02  2.47514E-02  3.93392E-02  6.42112E-02  7.40150E-02  8.57924E-02  8.79819E-02  6.90526E-02  6.68266E-02  7.01129E-02
   7.68255E-02  8.81107E-02  9.95751E-02  1.11166E-01  1.21042E-01  1.33912E-01  1.45141E-01  1.53209E-01  1.60536E-01  1.63099E-01
   1.64837E-01  1.65170E-01  1.64624E-01  1.62514E-01  1.60600E-01  1.55837E-01  1.49839E-01  1.35069E-01  1.25474E-01  1.24036E-01
   1.33950E-01  1.27396E-01  1.32971E-01  1.13196E-01  9.10225E-02  8.49578E-02  6.79235E-02  6.09186E-02  5.34358E-02  4.80141E-02
   4.35038E-02  3.90231E-02  3.40773E-02  3.12203E-02  3.29400E-02  3.45280E-02  3.48676E-02  3.88719E-02  4.27077E-02  4.52794E-02
   5.09839E-02  5.69720E-02  6.25668E-02  6.64116E-02  7.02465E-02  7.30046E-02  7.32294E-02  7.45801E-02  7.84991E-02  8.26487E-02
   8.34459E-02  8.31532E-02  8.22197E-02  7.96332E-02  7.97712E-02  7.45960E-02  7.03288E-02  6.86553E-02  6.54547E-02  6.31541E-02
   5.91489E-02  5.62047E-02  5.26405E-02  4.94742E-02  4.63453E-02  4.09462E-02  3.64742E-02  3.50493E-02  3.35324E-02  3.00351E-02
   2.66479E-02  2.38639E-02  1.99345E-02  1.31192E-02  5.50866E-03 -1.72049E-03 -8.98438E-03 -1.63509E-02 -2.61828E-02 -4.01493E-02
  -5.58982E-02 -7.43724E-02 -8.88336E-02 -1.05653E-01 -1.22920E-01 -1.37741E-01 -1.50237E-01 -1.61956E-01 -1.74712E-01 -1.85151E-01
  -1.88913E-01 -1.88486E-01 -1.90538E-01 -1.90344E-01 -1.85226E-01 -1.78608E-01 -1.72018E-01 -1.64247E-01 -1.58419E-01 -1.53568E-01
  -1.47737E-01 -1.39044E-01 -1.30667E-01 -1.23067E-01 -1.11588E-01 -1.00976E-01 -9.13273E-02 -8.04641E-02 -7.03633E-02 -6.15859E-02
  -5.43003E-02 -4.24319E-02 -3.30938E-02 -2.75999E-02 -2.17538E-02 -1.50955E-02 -5.58076E-03  6.87873E-04  1.50743E-03  6.71295E-03
   1.28679E-02  1.42352E-02  1.90429E-02  2.11144E-02  2.12421E-02  2.51122E-02  2.69920E-02  2.71531E-02  2.64707E-02  2.84458E-02
   3.16900E-02  3.19504E-02  3.52779E-02  3.90541E-02  3.96420E-02  3.94923E-02  4.02992E-02  4.09215E-02  3.91544E-02  4.01666E-02
   4.11718E-02  3.87635E-02  3.92351E-02  4.03825E-02  3.93327E-02  3.93243E-02  3.99587E-02  4.26151E-02  4.48261E-02  3.96205E-02
   3.42197E-02  3.61890E-02  3.79024E-02  3.63462E-02  3.60406E-02  3.69039E-02  3.88949E-02  3.54948E-02  3.26996E-02  3.36940E-02
   3.52202E-02  3.69182E-02  3.67795E-02  3.75839E-02  3.80392E-02  3.98101E-02  4.13413E-02  4.10152E-02  4.12151E-02  4.40027E-02
   4.38663E-02  4.23688E-02  3.94838E-02  4.03218E-02  4.05076E-02  4.08377E-02  4.33146E-02  4.44254E-02  4.56310E-02  4.47721E-02
   4.43599E-02  4.73135E-02  5.06409E-02  5.26164E-02  5.38517E-02  5.07732E-02  4.84400E-02  4.85223E-02  4.99399E-02  5.24299E-02
   5.11839E-02  4.97225E-02  4.95638E-02  4.87657E-02  5.07156E-02  5.18748E-02  4.86645E-02  4.81653E-02  5.23262E-02  5.34666E-02
   5.21750E-02  5.29276E-02  5.37078E-02  5.42021E-02  5.56243E-02  5.42703E-02  5.67239E-02  6.18566E-02  6.52554E-02  6.71341E-02
   6.92713E-02  7.04591E-02  7.08166E-02  7.16384E-02
 NY background values follow
     1.268E-02    1.281E-02    1.295E-02    1.308E-02    1.322E-02    1.335E-02    1.348E-02    1.362E-02    1.375E-02    1.389E-02
     1.402E-02    1.415E-02    1.429E-02    1.442E-02    1.456E-02    1.469E-02    1.482E-02    1.496E-02    1.509E-02    1.522E-02
     1.536E-02    1.549E-02    1.562E-02    1.576E-02    1.589E-02    1.602E-02    1.615E-02    1.629E-02    1.642E-02    1.655E-02
     1.668E-02    1.681E-02    1.694E-02    1.707E-02    1.720E-02    1.733E-02    1.746E-02    1.759E-02    1.772E-02    1.785E-02
     1.798E-02    1.811E-02    1.824E-02    1.837E-02    1.849E-02    1.862E-02    1.875E-02    1.887E-02    1.900E-02    1.913E-02
     1.925E-02    1.938E-02    1.950E-02    1.963E-02    1.975E-02    1.987E-02    2.000E-02    2.012E-02    2.024E-02    2.036E-02
     2.048E-02    2.060E-02    2.072E-02    2.084E-02    2.096E-02    2.108E-02    2.120E-02    2.132E-02    2.144E-02    2.155E-02
