 LCModel (Version 6.3-1N) Copyright: S.W. Provencher.          Ref.: Magn. Reson. Med. 30:672-679 (1993).                
 Slice_N1@26_12  02-Jun-2023 14:38:13
 27 lines in following concentration table = NCONC+1
    Conc.  %SD /Cr+PCr  Metabolite                                         
 2.77E-06  14% 3.0E-04 Mac                                                 
 7.30E-02  13%   8.000 Cr                                                  
    0.000 999%   0.000 PCr                                                 
 9.73E-02  14%  10.664 Ins                                                 
 7.75E-02  12%   8.491 NAA                                                 
 7.50E-02  17%   8.215 Tau                                                 
 1.53E-02  95%   1.682 PCho                                                
 3.68E-03 369%   0.403 GPC                                                 
 7.33E-02  17%   8.028 Glu                                                 
 9.19E-03  91%   1.007 Gln                                                 
 2.24E-02  45%   2.457 Ala                                                 
 1.41E-02 128%   1.545 Asc                                                 
    0.000 999%   0.000 Asp                                                 
 1.05E-02  52%   1.152 GABA                                                
 7.59E-03  84%   0.832 Glc                                                 
 3.46E-03 118%   0.379 GSH                                                 
    0.000 999%   0.000 Lac                                                 
    0.000 999%   0.000 NAAG                                                
    0.000 999%   0.000 PE                                                  
 1.90E-02  18%   2.085 GPC+PCho                                            
 7.75E-02  12%   8.491 NAA+NAAG                                            
 8.24E-02  19%   9.035 Glu+Gln                                             
 7.30E-02  13%   8.000 Cr+PCr                                              
 7.75E-02  12%   8.491 NAA+NAAG                                            
 7.30E-02  13%   8.000 Cr+PCr                                              
 8.24E-02  19%   9.035 Glu+Gln                                             
   6 lines in following misc. output table
  FWHM = 0.064 ppm    S/N =   2                                            
  Data shift = 0.140 ppm                                                   
  Ph:  -7 deg      -7.2 deg/ppm                                            
  alphaB,S = 1.6E+01,   9.6E+01                                            
   18 spline knots.   Ns =11(1)                                            
  ( 4) 2 infls.   ( 2) 1 extrs.                                            
  654 points on ppm-axis = NY
      4.000000     3.994181     3.988363     3.982544     3.976726     3.970907     3.965088     3.959270     3.953451     3.947633
      3.941814     3.935995     3.930177     3.924358     3.918540     3.912721     3.906902     3.901084     3.895265     3.889446
      3.883628     3.877809     3.871991     3.866172     3.860353     3.854535     3.848716     3.842898     3.837079     3.831260
      3.825442     3.819623     3.813805     3.807986     3.802167     3.796349     3.790530     3.784712     3.778893     3.773074
      3.767256     3.761437     3.755619     3.749800     3.743981     3.738163     3.732344     3.726526     3.720707     3.714888
      3.709070     3.703251     3.697433     3.691614     3.685795     3.679977     3.674158     3.668339     3.662521     3.656702
      3.650884     3.645065     3.639246     3.633428     3.627609     3.621791     3.615972     3.610153     3.604335     3.598516
      3.592698     3.586879     3.581060     3.575242     3.569423     3.563605     3.557786     3.551967     3.546149     3.540330
      3.534512     3.528693     3.522874     3.517056     3.511237     3.505419     3.499600     3.493781     3.487963     3.482144
      3.476326     3.470507     3.464688     3.458870     3.453051     3.447232     3.441414     3.435595     3.429777     3.423958
      3.418139     3.412321     3.406502     3.400684     3.394865     3.389046     3.383228     3.377409     3.371591     3.365772
      3.359953     3.354135     3.348316     3.342498     3.336679     3.330860     3.325042     3.319223     3.313405     3.307586
      3.301767     3.295949     3.290130     3.284312     3.278493     3.272674     3.266856     3.261037     3.255219     3.249400
      3.243581     3.237763     3.231944     3.226125     3.220307     3.214488     3.208670     3.202851     3.197032     3.191214
      3.185395     3.179577     3.173758     3.167939     3.162121     3.156302     3.150484     3.144665     3.138846     3.133028
      3.127209     3.121391     3.115572     3.109753     3.103935     3.098116     3.092298     3.086479     3.080660     3.074842
      3.069023     3.063205     3.057386     3.051567     3.045749     3.039930     3.034111     3.028293     3.022474     3.016656
      3.010837     3.005018     2.999200     2.993381     2.987563     2.981744     2.975925     2.970107     2.964288     2.958470
      2.952651     2.946832     2.941014     2.935195     2.929377     2.923558     2.917739     2.911921     2.906102     2.900284
      2.894465     2.888646     2.882828     2.877009     2.871191     2.865372     2.859553     2.853735     2.847916     2.842098
      2.836279     2.830460     2.824642     2.818823     2.813004     2.807186     2.801367     2.795549     2.789730     2.783911
      2.778093     2.772274     2.766456     2.760637     2.754818     2.749000     2.743181     2.737363     2.731544     2.725725
      2.719907     2.714088     2.708270     2.702451     2.696632     2.690814     2.684995     2.679177     2.673358     2.667539
      2.661721     2.655902     2.650084     2.644265     2.638446     2.632628     2.626809     2.620991     2.615172     2.609353
      2.603535     2.597716     2.591897     2.586079     2.580260     2.574442     2.568623     2.562804     2.556986     2.551167
      2.545349     2.539530     2.533711     2.527893     2.522074     2.516256     2.510437     2.504618     2.498800     2.492981
      2.487163     2.481344     2.475525     2.469707     2.463888     2.458070     2.452251     2.446432     2.440614     2.434795
      2.428977     2.423158     2.417339     2.411521     2.405702     2.399884     2.394065     2.388246     2.382428     2.376609
      2.370790     2.364972     2.359153     2.353335     2.347516     2.341697     2.335879     2.330060     2.324242     2.318423
      2.312604     2.306786     2.300967     2.295149     2.289330     2.283511     2.277693     2.271874     2.266056     2.260237
      2.254418     2.248600     2.242781     2.236963     2.231144     2.225325     2.219507     2.213688     2.207870     2.202051
      2.196232     2.190414     2.184595     2.178777     2.172958     2.167139     2.161321     2.155502     2.149683     2.143865
      2.138046     2.132228     2.126409     2.120590     2.114772     2.108953     2.103135     2.097316     2.091497     2.085679
      2.079860     2.074042     2.068223     2.062404     2.056586     2.050767     2.044949     2.039130     2.033311     2.027493
      2.021674     2.015856     2.010037     2.004218     1.998400     1.992581     1.986763     1.980944     1.975126     1.969307
      1.963489     1.957670     1.951852     1.946033     1.940215     1.934397     1.928578     1.922760     1.916941     1.911123
      1.905304     1.899486     1.893667     1.887849     1.882030     1.876212     1.870393     1.864575     1.858756     1.852938
      1.847119     1.841301     1.835482     1.829664     1.823845     1.818027     1.812208     1.806390     1.800571     1.794753
      1.788934     1.783116     1.777297     1.771479     1.765660     1.759842     1.754023     1.748205     1.742386     1.736568
      1.730749     1.724931     1.719113     1.713294     1.707476     1.701657     1.695839     1.690020     1.684202     1.678383
      1.672565     1.666746     1.660928     1.655109     1.649291     1.643472     1.637654     1.631835     1.626017     1.620198
      1.614380     1.608561     1.602743     1.596924     1.591106     1.585287     1.579469     1.573650     1.567832     1.562013
      1.556195     1.550376     1.544558     1.538739     1.532921     1.527102     1.521284     1.515465     1.509647     1.503829
      1.498010     1.492192     1.486373     1.480555     1.474736     1.468918     1.463099     1.457281     1.451462     1.445644
      1.439825     1.434007     1.428188     1.422370     1.416551     1.410733     1.404914     1.399096     1.393277     1.387459
      1.381640     1.375822     1.370003     1.364185     1.358366     1.352548     1.346729     1.340911     1.335092     1.329274
      1.323455     1.317637     1.311818     1.306000     1.300182     1.294363     1.288545     1.282726     1.276908     1.271089
      1.265271     1.259452     1.253634     1.247815     1.241997     1.236178     1.230360     1.224541     1.218723     1.212904
      1.207086     1.201267     1.195449     1.189630     1.183812     1.177993     1.172175     1.166356     1.160538     1.154719
      1.148901     1.143082     1.137264     1.131445     1.125627     1.119808     1.113990     1.108171     1.102353     1.096534
      1.090716     1.084898     1.079079     1.073261     1.067442     1.061624     1.055805     1.049987     1.044168     1.038350
      1.032531     1.026713     1.020894     1.015076     1.009257     1.003439     0.997620     0.991802     0.985983     0.980165
      0.974346     0.968528     0.962709     0.956891     0.951072     0.945254     0.939435     0.933617     0.927798     0.921980
      0.916161     0.910343     0.904524     0.898706     0.892887     0.887069     0.881251     0.875432     0.869614     0.863795
      0.857977     0.852158     0.846340     0.840521     0.834703     0.828884     0.823066     0.817247     0.811429     0.805610
      0.799792     0.793973     0.788155     0.782336     0.776518     0.770699     0.764881     0.759062     0.753244     0.747425
      0.741607     0.735788     0.729970     0.724151     0.718333     0.712514     0.706696     0.700877     0.695059     0.689240
      0.683422     0.677603     0.671785     0.665967     0.660148     0.654330     0.648511     0.642693     0.636874     0.631056
      0.625237     0.619419     0.613600     0.607782     0.601963     0.596145     0.590326     0.584508     0.578689     0.572871
      0.567052     0.561234     0.555415     0.549597     0.543778     0.537960     0.532141     0.526323     0.520504     0.514686
      0.508867     0.503049     0.497230     0.491412     0.485593     0.479775     0.473956     0.468138     0.462319     0.456501
      0.450682     0.444864     0.439045     0.433227     0.427408     0.421590     0.415771     0.409953     0.404134     0.398316
      0.392497     0.386679     0.380860     0.375042     0.369223     0.363405     0.357586     0.351767     0.345949     0.340130
      0.334312     0.328493     0.322675     0.316856     0.311038     0.305219     0.299401     0.293582     0.287764     0.281945
      0.276127     0.270308     0.264490     0.258671     0.252853     0.247034     0.241216     0.235397     0.229579     0.223760
      0.217942     0.212123     0.206305     0.200486
 NY phased data points follow
   8.16766E-02 -1.53617E-01  8.29739E-03 -1.38251E-01 -2.57920E-01 -4.48125E-01  2.47865E-02 -3.51868E-02 -2.42559E-01  3.06093E-01
   1.90196E-01  3.69025E-01 -1.82937E-01  2.72411E-01  5.48375E-01  4.18407E-01  4.64737E-01  2.63726E-01  7.34046E-01  1.78798E-01
   2.99423E-01  9.99340E-02 -2.26024E-02 -3.02621E-02 -2.59387E-01  1.55512E-02 -4.66505E-02  3.13506E-01 -1.30587E-01 -1.65900E-01
  -2.08533E-01 -3.87643E-01 -4.51783E-01 -2.49660E-01 -1.44237E-01 -5.73583E-01  6.08632E-02 -5.78644E-02 -2.93721E-01 -2.47729E-02
   2.08934E-01 -3.54475E-01 -6.39414E-02  3.98756E-01 -4.10999E-02  9.49893E-03 -3.26324E-01 -1.20257E-01  4.85767E-02  2.81590E-01
  -1.41060E-01  7.45880E-02  1.95716E-01 -2.01018E-01  5.45788E-02 -1.14766E-01 -9.60647E-02 -1.49810E-01  4.46145E-02 -2.45629E-01
  -6.26494E-02 -2.41546E-01 -4.48669E-01 -1.23586E-01 -2.08938E-02 -1.12882E-01 -6.27643E-03  2.25032E-01 -1.26258E-01  5.47806E-02
  -5.03050E-03  3.82482E-01  4.71346E-01  3.50299E-01  4.31357E-02 -2.81057E-02  1.04492E-01  2.17408E-01  1.86058E-01 -2.63859E-01
   1.56712E-01  2.06175E-02  1.02253E-01 -3.09259E-01  3.14133E-02  4.48934E-01  2.18751E-01  5.38399E-01  3.47693E-01  7.20590E-02
  -8.20925E-02  1.75134E-01 -1.36015E-01 -1.40806E-01 -4.96882E-02  1.54567E-01  2.38442E-02 -8.81839E-02  1.01308E-01 -2.63653E-01
   1.06773E-01  1.50205E-01  9.06324E-02  2.92382E-01 -2.87737E-02  5.27462E-03  4.44609E-01  3.16866E-01  3.49677E-01  3.60896E-01
   7.62704E-02  4.15566E-01  5.25239E-01  2.41458E-01  5.12422E-01  5.96100E-01  6.01248E-01  5.89877E-01  3.64432E-01  2.86874E-01
   1.07925E-01  2.90415E-01  1.43623E-01  1.52630E-01  1.37025E-01 -2.25530E-01 -2.57381E-03 -1.56126E-01 -6.39153E-01 -4.71608E-01
  -3.25345E-01 -3.41863E-01 -4.31980E-01 -6.14506E-01 -4.66710E-01 -5.30368E-01 -5.14777E-01 -5.18077E-01 -3.41913E-01 -3.23077E-01
  -4.31242E-01 -3.55248E-01 -3.43594E-01 -2.68034E-01 -1.69360E-01 -7.97477E-02 -2.53733E-01 -1.11023E-01  8.04385E-02  1.02470E-01
  -5.21314E-02  2.27641E-01  3.37166E-01  2.41813E-01  3.05046E-01 -3.33014E-02  1.72632E-01  2.73545E-01  2.92638E-01  6.86273E-01
   4.83363E-01  3.66538E-01  6.75850E-01  6.69292E-01  4.38172E-01  2.01199E-01  5.25985E-01  3.30382E-01 -4.37038E-02 -4.69239E-02
  -1.26173E-01 -4.04396E-01 -4.19817E-01 -3.25263E-01 -6.03132E-01 -2.43931E-01 -5.90399E-01 -6.61104E-01 -3.04734E-01 -1.98400E-01
  -5.67206E-01 -5.75465E-01 -2.71548E-01 -5.24676E-01 -2.12915E-01 -4.36147E-01 -2.92392E-01 -1.53211E-01 -3.81055E-01 -4.70400E-01
  -2.96947E-01 -1.25304E-01 -3.51751E-01 -2.65375E-01 -7.02038E-02 -4.86980E-01 -1.91679E-01  1.74023E-01 -3.15506E-01 -5.67556E-02
  -3.22582E-01 -1.85542E-01 -2.50729E-01 -1.19006E-01  2.07692E-01 -3.24190E-01 -2.38331E-01 -3.63656E-01 -6.22937E-01 -1.66284E-01
   7.63596E-02 -4.96811E-02  6.88561E-02 -2.27886E-01  8.92849E-02 -1.47021E-02  1.04739E-02  8.38013E-02  3.10516E-01  2.77707E-01
  -1.29098E-01  4.78115E-01 -1.94705E-02  2.22021E-01  2.71540E-01 -7.68182E-02 -7.00015E-02  1.10699E-01  1.93013E-01  1.46869E-01
   4.71551E-01  1.20994E-01  4.62399E-01  4.89617E-01 -1.43772E-02 -1.26949E-01 -1.73070E-01 -1.04556E-01 -1.08807E-02 -4.96493E-02
   5.14478E-02  8.22958E-03  1.69124E-01  7.02858E-02 -6.10415E-02 -1.46634E-02 -3.71574E-01  7.24454E-02  6.42605E-02 -1.48172E-01
  -5.90817E-02 -2.17885E-01 -2.10109E-01  8.99839E-02 -1.46510E-01 -1.91973E-01  4.69541E-02 -1.52993E-01 -1.63649E-02  1.06785E-01
   2.12319E-02 -2.47892E-01  1.75667E-01  3.70792E-01  3.84540E-02  9.31925E-02  3.25514E-01  2.94638E-01  3.05570E-01  2.74932E-01
   1.51686E-01  4.06440E-03 -3.36068E-01  1.64402E-02  2.08836E-01 -1.33065E-02 -2.44275E-01 -5.47468E-02 -1.43442E-01 -2.76513E-01
  -1.75766E-01 -1.97721E-01 -1.31977E-01 -1.46467E-01  1.02944E-01 -1.05957E-01  1.23376E-01  4.28950E-01  1.40038E-01  1.55775E-01
   3.94867E-01  3.02603E-01  1.62725E-01  4.67079E-01  4.83659E-01  3.45028E-01  4.11256E-01  2.42681E-01 -4.35907E-02  1.27104E-01
   5.13214E-01  1.72953E-01  8.45427E-02  6.27574E-01  1.59346E-01  2.04217E-01  6.03316E-01  1.25848E-01  8.33920E-02  4.78090E-01
   4.56839E-01  4.79463E-01  3.07572E-01  7.44224E-02  2.59065E-01 -5.64770E-02  3.69938E-01  2.69926E-01 -2.47216E-01 -1.62728E-02
  -9.42687E-02 -1.91170E-01 -2.25125E-01 -8.85476E-02 -3.46219E-01 -3.07732E-01 -4.38449E-02 -1.09122E-01 -1.60269E-01 -1.41362E-01
  -6.92892E-02 -1.78744E-01 -2.23261E-01 -1.72996E-01 -1.80739E-01 -7.23173E-02 -1.74395E-01  1.64558E-04 -1.20669E-01 -9.72595E-01
  -6.68226E-01 -4.13718E-01 -5.23150E-01 -6.40332E-01 -7.36526E-01 -3.59967E-01 -5.45640E-01 -3.89144E-01 -2.48678E-01 -5.71329E-01
  -3.30362E-01 -2.50020E-01 -5.90354E-02  1.54409E-01 -8.22543E-02  2.00019E-01  2.19656E-01 -1.03389E-01  6.70534E-02  9.58538E-02
  -1.40518E-01  5.44198E-02  2.80392E-02 -6.43666E-02  8.14847E-02 -2.21797E-01 -2.49250E-01  8.85772E-03  2.45840E-02 -2.17490E-01
  -1.60630E-01 -2.26255E-02  1.51246E-01  3.99743E-02  1.05725E-01  3.25556E-01 -1.70703E-01 -6.79983E-02  6.81191E-03  1.43396E-01
   2.38077E-01 -1.07699E-02  1.53167E-01  5.45197E-02  3.45091E-02  5.82866E-02 -2.39110E-02  3.71141E-01  2.86075E-01 -2.14457E-01
   6.74860E-02  2.18771E-01  6.04494E-02  3.18094E-01  4.43640E-01  4.12225E-01  2.02994E-01 -1.23254E-01  1.31875E-01  7.53976E-02
   8.01663E-02 -2.44455E-02 -2.34237E-01  2.06959E-01 -1.76441E-01 -3.15504E-01 -2.37495E-01 -2.09208E-01  7.46855E-02  6.34052E-02
   8.87995E-02 -6.12018E-02  4.39302E-02  6.33635E-03 -2.79615E-02  1.84373E-01  7.40911E-02 -1.48090E-01 -5.71353E-02 -5.04858E-02
  -1.62205E-01  1.30513E-01 -9.81183E-02 -7.15887E-03  3.18206E-01 -1.60668E-01 -1.95046E-01 -8.67366E-02  1.55385E-02  1.82336E-01
   1.12280E-01  1.00812E-01 -2.31958E-02  1.01461E-02  2.42063E-01  1.81025E-01 -8.28149E-03  1.69417E-01  4.17487E-01  3.39391E-01
   3.86491E-02 -8.98278E-02  1.60611E-01  1.02247E-01  5.03224E-02  3.39737E-01  1.79112E-01  2.33559E-01  2.38927E-01  1.75543E-01
   1.62940E-01 -1.35544E-02  3.34509E-01  2.85474E-01  2.17823E-01  1.63747E-02 -2.18686E-01 -2.98653E-01 -4.78944E-01 -4.44179E-01
  -1.91715E-01  1.27446E-02 -5.82689E-01 -4.40408E-01 -3.06763E-01 -2.91946E-01 -3.07102E-01 -4.44262E-01 -1.05883E-01 -5.59360E-01
  -4.28877E-01 -2.15933E-01 -4.66316E-01 -3.91896E-01  1.29934E-01  1.37185E-01 -2.71896E-01 -3.81571E-02 -1.24153E-01  4.64304E-02
  -1.02439E-01  1.40969E-02  3.91990E-01  2.32723E-01  2.87510E-01 -7.29063E-02  1.84610E-01  1.96575E-01  2.88101E-01  6.77267E-01
   2.21037E-01  4.53926E-01  2.49208E-01  2.05024E-01  5.20724E-01 -1.01334E-01  7.10026E-02  5.06932E-01  2.83540E-01  2.17438E-01
   1.14163E-01  1.58280E-01  2.15334E-01  9.51719E-02 -2.35782E-02 -1.46884E-01  8.24330E-03 -1.95392E-01 -4.15883E-02 -1.55581E-01
  -1.92289E-01  2.69967E-01 -4.06959E-01 -3.27830E-01  1.12141E-01  7.71607E-02  1.08413E-01 -1.00164E-01 -2.06013E-01 -1.18511E-01
  -7.93228E-02 -3.04987E-01 -1.60300E-01 -2.68359E-01 -4.35467E-01 -2.39043E-01 -2.71541E-01 -3.10479E-01 -7.29516E-01 -5.99980E-01
  -3.58110E-01 -7.01869E-01 -4.90765E-01 -4.88404E-01 -5.34662E-01 -1.21880E-02 -2.72359E-01 -8.66158E-01 -2.49354E-01 -4.15560E-02
  -2.56069E-01 -3.96285E-01 -5.27385E-01 -3.56954E-01 -3.53329E-01 -1.44635E-02 -1.34181E-01 -2.66049E-02 -1.40602E-01 -1.62763E-01
   2.07208E-01 -4.67507E-02  3.59686E-02  1.00512E-01  1.03362E-01 -8.14016E-02 -1.46332E-01  1.48873E-01  1.88720E-01 -3.02263E-01
  -9.20572E-02 -3.15667E-02 -6.49894E-02  5.41972E-03 -2.43122E-01  1.19968E-01 -1.07934E-01 -6.01942E-02  9.47585E-02  4.39638E-01
   7.99998E-02 -2.98351E-02  5.23489E-01  2.21496E-01  1.87530E-01 -1.53281E-01 -1.58905E-02 -1.71001E-02  1.08393E-01  1.00456E-01
  -1.00436E-01  1.28746E-01 -3.53067E-02 -1.57057E-01  5.23250E-03 -9.65494E-02 -1.19269E-01  1.64259E-01 -1.43871E-01  2.39728E-01
  -7.01696E-02 -9.82045E-03  1.94885E-01 -2.52080E-02  5.82785E-01 -1.42873E-01  4.78305E-02  2.30142E-01 -1.86349E-01  8.28544E-02
  -1.60158E-01 -1.00710E-02  2.15609E-01  1.32648E-02 -1.40501E-01 -2.63142E-01  1.16116E-01  1.47954E-01  1.08025E-01  2.11693E-01
  -1.37238E-01  9.00367E-02 -1.26523E-01  8.30939E-02  2.78417E-02 -2.06311E-01  1.76608E-01  1.60201E-01  8.43162E-02 -2.31027E-01
   1.13009E-01 -9.16881E-02 -6.29808E-02 -8.10417E-03  9.14317E-02  3.89639E-01 -2.71395E-02  1.43146E-01 -3.41058E-02  2.56865E-01
   2.74074E-01 -1.92080E-01  2.10830E-02 -7.60741E-02  2.30945E-02  1.80594E-01 -2.04031E-01 -8.40288E-02 -7.61547E-02 -3.19585E-02
   1.75863E-01 -2.24209E-01 -1.10867E-02  7.62268E-02 -1.12874E-01 -2.66889E-02 -5.60621E-02 -3.68804E-01  3.49959E-01  3.58342E-01
  -3.83226E-01  3.23256E-01  1.04085E-01 -2.52710E-01
 NY points of the fit to the data follow
   1.22542E-01  1.05666E-01  9.35574E-02  8.63496E-02  7.24715E-02  6.36071E-02  6.93460E-02  9.11911E-02  1.25417E-01  1.69613E-01
   2.23412E-01  2.80993E-01  3.29506E-01  3.67722E-01  3.98240E-01  4.15627E-01  4.16089E-01  3.99379E-01  3.67180E-01  3.22582E-01
   2.73050E-01  2.23072E-01  1.72813E-01  1.23569E-01  7.38646E-02  2.49702E-02 -1.84563E-02 -5.32068E-02 -7.37745E-02 -9.09461E-02
  -1.06153E-01 -1.20366E-01 -1.32415E-01 -1.42699E-01 -1.49271E-01 -1.50788E-01 -1.45117E-01 -1.30792E-01 -1.08021E-01 -7.79871E-02
  -4.22573E-02 -3.48863E-03  3.53769E-02  7.17960E-02  1.03350E-01  1.28911E-01  1.46724E-01  1.54875E-01  1.53156E-01  1.42315E-01
   1.22666E-01  9.59001E-02  6.39092E-02  2.48198E-02 -1.86031E-02 -5.97443E-02 -1.08356E-01 -1.57950E-01 -1.99787E-01 -2.35441E-01
  -2.60744E-01 -2.73203E-01 -2.67318E-01 -2.39505E-01 -1.97735E-01 -1.44872E-01 -7.92307E-02 -9.36634E-03  5.78450E-02  1.21677E-01
   1.76488E-01  2.06863E-01  2.12183E-01  1.96926E-01  1.58956E-01  1.05099E-01  4.44060E-02 -1.14733E-02 -5.52374E-02 -8.73193E-02
  -9.93199E-02 -8.93921E-02 -6.15901E-02 -1.68960E-02  3.94909E-02  1.01989E-01  1.60134E-01  2.11523E-01  2.45713E-01  2.60321E-01
   2.53007E-01  2.25519E-01  1.81936E-01  1.28722E-01  7.25142E-02  2.44383E-02 -1.25000E-02 -3.48758E-02 -3.82819E-02 -2.45763E-02
   4.19242E-03  4.38221E-02  8.96293E-02  1.36412E-01  1.81178E-01  2.22412E-01  2.58781E-01  2.90627E-01  3.16013E-01  3.32935E-01
   3.41916E-01  3.41944E-01  3.39665E-01  3.35137E-01  3.29668E-01  3.27622E-01  3.26179E-01  3.18590E-01  3.05502E-01  2.77754E-01
   2.32235E-01  1.66648E-01  8.32215E-02 -9.73892E-03 -1.03893E-01 -1.86096E-01 -2.48391E-01 -3.03482E-01 -3.58809E-01 -4.11937E-01
  -4.59589E-01 -5.03458E-01 -5.44438E-01 -5.74415E-01 -5.90029E-01 -5.95315E-01 -5.90103E-01 -5.70105E-01 -5.32389E-01 -4.80945E-01
  -4.18365E-01 -3.50450E-01 -2.86761E-01 -2.25060E-01 -1.64551E-01 -1.02873E-01 -3.91590E-02  2.30401E-02  7.77683E-02  1.18472E-01
   1.46635E-01  1.69922E-01  1.90673E-01  2.09866E-01  2.27835E-01  2.44197E-01  2.60876E-01  3.10000E-01  3.77439E-01  4.41925E-01
   4.89630E-01  5.17189E-01  5.19705E-01  4.87295E-01  4.16635E-01  3.26895E-01  2.23748E-01  1.02610E-01 -2.70988E-02 -1.53423E-01
  -2.66985E-01 -3.59707E-01 -4.25431E-01 -4.70292E-01 -5.00634E-01 -5.16663E-01 -5.20286E-01 -5.06736E-01 -4.74428E-01 -4.28796E-01
  -3.78871E-01 -3.43977E-01 -3.15987E-01 -2.91880E-01 -2.70189E-01 -2.50880E-01 -2.33343E-01 -2.17581E-01 -2.03138E-01 -1.89612E-01
  -1.76853E-01 -1.64872E-01 -1.53643E-01 -1.43012E-01 -1.32905E-01 -1.23393E-01 -1.14499E-01 -1.06218E-01 -9.86343E-02 -9.17010E-02
  -8.54433E-02 -7.98474E-02 -7.48275E-02 -7.03429E-02 -6.62911E-02 -6.25303E-02 -5.89663E-02 -5.54959E-02 -5.21587E-02 -4.89198E-02
  -4.57986E-02 -4.28189E-02 -4.00826E-02 -3.77948E-02 -3.72688E-02 -3.75694E-02 -3.60706E-02 -3.09388E-02 -2.29360E-02 -1.46794E-02
  -5.28642E-03  9.46063E-03  2.93755E-02  5.22709E-02  7.69114E-02  1.02455E-01  1.26611E-01  1.45444E-01  1.56783E-01  1.61658E-01
   1.60784E-01  1.53783E-01  1.40626E-01  1.21765E-01  9.80864E-02  7.16825E-02  4.52893E-02  2.06570E-02 -1.11727E-03 -2.06965E-02
  -3.91239E-02 -5.58108E-02 -6.91115E-02 -7.77516E-02 -8.29527E-02 -8.72367E-02 -9.42281E-02 -1.02076E-01 -1.08821E-01 -1.16356E-01
  -1.23375E-01 -1.28644E-01 -1.29135E-01 -1.25240E-01 -1.18659E-01 -1.07641E-01 -9.09192E-02 -7.06275E-02 -4.90108E-02 -2.63685E-02
  -3.73011E-03  1.72139E-02  3.54108E-02  5.06683E-02  6.18201E-02  6.87983E-02  7.09780E-02  6.80280E-02  6.06560E-02  4.90722E-02
   3.52758E-02  1.88427E-02 -1.66776E-03 -2.54041E-02 -5.47249E-02 -9.05159E-02 -1.29839E-01 -1.69276E-01 -2.03863E-01 -2.28334E-01
  -2.39377E-01 -2.34888E-01 -2.15398E-01 -1.82978E-01 -1.40071E-01 -9.01811E-02 -3.72453E-02  1.53461E-02  6.44092E-02  1.07550E-01
   1.43279E-01  1.72358E-01  1.94879E-01  2.11226E-01  2.22034E-01  2.26576E-01  2.26258E-01  2.22012E-01  2.16008E-01  2.10459E-01
   2.05518E-01  2.02265E-01  1.99665E-01  1.96796E-01  1.93065E-01  1.87887E-01  1.81293E-01  1.73103E-01  1.63199E-01  1.51382E-01
   1.36991E-01  1.20127E-01  9.99243E-02  7.65619E-02  4.97619E-02  2.02311E-02 -1.18859E-02 -4.53750E-02 -7.87452E-02 -1.09641E-01
  -1.35526E-01 -1.55148E-01 -1.66817E-01 -1.70958E-01 -1.68795E-01 -1.61526E-01 -1.51805E-01 -1.40744E-01 -1.30559E-01 -1.21994E-01
  -1.15149E-01 -1.00218E-01 -7.70288E-02 -7.08350E-02 -9.27205E-02 -1.40397E-01 -2.07907E-01 -2.92855E-01 -3.90772E-01 -4.86301E-01
  -5.64352E-01 -6.27144E-01 -6.73355E-01 -6.94691E-01 -6.88079E-01 -6.54448E-01 -5.98194E-01 -5.27491E-01 -4.53586E-01 -3.80451E-01
  -3.08112E-01 -2.36911E-01 -1.65127E-01 -9.87219E-02 -4.49480E-02 -1.24348E-02  3.42870E-04  6.03886E-03  7.60314E-03  6.41416E-03
   3.66963E-03  1.27885E-04 -3.42962E-03 -6.34218E-03 -8.17134E-03 -8.56196E-03 -7.47447E-03 -4.85715E-03 -9.04226E-04  4.21080E-03
   1.02068E-02  1.67744E-02  2.37715E-02  3.08030E-02  3.77399E-02  4.43470E-02  5.03514E-02  5.58599E-02  6.07153E-02  6.51018E-02
   6.90283E-02  7.26017E-02  7.59625E-02  7.92320E-02  8.24581E-02  8.56099E-02  8.86324E-02  9.14427E-02  9.39895E-02  9.62336E-02
   9.80892E-02  9.94615E-02  1.00256E-01  1.00339E-01  9.96243E-02  9.80301E-02  9.56182E-02  9.24109E-02  8.83614E-02  8.34849E-02
   7.78580E-02  7.16099E-02  6.48540E-02  5.77561E-02  5.04897E-02  4.32050E-02  3.59892E-02  2.89368E-02  2.21460E-02  1.56615E-02
   9.57274E-03  3.91806E-03 -1.32906E-03 -6.15338E-03 -1.05197E-02 -1.44361E-02 -1.79191E-02 -2.08732E-02 -2.32628E-02 -2.49623E-02
  -2.58895E-02 -2.60201E-02 -2.56197E-02 -2.65459E-02 -2.54885E-02 -2.16531E-02 -1.25417E-02  3.13725E-03  2.47235E-02  5.06644E-02
   7.86398E-02  1.05518E-01  1.30043E-01  1.50542E-01  1.65663E-01  1.75585E-01  1.79876E-01  1.78589E-01  1.72827E-01  1.64879E-01
   1.56411E-01  1.48692E-01  1.42611E-01  1.37473E-01  1.33394E-01  1.30828E-01  1.30485E-01  1.33688E-01  1.38676E-01  1.45081E-01
   1.50838E-01  1.54833E-01  1.56821E-01  1.56844E-01  1.54851E-01  1.50964E-01  1.45315E-01  1.38114E-01  1.29596E-01  1.20037E-01
   1.09761E-01  9.90562E-02  8.81470E-02  7.71743E-02  6.63202E-02  5.57813E-02  4.57458E-02  3.64053E-02  2.78795E-02  2.02885E-02
   1.36828E-02  8.11487E-03  3.67797E-03  4.52905E-04 -1.50064E-03 -2.21760E-03 -1.71008E-03 -1.37948E-04  2.33680E-03  5.52065E-03
   9.30112E-03  1.35379E-02  1.80660E-02  2.26833E-02  2.72459E-02  3.16130E-02  3.55762E-02  3.90268E-02  4.18885E-02  4.41102E-02
   4.56261E-02  4.63502E-02  4.62678E-02  4.54532E-02  4.39969E-02  4.19636E-02  3.94115E-02  3.63518E-02  3.28391E-02  2.89718E-02
   2.48208E-02  2.04687E-02  1.60170E-02  1.15728E-02  7.19313E-03  2.82083E-03 -1.58560E-03 -6.03097E-03 -1.05673E-02 -1.52658E-02
  -2.01582E-02 -2.54057E-02 -3.12152E-02 -3.77731E-02 -4.52455E-02 -5.38235E-02 -6.36717E-02 -7.48660E-02 -8.73513E-02 -1.01128E-01
  -1.16206E-01 -1.32354E-01 -1.49207E-01 -1.66402E-01 -1.83594E-01 -2.00396E-01 -2.16321E-01 -2.30954E-01 -2.43956E-01 -2.54983E-01
  -2.63740E-01 -2.70143E-01 -2.74191E-01 -2.76016E-01 -2.75775E-01 -2.73650E-01 -2.69813E-01 -2.64398E-01 -2.57643E-01 -2.49719E-01
  -2.40794E-01 -2.31046E-01 -2.20640E-01 -2.09626E-01 -1.98099E-01 -1.86228E-01 -1.74261E-01 -1.62198E-01 -1.50044E-01 -1.37988E-01
  -1.26185E-01 -1.14689E-01 -1.03582E-01 -9.29827E-02 -8.29767E-02 -7.36064E-02 -6.49187E-02 -5.68843E-02 -4.95021E-02 -4.28168E-02
  -3.68494E-02 -3.15655E-02 -2.69062E-02 -2.28615E-02 -1.93485E-02 -1.62121E-02 -1.33921E-02 -1.08704E-02 -8.55464E-03 -6.38486E-03
  -4.33584E-03 -2.44860E-03 -7.26301E-04  8.86904E-04  2.33581E-03  3.56111E-03  4.56745E-03  5.31900E-03  5.88267E-03  6.42538E-03
   6.92656E-03  7.25291E-03  7.39624E-03  7.42213E-03  7.35727E-03  7.16044E-03  6.86486E-03  6.60550E-03  6.37375E-03  6.06292E-03
   5.58956E-03  5.03897E-03  4.47511E-03  3.92168E-03  3.38278E-03  2.88078E-03  2.44658E-03  2.10429E-03  1.86137E-03  1.77565E-03
   1.92200E-03  2.37965E-03  3.05784E-03  3.80066E-03  4.57704E-03  5.40533E-03  6.22203E-03  6.99386E-03  7.70087E-03  8.45331E-03
   9.16264E-03  9.68141E-03  1.01165E-02  1.05309E-02  1.10616E-02  1.17849E-02  1.26693E-02  1.37108E-02  1.48226E-02  1.59481E-02
   1.71020E-02  1.82735E-02  1.94299E-02  2.05737E-02  2.16263E-02  2.25060E-02  2.32533E-02  2.38542E-02  2.43232E-02  2.47494E-02
   2.52128E-02  2.56446E-02  2.60323E-02  2.63883E-02  2.68446E-02  2.74844E-02  2.81838E-02  2.89363E-02  2.97842E-02  3.07300E-02
   3.18739E-02  3.32446E-02  3.48994E-02  3.68254E-02  3.89698E-02  4.12945E-02  4.38499E-02  4.66389E-02  4.96638E-02  5.28685E-02
   5.62074E-02  5.96666E-02  6.32192E-02  6.68637E-02
 NY background values follow
     1.092E-01    1.088E-01    1.085E-01    1.082E-01    1.078E-01    1.075E-01    1.072E-01    1.068E-01    1.065E-01    1.062E-01
     1.058E-01    1.055E-01    1.051E-01    1.048E-01    1.045E-01    1.041E-01    1.038E-01    1.035E-01    1.031E-01    1.028E-01
     1.025E-01    1.021E-01    1.018E-01    1.015E-01    1.011E-01    1.008E-01    1.004E-01    1.001E-01    9.977E-02    9.943E-02
     9.910E-02    9.876E-02    9.842E-02    9.809E-02    9.775E-02    9.741E-02    9.708E-02    9.674E-02    9.640E-02    9.607E-02
     9.573E-02    9.539E-02    9.505E-02    9.472E-02    9.438E-02    9.404E-02    9.371E-02    9.337E-02    9.303E-02    9.269E-02
     9.236E-02    9.202E-02    9.168E-02    9.134E-02    9.101E-02    9.067E-02    9.033E-02    8.999E-02    8.966E-02    8.932E-02
     8.898E-02    8.864E-02    8.830E-02    8.797E-02    8.763E-02    8.729E-02    8.695E-02    8.661E-02    8.628E-02    8.594E-02
