 LCModel (Version 6.3-1N) Copyright: S.W. Provencher.          Ref.: Magn. Reson. Med. 30:672-679 (1993).                
 Slice_N1@12_20  02-Jun-2023 14:36:36
 27 lines in following concentration table = NCONC+1
    Conc.  %SD /Cr+PCr  Metabolite                                         
 1.11E-06  51% 8.3E-05 Mac                                                 
 7.37E-02  25%   5.520 Cr                                                  
 3.31E-02  51%   2.480 PCr                                                 
    0.129  11%   9.698 Ins                                                 
    0.122   9%   9.138 NAA                                                 
 6.62E-02  19%   4.956 Tau                                                 
 1.96E-02  45%   1.467 PCho                                                
 8.13E-03  98%   0.609 GPC                                                 
    0.103  15%   7.680 Glu                                                 
 2.42E-02  45%   1.813 Gln                                                 
 2.55E-02  48%   1.908 Ala                                                 
 2.15E-02  98%   1.612 Asc                                                 
 2.17E-02  55%   1.625 Asp                                                 
 1.43E-02  46%   1.074 GABA                                                
 1.71E-02  46%   1.281 Glc                                                 
 1.07E-02  53%   0.800 GSH                                                 
 2.19E-03 532%   0.164 Lac                                                 
 1.80E-02  44%   1.348 NAAG                                                
    0.000 999%   0.000 PE                                                  
 2.77E-02  13%   2.076 GPC+PCho                                            
    0.140   9%  10.485 NAA+NAAG                                            
    0.127  14%   9.492 Glu+Gln                                             
    0.107  10%   8.000 Cr+PCr                                              
    0.140   9%  10.485 NAA+NAAG                                            
    0.107  10%   8.000 Cr+PCr                                              
    0.127  14%   9.492 Glu+Gln                                             
   6 lines in following misc. output table
  FWHM = 0.023 ppm    S/N =   4                                            
  Data shift = 0.017 ppm                                                   
  Ph: -17 deg       2.0 deg/ppm                                            
  alphaB,S = 3.1E+01,   6.7E-01                                            
   18 spline knots.   Ns = 5(1)                                            
   2 inflections.     1 extrema                                            
  654 points on ppm-axis = NY
      4.000000     3.994181     3.988363     3.982544     3.976726     3.970907     3.965088     3.959270     3.953451     3.947633
      3.941814     3.935995     3.930177     3.924358     3.918540     3.912721     3.906902     3.901084     3.895265     3.889446
      3.883628     3.877809     3.871991     3.866172     3.860353     3.854535     3.848716     3.842898     3.837079     3.831260
      3.825442     3.819623     3.813805     3.807986     3.802167     3.796349     3.790530     3.784712     3.778893     3.773074
      3.767256     3.761437     3.755619     3.749800     3.743981     3.738163     3.732344     3.726526     3.720707     3.714888
      3.709070     3.703251     3.697433     3.691614     3.685795     3.679977     3.674158     3.668339     3.662521     3.656702
      3.650884     3.645065     3.639246     3.633428     3.627609     3.621791     3.615972     3.610153     3.604335     3.598516
      3.592698     3.586879     3.581060     3.575242     3.569423     3.563605     3.557786     3.551967     3.546149     3.540330
      3.534512     3.528693     3.522874     3.517056     3.511237     3.505419     3.499600     3.493781     3.487963     3.482144
      3.476326     3.470507     3.464688     3.458870     3.453051     3.447232     3.441414     3.435595     3.429777     3.423958
      3.418139     3.412321     3.406502     3.400684     3.394865     3.389046     3.383228     3.377409     3.371591     3.365772
      3.359953     3.354135     3.348316     3.342498     3.336679     3.330860     3.325042     3.319223     3.313405     3.307586
      3.301767     3.295949     3.290130     3.284312     3.278493     3.272674     3.266856     3.261037     3.255219     3.249400
      3.243581     3.237763     3.231944     3.226125     3.220307     3.214488     3.208670     3.202851     3.197032     3.191214
      3.185395     3.179577     3.173758     3.167939     3.162121     3.156302     3.150484     3.144665     3.138846     3.133028
      3.127209     3.121391     3.115572     3.109753     3.103935     3.098116     3.092298     3.086479     3.080660     3.074842
      3.069023     3.063205     3.057386     3.051567     3.045749     3.039930     3.034111     3.028293     3.022474     3.016656
      3.010837     3.005018     2.999200     2.993381     2.987563     2.981744     2.975925     2.970107     2.964288     2.958470
      2.952651     2.946832     2.941014     2.935195     2.929377     2.923558     2.917739     2.911921     2.906102     2.900284
      2.894465     2.888646     2.882828     2.877009     2.871191     2.865372     2.859553     2.853735     2.847916     2.842098
      2.836279     2.830460     2.824642     2.818823     2.813004     2.807186     2.801367     2.795549     2.789730     2.783911
      2.778093     2.772274     2.766456     2.760637     2.754818     2.749000     2.743181     2.737363     2.731544     2.725725
      2.719907     2.714088     2.708270     2.702451     2.696632     2.690814     2.684995     2.679177     2.673358     2.667539
      2.661721     2.655902     2.650084     2.644265     2.638446     2.632628     2.626809     2.620991     2.615172     2.609353
      2.603535     2.597716     2.591897     2.586079     2.580260     2.574442     2.568623     2.562804     2.556986     2.551167
      2.545349     2.539530     2.533711     2.527893     2.522074     2.516256     2.510437     2.504618     2.498800     2.492981
      2.487163     2.481344     2.475525     2.469707     2.463888     2.458070     2.452251     2.446432     2.440614     2.434795
      2.428977     2.423158     2.417339     2.411521     2.405702     2.399884     2.394065     2.388246     2.382428     2.376609
      2.370790     2.364972     2.359153     2.353335     2.347516     2.341697     2.335879     2.330060     2.324242     2.318423
      2.312604     2.306786     2.300967     2.295149     2.289330     2.283511     2.277693     2.271874     2.266056     2.260237
      2.254418     2.248600     2.242781     2.236963     2.231144     2.225325     2.219507     2.213688     2.207870     2.202051
      2.196232     2.190414     2.184595     2.178777     2.172958     2.167139     2.161321     2.155502     2.149683     2.143865
      2.138046     2.132228     2.126409     2.120590     2.114772     2.108953     2.103135     2.097316     2.091497     2.085679
      2.079860     2.074042     2.068223     2.062404     2.056586     2.050767     2.044949     2.039130     2.033311     2.027493
      2.021674     2.015856     2.010037     2.004218     1.998400     1.992581     1.986763     1.980944     1.975126     1.969307
      1.963489     1.957670     1.951852     1.946033     1.940215     1.934397     1.928578     1.922760     1.916941     1.911123
      1.905304     1.899486     1.893667     1.887849     1.882030     1.876212     1.870393     1.864575     1.858756     1.852938
      1.847119     1.841301     1.835482     1.829664     1.823845     1.818027     1.812208     1.806390     1.800571     1.794753
      1.788934     1.783116     1.777297     1.771479     1.765660     1.759842     1.754023     1.748205     1.742386     1.736568
      1.730749     1.724931     1.719113     1.713294     1.707476     1.701657     1.695839     1.690020     1.684202     1.678383
      1.672565     1.666746     1.660928     1.655109     1.649291     1.643472     1.637654     1.631835     1.626017     1.620198
      1.614380     1.608561     1.602743     1.596924     1.591106     1.585287     1.579469     1.573650     1.567832     1.562013
      1.556195     1.550376     1.544558     1.538739     1.532921     1.527102     1.521284     1.515465     1.509647     1.503829
      1.498010     1.492192     1.486373     1.480555     1.474736     1.468918     1.463099     1.457281     1.451462     1.445644
      1.439825     1.434007     1.428188     1.422370     1.416551     1.410733     1.404914     1.399096     1.393277     1.387459
      1.381640     1.375822     1.370003     1.364185     1.358366     1.352548     1.346729     1.340911     1.335092     1.329274
      1.323455     1.317637     1.311818     1.306000     1.300182     1.294363     1.288545     1.282726     1.276908     1.271089
      1.265271     1.259452     1.253634     1.247815     1.241997     1.236178     1.230360     1.224541     1.218723     1.212904
      1.207086     1.201267     1.195449     1.189630     1.183812     1.177993     1.172175     1.166356     1.160538     1.154719
      1.148901     1.143082     1.137264     1.131445     1.125627     1.119808     1.113990     1.108171     1.102353     1.096534
      1.090716     1.084898     1.079079     1.073261     1.067442     1.061624     1.055805     1.049987     1.044168     1.038350
      1.032531     1.026713     1.020894     1.015076     1.009257     1.003439     0.997620     0.991802     0.985983     0.980165
      0.974346     0.968528     0.962709     0.956891     0.951072     0.945254     0.939435     0.933617     0.927798     0.921980
      0.916161     0.910343     0.904524     0.898706     0.892887     0.887069     0.881251     0.875432     0.869614     0.863795
      0.857977     0.852158     0.846340     0.840521     0.834703     0.828884     0.823066     0.817247     0.811429     0.805610
      0.799792     0.793973     0.788155     0.782336     0.776518     0.770699     0.764881     0.759062     0.753244     0.747425
      0.741607     0.735788     0.729970     0.724151     0.718333     0.712514     0.706696     0.700877     0.695059     0.689240
      0.683422     0.677603     0.671785     0.665967     0.660148     0.654330     0.648511     0.642693     0.636874     0.631056
      0.625237     0.619419     0.613600     0.607782     0.601963     0.596145     0.590326     0.584508     0.578689     0.572871
      0.567052     0.561234     0.555415     0.549597     0.543778     0.537960     0.532141     0.526323     0.520504     0.514686
      0.508867     0.503049     0.497230     0.491412     0.485593     0.479775     0.473956     0.468138     0.462319     0.456501
      0.450682     0.444864     0.439045     0.433227     0.427408     0.421590     0.415771     0.409953     0.404134     0.398316
      0.392497     0.386679     0.380860     0.375042     0.369223     0.363405     0.357586     0.351767     0.345949     0.340130
      0.334312     0.328493     0.322675     0.316856     0.311038     0.305219     0.299401     0.293582     0.287764     0.281945
      0.276127     0.270308     0.264490     0.258671     0.252853     0.247034     0.241216     0.235397     0.229579     0.223760
      0.217942     0.212123     0.206305     0.200486
 NY phased data points follow
  -2.68172E-01 -8.00160E-01 -5.03333E-01 -3.23746E-01 -5.81964E-01 -2.75081E-01 -6.51079E-01 -8.51996E-01 -9.89812E-01 -2.95768E-01
  -1.28022E-01 -6.27484E-02  1.16711E-01  4.43558E-01  1.02061E+00  2.58406E-01  5.49083E-01  1.04358E+00  8.58254E-02  2.81969E-01
   2.94047E-02  2.75509E-02  4.16841E-01 -2.74758E-01 -1.35611E-01 -3.46491E-02  2.34777E-01 -4.24669E-01 -4.51824E-01  4.57177E-01
  -1.25179E-01 -1.88504E-01  1.68495E-01 -5.35636E-02  9.34899E-02 -1.88566E-01 -2.78020E-01 -2.87268E-01 -6.04969E-01  4.04292E-01
   5.41423E-02 -6.22891E-02  4.48051E-02 -7.99946E-03  9.39286E-01  8.62777E-01  6.87556E-01  4.00553E-01  8.75246E-02  1.59849E-01
   2.89075E-01  3.21514E-01  1.66842E-01 -4.14333E-01  2.32198E-01  1.27283E-01 -6.81256E-01 -4.07218E-02 -2.66437E-01 -4.40467E-01
  -3.15643E-01 -6.53336E-01 -8.85594E-01 -6.03976E-01 -8.22433E-01 -8.26416E-01  9.07355E-02  1.38303E-01  2.02497E-01  1.33938E-01
  -1.70613E-01  5.76405E-01  4.92860E-02 -9.87310E-02  8.95948E-01  8.32016E-02 -1.80024E-01 -2.10171E-01 -1.12425E+00 -8.68456E-01
  -4.82264E-01 -5.94669E-01  2.01408E-02  4.14623E-01  4.89378E-01  4.34503E-01  6.01661E-01  1.68128E-01 -6.37081E-02  5.09987E-01
   1.13532E-01  4.10696E-01  6.01458E-01  2.35065E-01  6.61184E-02  2.98350E-01  7.10088E-02 -8.41465E-03  3.66114E-01 -1.42104E-02
  -1.14552E-01 -1.18899E-01 -1.11269E-01  2.90279E-01  7.09842E-01  1.18994E-01  1.21249E-01  5.60068E-01  1.03947E+00  1.07345E+00
   5.91783E-01  8.04242E-01  2.66357E-01  3.03415E-01  9.36605E-01  8.18842E-01  4.69115E-01  1.66906E-01  4.02408E-01  3.34426E-01
   4.93634E-02  3.96234E-01 -1.10359E-01  5.61293E-03  3.70807E-02 -2.74978E-01 -1.29521E-01 -1.06563E-03 -5.49621E-02 -5.19114E-01
  -1.71191E-01 -1.14223E+00 -7.74883E-01 -1.75338E-01 -4.88660E-01 -9.26367E-01 -1.74206E+00 -1.06523E+00 -1.44093E+00 -9.56027E-01
  -1.52059E-01 -2.43347E-01 -7.65422E-02 -3.32413E-01 -2.17596E-01 -2.00809E-02 -2.48114E-01  2.00519E-01  1.92855E-01  1.73243E-01
   2.62324E-01  2.19528E-01  7.72805E-01  4.52888E-01  4.54958E-01  2.15059E-01  2.61281E-01 -1.28055E-01 -1.33933E-01  5.49136E-01
   8.23420E-01  8.11626E-01  5.85664E-01  1.26277E+00  8.66680E-01  1.44965E+00  1.31896E+00  3.61075E-01 -3.80900E-01 -1.07127E+00
  -1.32610E+00 -1.30477E+00 -5.99511E-01 -9.48870E-01 -6.93049E-01 -1.24159E+00 -4.71944E-01 -2.88097E-01 -1.42612E+00 -5.20636E-01
  -5.29471E-01 -2.45883E-01 -2.94385E-01 -7.32231E-01 -4.69433E-01 -3.77887E-01 -5.61573E-01 -2.60383E-01 -2.28569E-01 -3.35702E-01
  -2.07395E-01 -7.09874E-01 -5.81272E-01  3.02072E-02  8.42088E-02 -2.39362E-01  1.26752E-01 -1.60901E-01 -3.42935E-01 -3.11885E-02
  -1.44471E-01  1.38612E-01  1.12480E-01  3.23914E-02  1.07033E-01  3.05263E-01 -1.72239E-01 -3.17320E-01  1.19018E-01 -9.11761E-02
  -1.06019E-01 -1.15745E-01 -1.90834E-02  8.71942E-02 -3.39086E-01  2.13820E-01  3.11840E-01 -2.89644E-01  5.40608E-01  3.40620E-01
  -9.09040E-02 -1.04377E-01 -4.41800E-01  4.54141E-01  1.01655E+00  1.92748E-01  6.77263E-02  3.01950E-01  6.81998E-01  9.46941E-01
   3.48010E-01  2.88118E-01 -1.91916E-01  2.43043E-01  6.30076E-01  2.32427E-01  2.80914E-02 -1.89285E-01  9.63368E-02 -1.44013E-01
  -3.75096E-01 -5.97782E-01 -2.35382E-01 -8.99391E-02 -2.61124E-01 -2.01454E-01 -2.62352E-01 -1.66848E-01  2.90871E-01  1.21573E-01
  -2.50761E-01  1.29591E-01 -1.46935E-01 -1.94530E-01  1.29460E-01  3.45746E-01  1.21431E-01 -2.32757E-01 -9.52551E-02  3.66851E-01
   3.20324E-01  4.08504E-01  2.28384E-01  1.04084E-01  3.22695E-01  5.02828E-01  5.21940E-01  8.19716E-02  6.23973E-01  3.72517E-01
   6.36875E-01  1.02750E-01  2.10750E-01  2.04739E-01 -1.14965E-01  4.04390E-01 -7.63689E-01 -8.75774E-02 -5.46095E-01 -2.07757E-01
  -3.23644E-01 -1.03310E+00 -1.00430E-01 -3.90125E-01 -2.30042E-01 -9.59383E-02  5.56288E-01  6.35008E-01  5.65620E-01  8.08900E-01
   6.97889E-02  3.74638E-01  6.59203E-01  7.07012E-02  3.42480E-01 -5.07781E-01  7.99493E-02  5.57656E-01 -4.08449E-01 -2.09628E-01
   2.62639E-01  7.15610E-01  2.26630E-01  7.04946E-01  1.58821E-01  2.90063E-01  1.01897E+00  7.99312E-01  2.62769E-01 -2.57100E-01
   9.93071E-02  1.04201E-01  4.36079E-01  1.31735E-01  4.26360E-01  2.28368E-01 -1.87715E-01 -2.11947E-02 -2.80985E-01 -5.42098E-01
  -4.80940E-01 -2.71268E-01  1.45063E-01  4.66664E-01 -8.89407E-02 -1.45108E-01 -3.57374E-01 -4.59473E-01 -2.14766E-01  4.75076E-02
   3.07436E-01  2.48536E-02 -3.37937E-01 -6.12113E-02 -2.98383E-01 -5.15318E-01 -4.39697E-01 -3.46779E-01 -7.62815E-01 -5.94828E-01
  -2.91960E-01 -1.83734E+00 -2.00104E+00 -2.54043E+00 -1.85424E+00 -4.57426E-01 -3.65326E-01 -6.45246E-02  1.98498E-01 -9.19518E-02
  -4.62523E-01  5.25976E-01  1.99441E-01  3.05737E-01  6.49969E-01  2.85789E-01  2.04494E-01  2.35790E-01  3.59281E-01  2.84160E-01
   2.41075E-01  2.77149E-01  3.89320E-02  7.45916E-03 -1.03641E-01 -3.72747E-01  1.07216E-01  2.95388E-02  3.94710E-01  2.38959E-01
  -6.95070E-02  2.58503E-01  5.44528E-01 -2.49559E-01  9.17161E-02  6.60168E-01  1.41699E-01  4.70507E-01  3.72420E-04  8.91412E-02
  -4.01873E-01  1.75411E-01  3.48491E-03  1.39603E-01  3.68664E-01  3.27538E-02  8.41243E-01 -6.71203E-02  7.96743E-02 -1.94123E-01
  -1.36647E-01  2.71622E-01  2.54994E-01  5.15556E-02  3.08311E-01  4.00935E-01  2.68233E-01  3.14169E-01 -4.51879E-01  2.41063E-02
   2.50459E-01 -5.45776E-02 -2.71616E-01  4.20229E-02 -4.01940E-01  1.08973E-01 -8.36549E-02 -5.36034E-01  2.13143E-01 -3.97756E-01
  -2.75244E-03  1.21731E-01  3.55849E-01  8.58212E-02 -1.19916E-01 -1.48428E-01 -2.14003E-01  4.57039E-01 -2.97006E-02  3.83260E-02
   1.22114E-01 -5.37922E-02  3.44514E-01  2.39394E-02 -1.43035E-01 -1.72111E-02 -6.30740E-01 -2.57000E-01  3.92552E-01 -2.73321E-01
   1.74700E-01  6.89392E-01  1.85761E-01  5.35162E-01  2.09941E-01  1.65075E-01  3.86194E-01  2.45390E-01  1.03435E-01 -2.52386E-01
   7.38753E-02 -3.27618E-02  1.07222E-01  1.56203E-01  1.09522E-01  5.25055E-02 -1.13252E-01  3.44397E-01  3.12100E-01 -5.96387E-01
  -5.75919E-01 -2.12493E-01 -1.86314E-01  2.71146E-01  1.71964E-01 -6.46659E-03 -5.93112E-01 -2.38735E-01 -3.33067E-01 -4.40910E-01
   3.71373E-01  1.83669E-01  1.77495E-01  7.19401E-02 -9.18422E-05 -2.22799E-01 -6.38067E-02  1.26781E-01  8.81819E-02 -3.83713E-01
  -1.88870E-01  1.80338E-01  1.46940E-02 -1.99619E-01 -3.55980E-01 -8.90525E-02 -4.80430E-01  2.02172E-01 -3.70560E-01 -1.44420E-01
  -2.15866E-01 -6.99846E-01  1.95466E-01 -6.44761E-01  1.65765E-01 -4.43265E-02 -6.21964E-02  4.28113E-01  2.49111E-01  1.27877E-01
   5.90720E-02  4.27469E-01 -2.02800E-01  3.00530E-01  1.69740E-02 -3.25386E-01 -2.72211E-01  3.82847E-02  1.18777E-01  1.87265E-01
  -1.38304E-01 -4.19886E-01  5.03922E-01 -1.19738E-01  5.52069E-01  5.83541E-01  1.29661E-01  1.65202E-01  6.06520E-01  8.49220E-01
  -2.37862E-01 -1.24004E-01 -7.10373E-02 -4.17103E-02 -3.38863E-01  5.91546E-03  3.82133E-01  1.57011E-01 -2.45501E-01 -4.29921E-01
  -1.21582E-01 -5.99062E-02  1.26835E-01  1.47240E-01 -3.11206E-01  1.89953E-02  2.39804E-01 -1.03919E+00 -5.20482E-01 -4.09480E-01
  -8.63978E-01 -6.86594E-01 -3.12537E-01 -1.07541E-01 -2.38167E-01 -3.30108E-01 -3.43583E-01  5.23313E-01 -6.35930E-01 -3.31345E-01
   2.20347E-01 -2.83889E-01 -3.18907E-01 -6.10646E-01  1.18534E-01 -1.12506E-01  4.45636E-01  3.92222E-01 -2.57082E-01  3.31273E-01
   1.32879E-01  4.72628E-01  7.67898E-01  3.19368E-01  2.65722E-01  2.66014E-01  2.73540E-01 -2.30214E-01 -1.14984E-01  1.36957E-01
  -7.81642E-02 -2.62500E-01 -3.91073E-01 -2.93513E-02 -2.61818E-02  1.21377E-01 -2.60919E-01 -4.37444E-01  2.34675E-03  4.26496E-01
   1.62690E-01 -1.81982E-01 -3.98093E-01 -3.91548E-01  6.64814E-01  4.67983E-01 -5.07394E-02 -5.47876E-03 -1.30865E-01 -4.32487E-01
   2.24659E-02  3.55327E-04 -4.38147E-01  9.05190E-03  3.23576E-01 -1.44613E-01  2.35455E-02  3.90363E-01 -6.94182E-01 -1.61767E-01
   1.80010E-01 -1.02413E-01 -2.05745E-02 -7.71655E-03  2.88094E-01  3.08594E-01 -9.75219E-02 -3.28163E-01  4.94215E-01  1.21097E-01
  -2.29116E-01 -2.23808E-01 -8.91820E-02  2.54492E-01  4.44080E-01  5.69469E-01 -1.34345E-01  2.63690E-01  3.17227E-01 -3.58281E-01
  -1.75405E-01 -5.99238E-02 -1.18636E-01 -1.02565E-01  2.68796E-01  2.36180E-01  1.29991E-01 -8.95602E-02  2.35459E-02  5.05921E-01
  -2.04371E-01 -1.33426E-01  1.59543E-01  1.50921E-01  3.39756E-01  5.61682E-01  1.77832E-01 -2.20443E-01  1.08751E-01 -6.79555E-02
  -1.34219E-02 -5.70408E-01 -1.07938E-01  5.74379E-01  1.57713E-01  1.67634E-01  3.54196E-01  2.14105E-01 -1.74378E-01 -3.65566E-03
   3.91851E-01  1.39518E-01 -5.71103E-02  2.74954E-01 -1.46280E-01 -2.10363E-01 -3.93264E-01  2.34117E-01  9.98789E-02 -5.47196E-01
  -4.17941E-01 -5.61063E-01 -1.41780E-01 -1.67586E-01
 NY points of the fit to the data follow
  -5.12608E-02 -7.22647E-02 -9.87757E-02 -1.10316E-01 -1.24314E-01 -1.21580E-01 -1.18605E-01 -1.15396E-01 -9.25865E-02 -5.40356E-02
  -1.08842E-02  1.67871E-01  4.13682E-01  3.86451E-01  6.86460E-01  9.59902E-01  7.01251E-01  9.80520E-01  4.06209E-01  1.54694E-01
   2.25537E-01  8.44571E-02  2.63821E-02 -2.72019E-02 -7.77649E-02 -1.13108E-01 -1.36345E-01 -1.52911E-01 -1.75890E-01 -1.81879E-01
  -1.98945E-01 -2.21487E-01 -2.39880E-01 -2.82117E-01 -3.17998E-01 -3.51037E-01 -3.57446E-01 -3.21708E-01 -3.09802E-01 -7.30362E-02
  -9.24430E-02  1.92039E-01  1.98721E-01  3.29764E-01  4.18288E-01  4.00543E-01  3.82676E-01  2.62991E-01  2.27078E-01  1.41919E-01
   8.98290E-02  5.95663E-02 -2.14353E-02 -5.62030E-02 -1.05824E-01 -1.91149E-01 -2.48024E-01 -3.05628E-01 -3.55011E-01 -4.15208E-01
  -4.29627E-01 -5.51349E-01 -5.97435E-01 -3.66486E-01 -5.49368E-01 -2.96139E-01  6.93448E-02 -8.51510E-02  5.38611E-01  5.44624E-01
   4.28605E-01  6.53208E-01  4.41163E-01  2.84901E-01  2.07471E-01  5.72486E-02 -1.11176E-01 -2.60138E-01 -4.50835E-01 -7.78343E-01
  -7.19419E-01 -4.90839E-01 -3.70807E-01  1.99561E-01  3.28565E-01  4.41816E-01  7.77979E-01  6.55430E-01  5.35400E-01  5.11260E-01
   4.63344E-01  3.92175E-01  3.63694E-01  3.12618E-01  2.40300E-01  1.76719E-01  5.71988E-02 -7.66983E-02 -1.56671E-01 -2.84014E-01
  -1.16197E-01 -8.73709E-02  1.74358E-01  2.82948E-01  3.45507E-01  4.08969E-01  3.95348E-01  4.14253E-01  4.26091E-01  4.22782E-01
   4.29224E-01  4.30984E-01  4.27900E-01  4.28903E-01  4.29180E-01  4.31095E-01  4.34661E-01  4.38259E-01  4.33608E-01  4.12618E-01
   4.07694E-01  3.42171E-01  1.53170E-01  1.89261E-01 -3.02077E-02 -1.97334E-01 -1.05295E-01 -5.15662E-01 -3.47422E-01 -5.75660E-01
  -4.40499E-01 -5.29970E-01 -2.49807E-01 -2.91130E-01 -5.34151E-01 -7.04676E-01 -1.55524E+00 -1.22320E+00 -1.35874E+00 -7.23725E-01
  -2.94998E-01 -3.43347E-01 -1.48704E-01 -7.74775E-02 -2.40384E-02  1.93328E-02  5.54824E-02  8.78135E-02  1.15780E-01  1.41856E-01
   1.66934E-01  1.91028E-01  2.15786E-01  2.41395E-01  2.69123E-01  2.98741E-01  3.33536E-01  3.72279E-01  4.17807E-01  4.73257E-01
   5.44845E-01  6.43682E-01  7.93044E-01  9.62451E-01  1.01251E+00  1.18184E+00  1.32208E+00  2.93957E-01 -2.37108E-01 -1.18632E+00
  -1.50590E+00 -9.39836E-01 -7.94976E-01 -8.07056E-01 -6.55023E-01 -5.69871E-01 -5.14755E-01 -4.43936E-01 -4.19243E-01 -3.87916E-01
  -3.62645E-01 -3.29700E-01 -3.03244E-01 -2.89414E-01 -2.87510E-01 -2.70440E-01 -2.64438E-01 -2.50358E-01 -2.41087E-01 -2.30279E-01
  -2.21181E-01 -2.09899E-01 -1.97068E-01 -1.86902E-01 -1.76188E-01 -1.66605E-01 -1.55786E-01 -1.44957E-01 -1.30961E-01 -1.18475E-01
  -1.03009E-01 -7.78165E-02 -7.14279E-02 -6.80747E-02 -7.70011E-02 -8.74266E-02 -5.82424E-02 -5.32976E-02 -6.35721E-02 -8.97239E-02
  -1.27321E-01 -1.31252E-01 -1.23665E-01 -1.19305E-01 -1.10231E-01 -9.85947E-02 -7.47920E-02 -6.45324E-02 -6.45071E-02 -6.50305E-02
  -5.88868E-02 -1.32805E-02  3.40305E-02  7.97208E-02  2.56824E-01  2.91412E-01  3.58244E-01  3.27272E-01  2.35956E-01  3.87616E-01
   4.36602E-01  3.77362E-01  2.91826E-01  6.21542E-02  1.32652E-02 -1.84747E-02 -7.47854E-02 -8.68521E-02 -1.05020E-01 -1.18360E-01
  -1.30320E-01 -1.40453E-01 -1.49378E-01 -1.57007E-01 -1.61600E-01 -1.73891E-01 -1.73129E-01 -1.89068E-01 -1.86647E-01 -2.03599E-01
  -2.01218E-01 -2.14976E-01 -2.32182E-01 -2.09725E-01 -2.57154E-01 -2.11866E-01 -3.52219E-02 -9.20782E-02  9.10313E-02  1.11056E-01
   1.10586E-01  2.61945E-01  1.73227E-01  2.26745E-01  1.59311E-01  2.41034E-01  2.09844E-01  1.33872E-01  1.92160E-01  1.27459E-01
   1.55915E-01  9.27794E-02  5.64678E-02  1.67848E-02 -3.63285E-02 -8.07337E-02 -1.37457E-01 -1.95197E-01 -2.74636E-01 -3.36800E-01
  -4.52507E-01 -5.00140E-01 -5.30419E-01 -5.20727E-01 -2.70288E-01 -8.97120E-02  1.91760E-01  4.56909E-01  4.43065E-01  5.08680E-01
   4.16039E-01  3.14082E-01  3.13572E-01  2.40353E-01  2.74166E-01  2.58388E-01  2.81606E-01  3.09011E-01  2.89830E-01  2.96357E-01
   2.78155E-01  2.58475E-01  2.46840E-01  2.31329E-01  2.14681E-01  1.95717E-01  1.75218E-01  1.46508E-01  1.03299E-01  8.10611E-02
   3.34552E-02  5.90719E-03  2.71518E-02 -2.81598E-02  2.54078E-02 -2.36206E-02 -5.18834E-02 -1.12560E-01 -1.83670E-01 -2.60657E-01
  -2.79416E-01 -3.20711E-01 -2.87218E-01 -2.81742E-01 -1.91685E-01 -1.37432E-01 -2.46431E-02  2.98101E-02  1.07655E-01  1.08197E-01
   8.86049E-02  5.36003E-02 -9.78881E-02 -1.05899E-01 -2.63858E-01 -2.90007E-01 -4.98124E-01 -4.10654E-01 -6.42369E-01 -5.24035E-01
  -7.21161E-01 -1.98891E+00 -2.02268E+00 -2.35584E+00 -1.74816E+00 -6.26699E-01 -5.24670E-01 -4.01224E-01 -2.13020E-01 -1.51670E-01
  -1.05956E-01 -7.19824E-02 -4.48737E-02 -2.28155E-02 -3.35475E-03  1.26833E-02  2.51479E-02  3.02671E-02  3.39646E-02  1.12871E-02
  -5.87164E-03 -3.48122E-02 -8.29989E-02 -8.25649E-02 -1.28368E-01 -1.11628E-01 -1.12018E-01 -9.77550E-02 -7.23763E-02 -6.17038E-02
  -4.18251E-02 -3.00651E-02 -1.64512E-02 -5.81631E-03  1.51988E-03  8.28540E-03  1.30040E-02  1.87503E-02  2.31798E-02  2.73993E-02
   3.08795E-02  3.44331E-02  3.69423E-02  4.08831E-02  4.34370E-02  4.60323E-02  4.83744E-02  4.95630E-02  5.27718E-02  5.44173E-02
   5.82645E-02  6.01270E-02  6.23361E-02  6.34053E-02  6.32183E-02  6.33285E-02  6.27702E-02  6.23873E-02  6.18748E-02  6.02905E-02
   5.81485E-02  5.60725E-02  5.34821E-02  5.02535E-02  4.77443E-02  4.43750E-02  4.23168E-02  3.95295E-02  3.71635E-02  3.45362E-02
   3.18036E-02  3.05847E-02  2.85475E-02  2.69706E-02  2.60295E-02  2.45112E-02  2.31654E-02  2.21912E-02  2.08875E-02  2.03984E-02
   2.00040E-02  1.95005E-02  2.01776E-02  2.09517E-02  2.26281E-02  2.56896E-02  2.89568E-02  3.41416E-02  4.19877E-02  6.06979E-02
   9.44068E-02  1.22203E-01  2.00534E-01  3.36720E-01  3.19360E-01  4.71803E-01  3.04597E-01  2.49026E-01  1.75428E-01  6.55259E-02
   7.92637E-02  6.79308E-02  6.46027E-02  6.87526E-02  7.36260E-02  7.93819E-02  8.42823E-02  8.98963E-02  9.40745E-02  9.73364E-02
   9.90987E-02  1.00549E-01  1.00848E-01  1.00254E-01  1.00015E-01  9.73028E-02  9.52550E-02  9.27292E-02  8.82486E-02  8.93488E-02
   9.75472E-02  9.42007E-02  1.10877E-01  9.44324E-02  9.07517E-02  8.07745E-02  6.63822E-02  6.48404E-02  5.80347E-02  5.34400E-02
   5.02361E-02  4.72251E-02  4.46524E-02  4.24237E-02  4.12463E-02  4.09711E-02  4.12013E-02  4.23352E-02  4.32435E-02  4.48897E-02
   4.66852E-02  4.92821E-02  5.18180E-02  5.43080E-02  5.67834E-02  5.80143E-02  5.95445E-02  6.03287E-02  6.18926E-02  6.32708E-02
   6.44691E-02  6.57631E-02  6.52645E-02  6.45144E-02  6.46349E-02  6.28945E-02  6.18501E-02  6.04136E-02  5.84159E-02  5.77147E-02
   5.60488E-02  5.44984E-02  5.27447E-02  5.11692E-02  4.94590E-02  4.76290E-02  4.54932E-02  4.37754E-02  4.28090E-02  4.13733E-02
   4.03041E-02  3.85211E-02  3.64463E-02  3.43207E-02  3.15673E-02  2.80882E-02  2.44161E-02  2.05046E-02  1.62237E-02  1.07646E-02
   3.91413E-03 -4.56970E-03 -1.26074E-02 -2.17226E-02 -2.97700E-02 -3.79260E-02 -4.61486E-02 -5.34329E-02 -5.98361E-02 -6.63429E-02
  -7.11188E-02 -7.41432E-02 -7.60313E-02 -7.64543E-02 -7.64861E-02 -7.56603E-02 -7.31301E-02 -7.03454E-02 -6.76798E-02 -6.54522E-02
  -6.31722E-02 -6.00876E-02 -5.65263E-02 -5.31907E-02 -4.79933E-02 -4.42042E-02 -3.90567E-02 -3.40489E-02 -2.96437E-02 -2.43175E-02
  -2.08481E-02 -1.54996E-02 -1.15536E-02 -7.40190E-03 -3.42470E-03 -3.75102E-04  2.73414E-03  6.85511E-03  8.97387E-03  1.17462E-02
   1.36444E-02  1.50078E-02  1.78733E-02  1.90398E-02  1.99823E-02  2.09836E-02  2.18818E-02  2.27671E-02  2.30731E-02  2.35571E-02
   2.41684E-02  2.46011E-02  2.60002E-02  2.71496E-02  2.76906E-02  2.85188E-02  2.87628E-02  2.88151E-02  2.83869E-02  2.87790E-02
   2.86583E-02  2.78993E-02  2.81826E-02  2.79566E-02  2.72033E-02  2.77681E-02  2.73945E-02  2.72326E-02  2.81799E-02  2.73781E-02
   2.58804E-02  2.49324E-02  2.39621E-02  2.40470E-02  2.46334E-02  2.37770E-02  2.34437E-02  2.27272E-02  2.19542E-02  2.11480E-02
   1.99889E-02  2.09335E-02  2.07351E-02  2.11221E-02  2.07934E-02  2.06571E-02  2.10741E-02  2.10504E-02  2.09828E-02  2.09971E-02
   2.07358E-02  2.08288E-02  1.93262E-02  1.89541E-02  1.76881E-02  1.76831E-02  1.79982E-02  1.75964E-02  1.76380E-02  1.77843E-02
   1.64971E-02  1.71454E-02  1.72072E-02  1.74564E-02  1.90192E-02  1.70735E-02  1.60108E-02  1.50332E-02  1.34037E-02  1.40028E-02
   1.32082E-02  1.24384E-02  1.12473E-02  9.97699E-03  9.14913E-03  8.83489E-03  7.60461E-03  6.22142E-03  5.93061E-03  4.74708E-03
   4.61657E-03  3.79494E-03  2.33593E-03  1.10120E-03  6.96060E-04 -4.43217E-04 -1.48115E-03 -1.21057E-03 -1.41377E-03 -1.24243E-03
  -1.33287E-03 -3.03731E-03 -3.56962E-03 -5.20581E-03
 NY background values follow
    -3.399E-04   -3.751E-04   -4.103E-04   -4.455E-04   -4.806E-04   -5.158E-04   -5.510E-04   -5.862E-04   -6.214E-04   -6.566E-04
    -6.917E-04   -7.269E-04   -7.621E-04   -7.973E-04   -8.325E-04   -8.677E-04   -9.029E-04   -9.381E-04   -9.733E-04   -1.008E-03
    -1.044E-03   -1.079E-03   -1.114E-03   -1.149E-03   -1.184E-03   -1.220E-03   -1.255E-03   -1.290E-03   -1.325E-03   -1.360E-03
    -1.396E-03   -1.431E-03   -1.466E-03   -1.501E-03   -1.537E-03   -1.572E-03   -1.607E-03   -1.642E-03   -1.677E-03   -1.713E-03
    -1.748E-03   -1.783E-03   -1.818E-03   -1.854E-03   -1.889E-03   -1.924E-03   -1.959E-03   -1.994E-03   -2.030E-03   -2.065E-03
    -2.100E-03   -2.135E-03   -2.171E-03   -2.206E-03   -2.241E-03   -2.276E-03   -2.312E-03   -2.347E-03   -2.382E-03   -2.417E-03
    -2.452E-03   -2.488E-03   -2.523E-03   -2.558E-03   -2.593E-03   -2.629E-03   -2.664E-03   -2.699E-03   -2.734E-03   -2.770E-03
