 
 $NMID
 ID=''
 FMTDAT='(2E13.5)'
 TRAMP=   1.00000E+0
 VOLUME=   1.00000E+0
 $END
   2.90035E+2  -3.55060E+2
  -4.49460E+2   9.62685E+2
   4.57423E+2  -4.01216E+3
  -2.31433E+3   2.14775E+2
  -7.34243E+1   4.92719E+3
   4.07680E+3   2.34574E+3
   4.08595E+3   7.91767E+2
  -4.42524E+1  -2.10363E+3
  -1.25983E+3  -6.62625E+3
  -3.88653E+3  -4.37434E+3
   8.67598E+2   3.26334E+2
   2.49534E+3   3.17826E+3
   2.03604E+3   5.25345E+3
  -1.52417E+3   3.80399E+3
  -4.24970E+2  -4.98467E+2
   3.17268E+3   1.40064E+2
   3.50801E+3  -3.45782E+3
   1.29324E+3  -1.94007E+3
   2.48771E+2   7.85188E+2
  -1.80455E+3   2.54050E+2
   1.71785E+3  -6.69454E+2
   2.78989E+3   3.13759E+3
  -1.53364E+3   5.41193E+3
  -3.46596E+3   1.26185E+2
   1.98048E+3   1.37507E+3
   3.14234E+3   5.30764E+3
   5.89038E+2   3.08889E+3
  -4.55116E+2  -1.90043E+3
   2.72445E+3  -4.76383E+3
   5.46768E+3  -1.00116E+3
   3.30011E+3   4.07017E+3
  -2.25543E+3   5.34339E+3
  -6.58631E+3  -2.24031E+3
  -8.22301E+2   4.58940E+2
  -2.53105E+3   2.69861E+3
  -5.84273E+3  -1.93269E+3
   2.50678E+3  -4.09194E+3
   5.83957E+3   2.53886E+3
   1.50840E+3   4.19392E+3
  -4.45131E+2   3.14702E+3
  -2.79068E+3   1.60491E+3
  -7.89519E+3  -4.33314E+3
  -3.62603E+2  -8.37575E+3
   1.88377E+3  -5.96499E+3
   1.27384E+3  -4.32943E+2
  -1.33034E+3  -7.37260E+2
  -1.99522E+3   6.33719E+2
  -9.95977E+2   2.95262E+3
  -3.67813E+3   3.04088E+3
  -4.31886E+3   1.52926E+2
  -2.43344E+3  -1.87437E+3
   1.79646E+3  -3.87240E+3
   3.17100E+3  -6.43995E+2
   1.99944E+3   3.42845E+3
  -1.69754E+3   1.39210E+3
  -2.46859E+3   7.07445E+2
  -2.01845E+3   8.65018E+2
  -6.01708E+3  -2.80284E+3
  -1.86371E+2  -6.68413E+3
   2.08795E+3  -6.43271E+3
   5.33564E+3  -2.21174E+3
   4.24076E+3   2.05400E+3
  -2.23206E+2   3.32594E+3
  -2.80093E+3   4.56842E+2
   1.06820E+3  -2.48463E+2
   1.62252E+3   1.74917E+3
   9.88507E+2   1.23451E+3
  -3.06846E+3  -2.50551E+2
   6.71441E+2  -2.68902E+3
   1.30419E+3  -2.72937E+3
   1.38832E+2  -1.17273E+3
   7.49885E+2  -1.20999E+3
   1.09109E+3  -3.64730E+3
  -4.18284E+1  -1.81797E+3
   8.46782E+2   3.18491E+2
  -1.82175E+3   2.33144E+3
   8.56942E+1   1.77487E+3
   1.76426E+3  -1.38220E+3
   3.13970E+3   1.69175E+3
   2.64211E+3   3.37993E+3
   1.62093E+1   1.38122E+3
   3.41687E+3  -1.12564E+3
   1.68620E+3   1.68470E+3
   7.85129E+2   3.74370E+3
  -2.94178E+3   1.50885E+3
  -2.76266E+3  -3.10054E+3
   1.93053E+3  -4.95411E+3
   3.34480E+3  -2.65810E+3
   3.48605E+3   1.78573E+3
   9.19873E+2   3.12112E+3
  -8.32668E+2   3.07169E+3
  -2.72190E+2   9.73829E+2
  -2.48282E+3   3.23260E+3
  -3.18668E+3  -4.21019E+2
  -2.41765E+3   6.86612E+2
   1.33415E+3  -3.52798E+3
   2.58126E+3   8.30702E+2
   1.50288E+2   4.25889E+3
  -2.31535E+3   2.53037E+3
  -5.03079E+2  -3.35453E+3
   3.03101E+3  -2.26248E+3
   3.36237E+3   3.03503E+3
  -1.21559E+3   3.54148E+3
  -2.19730E+3   1.77689E+3
  -2.84515E+3  -2.62579E+3
  -7.98279E+2  -1.10231E+3
  -8.39761E+2  -1.11444E+3
   3.92402E+1  -3.10390E+3
  -3.08678E+2  -1.36317E+3
   2.72593E+3  -2.84795E+3
   3.28727E+3   1.13029E+3
   9.82195E+2   1.49516E+3
   3.50903E+2   2.80501E+3
  -1.96477E+3   3.40606E+3
  -2.69225E+3   1.77783E+3
  -3.35311E+3  -1.41522E+3
  -8.70888E+2  -4.55447E+3
   1.33406E+3  -2.58038E+3
   3.32682E+3  -2.79534E+1
   3.17294E+2  -5.02497E+2
   2.20877E+2   2.50977E+3
  -2.58267E+3  -7.33835E+2
   1.90435E+2  -1.32270E+3
   2.24604E+3  -1.06525E+3
   1.26714E+3  -8.79217E+2
   1.16824E+3  -3.37314E+2
  -1.07202E+3  -2.98814E+2
   4.58766E+1   3.81044E+2
  -1.05082E+3   2.86795E+3
  -1.45229E+3   1.59875E+2
   8.91646E+2  -8.07647E+2
   2.76021E+3   5.74897E+2
   1.34172E+3   1.23192E+2
  -2.11520E+3   2.95215E+3
  -3.16596E+3   9.13392E+2
  -1.76249E+3  -1.38653E+3
   5.72241E+2  -2.96979E+3
   2.21846E+2  -1.20587E+3
   5.32993E+2   3.66290E+2
   1.95258E+3  -2.83170E+1
  -2.69622E+2  -6.73246E+2
   3.93061E+2   1.16643E+3
  -7.87197E+2   1.72233E+3
  -3.07574E+3   3.28913E+2
  -2.41878E+3  -2.40859E+3
  -1.48713E+3  -2.99507E+2
  -1.87895E+3   1.48730E+3
  -1.12848E+3   1.18541E+3
   9.44983E+2  -6.44311E+2
  -1.06314E+3   9.52323E+2
  -5.35698E+2  -1.42310E+3
  -1.97271E+3  -2.90549E+3
   1.08405E+3   6.24633E+0
   2.20077E+3  -4.01202E+2
   1.14930E+3   2.65132E+3
   6.79637E+2   2.93805E+3
  -2.71675E+3   1.97358E+3
  -4.78918E+2   1.42468E+2
  -1.92527E+3   1.55682E+3
  -7.16802E+2   2.74318E+3
  -1.98989E+3   1.19103E+3
  -1.10326E+3   4.19548E+2
  -8.77657E+2  -1.10129E+3
   1.24590E+3  -3.14851E+1
  -9.83140E+2   1.48826E+3
  -1.09250E+3  -3.52681E+3
   3.01791E+3  -3.99772E+3
   3.00162E+3  -8.03620E+2
   1.47655E+3   3.22507E+3
  -1.86998E+3   1.15332E+3
  -1.44451E+3  -5.97558E+2
  -3.19779E+2  -2.21356E+3
   2.50328E+2  -9.25779E+2
  -1.34821E+3  -1.42522E+3
   1.79631E+3   1.63960E+1
   1.66148E+3  -2.95904E+2
   2.26439E+3   3.61844E+3
  -2.29449E+2   2.87064E+3
  -2.33627E+3   1.11780E+3
  -8.92208E+2   5.12928E+2
   1.06186E+3   9.73464E+2
   1.12276E+3  -1.40490E+3
  -4.40697E+1  -1.59869E+3
   5.24456E+2  -2.53031E+2
  -2.43951E+2   1.04213E+2
   2.31463E+3   1.69446E+3
   1.32546E+3   1.36514E+3
  -1.47846E+3  -6.77493E+2
  -4.42304E+2  -3.18673E+3
   4.49687E+2  -1.53454E+3
   1.09698E+3   6.57095E+2
  -6.19884E+1   7.75874E+2
  -3.04554E+2   4.58984E+2
  -5.78267E+2  -9.24971E+2
  -8.21429E+2  -6.00865E+1
   6.45273E+2   2.45372E+3
   6.06014E+2   1.83713E+3
  -2.13768E+3  -2.11249E+2
   1.32507E+3   2.85116E+3
  -7.54966E+1  -1.30467E+2
  -2.31377E+3   1.95318E+3
  -1.83532E+3  -1.65230E+3
   1.42165E+3  -3.90903E+3
   3.46590E+3   5.19257E+2
   3.93336E+2   1.29284E+3
   1.30583E+3  -1.26383E+3
   1.44641E+3  -1.68652E+2
   1.34247E+3  -1.71819E+2
  -3.97374E+2   5.22045E+1
   1.11485E+3   3.01476E+2
  -1.64982E+3  -1.88369E+3
   4.37994E+2  -1.53568E+3
   1.50230E+3  -6.96387E+2
  -1.14545E+3   3.07592E+3
  -2.45903E+2   1.03745E+3
  -2.21225E+3  -1.32945E+3
   1.27927E+3  -6.06338E+2
  -6.73541E+1  -8.32646E+1
   4.25231E+2  -8.77366E+2
   6.11630E+2  -1.07712E+2
  -1.24626E+3   2.50922E+2
   1.53537E+3   1.07051E+3
  -2.61361E+2  -1.50732E+2
  -2.15928E+2  -1.79436E+3
  -1.20453E+3  -9.68175E+1
   1.44197E+3   1.19516E+3
  -7.93851E+2  -2.10025E+1
  -8.24809E+2   2.85785E+2
  -1.47759E+3  -7.51600E+2
  -5.35132E+2  -1.60063E+3
   2.42750E+3   1.41200E+3
  -9.63561E+2   2.49809E+3
   3.43428E+2  -2.35051E+2
   1.96194E+3  -4.52125E+2
   2.40474E+3   1.68426E+3
   1.87478E+2   1.01151E+3
  -5.26331E+2  -1.22687E+3
  -2.20457E+3  -1.26170E+3
   4.74254E+2  -1.85960E+3
   1.26390E+3   2.00407E+3
   2.34061E+2  -4.23062E+2
  -2.61697E+3  -7.00184E+2
   2.81630E+2  -3.04335E+3
   2.00851E+3  -4.44140E+2
  -1.37147E+3   4.92274E+2
  -3.17669E+2  -7.95046E+2
   2.21766E+2   1.55243E+0
   9.95195E+2  -6.69053E+2
  -2.42261E+2   1.68916E+2
  -1.42642E+3  -7.26254E+2
  -1.56529E+3   1.75454E+3
  -8.28206E+2  -1.24867E+3
   2.00828E+3   2.88634E+2
   2.27332E+3  -1.69894E+2
  -1.22363E+3  -3.97211E+2
  -6.14238E+2   1.50019E+3
   7.06336E+2   1.05407E+3
  -1.06308E+3   2.02841E+3
  -3.31142E+3   5.42671E+2
  -4.21472E+2  -2.72586E+3
  -2.84419E+2  -6.56085E+2
   6.34550E+2  -1.48771E+3
   1.76586E+3   2.11219E+3
   4.17049E+2  -9.70995E+2
  -1.86623E+2  -1.77851E+3
   1.46207E+3   8.80511E+2
  -6.05382E+2   2.15929E+2
  -7.44588E+2  -2.56456E+3
   4.49134E+2  -2.04059E+3
   7.62725E+2   1.14761E+2
   1.57758E+3   6.98934E+2
  -1.26929E+2   1.65279E+3
  -2.22455E+3  -1.95547E+2
  -8.13385E+2  -2.90745E+2
   1.76200E+3  -6.01507E+2
  -1.09719E+2  -5.31434E+2
   2.44421E+2  -7.11386E+2
   1.34174E+3  -5.49803E+2
   8.74395E+2   3.41825E+2
   8.51402E+2   1.32696E+3
   7.26818E+2   1.54064E+3
  -1.75288E+3  -8.03055E+2
   2.00401E+2  -3.84393E+3
   1.27962E+3  -1.95989E+3
   8.77771E+1  -1.29675E+3
  -1.01173E+3   4.35516E+2
   1.24597E+3  -1.62805E+3
   8.13875E+2  -2.54600E+3
   2.59562E+2   2.14428E+3
  -5.16016E+2  -1.46626E+2
   1.05881E+3  -8.16690E+2
  -3.23863E+2   1.16482E+2
   5.97828E+1   1.06664E+3
  -2.14330E+3   8.31238E+2
   3.84195E+1   8.65481E+2
  -1.58217E+3  -1.68550E+3
   2.66044E+3  -5.52896E+2
   1.12915E+3   3.04352E+2
  -2.01209E+2  -6.97801E+2
   1.35204E+3   2.49876E+2
   7.37993E+2   2.77840E+2
  -9.82935E+1   1.63538E+3
  -2.35816E+2   1.05051E+3
  -9.02006E+2   9.52943E+1
   7.98327E+1  -9.48774E+2
   7.42762E+2  -1.25966E+3
   2.45649E+3  -2.95824E+2
  -1.47072E+3  -3.70603E+2
  -2.41649E+3  -6.10909E+2
   2.35850E+2  -6.05689E+2
   8.24917E+2  -2.16154E+2
  -1.03976E+3   1.55668E+3
  -1.49681E+3   1.93604E+3
  -2.01571E+3   2.00443E+3
  -2.31881E+2  -6.76423E+1
  -1.75603E+2   1.51831E+3
  -1.16932E+2  -9.16935E+2
  -8.10455E+2  -7.30330E+2
   1.07845E+3  -5.36624E+2
   3.95730E+3   4.05595E+2
   9.07414E+2   1.00000E+3
  -1.33638E+3   1.43886E+3
  -3.47168E+2  -9.28607E+2
  -1.39249E+2  -9.35943E+2
   2.11486E+2   4.18630E+2
  -6.25064E+2  -3.00927E+2
  -1.07431E+3  -2.08406E+2
  -5.83618E+2  -9.29519E+2
  -6.13310E+1   8.82892E+2
  -6.82882E+2   2.01986E+3
  -3.94615E+2   9.94563E+2
  -2.27031E+3  -4.76636E+2
   1.03856E+3  -1.20770E+3
   1.73460E+3  -2.74567E+2
   5.58841E+2  -4.84213E+1
  -1.03264E+3  -1.80974E+3
  -7.87210E+2   1.47784E+3
   7.97195E+2  -1.75805E+2
   1.42067E+3   1.43543E+3
   8.43944E+2   1.23416E+3
  -1.68207E+1   8.16298E+2
   1.88594E+3  -1.27382E+3
   1.29056E+3   2.11735E+2
   2.86349E+1   8.65007E+2
  -2.05741E+3   5.03718E+2
   2.42244E+3  -6.12611E+2
  -1.16967E+3   2.08380E+2
  -2.39331E+3  -1.01982E+3
   3.06677E+2   1.74525E+2
  -4.23386E+2  -1.04953E+3
   1.89250E+3   2.67057E+2
   9.19817E+2   6.80617E+2
   8.12569E+2  -1.30943E+3
  -1.81536E+3  -8.55096E+2
   1.69976E+3  -7.05201E+1
  -7.36547E+2   1.51870E+2
  -8.41150E+2   3.05034E+3
  -1.06943E+3   4.35548E+2
  -9.37444E+2  -7.84107E+1
   9.89941E+2  -4.64178E+2
   2.26605E+2  -4.87543E+2
   2.50779E+2   1.34164E+3
  -6.21231E+1  -6.66586E+2
  -9.35138E+2  -1.88032E+2
  -9.73652E+2  -1.87541E+1
  -1.95590E+3  -7.65488E+2
  -1.09141E+3   1.41528E+2
