 LCModel (Version 6.3-1N) Copyright: S.W. Provencher.          Ref.: Magn. Reson. Med. 30:672-679 (1993).                
 Slice_N1@25_18  02-Jun-2023 14:37:49
 27 lines in following concentration table = NCONC+1
    Conc.  %SD /Cr+PCr  Metabolite                                         
 8.23E-07  49% 1.5E-04 Mac                                                 
 4.37E-02  24%   8.000 Cr                                                  
    0.000 999%   0.000 PCr                                                 
 5.21E-02  30%   9.535 Ins                                                 
 7.36E-02  16%  13.464 NAA                                                 
 8.94E-02  21%  16.348 Tau                                                 
    0.000 999%   0.000 PCho                                                
 2.17E-03 183%   0.396 GPC                                                 
 8.88E-02  18%  16.245 Glu                                                 
 1.87E-02  58%   3.418 Gln                                                 
    0.000 999%   0.000 Ala                                                 
    0.000 999%   0.000 Asc                                                 
    0.000 999%   0.000 Asp                                                 
 3.80E-03 120%   0.694 GABA                                                
 6.46E-03  75%   1.181 Glc                                                 
 5.34E-03 104%   0.977 GSH                                                 
    0.000 999%   0.000 Lac                                                 
    0.000 999%   0.000 NAAG                                                
    0.000 999%   0.000 PE                                                  
 2.17E-03 183%   0.396 GPC+PCho                                            
 7.36E-02  16%  13.464 NAA+NAAG                                            
    0.108  17%  19.663 Glu+Gln                                             
 4.37E-02  24%   8.000 Cr+PCr                                              
 7.36E-02  16%  13.464 NAA+NAAG                                            
 4.37E-02  24%   8.000 Cr+PCr                                              
    0.108  17%  19.663 Glu+Gln                                             
   6 lines in following misc. output table
  FWHM = 0.105 ppm    S/N =   1                                            
  Data shift = 0.006 ppm                                                   
  Ph: 116 deg      19.3 deg/ppm                                            
  alphaB,S = 3.1E+01,   8.6E+01                                            
   18 spline knots.   Ns = 8(2)                                            
   2 inflections.     1 extrema                                            
  654 points on ppm-axis = NY
      4.000000     3.994181     3.988363     3.982544     3.976726     3.970907     3.965088     3.959270     3.953451     3.947633
      3.941814     3.935995     3.930177     3.924358     3.918540     3.912721     3.906902     3.901084     3.895265     3.889446
      3.883628     3.877809     3.871991     3.866172     3.860353     3.854535     3.848716     3.842898     3.837079     3.831260
      3.825442     3.819623     3.813805     3.807986     3.802167     3.796349     3.790530     3.784712     3.778893     3.773074
      3.767256     3.761437     3.755619     3.749800     3.743981     3.738163     3.732344     3.726526     3.720707     3.714888
      3.709070     3.703251     3.697433     3.691614     3.685795     3.679977     3.674158     3.668339     3.662521     3.656702
      3.650884     3.645065     3.639246     3.633428     3.627609     3.621791     3.615972     3.610153     3.604335     3.598516
      3.592698     3.586879     3.581060     3.575242     3.569423     3.563605     3.557786     3.551967     3.546149     3.540330
      3.534512     3.528693     3.522874     3.517056     3.511237     3.505419     3.499600     3.493781     3.487963     3.482144
      3.476326     3.470507     3.464688     3.458870     3.453051     3.447232     3.441414     3.435595     3.429777     3.423958
      3.418139     3.412321     3.406502     3.400684     3.394865     3.389046     3.383228     3.377409     3.371591     3.365772
      3.359953     3.354135     3.348316     3.342498     3.336679     3.330860     3.325042     3.319223     3.313405     3.307586
      3.301767     3.295949     3.290130     3.284312     3.278493     3.272674     3.266856     3.261037     3.255219     3.249400
      3.243581     3.237763     3.231944     3.226125     3.220307     3.214488     3.208670     3.202851     3.197032     3.191214
      3.185395     3.179577     3.173758     3.167939     3.162121     3.156302     3.150484     3.144665     3.138846     3.133028
      3.127209     3.121391     3.115572     3.109753     3.103935     3.098116     3.092298     3.086479     3.080660     3.074842
      3.069023     3.063205     3.057386     3.051567     3.045749     3.039930     3.034111     3.028293     3.022474     3.016656
      3.010837     3.005018     2.999200     2.993381     2.987563     2.981744     2.975925     2.970107     2.964288     2.958470
      2.952651     2.946832     2.941014     2.935195     2.929377     2.923558     2.917739     2.911921     2.906102     2.900284
      2.894465     2.888646     2.882828     2.877009     2.871191     2.865372     2.859553     2.853735     2.847916     2.842098
      2.836279     2.830460     2.824642     2.818823     2.813004     2.807186     2.801367     2.795549     2.789730     2.783911
      2.778093     2.772274     2.766456     2.760637     2.754818     2.749000     2.743181     2.737363     2.731544     2.725725
      2.719907     2.714088     2.708270     2.702451     2.696632     2.690814     2.684995     2.679177     2.673358     2.667539
      2.661721     2.655902     2.650084     2.644265     2.638446     2.632628     2.626809     2.620991     2.615172     2.609353
      2.603535     2.597716     2.591897     2.586079     2.580260     2.574442     2.568623     2.562804     2.556986     2.551167
      2.545349     2.539530     2.533711     2.527893     2.522074     2.516256     2.510437     2.504618     2.498800     2.492981
      2.487163     2.481344     2.475525     2.469707     2.463888     2.458070     2.452251     2.446432     2.440614     2.434795
      2.428977     2.423158     2.417339     2.411521     2.405702     2.399884     2.394065     2.388246     2.382428     2.376609
      2.370790     2.364972     2.359153     2.353335     2.347516     2.341697     2.335879     2.330060     2.324242     2.318423
      2.312604     2.306786     2.300967     2.295149     2.289330     2.283511     2.277693     2.271874     2.266056     2.260237
      2.254418     2.248600     2.242781     2.236963     2.231144     2.225325     2.219507     2.213688     2.207870     2.202051
      2.196232     2.190414     2.184595     2.178777     2.172958     2.167139     2.161321     2.155502     2.149683     2.143865
      2.138046     2.132228     2.126409     2.120590     2.114772     2.108953     2.103135     2.097316     2.091497     2.085679
      2.079860     2.074042     2.068223     2.062404     2.056586     2.050767     2.044949     2.039130     2.033311     2.027493
      2.021674     2.015856     2.010037     2.004218     1.998400     1.992581     1.986763     1.980944     1.975126     1.969307
      1.963489     1.957670     1.951852     1.946033     1.940215     1.934397     1.928578     1.922760     1.916941     1.911123
      1.905304     1.899486     1.893667     1.887849     1.882030     1.876212     1.870393     1.864575     1.858756     1.852938
      1.847119     1.841301     1.835482     1.829664     1.823845     1.818027     1.812208     1.806390     1.800571     1.794753
      1.788934     1.783116     1.777297     1.771479     1.765660     1.759842     1.754023     1.748205     1.742386     1.736568
      1.730749     1.724931     1.719113     1.713294     1.707476     1.701657     1.695839     1.690020     1.684202     1.678383
      1.672565     1.666746     1.660928     1.655109     1.649291     1.643472     1.637654     1.631835     1.626017     1.620198
      1.614380     1.608561     1.602743     1.596924     1.591106     1.585287     1.579469     1.573650     1.567832     1.562013
      1.556195     1.550376     1.544558     1.538739     1.532921     1.527102     1.521284     1.515465     1.509647     1.503829
      1.498010     1.492192     1.486373     1.480555     1.474736     1.468918     1.463099     1.457281     1.451462     1.445644
      1.439825     1.434007     1.428188     1.422370     1.416551     1.410733     1.404914     1.399096     1.393277     1.387459
      1.381640     1.375822     1.370003     1.364185     1.358366     1.352548     1.346729     1.340911     1.335092     1.329274
      1.323455     1.317637     1.311818     1.306000     1.300182     1.294363     1.288545     1.282726     1.276908     1.271089
      1.265271     1.259452     1.253634     1.247815     1.241997     1.236178     1.230360     1.224541     1.218723     1.212904
      1.207086     1.201267     1.195449     1.189630     1.183812     1.177993     1.172175     1.166356     1.160538     1.154719
      1.148901     1.143082     1.137264     1.131445     1.125627     1.119808     1.113990     1.108171     1.102353     1.096534
      1.090716     1.084898     1.079079     1.073261     1.067442     1.061624     1.055805     1.049987     1.044168     1.038350
      1.032531     1.026713     1.020894     1.015076     1.009257     1.003439     0.997620     0.991802     0.985983     0.980165
      0.974346     0.968528     0.962709     0.956891     0.951072     0.945254     0.939435     0.933617     0.927798     0.921980
      0.916161     0.910343     0.904524     0.898706     0.892887     0.887069     0.881251     0.875432     0.869614     0.863795
      0.857977     0.852158     0.846340     0.840521     0.834703     0.828884     0.823066     0.817247     0.811429     0.805610
      0.799792     0.793973     0.788155     0.782336     0.776518     0.770699     0.764881     0.759062     0.753244     0.747425
      0.741607     0.735788     0.729970     0.724151     0.718333     0.712514     0.706696     0.700877     0.695059     0.689240
      0.683422     0.677603     0.671785     0.665967     0.660148     0.654330     0.648511     0.642693     0.636874     0.631056
      0.625237     0.619419     0.613600     0.607782     0.601963     0.596145     0.590326     0.584508     0.578689     0.572871
      0.567052     0.561234     0.555415     0.549597     0.543778     0.537960     0.532141     0.526323     0.520504     0.514686
      0.508867     0.503049     0.497230     0.491412     0.485593     0.479775     0.473956     0.468138     0.462319     0.456501
      0.450682     0.444864     0.439045     0.433227     0.427408     0.421590     0.415771     0.409953     0.404134     0.398316
      0.392497     0.386679     0.380860     0.375042     0.369223     0.363405     0.357586     0.351767     0.345949     0.340130
      0.334312     0.328493     0.322675     0.316856     0.311038     0.305219     0.299401     0.293582     0.287764     0.281945
      0.276127     0.270308     0.264490     0.258671     0.252853     0.247034     0.241216     0.235397     0.229579     0.223760
      0.217942     0.212123     0.206305     0.200486
 NY phased data points follow
   1.75929E-01  1.61491E-01 -2.73018E-01 -2.54094E-01  9.46727E-02 -1.00372E-01 -3.42935E-01  2.50368E-01  9.28652E-02 -3.29841E-01
   1.63874E-01  2.02389E-01 -1.34796E-01  8.74481E-02 -1.76060E-01 -5.39943E-02  2.02691E-01 -3.19240E-01 -2.34107E-01 -3.37097E-02
   3.61259E-03  2.67373E-02  2.97298E-01  2.06333E-01 -6.32768E-03  2.60493E-01 -9.73580E-02 -2.39945E-01  3.84849E-01 -3.41776E-02
  -1.75084E-01  1.60484E-01 -1.50362E-01  9.23050E-02 -2.20759E-01  1.44772E-01  3.71219E-01 -2.08727E-01  1.65050E-01  1.87561E-01
  -2.10736E-02 -1.97014E-01 -1.17243E-01  5.24945E-02  5.18957E-02  1.27574E-01  7.15627E-02 -2.35532E-01 -5.39827E-02  1.21949E-01
  -2.23244E-01 -3.00945E-02  1.22442E-01 -3.18627E-01 -8.71772E-02  7.99945E-02 -1.29280E-01  2.72772E-01 -3.11372E-02 -2.12830E-01
   1.10821E-01  2.12679E-01 -7.54887E-02 -1.29391E-01  6.81901E-02 -4.49026E-01 -1.29279E-01  2.09653E-01  4.23999E-02  1.74419E-01
   1.96839E-01  1.17500E-01  3.74489E-02  1.09938E-01  5.11079E-01  2.93678E-01 -2.02927E-01  6.37048E-02  1.72809E-01  1.15576E-01
  -3.54830E-01 -1.90154E-01  1.58973E-01 -4.35104E-01 -1.94238E-02  1.49807E-01 -1.88295E-01  1.05201E-01 -1.44168E-01 -7.63782E-02
   1.63140E-01 -4.89500E-01 -2.60164E-01  2.17660E-01 -4.56613E-02 -2.54112E-01 -2.84913E-01 -1.88679E-01 -3.61148E-01  3.11034E-02
   5.25557E-02 -1.92784E-01  1.78261E-01 -1.81507E-01 -1.48055E-01 -5.02605E-02 -3.85540E-01 -1.64648E-01  8.40186E-02 -1.27056E-01
  -1.25114E-01  7.49485E-03  2.67904E-01  5.66970E-01  2.32939E-01  6.31727E-01  2.97402E-01  1.77030E-01  7.21291E-01  5.61577E-02
   4.61304E-01  3.64678E-01  1.67927E-01  2.71188E-01  2.92529E-01  5.07469E-01 -4.24997E-02  1.58531E-01 -1.44977E-02 -1.93841E-01
  -3.64327E-01 -1.59775E-01 -1.23281E-01 -3.55586E-01  1.01342E-01 -4.50902E-01 -5.24467E-02 -3.01303E-01 -5.68552E-01 -2.76602E-01
  -3.27505E-01  1.90934E-02 -2.96098E-01  1.85846E-01  7.62023E-02 -4.18682E-01 -1.43818E-01  3.43790E-01  3.44471E-01  7.69959E-02
   3.87784E-01  5.07006E-01  3.95522E-01  3.19404E-01  2.60625E-01  2.51837E-01  6.00145E-01  1.80979E-01  1.01711E-01  3.25411E-01
  -1.86863E-01  4.78155E-03  1.06281E-01 -2.67858E-02  1.97165E-01  1.53221E-01  1.48348E-01  1.29778E-01 -1.23106E-01 -3.01144E-01
  -3.05797E-01  2.55211E-03  3.09508E-01 -9.08369E-02 -5.06478E-01  2.40178E-02 -1.41014E-01 -3.03619E-01 -1.83589E-01  4.47123E-02
   6.58851E-02 -2.70196E-01  1.26474E-02 -6.59198E-01 -2.94291E-01 -6.69739E-02 -3.33723E-01  2.29763E-02 -6.00862E-02 -2.02627E-01
  -2.69255E-01 -5.76677E-02 -2.14193E-01  8.77118E-02 -1.29467E-01 -1.64364E-01 -2.69540E-01 -3.15385E-01 -1.69261E-01 -2.64702E-01
   3.58768E-01 -2.00636E-01 -6.34156E-02 -1.18204E-01 -3.68868E-01  1.40546E-01 -2.61420E-01 -1.77207E-01 -8.25009E-02 -1.03309E-01
  -2.94835E-02 -1.73056E-01 -9.59451E-02  1.32834E-01  2.98659E-02 -2.96975E-02  1.48741E-01 -1.24925E-01 -5.53653E-02 -2.66298E-01
  -3.94698E-01 -2.11364E-02  3.27119E-02 -4.85555E-03 -2.47247E-01  2.05418E-01  2.04039E-01 -1.01360E-01  6.49086E-02 -1.70832E-02
  -2.08969E-01  1.13702E-01  1.96732E-01 -3.19282E-01  1.44004E-01  1.62353E-01  9.21065E-02 -5.26457E-02  1.20739E-01  2.64511E-01
   3.41887E-02  1.77206E-01 -8.16252E-02  4.83409E-01  2.02320E-01 -1.88575E-01  3.99445E-02  3.95451E-02  4.39969E-02  3.06172E-02
   7.54156E-03 -7.37600E-02  2.90592E-01  6.70513E-02  4.56464E-02  7.48160E-02 -6.75784E-03  2.52313E-02  2.95297E-02 -2.92638E-02
  -4.01353E-01 -2.02545E-01  7.78144E-03  7.15081E-02  2.53992E-01  1.96990E-02  3.85625E-02  2.75781E-01  2.26732E-01  3.63731E-01
  -2.21564E-02  1.01690E-01  1.33163E-01 -1.07723E-01  2.40698E-01 -2.67143E-01 -2.23735E-01 -2.47440E-01 -2.07277E-01  5.28617E-02
  -3.46907E-02  2.97412E-01 -7.05165E-02 -1.04109E-01  4.04321E-01  3.38140E-01  2.12447E-01  2.94536E-01 -9.78887E-03  2.93447E-02
   2.68796E-01  1.49136E-01  2.74397E-01  1.45339E-01  2.86195E-01  3.46395E-01  3.36481E-01  3.43319E-01  1.44492E-01  1.92699E-01
   7.63232E-02  7.27492E-02  3.36611E-01  3.03235E-01  4.06067E-02  3.80588E-01  4.76936E-01  4.88433E-01  4.60874E-01  2.36612E-01
   2.86733E-01  4.12411E-02  2.62658E-01  4.47126E-01  1.54927E-01 -6.06619E-02  2.32551E-01 -6.66831E-02 -2.09423E-01  1.45309E-01
  -1.43610E-01 -7.21320E-02 -3.25212E-01 -2.53250E-01 -3.46523E-01 -4.82400E-01 -3.15512E-01 -2.55622E-01  1.22405E-02 -3.60417E-01
  -2.12185E-01  1.07004E-02 -1.40345E-01 -1.86585E-01 -2.52122E-01 -4.87666E-01 -3.92383E-01 -4.45642E-01 -7.65618E-01 -3.44494E-01
  -1.81377E-01 -6.19729E-01 -7.17709E-01 -4.11632E-01 -7.26787E-01 -4.39797E-01 -2.19169E-01 -5.55401E-01 -2.94508E-01  1.66526E-01
   1.85289E-01 -1.60151E-01 -1.40741E-01 -3.43162E-01  1.93346E-01  1.45766E-01 -2.00433E-02 -2.93075E-02 -2.89322E-01  3.55650E-01
   1.42508E-01  8.16640E-02  1.54574E-01  1.03098E-02 -1.98749E-01 -1.28860E-01  1.35522E-01 -2.04730E-01  2.13554E-02  1.93875E-01
   1.88014E-01  2.66798E-01 -8.45007E-02 -8.60317E-02 -5.39495E-02 -8.09274E-02  3.70202E-01  1.17382E-01  1.47022E-01  4.01241E-01
   4.03714E-02  9.02664E-02  1.91942E-01  2.80611E-01  2.06906E-01 -2.61504E-01  6.43133E-02  4.70130E-01  2.72139E-01  4.35896E-01
   1.33250E-01 -1.02682E-03  2.33428E-01  1.93360E-01  5.77421E-03  1.64015E-02  2.01248E-01  9.57078E-03  1.67622E-01  2.99895E-01
   1.12703E-01  3.96399E-02 -1.06804E-01 -2.86742E-01  1.36414E-01  1.15317E-01 -7.11800E-02  1.32433E-01  8.16369E-02  1.56961E-01
   9.59052E-02 -2.36279E-01 -2.29088E-01 -3.45379E-02 -2.42312E-01  4.85867E-02  6.27526E-02  8.09123E-02  1.17842E-01 -4.11155E-02
   5.82965E-02 -1.81818E-02  1.15448E-01  4.47776E-02  1.76563E-01 -8.76251E-02 -7.13387E-02 -8.14328E-02 -2.17721E-01 -4.91662E-02
  -1.19459E-01  1.20369E-01 -2.81402E-01 -8.41837E-02  1.79665E-01 -8.99523E-02  2.79780E-01 -8.50558E-02 -3.01495E-01  1.19032E-01
   9.70455E-02  2.80102E-01  1.41145E-01  2.98539E-01  3.52557E-01 -2.14403E-01  3.66028E-01  2.71261E-01  2.06949E-02  4.77856E-02
  -8.78006E-02  5.86030E-01  8.77890E-02 -2.19687E-01  1.20246E-03 -7.41545E-02  4.96957E-02 -2.56151E-01 -2.71120E-02 -1.55416E-02
  -1.31323E-01 -9.05874E-02 -1.60338E-01 -9.69811E-02  2.10609E-02 -1.90588E-01 -3.65661E-01 -1.09764E-01 -2.60055E-01 -3.52598E-01
  -3.31569E-01  1.62970E-01 -1.45685E-01 -1.53619E-01  2.11180E-01 -1.46919E-01 -5.44723E-02 -1.32897E-01 -2.49939E-02 -2.71950E-01
  -2.76138E-01 -9.12485E-02  2.35979E-01 -6.97804E-02 -1.42326E-01  1.67957E-01 -1.01041E-01  5.16384E-02 -7.97703E-02  2.60453E-01
   1.97990E-01  9.78934E-02 -7.12784E-02  1.90066E-01  3.13632E-01 -1.70968E-01 -6.67192E-02 -2.29689E-01  7.32349E-02 -9.84744E-03
   2.08043E-02  1.07981E-01  2.26110E-01  4.00199E-01  2.53153E-01  3.12322E-01  6.52017E-02 -3.29809E-03  4.17332E-02  1.21477E-01
   9.67610E-02  1.96822E-01  1.33344E-01 -1.09592E-01  8.64703E-02 -1.37193E-01 -2.03701E-01 -4.30768E-02 -2.87479E-01 -3.94423E-02
   2.86291E-01 -4.21056E-02 -3.91579E-01 -2.29408E-01 -3.01982E-01 -1.57599E-01  1.16882E-01 -3.67312E-01 -2.36961E-01 -2.15753E-01
  -4.53913E-01 -6.80799E-02 -6.43649E-03 -5.18054E-02 -2.43645E-01 -2.88255E-01 -1.07329E-02 -1.76203E-01  1.04524E-02 -1.64007E-01
  -4.32347E-01 -1.20009E-01 -9.01041E-02 -1.68343E-01 -5.86055E-02  4.28902E-02  3.55334E-02  4.41871E-01  2.93116E-01  2.74674E-01
   1.73583E-01  1.39866E-01  2.82717E-01 -8.78814E-02 -3.55944E-02 -2.14075E-01  2.00871E-01  3.17418E-01 -4.69554E-03 -1.00902E-01
   2.25067E-01  4.16067E-01 -1.72869E-01 -2.77605E-02  1.79873E-01 -9.62502E-02  2.99733E-02  7.46183E-02  1.62118E-02  1.52634E-01
  -4.40254E-01 -1.58247E-02  1.47565E-01 -5.13207E-02  1.32906E-01 -1.58503E-01  4.08452E-01  1.72412E-02 -1.19205E-01  7.87405E-02
  -6.43795E-02  3.01222E-01  2.97169E-02  4.64166E-02  3.91263E-01  2.56745E-01  3.67890E-02 -3.06125E-02  9.73741E-02 -1.23912E-01
   6.64763E-03  3.85315E-01 -1.43006E-04  2.62919E-01  5.16922E-01  1.49112E-01 -1.22679E-01  8.40831E-02  2.90908E-01  1.89735E-01
  -6.77427E-03 -1.78964E-01  2.93150E-01  2.23666E-01  4.04677E-03 -2.22657E-01 -2.10545E-01  1.49430E-01  5.24182E-02  1.07675E-01
   3.40146E-02  5.79457E-02  9.29034E-02 -4.38885E-02  6.10063E-02  1.73924E-01  9.92953E-02  6.93550E-02  6.85809E-02 -2.52161E-02
   1.52859E-01  2.39383E-01  5.57518E-03  1.54185E-01  9.74476E-02 -9.80362E-02  1.04725E-01  3.14556E-02  3.40265E-02  5.68352E-02
  -9.31471E-02  7.80372E-02  2.88228E-01 -2.31706E-01 -3.71409E-01  7.58807E-02  9.13146E-02  2.04456E-02 -1.35171E-01 -4.40472E-02
   2.71800E-01  3.39793E-01  4.51271E-02  8.18097E-02  3.37124E-01  7.19319E-02 -7.14791E-02  2.54088E-01  6.75881E-02 -1.85686E-01
   1.23890E-01 -9.94774E-02 -2.06175E-01 -5.61749E-02
 NY points of the fit to the data follow
   5.44468E-02  5.01377E-02  4.26480E-02  4.26213E-02  3.75317E-02  4.83749E-02  4.04466E-02  6.50631E-02  5.06607E-02  9.02353E-02
   6.83334E-02  1.22422E-01  8.67311E-02  1.48805E-01  1.00085E-01  1.65974E-01  1.05060E-01  1.67737E-01  1.00831E-01  1.55866E-01
   9.00153E-02  1.36843E-01  7.42800E-02  1.11796E-01  5.33814E-02  7.97283E-02  2.63803E-02  3.87244E-02 -3.58299E-03 -3.59822E-03
  -3.14625E-02 -3.99959E-02 -5.02555E-02 -5.86539E-02 -5.17144E-02 -4.82873E-02 -3.84455E-02 -2.45021E-02 -1.49331E-02  8.81802E-03
   1.54975E-02  4.68758E-02  4.77020E-02  8.30682E-02  7.58388E-02  1.10651E-01  9.58302E-02  1.25984E-01  1.06004E-01  1.30074E-01
   1.06525E-01  1.23236E-01  9.64741E-02  1.03990E-01  7.40601E-02  7.39959E-02  4.04629E-02  3.77704E-02  4.14237E-03  2.31090E-03
  -2.41884E-02 -2.29263E-02 -4.01900E-02 -3.07853E-02 -4.04065E-02 -2.33022E-02 -2.94692E-02 -9.53685E-03 -1.40960E-02  4.03689E-05
  -8.58189E-04  2.16949E-03  5.22543E-03  5.01663E-04  6.67003E-03 -1.44209E-03  8.05249E-03 -1.90591E-03  1.31692E-02 -8.56263E-07
   1.91138E-02  5.06719E-03  2.50730E-02  9.64542E-03  2.76061E-02  9.99796E-03  1.86307E-02 -1.98623E-03  3.97095E-03 -3.50431E-02
  -1.12752E-02 -7.60399E-02 -2.32701E-02 -1.15713E-01 -3.01387E-02 -1.49559E-01 -2.95107E-02 -1.72315E-01 -2.18747E-02 -1.79289E-01
  -6.82116E-03 -1.67530E-01  1.87078E-02 -1.33628E-01  4.91787E-02 -8.54161E-02  8.51185E-02 -2.95051E-02  1.23863E-01  3.31461E-02
   1.63423E-01  9.93322E-02  1.98548E-01  1.59598E-01  2.20765E-01  2.02093E-01  2.18662E-01  2.10818E-01  1.81502E-01  1.77733E-01
   1.12128E-01  1.18395E-01  2.36499E-02  4.81091E-02 -7.38160E-02 -2.76929E-02 -1.71187E-01 -1.01343E-01 -2.55979E-01 -1.64115E-01
  -3.17019E-01 -2.07372E-01 -3.47182E-01 -2.27754E-01 -3.48115E-01 -2.28381E-01 -3.27012E-01 -2.12085E-01 -2.86155E-01 -1.79347E-01
  -2.26180E-01 -1.31991E-01 -1.51062E-01 -7.58269E-02 -7.13539E-02 -1.60227E-02  2.02810E-03  3.83748E-02  5.92235E-02  7.89077E-02
   9.56267E-02  1.11163E-01  1.25965E-01  1.42025E-01  1.59628E-01  1.67347E-01  1.90250E-01  1.80463E-01  2.09045E-01  1.77243E-01
   2.11471E-01  1.57999E-01  1.97586E-01  1.22517E-01  1.65213E-01  7.41489E-02  1.18160E-01  1.69400E-02  5.90260E-02 -3.87881E-02
   9.33502E-04 -8.47787E-02 -4.73288E-02 -1.21920E-01 -8.85349E-02 -1.51799E-01 -1.23639E-01 -1.73236E-01 -1.51333E-01 -1.80643E-01
  -1.63324E-01 -1.74371E-01 -1.61321E-01 -1.54917E-01 -1.43407E-01 -1.26547E-01 -1.13745E-01 -1.06805E-01 -9.74304E-02 -9.36663E-02
  -8.54590E-02 -8.29202E-02 -7.59498E-02 -7.37716E-02 -6.80901E-02 -6.59403E-02 -6.11820E-02 -5.89682E-02 -5.50826E-02 -5.30497E-02
  -4.98148E-02 -4.77435E-02 -4.51335E-02 -4.31632E-02 -4.11109E-02 -3.93525E-02 -3.77726E-02 -3.62278E-02 -3.50176E-02 -3.37901E-02
  -3.27808E-02 -3.14320E-02 -3.01997E-02 -2.72689E-02 -2.54729E-02 -1.96197E-02 -1.71176E-02 -7.97425E-03 -4.21372E-03  8.60562E-03
   1.34668E-02  3.00022E-02  3.39757E-02  5.25910E-02  5.37059E-02  7.30449E-02  7.02903E-02  8.77893E-02  8.00126E-02  9.46833E-02
   8.22765E-02  9.39298E-02  7.66943E-02  8.45010E-02  6.38593E-02  6.79254E-02  4.60279E-02  4.63048E-02  2.39158E-02  2.16809E-02
  -7.42648E-04 -5.71223E-03 -2.80095E-02 -3.39385E-02 -5.43213E-02 -5.63506E-02 -7.61455E-02 -7.34468E-02 -9.30779E-02 -8.23711E-02
  -9.89835E-02 -8.12688E-02 -9.67817E-02 -7.46210E-02 -8.71701E-02 -6.28248E-02 -7.10889E-02 -4.54203E-02 -5.02968E-02 -2.52863E-02
  -2.74077E-02 -4.27094E-03 -6.68495E-03  1.53296E-02  9.10820E-03  3.08548E-02  1.81055E-02  3.86630E-02  1.83678E-02  3.27408E-02
   7.53264E-03  1.15814E-02 -1.56191E-02 -2.11428E-02 -4.65433E-02 -5.36264E-02 -7.59629E-02 -7.45847E-02 -9.25674E-02 -8.19688E-02
  -9.01200E-02 -7.10093E-02 -6.87796E-02 -4.29200E-02 -3.02551E-02  7.32480E-04  1.83214E-02  5.14874E-02  6.96245E-02  1.02083E-01
   1.17545E-01  1.48877E-01  1.59780E-01  1.90521E-01  1.95435E-01  2.23495E-01  2.21684E-01  2.42733E-01  2.34182E-01  2.44856E-01
   2.30213E-01  2.29022E-01  2.11887E-01  2.02202E-01  1.84662E-01  1.74214E-01  1.56010E-01  1.46531E-01  1.27675E-01  1.14960E-01
   9.48903E-02  7.66609E-02  5.60617E-02  3.21569E-02  1.28289E-02 -1.47625E-02 -2.99193E-02 -5.87846E-02 -6.73929E-02 -9.53865E-02
  -9.66970E-02 -1.22616E-01 -1.16280E-01 -1.41035E-01 -1.25834E-01 -1.52385E-01 -1.25512E-01 -1.58496E-01 -1.20391E-01 -1.64383E-01
  -1.26186E-01 -1.80571E-01 -1.54903E-01 -2.11910E-01 -2.00916E-01 -2.51065E-01 -2.55110E-01 -2.91404E-01 -3.14882E-01 -3.31590E-01
  -3.69681E-01 -3.65061E-01 -4.11069E-01 -3.84925E-01 -4.21812E-01 -3.77530E-01 -4.00674E-01 -3.43744E-01 -3.62251E-01 -2.96275E-01
  -3.13228E-01 -2.41854E-01 -2.54792E-01 -1.83835E-01 -1.82393E-01 -1.21344E-01 -1.08185E-01 -6.26246E-02 -3.73331E-02 -9.95250E-03
   1.67095E-02  2.63888E-02  3.06238E-02  3.37617E-02  3.58811E-02  3.71556E-02  3.89913E-02  3.94446E-02  4.14282E-02  4.15151E-02
   4.38006E-02  4.36823E-02  4.63919E-02  4.61702E-02  4.92694E-02  4.90722E-02  5.23871E-02  5.23319E-02  5.55063E-02  5.57300E-02
   5.83538E-02  5.88950E-02  6.07987E-02  6.14869E-02  6.27979E-02  6.34775E-02  6.43549E-02  6.50059E-02  6.54876E-02  6.60869E-02
   6.61815E-02  6.66649E-02  6.63542E-02  6.66726E-02  6.59076E-02  6.59982E-02  6.47851E-02  6.46165E-02  6.30017E-02  6.25404E-02
   6.05864E-02  5.97847E-02  5.76106E-02  5.64685E-02  5.41816E-02  5.27408E-02  5.04351E-02  4.87571E-02  4.65222E-02  4.47159E-02
   4.26208E-02  4.08054E-02  3.89123E-02  3.71747E-02  3.55283E-02  3.39323E-02  3.26059E-02  3.12194E-02  3.02711E-02  2.91386E-02
   2.85955E-02  2.77429E-02  2.75866E-02  2.70536E-02  2.72453E-02  2.70645E-02  2.75975E-02  2.77893E-02  2.86148E-02  2.91946E-02
   3.03089E-02  3.12844E-02  3.26895E-02  3.40854E-02  3.57941E-02  3.76138E-02  3.96344E-02  4.18358E-02  4.41274E-02  4.66313E-02
   4.91125E-02  5.18207E-02  5.43592E-02  5.71639E-02  5.96332E-02  6.23650E-02  6.45936E-02  6.70862E-02  6.88838E-02  7.09725E-02
   7.21811E-02  7.36963E-02  7.41643E-02  7.49916E-02  7.46827E-02  7.47619E-02  7.37090E-02  7.30095E-02  7.12857E-02  6.98521E-02
   6.76119E-02  6.55822E-02  6.30078E-02  6.05512E-02  5.78504E-02  5.51448E-02  5.25511E-02  4.98054E-02  4.74872E-02  4.49012E-02
   4.29911E-02  4.07326E-02  3.93283E-02  3.75340E-02  3.66710E-02  3.54305E-02  3.50788E-02  3.43941E-02  3.44568E-02  3.42863E-02
   3.46778E-02  3.49433E-02  3.55430E-02  3.61272E-02  3.68001E-02  3.75647E-02  3.82152E-02  3.90148E-02  3.95279E-02  4.02549E-02
   4.05495E-02  4.10967E-02  4.11002E-02  4.13820E-02  4.10583E-02  4.10423E-02  4.04330E-02  4.00833E-02  3.92523E-02  3.85990E-02
   3.75907E-02  3.66838E-02  3.55260E-02  3.44258E-02  3.31283E-02  3.18607E-02  3.04334E-02  2.89905E-02  2.74306E-02  2.58099E-02
   2.40733E-02  2.22133E-02  2.01854E-02  1.80484E-02  1.56031E-02  1.31685E-02  1.02143E-02  7.45231E-03  3.98493E-03  9.19496E-04
  -3.00580E-03 -6.31920E-03 -1.05511E-02 -1.39712E-02 -1.82866E-02 -2.16368E-02 -2.57790E-02 -2.88561E-02 -3.25606E-02 -3.51646E-02
  -3.82178E-02 -4.01874E-02 -4.23999E-02 -4.35997E-02 -4.48751E-02 -4.52384E-02 -4.55326E-02 -4.50377E-02 -4.43582E-02 -4.30716E-02
  -4.15185E-02 -3.95511E-02 -3.72701E-02 -3.47495E-02 -3.19138E-02 -2.90158E-02 -2.57856E-02 -2.27032E-02 -1.92442E-02 -1.61520E-02
  -1.26324E-02 -9.62488E-03 -6.15791E-03 -3.29840E-03 -1.68553E-05  2.64654E-03  5.69226E-03  8.10883E-03  1.08618E-02  1.29841E-02
   1.53919E-02  1.72213E-02  1.92655E-02  2.08494E-02  2.25287E-02  2.38936E-02  2.52603E-02  2.64364E-02  2.75323E-02  2.85370E-02
   2.94144E-02  3.02705E-02  3.09863E-02  3.17031E-02  3.22931E-02  3.28704E-02  3.33769E-02  3.38490E-02  3.43031E-02  3.46580E-02
   3.50639E-02  3.53574E-02  3.56975E-02  3.59464E-02  3.62346E-02  3.64424E-02  3.66736E-02  3.68562E-02  3.70232E-02  3.71921E-02
   3.72971E-02  3.74885E-02  3.75648E-02  3.78044E-02  3.78992E-02  3.81951E-02  3.83209E-02  3.86635E-02  3.88693E-02  3.92230E-02
   3.95436E-02  3.98985E-02  4.03538E-02  4.06908E-02  4.12983E-02  4.15836E-02  4.23541E-02  4.26050E-02  4.35311E-02  4.37399E-02
   4.48034E-02  4.49574E-02  4.61584E-02  4.63268E-02  4.76088E-02  4.78502E-02  4.91547E-02  4.95169E-02  5.07908E-02  5.12622E-02
   5.25085E-02  5.30970E-02  5.43109E-02  5.50145E-02  5.61936E-02  5.70199E-02  5.81670E-02  5.91088E-02  6.02444E-02  6.13058E-02
   6.24692E-02  6.36442E-02  6.48411E-02  6.61130E-02  6.73672E-02  6.87668E-02  7.01160E-02  7.16819E-02  7.31689E-02  7.49470E-02
   7.66025E-02  7.86185E-02  8.04774E-02  8.28186E-02  8.48833E-02  8.76153E-02  8.98867E-02  9.30284E-02  9.55753E-02  9.91559E-02
   1.02056E-01  1.06087E-01  1.09414E-01  1.13970E-01
 NY background values follow
     5.628E-02    5.610E-02    5.592E-02    5.575E-02    5.557E-02    5.539E-02    5.521E-02    5.503E-02    5.486E-02    5.468E-02
     5.450E-02    5.432E-02    5.414E-02    5.397E-02    5.379E-02    5.361E-02    5.343E-02    5.325E-02    5.307E-02    5.290E-02
     5.272E-02    5.254E-02    5.236E-02    5.218E-02    5.201E-02    5.183E-02    5.165E-02    5.147E-02    5.129E-02    5.111E-02
     5.094E-02    5.076E-02    5.058E-02    5.040E-02    5.022E-02    5.004E-02    4.987E-02    4.969E-02    4.951E-02    4.933E-02
     4.915E-02    4.897E-02    4.880E-02    4.862E-02    4.844E-02    4.826E-02    4.808E-02    4.790E-02    4.773E-02    4.755E-02
     4.737E-02    4.719E-02    4.701E-02    4.683E-02    4.666E-02    4.648E-02    4.630E-02    4.612E-02    4.594E-02    4.576E-02
     4.558E-02    4.541E-02    4.523E-02    4.505E-02    4.487E-02    4.469E-02    4.451E-02    4.433E-02    4.416E-02    4.398E-02
