 
 $NMID
 ID=''
 FMTDAT='(2E13.5)'
 TRAMP=   1.00000E+0
 VOLUME=   1.00000E+0
 $END
  -1.74125E+4   5.97134E+3
  -4.75327E+4   2.07229E+3
  -4.64843E+4   1.04087E+4
  -4.29293E+4   9.61796E+3
  -4.49807E+4   8.62005E+3
  -4.45951E+4   1.06366E+4
  -4.30688E+4   9.73319E+3
  -4.39097E+4   8.94127E+3
  -4.36944E+4   1.01144E+4
  -4.26267E+4   9.55144E+3
  -4.31020E+4   9.04404E+3
  -4.28414E+4   9.81251E+3
  -4.20826E+4   9.52346E+3
  -4.24480E+4   8.99677E+3
  -4.21402E+4   9.35511E+3
  -4.15680E+4   9.08675E+3
  -4.16856E+4   8.67096E+3
  -4.15031E+4   8.95640E+3
  -4.08483E+4   8.73454E+3
  -4.09978E+4   8.33692E+3
  -4.05824E+4   8.63225E+3
  -4.00146E+4   8.56788E+3
  -4.00694E+4   8.47814E+3
  -3.97675E+4   8.51420E+3
  -3.92421E+4   8.43017E+3
  -3.91001E+4   8.37001E+3
  -3.89055E+4   8.44773E+3
  -3.85555E+4   8.24403E+3
  -3.83953E+4   7.99759E+3
  -3.81725E+4   8.13028E+3
  -3.78908E+4   8.15792E+3
  -3.77868E+4   8.05354E+3
  -3.77005E+4   8.05716E+3
  -3.73707E+4   7.93890E+3
  -3.72342E+4   7.75926E+3
  -3.70549E+4   7.89785E+3
  -3.67349E+4   7.71098E+3
  -3.65402E+4   7.67125E+3
  -3.63277E+4   7.64994E+3
  -3.60756E+4   7.61810E+3
  -3.59823E+4   7.40238E+3
  -3.57547E+4   7.18791E+3
  -3.53794E+4   6.96820E+3
  -3.51362E+4   6.89761E+3
  -3.48448E+4   6.79050E+3
  -3.46033E+4   6.66874E+3
  -3.43619E+4   6.59670E+3
  -3.41786E+4   6.49843E+3
  -3.39121E+4   6.49040E+3
  -3.36987E+4   6.40279E+3
  -3.33962E+4   6.26269E+3
  -3.32573E+4   6.16038E+3
  -3.28837E+4   6.14286E+3
  -3.27027E+4   6.12960E+3
  -3.25487E+4   6.06409E+3
  -3.23844E+4   5.96512E+3
  -3.20894E+4   5.87051E+3
  -3.19286E+4   5.71773E+3
  -3.16902E+4   5.55226E+3
  -3.14709E+4   5.43205E+3
  -3.12699E+4   5.35997E+3
  -3.10053E+4   5.27263E+3
  -3.07939E+4   5.13324E+3
  -3.05952E+4   4.99887E+3
  -3.03541E+4   4.88874E+3
  -3.00707E+4   4.81873E+3
  -2.98648E+4   4.86851E+3
  -2.96735E+4   4.70218E+3
  -2.93881E+4   4.59196E+3
  -2.91509E+4   4.50453E+3
  -2.89430E+4   4.54791E+3
  -2.88723E+4   4.50006E+3
  -2.86009E+4   4.49566E+3
  -2.83936E+4   4.37788E+3
  -2.81924E+4   4.38545E+3
  -2.80066E+4   4.35126E+3
  -2.78339E+4   4.35512E+3
  -2.76485E+4   4.31595E+3
  -2.74508E+4   4.20435E+3
  -2.72739E+4   4.17242E+3
  -2.71257E+4   4.23729E+3
  -2.69555E+4   4.11260E+3
  -2.67670E+4   4.08086E+3
  -2.65478E+4   4.02134E+3
  -2.64964E+4   4.02100E+3
  -2.63311E+4   3.91846E+3
  -2.61642E+4   3.81549E+3
  -2.59902E+4   3.72466E+3
  -2.57726E+4   3.74773E+3
  -2.56960E+4   3.76512E+3
  -2.54889E+4   3.77850E+3
  -2.53239E+4   3.70670E+3
  -2.52230E+4   3.69597E+3
  -2.50825E+4   3.76338E+3
  -2.49288E+4   3.67727E+3
  -2.47657E+4   3.71446E+3
  -2.46210E+4   3.68984E+3
  -2.44555E+4   3.65808E+3
  -2.43886E+4   3.61078E+3
  -2.42859E+4   3.60107E+3
  -2.40150E+4   3.50433E+3
  -2.39044E+4   3.52171E+3
  -2.38069E+4   3.53112E+3
  -2.37207E+4   3.49850E+3
  -2.35842E+4   3.48669E+3
  -2.34659E+4   3.44689E+3
  -2.33310E+4   3.41836E+3
  -2.31915E+4   3.34985E+3
  -2.30767E+4   3.36417E+3
  -2.28258E+4   3.35016E+3
  -2.26141E+4   3.28902E+3
  -2.25852E+4   3.31843E+3
  -2.24720E+4   3.27581E+3
  -2.23818E+4   3.23718E+3
  -2.21895E+4   3.21880E+3
  -2.21441E+4   3.19593E+3
  -2.19056E+4   3.13078E+3
  -2.18049E+4   3.09088E+3
  -2.17025E+4   3.08179E+3
  -2.15077E+4   3.09501E+3
  -2.13833E+4   3.00165E+3
  -2.12543E+4   2.97789E+3
  -2.11549E+4   2.98414E+3
  -2.10326E+4   2.88733E+3
  -2.09259E+4   2.82401E+3
  -2.07424E+4   2.83669E+3
  -2.06562E+4   2.82592E+3
  -2.04710E+4   2.80211E+3
  -2.03166E+4   2.73552E+3
  -2.01684E+4   2.66030E+3
  -2.00611E+4   2.63916E+3
  -1.98787E+4   2.47392E+3
  -1.97890E+4   2.60242E+3
  -1.96267E+4   2.56024E+3
  -1.95654E+4   2.53967E+3
  -1.93727E+4   2.49056E+3
  -1.92783E+4   2.37898E+3
  -1.91386E+4   2.44849E+3
  -1.89826E+4   2.37476E+3
  -1.89038E+4   2.33338E+3
  -1.87514E+4   2.29119E+3
  -1.86010E+4   2.21699E+3
  -1.84714E+4   2.25285E+3
  -1.84015E+4   2.21005E+3
  -1.81869E+4   2.19348E+3
  -1.80472E+4   2.11764E+3
  -1.79804E+4   2.08210E+3
  -1.78110E+4   2.02741E+3
  -1.77255E+4   2.06157E+3
  -1.76047E+4   1.91444E+3
  -1.75388E+4   1.90554E+3
  -1.74118E+4   1.85570E+3
  -1.71728E+4   1.83971E+3
  -1.71194E+4   1.77408E+3
  -1.69795E+4   1.83687E+3
  -1.68769E+4   1.74725E+3
  -1.67319E+4   1.74093E+3
  -1.66446E+4   1.69596E+3
  -1.64984E+4   1.65911E+3
  -1.63533E+4   1.62692E+3
  -1.62681E+4   1.60849E+3
  -1.60968E+4   1.57100E+3
  -1.60186E+4   1.49284E+3
  -1.58750E+4   1.53569E+3
  -1.57660E+4   1.50439E+3
  -1.56434E+4   1.42788E+3
  -1.55431E+4   1.44066E+3
  -1.53831E+4   1.42334E+3
  -1.52938E+4   1.40192E+3
  -1.51392E+4   1.36798E+3
  -1.50275E+4   1.39425E+3
  -1.49195E+4   1.25377E+3
  -1.47881E+4   1.26505E+3
  -1.46840E+4   1.29715E+3
  -1.45654E+4   1.18748E+3
  -1.44972E+4   1.15441E+3
  -1.43805E+4   1.19030E+3
  -1.42860E+4   1.16112E+3
  -1.41174E+4   1.11276E+3
  -1.40474E+4   1.07821E+3
  -1.38812E+4   1.02674E+3
  -1.37189E+4   1.04401E+3
  -1.36464E+4   9.90622E+2
  -1.35383E+4   1.00763E+3
  -1.34324E+4   1.01163E+3
  -1.33089E+4   9.13277E+2
  -1.32357E+4   9.87382E+2
  -1.31112E+4   8.48990E+2
  -1.30270E+4   8.88052E+2
  -1.29273E+4   8.44474E+2
  -1.28035E+4   8.67479E+2
  -1.26840E+4   8.07072E+2
  -1.26208E+4   8.34581E+2
  -1.25033E+4   7.23624E+2
  -1.23574E+4   7.16176E+2
  -1.23878E+4   7.13438E+2
  -1.22264E+4   6.91744E+2
  -1.21618E+4   6.54458E+2
  -1.20527E+4   6.59738E+2
  -1.18998E+4   6.28145E+2
  -1.18460E+4   6.45187E+2
  -1.16617E+4   6.25834E+2
  -1.16240E+4   5.12766E+2
  -1.14818E+4   5.42079E+2
  -1.13804E+4   5.08998E+2
  -1.13299E+4   4.57969E+2
  -1.12433E+4   4.49120E+2
  -1.11893E+4   5.50105E+2
  -1.09950E+4   5.00335E+2
  -1.09658E+4   4.03960E+2
  -1.08463E+4   3.77937E+2
  -1.07085E+4   4.53021E+2
  -1.06838E+4   4.40639E+2
  -1.06062E+4   4.31865E+2
  -1.05049E+4   3.94347E+2
  -1.04258E+4   3.74628E+2
  -1.02944E+4   3.36522E+2
  -1.02096E+4   3.03711E+2
  -1.01170E+4   3.41354E+2
  -1.01334E+4   3.59899E+2
  -1.00334E+4   2.75939E+2
  -9.86971E+3   3.54764E+2
  -9.82406E+3   2.46570E+2
  -9.73808E+3   2.34939E+2
  -9.66417E+3   2.61605E+2
  -9.47349E+3   1.99408E+2
  -9.47801E+3   2.21383E+2
  -9.35150E+3   2.20742E+2
  -9.33979E+3   1.91134E+2
  -9.29707E+3   2.23242E+2
  -9.19867E+3   1.65934E+2
  -9.11484E+3   1.55501E+2
  -9.01518E+3   1.37740E+2
  -8.83061E+3   1.04865E+2
  -8.81606E+3   1.14796E+2
  -8.77489E+3   1.44990E+2
  -8.75020E+3   1.53973E+2
  -8.60813E+3   3.68645E+1
  -8.51886E+3   9.30976E+1
  -8.51870E+3   1.18875E+2
  -8.34103E+3   8.65244E+1
  -8.35343E+3   5.92172E+1
  -8.27485E+3   4.03924E+1
  -8.13794E+3   6.33777E+1
  -8.14090E+3   4.56521E+1
  -8.07239E+3   5.08515E+1
  -7.95065E+3   8.48444E+1
  -7.88784E+3   6.01267E+1
  -7.81476E+3   4.52931E+1
  -7.80618E+3   6.36463E+1
  -7.66639E+3   7.44939E+1
  -7.56604E+3   2.81567E+1
  -7.62462E+3  -1.13383E+1
  -7.48176E+3   3.89447E+0
  -7.40107E+3  -3.80587E+1
  -7.31932E+3  -4.02935E+0
  -7.22863E+3  -3.92380E+1
  -7.20539E+3  -4.62995E+1
  -7.16603E+3  -5.83870E+1
  -7.02287E+3  -2.19324E+1
  -7.06906E+3  -7.70643E+1
  -6.96498E+3  -4.61528E+1
  -6.93907E+3  -5.90878E+1
  -6.78354E+3  -1.10977E+2
  -6.74745E+3  -8.48149E+1
  -6.70182E+3  -6.68554E+1
  -6.61087E+3  -5.30183E+1
  -6.62527E+3  -1.19802E+2
  -6.45000E+3  -1.29655E+2
  -6.49228E+3  -1.64352E+2
  -6.36695E+3  -4.00928E+1
  -6.30808E+3  -1.36607E+2
  -6.24312E+3  -1.09325E+2
  -6.12849E+3  -1.50213E+2
  -6.13537E+3  -1.71937E+2
  -6.10195E+3  -1.95027E+2
  -6.00422E+3  -1.60024E+2
  -5.87921E+3  -1.76213E+2
  -5.85946E+3  -1.16154E+2
  -5.79531E+3  -1.48107E+2
  -5.76154E+3  -2.01585E+2
  -5.76854E+3  -1.38367E+2
  -5.70835E+3  -1.62449E+2
  -5.64897E+3  -2.56147E+2
  -5.54959E+3  -1.96281E+2
  -5.51349E+3  -1.57607E+2
  -5.45512E+3  -1.21696E+2
  -5.40658E+3  -1.32143E+2
  -5.35613E+3  -1.69251E+2
  -5.32967E+3  -1.20919E+2
  -5.17041E+3  -1.86315E+2
  -5.16687E+3  -2.03923E+2
  -5.14591E+3  -1.68406E+2
  -5.12164E+3  -2.12919E+2
  -5.01717E+3  -1.98108E+2
  -5.01558E+3  -1.35690E+2
  -4.96600E+3  -2.03747E+2
  -4.87582E+3  -2.42240E+2
  -4.80158E+3  -1.67374E+2
  -4.78073E+3  -1.76078E+2
  -4.75237E+3  -2.01627E+2
  -4.67823E+3  -2.43784E+2
  -4.65244E+3  -1.84141E+2
  -4.61663E+3  -1.99259E+2
  -4.55475E+3  -2.55104E+2
  -4.46386E+3  -2.47120E+2
  -4.41591E+3  -2.22170E+2
  -4.36048E+3  -2.20135E+2
  -4.28216E+3  -1.96038E+2
  -4.35065E+3  -2.26728E+2
  -4.23300E+3  -2.14052E+2
  -4.18728E+3  -1.39689E+2
  -4.16439E+3  -1.80476E+2
  -4.13490E+3  -1.86202E+2
  -4.09312E+3  -2.56653E+2
  -4.06722E+3  -2.29104E+2
  -3.91945E+3  -1.66361E+2
  -3.94402E+3  -2.12935E+2
  -3.89432E+3  -1.99716E+2
  -3.85696E+3  -2.14489E+2
  -3.80076E+3  -1.93791E+2
  -3.73576E+3  -2.49704E+2
  -3.71813E+3  -1.97870E+2
  -3.70002E+3  -1.62742E+2
  -3.62358E+3  -1.58611E+2
  -3.55583E+3  -2.25756E+2
  -3.52683E+3  -2.20529E+2
  -3.51015E+3  -2.37070E+2
  -3.39794E+3  -1.83781E+2
  -3.41530E+3  -1.26397E+2
  -3.37241E+3  -2.14480E+2
  -3.37897E+3  -1.70311E+2
  -3.30732E+3  -2.46128E+2
  -3.26817E+3  -1.71197E+2
  -3.27954E+3  -1.93034E+2
  -3.20491E+3  -1.81284E+2
  -3.13724E+3  -2.12547E+2
  -3.05720E+3  -2.11377E+2
  -3.02919E+3  -1.75496E+2
  -3.04959E+3  -2.24471E+2
  -3.02221E+3  -2.89333E+2
  -2.91043E+3  -1.81237E+2
  -2.89467E+3  -2.20723E+2
  -2.86870E+3  -2.18697E+2
  -2.82812E+3  -2.10573E+2
  -2.82532E+3  -1.44690E+2
  -2.78086E+3  -1.49850E+2
  -2.76559E+3  -1.73713E+2
  -2.65022E+3  -1.78518E+2
  -2.67968E+3  -2.26710E+2
  -2.61180E+3  -1.30151E+2
  -2.57990E+3  -1.48597E+2
  -2.54005E+3  -1.89984E+2
  -2.49955E+3  -2.01748E+2
  -2.46334E+3  -1.57899E+2
  -2.42615E+3  -1.97714E+2
  -2.42974E+3  -2.67312E+2
  -2.36222E+3  -1.66601E+2
  -2.30458E+3  -2.16545E+2
  -2.27530E+3  -2.36400E+2
  -2.30260E+3  -2.25308E+2
  -2.18784E+3  -2.43833E+2
  -2.19439E+3  -2.65054E+2
  -2.12632E+3  -2.89070E+2
  -2.05998E+3  -2.07823E+2
  -2.09537E+3  -3.05237E+2
  -2.03627E+3  -2.16245E+2
