 LCModel (Version 6.3-1N) Copyright: S.W. Provencher.          Ref.: Magn. Reson. Med. 30:672-679 (1993).                
 Slice_N1@24_19  02-Jun-2023 14:37:53
 27 lines in following concentration table = NCONC+1
    Conc.  %SD /Cr+PCr  Metabolite                                         
 1.01E-06  36% 1.6E-04 Mac                                                 
 5.15E-02  17%   8.000 Cr                                                  
    0.000 999%   0.000 PCr                                                 
    0.114  12%  17.665 Ins                                                 
 7.73E-02  12%  11.992 NAA                                                 
 6.48E-02  21%  10.056 Tau                                                 
 1.45E-02  24%   2.249 PCho                                                
    0.000 999%   0.000 GPC                                                 
 8.47E-02  15%  13.148 Glu                                                 
 1.44E-02  61%   2.228 Gln                                                 
 1.10E-02  95%   1.706 Ala                                                 
    0.000 999%   0.000 Asc                                                 
 6.23E-03  98%   0.967 Asp                                                 
 4.18E-03  85%   0.648 GABA                                                
 4.89E-03  78%   0.759 Glc                                                 
 7.89E-03  56%   1.224 GSH                                                 
    0.000 999%   0.000 Lac                                                 
    0.000 999%   0.000 NAAG                                                
    0.000 999%   0.000 PE                                                  
 1.45E-02  24%   2.249 GPC+PCho                                            
 7.73E-02  12%  11.992 NAA+NAAG                                            
 9.91E-02  15%  15.376 Glu+Gln                                             
 5.15E-02  17%   8.000 Cr+PCr                                              
 7.73E-02  12%  11.992 NAA+NAAG                                            
 5.15E-02  17%   8.000 Cr+PCr                                              
 9.91E-02  15%  15.376 Glu+Gln                                             
   6 lines in following misc. output table
  FWHM = 0.081 ppm    S/N =   1                                            
  Data shift = 0.006 ppm                                                   
  Ph:  30 deg      -1.9 deg/ppm                                            
  alphaB,S = 3.1E+01,   5.1E+01                                            
   18 spline knots.   Ns = 7(2)                                            
   2 inflections.     1 extrema                                            
  654 points on ppm-axis = NY
      4.000000     3.994181     3.988363     3.982544     3.976726     3.970907     3.965088     3.959270     3.953451     3.947633
      3.941814     3.935995     3.930177     3.924358     3.918540     3.912721     3.906902     3.901084     3.895265     3.889446
      3.883628     3.877809     3.871991     3.866172     3.860353     3.854535     3.848716     3.842898     3.837079     3.831260
      3.825442     3.819623     3.813805     3.807986     3.802167     3.796349     3.790530     3.784712     3.778893     3.773074
      3.767256     3.761437     3.755619     3.749800     3.743981     3.738163     3.732344     3.726526     3.720707     3.714888
      3.709070     3.703251     3.697433     3.691614     3.685795     3.679977     3.674158     3.668339     3.662521     3.656702
      3.650884     3.645065     3.639246     3.633428     3.627609     3.621791     3.615972     3.610153     3.604335     3.598516
      3.592698     3.586879     3.581060     3.575242     3.569423     3.563605     3.557786     3.551967     3.546149     3.540330
      3.534512     3.528693     3.522874     3.517056     3.511237     3.505419     3.499600     3.493781     3.487963     3.482144
      3.476326     3.470507     3.464688     3.458870     3.453051     3.447232     3.441414     3.435595     3.429777     3.423958
      3.418139     3.412321     3.406502     3.400684     3.394865     3.389046     3.383228     3.377409     3.371591     3.365772
      3.359953     3.354135     3.348316     3.342498     3.336679     3.330860     3.325042     3.319223     3.313405     3.307586
      3.301767     3.295949     3.290130     3.284312     3.278493     3.272674     3.266856     3.261037     3.255219     3.249400
      3.243581     3.237763     3.231944     3.226125     3.220307     3.214488     3.208670     3.202851     3.197032     3.191214
      3.185395     3.179577     3.173758     3.167939     3.162121     3.156302     3.150484     3.144665     3.138846     3.133028
      3.127209     3.121391     3.115572     3.109753     3.103935     3.098116     3.092298     3.086479     3.080660     3.074842
      3.069023     3.063205     3.057386     3.051567     3.045749     3.039930     3.034111     3.028293     3.022474     3.016656
      3.010837     3.005018     2.999200     2.993381     2.987563     2.981744     2.975925     2.970107     2.964288     2.958470
      2.952651     2.946832     2.941014     2.935195     2.929377     2.923558     2.917739     2.911921     2.906102     2.900284
      2.894465     2.888646     2.882828     2.877009     2.871191     2.865372     2.859553     2.853735     2.847916     2.842098
      2.836279     2.830460     2.824642     2.818823     2.813004     2.807186     2.801367     2.795549     2.789730     2.783911
      2.778093     2.772274     2.766456     2.760637     2.754818     2.749000     2.743181     2.737363     2.731544     2.725725
      2.719907     2.714088     2.708270     2.702451     2.696632     2.690814     2.684995     2.679177     2.673358     2.667539
      2.661721     2.655902     2.650084     2.644265     2.638446     2.632628     2.626809     2.620991     2.615172     2.609353
      2.603535     2.597716     2.591897     2.586079     2.580260     2.574442     2.568623     2.562804     2.556986     2.551167
      2.545349     2.539530     2.533711     2.527893     2.522074     2.516256     2.510437     2.504618     2.498800     2.492981
      2.487163     2.481344     2.475525     2.469707     2.463888     2.458070     2.452251     2.446432     2.440614     2.434795
      2.428977     2.423158     2.417339     2.411521     2.405702     2.399884     2.394065     2.388246     2.382428     2.376609
      2.370790     2.364972     2.359153     2.353335     2.347516     2.341697     2.335879     2.330060     2.324242     2.318423
      2.312604     2.306786     2.300967     2.295149     2.289330     2.283511     2.277693     2.271874     2.266056     2.260237
      2.254418     2.248600     2.242781     2.236963     2.231144     2.225325     2.219507     2.213688     2.207870     2.202051
      2.196232     2.190414     2.184595     2.178777     2.172958     2.167139     2.161321     2.155502     2.149683     2.143865
      2.138046     2.132228     2.126409     2.120590     2.114772     2.108953     2.103135     2.097316     2.091497     2.085679
      2.079860     2.074042     2.068223     2.062404     2.056586     2.050767     2.044949     2.039130     2.033311     2.027493
      2.021674     2.015856     2.010037     2.004218     1.998400     1.992581     1.986763     1.980944     1.975126     1.969307
      1.963489     1.957670     1.951852     1.946033     1.940215     1.934397     1.928578     1.922760     1.916941     1.911123
      1.905304     1.899486     1.893667     1.887849     1.882030     1.876212     1.870393     1.864575     1.858756     1.852938
      1.847119     1.841301     1.835482     1.829664     1.823845     1.818027     1.812208     1.806390     1.800571     1.794753
      1.788934     1.783116     1.777297     1.771479     1.765660     1.759842     1.754023     1.748205     1.742386     1.736568
      1.730749     1.724931     1.719113     1.713294     1.707476     1.701657     1.695839     1.690020     1.684202     1.678383
      1.672565     1.666746     1.660928     1.655109     1.649291     1.643472     1.637654     1.631835     1.626017     1.620198
      1.614380     1.608561     1.602743     1.596924     1.591106     1.585287     1.579469     1.573650     1.567832     1.562013
      1.556195     1.550376     1.544558     1.538739     1.532921     1.527102     1.521284     1.515465     1.509647     1.503829
      1.498010     1.492192     1.486373     1.480555     1.474736     1.468918     1.463099     1.457281     1.451462     1.445644
      1.439825     1.434007     1.428188     1.422370     1.416551     1.410733     1.404914     1.399096     1.393277     1.387459
      1.381640     1.375822     1.370003     1.364185     1.358366     1.352548     1.346729     1.340911     1.335092     1.329274
      1.323455     1.317637     1.311818     1.306000     1.300182     1.294363     1.288545     1.282726     1.276908     1.271089
      1.265271     1.259452     1.253634     1.247815     1.241997     1.236178     1.230360     1.224541     1.218723     1.212904
      1.207086     1.201267     1.195449     1.189630     1.183812     1.177993     1.172175     1.166356     1.160538     1.154719
      1.148901     1.143082     1.137264     1.131445     1.125627     1.119808     1.113990     1.108171     1.102353     1.096534
      1.090716     1.084898     1.079079     1.073261     1.067442     1.061624     1.055805     1.049987     1.044168     1.038350
      1.032531     1.026713     1.020894     1.015076     1.009257     1.003439     0.997620     0.991802     0.985983     0.980165
      0.974346     0.968528     0.962709     0.956891     0.951072     0.945254     0.939435     0.933617     0.927798     0.921980
      0.916161     0.910343     0.904524     0.898706     0.892887     0.887069     0.881251     0.875432     0.869614     0.863795
      0.857977     0.852158     0.846340     0.840521     0.834703     0.828884     0.823066     0.817247     0.811429     0.805610
      0.799792     0.793973     0.788155     0.782336     0.776518     0.770699     0.764881     0.759062     0.753244     0.747425
      0.741607     0.735788     0.729970     0.724151     0.718333     0.712514     0.706696     0.700877     0.695059     0.689240
      0.683422     0.677603     0.671785     0.665967     0.660148     0.654330     0.648511     0.642693     0.636874     0.631056
      0.625237     0.619419     0.613600     0.607782     0.601963     0.596145     0.590326     0.584508     0.578689     0.572871
      0.567052     0.561234     0.555415     0.549597     0.543778     0.537960     0.532141     0.526323     0.520504     0.514686
      0.508867     0.503049     0.497230     0.491412     0.485593     0.479775     0.473956     0.468138     0.462319     0.456501
      0.450682     0.444864     0.439045     0.433227     0.427408     0.421590     0.415771     0.409953     0.404134     0.398316
      0.392497     0.386679     0.380860     0.375042     0.369223     0.363405     0.357586     0.351767     0.345949     0.340130
      0.334312     0.328493     0.322675     0.316856     0.311038     0.305219     0.299401     0.293582     0.287764     0.281945
      0.276127     0.270308     0.264490     0.258671     0.252853     0.247034     0.241216     0.235397     0.229579     0.223760
      0.217942     0.212123     0.206305     0.200486
 NY phased data points follow
  -2.75937E-01  4.33527E-02 -4.18750E-01 -8.04146E-02 -1.77158E-01 -5.91910E-01 -1.13092E-01 -3.17405E-01  6.26060E-02 -1.65537E-01
  -2.66827E-02 -1.16141E-01 -1.74550E-01 -2.89480E-01 -1.64752E-01 -1.47950E-01 -2.05479E-01  5.42734E-01  9.43485E-02  1.82340E-01
   2.99712E-01  2.93086E-01  3.75275E-03  1.08666E-02  1.32329E-01  2.45020E-02 -1.75668E-01 -1.88222E-01  1.96305E-01  1.50531E-01
   3.73198E-01  3.20743E-02 -1.10217E-01 -4.52805E-01  1.45887E-02  2.52460E-01 -1.19662E-01 -1.80536E-01 -2.02689E-01  1.28281E-01
  -4.11990E-02  1.50385E-01  3.58296E-02  2.81605E-01  2.95120E-01  3.08892E-01  3.47594E-01  3.75714E-01  3.31974E-01  7.74740E-02
   5.60841E-01  1.42553E-01 -3.28466E-02 -9.43137E-02 -3.60644E-01 -6.08404E-02  4.81068E-02 -4.84676E-01 -4.96324E-01 -2.66283E-01
  -3.28535E-01 -1.38693E-01 -6.83328E-02 -1.31501E-01 -3.49411E-01 -3.73217E-01 -5.40072E-01 -3.13771E-01 -3.67907E-01 -1.89591E-01
  -1.18379E-01 -1.06578E-01  1.20162E-01 -1.64903E-01  4.56049E-01  8.38566E-02  2.13595E-01  2.53435E-01 -2.65085E-01 -2.26538E-03
  -2.39949E-01  1.72872E-01  2.27515E-01  6.78354E-02 -9.63427E-02  6.80725E-02  2.54859E-01  3.63202E-02  2.23993E-01  4.37432E-01
   3.21691E-01  5.72441E-02  1.94115E-01  2.06458E-01  2.71535E-01 -5.19397E-02  1.10542E-02 -4.89377E-02  1.28651E-01  4.07386E-01
  -1.06198E-01  3.24342E-01  1.74709E-01  2.29615E-01  2.47764E-01  2.58958E-02  1.81420E-01  3.71304E-02  3.39931E-01  4.18535E-01
   2.73667E-01  2.15057E-01  2.87433E-01  3.12172E-01  2.59526E-01  3.72543E-01  6.33567E-01  2.05250E-01 -7.03738E-02  2.80464E-01
   3.61394E-01  3.58871E-01  1.66197E-01  9.67982E-02  4.01921E-02 -1.56608E-01 -4.35953E-01 -1.23858E-01  1.65929E-01 -4.70321E-01
  -5.01206E-01 -2.87838E-01 -4.74711E-01 -4.97093E-01 -7.25338E-01 -6.62215E-01 -5.85087E-01 -4.88844E-01 -3.27807E-01 -1.33832E-01
  -1.72227E-01 -4.05384E-01 -1.01003E-01 -3.06323E-01 -1.92991E-01 -1.01559E-01  1.56191E-01  1.41321E-01 -2.28094E-02  3.51697E-01
   1.33031E-01  4.79666E-03 -4.41560E-02  2.28651E-01  1.93809E-02  1.88771E-01  3.61938E-01  1.68947E-01  1.84904E-01  3.85566E-01
   5.03659E-01  9.80247E-02  2.07971E-01  2.00133E-01  6.88599E-02 -1.66077E-01 -2.67161E-02 -1.34725E-01 -4.33922E-02 -3.78556E-03
  -3.81895E-01 -7.38309E-02 -4.79654E-02 -3.13654E-01 -3.05590E-01 -4.06586E-01 -5.94837E-01 -4.20105E-01 -3.24667E-01  2.13745E-01
  -2.79794E-01 -4.16830E-01 -1.09403E-02 -4.99339E-01 -2.11804E-01 -8.82463E-02 -2.24710E-01 -1.09391E-01 -3.56984E-01 -4.90477E-01
  -2.40272E-02 -2.26463E-01 -2.74865E-01 -2.93433E-01 -2.61603E-01 -1.32599E-01 -7.98715E-02 -6.15776E-02 -1.93846E-01  4.75804E-02
   8.68552E-02  1.31019E-01 -8.63038E-02  1.28416E-01 -3.10359E-02  1.37250E-01  4.19725E-02 -1.62699E-01  1.03897E-01 -1.09731E-01
   5.26064E-02 -8.20247E-02 -4.89289E-02 -3.15714E-01  6.69263E-02  2.48294E-01  1.54069E-01  1.06807E-01  1.79156E-02  1.63287E-01
  -3.61327E-01  9.32086E-02  2.70589E-01 -4.32970E-02  4.23082E-02 -5.67830E-02  1.17987E-01  2.98529E-01  5.84602E-02  3.09134E-01
   2.39679E-01 -1.64978E-01 -8.73251E-02 -3.83552E-02  1.41544E-01  1.43525E-01  1.11979E-01  3.25765E-01  1.77691E-01  2.07908E-02
   1.73338E-01 -1.50834E-01 -5.90363E-02 -6.61252E-02  1.52658E-01  2.62242E-01 -1.39369E-01  2.02174E-01  2.21850E-01 -9.03114E-03
  -1.55210E-01  7.20249E-02 -3.23792E-02 -6.73801E-02  3.20034E-01  3.48002E-02 -2.72480E-01 -2.31368E-01  3.46431E-02  6.50643E-02
  -1.48976E-01  2.86048E-01  1.15185E-01 -7.72375E-02  3.81210E-01  9.72769E-02  7.03471E-02  1.91162E-01  2.94945E-01  9.11004E-02
  -1.56152E-02 -1.01812E-01 -5.97824E-03  7.87500E-02 -2.99852E-01 -2.40996E-01 -1.61766E-01  2.03617E-01 -3.00824E-01 -1.16377E-01
   2.34864E-01 -3.99850E-01 -1.38264E-01  1.95364E-03  1.92486E-01  7.98878E-02  2.27633E-02  2.63280E-01  1.07746E-01  3.33351E-01
  -6.77224E-02  4.42456E-02  5.99780E-01  1.30715E-01  1.89806E-01  2.70148E-01  1.48186E-01  7.11014E-02  1.76102E-01  1.31811E-01
   4.99157E-02 -1.66438E-02  1.10504E-01  2.14851E-01  2.99526E-01  6.04069E-01  8.14968E-02  3.89372E-01  2.52580E-01  2.51536E-02
   2.95783E-01  3.04052E-01  2.06293E-01  1.85718E-01  3.59371E-01  6.96234E-03  4.60036E-02 -1.60596E-01  6.81706E-02  4.96755E-02
  -1.40205E-01  1.10079E-01  1.59968E-02 -3.25469E-01 -1.64624E-01 -9.65588E-02 -1.76950E-01 -1.90682E-01 -4.95575E-01  6.39462E-02
  -3.47219E-02 -3.23864E-02 -1.78229E-01 -3.96516E-02  1.12503E-01 -1.34258E-01 -2.69267E-01 -5.88112E-01 -3.76204E-01 -7.36188E-01
  -6.03453E-01 -6.40982E-01 -7.65828E-01 -6.69655E-01 -4.34299E-01 -1.53177E-01 -2.98665E-01 -4.54850E-01 -2.46651E-01 -3.64508E-01
  -5.50440E-01  1.39249E-02  1.06116E-01  5.91509E-02 -1.47423E-01  3.87900E-02 -4.37820E-03 -7.99090E-02 -7.35149E-02  5.75742E-02
   1.72428E-01  1.19543E-01 -3.99970E-03 -2.09608E-01  3.24841E-01  1.38142E-01  2.09385E-02  1.90816E-01  5.25677E-02 -1.63988E-01
   2.43827E-01  2.27238E-02  2.23420E-01  4.57949E-01 -3.74501E-02  2.52775E-01  5.53048E-03  7.76397E-02 -2.21574E-02  3.04942E-01
  -1.60909E-01  2.84225E-03  3.60359E-01 -1.43273E-01  4.88711E-01  2.05606E-01  2.26194E-01  2.74567E-01  1.95450E-01  1.70656E-01
   3.67815E-02  3.42990E-01  5.84248E-01  1.72504E-01 -2.53186E-01  3.39176E-02  2.06698E-01  5.89672E-02  2.68572E-03  8.85403E-02
   3.29848E-01  1.77019E-01 -1.56207E-01  2.65132E-01 -2.83011E-02  9.02211E-03  5.98395E-02 -3.27347E-01 -1.98620E-01 -1.95290E-01
  -1.30663E-01 -2.03435E-02 -1.74823E-01 -4.14266E-01 -3.82685E-02 -1.10438E-01 -2.01648E-01  8.61016E-02  2.51097E-02  1.52058E-03
   3.89739E-01 -1.12665E-01 -2.71089E-01 -3.68749E-02 -3.29348E-01  3.87165E-01  4.05035E-03 -3.33334E-01  4.74846E-02 -4.69013E-02
   1.66482E-01  8.17435E-02 -1.59608E-01  2.02084E-01  2.01911E-01  4.35754E-02 -5.93734E-02  1.92005E-02  1.22329E-01 -2.20408E-01
   1.74182E-01  2.95891E-02  6.70095E-02 -5.95846E-03  6.65338E-02  1.66855E-01  5.13191E-02  6.03946E-01 -1.11052E-02 -1.74430E-01
   2.36316E-02  2.29481E-01  5.34389E-01  1.69160E-01 -3.11090E-01 -1.74622E-01 -1.15164E-01 -2.78092E-01 -1.21514E-01 -1.89204E-01
   3.40598E-03  1.36296E-01  7.91023E-02 -1.03210E-01 -1.44444E-01 -1.79278E-01 -1.09256E-01 -6.49198E-02 -2.38762E-01 -2.36002E-01
  -1.82687E-01 -2.59451E-01 -2.09013E-01 -1.24141E-01 -9.37517E-02  3.38460E-02 -2.68365E-02  1.13804E-01 -2.11013E-01 -1.68316E-02
   8.47056E-02 -9.26706E-02  1.53314E-02  5.48769E-02  3.61974E-01 -1.98022E-01 -3.50027E-02  6.49350E-02 -5.59472E-02  2.25619E-01
  -2.18432E-01 -1.87695E-01  2.87997E-01  9.24791E-02 -6.90679E-02  2.09152E-01  1.55376E-02  2.01934E-01  1.80882E-01  9.05282E-02
   5.28062E-01  1.14801E-01 -1.51273E-01 -1.13690E-01 -1.05900E-01  1.12294E-01 -9.55444E-02  1.16582E-01 -4.84597E-02 -8.52743E-02
   2.92412E-01  5.78605E-02  3.87800E-01  1.24374E-01 -7.03230E-02  1.04829E-01  2.15176E-02 -4.93749E-02  1.90540E-02  1.49850E-01
  -6.75999E-02 -1.14105E-01 -2.56474E-01  1.95893E-02 -3.68502E-01 -4.77859E-01 -1.21632E-01 -3.91272E-01 -2.88260E-01 -2.04718E-01
  -5.49915E-02 -2.44209E-01 -2.07111E-01 -3.83876E-01 -3.93844E-01 -5.03147E-02 -3.39380E-03  1.20729E-01 -1.30104E-01 -1.09026E-01
  -1.70792E-01  1.34121E-01  8.55303E-02 -1.70083E-01 -3.85723E-02 -1.99131E-01  4.07654E-01  3.68788E-01 -2.02515E-02  2.75122E-02
   4.37043E-02  1.57624E-01 -7.49102E-02 -2.20764E-02  1.41975E-01  4.18267E-03  1.94112E-01  3.38718E-01 -1.22080E-01 -6.15146E-03
   2.25601E-01 -8.89257E-02 -1.83098E-01 -4.35216E-02  2.51031E-01  1.14061E-01 -2.07293E-02 -1.98506E-01 -2.37874E-01  2.23780E-01
   8.78606E-02 -1.25763E-01 -1.56355E-01 -9.82869E-04  1.05267E-01 -1.09853E-01 -8.98780E-02  4.59120E-02  2.74141E-01  3.38088E-01
   1.74674E-01  1.27438E-01  1.89966E-01 -1.46440E-01  9.10908E-02  2.21923E-01 -3.31790E-01 -1.38252E-01 -1.85889E-01 -3.92091E-02
  -3.81496E-02 -2.53544E-01 -1.02636E-01 -1.48415E-01 -9.43339E-02 -2.03981E-02  4.02129E-02  3.07420E-02  3.04215E-01  5.94015E-02
  -2.31089E-01  4.71130E-02  4.71649E-02  1.91056E-01  1.99974E-01 -7.33794E-02 -6.35321E-02 -1.93524E-01  1.37157E-01  2.24992E-01
   4.93837E-02  3.84246E-01 -6.22101E-02 -1.64538E-02 -1.30917E-01 -2.05819E-01 -8.79711E-02 -2.47078E-01 -1.59003E-02 -1.25763E-02
   2.49172E-01  6.62103E-02 -1.72019E-01 -1.66037E-01  1.01329E-04  7.23749E-02  2.62255E-01  2.40653E-01  1.83984E-01  6.55756E-02
  -1.96860E-01 -1.11894E-02 -1.22677E-01  3.40762E-01  1.78416E-01  5.84030E-02 -6.14515E-02 -6.20622E-02  1.91789E-01 -2.51338E-01
   2.17827E-02  3.53567E-02  1.65409E-02 -1.53931E-02 -8.87736E-02  6.35590E-02  2.76011E-02 -1.73094E-01 -9.47168E-02 -5.00891E-02
  -2.55498E-01 -5.39975E-02  1.16947E-01 -7.16318E-02
 NY points of the fit to the data follow
   1.67629E-02 -1.68916E-02 -3.30176E-02 -4.11051E-02 -4.18570E-02 -2.64929E-02 -2.03429E-02  1.73757E-02  1.38027E-02  8.61800E-02
   5.24863E-02  1.51900E-01  8.41810E-02  1.97405E-01  1.03209E-01  2.18141E-01  1.09640E-01  2.19362E-01  1.03327E-01  1.99950E-01
   8.02211E-02  1.49168E-01  3.62784E-02  6.23583E-02 -1.84565E-02 -2.71803E-02 -6.63138E-02 -8.61557E-02 -1.00334E-01 -1.17561E-01
  -1.25647E-01 -1.42298E-01 -1.40267E-01 -1.51986E-01 -1.36820E-01 -1.37485E-01 -1.11211E-01 -9.61165E-02 -6.64517E-02 -3.74327E-02
  -1.36529E-02  2.19547E-02  3.58711E-02  7.18817E-02  7.47625E-02  1.07184E-01  9.64828E-02  1.20608E-01  9.15510E-02  9.99540E-02
   5.33267E-02  3.89505E-02 -1.65877E-02 -4.75118E-02 -1.05563E-01 -1.37269E-01 -1.91794E-01 -2.14127E-01 -2.62719E-01 -2.73113E-01
  -2.99223E-01 -3.12689E-01 -2.85792E-01 -3.05121E-01 -2.32776E-01 -2.43513E-01 -1.48839E-01 -1.48338E-01 -5.31677E-02 -5.38200E-02
   3.37639E-02  1.75121E-02  8.85040E-02  5.33569E-02  8.65182E-02  5.98317E-02  2.30204E-02  4.05795E-02 -4.96113E-02 -3.36938E-03
  -8.07620E-02 -3.31341E-02 -6.44815E-02 -1.38749E-02 -1.67545E-02  4.65708E-02  5.97519E-02  1.27458E-01  1.51374E-01  2.07938E-01
   2.35041E-01  2.47795E-01  2.65178E-01  2.28271E-01  2.22464E-01  1.71079E-01  1.48552E-01  1.18113E-01  9.80176E-02  8.92697E-02
   8.43199E-02  9.32676E-02  9.82141E-02  1.22553E-01  1.36927E-01  1.76459E-01  1.98233E-01  2.45449E-01  2.66064E-01  3.04141E-01
   3.13941E-01  3.31136E-01  3.28540E-01  3.31392E-01  3.21566E-01  3.17741E-01  3.02394E-01  2.90542E-01  2.61375E-01  2.36526E-01
   1.87823E-01  1.50427E-01  7.09963E-02  5.15853E-02 -7.93079E-02 -5.10871E-02 -2.28218E-01 -1.50180E-01 -3.51830E-01 -2.55832E-01
  -4.48564E-01 -3.71866E-01 -5.13326E-01 -4.52719E-01 -5.29887E-01 -4.68801E-01 -4.79734E-01 -4.32691E-01 -3.70681E-01 -3.80195E-01
  -2.53183E-01 -3.25308E-01 -1.69291E-01 -2.48645E-01 -1.01036E-01 -1.32212E-01 -2.29398E-02 -7.52334E-03  4.98929E-02  7.70194E-02
   1.01058E-01  1.19665E-01  1.38238E-01  1.59108E-01  1.79551E-01  1.98960E-01  2.26335E-01  2.36900E-01  2.75528E-01  2.57459E-01
   3.05544E-01  2.35262E-01  2.80632E-01  1.71626E-01  2.11349E-01  8.57990E-02  1.19279E-01 -4.56665E-03  2.31053E-02 -9.36175E-02
  -7.51836E-02 -1.79012E-01 -1.74719E-01 -2.46265E-01 -2.53628E-01 -2.64914E-01 -2.67112E-01 -2.32651E-01 -2.21053E-01 -1.85644E-01
  -1.67276E-01 -1.55006E-01 -1.38207E-01 -1.36234E-01 -1.17800E-01 -1.22421E-01 -1.03407E-01 -1.10962E-01 -9.22425E-02 -1.00066E-01
  -8.33241E-02 -8.87687E-02 -7.56721E-02 -7.72436E-02 -6.74979E-02 -6.54916E-02 -5.80609E-02 -5.43751E-02 -4.86937E-02 -4.45598E-02
  -4.02441E-02 -3.63453E-02 -3.33382E-02 -3.04643E-02 -2.87190E-02 -2.69338E-02 -2.62903E-02 -2.54162E-02 -2.58300E-02 -2.54314E-02
  -2.68040E-02 -2.68117E-02 -2.82596E-02 -2.72044E-02 -2.76363E-02 -2.40653E-02 -2.30530E-02 -1.30777E-02 -9.17005E-03  1.04362E-02
   1.65470E-02  4.20411E-02  4.97546E-02  7.82117E-02  8.64559E-02  1.14997E-01  1.16713E-01  1.42768E-01  1.34627E-01  1.55141E-01
   1.37100E-01  1.48107E-01  1.22893E-01  1.21638E-01  9.21370E-02  8.33568E-02  5.10382E-02  4.08873E-02  6.50958E-03 -3.00487E-03
  -3.20118E-02 -4.14210E-02 -5.78775E-02 -6.59280E-02 -7.17765E-02 -7.86949E-02 -8.38080E-02 -8.76891E-02 -9.54958E-02 -9.00395E-02
  -1.03507E-01 -8.31347E-02 -1.00302E-01 -6.96441E-02 -8.21216E-02 -4.92820E-02 -5.31369E-02 -2.37684E-02 -1.97361E-02  7.58808E-03
   1.33606E-02  4.06772E-02  4.53493E-02  6.81812E-02  7.20739E-02  8.09353E-02  8.29270E-02  7.85353E-02  6.94972E-02  6.17495E-02
   3.48190E-02  2.86876E-02 -1.24059E-02 -2.38828E-02 -6.47902E-02 -8.67757E-02 -1.15081E-01 -1.41027E-01 -1.50271E-01 -1.62476E-01
  -1.53250E-01 -1.43043E-01 -1.17581E-01 -9.02175E-02 -5.43492E-02 -1.72876E-02  2.24173E-02  6.73766E-02  1.04355E-01  1.56484E-01
   1.84866E-01  2.32885E-01  2.48830E-01  2.74012E-01  2.75818E-01  2.73699E-01  2.62348E-01  2.49639E-01  2.30867E-01  2.23062E-01
   2.05007E-01  2.01721E-01  1.88125E-01  1.83863E-01  1.72984E-01  1.66004E-01  1.55337E-01  1.44963E-01  1.32657E-01  1.16809E-01
   1.02844E-01  7.77690E-02  6.34139E-02  2.68915E-02  1.45315E-02 -3.16052E-02 -3.94728E-02 -8.84460E-02 -9.01104E-02 -1.32556E-01
  -1.27191E-01 -1.56752E-01 -1.44777E-01 -1.61762E-01 -1.43395E-01 -1.54450E-01 -1.27086E-01 -1.42442E-01 -9.74451E-02 -1.28340E-01
  -7.01093E-02 -1.25645E-01 -6.52665E-02 -1.49503E-01 -1.13689E-01 -2.22176E-01 -2.30246E-01 -3.43574E-01 -3.62987E-01 -4.54733E-01
  -4.64471E-01 -5.16583E-01 -5.16806E-01 -5.24628E-01 -5.30187E-01 -5.01356E-01 -5.08941E-01 -4.55863E-01 -4.35784E-01 -3.70373E-01
  -2.95780E-01 -2.32720E-01 -1.41635E-01 -9.66919E-02 -4.30161E-02 -2.05195E-02 -7.90376E-03  6.35211E-04  7.27550E-03  9.98563E-03
   1.39739E-02  1.31849E-02  1.72774E-02  1.46548E-02  1.94299E-02  1.59277E-02  2.16455E-02  1.79719E-02  2.46472E-02  2.15804E-02
   2.86462E-02  2.70474E-02  3.33909E-02  3.35180E-02  3.83935E-02  3.95351E-02  4.31242E-02  4.43546E-02  4.72100E-02  4.81568E-02
   5.06019E-02  5.13226E-02  5.34346E-02  5.41504E-02  5.58701E-02  5.67855E-02  5.79811E-02  5.91321E-02  5.97115E-02  6.09705E-02
   6.09278E-02  6.21405E-02  6.14801E-02  6.24593E-02  6.12435E-02  6.17811E-02  6.00845E-02  5.99804E-02  5.78157E-02  5.69845E-02
   5.44018E-02  5.29663E-02  5.00767E-02  4.82547E-02  4.52382E-02  4.31478E-02  4.01856E-02  3.79193E-02  3.51638E-02  3.28512E-02
   3.04445E-02  2.81920E-02  2.62570E-02  2.41096E-02  2.26809E-02  2.07211E-02  1.97596E-02  1.81624E-02  1.76427E-02  1.65619E-02
   1.63884E-02  1.61878E-02  1.71048E-02  1.78304E-02  2.16828E-02  2.28583E-02  3.22464E-02  3.23177E-02  4.98878E-02  4.58147E-02
   7.01473E-02  6.02461E-02  8.68627E-02  7.18733E-02  9.75708E-02  7.95836E-02  1.03076E-01  8.38881E-02  1.04417E-01  8.52444E-02
   1.00375E-01  8.30373E-02  8.94333E-02  7.73171E-02  7.60838E-02  7.13025E-02  6.87463E-02  6.94690E-02  6.97142E-02  7.20514E-02
   7.33964E-02  7.53010E-02  7.54932E-02  7.63864E-02  7.52369E-02  7.49921E-02  7.25544E-02  7.12003E-02  6.78467E-02  6.55275E-02
   6.16784E-02  5.85989E-02  5.45785E-02  5.09884E-02  4.71165E-02  4.33363E-02  3.99075E-02  3.62794E-02  3.34873E-02  3.02754E-02
   2.82332E-02  2.56129E-02  2.43423E-02  2.25075E-02  2.19358E-02  2.10010E-02  2.10188E-02  2.09554E-02  2.14815E-02  2.21208E-02
   2.30758E-02  2.41950E-02  2.54308E-02  2.68066E-02  2.81242E-02  2.95453E-02  3.06730E-02  3.19777E-02  3.26945E-02  3.37292E-02
   3.39200E-02  3.45340E-02  3.42261E-02  3.43885E-02  3.36714E-02  3.33932E-02  3.23375E-02  3.16570E-02  3.02632E-02  2.92299E-02
   2.75980E-02  2.62713E-02  2.46109E-02  2.30418E-02  2.14833E-02  1.97278E-02  1.81936E-02  1.63298E-02  1.46386E-02  1.26500E-02
   1.06602E-02  8.44909E-03  6.04005E-03  3.45995E-03  4.20415E-04 -2.67781E-03 -6.58601E-03 -1.03106E-02 -1.52034E-02 -1.95813E-02
  -2.53532E-02 -3.02634E-02 -3.66367E-02 -4.18192E-02 -4.84222E-02 -5.35223E-02 -5.98595E-02 -6.44808E-02 -7.00004E-02 -7.37590E-02
  -7.79026E-02 -8.05455E-02 -8.30494E-02 -8.44701E-02 -8.53577E-02 -8.55482E-02 -8.49797E-02 -8.39758E-02 -8.22001E-02 -8.01552E-02
  -7.74731E-02 -7.46298E-02 -7.13155E-02 -6.79936E-02 -6.42470E-02 -6.06881E-02 -5.66494E-02 -5.29785E-02 -4.88025E-02 -4.50929E-02
  -4.08806E-02 -3.72966E-02 -3.31704E-02 -2.99297E-02 -2.60518E-02 -2.31858E-02 -1.97534E-02 -1.72164E-02 -1.43613E-02 -1.21226E-02
  -9.85398E-03 -7.95069E-03 -6.17552E-03 -4.63095E-03 -3.25288E-03 -1.98229E-03 -9.62825E-04  1.49966E-04  8.96070E-04  1.83420E-03
   2.45329E-03  3.14632E-03  3.72048E-03  4.19123E-03  4.66018E-03  5.05207E-03  5.37388E-03  5.71614E-03  5.93535E-03  6.14603E-03
   6.30924E-03  6.34758E-03  6.43596E-03  6.32449E-03  6.30597E-03  6.11715E-03  5.99926E-03  5.81740E-03  5.60805E-03  5.46455E-03
   5.17377E-03  5.09116E-03  4.69535E-03  4.66484E-03  4.18086E-03  4.19722E-03  3.71634E-03  3.74158E-03  3.40253E-03  3.49488E-03
   3.31925E-03  3.46488E-03  3.45905E-03  3.52338E-03  3.75221E-03  3.59645E-03  4.13039E-03  3.74918E-03  4.52080E-03  3.97221E-03
   4.84730E-03  4.24384E-03  5.12591E-03  4.52983E-03  5.39889E-03  4.85617E-03  5.70060E-03  5.29312E-03  6.03593E-03  5.86100E-03
   6.41898E-03  6.51333E-03  6.88339E-03  7.16536E-03  7.41181E-03  7.71485E-03  7.86732E-03  8.12828E-03  8.21330E-03  8.44106E-03
   8.45180E-03  8.61597E-03  8.60604E-03  8.71986E-03  8.79241E-03  8.91438E-03  9.07652E-03  9.32023E-03  9.47739E-03  9.90905E-03
   1.00696E-02  1.07269E-02  1.09946E-02  1.19050E-02  1.22792E-02  1.34506E-02  1.38915E-02  1.53383E-02  1.58122E-02  1.75692E-02
   1.81104E-02  2.01461E-02  2.08747E-02  2.31117E-02
 NY background values follow
     5.666E-02    5.648E-02    5.629E-02    5.610E-02    5.592E-02    5.573E-02    5.554E-02    5.536E-02    5.517E-02    5.498E-02
     5.480E-02    5.461E-02    5.442E-02    5.424E-02    5.405E-02    5.386E-02    5.367E-02    5.349E-02    5.330E-02    5.311E-02
     5.293E-02    5.274E-02    5.255E-02    5.237E-02    5.218E-02    5.199E-02    5.180E-02    5.162E-02    5.143E-02    5.124E-02
     5.105E-02    5.087E-02    5.068E-02    5.049E-02    5.031E-02    5.012E-02    4.993E-02    4.974E-02    4.956E-02    4.937E-02
     4.918E-02    4.899E-02    4.880E-02    4.862E-02    4.843E-02    4.824E-02    4.805E-02    4.787E-02    4.768E-02    4.749E-02
     4.730E-02    4.711E-02    4.693E-02    4.674E-02    4.655E-02    4.636E-02    4.617E-02    4.599E-02    4.580E-02    4.561E-02
     4.542E-02    4.523E-02    4.505E-02    4.486E-02    4.467E-02    4.448E-02    4.429E-02    4.410E-02    4.392E-02    4.373E-02
