 
 $NMID
 ID=''
 FMTDAT='(2E13.5)'
 TRAMP=   1.00000E+0
 VOLUME=   1.00000E+0
 $END
   5.84551E+2  -2.04782E+2
   1.01881E+3   1.74994E+3
   1.33450E+3  -4.92849E+3
  -1.55321E+3  -1.45946E+3
  -7.43665E+2  -1.70529E+2
  -1.94460E+1  -1.72643E+3
  -3.32906E+2   1.40444E+3
  -1.66519E+3   7.57755E+2
  -5.35921E+2  -1.58545E+3
  -3.36861E+3  -9.62826E+2
  -1.65084E+2  -2.96698E+3
   2.52846E+3  -1.74568E+3
   2.33095E+3   2.42677E+3
  -1.89534E+3   3.91883E+3
  -2.82129E+3   2.51639E+3
   4.19669E+2  -2.11565E+3
   2.07648E+3  -1.90075E+3
   2.55865E+2   2.49083E+2
   3.47810E+2   1.44649E+3
   5.78103E+2   9.32625E+2
   8.84768E+2  -1.99039E+3
   4.70867E+3   2.50120E+3
  -5.87281E+2   4.35870E+3
  -1.62800E+3   6.45435E+2
   1.57501E+3  -1.83115E+3
   4.47808E+3   2.97524E+2
   1.35778E+3   1.42247E+3
  -2.73095E+3  -4.01962E+2
  -3.22548E+3  -2.12287E+3
   1.57147E+3  -5.54425E+3
   8.05028E+3   9.22022E+2
   2.40860E+3   7.61549E+3
  -4.49876E+3   1.22434E+3
  -3.20064E+2  -1.82811E+3
  -3.05275E+2  -4.36424E+2
  -6.56409E+3  -1.48771E+3
  -2.06703E+3  -6.27442E+3
   5.25284E+3  -3.14991E+3
   1.62487E+3   1.27500E+3
   2.42348E+1  -3.06346E+2
  -1.01421E+2   2.29202E+3
  -5.15582E+3   5.32155E+3
  -4.10810E+3  -1.72083E+3
  -1.75276E+3  -3.06093E+3
   4.22436E+3  -2.54847E+3
   1.87825E+3   8.66944E+2
   3.77215E+3  -1.16149E+3
   5.70894E+3   1.75367E+3
   4.61924E+3   2.58343E+3
   1.03081E+2   1.50827E+3
   1.20691E+3  -2.69247E+3
   3.46675E+2  -1.46984E+3
   5.54893E+2  -2.38904E+3
   2.96659E+3  -2.75569E+3
   6.43825E+2   1.33207E+3
   4.35059E+3   4.46718E+3
  -7.48890E+2   6.08904E+3
  -3.69088E+3   3.70673E+3
  -4.11762E+3   4.63096E+2
  -2.30180E+3  -3.77209E+3
   3.24347E+3  -2.83372E+3
   4.03012E+3  -2.17001E+3
   5.57667E+2   1.43292E+3
  -1.04665E+3  -9.08902E+0
   1.36669E+3  -1.02390E+3
   1.53919E+3   7.62483E+2
   2.44749E+2   4.07151E+3
  -3.75071E+3   3.55730E+3
  -2.49700E+3   1.66941E+3
  -1.85139E+3   1.00215E+3
  -1.75660E+3   4.17922E+2
  -2.02650E+3   1.82673E+3
  -3.72464E+3  -4.99012E+2
  -1.92125E+3  -3.86310E+2
  -2.70740E+2  -2.94467E+3
   1.71232E+3  -8.95199E+2
  -1.98685E+3  -7.06160E+2
  -2.52938E+3  -2.90166E+3
   1.37064E+3  -2.55778E+3
   1.63556E+3   6.19657E+2
  -8.54295E+2   9.74480E+2
  -2.42521E+3  -1.14824E+3
  -5.61914E+1  -6.57455E+2
  -3.06543E+2   2.08783E+3
  -3.72078E+3   1.98134E+3
  -2.75370E+3   3.06973E+3
  -2.78239E+3  -1.42656E+3
  -3.33055E+2  -3.09724E+3
   7.29080E+2  -1.94759E+3
   3.35284E+2   2.94282E+2
  -1.20765E+3  -2.04475E+3
   2.45941E+2  -2.58004E+3
   1.81789E+3  -1.15622E+3
  -1.42695E+3   2.18473E+3
  -1.65154E+3   1.60777E+2
  -2.14923E+3  -3.55547E+2
   2.40562E+2   1.79377E+3
   2.17377E+3  -1.48917E+2
   1.97951E+2   3.10468E+3
  -1.94399E+3   1.58034E+3
  -2.44517E+3  -3.14366E+3
   2.04089E+3  -2.60157E+3
   2.29472E+3  -1.57510E+3
   8.07329E+2  -1.58476E+2
  -1.35062E+2  -1.20218E+3
  -9.07388E+2  -2.24435E+3
  -8.29541E+2   8.21915E+2
   2.89799E+1   4.19316E+2
  -1.75287E+3  -1.01359E+2
  -9.47244E+2  -1.98226E+3
  -8.11018E+2  -1.27326E+3
  -8.96384E+2   7.56658E+2
   1.82581E+3  -3.25192E+2
   3.16403E+3   2.62163E+2
   1.40098E+3   1.79251E+3
  -3.17308E+2  -3.24995E+2
  -7.48677E+2  -1.31790E+3
   6.32225E+2  -5.65173E+2
   2.87110E+2   1.50971E+3
   8.11061E+2   8.35995E+2
   6.24278E+2   1.26348E+3
   1.36938E+3   1.70512E+3
  -1.26316E+3  -6.09339E+0
   1.98768E+2  -1.08400E+2
   2.08515E+3   1.96172E+3
  -2.26565E+2   2.80108E+3
   1.25526E+2   1.76015E+3
  -5.04169E+2  -5.51662E+2
   2.87549E+2  -1.74890E+3
  -1.35595E+3   4.34346E+1
   7.77586E+2   5.33966E+2
  -8.57632E+2  -6.81202E+2
   1.67575E+3   1.58963E+3
   2.76299E+3   5.11758E+2
   1.99225E+3   8.36913E+1
   4.72822E+2   1.49656E+3
   1.84666E+3  -1.29996E+3
  -1.84841E+3   9.55143E+2
   1.67202E+2  -2.50325E+2
  -1.22522E+0   1.19481E+3
  -8.38008E+2  -7.47090E+2
   2.34365E+3   1.34597E+2
  -8.65214E+0  -2.60768E+2
   1.64938E+3   3.84741E+2
   2.84694E+2   2.44034E+3
   4.84070E+2  -1.15120E+3
  -4.64112E+2   1.10730E+3
   5.98780E+2   1.15739E+3
  -2.03181E+2  -1.02541E+3
  -2.02962E+3  -5.93413E+2
   4.88922E+0   1.21433E+3
   5.65248E+2  -1.13198E+3
   1.34544E+2  -1.91347E+3
  -2.31850E+2  -2.08311E+3
   1.94293E+3  -1.36110E+3
  -5.22248E+1   2.88697E+1
   9.63024E+2   1.02511E+3
  -8.53120E+2  -1.34043E+3
   8.73664E+2   6.46319E+2
   1.03275E+3   1.05554E+2
  -2.09035E+3  -7.65970E+2
   2.35443E+3  -1.02345E+3
   7.39473E+2   1.18328E+3
  -4.94252E+2  -3.37022E+3
  -1.34739E+2   1.42363E+3
  -6.14951E+2   1.07609E+3
  -1.76742E+3  -1.47855E+2
  -4.13465E+2  -1.02104E+3
   1.72405E+3  -1.61026E+3
  -2.03625E+1   3.11789E+2
   1.10753E+3  -9.48441E+2
   2.82249E+2   1.91276E+3
  -1.47668E+3   1.08212E+3
   1.04533E+2  -2.08620E+3
  -7.91491E+2   7.55969E+2
  -3.57484E+2   2.13916E+2
   6.91026E+2  -8.00902E+2
   9.43515E+2  -1.47580E+3
   2.19753E+3  -7.89977E+2
   2.39195E+2   1.04887E+2
  -2.41561E+2   9.35848E+2
   7.38995E+2  -8.43267E+2
   2.38846E+2  -1.36276E+3
  -8.11369E+1  -1.90669E+2
  -9.32619E+2   8.35410E+2
   1.98429E+3  -2.14382E+3
  -1.73999E+2  -5.39891E+2
  -1.32038E+3   1.29817E+3
   3.47737E+2   4.39794E+2
  -2.24099E+3  -1.02720E+3
  -8.50586E+2  -4.15200E+2
   6.40338E+2  -4.24505E+2
  -3.04647E+2   1.26600E+3
  -1.77489E+3  -1.08816E+3
  -5.34010E+2  -1.44333E+3
   4.56521E+1  -1.15282E+3
  -2.50438E+2   8.04187E+0
  -6.60158E+2  -1.04319E+3
  -8.78705E+2  -2.52944E+3
   5.09763E+2  -2.90134E+3
  -9.73737E+2   1.71271E+2
  -2.05403E+1   7.65239E+2
  -2.17655E+3  -3.04784E+2
  -4.10509E+2   1.53148E+3
   1.71908E+3   4.79030E+2
  -6.91209E+2   1.18367E+3
   1.88649E+2  -1.66326E+2
   2.19962E+2  -2.39197E+2
  -6.86842E+2  -5.62755E+2
  -8.53025E+2   6.26333E+2
  -1.48017E+2   2.05537E+3
  -1.28917E+3   1.26913E+3
  -1.99106E+3  -3.26384E+3
  -4.70254E+2  -2.00728E+3
   7.81700E+2  -1.24769E+3
   1.34999E+3   6.14846E+2
   9.57436E+2  -7.16813E+2
  -1.38372E+3   1.54157E+3
   8.17406E+2   5.25975E+2
   1.19292E+3  -2.05592E+3
   1.07328E+2   8.03542E+2
  -1.07013E+3   7.69890E+2
   4.58061E+2  -1.00874E+3
  -2.66073E+2   1.76454E+3
  -2.11934E+3   9.10327E+2
  -1.73516E+2   8.26796E+2
   1.28283E+3   6.41007E+2
  -6.68322E+2   5.47891E+2
   2.35029E+3   1.07035E+3
   2.22124E+3   1.84445E+3
  -6.29117E+2   4.96278E+2
  -2.75465E+3   2.41351E+3
   8.44775E+2   9.07329E+2
   9.62668E+2  -9.43177E+2
  -2.31444E+2  -1.09031E+3
  -7.25441E+2   9.98225E+2
   1.70980E+3  -1.11304E+3
   1.15718E+3   1.87932E+3
   4.31692E+2   8.51447E+2
  -1.47573E+3   4.20512E+2
  -1.62146E+3   7.30881E+2
   1.23693E+2   4.85795E+2
  -1.36994E+3   1.12441E+3
   1.21719E+3   3.44179E+2
  -1.07156E+3  -1.39210E+3
   1.05073E+3  -1.74457E+2
   1.60561E+3  -6.77907E+2
  -2.18321E+1  -2.84354E+2
   5.37681E+2   1.50372E+3
   1.05378E+2  -1.40264E+3
  -2.64767E+1   9.84463E+2
  -8.97615E+1  -8.40094E+2
  -2.30486E+2   1.68670E+3
   1.86759E+3  -5.95343E+2
   5.64434E+2   3.34484E+2
  -6.77083E+2   9.50161E+1
  -6.77140E+2  -8.72052E+2
   6.36409E+2  -5.60391E+2
  -6.37009E+2  -1.62501E+1
   4.05318E+2  -2.21302E+3
   2.93190E+2  -1.47305E+3
  -8.51159E+2   6.36995E+2
  -5.62515E+2   5.04767E+2
  -1.87161E+3  -2.01346E+2
   5.71289E+2  -1.85777E+3
   7.03437E+2   4.79204E+2
  -1.45808E+3  -5.23894E+2
  -1.04211E+3   1.01753E+3
  -2.17341E+2   7.02301E+2
  -1.55283E+3   2.78320E+2
  -6.81907E+2   1.21261E+3
  -6.47303E+1  -1.03329E+3
   1.37015E+3  -7.78802E+2
   9.26206E+2  -1.64994E+2
   7.84331E+2  -6.06045E+2
  -4.33479E+2   2.92869E+2
  -6.16191E+2   7.55939E+2
  -1.20280E+3   2.98421E+2
  -7.49455E+2   9.06861E+1
   4.52070E+2  -1.11982E+3
   1.02173E+2  -6.43950E+2
  -1.94732E+3  -1.05141E+3
   2.20173E+1   2.17166E+3
   1.30546E+2   1.11948E+3
  -8.80418E+2  -4.49660E+2
  -1.14971E+3   6.34351E+2
  -6.50077E+2  -5.63065E+2
   5.66511E+2   1.47554E+3
  -1.24389E+3  -2.68662E+2
  -1.27189E+3   2.04610E+3
  -4.46593E+2  -5.67748E+2
   2.23169E+3   9.24386E+2
  -4.95130E+2  -9.12123E+2
  -7.26005E+2   1.42164E+3
   8.10268E+2  -9.87696E+2
   9.03408E+2   1.01736E+3
   5.76478E+2   9.72288E+2
  -5.25253E+0  -1.22446E+3
   6.02196E+2  -9.82656E+2
   2.60495E+2  -5.01697E+2
  -1.00858E+3  -2.23810E+3
   3.24605E+2   5.30025E+2
   1.79369E+2   3.50900E+3
   1.08375E+3  -4.58743E+2
   1.16672E+3  -7.92397E+2
  -4.76731E+2  -3.88352E+1
  -3.39534E+2  -3.47308E+1
  -3.23483E+2  -5.70191E+2
   1.07020E+3  -1.38867E+3
   8.46736E+2   2.57664E+2
  -2.58993E+3  -8.45085E+2
  -4.06651E+2  -1.23132E+3
  -2.14111E+3  -3.54868E+2
  -9.50402E+2  -3.80974E+2
  -2.55528E+2   1.93756E+2
  -5.15869E+2  -3.82491E+2
  -8.39294E+2   5.43306E+2
   6.35680E+2  -1.60991E+3
   8.77403E+2  -4.41869E+2
   2.84129E+3   6.76829E+2
  -5.75635E+2  -4.76230E+1
   1.27910E+3  -1.05959E+2
   3.85034E+2  -1.39052E+3
  -5.83036E+2   3.52324E+2
   5.54559E+2   1.74144E+2
  -5.53706E+2  -1.06707E+3
   9.82877E+1  -1.93791E+2
   1.06651E+3   3.58054E+2
   1.96115E+3  -7.81056E+2
  -1.21688E+2  -2.98567E+3
   2.96933E+1  -1.93495E+3
   1.32768E+2  -2.32706E+3
   1.44937E+3   4.02685E+2
  -4.23088E+2   1.63119E+3
  -1.95550E+3  -5.26544E+2
   1.45045E+3   2.91993E+2
  -6.31963E+1  -5.57256E+2
  -1.36162E+3   5.63238E+2
  -2.78760E+2   6.33573E+2
  -2.13877E+2   1.05691E+2
  -6.70451E+2  -6.32009E+1
  -5.54647E+2  -9.52567E+2
  -2.04916E+3  -1.22939E+3
  -1.59727E+3   3.84073E+2
   8.87235E+2   6.48732E+2
   2.02662E+3   3.90481E+2
  -2.49438E+0   3.56091E+2
   3.45749E+2   1.34539E+3
  -9.21739E+1  -3.56564E+3
  -1.54177E+2  -1.08120E+2
   1.10082E+3  -1.30851E+2
  -8.58900E+2  -1.02966E+3
  -3.40240E+2  -7.88178E+2
  -1.09954E+3   9.30302E+2
  -1.21566E+3  -2.36723E+2
   9.67958E+2   8.76074E+2
  -1.27201E+3  -8.27245E+2
   3.56683E+2  -6.40657E+1
   9.30842E+2  -1.48891E+3
  -1.14132E+3  -7.05250E+2
   4.03082E+2  -4.27132E+1
   3.51167E+2  -1.08398E+3
  -1.18759E+3  -7.66391E+2
   7.40932E+2  -5.83632E+2
  -9.06688E+2  -7.58688E+1
   1.00148E+1  -5.18226E+1
  -5.31658E+2  -7.71637E+2
