 
 $NMID
 ID=''
 FMTDAT='(2E13.5)'
 TRAMP=   1.00000E+0
 VOLUME=   1.00000E+0
 $END
  -1.10082E+3   1.73848E+4
  -1.56473E+4   4.21906E+4
  -8.42526E+3   4.41389E+4
  -8.06678E+3   4.06615E+4
  -9.82310E+3   4.19245E+4
  -8.29778E+3   4.22803E+4
  -8.85039E+3   4.03652E+4
  -1.02309E+4   4.06474E+4
  -9.51500E+3   4.06353E+4
  -9.97539E+3   3.93487E+4
  -1.11287E+4   3.94035E+4
  -1.07351E+4   3.92355E+4
  -1.10808E+4   3.83848E+4
  -1.21590E+4   3.82878E+4
  -1.20192E+4   3.81414E+4
  -1.22186E+4   3.72084E+4
  -1.29711E+4   3.71021E+4
  -1.27233E+4   3.67711E+4
  -1.29680E+4   3.59904E+4
  -1.34429E+4   3.57724E+4
  -1.33048E+4   3.53173E+4
  -1.32943E+4   3.48082E+4
  -1.36255E+4   3.45769E+4
  -1.36579E+4   3.43521E+4
  -1.35908E+4   3.37565E+4
  -1.38410E+4   3.37261E+4
  -1.38974E+4   3.34559E+4
  -1.40887E+4   3.30852E+4
  -1.44938E+4   3.28615E+4
  -1.45698E+4   3.26392E+4
  -1.46817E+4   3.22673E+4
  -1.49001E+4   3.21651E+4
  -1.52624E+4   3.19604E+4
  -1.54699E+4   3.14387E+4
  -1.57646E+4   3.11660E+4
  -1.59184E+4   3.08746E+4
  -1.60938E+4   3.04634E+4
  -1.62284E+4   3.01485E+4
  -1.62470E+4   2.99276E+4
  -1.63811E+4   2.95474E+4
  -1.65100E+4   2.92433E+4
  -1.66897E+4   2.89411E+4
  -1.68202E+4   2.84946E+4
  -1.68940E+4   2.80992E+4
  -1.68316E+4   2.79119E+4
  -1.68914E+4   2.76250E+4
  -1.70339E+4   2.72459E+4
  -1.70113E+4   2.70365E+4
  -1.70990E+4   2.67813E+4
  -1.71355E+4   2.65076E+4
  -1.72056E+4   2.61756E+4
  -1.72455E+4   2.59005E+4
  -1.72477E+4   2.57723E+4
  -1.72738E+4   2.55017E+4
  -1.73496E+4   2.53335E+4
  -1.74642E+4   2.51325E+4
  -1.75879E+4   2.48551E+4
  -1.76846E+4   2.46378E+4
  -1.77252E+4   2.45334E+4
  -1.77688E+4   2.41717E+4
  -1.78496E+4   2.40030E+4
  -1.79589E+4   2.37993E+4
  -1.81598E+4   2.36077E+4
  -1.82581E+4   2.32835E+4
  -1.83553E+4   2.30535E+4
  -1.84909E+4   2.28079E+4
  -1.86825E+4   2.25942E+4
  -1.87993E+4   2.23388E+4
  -1.89718E+4   2.20391E+4
  -1.90914E+4   2.16677E+4
  -1.92203E+4   2.14382E+4
  -1.93876E+4   2.10311E+4
  -1.94879E+4   2.07817E+4
  -1.95974E+4   2.04486E+4
  -1.96604E+4   2.01310E+4
  -1.97473E+4   1.98777E+4
  -1.98298E+4   1.94098E+4
  -1.99992E+4   1.90797E+4
  -1.99240E+4   1.87291E+4
  -2.00356E+4   1.83409E+4
  -2.00546E+4   1.80220E+4
  -2.01058E+4   1.75898E+4
  -2.02279E+4   1.72066E+4
  -2.03256E+4   1.68053E+4
  -2.03132E+4   1.63890E+4
  -2.02709E+4   1.59917E+4
  -2.02864E+4   1.55188E+4
  -2.02059E+4   1.51435E+4
  -2.01299E+4   1.48196E+4
  -2.00938E+4   1.43753E+4
  -2.00722E+4   1.40566E+4
  -1.99719E+4   1.36135E+4
  -1.97987E+4   1.32677E+4
  -1.97443E+4   1.28888E+4
  -1.95877E+4   1.24443E+4
  -1.94674E+4   1.21873E+4
  -1.92834E+4   1.17448E+4
  -1.91919E+4   1.14547E+4
  -1.90491E+4   1.11295E+4
  -1.88909E+4   1.07531E+4
  -1.87958E+4   1.03337E+4
  -1.85443E+4   1.01318E+4
  -1.84516E+4   9.86048E+3
  -1.82661E+4   9.46980E+3
  -1.80618E+4   9.22867E+3
  -1.79473E+4   8.97573E+3
  -1.77502E+4   8.64135E+3
  -1.75331E+4   8.38301E+3
  -1.74248E+4   8.12225E+3
  -1.72430E+4   7.83316E+3
  -1.69898E+4   7.64445E+3
  -1.68178E+4   7.36532E+3
  -1.67012E+4   7.14674E+3
  -1.64976E+4   6.91975E+3
  -1.63485E+4   6.65213E+3
  -1.62557E+4   6.46945E+3
  -1.59933E+4   6.24034E+3
  -1.57491E+4   6.02605E+3
  -1.56819E+4   5.80637E+3
  -1.55095E+4   5.58802E+3
  -1.53155E+4   5.37330E+3
  -1.51618E+4   5.13638E+3
  -1.50036E+4   4.89669E+3
  -1.48269E+4   4.69653E+3
  -1.45867E+4   4.51579E+3
  -1.44056E+4   4.29614E+3
  -1.42422E+4   4.15834E+3
  -1.39923E+4   3.85101E+3
  -1.38981E+4   3.68354E+3
  -1.36489E+4   3.48721E+3
  -1.34056E+4   3.28141E+3
  -1.32611E+4   3.10019E+3
  -1.30828E+4   2.90599E+3
  -1.28984E+4   2.75589E+3
  -1.26674E+4   2.53543E+3
  -1.23913E+4   2.44822E+3
  -1.22044E+4   2.21385E+3
  -1.19790E+4   2.14417E+3
  -1.17050E+4   1.97381E+3
  -1.14799E+4   1.83453E+3
  -1.12650E+4   1.67195E+3
  -1.10866E+4   1.53948E+3
  -1.08311E+4   1.47507E+3
  -1.06774E+4   1.28389E+3
  -1.03944E+4   1.21010E+3
  -1.02212E+4   1.07422E+3
  -9.99639E+3   9.91889E+2
  -9.81033E+3   8.58215E+2
  -9.60495E+3   8.11617E+2
  -9.38442E+3   6.70059E+2
  -9.15148E+3   6.77921E+2
  -8.94580E+3   5.15543E+2
  -8.73393E+3   5.11343E+2
  -8.53803E+3   4.17674E+2
  -8.28447E+3   3.43629E+2
  -8.07813E+3   3.20959E+2
  -7.96976E+3   1.77314E+2
  -7.76452E+3   1.77286E+2
  -7.58514E+3   7.91101E+1
  -7.39684E+3  -1.80898E+1
  -7.24241E+3  -4.89664E+1
  -7.01155E+3  -8.58794E+1
  -6.94648E+3  -1.98539E+2
  -6.70001E+3  -2.26853E+2
  -6.43745E+3  -2.71800E+2
  -6.33344E+3  -3.50558E+2
  -6.12397E+3  -3.81495E+2
  -6.01778E+3  -3.91834E+2
  -5.79887E+3  -4.76248E+2
  -5.63173E+3  -4.75610E+2
  -5.43484E+3  -5.95586E+2
  -5.27420E+3  -7.16620E+2
  -5.10483E+3  -6.37527E+2
  -4.98407E+3  -6.45544E+2
  -4.76595E+3  -7.75874E+2
  -4.63690E+3  -8.11469E+2
  -4.47557E+3  -7.55675E+2
  -4.29748E+3  -7.90222E+2
  -4.13660E+3  -8.71378E+2
  -3.98981E+3  -8.94329E+2
  -3.80603E+3  -9.18281E+2
  -3.64032E+3  -9.57388E+2
  -3.51884E+3  -9.43187E+2
  -3.31645E+3  -9.74910E+2
  -3.19968E+3  -9.49713E+2
  -2.98142E+3  -1.06171E+3
  -2.86235E+3  -1.09913E+3
  -2.70181E+3  -1.01141E+3
  -2.61499E+3  -1.14021E+3
  -2.43755E+3  -1.07754E+3
  -2.27681E+3  -1.07682E+3
  -2.13016E+3  -1.11533E+3
  -2.03460E+3  -1.08969E+3
  -1.88592E+3  -1.07160E+3
  -1.73352E+3  -1.09942E+3
  -1.69014E+3  -1.03005E+3
  -1.49068E+3  -1.03811E+3
  -1.39194E+3  -1.08092E+3
  -1.23678E+3  -1.00168E+3
  -1.17740E+3  -1.00797E+3
  -1.06430E+3  -1.02389E+3
  -9.36928E+2  -1.05861E+3
  -7.99590E+2  -9.87643E+2
  -6.72142E+2  -1.02543E+3
  -6.13735E+2  -9.76655E+2
  -5.15854E+2  -9.82482E+2
  -4.40924E+2  -9.66615E+2
  -3.17070E+2  -9.76147E+2
  -2.73868E+2  -9.57110E+2
  -1.89839E+2  -8.78835E+2
  -9.77635E+1  -9.60784E+2
   2.75811E+1  -9.70123E+2
   1.00750E+2  -9.26970E+2
   1.65867E+2  -9.35634E+2
   2.07995E+2  -9.14877E+2
   2.50414E+2  -9.29336E+2
   3.15930E+2  -8.97557E+2
   4.29315E+2  -9.33052E+2
   4.93828E+2  -9.55843E+2
   5.28103E+2  -9.15217E+2
   6.35232E+2  -8.75703E+2
   6.62462E+2  -8.79711E+2
   7.28379E+2  -8.64414E+2
   8.05007E+2  -9.20348E+2
   8.48662E+2  -8.74260E+2
   8.92687E+2  -8.44876E+2
   9.23243E+2  -8.21597E+2
   9.59495E+2  -9.11031E+2
   9.70125E+2  -8.57460E+2
   1.03602E+3  -8.30689E+2
   1.10910E+3  -9.29450E+2
   1.09013E+3  -8.65528E+2
   1.16951E+3  -8.92399E+2
   1.20644E+3  -8.50890E+2
   1.30478E+3  -8.09581E+2
   1.37312E+3  -9.25922E+2
   1.32423E+3  -8.48185E+2
   1.44018E+3  -9.00917E+2
   1.38283E+3  -8.21574E+2
   1.42851E+3  -8.08909E+2
   1.47822E+3  -8.28096E+2
   1.45738E+3  -8.29160E+2
   1.53249E+3  -7.66224E+2
   1.57283E+3  -8.18622E+2
   1.50740E+3  -7.98891E+2
   1.56574E+3  -7.62067E+2
   1.56718E+3  -8.90527E+2
   1.58250E+3  -8.18651E+2
   1.56412E+3  -8.26487E+2
   1.55192E+3  -8.92589E+2
   1.59348E+3  -8.16214E+2
   1.60843E+3  -8.92368E+2
   1.55328E+3  -7.95334E+2
   1.63179E+3  -8.23012E+2
   1.61989E+3  -8.17134E+2
   1.66250E+3  -8.18450E+2
   1.65798E+3  -8.27384E+2
   1.59791E+3  -8.85127E+2
   1.57170E+3  -8.35416E+2
   1.65712E+3  -8.90799E+2
   1.59101E+3  -8.62456E+2
   1.61795E+3  -8.45277E+2
   1.57811E+3  -8.81886E+2
   1.55571E+3  -9.16111E+2
   1.60869E+3  -8.89904E+2
   1.59758E+3  -9.48048E+2
   1.61688E+3  -9.73570E+2
   1.57240E+3  -1.00290E+3
   1.58501E+3  -1.03073E+3
   1.55948E+3  -9.60611E+2
   1.50733E+3  -1.05995E+3
   1.55864E+3  -1.02067E+3
   1.57289E+3  -1.04324E+3
   1.55814E+3  -1.03406E+3
   1.62507E+3  -1.10939E+3
   1.50789E+3  -1.07617E+3
   1.53159E+3  -1.13301E+3
   1.50927E+3  -1.10395E+3
   1.50462E+3  -1.08296E+3
   1.52013E+3  -1.15745E+3
   1.43773E+3  -1.17943E+3
   1.42452E+3  -1.13199E+3
   1.47203E+3  -1.20244E+3
   1.47292E+3  -1.22262E+3
   1.43225E+3  -1.17212E+3
   1.43543E+3  -1.20550E+3
   1.42824E+3  -1.24511E+3
   1.34624E+3  -1.25818E+3
   1.28925E+3  -1.17655E+3
   1.35373E+3  -1.29472E+3
   1.25174E+3  -1.33969E+3
   1.33081E+3  -1.27085E+3
   1.33050E+3  -1.32201E+3
   1.25908E+3  -1.33914E+3
   1.23717E+3  -1.31960E+3
   1.23316E+3  -1.35868E+3
   1.18632E+3  -1.37932E+3
   1.23200E+3  -1.31751E+3
   1.17676E+3  -1.39223E+3
   1.16057E+3  -1.45494E+3
   1.12950E+3  -1.44569E+3
   1.11522E+3  -1.48340E+3
   1.15216E+3  -1.49072E+3
   1.06940E+3  -1.44240E+3
   9.94635E+2  -1.46306E+3
   9.56608E+2  -1.49959E+3
   9.87556E+2  -1.55136E+3
   9.47753E+2  -1.58517E+3
   9.60410E+2  -1.55355E+3
   1.01116E+3  -1.61997E+3
   9.58057E+2  -1.60289E+3
   8.70983E+2  -1.60988E+3
   8.20125E+2  -1.69927E+3
   8.20043E+2  -1.67250E+3
   8.17654E+2  -1.63243E+3
   7.63800E+2  -1.70854E+3
   7.90779E+2  -1.67377E+3
   7.38762E+2  -1.67097E+3
   7.95844E+2  -1.71509E+3
   7.58757E+2  -1.77102E+3
   6.72217E+2  -1.82550E+3
   7.04171E+2  -1.69482E+3
   6.82217E+2  -1.79451E+3
   6.72894E+2  -1.80158E+3
   6.49459E+2  -1.79153E+3
   6.22803E+2  -1.82646E+3
   5.36009E+2  -1.82660E+3
   5.78943E+2  -1.78864E+3
   5.77180E+2  -1.84902E+3
   5.26393E+2  -1.83911E+3
   5.65570E+2  -1.74502E+3
   5.23440E+2  -1.86797E+3
   4.74649E+2  -1.86001E+3
   5.07603E+2  -1.84081E+3
   4.53738E+2  -1.89712E+3
   4.50810E+2  -1.87203E+3
   4.84188E+2  -1.84771E+3
   5.03434E+2  -1.89306E+3
   4.37547E+2  -1.92068E+3
   4.19340E+2  -1.92986E+3
   4.06005E+2  -1.92085E+3
   3.70730E+2  -1.87009E+3
   3.88649E+2  -1.98435E+3
   3.39369E+2  -1.92353E+3
   3.68631E+2  -1.95600E+3
   3.11034E+2  -1.85007E+3
   2.99512E+2  -1.88570E+3
   3.10177E+2  -1.91047E+3
   2.93711E+2  -1.91044E+3
   2.78514E+2  -1.85571E+3
   3.35138E+2  -1.98095E+3
   2.34919E+2  -1.92994E+3
   2.44257E+2  -1.94566E+3
   2.24492E+2  -1.93021E+3
   2.67457E+2  -1.93285E+3
   1.93624E+2  -1.92284E+3
   2.17207E+2  -1.89720E+3
   2.34369E+2  -1.89082E+3
   1.47100E+2  -1.92740E+3
   2.10496E+2  -1.93380E+3
   1.95701E+2  -1.89537E+3
   1.92064E+2  -1.83126E+3
   1.62046E+2  -1.90003E+3
   1.88501E+2  -1.94356E+3
   1.59724E+2  -1.86647E+3
   1.46176E+2  -1.88019E+3
   1.60117E+2  -1.89222E+3
