 
 $NMID
 ID=''
 FMTDAT='(2E13.5)'
 TRAMP=   1.00000E+0
 VOLUME=   1.00000E+0
 $END
  -1.02599E+4   1.56033E+4
  -3.64804E+4   3.13143E+4
  -2.97696E+4   3.76101E+4
  -2.67178E+4   3.50497E+4
  -2.82882E+4   3.57523E+4
  -2.61869E+4   3.73643E+4
  -2.47923E+4   3.60572E+4
  -2.53924E+4   3.61615E+4
  -2.39228E+4   3.71569E+4
  -2.27628E+4   3.63493E+4
  -2.28000E+4   3.64458E+4
  -2.14865E+4   3.70821E+4
  -2.03152E+4   3.67249E+4
  -2.03671E+4   3.67667E+4
  -1.92635E+4   3.72055E+4
  -1.81259E+4   3.68327E+4
  -1.78536E+4   3.68979E+4
  -1.68333E+4   3.71267E+4
  -1.58402E+4   3.68440E+4
  -1.56153E+4   3.67865E+4
  -1.46048E+4   3.69668E+4
  -1.35278E+4   3.67574E+4
  -1.31585E+4   3.68457E+4
  -1.25363E+4   3.68875E+4
  -1.15958E+4   3.65676E+4
  -1.10963E+4   3.65542E+4
  -1.04391E+4   3.65499E+4
  -9.76703E+3   3.62506E+4
  -9.38749E+3   3.60283E+4
  -8.65056E+3   3.58842E+4
  -7.80931E+3   3.56450E+4
  -7.20838E+3   3.56429E+4
  -6.71005E+3   3.54640E+4
  -6.03635E+3   3.51761E+4
  -5.49654E+3   3.50635E+4
  -4.74329E+3   3.48873E+4
  -4.00204E+3   3.46521E+4
  -3.48973E+3   3.44981E+4
  -2.70934E+3   3.44128E+4
  -2.01238E+3   3.41706E+4
  -1.56699E+3   3.40665E+4
  -1.06735E+3   3.39289E+4
  -5.67242E+2   3.36148E+4
   4.30896E+0   3.33681E+4
   5.81071E+2   3.32224E+4
   1.14201E+3   3.29095E+4
   1.60604E+3   3.27386E+4
   2.14905E+3   3.24540E+4
   2.67985E+3   3.21392E+4
   3.13554E+3   3.19128E+4
   3.56991E+3   3.15805E+4
   3.99125E+3   3.13104E+4
   4.60308E+3   3.08776E+4
   5.08599E+3   3.06765E+4
   5.56126E+3   3.03985E+4
   6.02178E+3   3.01071E+4
   6.38800E+3   2.97826E+4
   6.82279E+3   2.94432E+4
   7.16159E+3   2.91914E+4
   7.67051E+3   2.88867E+4
   8.07381E+3   2.83772E+4
   8.50325E+3   2.80820E+4
   8.87362E+3   2.77817E+4
   9.22868E+3   2.75628E+4
   9.52074E+3   2.71704E+4
   9.89965E+3   2.68497E+4
   1.03267E+4   2.65612E+4
   1.05329E+4   2.62154E+4
   1.08487E+4   2.58452E+4
   1.11533E+4   2.54491E+4
   1.13976E+4   2.51859E+4
   1.16877E+4   2.48632E+4
   1.19066E+4   2.44501E+4
   1.21849E+4   2.40926E+4
   1.24945E+4   2.36977E+4
   1.28105E+4   2.32772E+4
   1.30077E+4   2.29427E+4
   1.32747E+4   2.25496E+4
   1.34674E+4   2.21573E+4
   1.36625E+4   2.18372E+4
   1.39492E+4   2.14585E+4
   1.41618E+4   2.10503E+4
   1.43750E+4   2.06632E+4
   1.45804E+4   2.03612E+4
   1.46830E+4   1.99636E+4
   1.48294E+4   1.95977E+4
   1.49444E+4   1.92348E+4
   1.50826E+4   1.87634E+4
   1.52533E+4   1.84207E+4
   1.54441E+4   1.79148E+4
   1.55719E+4   1.75759E+4
   1.57223E+4   1.71140E+4
   1.59439E+4   1.65923E+4
   1.60931E+4   1.62815E+4
   1.62583E+4   1.58397E+4
   1.63919E+4   1.53350E+4
   1.64086E+4   1.48460E+4
   1.67647E+4   1.44367E+4
   1.68140E+4   1.40368E+4
   1.69050E+4   1.36467E+4
   1.70108E+4   1.31874E+4
   1.70985E+4   1.27971E+4
   1.72388E+4   1.23699E+4
   1.73921E+4   1.19797E+4
   1.74510E+4   1.14715E+4
   1.75888E+4   1.11452E+4
   1.76069E+4   1.07284E+4
   1.77910E+4   1.03399E+4
   1.78099E+4   9.93806E+3
   1.78242E+4   9.55145E+3
   1.79156E+4   9.11198E+3
   1.80159E+4   8.68816E+3
   1.81353E+4   8.32811E+3
   1.81527E+4   7.90926E+3
   1.82599E+4   7.53741E+3
   1.82912E+4   7.23806E+3
   1.83395E+4   6.75060E+3
   1.83157E+4   6.41974E+3
   1.83759E+4   6.05775E+3
   1.83974E+4   5.73919E+3
   1.85795E+4   5.29908E+3
   1.85408E+4   5.03729E+3
   1.85520E+4   4.73229E+3
   1.85413E+4   4.37728E+3
   1.86187E+4   4.10700E+3
   1.85877E+4   3.70972E+3
   1.85973E+4   3.51407E+3
   1.85929E+4   3.15387E+3
   1.85628E+4   2.83387E+3
   1.85476E+4   2.55220E+3
   1.85462E+4   2.25595E+3
   1.84942E+4   1.98150E+3
   1.84892E+4   1.64717E+3
   1.84427E+4   1.37001E+3
   1.83563E+4   1.13235E+3
   1.84024E+4   7.41951E+2
   1.82889E+4   5.60295E+2
   1.82456E+4   2.69143E+2
   1.80984E+4  -1.79431E+1
   1.80770E+4  -2.78063E+2
   1.80805E+4  -5.56948E+2
   1.78687E+4  -7.77366E+2
   1.79090E+4  -1.06937E+3
   1.77325E+4  -1.32634E+3
   1.77079E+4  -1.49170E+3
   1.76240E+4  -1.73008E+3
   1.74982E+4  -1.96814E+3
   1.73755E+4  -2.20331E+3
   1.72375E+4  -2.42553E+3
   1.71668E+4  -2.62785E+3
   1.70041E+4  -2.77898E+3
   1.68887E+4  -3.08558E+3
   1.67300E+4  -3.29219E+3
   1.65874E+4  -3.47123E+3
   1.64631E+4  -3.73875E+3
   1.63151E+4  -3.85933E+3
   1.61685E+4  -4.08211E+3
   1.60540E+4  -4.24803E+3
   1.58913E+4  -4.47024E+3
   1.57946E+4  -4.72461E+3
   1.55040E+4  -4.76939E+3
   1.53797E+4  -5.02715E+3
   1.52549E+4  -5.09548E+3
   1.51175E+4  -5.34417E+3
   1.49167E+4  -5.45710E+3
   1.47987E+4  -5.53404E+3
   1.46117E+4  -5.70419E+3
   1.43476E+4  -5.89845E+3
   1.41800E+4  -6.02574E+3
   1.40025E+4  -6.15641E+3
   1.38912E+4  -6.25746E+3
   1.36908E+4  -6.36076E+3
   1.34375E+4  -6.47875E+3
   1.32388E+4  -6.63818E+3
   1.30710E+4  -6.65959E+3
   1.28592E+4  -6.79538E+3
   1.26545E+4  -6.90645E+3
   1.24539E+4  -7.08605E+3
   1.23296E+4  -7.13816E+3
   1.20502E+4  -7.25975E+3
   1.18686E+4  -7.27299E+3
   1.17180E+4  -7.33945E+3
   1.15063E+4  -7.46024E+3
   1.12811E+4  -7.56461E+3
   1.11136E+4  -7.61701E+3
   1.09366E+4  -7.70916E+3
   1.06930E+4  -7.72195E+3
   1.05696E+4  -7.72147E+3
   1.03751E+4  -7.78346E+3
   1.01287E+4  -7.86756E+3
   1.00034E+4  -7.96126E+3
   9.76007E+3  -8.00173E+3
   9.61192E+3  -8.03176E+3
   9.38622E+3  -8.00401E+3
   9.18390E+3  -8.03088E+3
   8.98629E+3  -8.09933E+3
   8.84803E+3  -8.08806E+3
   8.67001E+3  -8.21514E+3
   8.41347E+3  -8.20467E+3
   8.27918E+3  -8.20015E+3
   8.12862E+3  -8.21456E+3
   7.96381E+3  -8.23996E+3
   7.75022E+3  -8.22030E+3
   7.62064E+3  -8.30241E+3
   7.38103E+3  -8.26658E+3
   7.20009E+3  -8.29218E+3
   7.06926E+3  -8.28520E+3
   6.88913E+3  -8.27064E+3
   6.77601E+3  -8.32824E+3
   6.57044E+3  -8.25116E+3
   6.41020E+3  -8.24251E+3
   6.29305E+3  -8.21046E+3
   6.10871E+3  -8.22047E+3
   5.91594E+3  -8.27258E+3
   5.71695E+3  -8.23928E+3
   5.61749E+3  -8.17973E+3
   5.46041E+3  -8.16770E+3
   5.27188E+3  -8.16762E+3
   5.11084E+3  -8.16534E+3
   5.01919E+3  -8.11360E+3
   4.80575E+3  -8.10039E+3
   4.70265E+3  -8.05756E+3
   4.52006E+3  -8.03765E+3
   4.37463E+3  -8.00369E+3
   4.28053E+3  -7.98881E+3
   4.05723E+3  -7.95595E+3
   3.99378E+3  -7.95426E+3
   3.84511E+3  -7.87287E+3
   3.70392E+3  -7.84217E+3
   3.56294E+3  -7.84366E+3
   3.41885E+3  -7.76151E+3
   3.31872E+3  -7.70062E+3
   3.23041E+3  -7.63127E+3
   3.09818E+3  -7.58026E+3
   2.91186E+3  -7.59790E+3
   2.83871E+3  -7.53190E+3
   2.64626E+3  -7.46199E+3
   2.56687E+3  -7.44702E+3
   2.48806E+3  -7.37984E+3
   2.37684E+3  -7.31419E+3
   2.29752E+3  -7.22329E+3
   2.11175E+3  -7.30021E+3
   2.09465E+3  -7.21426E+3
   1.91656E+3  -7.13688E+3
   1.84086E+3  -7.15851E+3
   1.76173E+3  -7.07620E+3
   1.65075E+3  -6.95079E+3
   1.55284E+3  -6.94532E+3
   1.39715E+3  -6.83569E+3
   1.30370E+3  -6.87607E+3
   1.33567E+3  -6.84900E+3
   1.15107E+3  -6.75211E+3
   1.11569E+3  -6.68645E+3
   9.60569E+2  -6.66536E+3
   9.37218E+2  -6.61559E+3
   8.81124E+2  -6.52076E+3
   8.20566E+2  -6.45997E+3
   7.07681E+2  -6.44641E+3
   6.75221E+2  -6.39339E+3
   6.10626E+2  -6.34397E+3
   4.96629E+2  -6.31245E+3
   4.37149E+2  -6.27008E+3
   3.39690E+2  -6.19964E+3
   3.54599E+2  -6.19259E+3
   2.09046E+2  -6.11113E+3
   1.70631E+2  -6.09635E+3
   1.50802E+2  -6.03545E+3
   5.51094E+1  -5.95456E+3
  -3.24986E+1  -5.89142E+3
  -1.04687E+1  -5.79838E+3
  -1.77418E+2  -5.75031E+3
  -1.56840E+2  -5.72297E+3
  -2.43019E+2  -5.70354E+3
  -2.78965E+2  -5.67049E+3
  -3.45920E+2  -5.62580E+3
  -4.50837E+2  -5.54268E+3
  -5.24710E+2  -5.43421E+3
  -5.64220E+2  -5.47616E+3
  -6.27992E+2  -5.44202E+3
  -6.18863E+2  -5.34553E+3
  -7.16741E+2  -5.25253E+3
  -7.48638E+2  -5.26258E+3
  -7.69666E+2  -5.20335E+3
  -8.38591E+2  -5.13880E+3
  -8.38221E+2  -5.05629E+3
  -9.03744E+2  -4.98486E+3
  -1.01541E+3  -4.99036E+3
  -1.02102E+3  -4.89990E+3
  -1.03893E+3  -4.91494E+3
  -1.17288E+3  -4.89673E+3
  -1.16915E+3  -4.77587E+3
  -1.20288E+3  -4.70043E+3
  -1.23316E+3  -4.68371E+3
  -1.33121E+3  -4.64074E+3
  -1.42682E+3  -4.65593E+3
  -1.39614E+3  -4.57469E+3
  -1.40642E+3  -4.56348E+3
  -1.43903E+3  -4.48477E+3
  -1.43782E+3  -4.41764E+3
  -1.56589E+3  -4.38276E+3
  -1.55341E+3  -4.28070E+3
  -1.63726E+3  -4.31697E+3
  -1.55386E+3  -4.21821E+3
  -1.68327E+3  -4.15935E+3
  -1.69320E+3  -4.15855E+3
  -1.71854E+3  -4.06699E+3
  -1.70038E+3  -4.09565E+3
  -1.72263E+3  -4.01155E+3
  -1.85546E+3  -3.92355E+3
  -1.87513E+3  -3.94171E+3
  -1.87468E+3  -3.88337E+3
  -1.91283E+3  -3.83938E+3
  -1.95062E+3  -3.85334E+3
  -1.96325E+3  -3.74798E+3
  -1.97510E+3  -3.72648E+3
  -2.01849E+3  -3.63636E+3
  -2.05709E+3  -3.65842E+3
  -2.13074E+3  -3.60601E+3
  -2.08513E+3  -3.58645E+3
  -2.17126E+3  -3.47475E+3
  -2.20834E+3  -3.36091E+3
  -2.16462E+3  -3.39367E+3
  -2.18142E+3  -3.31128E+3
  -2.24412E+3  -3.24708E+3
  -2.25305E+3  -3.27128E+3
  -2.23688E+3  -3.20384E+3
  -2.32922E+3  -3.16963E+3
  -2.32513E+3  -3.03882E+3
  -2.30037E+3  -3.07902E+3
  -2.27047E+3  -3.03584E+3
  -2.42043E+3  -2.90371E+3
  -2.34898E+3  -2.90734E+3
  -2.43588E+3  -2.82009E+3
  -2.36902E+3  -2.77686E+3
  -2.43604E+3  -2.76632E+3
  -2.45845E+3  -2.73351E+3
  -2.45274E+3  -2.67595E+3
  -2.47460E+3  -2.56740E+3
  -2.52772E+3  -2.61397E+3
  -2.49443E+3  -2.57680E+3
  -2.47176E+3  -2.45589E+3
  -2.60253E+3  -2.47304E+3
  -2.58026E+3  -2.41145E+3
  -2.53939E+3  -2.33498E+3
  -2.55309E+3  -2.32722E+3
  -2.56015E+3  -2.31510E+3
  -2.59830E+3  -2.26793E+3
  -2.57490E+3  -2.19950E+3
  -2.60155E+3  -2.16509E+3
  -2.52894E+3  -2.12186E+3
  -2.59232E+3  -1.99019E+3
  -2.62664E+3  -2.06144E+3
  -2.66017E+3  -1.93070E+3
  -2.69936E+3  -1.92668E+3
  -2.68959E+3  -1.83322E+3
  -2.62065E+3  -1.85424E+3
  -2.68056E+3  -1.72473E+3
  -2.70030E+3  -1.68612E+3
  -2.70376E+3  -1.68525E+3
  -2.65046E+3  -1.60268E+3
  -2.67481E+3  -1.66285E+3
  -2.73371E+3  -1.56668E+3
  -2.67665E+3  -1.50753E+3
  -2.63360E+3  -1.49114E+3
  -2.64838E+3  -1.41195E+3
  -2.67687E+3  -1.36433E+3
  -2.69799E+3  -1.32799E+3
