 LCModel (Version 6.3-1N) Copyright: S.W. Provencher.          Ref.: Magn. Reson. Med. 30:672-679 (1993).                
 Slice_N1@13_16  02-Jun-2023 14:37:13
 27 lines in following concentration table = NCONC+1
    Conc.  %SD /Cr+PCr  Metabolite                                         
 1.30E-06  27% 2.0E-04 Mac                                                 
 5.28E-02  12%   8.000 Cr                                                  
    0.000 999%   0.000 PCr                                                 
 7.70E-02  12%  11.670 Ins                                                 
 6.78E-02  10%  10.265 NAA                                                 
 4.12E-02  20%   6.236 Tau                                                 
 1.40E-02  49%   2.119 PCho                                                
 6.84E-03  92%   1.036 GPC                                                 
 7.05E-02  14%  10.677 Glu                                                 
 2.62E-03 240%   0.397 Gln                                                 
    0.000 999%   0.000 Ala                                                 
 2.17E-02  65%   3.285 Asc                                                 
 1.04E-02  66%   1.569 Asp                                                 
 9.94E-03  38%   1.505 GABA                                                
 8.40E-03  52%   1.272 Glc                                                 
 8.18E-04 340%   0.124 GSH                                                 
 1.88E-02  46%   2.849 Lac                                                 
 6.45E-03  83%   0.977 NAAG                                                
    0.000 999%   0.000 PE                                                  
 2.08E-02  12%   3.155 GPC+PCho                                            
 7.42E-02  11%  11.243 NAA+NAAG                                            
 7.31E-02  16%  11.074 Glu+Gln                                             
 5.28E-02  12%   8.000 Cr+PCr                                              
 7.42E-02  11%  11.243 NAA+NAAG                                            
 5.28E-02  12%   8.000 Cr+PCr                                              
 7.31E-02  16%  11.074 Glu+Gln                                             
   6 lines in following misc. output table
  FWHM = 0.035 ppm    S/N =   3                                            
  Data shift = 0.006 ppm                                                   
  Ph: -55 deg      -8.9 deg/ppm                                            
  alphaB,S = 1.6E+01,   3.3E+01                                            
   18 spline knots.   Ns = 6(1)                                            
  ( 3) 2 infls.   ( 1) 1 extrs.                                            
  654 points on ppm-axis = NY
      4.000000     3.994181     3.988363     3.982544     3.976726     3.970907     3.965088     3.959270     3.953451     3.947633
      3.941814     3.935995     3.930177     3.924358     3.918540     3.912721     3.906902     3.901084     3.895265     3.889446
      3.883628     3.877809     3.871991     3.866172     3.860353     3.854535     3.848716     3.842898     3.837079     3.831260
      3.825442     3.819623     3.813805     3.807986     3.802167     3.796349     3.790530     3.784712     3.778893     3.773074
      3.767256     3.761437     3.755619     3.749800     3.743981     3.738163     3.732344     3.726526     3.720707     3.714888
      3.709070     3.703251     3.697433     3.691614     3.685795     3.679977     3.674158     3.668339     3.662521     3.656702
      3.650884     3.645065     3.639246     3.633428     3.627609     3.621791     3.615972     3.610153     3.604335     3.598516
      3.592698     3.586879     3.581060     3.575242     3.569423     3.563605     3.557786     3.551967     3.546149     3.540330
      3.534512     3.528693     3.522874     3.517056     3.511237     3.505419     3.499600     3.493781     3.487963     3.482144
      3.476326     3.470507     3.464688     3.458870     3.453051     3.447232     3.441414     3.435595     3.429777     3.423958
      3.418139     3.412321     3.406502     3.400684     3.394865     3.389046     3.383228     3.377409     3.371591     3.365772
      3.359953     3.354135     3.348316     3.342498     3.336679     3.330860     3.325042     3.319223     3.313405     3.307586
      3.301767     3.295949     3.290130     3.284312     3.278493     3.272674     3.266856     3.261037     3.255219     3.249400
      3.243581     3.237763     3.231944     3.226125     3.220307     3.214488     3.208670     3.202851     3.197032     3.191214
      3.185395     3.179577     3.173758     3.167939     3.162121     3.156302     3.150484     3.144665     3.138846     3.133028
      3.127209     3.121391     3.115572     3.109753     3.103935     3.098116     3.092298     3.086479     3.080660     3.074842
      3.069023     3.063205     3.057386     3.051567     3.045749     3.039930     3.034111     3.028293     3.022474     3.016656
      3.010837     3.005018     2.999200     2.993381     2.987563     2.981744     2.975925     2.970107     2.964288     2.958470
      2.952651     2.946832     2.941014     2.935195     2.929377     2.923558     2.917739     2.911921     2.906102     2.900284
      2.894465     2.888646     2.882828     2.877009     2.871191     2.865372     2.859553     2.853735     2.847916     2.842098
      2.836279     2.830460     2.824642     2.818823     2.813004     2.807186     2.801367     2.795549     2.789730     2.783911
      2.778093     2.772274     2.766456     2.760637     2.754818     2.749000     2.743181     2.737363     2.731544     2.725725
      2.719907     2.714088     2.708270     2.702451     2.696632     2.690814     2.684995     2.679177     2.673358     2.667539
      2.661721     2.655902     2.650084     2.644265     2.638446     2.632628     2.626809     2.620991     2.615172     2.609353
      2.603535     2.597716     2.591897     2.586079     2.580260     2.574442     2.568623     2.562804     2.556986     2.551167
      2.545349     2.539530     2.533711     2.527893     2.522074     2.516256     2.510437     2.504618     2.498800     2.492981
      2.487163     2.481344     2.475525     2.469707     2.463888     2.458070     2.452251     2.446432     2.440614     2.434795
      2.428977     2.423158     2.417339     2.411521     2.405702     2.399884     2.394065     2.388246     2.382428     2.376609
      2.370790     2.364972     2.359153     2.353335     2.347516     2.341697     2.335879     2.330060     2.324242     2.318423
      2.312604     2.306786     2.300967     2.295149     2.289330     2.283511     2.277693     2.271874     2.266056     2.260237
      2.254418     2.248600     2.242781     2.236963     2.231144     2.225325     2.219507     2.213688     2.207870     2.202051
      2.196232     2.190414     2.184595     2.178777     2.172958     2.167139     2.161321     2.155502     2.149683     2.143865
      2.138046     2.132228     2.126409     2.120590     2.114772     2.108953     2.103135     2.097316     2.091497     2.085679
      2.079860     2.074042     2.068223     2.062404     2.056586     2.050767     2.044949     2.039130     2.033311     2.027493
      2.021674     2.015856     2.010037     2.004218     1.998400     1.992581     1.986763     1.980944     1.975126     1.969307
      1.963489     1.957670     1.951852     1.946033     1.940215     1.934397     1.928578     1.922760     1.916941     1.911123
      1.905304     1.899486     1.893667     1.887849     1.882030     1.876212     1.870393     1.864575     1.858756     1.852938
      1.847119     1.841301     1.835482     1.829664     1.823845     1.818027     1.812208     1.806390     1.800571     1.794753
      1.788934     1.783116     1.777297     1.771479     1.765660     1.759842     1.754023     1.748205     1.742386     1.736568
      1.730749     1.724931     1.719113     1.713294     1.707476     1.701657     1.695839     1.690020     1.684202     1.678383
      1.672565     1.666746     1.660928     1.655109     1.649291     1.643472     1.637654     1.631835     1.626017     1.620198
      1.614380     1.608561     1.602743     1.596924     1.591106     1.585287     1.579469     1.573650     1.567832     1.562013
      1.556195     1.550376     1.544558     1.538739     1.532921     1.527102     1.521284     1.515465     1.509647     1.503829
      1.498010     1.492192     1.486373     1.480555     1.474736     1.468918     1.463099     1.457281     1.451462     1.445644
      1.439825     1.434007     1.428188     1.422370     1.416551     1.410733     1.404914     1.399096     1.393277     1.387459
      1.381640     1.375822     1.370003     1.364185     1.358366     1.352548     1.346729     1.340911     1.335092     1.329274
      1.323455     1.317637     1.311818     1.306000     1.300182     1.294363     1.288545     1.282726     1.276908     1.271089
      1.265271     1.259452     1.253634     1.247815     1.241997     1.236178     1.230360     1.224541     1.218723     1.212904
      1.207086     1.201267     1.195449     1.189630     1.183812     1.177993     1.172175     1.166356     1.160538     1.154719
      1.148901     1.143082     1.137264     1.131445     1.125627     1.119808     1.113990     1.108171     1.102353     1.096534
      1.090716     1.084898     1.079079     1.073261     1.067442     1.061624     1.055805     1.049987     1.044168     1.038350
      1.032531     1.026713     1.020894     1.015076     1.009257     1.003439     0.997620     0.991802     0.985983     0.980165
      0.974346     0.968528     0.962709     0.956891     0.951072     0.945254     0.939435     0.933617     0.927798     0.921980
      0.916161     0.910343     0.904524     0.898706     0.892887     0.887069     0.881251     0.875432     0.869614     0.863795
      0.857977     0.852158     0.846340     0.840521     0.834703     0.828884     0.823066     0.817247     0.811429     0.805610
      0.799792     0.793973     0.788155     0.782336     0.776518     0.770699     0.764881     0.759062     0.753244     0.747425
      0.741607     0.735788     0.729970     0.724151     0.718333     0.712514     0.706696     0.700877     0.695059     0.689240
      0.683422     0.677603     0.671785     0.665967     0.660148     0.654330     0.648511     0.642693     0.636874     0.631056
      0.625237     0.619419     0.613600     0.607782     0.601963     0.596145     0.590326     0.584508     0.578689     0.572871
      0.567052     0.561234     0.555415     0.549597     0.543778     0.537960     0.532141     0.526323     0.520504     0.514686
      0.508867     0.503049     0.497230     0.491412     0.485593     0.479775     0.473956     0.468138     0.462319     0.456501
      0.450682     0.444864     0.439045     0.433227     0.427408     0.421590     0.415771     0.409953     0.404134     0.398316
      0.392497     0.386679     0.380860     0.375042     0.369223     0.363405     0.357586     0.351767     0.345949     0.340130
      0.334312     0.328493     0.322675     0.316856     0.311038     0.305219     0.299401     0.293582     0.287764     0.281945
      0.276127     0.270308     0.264490     0.258671     0.252853     0.247034     0.241216     0.235397     0.229579     0.223760
      0.217942     0.212123     0.206305     0.200486
 NY phased data points follow
  -3.89625E-01 -2.88288E-01 -3.25855E-01 -3.16222E-01 -1.11666E-01 -1.17288E-01 -1.54283E-01 -1.66720E-01  1.21559E-02  1.73798E-01
   1.73542E-01 -8.51566E-02 -1.08502E-01  1.68437E-01  1.43078E-01  4.03880E-01  4.89363E-01  3.85014E-01  2.89399E-01  1.35733E-01
  -6.78706E-02  2.30701E-01  3.44092E-01 -1.78522E-02  3.06992E-01  1.83853E-01  1.63959E-01  1.74440E-01 -2.32797E-01 -2.48300E-01
   1.01619E-01  4.73089E-03  2.25725E-02 -1.77186E-01 -5.48656E-01 -9.59257E-02 -2.76098E-01 -4.38965E-01 -1.39955E-01 -3.93977E-01
  -4.76856E-01  1.26924E-01 -4.52211E-02  2.22762E-01  1.67295E-01  3.23971E-02  2.78377E-01  2.88000E-01  4.49675E-01 -1.37667E-01
   5.28684E-02 -2.03899E-01  3.47009E-01  1.44391E-01 -1.92344E-01  3.26541E-01 -1.81385E-02 -5.48941E-03 -4.27300E-01  1.09814E-01
  -2.11022E-01 -3.21575E-01 -2.05406E-01 -5.16033E-01 -1.37263E-01 -1.52963E-01 -6.70978E-02  2.33540E-01  3.63518E-01  3.79855E-01
   7.30370E-01  2.22408E-01  2.96214E-01  1.56713E-01 -1.69808E-01  1.88453E-01 -3.87287E-01 -2.24338E-01 -1.16821E-01 -2.25806E-01
  -3.17116E-01 -5.80950E-01  2.41536E-02 -1.37310E-01  1.07844E-01  5.10579E-01  1.57985E-01  2.71456E-01  1.44762E-01  3.20604E-01
   1.23513E-01  4.39627E-02  1.00539E-01 -1.16005E-01  5.37309E-02  2.96779E-01  4.39418E-02 -3.37391E-01  1.15592E-01 -1.10628E-01
  -2.19296E-01  1.72842E-01 -2.71929E-02 -7.77577E-04  2.82433E-01  2.91152E-01  2.53019E-01  2.54232E-01  2.07341E-01  3.21178E-01
   4.30256E-01  4.14193E-01  5.77127E-01  1.76604E-01  1.00844E-01  3.38059E-01  2.81401E-01  4.46605E-01 -2.02456E-02  4.37018E-01
   6.14678E-02  6.04016E-02  2.27232E-01 -6.04044E-01 -6.08796E-02 -2.91645E-01 -2.59357E-01 -1.51609E-01 -8.48464E-02 -1.64604E-01
  -1.17796E-01  4.80078E-02 -2.72374E-01 -3.70813E-01 -6.66146E-01 -3.27001E-01 -5.40827E-01 -9.57948E-01 -8.62050E-01 -8.82739E-01
  -6.19295E-01 -3.54324E-01 -3.59804E-01  1.50780E-02 -8.68745E-03 -6.77983E-02  4.41955E-02 -1.94824E-01 -1.98522E-01 -5.64343E-02
  -3.76054E-02 -2.50820E-01  1.50604E-01  9.61140E-02 -1.83541E-02 -5.98291E-02 -8.86733E-02  2.48874E-01  3.09400E-01  4.46503E-01
   2.84641E-01  5.20118E-01  5.89620E-01  1.73327E-01  3.70001E-01  6.26521E-01  4.77380E-01  3.30176E-01  1.37520E-01 -2.87193E-01
  -5.38170E-01 -4.99264E-01 -6.34393E-01 -4.87633E-01 -5.81170E-01 -6.28966E-01 -3.02622E-01 -2.96446E-01 -2.32076E-01 -2.36079E-01
  -3.17128E-01 -5.83464E-01 -3.29532E-01 -3.25089E-01 -4.32245E-01 -2.42155E-01 -9.39807E-02 -2.07784E-01 -3.14638E-01 -1.38759E-01
  -2.65891E-01 -3.48931E-02 -1.75566E-01 -1.74321E-01 -1.55734E-01  2.49573E-01  2.50671E-01 -1.42072E-01  1.81367E-01  9.72175E-02
   9.90238E-02  1.18686E-02  5.64983E-02 -1.13858E-01 -1.92875E-02 -1.73120E-01 -2.08617E-01  1.20215E-01 -9.77192E-02  1.71354E-01
   8.44442E-02  1.51005E-02  2.59717E-01  2.62848E-02 -2.77057E-01 -5.18812E-02  1.09806E-01 -5.20253E-02 -8.33632E-02  1.45525E-01
   2.42930E-01 -2.27626E-01 -1.02490E-01  1.00145E-01  1.04693E-02  5.43636E-02  1.55530E-01  4.07491E-01  6.17909E-02  3.77070E-01
   1.91555E-01  5.31279E-02  6.78939E-01  6.58320E-02  1.35481E-01  1.82777E-01 -1.13023E-01 -1.01687E-01  1.55325E-01  3.45978E-02
  -2.39403E-01 -2.29736E-01 -2.08573E-01  1.25989E-01 -7.66733E-02 -5.10276E-02 -4.93298E-02  2.90391E-01  1.88659E-02 -2.51872E-01
   1.36575E-01 -2.84343E-02 -1.97878E-02  1.34211E-01  3.39908E-02 -9.20193E-02  1.77137E-01 -3.11530E-01 -1.67188E-01 -1.77182E-01
  -2.52282E-01  1.70831E-01 -3.94191E-03  2.01051E-01  2.76920E-01  1.07811E-01 -4.98846E-03  2.00317E-01  8.23000E-02  2.26173E-02
  -8.22547E-02  1.79467E-01  1.54154E-01 -2.25977E-01 -3.77345E-02 -2.14750E-01 -7.41180E-02  3.54907E-02 -9.01938E-02 -2.11962E-01
  -2.27190E-01 -5.14527E-01 -2.91290E-01  1.92423E-02 -1.48200E-01 -2.89974E-02  3.11116E-01  6.11925E-01  3.23194E-01  3.50490E-01
   3.86650E-01  1.65048E-01 -1.52140E-01  6.76721E-02  1.70129E-01 -1.31872E-02 -6.83192E-02  1.68136E-01  5.19821E-01  7.25128E-02
   3.91562E-01  2.49208E-01  4.02441E-01  5.35394E-01  2.26707E-01  4.31655E-01  2.69077E-01  4.44751E-01  5.65035E-02  2.78502E-01
   2.10668E-01  8.51023E-02  2.33395E-01 -1.20802E-02  1.38711E-01  2.14713E-02  1.61175E-01  3.10300E-02  1.40867E-01  6.37872E-02
   4.76318E-02 -2.85768E-02 -6.11387E-02  7.15898E-02 -1.27921E-01 -1.75815E-01 -4.57290E-01 -2.81979E-03  1.53877E-01  3.82251E-01
   4.05855E-01 -5.15141E-03  2.29357E-01  1.38252E-01 -4.04445E-01 -4.32120E-01 -1.21260E-01 -2.52514E-01 -4.37607E-01 -6.19084E-01
  -2.87135E-01 -2.13785E-01 -3.40726E-01 -1.13055E+00 -1.50476E+00 -6.26228E-01 -6.90547E-01 -6.34584E-01 -3.27876E-02  1.68266E-01
  -1.45001E-03 -8.32108E-02 -3.54431E-02  1.36216E-01  5.21869E-02  2.14402E-01  2.67766E-01  1.65953E-01  3.32229E-01  1.84648E-01
   1.65191E-01  1.22292E-02  1.66611E-01  9.95985E-02 -1.43634E-01 -9.35833E-02 -8.57599E-02 -1.77798E-02  1.43228E-01  1.82715E-01
   1.16364E-01  2.20319E-01  1.36247E-01 -4.09725E-02 -1.14121E-01  9.34228E-02  8.35876E-02  2.31599E-01  3.62391E-01  1.81785E-01
   7.64081E-04  2.99566E-01  2.76122E-01 -3.44386E-01 -3.39421E-02 -5.65406E-02  1.13240E-01 -9.30544E-02  7.38048E-02  3.80830E-01
  -4.59037E-01  1.93597E-01  2.74107E-01  5.41636E-02  2.81246E-01  1.64346E-01  1.69886E-01 -5.69344E-02 -3.52219E-02  3.69776E-02
   1.61462E-01 -5.06287E-02 -1.23407E-01  7.59687E-02  2.08764E-01  1.42743E-01 -7.81973E-02 -2.56730E-01 -1.68141E-01 -8.45690E-02
  -1.38119E-01  2.14026E-01 -3.50924E-02 -2.23890E-01  2.76423E-02 -1.65034E-01 -5.88449E-01 -2.11644E-01 -1.30867E-01 -2.78307E-01
   2.93482E-02 -1.47261E-01 -1.32941E-01 -1.57379E-01  3.46171E-01  2.92089E-01 -2.26502E-01 -4.42189E-01 -4.67997E-01  6.12778E-03
  -5.24836E-02 -2.23909E-01 -1.89771E-02 -6.25039E-02 -3.38236E-01  1.07046E-01  2.09009E-01  2.15848E-01  3.66946E-02 -2.21950E-01
   3.97344E-02 -1.10331E-01  1.51357E-02  6.67298E-02 -5.18371E-01 -1.74988E-01  3.42228E-01 -1.17448E-01 -3.39252E-02 -2.48554E-01
   1.04502E-01  3.65794E-01  2.90839E-01  1.64001E-01 -3.95018E-01  2.10698E-01  3.62221E-01  2.61400E-01 -1.42331E-01 -6.06942E-02
   1.68487E-01  1.83620E-01  5.16404E-01  3.05654E-01  3.88497E-01  9.11477E-03 -7.47941E-04  1.34463E-01 -1.07308E-01  1.27523E-02
  -6.21391E-03  2.67473E-01  1.99672E-02 -3.72476E-01  7.91377E-03  5.27790E-02  2.75065E-01  4.39637E-02 -1.86909E-01  1.64528E-01
  -1.14191E-01  1.47006E-01  7.33014E-02 -2.81582E-01 -4.10496E-02  1.16794E-01  2.58314E-01 -2.17340E-01 -1.29991E-01  2.56788E-01
  -1.88162E-01 -2.18587E-01 -5.09664E-02  4.72405E-03 -4.28598E-02 -2.84637E-02 -8.84872E-02  7.37850E-02  2.30544E-01  2.47617E-01
  -2.79662E-02 -5.29495E-01 -2.14643E-03 -1.22348E-01 -7.44306E-03  2.14356E-01  3.11348E-01  2.03272E-01 -2.34597E-01  2.46130E-01
   1.04218E-01  1.30575E-01  7.56298E-02  4.40844E-02  6.17969E-02  5.22278E-02  1.86374E-01  9.13179E-02  2.61296E-02  3.76466E-02
   2.75404E-01  1.57788E-01 -1.44556E-01 -3.60028E-02  3.01741E-02 -2.80216E-01 -2.28898E-01 -5.21371E-01 -3.68255E-01 -3.40928E-01
  -2.12837E-01 -1.52466E-01 -4.37839E-01 -2.77521E-01 -1.17337E-01  1.81902E-01 -4.27543E-01 -4.24121E-04  1.14860E-01 -1.63274E-02
   1.14691E-01 -2.16480E-01 -4.95345E-03  2.58798E-01 -2.39198E-02 -3.58966E-01  6.38257E-02 -1.83539E-01 -5.74198E-02  8.60250E-02
   3.23300E-01  7.60913E-02  1.70621E-01  4.35535E-01  5.47767E-02  3.69334E-01  1.23307E-01  2.07742E-01  1.29659E-01  2.40655E-01
   1.60464E-01  8.19195E-04  2.16858E-01  2.82402E-01  2.73123E-01  8.66435E-02 -8.56733E-02  6.64195E-02  1.66250E-01 -2.93699E-01
   2.59490E-01  1.59746E-01 -2.76377E-01 -2.46122E-01 -8.70031E-02  6.74687E-02 -2.82163E-02  3.21014E-01  1.35034E-01  3.87533E-02
   1.22351E-01  7.06820E-02  7.91262E-02 -6.50438E-02 -1.58941E-02  1.45437E-01 -1.15901E-01 -4.85747E-02  1.47524E-01 -1.43213E-01
  -9.54637E-02  2.19746E-02 -9.60889E-02  5.82784E-02  1.27282E-01  1.85619E-02 -2.26358E-02 -1.04270E-01  1.06902E-01  1.56003E-01
  -1.13327E-01 -1.92383E-01 -1.94497E-01 -2.69375E-01  2.66600E-01  5.99307E-02 -2.33670E-01  9.15349E-02  6.67963E-03  1.42532E-01
  -6.65810E-02  7.49248E-02 -4.09386E-02  5.38311E-02  8.62120E-02  1.98861E-02  2.32816E-01  5.52849E-02  2.08796E-01 -4.76041E-02
   1.09297E-02 -3.72278E-01 -2.24503E-01  4.36603E-02 -1.93181E-01  6.11017E-02 -1.12218E-01  9.69501E-02 -8.66961E-02  3.29889E-01
   3.92035E-01  3.47633E-02  6.53932E-01  1.85056E-02 -9.51892E-02  2.15092E-01  1.35783E-01  2.40327E-01 -4.89625E-02  2.82237E-01
   2.02073E-01  4.74278E-03  3.61714E-02  6.46227E-02  3.46032E-03 -3.57237E-02  3.26008E-01 -1.07864E-01  2.11335E-01  2.03166E-01
   1.98977E-02  4.65801E-01 -2.04779E-02 -3.29783E-01
 NY points of the fit to the data follow
   3.47304E-02  2.65491E-02  1.17668E-02 -5.13996E-03 -1.88565E-02 -2.61083E-02 -2.72370E-02 -2.59975E-02 -2.37761E-02 -1.41032E-02
   1.52582E-02  5.72405E-02  9.94374E-02  1.53120E-01  2.37819E-01  3.51943E-01  4.52618E-01  4.70438E-01  3.98375E-01  2.86203E-01
   1.71088E-01  8.45345E-02  4.22380E-02  1.94435E-02 -7.04834E-03 -3.10088E-02 -5.08483E-02 -6.60651E-02 -7.81155E-02 -8.84757E-02
  -9.84041E-02 -1.08083E-01 -1.18924E-01 -1.33018E-01 -1.51622E-01 -1.71856E-01 -1.90821E-01 -2.04800E-01 -2.09808E-01 -2.01765E-01
  -1.75834E-01 -1.25963E-01 -5.60969E-02  2.67483E-02  1.08812E-01  1.69201E-01  1.95513E-01  1.87057E-01  1.54057E-01  1.12518E-01
   7.37095E-02  3.47975E-02 -1.18509E-03 -3.57562E-02 -7.32908E-02 -1.13890E-01 -1.56201E-01 -1.97579E-01 -2.29138E-01 -2.54976E-01
  -2.75356E-01 -2.76674E-01 -2.64365E-01 -2.36618E-01 -1.79719E-01 -1.03609E-01  1.98736E-03  1.23960E-01  2.16187E-01  2.94073E-01
   3.51734E-01  3.45564E-01  2.97012E-01  2.33742E-01  1.38482E-01  3.86672E-02 -3.86331E-02 -1.15627E-01 -1.98914E-01 -2.69745E-01
  -3.00224E-01 -2.56571E-01 -1.41411E-01  1.22313E-04  1.48881E-01  2.80286E-01  3.51819E-01  3.68341E-01  3.57039E-01  3.20414E-01
   2.74235E-01  2.36265E-01  2.01555E-01  1.62128E-01  1.18439E-01  7.16744E-02  2.09747E-02 -3.16963E-02 -7.30095E-02 -9.34634E-02
  -7.45331E-02 -1.29388E-02  7.11048E-02  1.57029E-01  2.20850E-01  2.54204E-01  2.63647E-01  2.64251E-01  2.59986E-01  2.60136E-01
   2.61030E-01  2.61932E-01  2.62293E-01  2.62114E-01  2.61801E-01  2.61563E-01  2.60342E-01  2.55253E-01  2.47262E-01  2.33662E-01
   2.09505E-01  1.75243E-01  1.25828E-01  5.91087E-02 -1.11222E-02 -7.92543E-02 -1.37177E-01 -1.74915E-01 -2.08862E-01 -2.33020E-01
  -2.41909E-01 -2.55767E-01 -2.65402E-01 -2.57384E-01 -2.83937E-01 -4.08250E-01 -6.29155E-01 -8.56100E-01 -9.32960E-01 -8.24134E-01
  -6.13084E-01 -3.79622E-01 -1.97979E-01 -1.09881E-01 -7.41196E-02 -4.04339E-02 -1.19562E-02  1.23069E-02  3.33709E-02  5.20735E-02
   6.89910E-02  8.47738E-02  1.00061E-01  1.15352E-01  1.31058E-01  1.47817E-01  1.66271E-01  1.87229E-01  2.11741E-01  2.41508E-01
   2.80503E-01  3.37584E-01  3.88494E-01  4.05664E-01  4.08690E-01  4.17101E-01  3.92661E-01  2.77582E-01  1.70129E-02 -3.07040E-01
  -5.31420E-01 -6.18601E-01 -5.94188E-01 -4.92648E-01 -3.94644E-01 -3.53655E-01 -3.24278E-01 -2.94301E-01 -2.66413E-01 -2.42678E-01
  -2.22376E-01 -2.06423E-01 -1.92545E-01 -1.80095E-01 -1.68673E-01 -1.58099E-01 -1.48432E-01 -1.39444E-01 -1.30982E-01 -1.23089E-01
  -1.15817E-01 -1.09027E-01 -1.02601E-01 -9.63917E-02 -9.02667E-02 -8.40813E-02 -7.76472E-02 -7.08524E-02 -6.40212E-02 -5.75661E-02
  -5.11497E-02 -4.39404E-02 -3.61562E-02 -3.03745E-02 -2.88262E-02 -2.99684E-02 -3.05130E-02 -2.91744E-02 -2.80065E-02 -3.02401E-02
  -3.62626E-02 -4.29964E-02 -4.72499E-02 -4.76156E-02 -4.45517E-02 -3.95475E-02 -3.38123E-02 -2.82894E-02 -2.41313E-02 -2.03890E-02
  -1.29067E-02  4.33784E-04  1.70839E-02  3.66920E-02  6.72099E-02  1.14469E-01  1.65237E-01  1.98497E-01  2.10400E-01  2.14012E-01
   2.22276E-01  2.25533E-01  2.02294E-01  1.52885E-01  9.12516E-02  3.03026E-02 -1.25222E-02 -3.12786E-02 -3.96165E-02 -4.65613E-02
  -5.25108E-02 -5.83880E-02 -6.39145E-02 -6.90297E-02 -7.38532E-02 -7.84141E-02 -8.29002E-02 -8.77721E-02 -9.31371E-02 -9.88737E-02
  -1.05122E-01 -1.09424E-01 -1.10691E-01 -1.13017E-01 -1.14134E-01 -1.07907E-01 -9.02180E-02 -5.85579E-02 -2.18214E-02  1.07226E-02
   4.63142E-02  7.80614E-02  9.57094E-02  1.03026E-01  1.01950E-01  9.63680E-02  8.65142E-02  6.94844E-02  4.72707E-02  2.39345E-02
  -2.99319E-03 -2.72641E-02 -4.84201E-02 -7.20062E-02 -9.83640E-02 -1.29318E-01 -1.64444E-01 -2.01721E-01 -2.39754E-01 -2.74864E-01
  -3.02170E-01 -3.16142E-01 -3.00410E-01 -2.43738E-01 -1.48193E-01 -2.01413E-02  1.11822E-01  2.17904E-01  2.83059E-01  2.98844E-01
   2.75584E-01  2.38183E-01  2.00496E-01  1.72491E-01  1.60803E-01  1.61393E-01  1.70482E-01  1.81428E-01  1.89475E-01  1.92244E-01
   1.88506E-01  1.80604E-01  1.72408E-01  1.63459E-01  1.55083E-01  1.46916E-01  1.37653E-01  1.27288E-01  1.15893E-01  1.03257E-01
   9.06183E-02  7.87510E-02  6.75870E-02  5.88700E-02  5.14310E-02  4.15245E-02  2.67556E-02  3.96756E-03 -2.58513E-02 -5.84577E-02
  -8.88986E-02 -1.13944E-01 -1.29479E-01 -1.34874E-01 -1.29136E-01 -1.09251E-01 -7.65270E-02 -3.78949E-02 -3.88851E-03  1.55167E-02
   1.16366E-02 -1.49728E-02 -5.56004E-02 -9.72546E-02 -1.30617E-01 -1.57185E-01 -1.81802E-01 -2.37286E-01 -3.09860E-01 -3.55380E-01
  -4.00801E-01 -5.19455E-01 -7.36625E-01 -1.00199E+00 -1.11737E+00 -9.78128E-01 -7.16405E-01 -4.29848E-01 -1.95007E-01 -8.81469E-02
  -7.33244E-02 -5.04349E-02 -3.13705E-02 -1.62475E-02 -4.60245E-03  4.01774E-03  9.93074E-03  1.25651E-02  1.12070E-02  5.78222E-03
  -3.96459E-03 -1.69742E-02 -3.05370E-02 -4.32107E-02 -5.21450E-02 -5.55976E-02 -5.34641E-02 -4.61956E-02 -3.55984E-02 -2.42568E-02
  -1.36466E-02 -4.24651E-03  3.44214E-03  1.02515E-02  1.58864E-02  2.05308E-02  2.43818E-02  2.77633E-02  3.09338E-02  3.40351E-02
   3.69513E-02  3.95070E-02  4.18100E-02  4.40390E-02  4.62432E-02  4.84127E-02  5.03485E-02  5.20441E-02  5.36227E-02  5.53067E-02
   5.71385E-02  5.90327E-02  6.06924E-02  6.17245E-02  6.19240E-02  6.13202E-02  6.02027E-02  5.88153E-02  5.71975E-02  5.51805E-02
   5.27196E-02  4.97939E-02  4.64717E-02  4.28729E-02  3.90597E-02  3.52397E-02  3.16330E-02  2.82380E-02  2.49526E-02  2.17775E-02
   1.87954E-02  1.59800E-02  1.34261E-02  1.12331E-02  9.27840E-03  7.41160E-03  5.63526E-03  3.88868E-03  2.23336E-03  8.26578E-04
  -3.14736E-04 -1.17355E-03 -1.69699E-03 -1.78905E-03 -1.31325E-03 -3.16367E-04  1.07915E-03  2.80889E-03  4.77928E-03  6.93807E-03
   9.27507E-03  1.14793E-02  1.32787E-02  1.50047E-02  1.71363E-02  2.00031E-02  2.36131E-02  2.76965E-02  3.18772E-02  3.61166E-02
   4.06417E-02  4.56781E-02  5.12152E-02  5.70247E-02  6.28517E-02  6.83952E-02  7.35724E-02  7.82204E-02  8.19933E-02  8.45478E-02
   8.56648E-02  8.51326E-02  8.29426E-02  7.92862E-02  7.65565E-02  7.77176E-02  8.30108E-02  9.26025E-02  1.08220E-01  1.32846E-01
   1.71202E-01  2.17638E-01  2.55056E-01  2.69921E-01  2.54066E-01  2.13196E-01  1.66747E-01  1.28579E-01  1.01897E-01  8.69649E-02
   7.85953E-02  7.14138E-02  6.55930E-02  6.10052E-02  5.74994E-02  5.51196E-02  5.38544E-02  5.35654E-02  5.40247E-02  5.50217E-02
   5.64016E-02  5.81234E-02  6.01803E-02  6.24279E-02  6.45817E-02  6.64592E-02  6.79263E-02  6.89661E-02  6.97423E-02  7.05572E-02
   7.14429E-02  7.20230E-02  7.20476E-02  7.15279E-02  7.04900E-02  6.90570E-02  6.73615E-02  6.54003E-02  6.33691E-02  6.13964E-02
   5.94002E-02  5.73527E-02  5.52707E-02  5.31334E-02  5.09801E-02  4.87849E-02  4.65223E-02  4.43022E-02  4.22434E-02  4.03984E-02
   3.85647E-02  3.65062E-02  3.41666E-02  3.14775E-02  2.82567E-02  2.44237E-02  1.99876E-02  1.49849E-02  9.45381E-03  3.25538E-03
  -3.89641E-03 -1.21627E-02 -2.13771E-02 -3.10084E-02 -4.05908E-02 -4.99135E-02 -5.86632E-02 -6.65919E-02 -7.37325E-02 -8.00446E-02
  -8.52044E-02 -8.88721E-02 -9.08441E-02 -9.13434E-02 -9.07086E-02 -8.90320E-02 -8.63927E-02 -8.30203E-02 -7.91845E-02 -7.51746E-02
  -7.11943E-02 -6.71869E-02 -6.28587E-02 -5.79891E-02 -5.26766E-02 -4.70325E-02 -4.10942E-02 -3.50428E-02 -2.90115E-02 -2.31294E-02
  -1.74591E-02 -1.20512E-02 -6.77533E-03 -1.62459E-03  3.14113E-03  7.42076E-03  1.14437E-02  1.53036E-02  1.88840E-02  2.20617E-02
   2.47489E-02  2.71690E-02  2.93851E-02  3.13357E-02  3.30273E-02  3.44423E-02  3.55757E-02  3.66086E-02  3.75934E-02  3.84499E-02
   3.92516E-02  4.01632E-02  4.12206E-02  4.23649E-02  4.35836E-02  4.46884E-02  4.54257E-02  4.58350E-02  4.61062E-02  4.62342E-02
   4.62526E-02  4.63260E-02  4.64061E-02  4.64609E-02  4.66115E-02  4.67226E-02  4.67150E-02  4.68830E-02  4.72157E-02  4.73994E-02
   4.71989E-02  4.65674E-02  4.58915E-02  4.56093E-02  4.56286E-02  4.57668E-02  4.59733E-02  4.60412E-02  4.58094E-02  4.54233E-02
   4.52289E-02  4.53926E-02  4.59101E-02  4.66275E-02  4.73571E-02  4.80269E-02  4.86708E-02  4.92811E-02  4.98230E-02  5.03386E-02
   5.08269E-02  5.12141E-02  5.13869E-02  5.13329E-02  5.12643E-02  5.13880E-02  5.17381E-02  5.24198E-02  5.33549E-02  5.42406E-02
   5.49366E-02  5.55317E-02  5.62468E-02  5.73309E-02  5.85056E-02  5.94051E-02  5.97942E-02  5.96038E-02  5.93066E-02  5.94089E-02
   5.98688E-02  6.04136E-02  6.07811E-02  6.09246E-02  6.11282E-02  6.15217E-02  6.20129E-02  6.25283E-02  6.30207E-02  6.37051E-02
   6.46178E-02  6.54979E-02  6.63197E-02  6.72551E-02  6.82535E-02  6.93394E-02  7.06930E-02  7.23495E-02  7.43702E-02  7.67036E-02
   7.90514E-02  8.12202E-02  8.31858E-02  8.50337E-02
 NY background values follow
     2.971E-02    2.964E-02    2.957E-02    2.949E-02    2.942E-02    2.935E-02    2.928E-02    2.921E-02    2.913E-02    2.906E-02
     2.899E-02    2.892E-02    2.885E-02    2.877E-02    2.870E-02    2.863E-02    2.856E-02    2.849E-02    2.841E-02    2.834E-02
     2.827E-02    2.820E-02    2.812E-02    2.805E-02    2.798E-02    2.791E-02    2.784E-02    2.776E-02    2.769E-02    2.762E-02
     2.755E-02    2.748E-02    2.740E-02    2.733E-02    2.726E-02    2.719E-02    2.711E-02    2.704E-02    2.697E-02    2.690E-02
     2.683E-02    2.675E-02    2.668E-02    2.661E-02    2.654E-02    2.647E-02    2.639E-02    2.632E-02    2.625E-02    2.618E-02
     2.610E-02    2.603E-02    2.596E-02    2.589E-02    2.582E-02    2.574E-02    2.567E-02    2.560E-02    2.553E-02    2.545E-02
     2.538E-02    2.531E-02    2.524E-02    2.517E-02    2.509E-02    2.502E-02    2.495E-02    2.488E-02    2.480E-02    2.473E-02
