 LCModel (Version 6.3-1N) Copyright: S.W. Provencher.          Ref.: Magn. Reson. Med. 30:672-679 (1993).                
 Slice_N1@19_16  02-Jun-2023 14:37:01
 27 lines in following concentration table = NCONC+1
    Conc.  %SD /Cr+PCr  Metabolite                                         
 2.63E-06  11% 3.7E-04 Mac                                                 
 2.90E-02  32%   4.068 Cr                                                  
 2.80E-02  34%   3.932 PCr                                                 
 7.90E-02  10%  11.091 Ins                                                 
    0.100   7%  14.095 NAA                                                 
 5.56E-02  12%   7.813 Tau                                                 
 1.14E-02  16%   1.603 PCho                                                
    0.000 999%   0.000 GPC                                                 
 7.06E-02  12%   9.916 Glu                                                 
 1.20E-02  47%   1.688 Gln                                                 
    0.000 999%   0.000 Ala                                                 
 1.93E-02  55%   2.709 Asc                                                 
 1.67E-03 415%   0.235 Asp                                                 
 1.27E-02  29%   1.777 GABA                                                
 6.83E-03  68%   0.959 Glc                                                 
 8.72E-03  33%   1.224 GSH                                                 
    0.000 999%   0.000 Lac                                                 
 3.97E-03 115%   0.558 NAAG                                                
    0.000 999%   0.000 PE                                                  
 1.14E-02  16%   1.603 GPC+PCho                                            
    0.104   7%  14.653 NAA+NAAG                                            
 8.26E-02  11%  11.605 Glu+Gln                                             
 5.70E-02  11%   8.000 Cr+PCr                                              
    0.104   7%  14.653 NAA+NAAG                                            
 5.70E-02  11%   8.000 Cr+PCr                                              
 8.26E-02  11%  11.605 Glu+Gln                                             
   6 lines in following misc. output table
  FWHM = 0.017 ppm    S/N =   7                                            
  Data shift = 0.017 ppm                                                   
  Ph: -32 deg     -16.4 deg/ppm                                            
  alphaB,S = 5.1E-01,   3.3E-01                                            
   18 spline knots.   Ns = 5(1)                                            
   2 inflections.     1 extrema                                            
  654 points on ppm-axis = NY
      4.000000     3.994181     3.988363     3.982544     3.976726     3.970907     3.965088     3.959270     3.953451     3.947633
      3.941814     3.935995     3.930177     3.924358     3.918540     3.912721     3.906902     3.901084     3.895265     3.889446
      3.883628     3.877809     3.871991     3.866172     3.860353     3.854535     3.848716     3.842898     3.837079     3.831260
      3.825442     3.819623     3.813805     3.807986     3.802167     3.796349     3.790530     3.784712     3.778893     3.773074
      3.767256     3.761437     3.755619     3.749800     3.743981     3.738163     3.732344     3.726526     3.720707     3.714888
      3.709070     3.703251     3.697433     3.691614     3.685795     3.679977     3.674158     3.668339     3.662521     3.656702
      3.650884     3.645065     3.639246     3.633428     3.627609     3.621791     3.615972     3.610153     3.604335     3.598516
      3.592698     3.586879     3.581060     3.575242     3.569423     3.563605     3.557786     3.551967     3.546149     3.540330
      3.534512     3.528693     3.522874     3.517056     3.511237     3.505419     3.499600     3.493781     3.487963     3.482144
      3.476326     3.470507     3.464688     3.458870     3.453051     3.447232     3.441414     3.435595     3.429777     3.423958
      3.418139     3.412321     3.406502     3.400684     3.394865     3.389046     3.383228     3.377409     3.371591     3.365772
      3.359953     3.354135     3.348316     3.342498     3.336679     3.330860     3.325042     3.319223     3.313405     3.307586
      3.301767     3.295949     3.290130     3.284312     3.278493     3.272674     3.266856     3.261037     3.255219     3.249400
      3.243581     3.237763     3.231944     3.226125     3.220307     3.214488     3.208670     3.202851     3.197032     3.191214
      3.185395     3.179577     3.173758     3.167939     3.162121     3.156302     3.150484     3.144665     3.138846     3.133028
      3.127209     3.121391     3.115572     3.109753     3.103935     3.098116     3.092298     3.086479     3.080660     3.074842
      3.069023     3.063205     3.057386     3.051567     3.045749     3.039930     3.034111     3.028293     3.022474     3.016656
      3.010837     3.005018     2.999200     2.993381     2.987563     2.981744     2.975925     2.970107     2.964288     2.958470
      2.952651     2.946832     2.941014     2.935195     2.929377     2.923558     2.917739     2.911921     2.906102     2.900284
      2.894465     2.888646     2.882828     2.877009     2.871191     2.865372     2.859553     2.853735     2.847916     2.842098
      2.836279     2.830460     2.824642     2.818823     2.813004     2.807186     2.801367     2.795549     2.789730     2.783911
      2.778093     2.772274     2.766456     2.760637     2.754818     2.749000     2.743181     2.737363     2.731544     2.725725
      2.719907     2.714088     2.708270     2.702451     2.696632     2.690814     2.684995     2.679177     2.673358     2.667539
      2.661721     2.655902     2.650084     2.644265     2.638446     2.632628     2.626809     2.620991     2.615172     2.609353
      2.603535     2.597716     2.591897     2.586079     2.580260     2.574442     2.568623     2.562804     2.556986     2.551167
      2.545349     2.539530     2.533711     2.527893     2.522074     2.516256     2.510437     2.504618     2.498800     2.492981
      2.487163     2.481344     2.475525     2.469707     2.463888     2.458070     2.452251     2.446432     2.440614     2.434795
      2.428977     2.423158     2.417339     2.411521     2.405702     2.399884     2.394065     2.388246     2.382428     2.376609
      2.370790     2.364972     2.359153     2.353335     2.347516     2.341697     2.335879     2.330060     2.324242     2.318423
      2.312604     2.306786     2.300967     2.295149     2.289330     2.283511     2.277693     2.271874     2.266056     2.260237
      2.254418     2.248600     2.242781     2.236963     2.231144     2.225325     2.219507     2.213688     2.207870     2.202051
      2.196232     2.190414     2.184595     2.178777     2.172958     2.167139     2.161321     2.155502     2.149683     2.143865
      2.138046     2.132228     2.126409     2.120590     2.114772     2.108953     2.103135     2.097316     2.091497     2.085679
      2.079860     2.074042     2.068223     2.062404     2.056586     2.050767     2.044949     2.039130     2.033311     2.027493
      2.021674     2.015856     2.010037     2.004218     1.998400     1.992581     1.986763     1.980944     1.975126     1.969307
      1.963489     1.957670     1.951852     1.946033     1.940215     1.934397     1.928578     1.922760     1.916941     1.911123
      1.905304     1.899486     1.893667     1.887849     1.882030     1.876212     1.870393     1.864575     1.858756     1.852938
      1.847119     1.841301     1.835482     1.829664     1.823845     1.818027     1.812208     1.806390     1.800571     1.794753
      1.788934     1.783116     1.777297     1.771479     1.765660     1.759842     1.754023     1.748205     1.742386     1.736568
      1.730749     1.724931     1.719113     1.713294     1.707476     1.701657     1.695839     1.690020     1.684202     1.678383
      1.672565     1.666746     1.660928     1.655109     1.649291     1.643472     1.637654     1.631835     1.626017     1.620198
      1.614380     1.608561     1.602743     1.596924     1.591106     1.585287     1.579469     1.573650     1.567832     1.562013
      1.556195     1.550376     1.544558     1.538739     1.532921     1.527102     1.521284     1.515465     1.509647     1.503829
      1.498010     1.492192     1.486373     1.480555     1.474736     1.468918     1.463099     1.457281     1.451462     1.445644
      1.439825     1.434007     1.428188     1.422370     1.416551     1.410733     1.404914     1.399096     1.393277     1.387459
      1.381640     1.375822     1.370003     1.364185     1.358366     1.352548     1.346729     1.340911     1.335092     1.329274
      1.323455     1.317637     1.311818     1.306000     1.300182     1.294363     1.288545     1.282726     1.276908     1.271089
      1.265271     1.259452     1.253634     1.247815     1.241997     1.236178     1.230360     1.224541     1.218723     1.212904
      1.207086     1.201267     1.195449     1.189630     1.183812     1.177993     1.172175     1.166356     1.160538     1.154719
      1.148901     1.143082     1.137264     1.131445     1.125627     1.119808     1.113990     1.108171     1.102353     1.096534
      1.090716     1.084898     1.079079     1.073261     1.067442     1.061624     1.055805     1.049987     1.044168     1.038350
      1.032531     1.026713     1.020894     1.015076     1.009257     1.003439     0.997620     0.991802     0.985983     0.980165
      0.974346     0.968528     0.962709     0.956891     0.951072     0.945254     0.939435     0.933617     0.927798     0.921980
      0.916161     0.910343     0.904524     0.898706     0.892887     0.887069     0.881251     0.875432     0.869614     0.863795
      0.857977     0.852158     0.846340     0.840521     0.834703     0.828884     0.823066     0.817247     0.811429     0.805610
      0.799792     0.793973     0.788155     0.782336     0.776518     0.770699     0.764881     0.759062     0.753244     0.747425
      0.741607     0.735788     0.729970     0.724151     0.718333     0.712514     0.706696     0.700877     0.695059     0.689240
      0.683422     0.677603     0.671785     0.665967     0.660148     0.654330     0.648511     0.642693     0.636874     0.631056
      0.625237     0.619419     0.613600     0.607782     0.601963     0.596145     0.590326     0.584508     0.578689     0.572871
      0.567052     0.561234     0.555415     0.549597     0.543778     0.537960     0.532141     0.526323     0.520504     0.514686
      0.508867     0.503049     0.497230     0.491412     0.485593     0.479775     0.473956     0.468138     0.462319     0.456501
      0.450682     0.444864     0.439045     0.433227     0.427408     0.421590     0.415771     0.409953     0.404134     0.398316
      0.392497     0.386679     0.380860     0.375042     0.369223     0.363405     0.357586     0.351767     0.345949     0.340130
      0.334312     0.328493     0.322675     0.316856     0.311038     0.305219     0.299401     0.293582     0.287764     0.281945
      0.276127     0.270308     0.264490     0.258671     0.252853     0.247034     0.241216     0.235397     0.229579     0.223760
      0.217942     0.212123     0.206305     0.200486
 NY phased data points follow
   1.73477E-01  1.54040E-01  1.50848E-01  1.60051E-02  5.83851E-02 -5.32391E-02 -6.52765E-02 -2.66489E-01 -2.66346E-01 -1.82009E-01
  -2.58722E-01  8.55233E-02  9.12941E-03  5.44118E-01  1.40930E-01  6.21118E-02  5.10504E-01  2.00283E-01  8.84642E-02  1.37235E-01
   1.95991E-01 -4.07003E-01 -2.47275E-01  1.44524E-02 -2.08296E-01 -7.40413E-02  1.26465E-01  2.50931E-01  2.21301E-01  6.83628E-02
  -2.23687E-02  2.30266E-01  1.05813E-01 -8.81654E-02  1.50257E-02 -1.62288E-01 -3.33160E-01 -3.96148E-01 -4.34722E-01 -4.02431E-01
  -3.08934E-01 -9.67051E-02 -4.75743E-02  1.23272E-01  4.41587E-01  4.54276E-01  4.66793E-01  3.93962E-01  3.27021E-01  2.46553E-01
   8.75293E-03  2.88528E-01  1.23079E-01 -9.04539E-02  5.66867E-02 -2.23276E-02 -2.68342E-02 -1.64495E-01 -3.36962E-01 -2.96078E-01
  -8.22209E-02 -4.43295E-01 -5.66917E-01 -4.31657E-01 -2.47759E-01 -3.25027E-01 -1.64741E-01  2.66093E-01  1.92174E-01  4.92109E-01
   2.20071E-01  3.18958E-01  3.56394E-01  1.71552E-01  6.64213E-02 -3.63071E-02 -3.87352E-02 -1.06968E-01  6.10426E-02 -3.78182E-01
  -4.51269E-01 -3.60448E-01 -3.92574E-01 -1.55172E-01  1.79147E-01  6.29828E-02  3.78400E-01  5.19082E-01  1.62901E-01  2.65807E-01
   2.30043E-01  2.11377E-01  1.51155E-01  2.39203E-01  1.43223E-01  1.03944E-01 -8.89776E-02  2.39411E-01 -4.57048E-02 -2.52137E-01
  -2.62750E-02 -3.69565E-01 -6.29629E-02 -1.86258E-01  1.00855E-01  2.89972E-01  4.17398E-01  4.64589E-01  3.06252E-01  3.60378E-01
   3.03129E-01  4.20366E-01  5.04467E-01  4.33398E-01  2.25681E-01  3.32671E-01  1.48564E-01  1.87767E-01  1.77592E-01  1.69601E-01
   1.15548E-01  1.53626E-01  8.87846E-02 -1.61674E-01  1.42795E-01 -2.62537E-01 -2.18964E-01 -9.07301E-02 -4.90018E-01 -4.62246E-01
  -4.61423E-01 -3.35927E-01 -5.86243E-01 -7.18542E-01 -3.36632E-01 -5.38420E-01 -5.69821E-01 -5.99729E-01 -8.05696E-01 -4.78416E-01
  -3.96288E-01 -3.39956E-01 -2.72275E-01 -2.68286E-01 -1.50335E-01  2.58945E-02  2.56613E-01  3.58823E-02 -3.63580E-02  1.60947E-01
   3.99261E-02  3.15609E-02  3.27002E-02  2.43923E-01  4.99597E-01  5.96938E-02 -1.71769E-01  3.89965E-01  1.74991E-01  1.61137E-01
   3.29741E-01  2.08555E-02  4.60944E-01  4.39545E-01  6.15100E-01  7.37674E-01  1.00696E+00  1.04337E+00  3.32198E-01 -4.05222E-01
  -7.72740E-01 -4.19410E-01 -6.65055E-01 -4.06691E-01 -4.48169E-01 -6.23375E-01 -3.75595E-01 -2.34879E-01 -3.64422E-01 -4.86167E-01
  -5.45303E-01 -6.59411E-01 -3.83987E-01 -2.96916E-01 -1.33884E-01 -3.81507E-01 -4.05251E-01 -5.63237E-01 -2.03770E-01 -1.45982E-01
  -2.93212E-01 -2.04837E-01 -4.82359E-01 -1.40591E-01 -3.29914E-01 -2.58089E-01 -4.10329E-01 -2.91293E-01 -1.49521E-01 -9.82283E-02
  -7.25726E-02 -1.68022E-01 -6.66844E-02 -2.33806E-01  3.01898E-02 -6.51200E-02 -3.55999E-02 -2.11978E-01 -1.79479E-01  1.01153E-01
  -1.61687E-01 -3.57589E-01 -1.58519E-01 -8.38926E-03  1.39115E-02 -2.75179E-03 -1.86817E-01 -1.63484E-03  2.67536E-03 -1.28844E-01
   1.14336E-02  5.39469E-02 -8.17877E-02  8.34827E-02 -3.65676E-03  1.68721E-01  2.56795E-01  3.14743E-01  3.98614E-01  1.07598E-01
   4.89894E-01  4.18004E-01  2.69653E-01  2.77551E-01  2.52446E-01  3.01980E-01  3.42856E-01  2.98339E-01  1.87404E-01  6.62754E-02
  -1.19389E-01  1.08252E-01  1.52367E-01  5.32318E-02 -1.13666E-01  2.06350E-01  3.97403E-01 -1.37096E-01 -1.83362E-02  1.56246E-01
   4.20782E-02  3.48304E-01  2.78446E-01  1.05712E-01  1.93030E-01 -8.69302E-02 -2.26192E-02  3.76701E-01  1.31344E-01  1.29177E-01
   3.36274E-01  1.30804E-01  2.32867E-01 -5.77015E-02  1.27919E-01  2.91862E-01  1.97076E-01  2.79990E-01  1.61645E-01  5.17603E-01
   5.91173E-02  1.61649E-01  1.78384E-01 -5.77596E-02  1.92514E-01  3.78073E-02  1.22748E-01 -2.74974E-01  6.66966E-02 -5.98363E-02
  -3.76192E-01 -1.25726E-02 -2.97064E-01 -4.41902E-01 -5.42414E-01  2.45469E-02  1.72364E-01  1.83902E-01  3.06540E-01  3.65136E-01
   6.70292E-01  3.19020E-01  2.49567E-01  2.16079E-01  2.21754E-01  1.91371E-01  4.40588E-02  5.13801E-03  1.39813E-01 -9.90858E-03
   2.14728E-01  5.99570E-01  2.18243E-01  2.34240E-01  2.06432E-01  4.84784E-01  1.82889E-01  1.21876E-01  4.73520E-01  2.52163E-01
   4.90137E-01  4.31638E-01  2.77783E-01  3.56518E-01  3.33899E-01  4.74854E-02  1.72642E-01  1.18708E-01  6.91921E-02 -5.48867E-02
  -3.07493E-01 -5.11883E-02 -1.65448E-01 -9.34815E-02 -1.44824E-01 -7.89529E-02 -1.78630E-02 -2.24202E-01  1.47140E-01  6.66261E-02
  -1.88708E-01  2.58836E-02  2.26832E-03  1.15437E-01  3.11732E-02 -2.28900E-01 -2.72670E-01 -2.22648E-01 -2.59822E-01 -3.77355E-01
  -1.91914E-01 -5.48600E-01 -1.34485E+00 -2.32256E+00 -2.07897E+00 -8.71501E-01 -6.94180E-01 -3.99170E-01 -1.26311E-01 -1.71390E-01
  -8.90355E-02  6.09306E-02  2.32227E-01  3.98765E-02  1.04450E-01 -1.00502E-02 -8.35869E-02  9.87580E-02 -1.15467E-01  2.07849E-01
   3.11096E-02 -1.52376E-01 -1.47940E-02 -1.61403E-01 -6.87629E-02 -2.41682E-01  1.93967E-03 -2.42374E-02 -1.57461E-01  1.73263E-02
  -2.36108E-02  3.15007E-03 -2.66491E-01 -8.34506E-02  1.17281E-01 -3.34731E-02  3.06265E-01  1.93557E-01  2.44685E-01  3.94798E-01
   8.72514E-02  2.98003E-01  1.40675E-01 -1.01869E-01  3.27062E-01  2.89001E-01 -7.70351E-02  1.94175E-01  1.92791E-01  2.32017E-01
   3.73383E-01  9.52496E-02  1.65819E-01  3.30788E-01  1.97980E-01  1.93128E-01  3.07456E-01  1.14725E-01  3.01345E-01  4.21785E-01
   3.16071E-01  1.63116E-02 -1.24647E-01 -4.06335E-03 -9.06122E-02  2.19092E-01  3.02559E-01  7.74680E-03  1.66444E-02 -1.38706E-01
  -2.35958E-01  8.04412E-02 -5.72063E-02  5.44010E-02 -1.57334E-01 -1.39572E-01  1.71162E-02 -1.26808E-01 -7.71027E-02 -2.57459E-01
  -1.49530E-02 -8.37248E-02  4.90425E-02 -1.64731E-01  6.76763E-03 -8.85697E-02 -4.24751E-01 -3.23790E-02 -1.72841E-01  3.99900E-02
  -1.69737E-01 -2.37561E-01 -1.78964E-01 -1.67898E-01  5.20140E-02 -9.53982E-02 -8.40435E-02  2.22539E-01  1.86715E-01 -1.11172E-02
  -1.48024E-01 -2.35673E-01  9.86239E-02  1.53043E-01  3.91129E-02  2.23977E-01  1.46733E-01  3.55830E-02  4.04915E-01  1.51689E-01
   5.71582E-02  2.33738E-01  2.70183E-01  5.39222E-02 -2.90197E-02  1.72223E-01 -1.70022E-01 -2.19009E-02 -1.13191E-01 -1.16515E-01
   8.29569E-02  2.02461E-01  1.82300E-01  3.88519E-02  1.43204E-02  1.94183E-01  1.36225E-01 -3.34240E-01 -7.83309E-02 -6.78120E-02
  -1.86387E-01 -3.23664E-01 -3.16118E-02  8.43590E-03 -2.72590E-01  1.73964E-01 -8.72341E-02 -3.91840E-01 -6.07736E-02 -6.21119E-03
  -4.82473E-02  2.05391E-03 -1.87290E-01 -2.38163E-01  1.16804E-01  9.03393E-02 -1.27947E-01  2.12918E-01  5.61901E-02  2.40186E-01
   1.75284E-01 -1.66829E-01 -5.94327E-02 -1.38892E-01  1.11168E-01 -1.16673E-01  2.41413E-01  2.30300E-01 -3.07296E-02  1.63471E-01
  -6.75321E-02  1.32026E-01  1.03706E-01  6.40877E-02  2.98995E-01  1.04362E-01 -1.90760E-02 -1.18024E-02 -1.22472E-01  2.98407E-01
   2.88607E-01 -1.39130E-01  7.06978E-02  2.34983E-01  6.61491E-02  1.60529E-01  1.86711E-01  2.58621E-01  5.03388E-02 -1.63485E-01
   7.10276E-02 -1.27388E-01 -1.70834E-01 -2.91604E-01 -2.56341E-01 -1.35574E-01 -9.60382E-02 -3.78183E-01 -2.23591E-01 -1.65857E-01
  -6.91659E-01 -3.08693E-01 -2.04141E-01 -1.49517E-01 -5.00056E-01 -4.61508E-01 -8.24950E-02 -1.40972E-01 -9.23694E-02 -2.22896E-01
  -2.59940E-01 -1.96198E-01  2.71109E-02 -2.43035E-01 -3.18641E-01 -2.24165E-01  5.52305E-03 -1.61098E-01 -1.25145E-01  4.15382E-01
   1.52021E-01  3.50535E-01  6.77234E-02  2.56589E-02  2.67334E-01 -9.58577E-02  2.32207E-01  1.88970E-01  7.89014E-02  1.22253E-01
   1.07747E-01  1.98955E-01  2.29670E-01  2.61385E-01  1.60739E-02 -6.63345E-03  3.12581E-02  1.54236E-01  1.92211E-01  1.62389E-01
   8.76047E-02 -1.57867E-01  4.95888E-03 -3.55923E-02 -9.66153E-02  1.25540E-01  2.86414E-02  6.48479E-02  2.59576E-01  1.07054E-01
   1.56448E-01 -1.08827E-01 -2.49477E-01  7.36811E-02  9.10885E-04  1.04501E-01  1.52637E-01  1.07669E-01  2.76848E-01  2.43040E-01
   1.28943E-01  8.08932E-02 -2.56043E-01 -2.49604E-01 -1.33535E-02  1.08271E-01  5.69549E-02 -2.70765E-02  7.92487E-02  1.26075E-01
   1.93860E-01 -6.74372E-02  9.79266E-03 -1.49654E-01 -1.52995E-01  9.15201E-03 -1.97729E-01  1.81363E-01  7.86486E-02 -8.58298E-03
   2.40618E-01  3.38232E-02  1.76130E-01  2.91417E-01  6.30227E-02  2.51021E-01  2.05526E-02 -1.29332E-01 -5.92039E-02  2.00010E-02
   2.93435E-01  1.18616E-02 -4.81112E-02  6.19369E-02  8.98489E-02  1.00371E-01  1.53371E-01 -4.27871E-02  2.01094E-01  3.21436E-01
  -3.83485E-01  6.73374E-02  4.14014E-01  7.08675E-02 -3.49538E-02 -6.66344E-03  1.25232E-01 -3.80236E-02 -1.11604E-01 -9.49058E-02
  -5.94200E-02  4.02850E-02  2.52099E-01  1.99455E-02 -1.31286E-01  2.72669E-01  5.85214E-02  1.21910E-01  1.42915E-01  1.78879E-01
   6.59618E-02 -1.43119E-01  2.44664E-01 -8.31674E-02
 NY points of the fit to the data follow
   7.72985E-02  7.47342E-02  6.17720E-02  4.29389E-02  2.49206E-02  1.16685E-02  9.35663E-03  2.14295E-03  5.10309E-03  2.87153E-02
   3.04688E-02  4.86938E-02  2.14231E-01  3.81458E-01  3.76453E-01  3.72476E-01  4.57844E-01  4.46636E-01  2.90513E-01  1.63873E-01
   1.13353E-01  4.83804E-02  1.93961E-02 -2.04589E-03 -2.66214E-02 -5.05319E-02 -6.99374E-02 -8.71294E-02 -9.95969E-02 -1.11179E-01
  -1.23087E-01 -1.34578E-01 -1.42391E-01 -1.56401E-01 -1.79389E-01 -2.09021E-01 -2.39986E-01 -2.69400E-01 -2.93030E-01 -3.05633E-01
  -2.78498E-01 -1.79880E-01 -5.45611E-02  5.87821E-02  1.61644E-01  2.52092E-01  2.87904E-01  2.81946E-01  2.33067E-01  2.04116E-01
   1.64009E-01  1.36312E-01  9.07137E-02  6.00447E-02  2.61233E-02 -1.81808E-02 -6.45152E-02 -1.13064E-01 -1.74477E-01 -2.35074E-01
  -2.83867E-01 -3.83907E-01 -4.35842E-01 -3.13932E-01 -3.20903E-01 -3.79390E-01 -1.70892E-01  4.88046E-02  1.14139E-01  1.64979E-01
   3.55250E-01  3.78445E-01  2.71321E-01  2.36838E-01  1.65093E-01  9.13911E-02 -5.63222E-03 -8.61446E-02 -1.67653E-01 -3.75771E-01
  -5.44708E-01 -4.25500E-01 -2.35036E-01 -1.11337E-01  3.94792E-02  2.74320E-01  3.83042E-01  3.61722E-01  3.52246E-01  3.18692E-01
   2.84571E-01  2.62102E-01  2.40010E-01  2.14566E-01  1.76463E-01  1.34977E-01  7.47949E-02 -2.59360E-02 -1.44627E-01 -2.60889E-01
  -3.33835E-01 -2.80551E-01 -1.62310E-01  1.77048E-02  1.24226E-01  2.11428E-01  2.24281E-01  2.40234E-01  2.41341E-01  2.43226E-01
   2.44654E-01  2.48124E-01  2.49327E-01  2.50375E-01  2.49651E-01  2.49679E-01  2.50643E-01  2.55493E-01  2.54035E-01  2.43346E-01
   2.49456E-01  2.23286E-01  1.33007E-01  9.85848E-02  4.50085E-02 -9.54522E-02 -1.47088E-01 -1.70580E-01 -2.43005E-01 -4.01688E-01
  -5.40325E-01 -5.02708E-01 -5.30146E-01 -4.09310E-01 -2.93123E-01 -1.86647E-01 -5.21544E-01 -7.98472E-01 -7.64309E-01 -4.89242E-01
  -3.51159E-01 -2.32894E-01 -1.38146E-01 -8.17171E-02 -4.00465E-02 -6.10179E-03  2.39828E-02  4.99364E-02  7.35832E-02  9.36607E-02
   1.11475E-01  1.28246E-01  1.45234E-01  1.60828E-01  1.76671E-01  1.95047E-01  2.13834E-01  2.35740E-01  2.60734E-01  2.87360E-01
   3.15158E-01  3.52705E-01  4.10685E-01  5.34015E-01  5.89038E-01  5.74988E-01  8.20804E-01  9.47739E-01  2.82522E-01 -4.62890E-01
  -7.64948E-01 -5.42300E-01 -5.65616E-01 -4.70920E-01 -4.28969E-01 -3.98084E-01 -3.79299E-01 -3.41550E-01 -3.09045E-01 -2.91813E-01
  -2.84909E-01 -2.66413E-01 -2.45384E-01 -2.29399E-01 -2.18490E-01 -2.13806E-01 -2.06677E-01 -2.04099E-01 -1.88825E-01 -1.81171E-01
  -1.73381E-01 -1.66244E-01 -1.54920E-01 -1.45114E-01 -1.34873E-01 -1.24580E-01 -1.15589E-01 -1.07157E-01 -9.84852E-02 -8.96680E-02
  -8.34413E-02 -7.74092E-02 -7.11038E-02 -6.53163E-02 -6.14066E-02 -6.08248E-02 -5.97612E-02 -5.59444E-02 -5.11604E-02 -4.98119E-02
  -5.12181E-02 -5.06914E-02 -4.67530E-02 -4.19812E-02 -3.79343E-02 -3.37696E-02 -2.99187E-02 -2.42023E-02 -2.13526E-02 -2.31330E-02
  -2.87945E-02 -1.68328E-02  1.49569E-02  2.37527E-02  5.00549E-02  1.80192E-01  3.13674E-01  3.18069E-01  2.13413E-01  2.00031E-01
   3.28578E-01  4.30999E-01  3.70625E-01  2.26953E-01  1.19061E-01  6.93624E-02  2.14347E-02  5.85559E-04 -1.43314E-02 -2.64558E-02
  -3.82453E-02 -5.00836E-02 -6.00827E-02 -6.73189E-02 -7.21497E-02 -7.66398E-02 -8.36611E-02 -8.81132E-02 -9.24180E-02 -9.63503E-02
  -9.61317E-02 -1.02308E-01 -1.17709E-01 -1.30745E-01 -1.34746E-01 -1.84729E-01 -1.72547E-01 -3.19883E-02  3.17630E-02  2.75617E-02
   6.78514E-02  2.08852E-01  2.24640E-01  1.67174E-01  2.01530E-01  2.28447E-01  2.24041E-01  1.72446E-01  1.59093E-01  1.53776E-01
   1.33616E-01  1.24031E-01  8.98358E-02  6.53612E-02  2.98293E-02  2.69423E-04 -3.21738E-02 -7.02531E-02 -1.13297E-01 -1.57208E-01
  -2.12794E-01 -2.83627E-01 -3.20426E-01 -3.44041E-01 -3.18098E-01 -1.92849E-01 -1.27370E-02  1.73487E-01  3.12932E-01  3.82464E-01
   3.64119E-01  3.01690E-01  2.59250E-01  2.14091E-01  1.81658E-01  1.71537E-01  1.87251E-01  2.10802E-01  2.40828E-01  2.53876E-01
   2.66964E-01  2.57492E-01  2.55221E-01  2.47659E-01  2.42642E-01  2.38295E-01  2.31291E-01  2.24986E-01  2.15237E-01  2.01438E-01
   1.86466E-01  1.67456E-01  1.48129E-01  1.29062E-01  1.06253E-01  8.29268E-02  4.83990E-02  2.08207E-03 -5.66607E-02 -1.13252E-01
  -1.52829E-01 -1.88365E-01 -2.00049E-01 -2.05784E-01 -1.91202E-01 -1.53361E-01 -9.58769E-02 -2.46633E-02  2.67603E-02  7.41610E-02
   8.00235E-02  7.02939E-02  2.43061E-02 -3.81973E-02 -7.84884E-02 -1.19126E-01 -1.28997E-01 -1.43631E-01 -1.80197E-01 -3.29392E-01
  -2.34400E-01 -4.57448E-01 -1.49467E+00 -2.22326E+00 -1.94946E+00 -1.08781E+00 -7.03516E-01 -4.30594E-01 -2.31632E-01 -1.46171E-01
  -9.21811E-02 -5.65072E-02 -2.82237E-02 -6.27872E-03  9.39098E-03  2.18718E-02  3.41353E-02  4.32891E-02  4.69937E-02  4.80938E-02
   3.86660E-02  2.19329E-02  3.95092E-03 -2.45498E-02 -3.75168E-02 -5.44562E-02 -4.36483E-02 -3.97163E-02 -1.75482E-02 -5.58342E-03
   1.07166E-02  2.22669E-02  3.34239E-02  4.43510E-02  5.28169E-02  5.84034E-02  6.33139E-02  6.86806E-02  7.43835E-02  7.97395E-02
   8.43894E-02  8.72114E-02  9.13099E-02  9.49172E-02  9.97216E-02  1.03404E-01  1.06585E-01  1.07319E-01  1.09253E-01  1.12969E-01
   1.16921E-01  1.22042E-01  1.25530E-01  1.28652E-01  1.27806E-01  1.25898E-01  1.22596E-01  1.20294E-01  1.17795E-01  1.14475E-01
   1.09005E-01  1.02186E-01  9.53231E-02  8.83028E-02  7.90020E-02  6.97216E-02  6.24387E-02  5.67759E-02  4.87781E-02  4.14876E-02
   3.47314E-02  2.86775E-02  2.34964E-02  1.89045E-02  1.48136E-02  1.03649E-02  6.76334E-03  2.78224E-03 -1.09871E-03 -4.36313E-03
  -6.13359E-03 -8.43175E-03 -1.09962E-02 -1.19019E-02 -1.06443E-02 -9.09708E-03 -6.82967E-03 -2.77506E-03  1.77811E-03  6.61970E-03
   1.35096E-02  1.83927E-02  2.02312E-02  2.15274E-02  2.60677E-02  3.35173E-02  4.22487E-02  5.11543E-02  5.89075E-02  6.67008E-02
   7.64823E-02  8.84129E-02  1.00785E-01  1.14225E-01  1.27476E-01  1.40544E-01  1.53929E-01  1.67582E-01  1.79493E-01  1.88333E-01
   1.94477E-01  1.97754E-01  1.99203E-01  1.99771E-01  1.98379E-01  1.95983E-01  1.91587E-01  1.84557E-01  1.72851E-01  1.60261E-01
   1.47940E-01  1.36869E-01  1.25364E-01  1.14314E-01  1.01889E-01  8.98552E-02  8.05381E-02  7.22920E-02  6.37935E-02  5.49299E-02
   4.85575E-02  4.25846E-02  3.78051E-02  3.26915E-02  2.85894E-02  2.77278E-02  2.94952E-02  3.11310E-02  3.36454E-02  3.78027E-02
   4.26180E-02  4.71803E-02  5.36435E-02  6.07620E-02  6.62449E-02  7.05885E-02  7.43103E-02  7.70097E-02  7.80515E-02  8.08961E-02
   8.52235E-02  8.80437E-02  8.85228E-02  8.69041E-02  8.49412E-02  8.32989E-02  7.99631E-02  7.53695E-02  7.03802E-02  6.77971E-02
   6.43929E-02  6.01322E-02  5.58529E-02  5.13808E-02  4.73533E-02  4.30251E-02  3.81209E-02  3.23598E-02  2.81750E-02  2.59633E-02
   2.32088E-02  1.86415E-02  1.39459E-02  9.49483E-03  3.18287E-03 -5.18113E-03 -1.43932E-02 -2.32544E-02 -3.25847E-02 -4.38789E-02
  -5.78884E-02 -7.55501E-02 -9.59604E-02 -1.15480E-01 -1.34569E-01 -1.53408E-01 -1.73026E-01 -1.89314E-01 -2.03632E-01 -2.16826E-01
  -2.29969E-01 -2.38273E-01 -2.40367E-01 -2.39995E-01 -2.39968E-01 -2.37046E-01 -2.29679E-01 -2.20819E-01 -2.12253E-01 -2.03848E-01
  -1.96243E-01 -1.89218E-01 -1.79850E-01 -1.69090E-01 -1.58212E-01 -1.46618E-01 -1.33574E-01 -1.20285E-01 -1.08275E-01 -9.54522E-02
  -8.35119E-02 -7.33217E-02 -6.19339E-02 -5.02569E-02 -3.97642E-02 -3.27862E-02 -2.55956E-02 -1.61270E-02 -6.74344E-03 -1.86607E-03
   2.04945E-03  7.48591E-03  1.30251E-02  1.68973E-02  1.99213E-02  2.25243E-02  2.40595E-02  2.69319E-02  2.90410E-02  2.88126E-02
   2.96555E-02  3.24227E-02  3.51046E-02  3.71041E-02  4.01329E-02  4.32595E-02  4.35423E-02  4.36462E-02  4.45000E-02  4.41330E-02
   4.38945E-02  4.43946E-02  4.41389E-02  4.32188E-02  4.35456E-02  4.43020E-02  4.41755E-02  4.39917E-02  4.54989E-02  4.77856E-02
   4.66223E-02  4.15632E-02  3.87366E-02  4.06972E-02  4.23829E-02  4.10339E-02  4.06868E-02  4.24095E-02  4.19600E-02  3.95528E-02
   3.78223E-02  3.96428E-02  4.18077E-02  4.29791E-02  4.37472E-02  4.43915E-02  4.62246E-02  4.82019E-02  4.94634E-02  4.96959E-02
   5.09397E-02  5.26893E-02  5.26712E-02  5.01918E-02  4.97767E-02  5.03012E-02  5.21620E-02  5.32196E-02  5.54148E-02  5.73351E-02
   5.82342E-02  5.82297E-02  6.00994E-02  6.37151E-02  6.73499E-02  6.91739E-02  6.85724E-02  6.68752E-02  6.55395E-02  6.71783E-02
   6.97736E-02  7.07363E-02  7.02745E-02  6.96999E-02  7.00228E-02  7.13852E-02  7.36352E-02  7.39119E-02  7.28537E-02  7.51056E-02
   7.91756E-02  8.08830E-02  8.10851E-02  8.25486E-02  8.49973E-02  8.74420E-02  8.90517E-02  9.16675E-02  9.67131E-02  1.03552E-01
   1.08126E-01  1.11573E-01  1.15260E-01  1.18504E-01
 NY background values follow
     1.943E-02    1.971E-02    1.999E-02    2.027E-02    2.055E-02    2.083E-02    2.112E-02    2.140E-02    2.168E-02    2.196E-02
     2.224E-02    2.252E-02    2.280E-02    2.308E-02    2.337E-02    2.365E-02    2.393E-02    2.421E-02    2.449E-02    2.477E-02
     2.505E-02    2.533E-02    2.561E-02    2.589E-02    2.617E-02    2.645E-02    2.672E-02    2.700E-02    2.728E-02    2.756E-02
     2.784E-02    2.811E-02    2.839E-02    2.866E-02    2.894E-02    2.922E-02    2.949E-02    2.976E-02    3.004E-02    3.031E-02
     3.058E-02    3.086E-02    3.113E-02    3.140E-02    3.167E-02    3.194E-02    3.221E-02    3.248E-02    3.274E-02    3.301E-02
     3.328E-02    3.354E-02    3.381E-02    3.407E-02    3.434E-02    3.460E-02    3.486E-02    3.512E-02    3.539E-02    3.565E-02
     3.591E-02    3.617E-02    3.642E-02    3.668E-02    3.694E-02    3.720E-02    3.745E-02    3.771E-02    3.796E-02    3.821E-02
