 LCModel (Version 6.3-1N) Copyright: S.W. Provencher.          Ref.: Magn. Reson. Med. 30:672-679 (1993).                
 Slice_N1@22_16  02-Jun-2023 14:37:17
 27 lines in following concentration table = NCONC+1
    Conc.  %SD /Cr+PCr  Metabolite                                         
 2.11E-06  15% 2.5E-04 Mac                                                 
 4.48E-02  23%   5.223 Cr                                                  
 2.38E-02  44%   2.777 PCr                                                 
 7.25E-02  12%   8.453 Ins                                                 
    0.102   7%  11.842 NAA                                                 
 6.71E-02  12%   7.824 Tau                                                 
 1.69E-02  13%   1.964 PCho                                                
    0.000 999%   0.000 GPC                                                 
 7.34E-02  13%   8.549 Glu                                                 
 2.69E-02  27%   3.129 Gln                                                 
 2.45E-04 999% 2.9E-02 Ala                                                 
 3.53E-02  37%   4.119 Asc                                                 
 1.24E-02  64%   1.447 Asp                                                 
 1.42E-02  30%   1.655 GABA                                                
 1.03E-02  51%   1.203 Glc                                                 
 9.66E-03  44%   1.126 GSH                                                 
    0.000 999%   0.000 Lac                                                 
 6.26E-03  89%   0.730 NAAG                                                
    0.000 999%   0.000 PE                                                  
 1.69E-02  13%   1.964 GPC+PCho                                            
    0.108   7%  12.571 NAA+NAAG                                            
    0.100  12%  11.678 Glu+Gln                                             
 6.87E-02   9%   8.000 Cr+PCr                                              
    0.108   7%  12.571 NAA+NAAG                                            
 6.87E-02   9%   8.000 Cr+PCr                                              
    0.100  12%  11.678 Glu+Gln                                             
   6 lines in following misc. output table
  FWHM = 0.029 ppm    S/N =   4                                            
  Data shift = 0.012 ppm                                                   
  Ph: -16 deg     -11.8 deg/ppm                                            
  alphaB,S = 9.7E-01,   2.4E+01                                            
   18 spline knots.   Ns = 7(1)                                            
  ( 6) 3 infls.   ( 5) 1 extrs.                                            
  654 points on ppm-axis = NY
      4.000000     3.994181     3.988363     3.982544     3.976726     3.970907     3.965088     3.959270     3.953451     3.947633
      3.941814     3.935995     3.930177     3.924358     3.918540     3.912721     3.906902     3.901084     3.895265     3.889446
      3.883628     3.877809     3.871991     3.866172     3.860353     3.854535     3.848716     3.842898     3.837079     3.831260
      3.825442     3.819623     3.813805     3.807986     3.802167     3.796349     3.790530     3.784712     3.778893     3.773074
      3.767256     3.761437     3.755619     3.749800     3.743981     3.738163     3.732344     3.726526     3.720707     3.714888
      3.709070     3.703251     3.697433     3.691614     3.685795     3.679977     3.674158     3.668339     3.662521     3.656702
      3.650884     3.645065     3.639246     3.633428     3.627609     3.621791     3.615972     3.610153     3.604335     3.598516
      3.592698     3.586879     3.581060     3.575242     3.569423     3.563605     3.557786     3.551967     3.546149     3.540330
      3.534512     3.528693     3.522874     3.517056     3.511237     3.505419     3.499600     3.493781     3.487963     3.482144
      3.476326     3.470507     3.464688     3.458870     3.453051     3.447232     3.441414     3.435595     3.429777     3.423958
      3.418139     3.412321     3.406502     3.400684     3.394865     3.389046     3.383228     3.377409     3.371591     3.365772
      3.359953     3.354135     3.348316     3.342498     3.336679     3.330860     3.325042     3.319223     3.313405     3.307586
      3.301767     3.295949     3.290130     3.284312     3.278493     3.272674     3.266856     3.261037     3.255219     3.249400
      3.243581     3.237763     3.231944     3.226125     3.220307     3.214488     3.208670     3.202851     3.197032     3.191214
      3.185395     3.179577     3.173758     3.167939     3.162121     3.156302     3.150484     3.144665     3.138846     3.133028
      3.127209     3.121391     3.115572     3.109753     3.103935     3.098116     3.092298     3.086479     3.080660     3.074842
      3.069023     3.063205     3.057386     3.051567     3.045749     3.039930     3.034111     3.028293     3.022474     3.016656
      3.010837     3.005018     2.999200     2.993381     2.987563     2.981744     2.975925     2.970107     2.964288     2.958470
      2.952651     2.946832     2.941014     2.935195     2.929377     2.923558     2.917739     2.911921     2.906102     2.900284
      2.894465     2.888646     2.882828     2.877009     2.871191     2.865372     2.859553     2.853735     2.847916     2.842098
      2.836279     2.830460     2.824642     2.818823     2.813004     2.807186     2.801367     2.795549     2.789730     2.783911
      2.778093     2.772274     2.766456     2.760637     2.754818     2.749000     2.743181     2.737363     2.731544     2.725725
      2.719907     2.714088     2.708270     2.702451     2.696632     2.690814     2.684995     2.679177     2.673358     2.667539
      2.661721     2.655902     2.650084     2.644265     2.638446     2.632628     2.626809     2.620991     2.615172     2.609353
      2.603535     2.597716     2.591897     2.586079     2.580260     2.574442     2.568623     2.562804     2.556986     2.551167
      2.545349     2.539530     2.533711     2.527893     2.522074     2.516256     2.510437     2.504618     2.498800     2.492981
      2.487163     2.481344     2.475525     2.469707     2.463888     2.458070     2.452251     2.446432     2.440614     2.434795
      2.428977     2.423158     2.417339     2.411521     2.405702     2.399884     2.394065     2.388246     2.382428     2.376609
      2.370790     2.364972     2.359153     2.353335     2.347516     2.341697     2.335879     2.330060     2.324242     2.318423
      2.312604     2.306786     2.300967     2.295149     2.289330     2.283511     2.277693     2.271874     2.266056     2.260237
      2.254418     2.248600     2.242781     2.236963     2.231144     2.225325     2.219507     2.213688     2.207870     2.202051
      2.196232     2.190414     2.184595     2.178777     2.172958     2.167139     2.161321     2.155502     2.149683     2.143865
      2.138046     2.132228     2.126409     2.120590     2.114772     2.108953     2.103135     2.097316     2.091497     2.085679
      2.079860     2.074042     2.068223     2.062404     2.056586     2.050767     2.044949     2.039130     2.033311     2.027493
      2.021674     2.015856     2.010037     2.004218     1.998400     1.992581     1.986763     1.980944     1.975126     1.969307
      1.963489     1.957670     1.951852     1.946033     1.940215     1.934397     1.928578     1.922760     1.916941     1.911123
      1.905304     1.899486     1.893667     1.887849     1.882030     1.876212     1.870393     1.864575     1.858756     1.852938
      1.847119     1.841301     1.835482     1.829664     1.823845     1.818027     1.812208     1.806390     1.800571     1.794753
      1.788934     1.783116     1.777297     1.771479     1.765660     1.759842     1.754023     1.748205     1.742386     1.736568
      1.730749     1.724931     1.719113     1.713294     1.707476     1.701657     1.695839     1.690020     1.684202     1.678383
      1.672565     1.666746     1.660928     1.655109     1.649291     1.643472     1.637654     1.631835     1.626017     1.620198
      1.614380     1.608561     1.602743     1.596924     1.591106     1.585287     1.579469     1.573650     1.567832     1.562013
      1.556195     1.550376     1.544558     1.538739     1.532921     1.527102     1.521284     1.515465     1.509647     1.503829
      1.498010     1.492192     1.486373     1.480555     1.474736     1.468918     1.463099     1.457281     1.451462     1.445644
      1.439825     1.434007     1.428188     1.422370     1.416551     1.410733     1.404914     1.399096     1.393277     1.387459
      1.381640     1.375822     1.370003     1.364185     1.358366     1.352548     1.346729     1.340911     1.335092     1.329274
      1.323455     1.317637     1.311818     1.306000     1.300182     1.294363     1.288545     1.282726     1.276908     1.271089
      1.265271     1.259452     1.253634     1.247815     1.241997     1.236178     1.230360     1.224541     1.218723     1.212904
      1.207086     1.201267     1.195449     1.189630     1.183812     1.177993     1.172175     1.166356     1.160538     1.154719
      1.148901     1.143082     1.137264     1.131445     1.125627     1.119808     1.113990     1.108171     1.102353     1.096534
      1.090716     1.084898     1.079079     1.073261     1.067442     1.061624     1.055805     1.049987     1.044168     1.038350
      1.032531     1.026713     1.020894     1.015076     1.009257     1.003439     0.997620     0.991802     0.985983     0.980165
      0.974346     0.968528     0.962709     0.956891     0.951072     0.945254     0.939435     0.933617     0.927798     0.921980
      0.916161     0.910343     0.904524     0.898706     0.892887     0.887069     0.881251     0.875432     0.869614     0.863795
      0.857977     0.852158     0.846340     0.840521     0.834703     0.828884     0.823066     0.817247     0.811429     0.805610
      0.799792     0.793973     0.788155     0.782336     0.776518     0.770699     0.764881     0.759062     0.753244     0.747425
      0.741607     0.735788     0.729970     0.724151     0.718333     0.712514     0.706696     0.700877     0.695059     0.689240
      0.683422     0.677603     0.671785     0.665967     0.660148     0.654330     0.648511     0.642693     0.636874     0.631056
      0.625237     0.619419     0.613600     0.607782     0.601963     0.596145     0.590326     0.584508     0.578689     0.572871
      0.567052     0.561234     0.555415     0.549597     0.543778     0.537960     0.532141     0.526323     0.520504     0.514686
      0.508867     0.503049     0.497230     0.491412     0.485593     0.479775     0.473956     0.468138     0.462319     0.456501
      0.450682     0.444864     0.439045     0.433227     0.427408     0.421590     0.415771     0.409953     0.404134     0.398316
      0.392497     0.386679     0.380860     0.375042     0.369223     0.363405     0.357586     0.351767     0.345949     0.340130
      0.334312     0.328493     0.322675     0.316856     0.311038     0.305219     0.299401     0.293582     0.287764     0.281945
      0.276127     0.270308     0.264490     0.258671     0.252853     0.247034     0.241216     0.235397     0.229579     0.223760
      0.217942     0.212123     0.206305     0.200486
 NY phased data points follow
  -3.67261E-01 -2.10904E-01 -1.53907E-01  8.03630E-04 -2.05934E-02 -1.23912E-01 -1.93317E-02 -1.64123E-01 -4.56250E-02  2.99662E-02
   3.47888E-03 -1.16671E-01  4.64557E-01  2.66694E-01  9.47917E-02  3.50239E-01  4.59252E-01  1.66288E-01 -1.04846E-01  1.59979E-01
  -1.66279E-02 -6.35172E-02  1.27000E-01  1.60670E-01  2.94075E-02  2.47443E-02 -2.43889E-01 -1.50313E-01 -1.11113E-01 -1.57293E-01
  -6.51411E-02 -2.42281E-01 -2.68283E-01 -1.21666E-01 -2.06560E-01 -2.03287E-01 -2.08934E-01 -5.68551E-01 -2.78360E-01 -2.93976E-02
  -7.83409E-03 -8.81618E-02  7.63186E-02  2.72730E-01  2.04660E-01  3.15143E-01  3.30682E-01  3.86351E-01  5.16615E-01  3.36616E-01
   1.68938E-01  3.65585E-01  2.57795E-01  7.62509E-02 -9.73980E-02  3.17591E-02 -1.55815E-01  1.94225E-01  2.30690E-01 -2.10395E-01
  -2.25240E-02 -3.01065E-01 -1.76978E-01 -2.57496E-01 -3.62179E-01 -4.14548E-01 -1.67432E-01 -2.60862E-01 -1.20312E-01  2.07041E-01
  -1.39378E-01  7.92778E-02  2.93194E-02  3.44575E-01  1.69920E-01 -1.57879E-01 -3.57868E-02 -8.50984E-03 -1.98755E-02 -2.50549E-01
  -4.16104E-01 -2.61521E-01 -2.07461E-01 -1.42285E-01  5.34797E-01  3.38258E-01  3.78918E-02  1.63835E-01  3.49834E-02 -3.48029E-02
   3.07911E-01  1.04275E-01 -6.00037E-02  2.04004E-01 -5.53787E-02  5.34024E-02  1.01077E-01  2.58075E-03 -1.27956E-01  1.42775E-01
  -2.39272E-01 -3.11204E-01 -4.38258E-02 -4.50383E-02  2.96679E-01  1.53901E-01  4.38869E-01  8.75399E-02  3.04383E-01  3.90700E-01
   3.61598E-01  5.75902E-01  5.07546E-01  5.49621E-01  6.80341E-02  5.91695E-01  3.26339E-01  3.35436E-01  2.18785E-01  1.93121E-01
   6.21133E-01  5.91873E-02 -4.44611E-02  1.05970E-01  1.64981E-01 -4.26564E-01 -3.03686E-02 -1.28473E-01 -2.31784E-01 -2.09321E-01
  -6.95105E-01 -5.72007E-01 -8.02621E-01 -3.86926E-01 -4.60412E-01 -4.48020E-01 -6.21180E-01 -7.96732E-01 -7.71737E-01 -9.15503E-01
  -3.08279E-01 -3.94474E-01 -4.06165E-01 -2.03156E-02 -2.80601E-01 -1.84664E-02  1.32712E-01 -1.81136E-01  4.90428E-01  1.19295E-01
  -1.34026E-01  3.79154E-01  1.54439E-01 -9.03631E-02  7.03361E-02  3.79873E-01  2.06203E-02  7.30098E-02  1.89177E-01  3.36545E-01
   4.93996E-01  3.61462E-01  4.97216E-01  7.19501E-01  7.62881E-01  7.58867E-01  7.51057E-01  5.59527E-01  1.31365E-01 -5.03156E-01
  -7.15939E-01 -7.84982E-01 -5.78550E-01 -4.85393E-01 -4.67719E-01 -5.44314E-01 -6.95786E-01 -4.77073E-01 -5.69076E-01 -4.93286E-01
  -2.85508E-01 -2.66142E-01 -1.48558E-01 -1.88567E-01 -4.94655E-01 -2.65869E-01 -1.83130E-01 -4.24162E-01 -4.39957E-01 -4.19526E-01
  -1.07047E-01 -2.45103E-01 -2.94085E-01  3.14402E-02 -1.90402E-01 -1.78833E-01 -2.02843E-01 -1.85064E-01  5.27860E-02 -1.14462E-01
   9.86002E-03 -4.58537E-02 -7.42150E-02  7.93239E-02  1.25107E-01 -9.71318E-02 -2.66911E-01  1.10875E-01  1.78867E-01 -5.54119E-02
   2.79766E-02 -1.12959E-02 -2.36425E-01  1.17375E-01 -1.77810E-01  2.45712E-02  3.94132E-01  3.05874E-02 -8.02365E-02 -1.26506E-01
   2.59353E-01  1.56979E-01 -8.39160E-02 -1.97584E-01 -2.67054E-02  1.11206E-01  3.51806E-01  3.67207E-01  2.14999E-01  4.58829E-01
   2.35580E-01  3.80072E-01  2.57120E-01  2.41221E-01  3.62752E-01 -1.55018E-01 -2.18344E-03  2.55274E-01 -1.59760E-01 -2.38679E-01
  -6.48160E-02  1.16656E-01 -1.31429E-01 -2.86810E-01 -1.40353E-02 -2.88664E-01 -2.54922E-01 -6.49147E-02 -2.67524E-01 -1.57656E-01
  -4.68151E-02 -2.70856E-01 -2.32759E-02 -8.07850E-02  2.58640E-02 -3.58221E-02  3.42147E-02  2.19654E-01 -1.69640E-01  4.65084E-01
   1.44270E-01  6.53836E-02  2.23699E-01 -4.31762E-02  8.00452E-02  7.73826E-02  2.98581E-01  5.86039E-02  1.80622E-01  4.29001E-01
   2.29694E-01  1.68106E-01  5.06100E-01  2.21671E-01 -1.87657E-02  4.04435E-02 -5.28406E-02 -1.72778E-01 -2.69703E-01 -3.74587E-02
  -3.88039E-01 -3.45788E-01 -9.75545E-02 -1.38338E-02 -1.66955E-02  3.72913E-02  4.57737E-01  4.43709E-01  5.31139E-01  5.70535E-01
   3.80292E-01  3.33847E-01  1.83996E-01  2.30327E-01  2.24540E-01  6.35472E-02  5.47556E-02  6.66777E-02  1.75395E-01  1.93340E-01
   4.10822E-01  3.48719E-01  2.22552E-02  2.96686E-01  2.34158E-01  2.21743E-01  4.71869E-01  1.44037E-01  5.45717E-01  4.75617E-01
   1.54617E-01  4.04939E-01  2.76375E-01  4.36027E-01  1.35705E-01  1.69541E-01  1.39359E-01  1.06140E-01 -2.00041E-01 -1.55656E-01
   2.67990E-01 -3.53354E-01 -4.09704E-01 -3.44950E-01  1.25870E-01 -1.48386E-01 -2.40667E-01  6.90932E-02 -4.78478E-02  1.82071E-01
   1.30772E-01  2.49176E-01  1.02072E-01  6.75074E-02 -9.78974E-03 -7.12940E-02 -3.39463E-01 -5.74605E-01 -2.23635E-01 -2.42533E-01
  -4.57937E-01 -3.19178E-01 -9.99887E-01 -1.54365E+00 -1.39591E+00 -1.29114E+00 -7.52697E-01 -4.87139E-01 -5.65363E-02 -2.69985E-01
  -1.60104E-01  8.30081E-02 -8.26643E-02  1.26194E-01  2.32550E-01  2.84452E-01  7.84745E-02  2.21753E-01  1.60330E-01  2.29412E-01
   6.76926E-02  4.22224E-02  8.44240E-02 -8.84012E-02  3.07995E-01 -2.74058E-02 -3.41616E-01  2.05362E-01 -3.68771E-02 -2.61136E-01
   1.54921E-01 -1.01566E-01 -2.30864E-01 -1.92868E-01  1.21980E-01 -2.68036E-02 -6.31863E-02  1.27966E-02 -2.24374E-01 -1.56191E-02
   5.25380E-02  2.77162E-01 -1.26506E-01  2.07541E-01  2.99079E-01 -1.12300E-01  1.92441E-01  8.07704E-02  2.37700E-01  1.40746E-01
   3.92514E-01  4.29587E-01 -2.22162E-01  3.60791E-02  4.18509E-01  3.41544E-01  2.38925E-01  2.03780E-01  1.06213E-01  1.42716E-01
   9.81564E-02 -1.53136E-02  2.28456E-01  9.13933E-02 -1.31781E-01 -7.04591E-03  1.47197E-01  5.01439E-02 -9.24341E-02 -3.95012E-03
  -6.81472E-02 -1.51998E-01 -2.23658E-01 -2.05922E-01 -1.13199E-01 -1.71204E-01 -2.03246E-01 -9.29661E-02 -2.08849E-01 -1.55941E-01
  -3.82632E-01 -4.85965E-01 -1.57056E-01 -4.43627E-01 -3.89851E-01 -9.87637E-02  1.03297E-01  8.95707E-02 -3.58969E-02  5.14410E-02
   3.06596E-01  7.81107E-02 -4.58275E-02  1.85875E-01 -1.20620E-01 -1.17833E-02 -1.00225E-02  4.54099E-02 -3.90095E-03  8.11008E-02
   3.58323E-01 -1.76325E-01 -1.79959E-02  2.58326E-01 -4.78179E-02  1.78051E-01  1.40350E-01 -1.59041E-02  2.82204E-01  1.60301E-01
   1.81522E-01  1.44235E-01  2.63640E-01  4.96173E-01 -3.97917E-03  2.31824E-01  2.99473E-01  4.45531E-02  5.63323E-01 -2.28045E-02
  -2.53994E-01  3.04756E-01  1.65045E-01  2.28712E-01  1.55608E-01  7.84343E-02 -1.53048E-01 -2.84680E-01  1.71672E-01  1.97925E-01
  -1.72438E-01 -1.85997E-01 -3.19347E-01 -3.20116E-01 -2.47211E-01 -3.52221E-01 -1.18160E-01 -1.32131E-01 -1.04091E-01 -1.61360E-01
  -1.37174E-01 -5.54002E-02 -8.06751E-02 -1.98423E-02  1.37273E-01 -4.96696E-02 -1.07741E-01  6.86405E-02 -1.43899E-01  1.65779E-01
   7.42393E-02 -3.32249E-02 -2.34079E-01 -6.03669E-02  1.18041E-01 -2.33638E-01  1.86407E-01 -9.93597E-02 -9.44705E-03  2.44679E-01
   5.62293E-02  3.77015E-01  1.99872E-01 -2.04407E-02 -1.67663E-01  7.12073E-02  5.06763E-01  1.53648E-01  2.19167E-01 -1.33137E-01
  -1.14641E-01  3.98305E-01  3.08318E-01  2.54897E-01 -3.01656E-02  4.02275E-01  1.43244E-01  4.07682E-02  4.78152E-02 -2.54346E-01
   1.39035E-01  1.07721E-01 -3.53498E-02 -3.56500E-01 -5.75234E-02 -2.27452E-01 -4.07809E-01  3.12779E-02 -2.94582E-01 -4.54332E-01
  -4.18370E-01 -3.69585E-01 -2.57710E-01 -1.75818E-01  1.58631E-02  5.25856E-03 -3.48870E-01 -4.16411E-01 -4.54974E-02 -1.54550E-01
  -1.99894E-01  2.08286E-02  7.35010E-02  3.58613E-02 -4.16233E-01 -1.18415E-01 -3.07595E-03 -1.13420E-01  1.00878E-01 -2.04307E-02
   1.74925E-02 -1.19670E-02  1.02445E-01 -1.02797E-01  1.51595E-01  4.68770E-01  2.02760E-01  2.33734E-01  1.15198E-01 -1.30880E-01
  -9.02800E-02 -2.02846E-02  2.39401E-01  1.57532E-01 -9.65692E-02  1.13180E-01  3.81992E-02  2.45822E-01 -4.71205E-03 -1.44826E-01
   7.61269E-02  1.36486E-01  5.32076E-02 -5.88271E-02  1.49875E-01  5.56890E-03  8.68322E-02  3.51401E-03  2.64329E-01  1.82709E-01
  -6.87316E-02  4.12754E-03 -1.30480E-01  1.26891E-01  6.62551E-02 -9.55660E-02  1.20438E-02  6.33516E-02  2.98045E-02  4.20636E-03
  -8.94194E-02 -3.77028E-02 -1.93146E-01  3.22418E-02  2.36528E-01  1.53873E-02 -3.13184E-02  1.65376E-02 -8.78705E-02 -6.92192E-02
   1.19196E-01 -3.02978E-01 -5.03656E-02  1.16200E-01  7.10370E-02 -1.06564E-01 -9.90840E-02  1.49854E-01 -9.80014E-03  2.90575E-02
  -1.12422E-01  2.00729E-01 -5.07712E-03  1.11042E-01  1.22680E-02 -3.29775E-01  1.81562E-01  3.52002E-02 -3.16958E-02 -4.66834E-03
  -1.54763E-02  2.66642E-02  2.92303E-01  2.21540E-01 -2.81190E-02 -7.05853E-02 -1.25445E-01  2.85427E-01  1.93855E-01 -8.39769E-02
  -3.89627E-02  3.85140E-02  1.28117E-01 -9.35526E-02  1.50230E-01  1.79344E-01 -3.24018E-02  6.27664E-02 -1.49213E-01  2.31668E-01
   1.41044E-01 -2.86258E-02 -1.30714E-01 -3.02490E-01  1.39220E-01 -6.14460E-03  2.33331E-01  1.13433E-04 -1.41194E-01  1.40161E-01
  -3.80696E-02  1.23071E-01  1.44216E-01  8.54198E-02
 NY points of the fit to the data follow
   7.78932E-02  6.25327E-02  3.44807E-02  6.81247E-03 -1.18464E-02 -1.06253E-02 -3.76762E-03 -3.52522E-03  1.16681E-02  4.68440E-02
   9.45836E-02  1.58212E-01  2.31642E-01  2.94803E-01  3.59767E-01  4.13266E-01  4.30411E-01  3.96164E-01  3.03954E-01  1.87653E-01
   9.16222E-02  4.98655E-02  2.71626E-02 -1.31172E-02 -5.12164E-02 -8.11679E-02 -1.06074E-01 -1.25539E-01 -1.41305E-01 -1.56131E-01
  -1.71094E-01 -1.86527E-01 -2.03114E-01 -2.17731E-01 -2.29277E-01 -2.45269E-01 -2.64875E-01 -2.78808E-01 -2.74083E-01 -2.33198E-01
  -1.48684E-01 -3.98897E-02  7.33692E-02  1.73096E-01  2.44167E-01  2.95433E-01  3.23665E-01  3.23729E-01  2.95774E-01  2.54190E-01
   2.14975E-01  1.76275E-01  1.39747E-01  9.79136E-02  5.18709E-02  7.16488E-03 -4.03342E-02 -8.63682E-02 -1.33946E-01 -1.88978E-01
  -2.30314E-01 -2.46931E-01 -2.47959E-01 -2.27046E-01 -1.88136E-01 -1.54580E-01 -1.00033E-01 -1.92250E-02  7.43667E-02  1.75299E-01
   2.45923E-01  2.74282E-01  2.54756E-01  2.06879E-01  1.42614E-01  7.40469E-02  2.58254E-02 -3.29518E-02 -1.13009E-01 -2.01232E-01
  -2.79472E-01 -2.97656E-01 -2.38714E-01 -1.21853E-01  2.61956E-02  1.57737E-01  2.53360E-01  3.09363E-01  3.26755E-01  3.03205E-01
   2.54292E-01  2.17746E-01  1.80595E-01  1.35378E-01  9.20222E-02  4.67045E-02 -1.20420E-02 -9.26816E-02 -1.85690E-01 -2.62582E-01
  -2.81437E-01 -2.23960E-01 -1.04063E-01  3.52614E-02  1.49075E-01  2.18287E-01  2.48524E-01  2.61479E-01  2.69930E-01  2.77902E-01
   2.83789E-01  2.86215E-01  2.87288E-01  2.87553E-01  2.87598E-01  2.87518E-01  2.83432E-01  2.79441E-01  2.78765E-01  2.71009E-01
   2.57849E-01  2.31519E-01  1.89808E-01  1.22725E-01  5.93585E-02 -1.25134E-02 -8.21292E-02 -1.68499E-01 -2.74357E-01 -4.16308E-01
  -5.59524E-01 -6.10182E-01 -5.65715E-01 -4.52484E-01 -3.74501E-01 -4.29815E-01 -6.06559E-01 -7.78142E-01 -8.15589E-01 -6.93074E-01
  -4.70465E-01 -2.80618E-01 -1.80167E-01 -1.36545E-01 -7.77009E-02 -2.19533E-02  1.60585E-02  4.69601E-02  7.38015E-02  9.76707E-02
   1.19566E-01  1.40447E-01  1.61001E-01  1.81741E-01  2.03648E-01  2.28048E-01  2.56141E-01  2.89837E-01  3.32387E-01  3.91010E-01
   4.46104E-01  4.51917E-01  4.43354E-01  4.79847E-01  5.73662E-01  6.61853E-01  6.43840E-01  3.99750E-01 -2.43794E-02 -4.48254E-01
  -7.03049E-01 -7.10404E-01 -5.91639E-01 -4.89482E-01 -4.73005E-01 -4.70265E-01 -4.23358E-01 -3.84383E-01 -3.52638E-01 -3.30578E-01
  -3.11742E-01 -2.93538E-01 -2.74203E-01 -2.55554E-01 -2.42496E-01 -2.34917E-01 -2.27728E-01 -2.19009E-01 -2.09030E-01 -1.99806E-01
  -1.90956E-01 -1.81846E-01 -1.72581E-01 -1.62177E-01 -1.51828E-01 -1.41530E-01 -1.31630E-01 -1.21957E-01 -1.13450E-01 -1.05316E-01
  -9.59791E-02 -8.44724E-02 -7.28480E-02 -6.48631E-02 -6.20749E-02 -6.26901E-02 -6.22471E-02 -5.82157E-02 -5.24882E-02 -5.08897E-02
  -5.64116E-02 -6.59604E-02 -7.35703E-02 -7.52068E-02 -7.18155E-02 -6.65184E-02 -6.14174E-02 -5.60381E-02 -4.56624E-02 -3.16231E-02
  -2.10293E-02 -1.60303E-02 -5.71216E-03  2.80889E-02  9.39742E-02  1.70314E-01  2.24253E-01  2.44586E-01  2.41104E-01  2.46818E-01
   2.83860E-01  3.21229E-01  3.14344E-01  2.40733E-01  1.33375E-01  4.80379E-02  2.99987E-03 -1.63199E-02 -3.72999E-02 -5.95732E-02
  -7.32481E-02 -8.52417E-02 -9.47995E-02 -1.02282E-01 -1.08059E-01 -1.13357E-01 -1.19444E-01 -1.26157E-01 -1.33484E-01 -1.41174E-01
  -1.40851E-01 -1.39503E-01 -1.47685E-01 -1.59243E-01 -1.64167E-01 -1.59233E-01 -1.34065E-01 -8.67409E-02 -3.70549E-02  1.49922E-02
   5.78096E-02  9.33389E-02  1.24159E-01  1.38966E-01  1.47570E-01  1.40508E-01  1.48832E-01  1.59979E-01  1.60056E-01  1.63900E-01
   1.60415E-01  1.53945E-01  1.26720E-01  8.69776E-02  4.11847E-02 -6.68289E-03 -4.81943E-02 -8.90738E-02 -1.24088E-01 -1.62743E-01
  -2.06870E-01 -2.45174E-01 -2.58936E-01 -2.29378E-01 -1.38398E-01 -6.57961E-03  1.35170E-01  2.52163E-01  3.15976E-01  3.34133E-01
   3.13745E-01  2.80517E-01  2.44236E-01  2.12549E-01  1.93365E-01  1.84519E-01  1.91348E-01  2.09748E-01  2.32016E-01  2.47222E-01
   2.53766E-01  2.50972E-01  2.44061E-01  2.36519E-01  2.27545E-01  2.19761E-01  2.09802E-01  1.98298E-01  1.84241E-01  1.66658E-01
   1.45587E-01  1.21212E-01  9.60182E-02  7.12474E-02  4.32634E-02  1.26552E-02 -2.74553E-02 -7.34633E-02 -1.25618E-01 -1.73227E-01
  -2.13006E-01 -2.39992E-01 -2.49356E-01 -2.44441E-01 -2.15974E-01 -1.69931E-01 -1.06983E-01 -3.99202E-02  1.80973E-02  5.43233E-02
   5.77268E-02  4.29831E-02  1.53155E-02 -9.65230E-03 -4.01254E-02 -1.07148E-01 -2.28604E-01 -3.12989E-01 -3.10241E-01 -2.87907E-01
  -3.50210E-01 -6.01193E-01 -1.03320E+00 -1.41866E+00 -1.52696E+00 -1.29716E+00 -8.66623E-01 -4.93123E-01 -3.04451E-01 -2.51485E-01
  -1.89000E-01 -1.01399E-01 -5.97986E-02 -3.22044E-02 -1.30170E-02  2.03583E-03  1.24838E-02  2.02678E-02  2.36985E-02  2.29767E-02
   1.49310E-02  1.17112E-03 -1.74934E-02 -3.80947E-02 -5.37383E-02 -6.34637E-02 -6.22621E-02 -5.41214E-02 -4.07248E-02 -2.54915E-02
  -1.21366E-02  1.50763E-03  1.24417E-02  2.31716E-02  3.18023E-02  3.90025E-02  4.50180E-02  5.05085E-02  5.58746E-02  6.09668E-02
   6.54373E-02  6.91991E-02  7.29082E-02  7.66951E-02  8.06869E-02  8.43751E-02  8.74492E-02  8.98259E-02  9.20664E-02  9.47339E-02
   9.79267E-02  1.01529E-01  1.04477E-01  1.06330E-01  1.06669E-01  1.05811E-01  1.04328E-01  1.02409E-01  1.00282E-01  9.75266E-02
   9.40247E-02  8.95515E-02  8.43536E-02  7.86643E-02  7.26472E-02  6.66360E-02  6.09080E-02  5.55472E-02  5.02868E-02  4.51275E-02
   3.99549E-02  3.51498E-02  3.10673E-02  2.74107E-02  2.40672E-02  2.07864E-02  1.76773E-02  1.47786E-02  1.21127E-02  9.83856E-03
   7.94252E-03  6.41770E-03  5.35713E-03  5.04418E-03  5.50110E-03  6.67997E-03  8.47374E-03  1.10530E-02  1.44777E-02  1.86380E-02
   2.30401E-02  2.67298E-02  2.97728E-02  3.29461E-02  3.72283E-02  4.30076E-02  4.98058E-02  5.66203E-02  6.28565E-02  6.92163E-02
   7.65980E-02  8.53164E-02  9.50320E-02  1.05275E-01  1.15447E-01  1.25563E-01  1.35748E-01  1.45556E-01  1.54496E-01  1.61815E-01
   1.67181E-01  1.70415E-01  1.72033E-01  1.72487E-01  1.71911E-01  1.70199E-01  1.66860E-01  1.61568E-01  1.54299E-01  1.45921E-01
   1.37151E-01  1.28497E-01  1.19951E-01  1.11299E-01  1.02516E-01  9.40289E-02  8.62595E-02  7.91038E-02  7.26229E-02  6.66685E-02
   6.13120E-02  5.65729E-02  5.25781E-02  4.93118E-02  4.68066E-02  4.56934E-02  4.60056E-02  4.74351E-02  4.95723E-02  5.21601E-02
   5.52758E-02  5.89879E-02  6.33389E-02  6.80086E-02  7.24818E-02  7.63163E-02  7.91878E-02  8.13455E-02  8.33647E-02  8.56070E-02
   8.77929E-02  8.94807E-02  9.03871E-02  9.01465E-02  8.90465E-02  8.74273E-02  8.53074E-02  8.27844E-02  7.99066E-02  7.70940E-02
   7.42889E-02  7.14078E-02  6.84787E-02  6.53098E-02  6.21304E-02  5.87937E-02  5.52702E-02  5.17138E-02  4.84062E-02  4.54828E-02
   4.26724E-02  3.96471E-02  3.60564E-02  3.16801E-02  2.63948E-02  2.00891E-02  1.29172E-02  5.12578E-03 -3.22804E-03 -1.27270E-02
  -2.39218E-02 -3.71205E-02 -5.18227E-02 -6.72356E-02 -8.27051E-02 -9.75512E-02 -1.11668E-01 -1.25013E-01 -1.37415E-01 -1.48439E-01
  -1.57623E-01 -1.64599E-01 -1.69054E-01 -1.71231E-01 -1.71570E-01 -1.70311E-01 -1.67297E-01 -1.62716E-01 -1.57151E-01 -1.51485E-01
  -1.46071E-01 -1.40457E-01 -1.34055E-01 -1.26817E-01 -1.18886E-01 -1.10286E-01 -1.01246E-01 -9.18930E-02 -8.26569E-02 -7.35722E-02
  -6.47922E-02 -5.61486E-02 -4.75678E-02 -3.95699E-02 -3.20763E-02 -2.51895E-02 -1.87397E-02 -1.24800E-02 -6.62241E-03 -1.46104E-03
   2.91957E-03  6.71759E-03  1.02779E-02  1.36361E-02  1.64897E-02  1.87835E-02  2.06147E-02  2.24498E-02  2.40649E-02  2.52153E-02
   2.63135E-02  2.75837E-02  2.92074E-02  3.11443E-02  3.30482E-02  3.45646E-02  3.54944E-02  3.60919E-02  3.63590E-02  3.63477E-02
   3.64479E-02  3.65188E-02  3.64840E-02  3.64026E-02  3.61027E-02  3.57201E-02  3.56738E-02  3.60765E-02  3.65770E-02  3.66460E-02
   3.59430E-02  3.44425E-02  3.27830E-02  3.18356E-02  3.18013E-02  3.21482E-02  3.22186E-02  3.17341E-02  3.08878E-02  3.01128E-02
   2.94351E-02  2.92502E-02  2.97088E-02  3.04852E-02  3.11690E-02  3.15506E-02  3.19329E-02  3.24606E-02  3.30016E-02  3.35309E-02
   3.39110E-02  3.41486E-02  3.39383E-02  3.32450E-02  3.24113E-02  3.18956E-02  3.22883E-02  3.32341E-02  3.41452E-02  3.46675E-02
   3.47125E-02  3.48057E-02  3.54444E-02  3.67946E-02  3.83658E-02  3.92130E-02  3.87481E-02  3.75363E-02  3.64235E-02  3.61942E-02
   3.64330E-02  3.63339E-02  3.58073E-02  3.49771E-02  3.43543E-02  3.40516E-02  3.38530E-02  3.34440E-02  3.29645E-02  3.28281E-02
   3.30092E-02  3.33484E-02  3.36043E-02  3.35540E-02  3.33923E-02  3.34613E-02  3.38356E-02  3.45077E-02  3.59137E-02  3.79496E-02
   3.99558E-02  4.13095E-02  4.19953E-02  4.23405E-02
 NY background values follow
     3.811E-03    4.019E-03    4.228E-03    4.437E-03    4.646E-03    4.855E-03    5.064E-03    5.273E-03    5.482E-03    5.691E-03
     5.899E-03    6.108E-03    6.317E-03    6.526E-03    6.734E-03    6.943E-03    7.152E-03    7.360E-03    7.568E-03    7.777E-03
     7.985E-03    8.193E-03    8.401E-03    8.609E-03    8.817E-03    9.025E-03    9.232E-03    9.440E-03    9.647E-03    9.854E-03
     1.006E-02    1.027E-02    1.047E-02    1.068E-02    1.089E-02    1.109E-02    1.130E-02    1.151E-02    1.171E-02    1.192E-02
     1.212E-02    1.233E-02    1.253E-02    1.274E-02    1.294E-02    1.315E-02    1.335E-02    1.355E-02    1.376E-02    1.396E-02
     1.416E-02    1.437E-02    1.457E-02    1.477E-02    1.497E-02    1.517E-02    1.537E-02    1.558E-02    1.578E-02    1.598E-02
     1.618E-02    1.638E-02    1.658E-02    1.678E-02    1.697E-02    1.717E-02    1.737E-02    1.757E-02    1.777E-02    1.796E-02
