 
 $NMID
 ID=''
 FMTDAT='(2E13.5)'
 TRAMP=   1.00000E+0
 VOLUME=   1.00000E+0
 $END
  -1.57163E+4  -1.02020E+4
  -3.15962E+4  -3.61862E+4
  -3.78150E+4  -2.96522E+4
  -3.50710E+4  -2.68267E+4
  -3.57075E+4  -2.84391E+4
  -3.73120E+4  -2.64860E+4
  -3.57380E+4  -2.53132E+4
  -3.56471E+4  -2.61444E+4
  -3.65381E+4  -2.47398E+4
  -3.54673E+4  -2.38695E+4
  -3.53766E+4  -2.42549E+4
  -3.59753E+4  -2.29122E+4
  -3.54764E+4  -2.20380E+4
  -3.53664E+4  -2.23102E+4
  -3.56539E+4  -2.13796E+4
  -3.51709E+4  -2.05823E+4
  -3.51448E+4  -2.05790E+4
  -3.52757E+4  -1.96855E+4
  -3.49957E+4  -1.88561E+4
  -3.48768E+4  -1.87468E+4
  -3.49888E+4  -1.78975E+4
  -3.46958E+4  -1.69579E+4
  -3.47612E+4  -1.68733E+4
  -3.46439E+4  -1.62565E+4
  -3.43462E+4  -1.53966E+4
  -3.42190E+4  -1.50826E+4
  -3.42854E+4  -1.45151E+4
  -3.38022E+4  -1.40042E+4
  -3.36835E+4  -1.36811E+4
  -3.36518E+4  -1.31536E+4
  -3.33756E+4  -1.24960E+4
  -3.33276E+4  -1.20549E+4
  -3.32701E+4  -1.17315E+4
  -3.29259E+4  -1.10388E+4
  -3.28436E+4  -1.05443E+4
  -3.26871E+4  -1.00285E+4
  -3.23157E+4  -9.50983E+3
  -3.21914E+4  -8.94555E+3
  -3.21772E+4  -8.46817E+3
  -3.19413E+4  -8.10343E+3
  -3.18604E+4  -7.68877E+3
  -3.16466E+4  -7.30149E+3
  -3.14114E+4  -6.93079E+3
  -3.10855E+4  -6.52350E+3
  -3.10059E+4  -6.02474E+3
  -3.07962E+4  -5.71138E+3
  -3.05886E+4  -5.29825E+3
  -3.04067E+4  -4.88606E+3
  -3.01973E+4  -4.47508E+3
  -2.99289E+4  -4.15578E+3
  -2.96666E+4  -3.74584E+3
  -2.94509E+4  -3.47910E+3
  -2.92055E+4  -3.05725E+3
  -2.89501E+4  -2.74011E+3
  -2.86673E+4  -2.34680E+3
  -2.84738E+4  -2.01915E+3
  -2.82940E+4  -1.71990E+3
  -2.80257E+4  -1.49857E+3
  -2.76520E+4  -1.21585E+3
  -2.74044E+4  -9.02940E+2
  -2.70281E+4  -5.23102E+2
  -2.67300E+4  -2.28494E+2
  -2.64766E+4   9.49767E+1
  -2.62129E+4   3.64348E+2
  -2.58859E+4   6.60533E+2
  -2.55473E+4   9.64883E+2
  -2.53777E+4   1.28427E+3
  -2.50506E+4   1.48823E+3
  -2.47013E+4   1.72158E+3
  -2.44225E+4   2.02413E+3
  -2.42470E+4   2.30029E+3
  -2.39519E+4   2.56842E+3
  -2.36082E+4   2.78313E+3
  -2.33051E+4   2.96248E+3
  -2.30255E+4   3.26468E+3
  -2.27402E+4   3.54625E+3
  -2.23879E+4   3.80422E+3
  -2.20484E+4   3.92625E+3
  -2.17547E+4   4.14946E+3
  -2.14355E+4   4.36073E+3
  -2.11764E+4   4.64249E+3
  -2.08319E+4   4.74741E+3
  -2.05241E+4   4.97952E+3
  -2.02641E+4   5.09783E+3
  -2.00386E+4   5.29516E+3
  -1.97085E+4   5.37746E+3
  -1.93209E+4   5.50419E+3
  -1.90543E+4   5.66467E+3
  -1.87388E+4   5.86688E+3
  -1.84885E+4   6.04868E+3
  -1.81787E+4   6.11848E+3
  -1.79230E+4   6.30010E+3
  -1.76997E+4   6.49710E+3
  -1.73930E+4   6.61793E+3
  -1.71402E+4   6.72967E+3
  -1.68080E+4   6.84770E+3
  -1.65490E+4   6.92362E+3
  -1.62818E+4   7.13689E+3
  -1.60661E+4   7.14497E+3
  -1.58633E+4   7.21910E+3
  -1.55141E+4   7.25762E+3
  -1.52745E+4   7.37669E+3
  -1.50568E+4   7.37274E+3
  -1.48185E+4   7.48418E+3
  -1.46257E+4   7.51634E+3
  -1.44442E+4   7.48097E+3
  -1.41126E+4   7.63551E+3
  -1.39197E+4   7.55184E+3
  -1.36406E+4   7.56784E+3
  -1.34698E+4   7.55820E+3
  -1.32222E+4   7.63965E+3
  -1.29637E+4   7.65447E+3
  -1.28114E+4   7.63068E+3
  -1.25116E+4   7.62012E+3
  -1.23318E+4   7.59845E+3
  -1.21140E+4   7.55503E+3
  -1.18583E+4   7.51432E+3
  -1.16229E+4   7.42801E+3
  -1.14576E+4   7.38626E+3
  -1.11942E+4   7.32570E+3
  -1.10222E+4   7.31772E+3
  -1.07825E+4   7.25222E+3
  -1.06010E+4   7.12264E+3
  -1.03440E+4   7.03964E+3
  -1.00505E+4   7.01220E+3
  -9.94200E+3   6.89525E+3
  -9.69053E+3   6.83445E+3
  -9.52216E+3   6.76271E+3
  -9.28784E+3   6.73665E+3
  -9.06800E+3   6.58342E+3
  -8.84953E+3   6.44851E+3
  -8.62552E+3   6.43159E+3
  -8.40507E+3   6.37122E+3
  -8.31240E+3   6.21674E+3
  -8.09464E+3   6.24345E+3
  -7.86546E+3   6.10104E+3
  -7.65390E+3   6.05463E+3
  -7.47423E+3   5.91501E+3
  -7.27511E+3   5.82575E+3
  -7.08315E+3   5.78490E+3
  -6.92856E+3   5.60518E+3
  -6.70214E+3   5.45836E+3
  -6.61717E+3   5.49336E+3
  -6.44738E+3   5.33931E+3
  -6.19570E+3   5.25962E+3
  -6.10202E+3   5.10121E+3
  -5.95959E+3   5.06544E+3
  -5.79425E+3   4.83797E+3
  -5.64610E+3   4.78263E+3
  -5.51872E+3   4.67198E+3
  -5.36258E+3   4.57733E+3
  -5.16806E+3   4.39667E+3
  -5.05354E+3   4.33801E+3
  -4.87602E+3   4.31149E+3
  -4.73532E+3   4.18819E+3
  -4.70821E+3   4.09630E+3
  -4.47252E+3   4.01788E+3
  -4.37595E+3   3.93994E+3
  -4.24079E+3   3.78221E+3
  -4.13307E+3   3.67474E+3
  -4.08104E+3   3.63063E+3
  -3.96922E+3   3.49989E+3
  -3.87034E+3   3.45339E+3
  -3.80437E+3   3.28347E+3
  -3.66367E+3   3.23448E+3
  -3.58119E+3   3.14869E+3
  -3.43470E+3   3.11362E+3
  -3.39256E+3   2.94133E+3
  -3.29306E+3   2.91404E+3
  -3.12741E+3   2.81676E+3
  -3.14387E+3   2.70282E+3
  -3.07850E+3   2.59718E+3
  -2.88178E+3   2.53812E+3
  -2.88292E+3   2.49137E+3
  -2.83034E+3   2.31409E+3
  -2.68030E+3   2.31329E+3
  -2.64783E+3   2.26300E+3
  -2.57870E+3   2.13421E+3
  -2.55615E+3   2.09291E+3
  -2.42401E+3   2.02668E+3
  -2.43079E+3   1.84680E+3
  -2.38034E+3   1.85370E+3
  -2.30423E+3   1.79346E+3
  -2.26243E+3   1.73387E+3
  -2.21666E+3   1.69560E+3
  -2.17662E+3   1.65931E+3
  -2.18003E+3   1.51818E+3
  -2.11421E+3   1.39219E+3
  -2.10555E+3   1.38449E+3
  -2.07670E+3   1.30269E+3
  -2.02697E+3   1.19511E+3
  -2.01506E+3   1.20909E+3
  -2.02999E+3   1.13116E+3
  -1.91822E+3   1.02797E+3
  -1.93318E+3   1.00765E+3
  -1.94603E+3   9.63804E+2
  -1.92854E+3   9.00159E+2
  -1.88715E+3   8.70459E+2
  -1.91769E+3   8.06595E+2
  -1.80949E+3   7.74273E+2
  -1.85573E+3   6.87339E+2
  -1.78225E+3   6.86608E+2
  -1.89644E+3   5.62675E+2
  -1.84406E+3   5.44719E+2
  -1.78860E+3   5.44026E+2
  -1.86970E+3   4.88807E+2
  -1.81253E+3   3.99798E+2
  -1.80149E+3   4.27331E+2
  -1.85551E+3   4.08799E+2
  -1.84458E+3   3.32204E+2
  -1.89114E+3   3.16763E+2
  -1.88771E+3   3.15108E+2
  -1.89820E+3   2.83449E+2
  -1.85827E+3   1.92786E+2
  -1.83868E+3   1.36865E+2
  -1.88410E+3   1.27679E+2
  -1.94176E+3   4.65851E+1
  -1.85489E+3   7.39871E+1
  -1.88888E+3   2.00226E+1
  -1.89359E+3   3.65093E+1
  -1.88002E+3  -1.61053E+1
  -1.93783E+3  -1.44589E+1
  -1.97715E+3  -1.80034E+1
  -1.95587E+3  -3.47438E+1
  -1.95856E+3  -1.17123E+2
  -1.95576E+3  -9.10729E+1
  -1.98849E+3  -1.49044E+2
  -2.04221E+3  -7.57947E+1
  -1.96606E+3  -1.56467E+2
  -2.07239E+3  -1.14659E+2
  -2.03351E+3  -1.67748E+2
  -2.00278E+3  -2.16635E+2
  -2.07855E+3  -1.79237E+2
  -2.00449E+3  -2.18113E+2
  -2.03219E+3  -1.71038E+2
  -2.11342E+3  -1.58159E+2
  -2.11005E+3  -2.16438E+2
  -2.08012E+3  -1.79590E+2
  -2.08225E+3  -2.27023E+2
  -2.09859E+3  -2.47555E+2
  -2.05994E+3  -2.67572E+2
  -2.09573E+3  -2.72240E+2
  -2.12472E+3  -2.77979E+2
  -2.14349E+3  -2.82465E+2
  -2.19111E+3  -1.92484E+2
  -2.17783E+3  -2.68624E+2
  -2.19108E+3  -2.55744E+2
  -2.20628E+3  -2.54491E+2
  -2.14744E+3  -1.84970E+2
  -2.22444E+3  -2.24678E+2
  -2.24530E+3  -2.11347E+2
  -2.22307E+3  -2.00044E+2
  -2.19132E+3  -1.74492E+2
  -2.20218E+3  -1.60230E+2
  -2.26723E+3  -1.38804E+2
  -2.26381E+3  -1.80726E+2
  -2.21331E+3  -1.52517E+2
  -2.20485E+3  -7.52400E+1
  -2.23199E+3  -1.52591E+2
  -2.27166E+3  -9.46121E+1
  -2.27155E+3  -1.66242E+2
  -2.26930E+3  -8.53455E+0
  -2.22224E+3  -1.12899E+2
  -2.28528E+3  -1.00686E+2
  -2.31985E+3  -7.79895E+1
  -2.29000E+3  -1.06908E+2
  -2.22810E+3  -2.24864E+1
  -2.33919E+3  -5.22803E+1
  -2.32539E+3   7.67642E-3
  -2.27775E+3  -4.60633E+1
  -2.28004E+3   5.53494E+1
  -2.33893E+3   5.36818E+1
  -2.29821E+3   8.95860E+1
  -2.30722E+3   4.78501E+1
  -2.31094E+3   4.74384E+1
  -2.30715E+3   6.82281E+1
  -2.27665E+3   6.64284E+1
  -2.26603E+3   7.91510E+1
  -2.30620E+3   5.00828E+1
  -2.32831E+3   1.51983E+2
  -2.28762E+3   1.16329E+2
  -2.26996E+3   1.13398E+2
  -2.29355E+3   1.58707E+2
  -2.32429E+3   2.16750E+2
  -2.32246E+3   2.42488E+2
  -2.32588E+3   2.42826E+2
  -2.29437E+3   1.96229E+2
  -2.26333E+3   2.49443E+2
  -2.23433E+3   3.22009E+2
  -2.26296E+3   3.04796E+2
  -2.18415E+3   2.73194E+2
  -2.26519E+3   2.78420E+2
  -2.24294E+3   3.11722E+2
  -2.21761E+3   3.42309E+2
  -2.14943E+3   3.42654E+2
  -2.24421E+3   3.80280E+2
  -2.20901E+3   3.05321E+2
  -2.20828E+3   3.67585E+2
  -2.20543E+3   4.10417E+2
  -2.17358E+3   3.99331E+2
  -2.15867E+3   4.04116E+2
  -2.17118E+3   3.89743E+2
  -2.25993E+3   4.99588E+2
  -2.11489E+3   4.91861E+2
  -2.15953E+3   5.25396E+2
  -2.12380E+3   4.40581E+2
  -2.08343E+3   4.62452E+2
  -2.07446E+3   4.94620E+2
  -2.07547E+3   5.36038E+2
  -2.18716E+3   5.29069E+2
  -2.07617E+3   5.33367E+2
  -2.11462E+3   5.36845E+2
  -1.99718E+3   5.46250E+2
  -2.02304E+3   5.39607E+2
  -1.95841E+3   6.03903E+2
  -2.00875E+3   5.99640E+2
  -2.02063E+3   5.74125E+2
  -2.06718E+3   5.94901E+2
  -1.98588E+3   6.27185E+2
  -1.99391E+3   6.25967E+2
  -1.88470E+3   6.24642E+2
  -1.93399E+3   5.78437E+2
  -1.98459E+3   6.64617E+2
  -1.88706E+3   7.03217E+2
  -1.96719E+3   7.43149E+2
  -1.91570E+3   6.42118E+2
  -1.87651E+3   6.95886E+2
  -1.85636E+3   6.79768E+2
  -1.89201E+3   7.53914E+2
  -1.84294E+3   7.43479E+2
  -1.80895E+3   7.55686E+2
  -1.78875E+3   7.45102E+2
  -1.74923E+3   6.87862E+2
  -1.82192E+3   7.40386E+2
  -1.76536E+3   7.20668E+2
  -1.73498E+3   7.17719E+2
  -1.75840E+3   7.74909E+2
  -1.74120E+3   8.05638E+2
  -1.70741E+3   8.40205E+2
  -1.78269E+3   7.47087E+2
  -1.67916E+3   7.99108E+2
  -1.74590E+3   7.93452E+2
  -1.71910E+3   8.16404E+2
  -1.67202E+3   8.24780E+2
  -1.63593E+3   8.13482E+2
  -1.75811E+3   8.56135E+2
  -1.63932E+3   7.93433E+2
  -1.63725E+3   7.88761E+2
  -1.66030E+3   8.37491E+2
  -1.60433E+3   7.96809E+2
  -1.59463E+3   8.65415E+2
  -1.60975E+3   8.52702E+2
  -1.58872E+3   8.42535E+2
  -1.54058E+3   8.72760E+2
  -1.54547E+3   7.67911E+2
  -1.54551E+3   8.45342E+2
  -1.60437E+3   8.71392E+2
  -1.55811E+3   9.11226E+2
  -1.48822E+3   8.89401E+2
  -1.52797E+3   8.69755E+2
  -1.48142E+3   8.41501E+2
  -1.53263E+3   8.77522E+2
  -1.53662E+3   8.92768E+2
  -1.46779E+3   8.51212E+2
  -1.44642E+3   8.41547E+2
  -1.41259E+3   8.65186E+2
  -1.45250E+3   8.45451E+2
