 LCModel (Version 6.3-1N) Copyright: S.W. Provencher.          Ref.: Magn. Reson. Med. 30:672-679 (1993).                
 Slice_N1@17_14  02-Jun-2023 14:36:40
 27 lines in following concentration table = NCONC+1
    Conc.  %SD /Cr+PCr  Metabolite                                         
 2.27E-06  13% 2.9E-04 Mac                                                 
 2.98E-02  17%   3.797 Cr                                                  
 3.30E-02  15%   4.203 PCr                                                 
 7.32E-02  10%   9.322 Ins                                                 
 8.08E-02   8%  10.297 NAA                                                 
 6.72E-02  10%   8.557 Tau                                                 
 6.49E-03  40%   0.827 PCho                                                
 4.87E-03  53%   0.620 GPC                                                 
 7.19E-02  11%   9.158 Glu                                                 
 1.88E-02  31%   2.396 Gln                                                 
    0.000 999%   0.000 Ala                                                 
 1.75E-02  66%   2.236 Asc                                                 
 1.31E-03 513%   0.167 Asp                                                 
 1.10E-02  33%   1.399 GABA                                                
 9.05E-03  51%   1.153 Glc                                                 
 1.58E-02  22%   2.018 GSH                                                 
    0.000 999%   0.000 Lac                                                 
 1.80E-03 198%   0.230 NAAG                                                
    0.000 999%   0.000 PE                                                  
 1.14E-02  14%   1.447 GPC+PCho                                            
 8.26E-02   8%  10.526 NAA+NAAG                                            
 9.07E-02  11%  11.553 Glu+Gln                                             
 6.28E-02   9%   8.000 Cr+PCr                                              
 8.26E-02   8%  10.526 NAA+NAAG                                            
 6.28E-02   9%   8.000 Cr+PCr                                              
 9.07E-02  11%  11.553 Glu+Gln                                             
   6 lines in following misc. output table
  FWHM = 0.017 ppm    S/N =   8                                            
  Data shift = 0.023 ppm                                                   
  Ph: -55 deg     -12.1 deg/ppm                                            
  alphaB,S = 4.7E-01,   3.6E-01                                            
   18 spline knots.   Ns = 5(1)                                            
   3 inflections.     1 extrema                                            
  654 points on ppm-axis = NY
      4.000000     3.994181     3.988363     3.982544     3.976726     3.970907     3.965088     3.959270     3.953451     3.947633
      3.941814     3.935995     3.930177     3.924358     3.918540     3.912721     3.906902     3.901084     3.895265     3.889446
      3.883628     3.877809     3.871991     3.866172     3.860353     3.854535     3.848716     3.842898     3.837079     3.831260
      3.825442     3.819623     3.813805     3.807986     3.802167     3.796349     3.790530     3.784712     3.778893     3.773074
      3.767256     3.761437     3.755619     3.749800     3.743981     3.738163     3.732344     3.726526     3.720707     3.714888
      3.709070     3.703251     3.697433     3.691614     3.685795     3.679977     3.674158     3.668339     3.662521     3.656702
      3.650884     3.645065     3.639246     3.633428     3.627609     3.621791     3.615972     3.610153     3.604335     3.598516
      3.592698     3.586879     3.581060     3.575242     3.569423     3.563605     3.557786     3.551967     3.546149     3.540330
      3.534512     3.528693     3.522874     3.517056     3.511237     3.505419     3.499600     3.493781     3.487963     3.482144
      3.476326     3.470507     3.464688     3.458870     3.453051     3.447232     3.441414     3.435595     3.429777     3.423958
      3.418139     3.412321     3.406502     3.400684     3.394865     3.389046     3.383228     3.377409     3.371591     3.365772
      3.359953     3.354135     3.348316     3.342498     3.336679     3.330860     3.325042     3.319223     3.313405     3.307586
      3.301767     3.295949     3.290130     3.284312     3.278493     3.272674     3.266856     3.261037     3.255219     3.249400
      3.243581     3.237763     3.231944     3.226125     3.220307     3.214488     3.208670     3.202851     3.197032     3.191214
      3.185395     3.179577     3.173758     3.167939     3.162121     3.156302     3.150484     3.144665     3.138846     3.133028
      3.127209     3.121391     3.115572     3.109753     3.103935     3.098116     3.092298     3.086479     3.080660     3.074842
      3.069023     3.063205     3.057386     3.051567     3.045749     3.039930     3.034111     3.028293     3.022474     3.016656
      3.010837     3.005018     2.999200     2.993381     2.987563     2.981744     2.975925     2.970107     2.964288     2.958470
      2.952651     2.946832     2.941014     2.935195     2.929377     2.923558     2.917739     2.911921     2.906102     2.900284
      2.894465     2.888646     2.882828     2.877009     2.871191     2.865372     2.859553     2.853735     2.847916     2.842098
      2.836279     2.830460     2.824642     2.818823     2.813004     2.807186     2.801367     2.795549     2.789730     2.783911
      2.778093     2.772274     2.766456     2.760637     2.754818     2.749000     2.743181     2.737363     2.731544     2.725725
      2.719907     2.714088     2.708270     2.702451     2.696632     2.690814     2.684995     2.679177     2.673358     2.667539
      2.661721     2.655902     2.650084     2.644265     2.638446     2.632628     2.626809     2.620991     2.615172     2.609353
      2.603535     2.597716     2.591897     2.586079     2.580260     2.574442     2.568623     2.562804     2.556986     2.551167
      2.545349     2.539530     2.533711     2.527893     2.522074     2.516256     2.510437     2.504618     2.498800     2.492981
      2.487163     2.481344     2.475525     2.469707     2.463888     2.458070     2.452251     2.446432     2.440614     2.434795
      2.428977     2.423158     2.417339     2.411521     2.405702     2.399884     2.394065     2.388246     2.382428     2.376609
      2.370790     2.364972     2.359153     2.353335     2.347516     2.341697     2.335879     2.330060     2.324242     2.318423
      2.312604     2.306786     2.300967     2.295149     2.289330     2.283511     2.277693     2.271874     2.266056     2.260237
      2.254418     2.248600     2.242781     2.236963     2.231144     2.225325     2.219507     2.213688     2.207870     2.202051
      2.196232     2.190414     2.184595     2.178777     2.172958     2.167139     2.161321     2.155502     2.149683     2.143865
      2.138046     2.132228     2.126409     2.120590     2.114772     2.108953     2.103135     2.097316     2.091497     2.085679
      2.079860     2.074042     2.068223     2.062404     2.056586     2.050767     2.044949     2.039130     2.033311     2.027493
      2.021674     2.015856     2.010037     2.004218     1.998400     1.992581     1.986763     1.980944     1.975126     1.969307
      1.963489     1.957670     1.951852     1.946033     1.940215     1.934397     1.928578     1.922760     1.916941     1.911123
      1.905304     1.899486     1.893667     1.887849     1.882030     1.876212     1.870393     1.864575     1.858756     1.852938
      1.847119     1.841301     1.835482     1.829664     1.823845     1.818027     1.812208     1.806390     1.800571     1.794753
      1.788934     1.783116     1.777297     1.771479     1.765660     1.759842     1.754023     1.748205     1.742386     1.736568
      1.730749     1.724931     1.719113     1.713294     1.707476     1.701657     1.695839     1.690020     1.684202     1.678383
      1.672565     1.666746     1.660928     1.655109     1.649291     1.643472     1.637654     1.631835     1.626017     1.620198
      1.614380     1.608561     1.602743     1.596924     1.591106     1.585287     1.579469     1.573650     1.567832     1.562013
      1.556195     1.550376     1.544558     1.538739     1.532921     1.527102     1.521284     1.515465     1.509647     1.503829
      1.498010     1.492192     1.486373     1.480555     1.474736     1.468918     1.463099     1.457281     1.451462     1.445644
      1.439825     1.434007     1.428188     1.422370     1.416551     1.410733     1.404914     1.399096     1.393277     1.387459
      1.381640     1.375822     1.370003     1.364185     1.358366     1.352548     1.346729     1.340911     1.335092     1.329274
      1.323455     1.317637     1.311818     1.306000     1.300182     1.294363     1.288545     1.282726     1.276908     1.271089
      1.265271     1.259452     1.253634     1.247815     1.241997     1.236178     1.230360     1.224541     1.218723     1.212904
      1.207086     1.201267     1.195449     1.189630     1.183812     1.177993     1.172175     1.166356     1.160538     1.154719
      1.148901     1.143082     1.137264     1.131445     1.125627     1.119808     1.113990     1.108171     1.102353     1.096534
      1.090716     1.084898     1.079079     1.073261     1.067442     1.061624     1.055805     1.049987     1.044168     1.038350
      1.032531     1.026713     1.020894     1.015076     1.009257     1.003439     0.997620     0.991802     0.985983     0.980165
      0.974346     0.968528     0.962709     0.956891     0.951072     0.945254     0.939435     0.933617     0.927798     0.921980
      0.916161     0.910343     0.904524     0.898706     0.892887     0.887069     0.881251     0.875432     0.869614     0.863795
      0.857977     0.852158     0.846340     0.840521     0.834703     0.828884     0.823066     0.817247     0.811429     0.805610
      0.799792     0.793973     0.788155     0.782336     0.776518     0.770699     0.764881     0.759062     0.753244     0.747425
      0.741607     0.735788     0.729970     0.724151     0.718333     0.712514     0.706696     0.700877     0.695059     0.689240
      0.683422     0.677603     0.671785     0.665967     0.660148     0.654330     0.648511     0.642693     0.636874     0.631056
      0.625237     0.619419     0.613600     0.607782     0.601963     0.596145     0.590326     0.584508     0.578689     0.572871
      0.567052     0.561234     0.555415     0.549597     0.543778     0.537960     0.532141     0.526323     0.520504     0.514686
      0.508867     0.503049     0.497230     0.491412     0.485593     0.479775     0.473956     0.468138     0.462319     0.456501
      0.450682     0.444864     0.439045     0.433227     0.427408     0.421590     0.415771     0.409953     0.404134     0.398316
      0.392497     0.386679     0.380860     0.375042     0.369223     0.363405     0.357586     0.351767     0.345949     0.340130
      0.334312     0.328493     0.322675     0.316856     0.311038     0.305219     0.299401     0.293582     0.287764     0.281945
      0.276127     0.270308     0.264490     0.258671     0.252853     0.247034     0.241216     0.235397     0.229579     0.223760
      0.217942     0.212123     0.206305     0.200486
 NY phased data points follow
  -1.80918E-01 -1.05599E-01 -1.41315E-01  1.44877E-01 -8.32946E-02 -1.57161E-01 -6.83065E-02 -1.94096E-01 -2.92440E-01 -8.10740E-03
   2.08653E-02  2.24469E-01  5.12880E-01  1.77319E-01  7.70418E-02  2.80296E-01  4.39183E-01  1.44829E-01  1.96043E-01 -1.78630E-01
  -2.10521E-02  5.56939E-02 -2.81931E-01 -3.56168E-02 -1.07958E-01 -1.25231E-02 -1.11174E-01 -1.20286E-02  7.75865E-02  1.04650E-01
  -3.28628E-01 -8.80919E-02  1.15570E-01 -4.60004E-02 -8.03171E-02 -5.51983E-01 -2.93779E-01 -5.62789E-01 -2.76210E-01 -5.81473E-03
  -1.17694E-02  3.27542E-01  1.85628E-01  2.37155E-01  3.28681E-01  3.94313E-01  6.11892E-01  4.94058E-01 -6.17450E-02  1.58720E-01
   2.41118E-01  5.95452E-02  7.99759E-02 -5.24340E-02  8.15537E-02 -8.50180E-02 -2.22232E-01 -1.39220E-01 -1.79152E-01 -9.54148E-02
  -1.08836E-01 -1.57382E-01 -3.64466E-01 -3.15515E-01 -2.96065E-01 -2.82021E-01  9.56741E-03  1.22898E-02  1.84122E-01  2.81981E-01
   3.67271E-01  9.00386E-02  1.04728E-01  4.61667E-02  3.71927E-02  7.23416E-02 -2.19522E-01 -9.18961E-02 -4.30286E-01 -6.18672E-01
  -7.24595E-01  1.14677E-01  7.39370E-02 -2.21836E-01  4.28122E-01  3.32324E-01  3.93915E-01  4.17272E-01  4.09463E-01 -2.48731E-02
   3.41652E-01  3.00924E-01 -5.32532E-02  4.84309E-02 -1.69238E-01 -2.88109E-02 -5.78996E-03  4.53394E-02 -1.06496E-01 -2.44789E-01
  -5.72034E-01 -2.38067E-01  4.00874E-02 -1.33714E-01  3.43125E-01  4.84087E-01  5.86523E-01  6.48108E-01  5.51938E-01  6.00651E-01
   2.52271E-01  3.22441E-01  5.21326E-01 -4.19423E-03  6.94897E-02  2.47019E-01  3.35111E-01  2.92879E-01  1.09979E-02  1.59891E-01
   4.58775E-01  4.27588E-01  1.37803E-02  1.86312E-01  4.47517E-02 -5.22074E-01 -3.85450E-01 -2.25775E-01 -5.17406E-01 -8.18503E-01
  -9.15726E-01 -8.21723E-01 -3.71668E-01 -4.12351E-01 -5.43423E-01 -4.11369E-01 -7.38806E-01 -8.54132E-01 -5.65766E-01 -2.40754E-01
  -2.55531E-01 -1.52172E-01 -7.96359E-02 -3.09576E-02  2.50990E-01  1.93331E-01  1.92919E-01  1.11088E-01  2.85446E-02  1.25339E-01
   3.08450E-01  1.33062E-01  2.08870E-01  2.73867E-01  3.31205E-02  2.86238E-01  4.19711E-01  4.84631E-01  3.21024E-01  5.12992E-01
   6.43030E-01  4.03887E-01  5.60227E-01  6.64581E-01  5.65945E-01  7.72493E-01  9.32907E-01  5.31983E-01 -4.85389E-01 -1.08719E+00
  -7.33520E-01 -8.42681E-01 -6.18323E-01 -4.98946E-01 -4.64372E-01 -2.75422E-01 -2.67075E-01 -3.53568E-01 -5.43598E-01 -3.01851E-01
  -4.24618E-01 -2.83431E-01 -2.49596E-01 -3.25220E-01 -3.30066E-01 -2.79102E-01 -3.33049E-01 -3.35896E-01 -2.10051E-01 -3.02384E-01
   8.17110E-02 -6.93531E-02 -1.84983E-01 -1.08611E-01 -2.22417E-01 -5.96544E-01 -4.82066E-01 -1.94036E-03 -6.64503E-03  1.07846E-02
  -3.48289E-01  6.17701E-03 -4.28361E-04 -2.36551E-01  6.13080E-03 -2.59779E-01 -1.14593E-01 -6.07915E-02  1.90849E-01  9.37077E-02
  -2.50957E-01 -2.00176E-01 -3.51229E-02  2.28125E-01 -2.88947E-01  1.09222E-01  9.83573E-02 -3.52444E-01  2.50695E-01  2.27883E-01
   1.87338E-02 -1.91759E-01 -7.13790E-02  1.37819E-01  1.90887E-01  3.28085E-01  3.95614E-01  1.09101E-01 -6.13695E-02  2.12310E-02
   6.71816E-02  4.62849E-01  2.74817E-01 -1.76269E-01 -6.36250E-03  1.27949E-01 -2.36155E-01 -1.85876E-01  5.93181E-02  1.05583E-01
  -3.73600E-02 -1.64829E-01 -6.61739E-02 -1.98017E-01 -1.55938E-01 -2.71037E-01 -1.67370E-01  2.42598E-01  1.61239E-01  1.36300E-01
   1.58222E-01  2.08597E-01  2.93285E-01  7.75545E-02  1.82410E-01 -1.17589E-01 -1.07405E-01  2.75634E-01  8.96988E-02  4.92262E-02
   9.24035E-02  3.65604E-01  8.09938E-02  1.28340E-01  2.87774E-01  2.24749E-01  2.99415E-01  3.09228E-02  4.51955E-02  3.31930E-03
   1.01372E-01  2.52092E-01  1.49344E-01  1.64971E-03  1.11257E-01  1.10006E-01  6.13736E-02 -8.99671E-02 -3.13693E-01 -2.94176E-01
  -2.82706E-01 -3.41456E-01 -2.87282E-01 -1.44879E-01 -3.63175E-01 -4.71558E-02  4.03016E-01  5.05620E-01  4.25898E-01  4.91820E-01
   5.93549E-01  1.58292E-01  3.85932E-02  5.39569E-02  7.89754E-02  5.83250E-02 -1.01192E-01 -6.88908E-02  2.30946E-01  4.22463E-01
   2.40282E-01  2.88060E-01  2.69877E-01  3.10782E-01  4.13212E-01  4.56553E-01  4.24007E-01  2.28943E-01  4.13759E-01  2.28004E-01
   4.33403E-01  4.85860E-01  3.04759E-01  2.73589E-01  7.91486E-02  2.30204E-01 -8.44945E-02 -4.67996E-02 -4.24681E-01 -3.84987E-01
  -2.19230E-01 -2.93203E-01 -9.94645E-02 -2.90398E-01  9.46386E-02 -1.37009E-01 -7.56470E-02  3.17172E-01  8.89437E-02  3.35929E-01
   4.51339E-01 -2.02568E-02  2.67554E-01  6.83028E-02 -8.91766E-02  3.68083E-03 -3.32902E-01 -2.88051E-01 -4.15946E-01 -3.03814E-01
  -4.89091E-01 -3.26380E-01 -1.87579E+00 -2.70487E+00 -1.02539E+00 -2.36806E-01 -9.19696E-02 -1.25744E-01  2.28971E-02 -5.77002E-02
   4.65480E-02 -1.17806E-01 -3.07946E-02 -4.37076E-02 -7.07025E-02 -3.83014E-02  1.56186E-01  4.26163E-01 -2.64657E-03 -1.19247E-01
  -3.92969E-03  3.29302E-01  4.38787E-02  2.98187E-03  6.04156E-02  1.16837E-01  4.18403E-02  1.45601E-01  2.21026E-02 -2.01069E-01
   4.16890E-01 -8.55428E-02 -6.07651E-02  1.02276E-01 -4.80427E-02 -3.66826E-03 -6.97695E-02  8.42526E-02  2.30340E-02  1.99400E-01
   2.30940E-01  1.54960E-01  2.42400E-01  1.15847E-01 -1.28019E-01  9.38011E-02  2.12256E-01 -9.85049E-02  2.35631E-01  3.11663E-01
   5.85896E-02  1.90978E-01  2.49410E-01  3.10649E-01 -7.01224E-02  1.32938E-01  2.02887E-01  8.05978E-02  1.42951E-01  5.50223E-02
   3.48588E-01  6.56705E-03  8.18515E-02  1.24147E-01 -2.39795E-01 -1.15304E-01 -2.23457E-02 -2.84833E-01 -2.14808E-02 -3.21211E-03
  -1.39177E-01  1.09747E-01 -7.16670E-02  1.08228E-01  1.63561E-01  1.93603E-01  1.97764E-02 -1.25855E-01 -2.13121E-01 -1.37399E-01
  -1.74150E-01 -3.13025E-01 -1.34931E-01 -2.10043E-01 -2.18930E-01 -6.23453E-02  1.17970E-01 -1.02756E-01  4.23857E-02 -2.28518E-01
  -2.18581E-01  1.59808E-01 -8.40642E-02 -3.42821E-02 -4.88285E-02 -3.03964E-01  1.13027E-01  3.38976E-01 -2.69514E-01 -3.15457E-02
   1.33383E-01 -4.41170E-02 -9.72222E-02  1.05355E-01  2.32455E-01  1.96604E-01  1.33803E-01  3.59660E-01  2.63439E-01 -1.41931E-02
   4.30152E-01  1.71997E-01  1.68245E-01  1.15635E-01  2.80252E-02  1.41806E-01  1.84969E-02 -2.87403E-01 -3.70931E-01 -2.15781E-01
   9.10529E-03  9.67790E-02 -5.82285E-02  9.02332E-02 -1.73068E-01 -1.41533E-01 -4.93309E-02  1.15255E-01 -2.79862E-01 -3.34968E-01
  -9.63007E-02  3.71576E-02  8.31468E-02 -2.76392E-01 -3.21918E-02 -2.02129E-01 -5.52498E-02 -2.46664E-01 -1.07126E-02  1.67309E-01
   8.38219E-02 -4.33876E-02 -1.95618E-01  2.28120E-01  1.38023E-01  1.06974E-01 -1.34370E-02  2.43338E-01 -3.91359E-02  2.81833E-02
   2.43608E-01  2.03376E-01  6.35937E-02 -1.20680E-01  1.37993E-01 -2.22517E-02  5.52597E-02 -1.87896E-02  6.64451E-02 -6.84157E-02
  -7.77257E-02 -1.84502E-02  2.99465E-02  2.98490E-01  2.48268E-01  1.86069E-01  2.21058E-01  8.89572E-02  2.19386E-02  2.63547E-01
  -6.24813E-02 -4.03390E-02  2.60847E-01  1.51231E-01 -1.19633E-01  1.38591E-01  1.70443E-01  2.64160E-02 -2.13934E-02 -2.96859E-01
   1.88006E-02  6.09136E-02  1.20729E-02 -1.34300E-01 -2.78333E-01 -3.46586E-01 -3.27275E-01 -4.33694E-01 -3.23449E-01 -3.22895E-01
  -5.46672E-01 -2.57840E-01 -4.19112E-01 -9.98978E-02 -2.28823E-01 -4.41106E-01 -1.81639E-02 -3.22493E-02 -1.92801E-01 -3.95640E-01
  -1.83521E-01 -2.53212E-01 -2.70278E-01  4.94990E-02 -3.67150E-02 -2.65927E-02  2.07407E-01  8.81427E-02 -4.69682E-02  1.70384E-01
   3.39305E-01  3.96602E-01  3.04936E-01  8.89571E-03  6.53016E-02  2.37398E-01  1.48591E-01  1.69021E-01  8.96716E-02  8.92907E-02
   3.77152E-01  3.40260E-01 -8.66518E-02  2.21828E-01  3.21500E-01  3.84281E-02  2.46648E-01  1.02996E-01  3.27918E-01  3.25381E-01
   7.43815E-02  9.00985E-02  7.69644E-02  9.79871E-02 -1.41729E-01  1.09111E-01  1.33787E-01  8.95330E-02  2.68369E-01 -9.45532E-03
  -4.47110E-02 -3.41178E-02  2.21049E-02  8.96164E-02  2.28404E-02  1.22689E-01 -6.19688E-02  1.43814E-01  2.65630E-01 -2.78341E-01
  -2.69369E-02  8.92295E-02 -3.51252E-02  1.17171E-01  1.80261E-01  1.68193E-01 -1.91914E-03  2.86166E-01  1.08209E-01  2.43288E-02
   2.01054E-02 -2.24238E-01  1.34320E-01 -2.19845E-01 -1.81282E-01  1.27545E-01  1.69883E-01  3.82547E-01  1.21178E-01 -7.89070E-02
  -2.99025E-01 -3.30749E-02  5.48347E-02  5.73747E-02  9.08455E-02 -9.37680E-02  2.12409E-02 -8.36163E-02  2.54655E-01  1.41804E-01
  -1.94550E-01  6.21070E-02 -1.17102E-01 -3.26116E-01  5.35942E-02  4.89116E-02  1.18904E-02  2.65574E-02 -3.62222E-02  1.34833E-01
  -1.83798E-01  1.99511E-01  7.76533E-02  8.71693E-02  3.88896E-01 -1.21034E-01  7.24249E-02  2.96351E-02 -2.09288E-01 -4.75346E-02
   1.11870E-01 -1.19125E-01  1.27025E-01  3.13671E-02 -6.61479E-02  2.03681E-01 -2.00540E-01 -1.36927E-02  9.91740E-02 -1.06588E-01
   4.36284E-02  2.24001E-01  1.67304E-01  4.09164E-02
 NY points of the fit to the data follow
   2.43458E-02  1.00073E-02 -1.28263E-02 -3.02479E-02 -3.55976E-02 -2.62181E-02 -1.21157E-02  3.76610E-02  4.41893E-02  6.96877E-02
   4.84723E-02  3.42703E-01  6.31821E-01  4.45760E-01  1.39499E-01  3.16051E-01  5.57656E-01  3.32707E-01  1.10152E-01  5.84861E-02
   8.22266E-03 -4.72022E-02 -5.20971E-02 -6.73574E-02 -8.89833E-02 -1.05090E-01 -1.26819E-01 -1.39323E-01 -1.45511E-01 -1.61812E-01
  -1.75845E-01 -1.84057E-01 -2.00382E-01 -2.34767E-01 -2.72463E-01 -2.92285E-01 -3.00546E-01 -3.15390E-01 -3.20858E-01 -2.43545E-01
  -3.33878E-03  1.98982E-01  1.48921E-01  2.04500E-01  2.94971E-01  3.58639E-01  4.12534E-01  2.94432E-01  1.80473E-01  1.68867E-01
   1.15557E-01  4.34495E-02  3.59584E-02  3.96555E-03 -3.91235E-02 -8.29080E-02 -1.33810E-01 -1.80043E-01 -1.87490E-01 -1.87902E-01
  -2.59270E-01 -3.07735E-01 -3.82117E-01 -2.55883E-01 -2.16844E-01 -2.85607E-01  1.19968E-01  2.11145E-01  1.61338E-01  4.10857E-01
   4.49446E-01  2.89206E-01  1.95687E-01  1.42682E-01  3.80888E-02 -7.30014E-02 -1.31272E-01 -1.88373E-01 -2.72008E-01 -5.54208E-01
  -6.90072E-01 -1.88592E-01  4.04338E-02 -4.62256E-02  2.54240E-01  5.03262E-01  4.24414E-01  3.30126E-01  3.11767E-01  2.50184E-01
   2.02635E-01  1.91671E-01  1.48251E-01  8.56655E-02  4.77489E-02 -5.96186E-02 -9.15934E-02 -3.32177E-01 -3.75758E-01 -5.26166E-01
  -4.75229E-01 -1.80441E-01  7.73032E-03  2.31427E-01  3.08381E-01  3.07968E-01  2.78541E-01  2.80610E-01  2.61011E-01  2.62977E-01
   2.65882E-01  2.67886E-01  2.66626E-01  2.66155E-01  2.66013E-01  2.67801E-01  2.71087E-01  2.71949E-01  2.50046E-01  2.53141E-01
   2.29495E-01  2.21786E-01  7.73313E-02 -4.10529E-02  2.82900E-02 -2.34699E-01 -1.95628E-01 -3.36373E-01 -4.47952E-01 -6.60629E-01
  -7.83681E-01 -5.93610E-01 -5.80755E-01 -2.58349E-01 -3.39984E-01 -4.57679E-01 -7.26297E-01 -8.48870E-01 -4.75442E-01 -2.16420E-01
  -1.25955E-01 -5.84974E-02  2.02934E-02  2.09599E-02  3.93197E-02  6.30984E-02  8.39503E-02  1.03051E-01  1.22363E-01  1.36523E-01
   1.52839E-01  1.70152E-01  1.86499E-01  2.02669E-01  2.22241E-01  2.44319E-01  2.68086E-01  2.98400E-01  3.31571E-01  3.67364E-01
   4.22008E-01  5.12449E-01  5.95239E-01  6.26295E-01  5.90397E-01  7.24011E-01  8.67034E-01  5.86114E-01 -4.54978E-01 -1.15040E+00
  -8.79550E-01 -6.09580E-01 -5.35039E-01 -4.17081E-01 -3.28670E-01 -3.37883E-01 -2.87931E-01 -2.45277E-01 -2.55016E-01 -2.59053E-01
  -2.66487E-01 -2.08630E-01 -1.98583E-01 -2.01049E-01 -1.98631E-01 -2.11669E-01 -2.11998E-01 -1.95671E-01 -1.80167E-01 -1.85703E-01
  -1.75489E-01 -1.60528E-01 -1.47690E-01 -1.38047E-01 -1.25167E-01 -1.16680E-01 -1.09343E-01 -9.96916E-02 -9.22732E-02 -8.63466E-02
  -8.23575E-02 -7.56853E-02 -6.95754E-02 -6.75359E-02 -6.66720E-02 -6.74740E-02 -6.36055E-02 -5.65270E-02 -5.53234E-02 -5.79004E-02
  -5.67388E-02 -5.24863E-02 -4.61482E-02 -4.41831E-02 -4.14402E-02 -3.76493E-02 -3.69003E-02 -3.51408E-02 -3.65859E-02 -3.79785E-02
  -2.28513E-02 -2.92047E-04  2.10770E-02  1.41797E-02  7.32867E-02  2.31824E-01  3.25760E-01  2.43955E-01  9.76384E-02  1.98428E-01
   4.49501E-01  3.78874E-01  1.31326E-01  3.25130E-02 -2.01979E-03 -4.42066E-02 -5.67781E-02 -5.07627E-02 -5.34861E-02 -6.19369E-02
  -7.12546E-02 -8.11784E-02 -8.32114E-02 -8.22543E-02 -8.52697E-02 -7.80790E-02 -9.42721E-02 -7.89366E-02 -8.58103E-02 -7.66698E-02
  -6.19395E-02 -9.53046E-02 -7.54249E-02 -1.08332E-01 -1.14934E-01 -1.36135E-01 -5.80615E-02  1.31675E-01 -2.65332E-03  3.86568E-02
   1.64768E-01  1.85143E-01  1.82054E-01  8.45429E-02  1.51759E-01  1.81373E-01  1.73551E-01  1.26828E-01  1.52029E-01  1.69203E-01
   1.27111E-01  1.08852E-01  6.53328E-02  2.84983E-02 -9.26495E-03 -3.96096E-02 -8.07612E-02 -1.35648E-01 -1.70988E-01 -2.28281E-01
  -2.59203E-01 -3.31369E-01 -3.67881E-01 -2.67624E-01 -2.12469E-01  8.54943E-03  2.25861E-01  3.16579E-01  4.47820E-01  4.41963E-01
   3.42279E-01  2.66703E-01  2.14075E-01  1.98983E-01  1.69508E-01  1.99303E-01  2.33569E-01  2.45265E-01  2.70763E-01  2.67496E-01
   2.55222E-01  2.45013E-01  2.36808E-01  2.27906E-01  2.25456E-01  2.17236E-01  2.08199E-01  2.00988E-01  1.87802E-01  1.67853E-01
   1.49085E-01  1.20979E-01  8.68625E-02  5.85691E-02 -7.75017E-04 -3.89359E-02 -1.08950E-01 -1.84016E-01 -2.24013E-01 -2.60425E-01
  -2.59620E-01 -2.56716E-01 -2.34690E-01 -1.98063E-01 -1.61940E-01 -1.18269E-01 -4.66369E-02  3.82347E-02  9.32358E-02  1.24295E-01
   1.15007E-01  6.14958E-02  3.40412E-02 -6.80293E-02 -6.39379E-02 -1.00550E-01 -1.15309E-01 -1.65716E-01 -3.63055E-01 -3.01050E-01
  -3.57206E-01 -3.08594E-01 -1.93329E+00 -2.60472E+00 -1.09156E+00 -3.44501E-01 -2.84885E-01 -9.56887E-02  7.97957E-02 -1.35175E-02
  -1.53802E-02 -3.64991E-03  1.13001E-02  2.00593E-02  2.73248E-02  3.64071E-02  4.04721E-02  4.65865E-02  3.32137E-02  3.98381E-02
   7.82840E-03  1.01906E-03 -2.15193E-02 -4.44691E-02 -3.84433E-02 -3.76929E-02 -1.71622E-02 -1.63467E-04  1.60200E-02  2.66631E-02
   3.85349E-02  4.38883E-02  5.33090E-02  6.06983E-02  6.16928E-02  6.57948E-02  6.98435E-02  7.47770E-02  7.96376E-02  8.35683E-02
   8.47115E-02  8.76179E-02  9.17793E-02  9.47927E-02  9.93926E-02  1.00980E-01  1.02198E-01  1.01712E-01  1.06630E-01  1.10318E-01
   1.13516E-01  1.17901E-01  1.19198E-01  1.17803E-01  1.14472E-01  1.10650E-01  1.07721E-01  1.05552E-01  1.02337E-01  9.66991E-02
   8.98983E-02  8.32235E-02  7.78394E-02  6.86868E-02  5.93049E-02  5.41602E-02  4.97415E-02  4.37751E-02  3.57827E-02  3.17999E-02
   2.63773E-02  2.16000E-02  1.94889E-02  1.55012E-02  1.13735E-02  9.20761E-03  5.28890E-03  1.67146E-03 -1.79831E-04 -1.74721E-03
  -2.33227E-03 -4.90884E-03 -6.06087E-03 -2.57957E-03 -8.18853E-04  9.81217E-04  5.42373E-03  9.29768E-03  1.34663E-02  2.02122E-02
   2.60160E-02  2.58026E-02  2.54568E-02  3.06374E-02  3.81983E-02  4.70890E-02  5.56462E-02  6.24139E-02  6.94947E-02  7.78273E-02
   8.95778E-02  1.01994E-01  1.12944E-01  1.25508E-01  1.36690E-01  1.46685E-01  1.59444E-01  1.68671E-01  1.74887E-01  1.78429E-01
   1.79483E-01  1.78801E-01  1.78125E-01  1.75340E-01  1.72217E-01  1.67521E-01  1.60525E-01  1.48806E-01  1.35245E-01  1.24211E-01
   1.15272E-01  1.05991E-01  9.59996E-02  8.67273E-02  7.48616E-02  6.78758E-02  6.28166E-02  5.51634E-02  4.77229E-02  4.30515E-02
   3.94162E-02  3.55843E-02  3.22166E-02  2.88724E-02  2.85640E-02  3.31660E-02  3.57893E-02  3.69925E-02  4.27440E-02  4.73802E-02
   5.12267E-02  5.72204E-02  6.40583E-02  6.84732E-02  7.12093E-02  7.46891E-02  7.62005E-02  7.63300E-02  7.77251E-02  8.24460E-02
   8.58055E-02  8.35170E-02  8.25136E-02  7.93404E-02  7.75298E-02  7.55659E-02  6.93313E-02  6.54694E-02  6.32979E-02  6.11667E-02
   5.70419E-02  5.30364E-02  4.96682E-02  4.58835E-02  4.25769E-02  3.88312E-02  3.30943E-02  2.93064E-02  2.89841E-02  2.67075E-02
   2.17903E-02  1.73367E-02  1.39586E-02  8.23080E-03 -1.14344E-03 -1.01161E-02 -1.84168E-02 -2.75925E-02 -3.69894E-02 -5.17077E-02
  -6.83982E-02 -8.80867E-02 -1.05951E-01 -1.21194E-01 -1.38125E-01 -1.55369E-01 -1.68629E-01 -1.78341E-01 -1.89004E-01 -1.99692E-01
  -2.06057E-01 -2.03912E-01 -2.00502E-01 -2.00610E-01 -1.97757E-01 -1.88461E-01 -1.80133E-01 -1.72620E-01 -1.65056E-01 -1.58609E-01
  -1.53236E-01 -1.45559E-01 -1.34240E-01 -1.25482E-01 -1.16013E-01 -1.03344E-01 -9.20207E-02 -8.18585E-02 -7.16185E-02 -6.04512E-02
  -5.33125E-02 -4.52119E-02 -3.25288E-02 -2.44941E-02 -2.07778E-02 -1.52797E-02 -7.30938E-03  2.11399E-03  5.90211E-03  4.80986E-03
   1.15525E-02  1.70715E-02  1.78626E-02  2.14126E-02  2.23666E-02  2.31115E-02  2.63276E-02  2.82377E-02  2.72209E-02  2.64917E-02
   3.08278E-02  3.35745E-02  3.40293E-02  3.74879E-02  4.06325E-02  4.02486E-02  3.86135E-02  3.99640E-02  4.00779E-02  3.78378E-02
   3.93182E-02  3.99271E-02  3.73735E-02  3.82261E-02  3.98237E-02  3.87010E-02  3.82587E-02  3.95023E-02  4.24467E-02  4.24094E-02
   3.45727E-02  3.06321E-02  3.59037E-02  3.73447E-02  3.48945E-02  3.34003E-02  3.65144E-02  3.72387E-02  3.25199E-02  3.07532E-02
   3.34241E-02  3.70073E-02  3.71156E-02  3.70057E-02  3.79694E-02  3.93231E-02  4.11240E-02  4.24986E-02  4.09939E-02  4.24104E-02
   4.42000E-02  4.40201E-02  4.04698E-02  3.90356E-02  4.14852E-02  4.18692E-02  4.32147E-02  4.55809E-02  4.73980E-02  4.78246E-02
   4.70194E-02  4.79600E-02  5.23069E-02  5.48275E-02  5.62753E-02  5.52405E-02  5.15387E-02  5.05192E-02  5.18630E-02  5.47800E-02
   5.64723E-02  5.42060E-02  5.29180E-02  5.35519E-02  5.41613E-02  5.67063E-02  5.72444E-02  5.41095E-02  5.54228E-02  6.14010E-02
   6.20482E-02  5.96744E-02  6.20139E-02  6.37656E-02  6.58937E-02  6.71245E-02  6.77170E-02  7.26366E-02  7.91279E-02  8.23179E-02
   8.42334E-02  8.62689E-02  8.95362E-02  8.99855E-02
 NY background values follow
    -6.217E-03   -5.790E-03   -5.362E-03   -4.935E-03   -4.507E-03   -4.079E-03   -3.652E-03   -3.224E-03   -2.797E-03   -2.369E-03
    -1.942E-03   -1.515E-03   -1.087E-03   -6.606E-04   -2.339E-04    1.925E-04    6.187E-04    1.045E-03    1.470E-03    1.895E-03
     2.320E-03    2.745E-03    3.169E-03    3.593E-03    4.016E-03    4.439E-03    4.861E-03    5.283E-03    5.704E-03    6.124E-03
     6.544E-03    6.964E-03    7.383E-03    7.801E-03    8.218E-03    8.635E-03    9.051E-03    9.466E-03    9.880E-03    1.029E-02
     1.071E-02    1.112E-02    1.153E-02    1.194E-02    1.235E-02    1.276E-02    1.316E-02    1.357E-02    1.397E-02    1.438E-02
     1.478E-02    1.518E-02    1.559E-02    1.599E-02    1.638E-02    1.678E-02    1.718E-02    1.757E-02    1.797E-02    1.836E-02
     1.875E-02    1.915E-02    1.953E-02    1.992E-02    2.031E-02    2.070E-02    2.108E-02    2.146E-02    2.185E-02    2.223E-02
