 
 $NMID
 ID=''
 FMTDAT='(2E13.5)'
 TRAMP=   1.00000E+0
 VOLUME=   1.00000E+0
 $END
  -1.93242E+4   1.06620E+4
  -5.57369E+4   1.20141E+4
  -5.26017E+4   2.11687E+4
  -4.86267E+4   1.92040E+4
  -5.13111E+4   1.81671E+4
  -5.05369E+4   2.01937E+4
  -4.90065E+4   1.86739E+4
  -5.02367E+4   1.77520E+4
  -4.98256E+4   1.87282E+4
  -4.87167E+4   1.76869E+4
  -4.93329E+4   1.69039E+4
  -4.88517E+4   1.77106E+4
  -4.79874E+4   1.70414E+4
  -4.85379E+4   1.62706E+4
  -4.83172E+4   1.65604E+4
  -4.75214E+4   1.58397E+4
  -4.78329E+4   1.52644E+4
  -4.75141E+4   1.53998E+4
  -4.69285E+4   1.49325E+4
  -4.71313E+4   1.43976E+4
  -4.67812E+4   1.43596E+4
  -4.62069E+4   1.40727E+4
  -4.63768E+4   1.36729E+4
  -4.61502E+4   1.35117E+4
  -4.55308E+4   1.30886E+4
  -4.55048E+4   1.27728E+4
  -4.53069E+4   1.26915E+4
  -4.48651E+4   1.20927E+4
  -4.47813E+4   1.16212E+4
  -4.45107E+4   1.14866E+4
  -4.40423E+4   1.12312E+4
  -4.38713E+4   1.09349E+4
  -4.37682E+4   1.07594E+4
  -4.33474E+4   1.03370E+4
  -4.30878E+4   1.01005E+4
  -4.28788E+4   9.99951E+3
  -4.24764E+4   9.73463E+3
  -4.21827E+4   9.61353E+3
  -4.19203E+4   9.52272E+3
  -4.15642E+4   9.36059E+3
  -4.13719E+4   9.07353E+3
  -4.11245E+4   8.77758E+3
  -4.08082E+4   8.43779E+3
  -4.04762E+4   8.27478E+3
  -4.02534E+4   8.15365E+3
  -3.98785E+4   7.95659E+3
  -3.96939E+4   7.70263E+3
  -3.95205E+4   7.58066E+3
  -3.92433E+4   7.44250E+3
  -3.89934E+4   7.18377E+3
  -3.87905E+4   7.00043E+3
  -3.84861E+4   6.80074E+3
  -3.81993E+4   6.69117E+3
  -3.79770E+4   6.57493E+3
  -3.78167E+4   6.38648E+3
  -3.75463E+4   6.16403E+3
  -3.74160E+4   5.97051E+3
  -3.72269E+4   5.78566E+3
  -3.69335E+4   5.58128E+3
  -3.66076E+4   5.43017E+3
  -3.63672E+4   5.18747E+3
  -3.61187E+4   5.03211E+3
  -3.59224E+4   4.90299E+3
  -3.57147E+4   4.75069E+3
  -3.54966E+4   4.54292E+3
  -3.52396E+4   4.39610E+3
  -3.50754E+4   4.23033E+3
  -3.48963E+4   4.08510E+3
  -3.46091E+4   3.89103E+3
  -3.43183E+4   3.68097E+3
  -3.41405E+4   3.47375E+3
  -3.39710E+4   3.32558E+3
  -3.36250E+4   3.16911E+3
  -3.33874E+4   2.97576E+3
  -3.31766E+4   2.86941E+3
  -3.29623E+4   2.66618E+3
  -3.26975E+4   2.50535E+3
  -3.24790E+4   2.39267E+3
  -3.21805E+4   2.27528E+3
  -3.19692E+4   2.12715E+3
  -3.17639E+4   1.97021E+3
  -3.15531E+4   1.87950E+3
  -3.12457E+4   1.69954E+3
  -3.10444E+4   1.56993E+3
  -3.07603E+4   1.39522E+3
  -3.05092E+4   1.26753E+3
  -3.02680E+4   1.05931E+3
  -2.99761E+4   8.54524E+2
  -2.97160E+4   7.99276E+2
  -2.95256E+4   7.67415E+2
  -2.92628E+4   5.73564E+2
  -2.89584E+4   4.52661E+2
  -2.87325E+4   4.01437E+2
  -2.85026E+4   3.27445E+2
  -2.82929E+4   2.25435E+2
  -2.79527E+4   1.60870E+2
  -2.77386E+4   7.77366E+1
  -2.75068E+4   5.99352E+1
  -2.73033E+4  -1.18227E+2
  -2.71409E+4  -2.19085E+2
  -2.67662E+4  -3.36493E+2
  -2.65564E+4  -3.79878E+2
  -2.63727E+4  -4.06467E+2
  -2.62025E+4  -4.60046E+2
  -2.59588E+4  -5.70132E+2
  -2.57358E+4  -6.87911E+2
  -2.55275E+4  -7.30253E+2
  -2.52760E+4  -8.67191E+2
  -2.50922E+4  -9.02845E+2
  -2.48485E+4  -1.01565E+3
  -2.46234E+4  -1.07978E+3
  -2.43873E+4  -1.02413E+3
  -2.41857E+4  -1.10068E+3
  -2.40365E+4  -1.19766E+3
  -2.38198E+4  -1.25589E+3
  -2.35892E+4  -1.33718E+3
  -2.34227E+4  -1.38254E+3
  -2.31750E+4  -1.52718E+3
  -2.29752E+4  -1.62154E+3
  -2.27997E+4  -1.65638E+3
  -2.26582E+4  -1.67308E+3
  -2.25216E+4  -1.76438E+3
  -2.22468E+4  -1.83345E+3
  -2.21349E+4  -1.90471E+3
  -2.19420E+4  -1.98830E+3
  -2.17188E+4  -2.07968E+3
  -2.15601E+4  -2.14591E+3
  -2.13790E+4  -2.20416E+3
  -2.12158E+4  -2.26034E+3
  -2.11188E+4  -2.39799E+3
  -2.09191E+4  -2.45235E+3
  -2.05951E+4  -2.51832E+3
  -2.05345E+4  -2.60899E+3
  -2.03254E+4  -2.60733E+3
  -2.02774E+4  -2.76397E+3
  -2.00612E+4  -2.80970E+3
  -1.98101E+4  -2.95503E+3
  -1.96700E+4  -2.97866E+3
  -1.93961E+4  -3.00269E+3
  -1.93212E+4  -3.11791E+3
  -1.90595E+4  -3.16570E+3
  -1.89275E+4  -3.11230E+3
  -1.87497E+4  -3.29841E+3
  -1.85638E+4  -3.34267E+3
  -1.84714E+4  -3.40817E+3
  -1.82945E+4  -3.46106E+3
  -1.80694E+4  -3.47905E+3
  -1.78854E+4  -3.48398E+3
  -1.77624E+4  -3.59663E+3
  -1.75576E+4  -3.67608E+3
  -1.73295E+4  -3.76537E+3
  -1.71445E+4  -3.74659E+3
  -1.69887E+4  -3.74314E+3
  -1.67583E+4  -3.78912E+3
  -1.66232E+4  -3.84291E+3
  -1.63949E+4  -3.92145E+3
  -1.63088E+4  -3.87004E+3
  -1.61781E+4  -3.83566E+3
  -1.59013E+4  -3.93085E+3
  -1.57924E+4  -3.94555E+3
  -1.56853E+4  -4.02873E+3
  -1.54350E+4  -4.01025E+3
  -1.53056E+4  -4.04432E+3
  -1.51811E+4  -4.04680E+3
  -1.50032E+4  -4.06514E+3
  -1.48398E+4  -4.03450E+3
  -1.47058E+4  -4.13735E+3
  -1.45326E+4  -4.12522E+3
  -1.43825E+4  -4.03964E+3
  -1.42461E+4  -4.11118E+3
  -1.40390E+4  -4.17856E+3
  -1.38872E+4  -4.12502E+3
  -1.37667E+4  -4.15691E+3
  -1.36144E+4  -4.17111E+3
  -1.34766E+4  -4.24866E+3
  -1.33052E+4  -4.16607E+3
  -1.31885E+4  -4.13192E+3
  -1.31084E+4  -4.13604E+3
  -1.29726E+4  -4.19867E+3
  -1.28553E+4  -4.20447E+3
  -1.26754E+4  -4.18782E+3
  -1.26047E+4  -4.11762E+3
  -1.24597E+4  -4.21237E+3
  -1.23017E+4  -4.14460E+3
  -1.21297E+4  -4.16840E+3
  -1.20288E+4  -4.19981E+3
  -1.18856E+4  -4.19444E+3
  -1.18163E+4  -4.26034E+3
  -1.16988E+4  -4.20677E+3
  -1.15781E+4  -4.21952E+3
  -1.14517E+4  -4.17192E+3
  -1.13553E+4  -4.23041E+3
  -1.11971E+4  -4.22853E+3
  -1.11075E+4  -4.21296E+3
  -1.09834E+4  -4.23439E+3
  -1.08717E+4  -4.19332E+3
  -1.07325E+4  -4.20388E+3
  -1.06466E+4  -4.23527E+3
  -1.05478E+4  -4.24735E+3
  -1.05318E+4  -4.18244E+3
  -1.03508E+4  -4.19501E+3
  -1.02284E+4  -4.21761E+3
  -1.01111E+4  -4.18649E+3
  -1.00136E+4  -4.15788E+3
  -9.94154E+3  -4.15149E+3
  -9.87304E+3  -4.22678E+3
  -9.79327E+3  -4.23373E+3
  -9.72202E+3  -4.19526E+3
  -9.55124E+3  -4.13700E+3
  -9.48778E+3  -4.15477E+3
  -9.37015E+3  -4.16419E+3
  -9.24437E+3  -4.21214E+3
  -9.16451E+3  -4.12055E+3
  -9.13007E+3  -4.09417E+3
  -9.03754E+3  -4.11751E+3
  -8.93472E+3  -4.12630E+3
  -8.83936E+3  -4.10017E+3
  -8.72119E+3  -4.14395E+3
  -8.62042E+3  -4.09329E+3
  -8.53161E+3  -4.13438E+3
  -8.49620E+3  -4.09913E+3
  -8.33088E+3  -4.10820E+3
  -8.33631E+3  -4.08404E+3
  -8.18292E+3  -4.06224E+3
  -8.16398E+3  -4.03163E+3
  -8.13681E+3  -4.01588E+3
  -8.08502E+3  -4.01957E+3
  -7.85883E+3  -4.02974E+3
  -7.81430E+3  -4.07954E+3
  -7.77207E+3  -4.04311E+3
  -7.70200E+3  -4.02436E+3
  -7.61864E+3  -4.01422E+3
  -7.57249E+3  -3.98152E+3
  -7.50767E+3  -4.00394E+3
  -7.43441E+3  -3.99169E+3
  -7.28638E+3  -3.96458E+3
  -7.22666E+3  -4.00121E+3
  -7.18688E+3  -3.96559E+3
  -7.10572E+3  -3.94935E+3
  -7.01588E+3  -3.88444E+3
  -6.96038E+3  -3.91226E+3
  -6.93902E+3  -3.93027E+3
  -6.89524E+3  -3.94209E+3
  -6.73794E+3  -3.89019E+3
  -6.74621E+3  -3.93027E+3
  -6.67550E+3  -3.84540E+3
  -6.59983E+3  -3.84285E+3
  -6.52838E+3  -3.87341E+3
  -6.49256E+3  -3.82058E+3
  -6.41623E+3  -3.87821E+3
  -6.32379E+3  -3.80503E+3
  -6.25927E+3  -3.81807E+3
  -6.23541E+3  -3.79930E+3
  -6.13493E+3  -3.78621E+3
  -6.10890E+3  -3.80488E+3
  -6.02867E+3  -3.74999E+3
  -5.86885E+3  -3.70967E+3
  -5.89093E+3  -3.68676E+3
  -5.79441E+3  -3.69658E+3
  -5.74924E+3  -3.67090E+3
  -5.73792E+3  -3.68333E+3
  -5.61178E+3  -3.69801E+3
  -5.56448E+3  -3.63069E+3
  -5.55337E+3  -3.62318E+3
  -5.42641E+3  -3.67357E+3
  -5.36234E+3  -3.55083E+3
  -5.33629E+3  -3.60567E+3
  -5.29011E+3  -3.51174E+3
  -5.21999E+3  -3.55754E+3
  -5.16719E+3  -3.49377E+3
  -5.11530E+3  -3.46405E+3
  -5.06984E+3  -3.51627E+3
  -5.00234E+3  -3.48053E+3
  -4.88310E+3  -3.41419E+3
  -4.89852E+3  -3.42432E+3
  -4.80013E+3  -3.39629E+3
  -4.72352E+3  -3.37065E+3
  -4.67261E+3  -3.39345E+3
  -4.62454E+3  -3.34437E+3
  -4.61964E+3  -3.26553E+3
  -4.58332E+3  -3.30149E+3
  -4.50125E+3  -3.23548E+3
  -4.43259E+3  -3.24883E+3
  -4.36652E+3  -3.26914E+3
  -4.34465E+3  -3.22575E+3
  -4.29719E+3  -3.17614E+3
  -4.21580E+3  -3.21224E+3
  -4.15845E+3  -3.16747E+3
  -4.06625E+3  -3.23669E+3
  -4.01177E+3  -3.08919E+3
  -4.02615E+3  -3.10047E+3
  -3.95102E+3  -3.05802E+3
  -3.93710E+3  -3.10290E+3
  -3.86257E+3  -3.06135E+3
  -3.86029E+3  -2.97279E+3
  -3.79880E+3  -2.96230E+3
  -3.68739E+3  -3.02654E+3
  -3.67410E+3  -3.00140E+3
  -3.57608E+3  -2.94238E+3
  -3.54999E+3  -2.90777E+3
  -3.50894E+3  -2.86835E+3
  -3.51245E+3  -2.90366E+3
  -3.36909E+3  -2.88743E+3
  -3.36620E+3  -2.83834E+3
  -3.30433E+3  -2.79718E+3
  -3.36657E+3  -2.79423E+3
  -3.22601E+3  -2.82098E+3
  -3.19019E+3  -2.76281E+3
  -3.17745E+3  -2.77747E+3
  -3.09246E+3  -2.69831E+3
  -3.01573E+3  -2.68181E+3
  -3.02208E+3  -2.66389E+3
  -2.94127E+3  -2.72236E+3
  -2.89982E+3  -2.64116E+3
  -2.84070E+3  -2.65065E+3
  -2.76013E+3  -2.59446E+3
  -2.78456E+3  -2.55779E+3
  -2.77737E+3  -2.54833E+3
  -2.68202E+3  -2.55811E+3
  -2.61475E+3  -2.59764E+3
  -2.58759E+3  -2.52611E+3
  -2.54959E+3  -2.54115E+3
  -2.50728E+3  -2.49441E+3
  -2.41239E+3  -2.49620E+3
  -2.35974E+3  -2.53415E+3
  -2.36221E+3  -2.38556E+3
  -2.35953E+3  -2.43872E+3
  -2.32456E+3  -2.39792E+3
  -2.25994E+3  -2.45377E+3
  -2.15509E+3  -2.38951E+3
  -2.15562E+3  -2.41319E+3
  -2.18634E+3  -2.35036E+3
  -2.08531E+3  -2.33764E+3
  -2.05012E+3  -2.35272E+3
  -2.07837E+3  -2.31415E+3
  -1.96197E+3  -2.27709E+3
  -1.97656E+3  -2.26499E+3
  -1.90676E+3  -2.24230E+3
  -1.88072E+3  -2.17625E+3
  -1.89069E+3  -2.21548E+3
  -1.82795E+3  -2.13482E+3
  -1.70646E+3  -2.22006E+3
  -1.74086E+3  -2.17429E+3
  -1.66712E+3  -2.07053E+3
  -1.63388E+3  -2.12518E+3
  -1.67000E+3  -2.07190E+3
  -1.59377E+3  -2.05498E+3
  -1.59200E+3  -2.05474E+3
  -1.50787E+3  -2.06109E+3
  -1.48044E+3  -2.05863E+3
  -1.46019E+3  -2.06778E+3
  -1.45366E+3  -2.04002E+3
  -1.37789E+3  -1.98552E+3
  -1.47333E+3  -1.90547E+3
  -1.38236E+3  -1.95702E+3
  -1.38249E+3  -1.91867E+3
  -1.31691E+3  -1.96772E+3
  -1.25257E+3  -1.86790E+3
  -1.24876E+3  -1.89822E+3
  -1.17239E+3  -1.86457E+3
  -1.13473E+3  -1.89054E+3
  -1.11691E+3  -1.86693E+3
  -1.15757E+3  -1.79828E+3
  -1.07707E+3  -1.74253E+3
  -1.07508E+3  -1.76882E+3
  -1.05332E+3  -1.72452E+3
  -9.41141E+2  -1.73775E+3
