 
 $NMID
 ID=''
 FMTDAT='(2E13.5)'
 TRAMP=   1.00000E+0
 VOLUME=   1.00000E+0
 $END
   8.34773E+2   3.75849E+2
  -1.02683E+3   2.29101E+3
   6.47060E+3  -3.06310E+3
   5.26870E+2  -2.62365E+3
  -1.66550E+3  -1.37050E+3
   1.61176E+3  -3.67480E+2
  -1.73551E+3   2.06814E+3
  -1.54724E+3  -8.33612E+2
   1.43299E+3  -2.25910E+3
  -5.94650E+1  -2.60954E+3
   5.16615E+3  -2.72093E+3
   4.09590E+3   2.26103E+3
   1.57650E+3   2.63981E+3
  -4.05223E+3  -1.34066E+2
  -2.22731E+3  -1.81402E+3
   3.05336E+3  -2.93038E+3
   1.32847E+3  -3.61541E+3
   3.83572E+2  -4.55860E+2
  -3.34534E+3   1.53876E+3
  -1.73948E+3   3.08707E+2
   4.80367E+3   9.00020E+2
  -1.07575E+3   6.08340E+3
  -4.02908E+3   4.60890E+3
  -1.42430E+3  -2.91456E+3
   9.93415E+2   1.11908E+3
   1.72140E+3   4.73004E+3
  -1.71170E+3   2.71857E+3
  -2.31605E+3  -3.09621E+3
   2.12915E+3  -2.67248E+3
   6.06344E+3   1.75716E+3
   2.44993E+3   7.60098E+3
  -6.84554E+3   3.12033E+3
  -3.48812E+3  -2.91173E+3
   4.06031E+2  -1.36704E+3
  -8.31041E+2   5.84664E+2
  -8.70740E+2  -4.87417E+3
   4.12701E+3  -2.77249E+3
   2.02906E+3   1.65426E+3
  -1.41448E+3   2.13977E+3
  -2.59438E+3  -5.41743E+2
  -3.23126E+3   1.49351E+2
  -3.27914E+3  -5.67924E+3
   1.39717E+3  -4.78471E+3
   6.88770E+3   1.33592E+2
   5.04357E+3   2.33435E+3
   5.61753E+2   2.48086E+3
   9.24844E+2   1.85386E+3
  -3.83380E+2   2.34786E+3
  -1.67620E+2   6.75514E+2
  -4.98056E+2  -1.62805E+3
   1.08997E+3  -3.97523E+3
   3.28359E+3  -1.93745E+3
   2.95538E+3   3.88732E+3
  -2.84517E+2   3.32120E+3
  -8.45699E+2   9.83076E+2
  -2.55104E+3   1.15351E+3
  -3.34572E+3  -1.62811E+3
  -3.91039E+3  -1.87670E+3
   4.56941E+2  -4.37649E+3
   3.43881E+3  -6.97453E+2
   2.14173E+3   3.31074E+3
   2.81551E+2   2.27260E+3
  -3.23607E+3   1.57961E+3
  -2.15967E+3  -2.04612E+3
   1.19889E+2  -1.63127E+3
  -1.18459E+3   1.46585E+3
  -2.67737E+3  -2.70013E+3
  -4.80049E+2  -1.48903E+3
   3.45100E+2  -9.05461E+2
  -8.36318E+2   1.86149E+0
  -8.67488E+2  -4.13278E+2
   1.10675E+3  -4.37350E+2
   1.36527E+3   1.12724E+3
   1.03300E+3   4.38872E+2
   1.40481E+3   2.16251E+3
  -1.05268E+3   4.60624E+2
  -7.12370E+1  -6.94453E+2
   2.46817E+3   5.38033E+2
   8.32514E+2  -5.14293E+2
  -1.02582E+3   1.88526E+3
  -6.81502E+2  -1.50869E+3
   2.24120E+1  -1.98867E+3
  -5.89228E+2   1.30343E+3
   2.17934E+2  -1.48554E+2
   1.80682E+2  -1.63632E+3
   2.39340E+3  -1.78850E+3
   3.59793E+3  -3.26327E+2
   2.58458E+3   4.69764E+3
   9.74941E+2   4.03172E+3
  -1.52751E+3   1.96335E+3
  -7.17409E+2   3.13350E+2
   5.89345E+2   5.74490E+2
  -2.65843E+3  -1.77427E+3
  -1.70263E+3  -3.49816E+3
  -1.21605E+3  -3.69195E+3
   4.29137E+3   1.15359E+3
  -2.23646E+3   1.16951E+3
  -2.09375E+3  -3.81834E+3
  -1.56709E+3  -1.56606E+3
   3.75976E+3  -3.08782E+3
   2.75265E+3   1.00529E+3
  -1.07430E+3   3.39830E+3
  -1.54015E+3  -1.04728E+3
  -2.45215E+2  -6.91604E+2
   2.97284E+3  -7.84653E+2
   6.32948E+2   7.83506E+2
  -4.69063E+2   5.05700E+2
   1.09861E+3  -2.00292E+3
   2.68250E+3  -1.86406E+3
   2.45845E+3   2.10234E+3
  -3.76525E+2   3.75116E+3
  -1.02356E+3   1.76918E+3
  -1.21411E+3  -1.12190E+3
  -1.46827E+3   7.23813E+2
  -7.75685E+2   1.20304E+3
   2.77646E+3  -2.92757E+3
  -1.55794E+3   7.38309E+2
   2.34545E+3  -4.26238E+2
   4.74423E+2   6.11063E+2
  -6.29574E+2   2.60152E+2
  -1.54812E+3   2.16641E+1
  -1.02992E+3  -2.45913E+3
   1.72957E+3  -1.24320E+3
  -5.18609E+2   7.51289E+2
   2.61724E+2   1.96819E+3
   3.47753E+2   1.09037E+2
  -5.03879E+2   9.73388E+2
  -1.54616E+3   1.66368E+3
  -2.95638E+3   8.70569E+2
   1.01064E+2  -7.26411E+2
  -3.02790E+2  -9.70068E+2
  -8.55626E+2   3.71153E+3
  -1.55503E+3  -7.96611E+2
  -2.53602E+3  -1.11630E+3
  -1.17313E+3  -1.00524E+3
   4.23434E+2  -9.69786E+2
  -7.58524E+2   4.12261E+2
  -7.26571E+2   1.55373E+3
  -2.68106E+3   8.35922E+2
   1.54315E+2  -5.32211E+2
   1.51633E+3  -1.29670E+3
  -1.56422E+3  -4.35828E+2
  -1.97788E+3   3.35394E+2
   2.12335E+2  -8.26381E+2
   1.44685E+2   1.80532E+3
  -2.44975E+2   1.00756E+3
  -5.36194E+1   2.08729E+1
  -3.72361E+2  -7.68012E+2
  -2.95025E+2   8.07921E+2
  -3.53616E+2  -2.15812E+3
   1.16616E+3  -7.36698E+2
  -9.54284E+2  -1.50355E+3
  -8.42159E+2   1.00782E+3
  -1.49443E+3   4.80938E+2
   7.89381E+2  -3.76317E+2
  -2.01340E+2  -1.65180E+3
  -3.51281E+2  -2.38877E+2
   8.48953E+2  -1.79182E+3
  -1.00425E+2  -7.23436E+2
  -3.27053E+2  -2.24704E+2
   8.65164E+2  -1.41463E+3
   9.28641E+1   1.23071E+2
   3.71255E+2  -1.10460E+3
  -1.12285E+3   1.26899E+2
   1.15058E+3  -3.09952E+2
   9.86138E+2  -9.80091E+1
  -1.62595E+3   1.80038E+3
  -7.10178E+2   1.27996E+3
  -6.17735E+2  -8.38520E+2
  -2.28554E+2  -9.29450E+2
  -1.34642E+3   3.09110E+2
   1.14097E+3  -1.63965E+3
   1.94859E+3   1.42637E+3
  -5.06517E+1  -1.00620E+3
   2.19134E+3   2.52130E+2
  -1.84036E+3   1.09839E+3
   6.16643E+2   1.33550E+2
  -1.11070E+3   2.49063E+2
   1.21989E+3  -1.62530E+2
   8.54391E+2   7.85805E+2
   1.43939E+3   3.67232E+2
   1.72945E+3   1.97654E+3
  -3.48190E+2   1.65590E+3
  -1.00326E+2  -7.04844E+2
   3.99500E+2   1.61677E+3
   1.57152E+2  -4.27879E+2
   1.34194E+3   3.88566E+2
   2.48943E+3  -8.90595E+2
  -4.96984E+2   1.00455E+2
   3.98951E+2  -1.72090E+3
   1.05865E+3   2.12847E+2
   6.44495E+2  -1.17790E+3
   4.62423E+2   7.70525E+2
   1.74752E+2  -9.69663E+2
  -3.78991E+2   1.43338E+3
  -1.18124E+3  -1.82910E+3
   1.18047E+3  -7.86432E+1
  -1.14796E+3   4.50512E+2
   1.10437E+3  -2.04410E+3
   1.03129E+3  -1.57312E+3
  -1.31840E+3   1.68003E+3
  -1.20482E+3   1.16122E+3
   1.69960E+3  -2.89965E+2
   1.51244E+3   7.73688E+2
  -9.02272E+2   2.44345E+2
  -8.72207E+2  -8.14104E+2
  -9.91089E+2   9.03852E+2
  -8.01438E+2   2.28535E+3
   9.99037E+2   5.25253E+2
   7.17580E+2  -3.18086E+2
   1.94714E+2   5.93518E+2
   1.08761E+3   7.95935E+2
   6.17405E+2   2.33457E+2
   4.70020E+2   1.23345E+3
  -1.25176E+3   1.28742E+3
  -1.16686E+3   5.71205E+2
   6.76819E+2   1.26721E+3
  -1.38382E+3  -5.87931E+2
   6.51159E+1  -4.52921E+2
  -2.73673E+2  -1.38423E+3
  -2.16036E+2  -2.73030E+2
   1.28676E+3  -1.57541E+2
   5.20541E+2  -1.12047E+3
  -5.27216E+2   7.07074E+2
  -1.04491E+2  -4.67608E+2
  -1.41334E+3   8.42491E+2
   1.40085E+3  -1.54479E+2
  -5.49152E+2  -1.25409E+2
  -1.02842E+3  -1.09211E+3
  -2.22137E+2   6.39814E+2
  -1.37559E+3  -1.59125E+3
  -2.34418E+1   2.78463E+2
   3.35185E+3   9.07012E+2
  -2.01822E+2   5.43248E+2
   1.18759E+2   7.17556E+2
   1.51146E+3  -5.62030E+2
  -2.02469E+2   5.94545E+2
  -5.12035E+2   5.57795E+1
  -1.80216E+2   6.32251E+1
  -5.41427E+2   1.24361E+3
   7.97155E+2  -1.62075E+3
  -1.11065E+3   8.59701E+1
  -1.34059E+3   2.38064E+2
   1.40545E+3  -8.12247E+2
  -1.06473E+3   1.03914E+2
   2.43578E+2   1.50769E+2
   1.86672E+3  -6.04239E+2
  -4.85069E+2   8.15598E+2
   1.51130E+2  -1.45662E+3
  -5.85831E+2  -8.39520E+1
   6.45164E+2   1.72715E+3
   7.85526E+1   5.83968E+2
   4.80847E+1   1.23914E+1
   1.19829E+3   9.01495E+2
  -1.73899E+3  -8.40805E+2
  -3.67937E+1   3.10862E+2
   7.13493E+2  -1.09036E+3
   1.40980E+3   1.32052E+3
  -1.12374E+3   1.50103E+2
  -6.83473E+2  -1.49770E+3
   2.79869E+2  -9.33198E+2
   6.99795E+2  -1.43749E+3
  -2.04831E+2  -1.57908E+3
  -2.68159E+2  -7.87701E+2
  -9.64943E+2  -7.17237E+2
   2.25332E+3   2.79467E+2
   1.50492E+3  -5.58048E+2
  -1.41173E+3  -8.79676E+2
  -2.36156E+2   4.03300E+2
   1.99562E+2  -1.72750E+3
  -6.93192E+2  -1.53089E+2
   9.79608E+2  -4.30372E+2
  -1.40927E+3  -1.96189E+2
   3.75075E+2  -1.01526E+3
   1.03719E+3  -1.69542E+2
   4.84175E+2   3.52008E+2
  -1.54909E+1   2.89723E+2
  -1.58418E+3   1.13987E+2
  -7.32662E+2  -1.46338E+3
   1.47836E+3  -3.29620E+2
   9.81531E+2   3.64029E+2
  -7.84573E+2   7.15117E+2
   1.77069E+3   9.86333E+2
   1.13021E+3  -1.98783E+2
  -2.70282E+2  -3.54289E+2
  -2.96514E+2   2.65233E+2
  -8.02653E+2   6.08630E+2
   6.87148E+2  -5.48100E+2
  -1.02618E+1   5.84646E+2
  -1.46397E+3   1.92836E+2
  -9.86279E+2  -8.89697E+2
  -9.05934E+2   6.03313E+2
   1.40193E+3   1.28959E+3
   6.15287E+2   7.64391E+2
  -1.30838E+3   9.94536E+2
  -6.63745E+2  -8.50929E+2
  -1.06333E+3  -7.29231E+1
   1.90502E+3  -8.10513E+2
  -1.40412E+3  -9.13054E+2
  -8.42453E+2  -9.76429E+1
   1.42327E+3  -1.97467E+3
   8.73982E+2   5.86551E+2
   2.49819E+2   2.67235E+2
   3.57488E+2  -7.89175E+1
   1.26171E+2   2.10566E+3
  -3.44322E+1  -6.30751E+2
   8.49327E+2   9.75260E+2
   5.66067E+1   2.44467E+2
  -1.77778E+3  -2.70084E+3
  -3.86372E+1  -8.31988E+2
  -7.86889E+1   5.44150E+2
  -1.48156E+3  -1.00112E+3
   7.46825E+2   3.09257E+2
  -5.58430E+1   2.99932E+3
   2.74645E+3  -1.27211E+3
  -3.01015E+2   2.37943E+3
  -5.71839E+2  -1.53403E+3
  -1.52477E+3  -4.01991E+2
   2.59047E+3  -1.56461E+2
  -2.92261E+2   1.10664E+3
  -4.95336E+1   5.78195E+2
  -1.49944E+3  -1.09592E+3
  -9.40974E+2  -8.82229E+2
  -9.83988E+2   1.52376E+3
  -1.49569E+3  -3.87039E+2
  -3.24160E+2  -9.50437E+2
   1.97343E+3  -2.55627E+2
   1.06937E+2   2.44704E+1
   4.53241E+2  -3.07848E+2
   2.45390E+3   8.78138E+2
  -9.98083E+2   2.53194E+3
  -3.23685E+2  -2.70340E+2
  -9.62379E+1  -6.18136E+2
   2.07231E+2  -1.02392E+2
   8.82078E+1   3.77499E+2
  -2.30332E+2  -2.05191E+2
   6.17215E+2   1.31738E+3
  -2.15462E+3   2.98608E+1
  -3.98219E+2   1.63970E+3
  -1.04415E+3  -6.51430E+2
   1.74061E+3   6.64000E+2
   1.54811E+3  -2.12656E+3
   1.51704E+3   4.46510E+2
  -5.55620E+2  -1.52933E+3
   5.67594E+2   1.26687E+3
  -1.48099E+2  -1.65212E+3
   6.89813E+1   9.38311E+2
   4.17228E+2  -9.56820E+2
   2.91813E+2  -8.10667E+2
   1.04808E+3   7.07537E+2
  -1.38979E+3  -8.09016E+2
  -1.52801E+3  -2.15490E+1
  -8.86089E+2  -1.53210E+3
  -8.75905E+2   7.06653E+2
  -4.76298E+2   1.52087E+3
   1.26172E+2   8.82022E+2
   1.83600E+2   9.97810E+1
  -3.31094E+2  -1.31081E+3
  -6.17449E+2  -3.84448E+2
   3.53858E+2   1.93992E+2
  -4.99790E+2   1.04813E+3
   7.32952E+2   1.05151E+2
  -7.43626E+2   5.13292E+2
   6.26518E+2  -6.82082E+0
  -5.47007E+1  -1.42259E+3
  -3.07645E+2   1.21353E+3
   6.91372E+2   4.49755E+2
