 LCModel (Version 6.3-1N) Copyright: S.W. Provencher.          Ref.: Magn. Reson. Med. 30:672-679 (1993).                
 Slice_N1@18_10  02-Jun-2023 14:37:06
 27 lines in following concentration table = NCONC+1
    Conc.  %SD /Cr+PCr  Metabolite                                         
 1.83E-06  20% 2.0E-04 Mac                                                 
 4.23E-02  42%   4.648 Cr                                                  
 3.05E-02  59%   3.352 PCr                                                 
 7.63E-02  13%   8.377 Ins                                                 
    0.103   8%  11.327 NAA                                                 
 6.04E-02  16%   6.631 Tau                                                 
 2.07E-02  13%   2.274 PCho                                                
    0.000 999%   0.000 GPC                                                 
 6.80E-02  16%   7.467 Glu                                                 
 3.64E-02  24%   4.003 Gln                                                 
    0.000 999%   0.000 Ala                                                 
    0.000 999%   0.000 Asc                                                 
 4.91E-03 170%   0.540 Asp                                                 
 9.37E-03  49%   1.029 GABA                                                
 6.95E-03  78%   0.763 Glc                                                 
 2.11E-02  26%   2.321 GSH                                                 
 3.81E-03 232%   0.419 Lac                                                 
    0.000 999%   0.000 NAAG                                                
    0.000 999%   0.000 PE                                                  
 2.07E-02  13%   2.274 GPC+PCho                                            
    0.103   8%  11.327 NAA+NAAG                                            
    0.104  13%  11.469 Glu+Gln                                             
 7.28E-02  11%   8.000 Cr+PCr                                              
    0.103   8%  11.327 NAA+NAAG                                            
 7.28E-02  11%   8.000 Cr+PCr                                              
    0.104  13%  11.469 Glu+Gln                                             
   6 lines in following misc. output table
  FWHM = 0.041 ppm    S/N =   3                                            
  Data shift =-0.029 ppm                                                   
  Ph: -49 deg      -9.4 deg/ppm                                            
  alphaB,S = 7.1E-01,   2.2E+01                                            
   18 spline knots.   Ns = 8(1)                                            
  ( 9) 6 infls.   ( 2) 2 extrs.                                            
  654 points on ppm-axis = NY
      4.000000     3.994181     3.988363     3.982544     3.976726     3.970907     3.965088     3.959270     3.953451     3.947633
      3.941814     3.935995     3.930177     3.924358     3.918540     3.912721     3.906902     3.901084     3.895265     3.889446
      3.883628     3.877809     3.871991     3.866172     3.860353     3.854535     3.848716     3.842898     3.837079     3.831260
      3.825442     3.819623     3.813805     3.807986     3.802167     3.796349     3.790530     3.784712     3.778893     3.773074
      3.767256     3.761437     3.755619     3.749800     3.743981     3.738163     3.732344     3.726526     3.720707     3.714888
      3.709070     3.703251     3.697433     3.691614     3.685795     3.679977     3.674158     3.668339     3.662521     3.656702
      3.650884     3.645065     3.639246     3.633428     3.627609     3.621791     3.615972     3.610153     3.604335     3.598516
      3.592698     3.586879     3.581060     3.575242     3.569423     3.563605     3.557786     3.551967     3.546149     3.540330
      3.534512     3.528693     3.522874     3.517056     3.511237     3.505419     3.499600     3.493781     3.487963     3.482144
      3.476326     3.470507     3.464688     3.458870     3.453051     3.447232     3.441414     3.435595     3.429777     3.423958
      3.418139     3.412321     3.406502     3.400684     3.394865     3.389046     3.383228     3.377409     3.371591     3.365772
      3.359953     3.354135     3.348316     3.342498     3.336679     3.330860     3.325042     3.319223     3.313405     3.307586
      3.301767     3.295949     3.290130     3.284312     3.278493     3.272674     3.266856     3.261037     3.255219     3.249400
      3.243581     3.237763     3.231944     3.226125     3.220307     3.214488     3.208670     3.202851     3.197032     3.191214
      3.185395     3.179577     3.173758     3.167939     3.162121     3.156302     3.150484     3.144665     3.138846     3.133028
      3.127209     3.121391     3.115572     3.109753     3.103935     3.098116     3.092298     3.086479     3.080660     3.074842
      3.069023     3.063205     3.057386     3.051567     3.045749     3.039930     3.034111     3.028293     3.022474     3.016656
      3.010837     3.005018     2.999200     2.993381     2.987563     2.981744     2.975925     2.970107     2.964288     2.958470
      2.952651     2.946832     2.941014     2.935195     2.929377     2.923558     2.917739     2.911921     2.906102     2.900284
      2.894465     2.888646     2.882828     2.877009     2.871191     2.865372     2.859553     2.853735     2.847916     2.842098
      2.836279     2.830460     2.824642     2.818823     2.813004     2.807186     2.801367     2.795549     2.789730     2.783911
      2.778093     2.772274     2.766456     2.760637     2.754818     2.749000     2.743181     2.737363     2.731544     2.725725
      2.719907     2.714088     2.708270     2.702451     2.696632     2.690814     2.684995     2.679177     2.673358     2.667539
      2.661721     2.655902     2.650084     2.644265     2.638446     2.632628     2.626809     2.620991     2.615172     2.609353
      2.603535     2.597716     2.591897     2.586079     2.580260     2.574442     2.568623     2.562804     2.556986     2.551167
      2.545349     2.539530     2.533711     2.527893     2.522074     2.516256     2.510437     2.504618     2.498800     2.492981
      2.487163     2.481344     2.475525     2.469707     2.463888     2.458070     2.452251     2.446432     2.440614     2.434795
      2.428977     2.423158     2.417339     2.411521     2.405702     2.399884     2.394065     2.388246     2.382428     2.376609
      2.370790     2.364972     2.359153     2.353335     2.347516     2.341697     2.335879     2.330060     2.324242     2.318423
      2.312604     2.306786     2.300967     2.295149     2.289330     2.283511     2.277693     2.271874     2.266056     2.260237
      2.254418     2.248600     2.242781     2.236963     2.231144     2.225325     2.219507     2.213688     2.207870     2.202051
      2.196232     2.190414     2.184595     2.178777     2.172958     2.167139     2.161321     2.155502     2.149683     2.143865
      2.138046     2.132228     2.126409     2.120590     2.114772     2.108953     2.103135     2.097316     2.091497     2.085679
      2.079860     2.074042     2.068223     2.062404     2.056586     2.050767     2.044949     2.039130     2.033311     2.027493
      2.021674     2.015856     2.010037     2.004218     1.998400     1.992581     1.986763     1.980944     1.975126     1.969307
      1.963489     1.957670     1.951852     1.946033     1.940215     1.934397     1.928578     1.922760     1.916941     1.911123
      1.905304     1.899486     1.893667     1.887849     1.882030     1.876212     1.870393     1.864575     1.858756     1.852938
      1.847119     1.841301     1.835482     1.829664     1.823845     1.818027     1.812208     1.806390     1.800571     1.794753
      1.788934     1.783116     1.777297     1.771479     1.765660     1.759842     1.754023     1.748205     1.742386     1.736568
      1.730749     1.724931     1.719113     1.713294     1.707476     1.701657     1.695839     1.690020     1.684202     1.678383
      1.672565     1.666746     1.660928     1.655109     1.649291     1.643472     1.637654     1.631835     1.626017     1.620198
      1.614380     1.608561     1.602743     1.596924     1.591106     1.585287     1.579469     1.573650     1.567832     1.562013
      1.556195     1.550376     1.544558     1.538739     1.532921     1.527102     1.521284     1.515465     1.509647     1.503829
      1.498010     1.492192     1.486373     1.480555     1.474736     1.468918     1.463099     1.457281     1.451462     1.445644
      1.439825     1.434007     1.428188     1.422370     1.416551     1.410733     1.404914     1.399096     1.393277     1.387459
      1.381640     1.375822     1.370003     1.364185     1.358366     1.352548     1.346729     1.340911     1.335092     1.329274
      1.323455     1.317637     1.311818     1.306000     1.300182     1.294363     1.288545     1.282726     1.276908     1.271089
      1.265271     1.259452     1.253634     1.247815     1.241997     1.236178     1.230360     1.224541     1.218723     1.212904
      1.207086     1.201267     1.195449     1.189630     1.183812     1.177993     1.172175     1.166356     1.160538     1.154719
      1.148901     1.143082     1.137264     1.131445     1.125627     1.119808     1.113990     1.108171     1.102353     1.096534
      1.090716     1.084898     1.079079     1.073261     1.067442     1.061624     1.055805     1.049987     1.044168     1.038350
      1.032531     1.026713     1.020894     1.015076     1.009257     1.003439     0.997620     0.991802     0.985983     0.980165
      0.974346     0.968528     0.962709     0.956891     0.951072     0.945254     0.939435     0.933617     0.927798     0.921980
      0.916161     0.910343     0.904524     0.898706     0.892887     0.887069     0.881251     0.875432     0.869614     0.863795
      0.857977     0.852158     0.846340     0.840521     0.834703     0.828884     0.823066     0.817247     0.811429     0.805610
      0.799792     0.793973     0.788155     0.782336     0.776518     0.770699     0.764881     0.759062     0.753244     0.747425
      0.741607     0.735788     0.729970     0.724151     0.718333     0.712514     0.706696     0.700877     0.695059     0.689240
      0.683422     0.677603     0.671785     0.665967     0.660148     0.654330     0.648511     0.642693     0.636874     0.631056
      0.625237     0.619419     0.613600     0.607782     0.601963     0.596145     0.590326     0.584508     0.578689     0.572871
      0.567052     0.561234     0.555415     0.549597     0.543778     0.537960     0.532141     0.526323     0.520504     0.514686
      0.508867     0.503049     0.497230     0.491412     0.485593     0.479775     0.473956     0.468138     0.462319     0.456501
      0.450682     0.444864     0.439045     0.433227     0.427408     0.421590     0.415771     0.409953     0.404134     0.398316
      0.392497     0.386679     0.380860     0.375042     0.369223     0.363405     0.357586     0.351767     0.345949     0.340130
      0.334312     0.328493     0.322675     0.316856     0.311038     0.305219     0.299401     0.293582     0.287764     0.281945
      0.276127     0.270308     0.264490     0.258671     0.252853     0.247034     0.241216     0.235397     0.229579     0.223760
      0.217942     0.212123     0.206305     0.200486
 NY phased data points follow
   7.07854E-02 -4.35071E-01 -2.92174E-01  6.89965E-02  8.46494E-02  4.00734E-02  3.59901E-02 -1.43117E-01 -1.63882E-02  2.71245E-01
   2.04425E-01  1.19576E-01  8.25013E-02  1.71494E-02  4.48016E-01  4.69894E-01  4.02850E-01  1.60084E-01  6.83695E-02  1.66763E-01
  -4.42638E-02 -1.03057E-01 -3.72847E-01 -1.33156E-01 -2.37862E-01 -2.02764E-01 -5.82273E-02 -8.89987E-02 -7.30089E-02 -3.47985E-01
  -2.07862E-03  2.05503E-01 -1.24851E-01 -1.09827E-03 -5.53443E-02 -2.53267E-01 -2.70220E-01 -3.22433E-01 -1.84936E-01 -1.28491E-01
   2.38011E-01  9.52360E-02  3.36506E-01  5.56179E-01  4.40488E-01  5.11099E-01  3.87339E-01  3.61457E-01 -8.91316E-02  1.74462E-01
   2.91526E-01  8.67003E-02 -6.68033E-03  4.73314E-02 -4.83515E-02 -1.41968E-01 -2.63857E-01 -6.30612E-01 -4.37057E-01 -2.05466E-01
  -4.73128E-02 -1.84089E-01 -3.33025E-01 -2.38510E-01  1.49662E-01 -4.85416E-02 -5.10386E-01 -2.62412E-01  2.28852E-01 -4.28047E-02
   6.70383E-02  4.85429E-01  1.15129E-01  9.35962E-02  6.53046E-02 -2.46918E-02 -3.72403E-01 -1.43621E-01 -1.84309E-01 -2.42714E-01
  -2.60534E-01 -3.77128E-01  1.09959E-01  1.19858E-01  3.00615E-01  1.91527E-01  1.80599E-01  2.02675E-01  3.67970E-01  3.52836E-01
   5.01740E-02  1.44941E-01 -1.50521E-01 -9.21098E-02  3.10980E-01  9.91157E-03  1.98851E-03  9.54831E-02 -1.58936E-01  5.92236E-02
  -2.80699E-01 -1.15681E-01  9.32681E-02  9.48071E-02  5.90164E-01  2.19263E-01  2.42438E-01  6.70732E-01  3.72234E-01  4.25467E-01
   4.11730E-01  2.85772E-01  4.86499E-01  4.57564E-01  7.42951E-01  6.43643E-01  4.79479E-01  2.98554E-01  4.88915E-01  7.01831E-01
   2.70368E-01  2.56839E-01  1.95088E-01  1.29603E-01  7.63214E-02  1.07613E-01  5.06216E-02  1.67470E-01 -3.20007E-01 -5.46190E-01
  -4.34303E-01 -5.39844E-01 -2.11152E-01 -5.99666E-01 -6.02836E-01 -6.61393E-01 -5.69899E-01 -6.82412E-01 -7.01358E-01 -4.39453E-01
  -8.81007E-01 -3.33094E-01 -1.09149E-01  1.17429E-01 -1.54612E-01 -3.37396E-01  3.97112E-01  1.73001E-01  1.17673E-01  1.60197E-01
   1.95142E-01 -1.48362E-01  1.77005E-02  2.76019E-01  9.89627E-02  3.44313E-01  1.94095E-01  2.39410E-01  3.56039E-01  3.37196E-01
   1.55744E-02  5.94894E-01  9.25925E-01  5.23073E-01  6.62984E-01  6.52614E-01  4.62650E-01 -9.77972E-02 -1.60439E-01 -3.03700E-01
  -4.45314E-01 -3.42644E-01 -5.85420E-01 -9.69304E-01 -7.71913E-01 -4.24041E-01 -6.17307E-01 -5.51782E-01 -3.50181E-01 -4.00026E-01
  -2.96917E-01 -1.60691E-01 -4.21657E-01  9.49768E-02 -8.69497E-02 -5.05760E-01 -2.83497E-01 -5.40736E-01 -5.67315E-01 -3.16449E-01
  -3.02601E-01 -5.42345E-01 -3.33626E-01 -3.55502E-01 -2.78958E-01 -2.13366E-01 -2.71712E-01 -2.07541E-01 -2.78609E-01 -2.98972E-01
  -1.17996E-01 -1.99885E-01 -2.83988E-01 -9.45664E-02 -2.87874E-01 -9.95043E-03  5.02283E-02  2.24168E-01  2.27300E-01 -3.24405E-02
  -2.83294E-01 -3.64338E-01 -1.12652E-01 -2.41885E-01  1.11567E-02 -1.30101E-01 -2.05782E-01 -1.20704E-02  7.81136E-02 -1.35167E-01
  -1.63451E-01  2.01241E-01  1.57302E-01  1.60167E-02  9.17269E-02  4.31338E-01  3.38482E-01  5.14448E-02  8.11623E-02  4.62649E-01
   4.00468E-01  2.31087E-01  3.98206E-01  4.53575E-01  1.39916E-01  5.38529E-02  9.38404E-02 -8.62431E-02  2.39344E-01  1.99147E-03
   1.12147E-03 -1.13388E-01 -4.81697E-01 -2.84057E-01 -3.50782E-01 -1.48908E-01 -2.88953E-01 -1.07215E-01  2.39438E-01 -3.46867E-01
  -2.81420E-01  3.91324E-02 -2.68979E-01 -1.62124E-01 -5.22473E-02 -2.67653E-01 -1.35234E-01  1.54491E-01  2.19095E-01  9.99068E-03
   2.03273E-01  2.32916E-01  5.80359E-02  3.63925E-01  7.61136E-02  2.01314E-01  6.53934E-01  3.08610E-01  2.05996E-01  3.63037E-01
   2.83848E-01  7.76368E-02  3.91580E-01  2.71106E-01 -1.28101E-01  1.83559E-01  7.61307E-02 -8.66950E-02 -3.15638E-01 -4.79475E-01
  -2.02639E-01 -3.49358E-01 -2.27539E-01  1.48708E-01 -1.13219E-01 -1.44508E-01  3.79621E-01  5.76314E-01  3.97552E-01  2.83157E-01
   4.42645E-01  3.93648E-01  8.58857E-02  2.62737E-01  2.17494E-01 -1.67607E-01 -3.24374E-02 -4.95629E-02  7.91923E-02  1.24194E-01
   8.95532E-02  6.22997E-01  1.91003E-01  9.69728E-02  1.86224E-01 -6.04486E-02  2.48768E-01  2.91163E-01  3.71671E-01  1.61942E-01
   1.01492E-01  1.94266E-01  2.82435E-01 -8.29454E-02 -1.32247E-01  3.51444E-01  1.84485E-02 -4.56203E-01 -3.19578E-01 -2.35721E-01
  -4.18400E-01  1.69095E-01 -3.96264E-01 -4.35550E-01 -1.75901E-01 -4.11109E-01  9.15030E-02 -9.91650E-03  2.21199E-01  2.00241E-01
   4.50654E-01  5.46748E-02 -3.64928E-01  3.14479E-01  2.62826E-01 -2.02423E-01 -3.93759E-01 -3.94840E-01 -2.57072E-01 -2.20351E-01
  -8.04690E-01 -1.14094E+00 -1.14602E+00 -1.04024E+00 -1.03442E+00 -9.43555E-01 -7.92830E-01 -6.99045E-01 -2.01272E-01  5.10958E-01
   6.53393E-02 -3.72224E-02  4.00525E-01  7.40197E-02  1.56266E-01  2.56229E-01  4.89959E-01  7.69795E-02  3.89518E-01  3.66404E-01
  -1.00059E-01 -5.41241E-02 -3.00166E-02  2.24124E-01  6.21332E-03  3.39919E-01  1.61533E-02  2.53313E-02  8.62737E-02  3.87847E-01
   5.21787E-01  3.66987E-01  4.47935E-01  2.32547E-01  5.51535E-01  3.36124E-02  5.44070E-02  1.54653E-01  1.00349E-01  2.07696E-01
   2.18963E-01  4.72120E-01  4.14475E-01  3.39446E-02  4.15798E-02  8.43354E-02  7.09279E-02  3.22226E-01  2.58432E-01  3.23789E-01
  -9.76666E-02  8.55369E-02  1.03111E-01  1.66535E-01  6.46260E-01  4.61672E-01  3.22565E-01  2.24121E-01  2.51737E-02 -2.62450E-02
   2.26550E-01 -1.31475E-02  3.21831E-01  1.74514E-01 -1.68592E-01  2.01333E-01 -1.27211E-02 -3.90814E-01 -4.04385E-01 -8.60535E-02
  -1.38401E-01 -3.91236E-01 -2.39361E-01 -2.96235E-01 -4.85858E-01 -1.28201E-01 -1.21522E-01 -1.06314E-01 -2.17466E-01 -1.55198E-01
  -1.95562E-01 -3.81132E-01 -3.50317E-01 -6.28283E-01 -3.62108E-01 -3.66782E-01 -2.36088E-01 -8.86406E-02 -1.61072E-01 -2.09624E-01
  -3.14121E-01 -2.66063E-01 -1.56552E-01  1.17965E-01 -3.56502E-01 -6.08882E-01 -2.03070E-01 -1.38442E-01 -1.23052E-01 -8.98830E-02
   3.53710E-02 -1.80501E-01 -2.13611E-01  1.04519E-01 -2.55688E-01  1.87819E-01  4.08855E-01  1.41107E-01  4.61721E-01  3.73847E-01
   3.66979E-01  2.38546E-01  1.51097E-01  5.80279E-03  4.42717E-02  3.04932E-02 -4.80519E-01  6.83365E-02  1.12750E-01 -6.11747E-02
   4.69656E-01 -1.85578E-02  7.35586E-02  1.88086E-02  1.15334E-01  2.82753E-01 -2.03054E-01  2.02422E-01 -5.65131E-02  4.52204E-02
   8.36027E-02  1.23370E-02  2.05880E-02 -3.01800E-01  6.23396E-02  2.45095E-02 -2.62595E-01 -4.33070E-01 -3.19383E-01 -1.71601E-01
   1.83639E-01  2.33634E-01  2.21307E-01  1.30252E-01 -2.67755E-01  3.50605E-02  1.84960E-01  1.68331E-01  1.15973E-01 -3.74797E-02
   2.81557E-01  3.11135E-01 -1.11608E-01  2.17682E-01  2.05343E-01  1.92198E-02  1.51185E-01 -1.88331E-02  2.17088E-01  2.76866E-01
   1.49216E-01  2.10570E-01  5.98821E-02 -1.34836E-01  1.32237E-01  5.04467E-01  6.55846E-02 -3.20665E-01 -1.79733E-02 -1.79885E-01
   1.15351E-01  7.27396E-02 -2.32075E-01  5.37053E-01  6.97097E-02 -2.68074E-01 -1.26553E-01 -1.72408E-01  1.15475E-01  3.68780E-02
   1.77861E-01  6.74819E-02 -1.19715E-01 -9.74568E-02 -1.64279E-01 -2.01553E-01 -1.96540E-01 -4.88173E-01 -3.50210E-01 -2.77385E-03
  -2.51387E-01 -3.27469E-01 -2.95037E-01  1.20008E-02 -3.09034E-01 -2.77733E-02  2.82722E-01 -1.64129E-01 -3.61970E-02 -1.63464E-01
  -3.85264E-02 -1.36344E-01  1.98363E-01 -3.62441E-02 -9.74258E-02  1.06987E-01 -7.89072E-03  4.70883E-01 -1.55631E-01  1.99306E-02
   7.31285E-02  1.37281E-01  9.72519E-02  5.55655E-02  5.74852E-01 -3.01585E-02  1.52468E-01  1.95132E-01  1.91492E-01  3.02545E-01
   1.89485E-01  4.14146E-01  1.53908E-01  1.31410E-01  6.13879E-02  9.21099E-02  2.77193E-01 -3.02007E-01 -1.71629E-01  8.32858E-02
  -2.50621E-02 -3.83590E-02 -1.59053E-01  3.29413E-01  1.26893E-01 -5.61212E-02  1.77188E-01  4.10761E-01  1.68284E-01  3.37468E-02
   3.33570E-01 -6.89336E-02  1.61637E-01  2.37194E-02  9.41450E-04  1.64380E-01 -6.57009E-02  1.34905E-01  3.26256E-02 -1.23775E-01
  -2.10337E-01 -1.04548E-01 -1.99236E-01 -1.12545E-01  3.23981E-01  1.67794E-01  7.55477E-02  8.11710E-02  3.75891E-02  3.31610E-01
   1.04356E-02 -3.51208E-01  4.67374E-02  9.98676E-02 -1.45877E-01 -9.19797E-02  1.31718E-02  6.25222E-02  8.55931E-02  3.08057E-02
   1.36950E-02 -6.57608E-02  1.34902E-01  1.76991E-01 -5.89100E-02 -3.66774E-02 -9.07425E-02  1.82702E-01  1.65845E-01  4.64897E-02
   1.99983E-01  7.20054E-02 -6.94857E-02 -9.22887E-02  2.86566E-01  5.36845E-02 -5.78372E-02  1.21201E-01  9.86276E-02  8.52881E-02
   8.69122E-02  2.18372E-01 -2.69849E-01  3.87903E-02 -1.42777E-01 -4.37023E-02  4.82533E-01 -2.15133E-01 -2.32145E-01  5.47647E-02
   1.76279E-01 -9.55660E-02 -9.44963E-02  6.36549E-02  1.13736E-01  5.32371E-02  1.71183E-01  1.81890E-01 -3.09298E-02 -7.53682E-02
  -2.85281E-01  2.77889E-02  2.24766E-01  2.63214E-01
 NY points of the fit to the data follow
  -3.80277E-02 -3.37234E-02 -3.33378E-02 -3.31039E-02 -2.73905E-02 -1.38660E-02 -6.77655E-05  1.64356E-02  4.35959E-02  8.99215E-02
   1.58789E-01  2.25109E-01  2.82550E-01  3.51816E-01  4.16156E-01  4.43745E-01  4.30140E-01  3.74017E-01  2.80884E-01  1.98487E-01
   1.36014E-01  5.33923E-02 -3.51970E-02 -7.47343E-02 -7.44374E-02 -8.04436E-02 -9.46543E-02 -1.11297E-01 -1.29293E-01 -1.46980E-01
  -1.65003E-01 -1.84824E-01 -2.01529E-01 -2.10569E-01 -2.16614E-01 -2.20398E-01 -2.19370E-01 -1.91972E-01 -1.19834E-01 -1.74593E-02
   9.29360E-02  1.92857E-01  2.81724E-01  3.53034E-01  4.01056E-01  3.99131E-01  3.39034E-01  2.52903E-01  1.77475E-01  1.19455E-01
   6.31231E-02  1.40275E-02 -2.49959E-02 -5.27656E-02 -8.19651E-02 -1.18636E-01 -1.58133E-01 -1.98440E-01 -2.37939E-01 -2.60753E-01
  -2.71844E-01 -2.62987E-01 -2.38979E-01 -2.19405E-01 -1.74109E-01 -9.71807E-02 -1.66558E-02  6.11365E-02  1.49348E-01  2.10253E-01
   2.44628E-01  2.78363E-01  2.69563E-01  1.98911E-01  1.20737E-01  5.74686E-02 -2.97920E-02 -1.31242E-01 -2.15749E-01 -2.54372E-01
  -2.46303E-01 -2.10718E-01 -1.45676E-01 -4.69442E-02  6.68193E-02  1.95380E-01  3.18562E-01  3.74895E-01  3.68499E-01  3.50056E-01
   3.20620E-01  2.46060E-01  1.66537E-01  1.10968E-01  5.92915E-02  4.01058E-03 -6.50061E-02 -1.26181E-01 -1.65474E-01 -1.61804E-01
  -1.22962E-01 -5.40187E-02  2.94009E-02  1.19671E-01  2.15619E-01  2.94240E-01  3.44244E-01  3.53432E-01  3.42521E-01  3.21643E-01
   3.12287E-01  3.12580E-01  3.14999E-01  3.18048E-01  3.21247E-01  3.20897E-01  3.19161E-01  3.18376E-01  3.11580E-01  3.01487E-01
   2.73536E-01  2.32434E-01  1.83803E-01  1.21686E-01  5.14235E-02 -2.34929E-02 -9.82980E-02 -1.93811E-01 -3.03569E-01 -3.99522E-01
  -4.51579E-01 -4.46159E-01 -4.13186E-01 -4.97762E-01 -6.66333E-01 -7.69012E-01 -7.67003E-01 -7.28195E-01 -6.84211E-01 -6.58745E-01
  -6.14159E-01 -4.14231E-01 -1.32672E-01  3.33708E-02  3.02787E-02  2.15880E-02  3.88398E-02  6.02628E-02  8.17915E-02  1.02979E-01
   1.24008E-01  1.44778E-01  1.65805E-01  1.87818E-01  2.11935E-01  2.39410E-01  2.71647E-01  3.10789E-01  3.62788E-01  4.36044E-01
   4.80370E-01  4.93464E-01  5.03625E-01  5.41971E-01  6.24617E-01  5.97051E-01  3.93671E-01  9.86517E-02 -1.45473E-01 -3.28888E-01
  -4.54943E-01 -5.89572E-01 -7.55731E-01 -7.74750E-01 -5.76993E-01 -3.43883E-01 -2.77143E-01 -2.82851E-01 -2.84190E-01 -2.73240E-01
  -2.56919E-01 -2.40933E-01 -2.37825E-01 -2.40777E-01 -2.39910E-01 -2.29596E-01 -2.22681E-01 -2.24123E-01 -2.27225E-01 -2.25039E-01
  -2.16066E-01 -2.05020E-01 -1.91932E-01 -1.82156E-01 -1.72385E-01 -1.61315E-01 -1.49707E-01 -1.40516E-01 -1.32953E-01 -1.25193E-01
  -1.17299E-01 -1.10586E-01 -1.05964E-01 -1.02961E-01 -1.00107E-01 -9.64884E-02 -9.35086E-02 -9.31004E-02 -9.48590E-02 -9.64122E-02
  -9.60062E-02 -9.47982E-02 -9.48206E-02 -9.62438E-02 -9.68699E-02 -9.52826E-02 -9.22169E-02 -8.39996E-02 -7.04572E-02 -5.67692E-02
  -4.59037E-02 -3.30650E-02  4.20117E-03  7.08315E-02  1.35447E-01  1.70778E-01  1.84800E-01  2.06927E-01  2.51485E-01  2.89295E-01
   2.75886E-01  2.10365E-01  1.41663E-01  1.06359E-01  8.49270E-02  3.43144E-02 -4.56867E-02 -1.07887E-01 -1.24516E-01 -1.18283E-01
  -1.18156E-01 -1.23129E-01 -1.27040E-01 -1.31080E-01 -1.35087E-01 -1.38264E-01 -1.41695E-01 -1.42776E-01 -1.45675E-01 -1.43970E-01
  -1.43036E-01 -1.47460E-01 -1.51500E-01 -1.54488E-01 -1.35385E-01 -1.04913E-01 -7.65137E-02 -4.62442E-02 -6.92282E-04  5.29873E-02
   9.67691E-02  1.37695E-01  1.54360E-01  1.54724E-01  1.67270E-01  1.87780E-01  1.88818E-01  1.81292E-01  1.99860E-01  2.13440E-01
   2.05884E-01  1.82576E-01  1.56445E-01  1.21945E-01  7.14024E-02  1.62993E-02 -4.15566E-02 -8.63296E-02 -1.28049E-01 -1.60456E-01
  -1.79711E-01 -1.80454E-01 -1.50838E-01 -9.12716E-02 -9.49980E-03  8.45938E-02  1.81696E-01  2.62947E-01  3.20361E-01  3.47356E-01
   3.42047E-01  3.11064E-01  2.69851E-01  2.33076E-01  2.06890E-01  2.00011E-01  2.05148E-01  2.12505E-01  2.19175E-01  2.24744E-01
   2.27685E-01  2.26164E-01  2.20076E-01  2.11941E-01  2.03042E-01  1.93720E-01  1.84598E-01  1.73240E-01  1.58603E-01  1.38522E-01
   1.13125E-01  8.04034E-02  4.06786E-02 -7.76637E-03 -6.53735E-02 -1.28516E-01 -1.94467E-01 -2.54328E-01 -3.07504E-01 -3.43392E-01
  -3.62270E-01 -3.58180E-01 -3.31820E-01 -2.81980E-01 -2.15559E-01 -1.42582E-01 -6.64545E-02 -3.51330E-03  4.61670E-02  7.40804E-02
   8.44161E-02  7.58668E-02  5.45543E-02  2.75609E-02 -4.17590E-02 -1.39924E-01 -2.25781E-01 -2.76656E-01 -3.15356E-01 -4.78366E-01
  -7.89528E-01 -1.08460E+00 -1.20764E+00 -1.18800E+00 -1.09104E+00 -9.88193E-01 -8.84564E-01 -6.34984E-01 -2.35849E-01  6.55012E-02
   9.91353E-02  2.97559E-02  4.08587E-03  6.40156E-03  1.28230E-02  1.78909E-02  2.15186E-02  2.29078E-02  2.13359E-02  1.80305E-02
   1.21156E-02  5.05125E-03 -3.09628E-03 -9.15384E-03 -1.28766E-02 -1.24624E-02 -8.53662E-03 -1.74944E-03  7.67985E-03  1.80129E-02
   2.90355E-02  3.81058E-02  4.57595E-02  5.08287E-02  5.51312E-02  5.89317E-02  6.25723E-02  6.61924E-02  6.93246E-02  7.20252E-02
   7.46748E-02  7.76375E-02  8.06163E-02  8.33795E-02  8.57766E-02  8.77854E-02  8.99182E-02  9.20770E-02  9.43323E-02  9.64221E-02
   9.83594E-02  9.98909E-02  1.01021E-01  1.01543E-01  1.01263E-01  1.00249E-01  9.83461E-02  9.56660E-02  9.21930E-02  8.83466E-02
   8.43317E-02  7.99565E-02  7.49843E-02  6.94891E-02  6.40093E-02  5.86846E-02  5.35197E-02  4.85423E-02  4.36995E-02  3.92375E-02
   3.53687E-02  3.18481E-02  2.82663E-02  2.49961E-02  2.21486E-02  1.95613E-02  1.71263E-02  1.49576E-02  1.30745E-02  1.13355E-02
   9.93749E-03  9.08739E-03  8.92326E-03  9.42321E-03  1.04800E-02  1.20038E-02  1.39938E-02  1.68391E-02  2.03447E-02  2.37618E-02
   2.67448E-02  2.97007E-02  3.29965E-02  3.68188E-02  4.12815E-02  4.59595E-02  5.08673E-02  5.65213E-02  6.34668E-02  7.12005E-02
   7.91691E-02  8.72061E-02  9.53295E-02  1.03778E-01  1.12559E-01  1.21286E-01  1.29221E-01  1.36113E-01  1.41655E-01  1.45690E-01
   1.48207E-01  1.49093E-01  1.48423E-01  1.47275E-01  1.45440E-01  1.43058E-01  1.39508E-01  1.34932E-01  1.32529E-01  1.32020E-01
   1.33306E-01  1.33463E-01  1.30785E-01  1.24655E-01  1.17798E-01  1.09893E-01  9.84911E-02  8.50028E-02  7.13178E-02  6.07304E-02
   5.38396E-02  5.11075E-02  4.89183E-02  4.69238E-02  4.60441E-02  4.60721E-02  4.68520E-02  4.83810E-02  5.06486E-02  5.36835E-02
   5.72379E-02  6.08600E-02  6.44746E-02  6.80238E-02  7.12652E-02  7.39067E-02  7.61548E-02  7.82166E-02  7.98480E-02  8.08849E-02
   8.14496E-02  8.15139E-02  8.11873E-02  8.05771E-02  7.93510E-02  7.71442E-02  7.43445E-02  7.15439E-02  6.88311E-02  6.60447E-02
   6.30256E-02  5.99947E-02  5.71645E-02  5.44926E-02  5.14748E-02  4.81713E-02  4.51003E-02  4.23176E-02  3.95139E-02  3.64466E-02
   3.32536E-02  2.99212E-02  2.62354E-02  2.18366E-02  1.63629E-02  9.95356E-03  2.94572E-03 -4.77255E-03 -1.37169E-02 -2.41351E-02
  -3.55523E-02 -4.75712E-02 -6.01936E-02 -7.34491E-02 -8.67140E-02 -9.93697E-02 -1.10976E-01 -1.21247E-01 -1.30067E-01 -1.37140E-01
  -1.42209E-01 -1.45256E-01 -1.46658E-01 -1.46469E-01 -1.44498E-01 -1.40632E-01 -1.35489E-01 -1.30021E-01 -1.24667E-01 -1.18869E-01
  -1.12247E-01 -1.05439E-01 -9.87274E-02 -9.18116E-02 -8.42997E-02 -7.62373E-02 -6.77788E-02 -5.91936E-02 -5.09767E-02 -4.30263E-02
  -3.50951E-02 -2.74075E-02 -2.05133E-02 -1.41696E-02 -8.16417E-03 -2.30812E-03  3.22925E-03  8.03764E-03  1.21258E-02  1.57179E-02
   1.92570E-02  2.26109E-02  2.53213E-02  2.71730E-02  2.88204E-02  3.07446E-02  3.25007E-02  3.36169E-02  3.45318E-02  3.56297E-02
   3.68336E-02  3.81938E-02  3.96163E-02  4.08544E-02  4.19568E-02  4.31058E-02  4.40088E-02  4.44198E-02  4.46506E-02  4.47709E-02
   4.45423E-02  4.43901E-02  4.45180E-02  4.44720E-02  4.42803E-02  4.43370E-02  4.46699E-02  4.49786E-02  4.48900E-02  4.43131E-02
   4.36729E-02  4.33567E-02  4.31874E-02  4.27741E-02  4.22501E-02  4.18688E-02  4.19422E-02  4.23076E-02  4.23544E-02  4.21486E-02
   4.22871E-02  4.28332E-02  4.32685E-02  4.37298E-02  4.46806E-02  4.59856E-02  4.69982E-02  4.75922E-02  4.81450E-02  4.88548E-02
   4.94099E-02  4.96228E-02  4.96212E-02  4.96849E-02  5.00166E-02  5.06510E-02  5.13206E-02  5.20739E-02  5.30638E-02  5.41599E-02
   5.53966E-02  5.67087E-02  5.82060E-02  5.94820E-02  6.01858E-02  6.04745E-02  6.09708E-02  6.17854E-02  6.23836E-02  6.24333E-02
   6.21849E-02  6.22568E-02  6.29242E-02  6.40808E-02  6.50419E-02  6.53782E-02  6.56621E-02  6.65823E-02  6.80368E-02  6.94070E-02
   7.06616E-02  7.19300E-02  7.34507E-02  7.54110E-02  7.74392E-02  7.92980E-02  8.15158E-02  8.45601E-02  8.79731E-02  9.12608E-02
   9.45034E-02  9.78080E-02  1.01408E-01  1.05105E-01
 NY background values follow
     1.653E-02    1.670E-02    1.687E-02    1.703E-02    1.720E-02    1.737E-02    1.753E-02    1.770E-02    1.787E-02    1.803E-02
     1.820E-02    1.836E-02    1.853E-02    1.870E-02    1.886E-02    1.903E-02    1.920E-02    1.936E-02    1.953E-02    1.969E-02
     1.986E-02    2.003E-02    2.019E-02    2.036E-02    2.052E-02    2.069E-02    2.085E-02    2.102E-02    2.118E-02    2.135E-02
     2.151E-02    2.168E-02    2.184E-02    2.201E-02    2.217E-02    2.233E-02    2.250E-02    2.266E-02    2.283E-02    2.299E-02
     2.315E-02    2.332E-02    2.348E-02    2.364E-02    2.380E-02    2.397E-02    2.413E-02    2.429E-02    2.445E-02    2.461E-02
     2.477E-02    2.493E-02    2.509E-02    2.525E-02    2.541E-02    2.557E-02    2.573E-02    2.589E-02    2.605E-02    2.621E-02
     2.636E-02    2.652E-02    2.668E-02    2.683E-02    2.699E-02    2.714E-02    2.730E-02    2.745E-02    2.761E-02    2.776E-02
