 
 $NMID
 ID=''
 FMTDAT='(2E13.5)'
 TRAMP=   1.00000E+0
 VOLUME=   1.00000E+0
 $END
  -2.19141E+3   1.55444E+4
  -1.77137E+4   3.65283E+4
  -1.21211E+4   3.81485E+4
  -1.25735E+4   3.46974E+4
  -1.49465E+4   3.53356E+4
  -1.42400E+4   3.51937E+4
  -1.51063E+4   3.31339E+4
  -1.66931E+4   3.30052E+4
  -1.65203E+4   3.28416E+4
  -1.71507E+4   3.12631E+4
  -1.84263E+4   3.09087E+4
  -1.82788E+4   3.05562E+4
  -1.88461E+4   2.94138E+4
  -1.99533E+4   2.90196E+4
  -2.01026E+4   2.85625E+4
  -2.06688E+4   2.75293E+4
  -2.14938E+4   2.71124E+4
  -2.18094E+4   2.66733E+4
  -2.23506E+4   2.58190E+4
  -2.32713E+4   2.53428E+4
  -2.36074E+4   2.48059E+4
  -2.41099E+4   2.39885E+4
  -2.49343E+4   2.34173E+4
  -2.54235E+4   2.27950E+4
  -2.58494E+4   2.18382E+4
  -2.66593E+4   2.11894E+4
  -2.71020E+4   2.04590E+4
  -2.76320E+4   1.94070E+4
  -2.81557E+4   1.85270E+4
  -2.85068E+4   1.77484E+4
  -2.87801E+4   1.67952E+4
  -2.92469E+4   1.60775E+4
  -2.95666E+4   1.52032E+4
  -2.98086E+4   1.41928E+4
  -3.01403E+4   1.34072E+4
  -3.03550E+4   1.26536E+4
  -3.05619E+4   1.17969E+4
  -3.07285E+4   1.10606E+4
  -3.09736E+4   1.02696E+4
  -3.11629E+4   9.49483E+3
  -3.14287E+4   8.64704E+3
  -3.16505E+4   7.69811E+3
  -3.17013E+4   6.67979E+3
  -3.18621E+4   5.83014E+3
  -3.20247E+4   4.98486E+3
  -3.20102E+4   4.02966E+3
  -3.21818E+4   3.12031E+3
  -3.22152E+4   2.31070E+3
  -3.22466E+4   1.26180E+3
  -3.22193E+4   3.23127E+2
  -3.21352E+4  -6.55375E+2
  -3.20519E+4  -1.62666E+3
  -3.19300E+4  -2.43440E+3
  -3.16996E+4  -3.34088E+3
  -3.14654E+4  -4.25176E+3
  -3.12085E+4  -5.25193E+3
  -3.10838E+4  -6.21496E+3
  -3.07181E+4  -7.10234E+3
  -3.03118E+4  -8.01119E+3
  -2.98489E+4  -8.91724E+3
  -2.94022E+4  -9.77285E+3
  -2.89380E+4  -1.05873E+4
  -2.85633E+4  -1.13728E+4
  -2.79159E+4  -1.22087E+4
  -2.73077E+4  -1.30156E+4
  -2.67389E+4  -1.36805E+4
  -2.61542E+4  -1.43606E+4
  -2.55070E+4  -1.50776E+4
  -2.47656E+4  -1.57361E+4
  -2.40979E+4  -1.63505E+4
  -2.33913E+4  -1.69635E+4
  -2.26398E+4  -1.74806E+4
  -2.18839E+4  -1.80140E+4
  -2.11046E+4  -1.84692E+4
  -2.03517E+4  -1.88864E+4
  -1.96594E+4  -1.92257E+4
  -1.89342E+4  -1.96049E+4
  -1.80872E+4  -1.99155E+4
  -1.73579E+4  -2.01540E+4
  -1.65557E+4  -2.04491E+4
  -1.58402E+4  -2.06137E+4
  -1.50642E+4  -2.08264E+4
  -1.43098E+4  -2.09743E+4
  -1.35678E+4  -2.11502E+4
  -1.28562E+4  -2.12573E+4
  -1.20547E+4  -2.13794E+4
  -1.13071E+4  -2.13577E+4
  -1.06161E+4  -2.14337E+4
  -9.91192E+3  -2.13709E+4
  -9.28847E+3  -2.13918E+4
  -8.68052E+3  -2.13740E+4
  -8.01299E+3  -2.12856E+4
  -7.38640E+3  -2.12665E+4
  -6.83056E+3  -2.10910E+4
  -6.25911E+3  -2.10444E+4
  -5.71061E+3  -2.08680E+4
  -5.16603E+3  -2.06567E+4
  -4.65330E+3  -2.06451E+4
  -4.14402E+3  -2.04183E+4
  -3.59954E+3  -2.03377E+4
  -3.10899E+3  -2.01413E+4
  -2.70095E+3  -1.99270E+4
  -2.26887E+3  -1.98073E+4
  -1.92687E+3  -1.95998E+4
  -1.45802E+3  -1.94410E+4
  -1.07186E+3  -1.92934E+4
  -6.24928E+2  -1.91153E+4
  -2.22806E+2  -1.88928E+4
   1.42837E+2  -1.86697E+4
   4.82911E+2  -1.84536E+4
   8.63971E+2  -1.81935E+4
   1.11228E+3  -1.80293E+4
   1.47439E+3  -1.78940E+4
   1.90638E+3  -1.75779E+4
   2.18204E+3  -1.73869E+4
   2.50974E+3  -1.72187E+4
   2.82517E+3  -1.69744E+4
   3.12732E+3  -1.66516E+4
   3.39883E+3  -1.64974E+4
   3.69181E+3  -1.61789E+4
   3.89751E+3  -1.59061E+4
   4.23914E+3  -1.57566E+4
   4.52957E+3  -1.54659E+4
   4.78581E+3  -1.51573E+4
   5.05091E+3  -1.48741E+4
   5.22373E+3  -1.46170E+4
   5.44383E+3  -1.43054E+4
   5.57921E+3  -1.39492E+4
   5.82202E+3  -1.36637E+4
   6.05323E+3  -1.34323E+4
   6.26532E+3  -1.30778E+4
   6.34738E+3  -1.27632E+4
   6.45543E+3  -1.25228E+4
   6.58887E+3  -1.23342E+4
   6.67029E+3  -1.19535E+4
   6.76587E+3  -1.16310E+4
   6.91741E+3  -1.13245E+4
   7.02154E+3  -1.10603E+4
   7.14623E+3  -1.07709E+4
   7.18934E+3  -1.05061E+4
   7.20218E+3  -1.01374E+4
   7.30582E+3  -9.84757E+3
   7.37307E+3  -9.55555E+3
   7.46718E+3  -9.32256E+3
   7.45918E+3  -9.03589E+3
   7.48125E+3  -8.82953E+3
   7.45771E+3  -8.50350E+3
   7.41686E+3  -8.27520E+3
   7.41552E+3  -7.98911E+3
   7.51057E+3  -7.78789E+3
   7.45962E+3  -7.50398E+3
   7.39817E+3  -7.25358E+3
   7.34695E+3  -6.93372E+3
   7.36487E+3  -6.73458E+3
   7.39351E+3  -6.52625E+3
   7.33701E+3  -6.25898E+3
   7.27938E+3  -6.05104E+3
   7.28785E+3  -5.82603E+3
   7.16746E+3  -5.57781E+3
   7.17449E+3  -5.34873E+3
   7.11008E+3  -5.16371E+3
   7.04938E+3  -4.94385E+3
   6.95360E+3  -4.67645E+3
   6.88572E+3  -4.45569E+3
   6.76328E+3  -4.25792E+3
   6.75573E+3  -3.98929E+3
   6.70313E+3  -3.84275E+3
   6.65516E+3  -3.63495E+3
   6.52308E+3  -3.42187E+3
   6.49572E+3  -3.17800E+3
   6.33148E+3  -2.99985E+3
   6.24513E+3  -2.83633E+3
   6.08638E+3  -2.63387E+3
   6.02136E+3  -2.40061E+3
   5.90326E+3  -2.30590E+3
   5.73067E+3  -2.07255E+3
   5.63225E+3  -1.87386E+3
   5.54541E+3  -1.67900E+3
   5.38533E+3  -1.60711E+3
   5.31166E+3  -1.42247E+3
   5.14239E+3  -1.24853E+3
   4.99708E+3  -1.14469E+3
   4.90006E+3  -9.34956E+2
   4.73385E+3  -8.22653E+2
   4.55211E+3  -6.28865E+2
   4.41217E+3  -5.02825E+2
   4.35438E+3  -3.55025E+2
   4.12856E+3  -2.67820E+2
   4.03390E+3  -1.53002E+2
   3.84155E+3  -4.88446E+1
   3.73122E+3   5.34783E+1
   3.56456E+3   1.83347E+2
   3.35735E+3   2.53429E+2
   3.24206E+3   4.13590E+2
   3.15383E+3   4.64589E+2
   2.96070E+3   5.36770E+2
   2.84341E+3   5.82657E+2
   2.68522E+3   6.63964E+2
   2.51006E+3   7.13817E+2
   2.40077E+3   7.76340E+2
   2.25463E+3   8.73600E+2
   2.09698E+3   9.55699E+2
   1.93953E+3   9.41122E+2
   1.90003E+3   9.96648E+2
   1.66776E+3   1.04265E+3
   1.63769E+3   1.02409E+3
   1.41985E+3   1.17534E+3
   1.34920E+3   1.15015E+3
   1.27743E+3   1.17172E+3
   1.12191E+3   1.22391E+3
   9.84208E+2   1.20297E+3
   8.97259E+2   1.23369E+3
   7.72507E+2   1.31155E+3
   6.47978E+2   1.27508E+3
   5.75324E+2   1.32109E+3
   3.71570E+2   1.29680E+3
   3.44115E+2   1.26098E+3
   1.46369E+2   1.35856E+3
   1.74697E+1   1.29838E+3
   2.64838E+1   1.33947E+3
  -5.49481E+1   1.29137E+3
  -2.31517E+2   1.30727E+3
  -2.89857E+2   1.29203E+3
  -3.99956E+2   1.26876E+3
  -4.39968E+2   1.22613E+3
  -5.34763E+2   1.29970E+3
  -6.55583E+2   1.28016E+3
  -6.89080E+2   1.25718E+3
  -8.70284E+2   1.29215E+3
  -8.97618E+2   1.18608E+3
  -9.94740E+2   1.11680E+3
  -1.09693E+3   1.09530E+3
  -1.14320E+3   1.09556E+3
  -1.24057E+3   1.03318E+3
  -1.21613E+3   9.73082E+2
  -1.40306E+3   9.95859E+2
  -1.42976E+3   9.46300E+2
  -1.47204E+3   9.41169E+2
  -1.55570E+3   8.75586E+2
  -1.62255E+3   7.85297E+2
  -1.67434E+3   7.19015E+2
  -1.74204E+3   6.73777E+2
  -1.77326E+3   6.63716E+2
  -1.81231E+3   5.34328E+2
  -1.82817E+3   5.18962E+2
  -1.87517E+3   5.28034E+2
  -1.94630E+3   4.90328E+2
  -1.96681E+3   3.66413E+2
  -1.93098E+3   3.63378E+2
  -2.04633E+3   2.26064E+2
  -2.05690E+3   1.91247E+2
  -2.05038E+3   2.52645E+2
  -2.05763E+3   9.10146E+1
  -2.11043E+3   9.26313E+1
  -2.18989E+3  -6.43672E+1
  -2.08184E+3   1.66285E+1
  -2.14228E+3  -9.11846E+1
  -2.19137E+3  -1.11060E+2
  -2.15205E+3  -1.62279E+2
  -2.17117E+3  -2.42382E+2
  -2.22766E+3  -2.57636E+2
  -2.17354E+3  -3.11370E+2
  -2.14869E+3  -3.62823E+2
  -2.14925E+3  -3.86092E+2
  -2.13923E+3  -3.92560E+2
  -2.14237E+3  -4.62124E+2
  -2.12527E+3  -5.54469E+2
  -2.11168E+3  -5.88192E+2
  -2.16900E+3  -5.81508E+2
  -2.19111E+3  -6.97448E+2
  -2.17195E+3  -6.61009E+2
  -2.14583E+3  -7.28187E+2
  -2.08828E+3  -7.53564E+2
  -2.06750E+3  -8.10630E+2
  -2.05020E+3  -8.16478E+2
  -2.07868E+3  -8.38407E+2
  -2.02233E+3  -8.78873E+2
  -2.02033E+3  -9.04324E+2
  -1.95914E+3  -1.01789E+3
  -2.00265E+3  -1.07143E+3
  -2.00752E+3  -1.03533E+3
  -1.97837E+3  -1.08763E+3
  -1.95553E+3  -1.15534E+3
  -1.88414E+3  -1.12872E+3
  -1.87004E+3  -1.15910E+3
  -1.83317E+3  -1.19622E+3
  -1.79275E+3  -1.25787E+3
  -1.69322E+3  -1.23292E+3
  -1.77526E+3  -1.28532E+3
  -1.75795E+3  -1.30849E+3
  -1.70116E+3  -1.33878E+3
  -1.69472E+3  -1.38250E+3
  -1.62072E+3  -1.33463E+3
  -1.63604E+3  -1.40670E+3
  -1.58134E+3  -1.42869E+3
  -1.53031E+3  -1.44946E+3
  -1.50650E+3  -1.47181E+3
  -1.45664E+3  -1.50536E+3
  -1.45941E+3  -1.41906E+3
  -1.42295E+3  -1.55605E+3
  -1.40370E+3  -1.54405E+3
  -1.33796E+3  -1.52700E+3
  -1.33610E+3  -1.48684E+3
  -1.31068E+3  -1.51150E+3
  -1.20071E+3  -1.51895E+3
  -1.18427E+3  -1.56281E+3
  -1.16490E+3  -1.45804E+3
  -1.18835E+3  -1.56507E+3
  -1.07531E+3  -1.56319E+3
  -1.11244E+3  -1.52299E+3
  -1.08686E+3  -1.52082E+3
  -1.01957E+3  -1.54913E+3
  -9.54261E+2  -1.53030E+3
  -9.58883E+2  -1.49901E+3
  -9.80680E+2  -1.46386E+3
  -8.94564E+2  -1.50254E+3
  -8.61441E+2  -1.44147E+3
  -8.77426E+2  -1.53328E+3
  -8.91454E+2  -1.46165E+3
  -7.83053E+2  -1.44642E+3
  -6.97257E+2  -1.41872E+3
  -7.78044E+2  -1.40273E+3
  -7.82097E+2  -1.39936E+3
  -7.01137E+2  -1.38317E+3
  -6.96832E+2  -1.47502E+3
  -6.15818E+2  -1.34523E+3
  -6.29599E+2  -1.36371E+3
  -5.47649E+2  -1.31516E+3
  -5.59778E+2  -1.25567E+3
  -5.39471E+2  -1.28531E+3
  -5.00554E+2  -1.28786E+3
  -5.83170E+2  -1.34151E+3
  -4.62954E+2  -1.23250E+3
  -4.76363E+2  -1.25768E+3
  -4.48730E+2  -1.23432E+3
  -4.52847E+2  -1.18440E+3
  -4.45966E+2  -1.24990E+3
  -4.87181E+2  -1.17241E+3
  -3.78307E+2  -1.20334E+3
  -3.92972E+2  -1.11319E+3
  -3.65545E+2  -1.11387E+3
  -3.72162E+2  -1.07231E+3
  -3.67801E+2  -1.17962E+3
  -3.29194E+2  -1.07706E+3
  -3.06220E+2  -1.11757E+3
  -2.90241E+2  -1.07714E+3
  -3.20364E+2  -1.05481E+3
  -2.94370E+2  -1.07933E+3
  -2.51019E+2  -1.00350E+3
  -3.27520E+2  -1.04138E+3
  -2.66255E+2  -9.38752E+2
  -2.63632E+2  -9.82940E+2
  -2.88826E+2  -9.55184E+2
  -2.34345E+2  -9.16244E+2
  -2.49051E+2  -9.40729E+2
  -2.52971E+2  -9.30032E+2
  -2.96740E+2  -9.05032E+2
  -2.28702E+2  -8.21216E+2
  -1.95866E+2  -8.75579E+2
  -1.81067E+2  -8.32865E+2
  -1.85861E+2  -9.75311E+2
  -2.16717E+2  -8.35491E+2
  -2.05825E+2  -8.07320E+2
  -1.51456E+2  -7.67763E+2
  -1.82040E+2  -7.19088E+2
  -1.58637E+2  -8.08047E+2
  -1.43563E+2  -7.59706E+2
