 
 $NMID
 ID=''
 FMTDAT='(2E13.5)'
 TRAMP=   1.00000E+0
 VOLUME=   1.00000E+0
 $END
  -2.16574E+4   7.14319E+2
  -5.39674E+4  -1.41741E+4
  -5.53202E+4  -4.71934E+3
  -5.09046E+4  -4.47463E+3
  -5.26355E+4  -6.37400E+3
  -5.27199E+4  -4.10109E+3
  -5.06215E+4  -4.69712E+3
  -5.12060E+4  -5.95571E+3
  -5.12529E+4  -4.77215E+3
  -4.98379E+4  -5.23305E+3
  -5.00826E+4  -6.20361E+3
  -5.00690E+4  -5.16290E+3
  -4.91702E+4  -5.30527E+3
  -4.94191E+4  -6.25090E+3
  -4.92543E+4  -5.68990E+3
  -4.85103E+4  -5.78630E+3
  -4.86502E+4  -6.43832E+3
  -4.85653E+4  -5.99021E+3
  -4.79115E+4  -5.99171E+3
  -4.79796E+4  -6.31131E+3
  -4.78509E+4  -5.94924E+3
  -4.73181E+4  -5.79941E+3
  -4.74755E+4  -6.04177E+3
  -4.72862E+4  -5.84808E+3
  -4.66940E+4  -5.79319E+3
  -4.66885E+4  -5.95439E+3
  -4.66188E+4  -5.83848E+3
  -4.60223E+4  -5.99727E+3
  -4.58886E+4  -6.23212E+3
  -4.57077E+4  -6.06547E+3
  -4.52345E+4  -6.00379E+3
  -4.51852E+4  -6.07025E+3
  -4.50477E+4  -6.13301E+3
  -4.46358E+4  -6.10019E+3
  -4.44160E+4  -6.06881E+3
  -4.42240E+4  -6.04340E+3
  -4.38990E+4  -5.95789E+3
  -4.36413E+4  -5.87100E+3
  -4.34159E+4  -5.79328E+3
  -4.32425E+4  -5.69365E+3
  -4.30275E+4  -5.64853E+3
  -4.28665E+4  -5.80295E+3
  -4.24956E+4  -5.96059E+3
  -4.21823E+4  -5.84625E+3
  -4.20297E+4  -5.83242E+3
  -4.18112E+4  -5.82498E+3
  -4.16339E+4  -5.90640E+3
  -4.14730E+4  -5.87267E+3
  -4.13008E+4  -5.77953E+3
  -4.10280E+4  -5.87409E+3
  -4.08739E+4  -5.86890E+3
  -4.05505E+4  -5.91899E+3
  -4.03258E+4  -5.84708E+3
  -4.01870E+4  -5.69944E+3
  -3.99511E+4  -5.72744E+3
  -3.97471E+4  -5.81492E+3
  -3.95875E+4  -5.71018E+3
  -3.94003E+4  -5.82921E+3
  -3.91515E+4  -5.82166E+3
  -3.88083E+4  -5.83125E+3
  -3.86036E+4  -5.70629E+3
  -3.84082E+4  -5.64924E+3
  -3.83211E+4  -5.62387E+3
  -3.81429E+4  -5.64018E+3
  -3.78620E+4  -5.68074E+3
  -3.75776E+4  -5.64143E+3
  -3.74930E+4  -5.57550E+3
  -3.74045E+4  -5.58448E+3
  -3.71614E+4  -5.68718E+3
  -3.69704E+4  -5.62192E+3
  -3.67172E+4  -5.66051E+3
  -3.64611E+4  -5.66687E+3
  -3.63237E+4  -5.64541E+3
  -3.60908E+4  -5.70110E+3
  -3.58496E+4  -5.66516E+3
  -3.56994E+4  -5.59430E+3
  -3.53937E+4  -5.67404E+3
  -3.51642E+4  -5.66844E+3
  -3.48978E+4  -5.67802E+3
  -3.47550E+4  -5.62733E+3
  -3.45070E+4  -5.68815E+3
  -3.42504E+4  -5.72334E+3
  -3.40475E+4  -5.77793E+3
  -3.37655E+4  -5.76339E+3
  -3.36317E+4  -5.79592E+3
  -3.33851E+4  -5.92815E+3
  -3.30995E+4  -5.98427E+3
  -3.28021E+4  -6.01795E+3
  -3.25450E+4  -5.99838E+3
  -3.23818E+4  -6.04003E+3
  -3.21649E+4  -6.07975E+3
  -3.18873E+4  -6.07265E+3
  -3.17074E+4  -6.06100E+3
  -3.14712E+4  -6.03787E+3
  -3.11637E+4  -6.15918E+3
  -3.09552E+4  -6.16548E+3
  -3.05827E+4  -6.13735E+3
  -3.04308E+4  -6.08486E+3
  -3.03015E+4  -6.15935E+3
  -3.00119E+4  -6.21076E+3
  -2.96660E+4  -6.23502E+3
  -2.93957E+4  -6.24007E+3
  -2.92787E+4  -6.18220E+3
  -2.89641E+4  -6.21269E+3
  -2.87447E+4  -6.27208E+3
  -2.84930E+4  -6.29559E+3
  -2.82456E+4  -6.29351E+3
  -2.80791E+4  -6.20520E+3
  -2.78179E+4  -6.27758E+3
  -2.76214E+4  -6.24587E+3
  -2.72693E+4  -6.21931E+3
  -2.71068E+4  -6.19145E+3
  -2.69517E+4  -6.17800E+3
  -2.66381E+4  -6.15644E+3
  -2.64702E+4  -6.21626E+3
  -2.62383E+4  -6.21373E+3
  -2.60623E+4  -6.18284E+3
  -2.58371E+4  -6.21775E+3
  -2.56151E+4  -6.13246E+3
  -2.54287E+4  -6.15827E+3
  -2.52837E+4  -6.11682E+3
  -2.50187E+4  -6.20347E+3
  -2.48555E+4  -6.18151E+3
  -2.46008E+4  -6.14258E+3
  -2.43818E+4  -6.13891E+3
  -2.42437E+4  -6.15182E+3
  -2.40743E+4  -6.20010E+3
  -2.38488E+4  -6.18988E+3
  -2.36727E+4  -6.10457E+3
  -2.35932E+4  -6.15487E+3
  -2.34110E+4  -6.16943E+3
  -2.31903E+4  -6.17260E+3
  -2.30020E+4  -6.12958E+3
  -2.29141E+4  -6.15502E+3
  -2.27556E+4  -6.17687E+3
  -2.26222E+4  -6.16592E+3
  -2.23815E+4  -6.20864E+3
  -2.22484E+4  -6.19867E+3
  -2.20544E+4  -6.19490E+3
  -2.19184E+4  -6.21207E+3
  -2.17823E+4  -6.26742E+3
  -2.16375E+4  -6.21707E+3
  -2.15009E+4  -6.18245E+3
  -2.13501E+4  -6.26222E+3
  -2.11723E+4  -6.31368E+3
  -2.10459E+4  -6.26990E+3
  -2.09448E+4  -6.26140E+3
  -2.07605E+4  -6.30936E+3
  -2.05733E+4  -6.31651E+3
  -2.04492E+4  -6.32591E+3
  -2.02927E+4  -6.42261E+3
  -2.01247E+4  -6.35217E+3
  -2.00296E+4  -6.36681E+3
  -1.97850E+4  -6.36761E+3
  -1.96756E+4  -6.39373E+3
  -1.95577E+4  -6.36010E+3
  -1.93513E+4  -6.34556E+3
  -1.91875E+4  -6.47785E+3
  -1.90590E+4  -6.41592E+3
  -1.89123E+4  -6.41790E+3
  -1.87586E+4  -6.43093E+3
  -1.87330E+4  -6.48698E+3
  -1.85052E+4  -6.47357E+3
  -1.83904E+4  -6.44978E+3
  -1.82016E+4  -6.38107E+3
  -1.81659E+4  -6.45898E+3
  -1.79701E+4  -6.51720E+3
  -1.78346E+4  -6.40892E+3
  -1.76398E+4  -6.47353E+3
  -1.75450E+4  -6.43835E+3
  -1.74379E+4  -6.42195E+3
  -1.72108E+4  -6.46059E+3
  -1.72138E+4  -6.43406E+3
  -1.70203E+4  -6.50600E+3
  -1.69177E+4  -6.42926E+3
  -1.67416E+4  -6.39518E+3
  -1.65790E+4  -6.38974E+3
  -1.65180E+4  -6.34710E+3
  -1.64137E+4  -6.40784E+3
  -1.63032E+4  -6.41429E+3
  -1.61734E+4  -6.45457E+3
  -1.60859E+4  -6.39947E+3
  -1.59405E+4  -6.40100E+3
  -1.57830E+4  -6.39754E+3
  -1.56966E+4  -6.38196E+3
  -1.55566E+4  -6.32382E+3
  -1.54058E+4  -6.35549E+3
  -1.53599E+4  -6.40868E+3
  -1.52025E+4  -6.35369E+3
  -1.50606E+4  -6.40519E+3
  -1.49923E+4  -6.31260E+3
  -1.48870E+4  -6.28477E+3
  -1.47511E+4  -6.32814E+3
  -1.47000E+4  -6.31481E+3
  -1.44943E+4  -6.30912E+3
  -1.44447E+4  -6.30957E+3
  -1.42894E+4  -6.25406E+3
  -1.42365E+4  -6.32409E+3
  -1.40870E+4  -6.26169E+3
  -1.39777E+4  -6.26755E+3
  -1.38565E+4  -6.26817E+3
  -1.38307E+4  -6.24813E+3
  -1.37468E+4  -6.26532E+3
  -1.35993E+4  -6.26211E+3
  -1.35673E+4  -6.20921E+3
  -1.33748E+4  -6.22343E+3
  -1.33074E+4  -6.25851E+3
  -1.32037E+4  -6.17146E+3
  -1.30827E+4  -6.15232E+3
  -1.30042E+4  -6.09422E+3
  -1.29688E+4  -6.11265E+3
  -1.28239E+4  -6.10763E+3
  -1.27510E+4  -6.10493E+3
  -1.26330E+4  -6.00752E+3
  -1.24518E+4  -6.07046E+3
  -1.24513E+4  -6.05226E+3
  -1.22936E+4  -5.98452E+3
  -1.22465E+4  -5.95555E+3
  -1.21968E+4  -5.98011E+3
  -1.20764E+4  -5.99958E+3
  -1.19483E+4  -5.96782E+3
  -1.18207E+4  -5.93999E+3
  -1.17988E+4  -5.91630E+3
  -1.16805E+4  -5.87059E+3
  -1.16193E+4  -5.88771E+3
  -1.15052E+4  -5.84934E+3
  -1.13624E+4  -5.84408E+3
  -1.13077E+4  -5.86692E+3
  -1.12917E+4  -5.84733E+3
  -1.11511E+4  -5.75366E+3
  -1.10723E+4  -5.76649E+3
  -1.09400E+4  -5.78541E+3
  -1.09295E+4  -5.77467E+3
  -1.07883E+4  -5.70300E+3
  -1.06749E+4  -5.68775E+3
  -1.06828E+4  -5.62665E+3
  -1.05647E+4  -5.62175E+3
  -1.05003E+4  -5.57882E+3
  -1.03276E+4  -5.57908E+3
  -1.02385E+4  -5.56666E+3
  -1.02109E+4  -5.52340E+3
  -1.00868E+4  -5.46829E+3
  -1.01186E+4  -5.53275E+3
  -1.00280E+4  -5.47914E+3
  -9.87981E+3  -5.46115E+3
  -9.85331E+3  -5.33316E+3
  -9.75369E+3  -5.37261E+3
  -9.71586E+3  -5.41841E+3
  -9.60536E+3  -5.31172E+3
  -9.58905E+3  -5.25592E+3
  -9.52097E+3  -5.25706E+3
  -9.47572E+3  -5.25656E+3
  -9.32712E+3  -5.25938E+3
  -9.23612E+3  -5.22746E+3
  -9.29067E+3  -5.14289E+3
  -9.17887E+3  -5.14638E+3
  -9.05540E+3  -5.06753E+3
  -9.00270E+3  -5.07525E+3
  -8.97635E+3  -4.98727E+3
  -8.93011E+3  -5.08734E+3
  -8.89761E+3  -4.94358E+3
  -8.78186E+3  -4.95106E+3
  -8.72633E+3  -4.93747E+3
  -8.68010E+3  -4.86642E+3
  -8.62321E+3  -4.91357E+3
  -8.50334E+3  -4.89910E+3
  -8.54525E+3  -4.84304E+3
  -8.41538E+3  -4.82903E+3
  -8.38823E+3  -4.87394E+3
  -8.29951E+3  -4.77972E+3
  -8.22750E+3  -4.80647E+3
  -8.19065E+3  -4.64828E+3
  -8.17900E+3  -4.69686E+3
  -8.08948E+3  -4.69432E+3
  -8.03884E+3  -4.65875E+3
  -7.98907E+3  -4.65671E+3
  -7.88901E+3  -4.57030E+3
  -7.88375E+3  -4.53900E+3
  -7.78844E+3  -4.51661E+3
  -7.76084E+3  -4.43900E+3
  -7.66757E+3  -4.47603E+3
  -7.62767E+3  -4.47441E+3
  -7.60640E+3  -4.39446E+3
  -7.52321E+3  -4.37181E+3
  -7.38975E+3  -4.32893E+3
  -7.37530E+3  -4.38781E+3
  -7.35462E+3  -4.32543E+3
  -7.27899E+3  -4.36014E+3
  -7.23600E+3  -4.32701E+3
  -7.21520E+3  -4.22508E+3
  -7.03570E+3  -4.25549E+3
  -7.09602E+3  -4.25165E+3
  -7.05037E+3  -4.13480E+3
  -6.99693E+3  -4.14096E+3
  -6.90422E+3  -4.17154E+3
  -6.84323E+3  -4.15121E+3
  -6.81713E+3  -4.12322E+3
  -6.76725E+3  -4.15438E+3
  -6.67128E+3  -4.02625E+3
  -6.67578E+3  -4.02337E+3
  -6.65075E+3  -4.00903E+3
  -6.57008E+3  -4.01687E+3
  -6.52469E+3  -3.97283E+3
  -6.51535E+3  -3.97590E+3
  -6.44133E+3  -3.95559E+3
  -6.37193E+3  -3.99981E+3
  -6.38914E+3  -3.81628E+3
  -6.26864E+3  -3.88314E+3
  -6.20261E+3  -3.83818E+3
  -6.22358E+3  -3.84713E+3
  -6.13739E+3  -3.82950E+3
  -6.09798E+3  -3.77802E+3
  -6.10285E+3  -3.77055E+3
  -5.98480E+3  -3.78684E+3
  -5.96764E+3  -3.74272E+3
  -5.95002E+3  -3.68310E+3
  -5.92012E+3  -3.72469E+3
  -5.85270E+3  -3.70371E+3
  -5.80642E+3  -3.67998E+3
  -5.76284E+3  -3.64428E+3
  -5.70407E+3  -3.62391E+3
  -5.65419E+3  -3.61557E+3
  -5.67688E+3  -3.55278E+3
  -5.60955E+3  -3.56139E+3
  -5.57404E+3  -3.50086E+3
  -5.50955E+3  -3.51262E+3
  -5.49348E+3  -3.56973E+3
  -5.42112E+3  -3.47245E+3
  -5.39048E+3  -3.47206E+3
  -5.34715E+3  -3.43975E+3
  -5.30944E+3  -3.36050E+3
  -5.29315E+3  -3.40236E+3
  -5.24235E+3  -3.40290E+3
  -5.14020E+3  -3.34732E+3
  -5.11887E+3  -3.33700E+3
  -5.15219E+3  -3.25225E+3
  -5.06767E+3  -3.30899E+3
  -5.01535E+3  -3.28170E+3
  -5.01626E+3  -3.31565E+3
  -5.00055E+3  -3.23633E+3
  -4.88295E+3  -3.30461E+3
  -4.85258E+3  -3.23680E+3
  -4.84273E+3  -3.15351E+3
  -4.75132E+3  -3.19153E+3
  -4.75610E+3  -3.14268E+3
  -4.75655E+3  -3.10871E+3
  -4.73969E+3  -3.19271E+3
  -4.72800E+3  -3.08004E+3
  -4.64563E+3  -3.08166E+3
  -4.64878E+3  -3.03017E+3
  -4.56789E+3  -3.03833E+3
  -4.58205E+3  -3.00759E+3
  -4.49715E+3  -3.00074E+3
  -4.49854E+3  -2.99133E+3
  -4.48070E+3  -2.95267E+3
  -4.37599E+3  -2.93796E+3
  -4.39777E+3  -2.92880E+3
  -4.35845E+3  -2.91705E+3
  -4.33605E+3  -2.93406E+3
  -4.31230E+3  -2.88615E+3
  -4.25124E+3  -2.85828E+3
  -4.23456E+3  -2.88115E+3
  -4.19887E+3  -2.78910E+3
  -4.19962E+3  -2.86449E+3
  -4.17142E+3  -2.76154E+3
  -4.07421E+3  -2.77741E+3
  -4.06272E+3  -2.77064E+3
