 LCModel (Version 6.3-1N) Copyright: S.W. Provencher.          Ref.: Magn. Reson. Med. 30:672-679 (1993).                
 Slice_N1@19_23  02-Jun-2023 14:37:40
 27 lines in following concentration table = NCONC+1
    Conc.  %SD /Cr+PCr  Metabolite                                         
 2.50E-06  15% 3.9E-04 Mac                                                 
 2.01E-02  49%   3.156 Cr                                                  
 3.08E-02  32%   4.844 PCr                                                 
 5.31E-02  15%   8.355 Ins                                                 
 7.28E-02  10%  11.459 NAA                                                 
 3.19E-02  22%   5.014 Tau                                                 
 9.12E-03  64%   1.435 PCho                                                
 5.56E-04 999% 8.7E-02 GPC                                                 
 5.87E-02  16%   9.240 Glu                                                 
 1.91E-02  34%   3.005 Gln                                                 
    0.000 999%   0.000 Ala                                                 
 2.50E-03 487%   0.394 Asc                                                 
 1.26E-02  48%   1.980 Asp                                                 
 5.66E-03  59%   0.890 GABA                                                
 6.65E-03  59%   1.046 Glc                                                 
 3.43E-03 100%   0.540 GSH                                                 
    0.000 999%   0.000 Lac                                                 
 2.10E-03 205%   0.330 NAAG                                                
    0.000 999%   0.000 PE                                                  
 9.68E-03  21%   1.523 GPC+PCho                                            
 7.49E-02  11%  11.789 NAA+NAAG                                            
 7.78E-02  14%  12.246 Glu+Gln                                             
 5.09E-02  14%   8.000 Cr+PCr                                              
 7.49E-02  11%  11.789 NAA+NAAG                                            
 5.09E-02  14%   8.000 Cr+PCr                                              
 7.78E-02  14%  12.246 Glu+Gln                                             
   6 lines in following misc. output table
  FWHM = 0.029 ppm    S/N =   5                                            
  Data shift =-0.006 ppm                                                   
  Ph:  15 deg     -17.6 deg/ppm                                            
  alphaB,S = 5.8E+00,   4.3E-01                                            
   18 spline knots.   Ns = 5(1)                                            
   3 inflections.     2 extrema                                            
  654 points on ppm-axis = NY
      4.000000     3.994181     3.988363     3.982544     3.976726     3.970907     3.965088     3.959270     3.953451     3.947633
      3.941814     3.935995     3.930177     3.924358     3.918540     3.912721     3.906902     3.901084     3.895265     3.889446
      3.883628     3.877809     3.871991     3.866172     3.860353     3.854535     3.848716     3.842898     3.837079     3.831260
      3.825442     3.819623     3.813805     3.807986     3.802167     3.796349     3.790530     3.784712     3.778893     3.773074
      3.767256     3.761437     3.755619     3.749800     3.743981     3.738163     3.732344     3.726526     3.720707     3.714888
      3.709070     3.703251     3.697433     3.691614     3.685795     3.679977     3.674158     3.668339     3.662521     3.656702
      3.650884     3.645065     3.639246     3.633428     3.627609     3.621791     3.615972     3.610153     3.604335     3.598516
      3.592698     3.586879     3.581060     3.575242     3.569423     3.563605     3.557786     3.551967     3.546149     3.540330
      3.534512     3.528693     3.522874     3.517056     3.511237     3.505419     3.499600     3.493781     3.487963     3.482144
      3.476326     3.470507     3.464688     3.458870     3.453051     3.447232     3.441414     3.435595     3.429777     3.423958
      3.418139     3.412321     3.406502     3.400684     3.394865     3.389046     3.383228     3.377409     3.371591     3.365772
      3.359953     3.354135     3.348316     3.342498     3.336679     3.330860     3.325042     3.319223     3.313405     3.307586
      3.301767     3.295949     3.290130     3.284312     3.278493     3.272674     3.266856     3.261037     3.255219     3.249400
      3.243581     3.237763     3.231944     3.226125     3.220307     3.214488     3.208670     3.202851     3.197032     3.191214
      3.185395     3.179577     3.173758     3.167939     3.162121     3.156302     3.150484     3.144665     3.138846     3.133028
      3.127209     3.121391     3.115572     3.109753     3.103935     3.098116     3.092298     3.086479     3.080660     3.074842
      3.069023     3.063205     3.057386     3.051567     3.045749     3.039930     3.034111     3.028293     3.022474     3.016656
      3.010837     3.005018     2.999200     2.993381     2.987563     2.981744     2.975925     2.970107     2.964288     2.958470
      2.952651     2.946832     2.941014     2.935195     2.929377     2.923558     2.917739     2.911921     2.906102     2.900284
      2.894465     2.888646     2.882828     2.877009     2.871191     2.865372     2.859553     2.853735     2.847916     2.842098
      2.836279     2.830460     2.824642     2.818823     2.813004     2.807186     2.801367     2.795549     2.789730     2.783911
      2.778093     2.772274     2.766456     2.760637     2.754818     2.749000     2.743181     2.737363     2.731544     2.725725
      2.719907     2.714088     2.708270     2.702451     2.696632     2.690814     2.684995     2.679177     2.673358     2.667539
      2.661721     2.655902     2.650084     2.644265     2.638446     2.632628     2.626809     2.620991     2.615172     2.609353
      2.603535     2.597716     2.591897     2.586079     2.580260     2.574442     2.568623     2.562804     2.556986     2.551167
      2.545349     2.539530     2.533711     2.527893     2.522074     2.516256     2.510437     2.504618     2.498800     2.492981
      2.487163     2.481344     2.475525     2.469707     2.463888     2.458070     2.452251     2.446432     2.440614     2.434795
      2.428977     2.423158     2.417339     2.411521     2.405702     2.399884     2.394065     2.388246     2.382428     2.376609
      2.370790     2.364972     2.359153     2.353335     2.347516     2.341697     2.335879     2.330060     2.324242     2.318423
      2.312604     2.306786     2.300967     2.295149     2.289330     2.283511     2.277693     2.271874     2.266056     2.260237
      2.254418     2.248600     2.242781     2.236963     2.231144     2.225325     2.219507     2.213688     2.207870     2.202051
      2.196232     2.190414     2.184595     2.178777     2.172958     2.167139     2.161321     2.155502     2.149683     2.143865
      2.138046     2.132228     2.126409     2.120590     2.114772     2.108953     2.103135     2.097316     2.091497     2.085679
      2.079860     2.074042     2.068223     2.062404     2.056586     2.050767     2.044949     2.039130     2.033311     2.027493
      2.021674     2.015856     2.010037     2.004218     1.998400     1.992581     1.986763     1.980944     1.975126     1.969307
      1.963489     1.957670     1.951852     1.946033     1.940215     1.934397     1.928578     1.922760     1.916941     1.911123
      1.905304     1.899486     1.893667     1.887849     1.882030     1.876212     1.870393     1.864575     1.858756     1.852938
      1.847119     1.841301     1.835482     1.829664     1.823845     1.818027     1.812208     1.806390     1.800571     1.794753
      1.788934     1.783116     1.777297     1.771479     1.765660     1.759842     1.754023     1.748205     1.742386     1.736568
      1.730749     1.724931     1.719113     1.713294     1.707476     1.701657     1.695839     1.690020     1.684202     1.678383
      1.672565     1.666746     1.660928     1.655109     1.649291     1.643472     1.637654     1.631835     1.626017     1.620198
      1.614380     1.608561     1.602743     1.596924     1.591106     1.585287     1.579469     1.573650     1.567832     1.562013
      1.556195     1.550376     1.544558     1.538739     1.532921     1.527102     1.521284     1.515465     1.509647     1.503829
      1.498010     1.492192     1.486373     1.480555     1.474736     1.468918     1.463099     1.457281     1.451462     1.445644
      1.439825     1.434007     1.428188     1.422370     1.416551     1.410733     1.404914     1.399096     1.393277     1.387459
      1.381640     1.375822     1.370003     1.364185     1.358366     1.352548     1.346729     1.340911     1.335092     1.329274
      1.323455     1.317637     1.311818     1.306000     1.300182     1.294363     1.288545     1.282726     1.276908     1.271089
      1.265271     1.259452     1.253634     1.247815     1.241997     1.236178     1.230360     1.224541     1.218723     1.212904
      1.207086     1.201267     1.195449     1.189630     1.183812     1.177993     1.172175     1.166356     1.160538     1.154719
      1.148901     1.143082     1.137264     1.131445     1.125627     1.119808     1.113990     1.108171     1.102353     1.096534
      1.090716     1.084898     1.079079     1.073261     1.067442     1.061624     1.055805     1.049987     1.044168     1.038350
      1.032531     1.026713     1.020894     1.015076     1.009257     1.003439     0.997620     0.991802     0.985983     0.980165
      0.974346     0.968528     0.962709     0.956891     0.951072     0.945254     0.939435     0.933617     0.927798     0.921980
      0.916161     0.910343     0.904524     0.898706     0.892887     0.887069     0.881251     0.875432     0.869614     0.863795
      0.857977     0.852158     0.846340     0.840521     0.834703     0.828884     0.823066     0.817247     0.811429     0.805610
      0.799792     0.793973     0.788155     0.782336     0.776518     0.770699     0.764881     0.759062     0.753244     0.747425
      0.741607     0.735788     0.729970     0.724151     0.718333     0.712514     0.706696     0.700877     0.695059     0.689240
      0.683422     0.677603     0.671785     0.665967     0.660148     0.654330     0.648511     0.642693     0.636874     0.631056
      0.625237     0.619419     0.613600     0.607782     0.601963     0.596145     0.590326     0.584508     0.578689     0.572871
      0.567052     0.561234     0.555415     0.549597     0.543778     0.537960     0.532141     0.526323     0.520504     0.514686
      0.508867     0.503049     0.497230     0.491412     0.485593     0.479775     0.473956     0.468138     0.462319     0.456501
      0.450682     0.444864     0.439045     0.433227     0.427408     0.421590     0.415771     0.409953     0.404134     0.398316
      0.392497     0.386679     0.380860     0.375042     0.369223     0.363405     0.357586     0.351767     0.345949     0.340130
      0.334312     0.328493     0.322675     0.316856     0.311038     0.305219     0.299401     0.293582     0.287764     0.281945
      0.276127     0.270308     0.264490     0.258671     0.252853     0.247034     0.241216     0.235397     0.229579     0.223760
      0.217942     0.212123     0.206305     0.200486
 NY phased data points follow
  -1.58294E-01 -4.62966E-01 -5.14423E-01  2.53802E-01 -7.87103E-02 -2.75713E-01 -1.51883E-01 -4.74874E-01 -5.49162E-01 -9.15026E-02
   6.33640E-02  3.85811E-01  4.96977E-01  1.39943E-01  2.24487E-02  7.71464E-02  3.32042E-01 -1.57382E-02  1.40322E-01  1.63605E-01
   1.94950E-01  1.99724E-01 -1.46244E-01  2.19411E-01 -9.50088E-02  2.38296E-02  2.77175E-01  2.56654E-01  4.10847E-01 -2.38324E-01
   1.61754E-02  2.13667E-01 -3.77205E-01 -4.71844E-02 -1.23603E-01 -2.45314E-01 -3.56940E-01 -5.89396E-01  1.09104E-01 -1.42045E-01
  -7.64203E-02  2.97074E-01  1.57689E-01  6.14336E-01  1.10585E-01  9.12861E-02  4.86327E-01  2.33225E-01  3.47378E-02 -2.63992E-01
   9.66835E-02  6.16796E-02 -1.75450E-01  8.31618E-02  9.51139E-03  9.92748E-02 -4.97231E-02 -2.53807E-01  6.44838E-02 -6.13775E-02
  -3.95721E-01 -3.27715E-01 -4.15208E-01 -4.29845E-01 -4.21904E-02 -3.36370E-01 -7.33443E-02  2.17586E-01 -1.57177E-01  2.32078E-01
   1.47337E-01  2.23728E-02 -2.75076E-01 -1.14830E-01  1.44839E-01 -8.70254E-02 -4.66468E-02 -3.67143E-01 -4.44800E-01 -1.92228E-01
   8.83976E-02 -1.17166E-01  2.40077E-01  2.60267E-01  5.40697E-01  7.13904E-01 -1.19870E-01  1.39119E-01  2.12044E-01 -1.90223E-02
   1.65306E-01  3.97987E-01  7.20223E-02  1.89554E-01 -1.16708E-01 -1.54596E-01  3.77552E-01  8.57136E-02  2.18467E-02 -1.59556E-01
  -1.61338E-01 -3.81849E-01  2.54635E-02  5.63866E-01  4.33338E-01  2.46973E-01  1.13895E-01  1.65858E-01  4.17892E-01  2.39873E-01
   8.55451E-02  3.57852E-01  8.17575E-02  5.71850E-01  4.68120E-01  2.62630E-01  4.54835E-01  3.34921E-01  3.98657E-01  2.57938E-01
   1.15907E-01 -1.96453E-01  4.73775E-02  3.42213E-02 -1.47367E-01 -2.40159E-01 -1.74770E-01 -3.14207E-01 -5.04563E-01 -2.26473E-01
  -4.03744E-01 -1.51793E-01 -3.93915E-01 -5.52976E-01 -1.03762E-01 -6.07432E-01 -8.06184E-01 -6.36792E-01 -6.10809E-01 -2.59749E-01
   8.85801E-02  2.40399E-01 -2.95562E-02  7.47710E-04  5.23511E-01  4.83748E-01  2.62873E-02 -1.94502E-01  2.95410E-02 -1.43758E-01
   2.52395E-01  6.52574E-01  2.86391E-02  3.49124E-01  3.90775E-03 -1.03073E-01  2.73777E-01  2.15595E-01  4.55231E-01  1.06753E-01
   5.75474E-01  3.75534E-01  5.43630E-01  1.08869E+00  6.96467E-01  8.30281E-01  5.74850E-01 -2.34833E-01 -1.13981E+00 -1.04546E+00
  -9.39578E-01 -6.06179E-01 -2.99516E-01 -2.35066E-01 -3.47560E-01 -6.30312E-01 -3.94869E-01 -5.69207E-01 -2.07678E-01 -4.24655E-01
  -5.45479E-01 -1.02521E-01 -3.07212E-01 -1.90987E-01  5.73672E-02 -1.39401E-01 -2.43131E-01 -2.23456E-01 -1.51097E-01 -7.29167E-02
  -2.28664E-01  8.66595E-02 -2.23454E-01 -2.49825E-01 -1.04344E-02 -2.13619E-01  1.47277E-01  1.34868E-01  4.45797E-02 -8.01678E-02
  -3.27852E-02  2.72575E-01  1.07811E-01 -1.06517E-01 -1.03748E-01  4.34165E-02 -3.28353E-02 -1.70328E-01 -8.37118E-02 -2.00173E-02
   1.18386E-01 -1.84931E-02 -1.65471E-02  1.54063E-02  2.52421E-01  3.19228E-01 -2.36210E-01  1.85825E-01  2.14780E-01  3.90061E-02
   2.75973E-01  1.12186E-01  1.50515E-02 -7.63649E-02  1.82885E-01  3.07148E-01  5.89028E-01  8.14511E-01  3.56335E-01  2.61351E-01
   4.33131E-01  3.36906E-01  2.81821E-01  2.35832E-01 -8.22399E-02  4.84553E-02  1.53140E-02 -1.64541E-01  9.63885E-02 -2.64396E-01
  -2.00915E-01  1.34593E-01 -8.52765E-02 -2.20011E-01 -2.59906E-01 -5.34765E-01 -1.07735E-01  9.76263E-02 -5.89363E-01 -1.03970E-01
  -2.25228E-01 -1.91074E-01  2.27374E-01 -2.32193E-01 -1.09006E-01 -9.03477E-02 -1.58471E-01 -7.12163E-02 -2.83742E-01 -3.15249E-01
   1.62098E-01  2.80444E-01  2.03126E-01 -1.13726E-01 -5.89366E-02 -2.92234E-02 -2.29193E-01  1.17453E-01  3.93876E-02  2.13454E-01
   1.81270E-01  6.38086E-02  5.03515E-02 -2.27235E-01 -1.47256E-01 -5.69159E-02 -3.15506E-01 -2.14059E-01 -2.86264E-01 -4.61305E-01
  -3.25304E-02 -1.81385E-01 -1.82402E-02 -1.36266E-01 -7.01638E-02  3.76943E-01  1.72716E-01  2.66129E-01  4.05114E-02  2.01598E-01
   3.33785E-01  1.33066E-01  2.85636E-01 -2.70124E-03 -5.78458E-02  2.96344E-01  2.08195E-01  3.57455E-01  2.63856E-01  9.91470E-03
   3.62020E-01  3.68590E-01  3.91632E-01  9.17679E-02 -3.80538E-02  2.98958E-01  2.28958E-01  4.53469E-02  1.94804E-01  2.55903E-01
   9.48042E-02  3.57933E-01  2.45713E-01  4.90402E-01  2.20828E-01 -1.54377E-01 -7.76373E-02 -2.89527E-01 -1.31078E-01 -3.97821E-01
  -2.23195E-01 -4.04265E-01 -3.05449E-01 -3.65412E-01 -5.98804E-01 -1.27505E-01 -1.02558E-01  2.24562E-01  9.52740E-02 -1.85330E-02
  -3.66326E-03  1.04330E-01 -7.82253E-02 -1.62076E-01 -2.11762E-01 -3.87741E-01 -1.19963E-01 -2.46829E-01  8.88486E-03 -2.75090E-01
  -8.99384E-01 -1.26162E+00 -1.68728E+00 -1.96674E+00 -1.55339E+00 -3.52255E-01  2.76347E-01  4.77472E-01  3.05510E-01 -1.96211E-01
   1.00866E-01  1.59054E-01 -4.13750E-02 -2.19711E-03  1.30565E-01  3.74819E-01 -9.00045E-02  3.92609E-01  3.03369E-01  2.79623E-02
   1.78688E-01  1.37778E-01  5.22008E-01 -2.18440E-01  1.62033E-01  3.23026E-01 -1.13236E-02  2.45889E-01  1.46335E-02  2.18043E-01
   2.34760E-01  1.64878E-01  2.48521E-01  1.59330E-01  1.54988E-01  2.86133E-01  1.89280E-01  1.02210E-01  2.37121E-01  2.56111E-01
  -3.06223E-02  1.92891E-01  3.81405E-01  2.13951E-01  2.66474E-01  8.86566E-02  3.18329E-01  5.07708E-01  4.93359E-01  3.99000E-01
   2.82120E-01  3.15652E-01  9.29802E-02  2.75965E-01  2.42550E-01  5.81266E-01  5.86308E-01 -2.64018E-01  2.45482E-01  2.86504E-01
   3.55347E-02  2.16873E-01  1.12229E-01  3.76962E-02  7.71948E-02  1.93772E-02 -1.25678E-01  1.87627E-01 -1.64584E-01 -9.37188E-02
   1.89968E-02 -2.21478E-01 -2.08401E-01 -4.24327E-01 -3.42812E-01 -3.10159E-01 -2.47309E-01 -1.07414E-01 -1.21825E-01 -3.96857E-01
  -2.60961E-01 -1.52463E-01 -2.78224E-01 -8.43207E-02 -6.13198E-02 -5.56858E-01 -4.24712E-01  8.61146E-03 -4.21762E-01 -3.15841E-01
  -1.19580E-01 -1.67433E-01 -1.24099E-01 -2.72323E-01 -4.68206E-02  8.31964E-02 -2.28978E-01 -2.88004E-01 -1.75694E-01 -2.13540E-01
  -1.18609E-01 -5.69493E-02 -2.09375E-01  1.29901E-01  2.26379E-02 -9.86581E-02  3.58661E-01  4.37085E-01  2.39863E-01  1.79442E-01
   6.69747E-01  4.45629E-01  3.62281E-01 -4.92995E-02 -2.46203E-01  2.47256E-01  6.33577E-02 -1.58023E-01  1.08219E-01  8.62030E-02
  -2.35342E-01  5.43987E-01 -3.27903E-02 -1.01353E-01 -1.06067E-03 -2.12962E-01  3.10166E-02 -3.83237E-01 -9.50329E-02  6.07602E-02
  -5.90485E-02 -2.85767E-01 -9.35761E-02 -2.55581E-01  2.06210E-01 -1.21147E-01 -3.48891E-01 -5.96118E-02 -1.10617E-01  2.12842E-01
  -2.81047E-01  1.56549E-01  3.25065E-02 -1.94045E-01 -2.84475E-01 -7.13034E-03 -1.18813E-01 -4.11811E-01  6.29293E-02 -1.66851E-01
  -2.37750E-01 -4.27520E-02  1.16744E-01  1.76090E-02  2.70335E-01  3.85026E-02 -1.34138E-01 -1.63134E-01  8.57727E-02  1.61668E-01
  -1.69798E-02  2.09045E-02 -7.13566E-02  2.73098E-01  5.65660E-02  2.76719E-01  5.85589E-01  2.52937E-01  2.45584E-02  1.09048E-01
   3.06321E-01  4.01341E-01  5.79319E-02  1.19963E-01  3.82968E-01  1.98906E-01  2.70592E-01  8.05071E-02 -1.51708E-01 -5.65220E-02
   2.26036E-01  5.82469E-02 -8.57651E-02 -1.52204E-02 -2.30507E-01 -2.89532E-01 -3.76271E-01 -5.28392E-01 -3.34391E-01 -4.13401E-01
  -2.28663E-01 -4.10881E-01 -4.75816E-01  6.52021E-03  1.89435E-02  1.57729E-01 -3.17546E-01 -2.05329E-01 -6.71901E-02 -1.25406E-01
  -2.47026E-01 -4.75059E-01 -3.36563E-01  3.10137E-03 -7.61734E-02 -3.38927E-01 -1.10455E-01 -3.16942E-01  5.71406E-02  2.06218E-01
   3.48748E-01 -1.05974E-01 -5.81783E-02  2.45387E-01 -1.56206E-01  1.20418E-02  6.92264E-03 -3.28515E-02 -5.26185E-02  3.03384E-01
   3.57864E-02 -1.08358E-01 -2.83808E-01 -9.80570E-02  1.97315E-02 -7.97794E-02  3.45567E-03  2.12234E-01  1.41702E-01 -1.36737E-01
   3.01892E-01 -3.13929E-01 -1.96293E-01 -1.38006E-01 -1.59899E-04 -8.04634E-03 -2.13941E-01  7.42869E-02 -1.10815E-01 -2.97100E-02
  -6.00342E-02  4.38822E-02 -1.33416E-01  3.33959E-02  2.48682E-01  3.84704E-01  1.74227E-01  3.13521E-01  3.47112E-01 -7.23574E-02
  -1.21557E-01 -1.74888E-01  2.84042E-01  1.94391E-01  1.75286E-01  1.53847E-01 -1.14439E-01  8.17718E-02  5.76389E-02  1.98566E-01
   1.86897E-01 -9.05832E-02  2.31496E-01 -7.42071E-04  1.56574E-02 -7.20385E-02  1.12712E-01  2.20203E-01 -1.39507E-01  2.85354E-01
  -2.30892E-01  7.07116E-02  1.67855E-01  4.10228E-02  5.28540E-02  9.16448E-02  1.54884E-01 -2.52005E-01  1.16563E-01  5.53462E-02
   1.35936E-01 -3.65511E-02  1.58664E-01  2.97297E-01  8.00318E-03  3.30705E-01  1.53924E-01 -2.44448E-01  3.79507E-02  2.31072E-01
   1.65289E-01  1.49338E-01  2.28200E-01  3.12715E-01 -2.70575E-03  4.15690E-02  2.34214E-01  4.17252E-01  1.55242E-02  9.94141E-02
   8.09199E-02 -1.76301E-01  5.79618E-02 -5.10071E-02  1.07298E-01  2.97359E-01  6.03275E-01  1.40438E-01 -5.67497E-02 -6.94012E-02
   3.94300E-02  3.51147E-01 -1.34094E-01 -1.75946E-01
 NY points of the fit to the data follow
   6.75747E-02  6.41519E-02  6.49597E-02  6.54374E-02  6.72533E-02  6.89581E-02  6.72721E-02  5.35965E-02  8.53826E-02  1.93616E-01
   2.82325E-01  4.01392E-01  5.76323E-01  5.90807E-01  4.65201E-01  3.89908E-01  2.78952E-01  1.81760E-01  1.48813E-01  6.95231E-02
   4.76958E-02  5.64399E-02  2.47176E-02 -5.42936E-03 -2.98438E-02 -4.53610E-02 -5.28010E-02 -5.58195E-02 -6.01031E-02 -6.60818E-02
  -7.24147E-02 -8.03036E-02 -9.41849E-02 -1.14650E-01 -1.45275E-01 -1.75570E-01 -2.00298E-01 -1.94603E-01 -1.68441E-01 -8.71972E-02
   2.78115E-02  1.69061E-01  2.76343E-01  3.49993E-01  3.45028E-01  2.95664E-01  2.04816E-01  1.06695E-01  6.34676E-02  3.13254E-02
   3.51730E-02  2.07998E-02  7.73268E-03 -1.54820E-02 -4.48568E-02 -7.71189E-02 -1.20288E-01 -1.58425E-01 -1.91363E-01 -2.42954E-01
  -2.44121E-01 -2.33238E-01 -2.72018E-01 -2.07656E-01 -1.11822E-01 -1.03666E-01  2.37993E-02  2.14229E-01  2.40029E-01  3.22010E-01
   3.19971E-01  2.09300E-01  1.74031E-01  8.13674E-02  1.03491E-02 -2.18172E-02 -1.22798E-01 -2.60096E-01 -3.22248E-01 -3.89827E-01
  -4.18710E-01 -2.18961E-01  4.01709E-02  1.73384E-01  3.24357E-01  3.89629E-01  3.50861E-01  3.35665E-01  2.44542E-01  1.69078E-01
   1.60705E-01  1.56098E-01  1.41908E-01  1.26154E-01  7.99505E-02  3.34120E-02 -6.20705E-02 -1.45128E-01 -2.09147E-01 -2.10391E-01
  -1.65701E-01 -1.50369E-02  9.54597E-02  1.89578E-01  2.45415E-01  2.00000E-01  2.02134E-01  1.67692E-01  1.65665E-01  1.67733E-01
   1.67151E-01  1.66062E-01  1.65915E-01  1.61910E-01  1.59901E-01  1.59062E-01  1.58491E-01  1.59761E-01  1.65652E-01  1.35941E-01
   1.04864E-01  8.91984E-02 -7.39852E-04 -7.38611E-02 -9.15515E-02 -1.55122E-01 -2.54824E-01 -2.62694E-01 -3.47804E-01 -3.72902E-01
  -3.39778E-01 -2.23980E-01 -1.90115E-01 -2.56511E-01 -3.29619E-01 -5.52747E-01 -7.81731E-01 -6.78748E-01 -4.03702E-01 -1.43252E-01
   6.66956E-02  3.40414E-02  9.99809E-03  2.51236E-02  4.22182E-02  5.95832E-02  7.68296E-02  9.18323E-02  1.05483E-01  1.17840E-01
   1.27705E-01  1.39137E-01  1.51380E-01  1.63996E-01  1.79844E-01  1.97969E-01  2.17148E-01  2.39359E-01  2.63909E-01  2.92920E-01
   3.29152E-01  3.81381E-01  4.77961E-01  7.68520E-01  7.64406E-01  5.73331E-01  3.52024E-01 -1.85289E-01 -1.00473E+00 -1.13235E+00
  -9.44418E-01 -6.23966E-01 -2.15809E-01 -2.89864E-01 -3.10487E-01 -3.03032E-01 -2.80783E-01 -2.69019E-01 -2.51172E-01 -2.44424E-01
  -2.33891E-01 -2.20675E-01 -2.07873E-01 -2.00694E-01 -1.91304E-01 -1.83803E-01 -1.74019E-01 -1.63416E-01 -1.55057E-01 -1.45379E-01
  -1.39041E-01 -1.30538E-01 -1.22527E-01 -1.14169E-01 -1.05315E-01 -9.62388E-02 -8.90240E-02 -8.14257E-02 -7.07016E-02 -5.68643E-02
  -4.40683E-02 -3.48749E-02 -2.95027E-02 -3.02403E-02 -3.41321E-02 -3.59986E-02 -3.26903E-02 -2.42224E-02 -2.57569E-02 -4.54150E-02
  -6.85762E-02 -7.80570E-02 -7.15861E-02 -5.70484E-02 -4.66249E-02 -4.31536E-02 -4.19174E-02 -4.23571E-02 -4.31832E-02 -4.52668E-02
  -4.73124E-02 -3.92258E-02  5.30642E-03  7.88694E-02  1.52021E-01  2.16051E-01  2.83919E-01  3.06690E-01  2.68446E-01  2.55197E-01
   2.96008E-01  2.71572E-01  1.60134E-01  2.83458E-02 -8.37186E-02 -1.01213E-01 -7.89681E-02 -7.35657E-02 -7.33661E-02 -7.86668E-02
  -8.64951E-02 -9.30991E-02 -9.82412E-02 -1.01436E-01 -1.03803E-01 -1.07128E-01 -1.11939E-01 -1.14781E-01 -1.18474E-01 -1.22500E-01
  -1.28796E-01 -1.42334E-01 -1.69882E-01 -1.86839E-01 -1.74022E-01 -1.72848E-01 -1.29674E-01 -5.28204E-02  3.19671E-03  3.34757E-02
   5.68133E-02  6.84163E-02  9.73508E-02  7.40871E-02  5.27093E-02  1.09275E-01  9.64574E-02  1.24898E-01  1.08431E-01  8.21255E-02
   9.10110E-02  4.72787E-02  1.91657E-02 -2.99833E-02 -6.24791E-02 -9.40066E-02 -1.27439E-01 -1.79290E-01 -2.38983E-01 -2.91399E-01
  -3.48311E-01 -3.44638E-01 -2.62344E-01 -1.39659E-01  4.81911E-02  2.44914E-01  3.38450E-01  4.02616E-01  3.71412E-01  2.74364E-01
   2.07236E-01  1.39200E-01  1.17944E-01  1.24609E-01  1.27555E-01  1.52393E-01  1.61785E-01  1.68305E-01  1.71041E-01  1.56120E-01
   1.54789E-01  1.50280E-01  1.49762E-01  1.48231E-01  1.46506E-01  1.42793E-01  1.36742E-01  1.29893E-01  1.16740E-01  1.03241E-01
   8.77572E-02  6.94171E-02  5.20346E-02  2.85771E-02 -1.98989E-03 -4.39630E-02 -9.47247E-02 -1.66331E-01 -2.28675E-01 -2.90790E-01
  -3.30154E-01 -3.49977E-01 -3.25325E-01 -2.73945E-01 -1.93563E-01 -8.28539E-02 -6.34961E-04  6.89999E-02  8.30263E-02  4.74086E-02
  -1.40522E-03 -7.16040E-02 -1.22238E-01 -1.74366E-01 -1.81056E-01 -1.87958E-01 -1.47725E-01 -9.11902E-02  7.21245E-02 -3.19999E-01
  -8.00410E-01 -1.16118E+00 -1.76823E+00 -2.13589E+00 -1.33028E+00 -5.35104E-01  4.80290E-02  3.90817E-01  6.79133E-03 -2.06268E-02
  -1.86919E-02 -1.15008E-02 -3.62974E-03  2.47980E-03  7.00058E-03  1.19449E-02  1.24899E-02  1.08117E-02  6.62828E-03 -1.99946E-03
  -1.14815E-02 -1.81398E-02 -2.34512E-02 -2.46877E-02 -1.88343E-02 -1.45936E-02 -1.09169E-03  9.30391E-03  1.76201E-02  2.56482E-02
   3.02619E-02  3.71521E-02  4.23024E-02  4.85638E-02  5.22549E-02  5.45820E-02  5.80924E-02  6.15867E-02  6.59126E-02  7.08531E-02
   7.32120E-02  7.57352E-02  7.85418E-02  8.22254E-02  8.58891E-02  8.81021E-02  8.93164E-02  9.01719E-02  9.20432E-02  9.68728E-02
   1.02162E-01  1.05735E-01  1.07881E-01  1.06312E-01  1.03098E-01  9.87738E-02  9.52193E-02  9.15490E-02  8.73513E-02  8.27755E-02
   7.59990E-02  6.77089E-02  5.95983E-02  5.16585E-02  4.30842E-02  3.53061E-02  2.88699E-02  2.31813E-02  1.65084E-02  1.05775E-02
   5.49366E-03  8.45820E-04 -2.16541E-03 -4.26319E-03 -7.91380E-03 -1.11309E-02 -1.43656E-02 -1.80347E-02 -2.02825E-02 -2.22105E-02
  -2.32160E-02 -2.31024E-02 -2.32360E-02 -2.18218E-02 -1.81610E-02 -1.50448E-02 -9.87463E-03 -3.67722E-03  1.92631E-03  7.55453E-03
   1.26127E-02  1.53070E-02  1.74294E-02  2.13904E-02  2.79501E-02  3.85939E-02  4.86463E-02  5.80474E-02  6.56942E-02  7.50034E-02
   8.65097E-02  9.96286E-02  1.14256E-01  1.27629E-01  1.41150E-01  1.53768E-01  1.66371E-01  1.76938E-01  1.85018E-01  1.88984E-01
   1.89734E-01  1.87805E-01  1.86048E-01  1.83547E-01  1.79641E-01  1.74581E-01  1.65139E-01  1.53237E-01  1.39912E-01  1.24942E-01
   1.13038E-01  1.01679E-01  9.13275E-02  8.13608E-02  7.09838E-02  6.09754E-02  5.34138E-02  4.69268E-02  4.03213E-02  3.52095E-02
   2.96661E-02  2.58319E-02  2.24502E-02  2.07671E-02  2.03341E-02  2.21525E-02  2.70915E-02  3.15569E-02  3.59304E-02  4.16442E-02
   4.76481E-02  5.43463E-02  6.23683E-02  6.86640E-02  7.23148E-02  7.47433E-02  7.58661E-02  7.76696E-02  7.95738E-02  8.26127E-02
   8.51417E-02  8.57539E-02  8.48756E-02  8.11085E-02  7.72082E-02  7.35764E-02  6.94821E-02  6.44525E-02  6.05985E-02  5.70831E-02
   5.38592E-02  5.03288E-02  4.58333E-02  4.19094E-02  3.67362E-02  3.21906E-02  2.83329E-02  2.39983E-02  2.09457E-02  1.94594E-02
   1.65070E-02  1.23748E-02  6.82734E-03  4.83738E-05 -7.64997E-03 -1.70590E-02 -2.65398E-02 -3.62619E-02 -4.78907E-02 -6.19983E-02
  -7.99786E-02 -1.01472E-01 -1.22905E-01 -1.42622E-01 -1.59662E-01 -1.75516E-01 -1.90825E-01 -2.05264E-01 -2.16420E-01 -2.24010E-01
  -2.29830E-01 -2.31361E-01 -2.27970E-01 -2.22031E-01 -2.15726E-01 -2.07528E-01 -1.97062E-01 -1.86197E-01 -1.77318E-01 -1.68832E-01
  -1.61647E-01 -1.53581E-01 -1.42834E-01 -1.30505E-01 -1.18174E-01 -1.05529E-01 -9.21946E-02 -7.96871E-02 -6.79180E-02 -5.71652E-02
  -4.54394E-02 -3.61575E-02 -2.63089E-02 -1.66348E-02 -8.73610E-03 -1.09321E-03  4.96743E-03  1.10090E-02  1.86068E-02  2.28656E-02
   2.52376E-02  2.97785E-02  3.27867E-02  3.57379E-02  3.88251E-02  3.96359E-02  4.00420E-02  4.23648E-02  4.34863E-02  4.31767E-02
   4.41016E-02  4.71393E-02  5.08377E-02  5.37515E-02  5.67771E-02  5.77562E-02  5.73974E-02  5.69969E-02  5.66190E-02  5.62475E-02
   5.61985E-02  5.63895E-02  5.55678E-02  5.53813E-02  5.56084E-02  5.56635E-02  5.78619E-02  5.94324E-02  5.84949E-02  5.82631E-02
   5.61000E-02  5.20506E-02  5.11089E-02  5.32256E-02  5.55657E-02  5.60915E-02  5.44820E-02  5.22232E-02  5.19319E-02  5.12479E-02
   5.17214E-02  5.36688E-02  5.70217E-02  5.90233E-02  5.93956E-02  6.02281E-02  6.08975E-02  6.34953E-02  6.55332E-02  6.60920E-02
   6.62470E-02  6.63655E-02  6.50661E-02  6.29554E-02  6.29304E-02  6.46667E-02  6.74016E-02  6.95632E-02  7.02982E-02  7.14145E-02
   7.26205E-02  7.38767E-02  7.83610E-02  8.18953E-02  8.26043E-02  8.25555E-02  7.88963E-02  7.66832E-02  7.83266E-02  7.96736E-02
   8.26095E-02  8.34305E-02  8.19895E-02  8.20291E-02  8.21391E-02  8.28805E-02  8.48298E-02  8.59792E-02  8.58007E-02  8.84193E-02
   9.08991E-02  9.22028E-02  9.32751E-02  9.35934E-02  9.48469E-02  9.80423E-02  1.01834E-01  1.05368E-01  1.11225E-01  1.16219E-01
   1.19132E-01  1.21152E-01  1.22171E-01  1.25629E-01
 NY background values follow
     5.855E-02    5.843E-02    5.831E-02    5.818E-02    5.806E-02    5.794E-02    5.781E-02    5.769E-02    5.756E-02    5.744E-02
     5.732E-02    5.719E-02    5.707E-02    5.694E-02    5.682E-02    5.670E-02    5.657E-02    5.645E-02    5.633E-02    5.620E-02
     5.608E-02    5.595E-02    5.583E-02    5.571E-02    5.558E-02    5.546E-02    5.533E-02    5.521E-02    5.509E-02    5.496E-02
     5.484E-02    5.471E-02    5.459E-02    5.447E-02    5.434E-02    5.422E-02    5.409E-02    5.397E-02    5.385E-02    5.372E-02
     5.360E-02    5.347E-02    5.335E-02    5.323E-02    5.310E-02    5.298E-02    5.285E-02    5.273E-02    5.261E-02    5.248E-02
     5.236E-02    5.223E-02    5.211E-02    5.199E-02    5.186E-02    5.174E-02    5.161E-02    5.149E-02    5.137E-02    5.124E-02
     5.112E-02    5.099E-02    5.087E-02    5.074E-02    5.062E-02    5.050E-02    5.037E-02    5.025E-02    5.012E-02    5.000E-02
