 LCModel (Version 6.3-1N) Copyright: S.W. Provencher.          Ref.: Magn. Reson. Med. 30:672-679 (1993).                
 Slice_N1@20_14  02-Jun-2023 14:37:18
 27 lines in following concentration table = NCONC+1
    Conc.  %SD /Cr+PCr  Metabolite                                         
 2.90E-06  11% 3.8E-04 Mac                                                 
 2.95E-02  14%   3.905 Cr                                                  
 3.09E-02  14%   4.095 PCr                                                 
 5.71E-02  11%   7.558 Ins                                                 
 8.21E-02   7%  10.876 NAA                                                 
 5.59E-02  10%   7.398 Tau                                                 
 4.16E-03  31%   0.551 PCho                                                
 4.90E-03  34%   0.649 GPC                                                 
 6.84E-02  11%   9.062 Glu                                                 
 1.41E-02  37%   1.868 Gln                                                 
 7.74E-03  62%   1.025 Ala                                                 
 1.02E-03 912%   0.135 Asc                                                 
 8.80E-04 756%   0.117 Asp                                                 
 1.26E-02  27%   1.663 GABA                                                
 4.31E-03 107%   0.571 Glc                                                 
 1.14E-02  25%   1.507 GSH                                                 
 1.98E-03 257%   0.262 Lac                                                 
 5.27E-03  66%   0.697 NAAG                                                
 3.33E-04 999% 4.4E-02 PE                                                  
 9.06E-03  22%   1.200 GPC+PCho                                            
 8.74E-02   7%  11.574 NAA+NAAG                                            
 8.25E-02  11%  10.929 Glu+Gln                                             
 6.04E-02   8%   8.000 Cr+PCr                                              
 8.74E-02   7%  11.574 NAA+NAAG                                            
 6.04E-02   8%   8.000 Cr+PCr                                              
 8.25E-02  11%  10.929 Glu+Gln                                             
   6 lines in following misc. output table
  FWHM = 0.017 ppm    S/N =   8                                            
  Data shift = 0.023 ppm                                                   
  Ph: -38 deg     -13.1 deg/ppm                                            
  alphaB,S = 1.9E-01,   4.0E-01                                            
   18 spline knots.   Ns = 5(1)                                            
   2 inflections.     1 extrema                                            
  654 points on ppm-axis = NY
      4.000000     3.994181     3.988363     3.982544     3.976726     3.970907     3.965088     3.959270     3.953451     3.947633
      3.941814     3.935995     3.930177     3.924358     3.918540     3.912721     3.906902     3.901084     3.895265     3.889446
      3.883628     3.877809     3.871991     3.866172     3.860353     3.854535     3.848716     3.842898     3.837079     3.831260
      3.825442     3.819623     3.813805     3.807986     3.802167     3.796349     3.790530     3.784712     3.778893     3.773074
      3.767256     3.761437     3.755619     3.749800     3.743981     3.738163     3.732344     3.726526     3.720707     3.714888
      3.709070     3.703251     3.697433     3.691614     3.685795     3.679977     3.674158     3.668339     3.662521     3.656702
      3.650884     3.645065     3.639246     3.633428     3.627609     3.621791     3.615972     3.610153     3.604335     3.598516
      3.592698     3.586879     3.581060     3.575242     3.569423     3.563605     3.557786     3.551967     3.546149     3.540330
      3.534512     3.528693     3.522874     3.517056     3.511237     3.505419     3.499600     3.493781     3.487963     3.482144
      3.476326     3.470507     3.464688     3.458870     3.453051     3.447232     3.441414     3.435595     3.429777     3.423958
      3.418139     3.412321     3.406502     3.400684     3.394865     3.389046     3.383228     3.377409     3.371591     3.365772
      3.359953     3.354135     3.348316     3.342498     3.336679     3.330860     3.325042     3.319223     3.313405     3.307586
      3.301767     3.295949     3.290130     3.284312     3.278493     3.272674     3.266856     3.261037     3.255219     3.249400
      3.243581     3.237763     3.231944     3.226125     3.220307     3.214488     3.208670     3.202851     3.197032     3.191214
      3.185395     3.179577     3.173758     3.167939     3.162121     3.156302     3.150484     3.144665     3.138846     3.133028
      3.127209     3.121391     3.115572     3.109753     3.103935     3.098116     3.092298     3.086479     3.080660     3.074842
      3.069023     3.063205     3.057386     3.051567     3.045749     3.039930     3.034111     3.028293     3.022474     3.016656
      3.010837     3.005018     2.999200     2.993381     2.987563     2.981744     2.975925     2.970107     2.964288     2.958470
      2.952651     2.946832     2.941014     2.935195     2.929377     2.923558     2.917739     2.911921     2.906102     2.900284
      2.894465     2.888646     2.882828     2.877009     2.871191     2.865372     2.859553     2.853735     2.847916     2.842098
      2.836279     2.830460     2.824642     2.818823     2.813004     2.807186     2.801367     2.795549     2.789730     2.783911
      2.778093     2.772274     2.766456     2.760637     2.754818     2.749000     2.743181     2.737363     2.731544     2.725725
      2.719907     2.714088     2.708270     2.702451     2.696632     2.690814     2.684995     2.679177     2.673358     2.667539
      2.661721     2.655902     2.650084     2.644265     2.638446     2.632628     2.626809     2.620991     2.615172     2.609353
      2.603535     2.597716     2.591897     2.586079     2.580260     2.574442     2.568623     2.562804     2.556986     2.551167
      2.545349     2.539530     2.533711     2.527893     2.522074     2.516256     2.510437     2.504618     2.498800     2.492981
      2.487163     2.481344     2.475525     2.469707     2.463888     2.458070     2.452251     2.446432     2.440614     2.434795
      2.428977     2.423158     2.417339     2.411521     2.405702     2.399884     2.394065     2.388246     2.382428     2.376609
      2.370790     2.364972     2.359153     2.353335     2.347516     2.341697     2.335879     2.330060     2.324242     2.318423
      2.312604     2.306786     2.300967     2.295149     2.289330     2.283511     2.277693     2.271874     2.266056     2.260237
      2.254418     2.248600     2.242781     2.236963     2.231144     2.225325     2.219507     2.213688     2.207870     2.202051
      2.196232     2.190414     2.184595     2.178777     2.172958     2.167139     2.161321     2.155502     2.149683     2.143865
      2.138046     2.132228     2.126409     2.120590     2.114772     2.108953     2.103135     2.097316     2.091497     2.085679
      2.079860     2.074042     2.068223     2.062404     2.056586     2.050767     2.044949     2.039130     2.033311     2.027493
      2.021674     2.015856     2.010037     2.004218     1.998400     1.992581     1.986763     1.980944     1.975126     1.969307
      1.963489     1.957670     1.951852     1.946033     1.940215     1.934397     1.928578     1.922760     1.916941     1.911123
      1.905304     1.899486     1.893667     1.887849     1.882030     1.876212     1.870393     1.864575     1.858756     1.852938
      1.847119     1.841301     1.835482     1.829664     1.823845     1.818027     1.812208     1.806390     1.800571     1.794753
      1.788934     1.783116     1.777297     1.771479     1.765660     1.759842     1.754023     1.748205     1.742386     1.736568
      1.730749     1.724931     1.719113     1.713294     1.707476     1.701657     1.695839     1.690020     1.684202     1.678383
      1.672565     1.666746     1.660928     1.655109     1.649291     1.643472     1.637654     1.631835     1.626017     1.620198
      1.614380     1.608561     1.602743     1.596924     1.591106     1.585287     1.579469     1.573650     1.567832     1.562013
      1.556195     1.550376     1.544558     1.538739     1.532921     1.527102     1.521284     1.515465     1.509647     1.503829
      1.498010     1.492192     1.486373     1.480555     1.474736     1.468918     1.463099     1.457281     1.451462     1.445644
      1.439825     1.434007     1.428188     1.422370     1.416551     1.410733     1.404914     1.399096     1.393277     1.387459
      1.381640     1.375822     1.370003     1.364185     1.358366     1.352548     1.346729     1.340911     1.335092     1.329274
      1.323455     1.317637     1.311818     1.306000     1.300182     1.294363     1.288545     1.282726     1.276908     1.271089
      1.265271     1.259452     1.253634     1.247815     1.241997     1.236178     1.230360     1.224541     1.218723     1.212904
      1.207086     1.201267     1.195449     1.189630     1.183812     1.177993     1.172175     1.166356     1.160538     1.154719
      1.148901     1.143082     1.137264     1.131445     1.125627     1.119808     1.113990     1.108171     1.102353     1.096534
      1.090716     1.084898     1.079079     1.073261     1.067442     1.061624     1.055805     1.049987     1.044168     1.038350
      1.032531     1.026713     1.020894     1.015076     1.009257     1.003439     0.997620     0.991802     0.985983     0.980165
      0.974346     0.968528     0.962709     0.956891     0.951072     0.945254     0.939435     0.933617     0.927798     0.921980
      0.916161     0.910343     0.904524     0.898706     0.892887     0.887069     0.881251     0.875432     0.869614     0.863795
      0.857977     0.852158     0.846340     0.840521     0.834703     0.828884     0.823066     0.817247     0.811429     0.805610
      0.799792     0.793973     0.788155     0.782336     0.776518     0.770699     0.764881     0.759062     0.753244     0.747425
      0.741607     0.735788     0.729970     0.724151     0.718333     0.712514     0.706696     0.700877     0.695059     0.689240
      0.683422     0.677603     0.671785     0.665967     0.660148     0.654330     0.648511     0.642693     0.636874     0.631056
      0.625237     0.619419     0.613600     0.607782     0.601963     0.596145     0.590326     0.584508     0.578689     0.572871
      0.567052     0.561234     0.555415     0.549597     0.543778     0.537960     0.532141     0.526323     0.520504     0.514686
      0.508867     0.503049     0.497230     0.491412     0.485593     0.479775     0.473956     0.468138     0.462319     0.456501
      0.450682     0.444864     0.439045     0.433227     0.427408     0.421590     0.415771     0.409953     0.404134     0.398316
      0.392497     0.386679     0.380860     0.375042     0.369223     0.363405     0.357586     0.351767     0.345949     0.340130
      0.334312     0.328493     0.322675     0.316856     0.311038     0.305219     0.299401     0.293582     0.287764     0.281945
      0.276127     0.270308     0.264490     0.258671     0.252853     0.247034     0.241216     0.235397     0.229579     0.223760
      0.217942     0.212123     0.206305     0.200486
 NY phased data points follow
  -1.41067E-01 -3.26134E-01 -1.69213E-01  9.24782E-02 -2.47232E-02  1.27485E-01  2.39546E-02 -1.63382E-01 -1.49237E-01 -1.77306E-02
   2.16669E-01  4.28075E-01  5.46335E-01  1.17024E-01  2.15443E-01  6.13113E-01  4.45031E-01  9.02019E-02  1.33209E-01  1.07548E-01
  -1.16691E-01  1.00857E-01 -2.21591E-02 -2.61207E-01  1.45668E-01  2.50559E-01 -1.04159E-02 -1.31690E-01 -3.08134E-01 -2.14318E-01
  -1.79669E-01  6.99565E-02 -2.32650E-02 -9.17569E-02 -3.39702E-01 -4.41402E-01 -1.97631E-01 -6.29624E-01 -3.58768E-01 -1.78272E-01
   2.33157E-01  2.88918E-01  2.36744E-01  4.15164E-01  3.44898E-01  4.31874E-01  1.41373E-01  3.12694E-01  2.70420E-01  4.32909E-02
   4.92097E-02  1.10591E-01  8.26179E-02  1.95009E-02 -1.11345E-01 -1.46266E-01 -2.95690E-01 -3.70431E-01 -3.55617E-01 -1.97786E-01
   1.04135E-01 -3.33770E-01 -2.10236E-01 -1.43521E-01 -4.73363E-01 -2.33754E-01  1.58308E-01 -1.95547E-03  7.09386E-02  4.83545E-01
   3.16134E-01 -2.25559E-02  1.05199E-01  1.70062E-01 -1.05028E-01 -5.09002E-03 -8.58634E-02  5.46488E-02 -5.44447E-03 -2.49702E-01
  -4.32078E-01 -1.46304E-01  1.55476E-01  4.04556E-02  2.31484E-01  2.68550E-01  5.64075E-01  2.92574E-01  2.83023E-01  4.22079E-01
   1.53462E-01  1.85340E-01  1.16452E-01  2.93157E-01  1.78142E-01  4.49911E-02  4.07384E-01 -2.65013E-02 -1.67303E-01 -1.76085E-01
  -5.88468E-01 -3.46945E-02  1.05450E-01  2.56647E-01  1.44358E-01  2.41563E-01  6.01256E-01  1.33823E-01  1.12364E-01  3.49663E-01
   2.60510E-01  1.97006E-01  5.29528E-01  3.13396E-01  3.49874E-01  3.40941E-01  1.22270E-01  3.37935E-01  3.90775E-01  3.99023E-01
   9.71890E-02 -2.79788E-01 -9.84698E-02  1.97564E-04 -7.84037E-02  2.75099E-02 -2.69843E-01 -2.91042E-01 -6.05754E-01 -6.15102E-01
  -5.97506E-01 -9.74758E-01 -7.83052E-01 -5.51729E-01 -5.16234E-01 -6.16248E-01 -4.39007E-01 -9.17516E-01 -6.08335E-01 -4.01895E-02
  -4.47556E-02  1.43593E-01 -1.75382E-01 -1.50621E-01  1.00470E-01  1.10200E-01  4.12220E-02  3.14826E-01  2.99908E-01  4.15286E-02
  -8.26742E-02  5.17761E-02  1.59593E-01 -3.26677E-02  2.60051E-01  2.93556E-01  2.83259E-02  3.21412E-01  6.25515E-01  3.52729E-01
   3.14842E-01  5.03721E-01  6.13549E-01  8.17862E-01  9.40899E-01  1.15767E+00  1.04049E+00 -9.02322E-02 -9.86124E-01 -7.92533E-01
  -7.32525E-01 -6.14920E-01 -4.62784E-01 -5.23291E-01 -3.02403E-01 -3.10351E-01 -4.20618E-01 -3.57762E-01 -5.01765E-01 -5.49592E-01
  -4.33566E-01 -2.44542E-01 -3.00833E-01 -4.99630E-01 -1.35294E-01 -4.20247E-01 -4.90545E-01 -2.10108E-01 -3.65063E-01 -1.19015E-01
  -3.33203E-01 -6.38595E-01 -4.18412E-01 -3.61773E-02 -3.13668E-01 -2.76072E-01 -1.65880E-01 -2.59140E-01  1.58353E-01 -1.54953E-02
  -1.16030E-01 -6.01031E-02 -1.21226E-01 -2.75294E-01 -3.30766E-03 -1.48858E-01 -1.28219E-01 -6.53416E-02 -2.14629E-01  2.04639E-01
  -2.29595E-01  8.85797E-02  1.20941E-01 -7.16331E-02  5.28131E-02 -6.17002E-02 -1.07478E-01 -1.53953E-01  2.53290E-01  2.34307E-02
  -1.45824E-01 -2.41569E-01 -1.08580E-01  8.85316E-02  2.11346E-01  2.71211E-01  3.49573E-01  3.56714E-01 -1.01160E-01  3.32124E-01
   5.59825E-01  2.71544E-01  2.16499E-01  6.39466E-02 -4.93078E-02 -6.04684E-02 -2.79268E-02 -2.74040E-01 -3.30504E-01 -1.97942E-01
  -2.61065E-01  1.97964E-01  1.52372E-01 -4.66781E-02 -3.10722E-02 -7.44317E-02  1.31980E-01  2.18983E-03  3.00375E-01 -4.75911E-02
  -2.51780E-01 -6.29614E-02 -1.15075E-01 -3.12449E-02 -1.10096E-01  3.32455E-02 -1.91232E-01 -8.77431E-03  1.57601E-01  1.44356E-01
   3.73503E-01  1.80953E-01  2.82845E-02  1.67415E-01  2.55035E-01  1.96096E-01  9.09289E-02 -9.50582E-02 -1.94283E-01  1.21436E-01
   1.61205E-01  1.08891E-01  2.40323E-01  8.69305E-02  1.37980E-01 -1.32802E-01 -1.16093E-01 -1.30516E-01 -2.52957E-01 -1.38781E-02
  -2.03978E-01 -5.45486E-01 -4.49096E-01 -1.98126E-01 -8.79725E-02  3.78197E-01  4.36939E-01  5.32155E-01  4.73338E-01  6.00643E-01
   5.86260E-01  1.89745E-01  3.87589E-01  8.10082E-02  1.57099E-02 -8.48034E-03 -9.02847E-02  1.31615E-01  7.19619E-02  1.33335E-01
   3.50460E-01  3.25903E-01  1.86893E-01  5.77851E-02  4.50461E-01  5.03280E-01  1.86046E-01  4.36690E-01  2.22120E-01  3.22069E-01
   4.54505E-01  1.71496E-01  1.19643E-01  1.80921E-01  1.86345E-01  1.57596E-01  6.54763E-02  8.04275E-02  1.03732E-01 -1.22133E-01
   1.06885E-01 -2.97231E-01 -2.78027E-01  1.49042E-01 -4.37778E-01 -1.61691E-01  2.43819E-01  1.90067E-01  3.60621E-02 -1.69601E-02
   9.80219E-02 -4.88111E-02  1.48062E-01 -1.42745E-01 -3.15407E-02 -1.80697E-02 -5.19491E-01 -2.48976E-01 -3.08956E-02  1.17243E-01
   2.26557E-02 -7.65034E-01 -2.73438E+00 -2.28275E+00 -8.15713E-01 -6.75255E-01 -1.04213E-02 -1.69727E-01  2.34286E-01  1.04568E-01
  -7.66516E-02  2.40831E-01  1.13300E-01  2.14571E-01  1.02931E-01  1.70816E-01  2.86057E-02 -3.07666E-03  1.98462E-02  7.88714E-02
   8.17698E-02  2.51922E-01  1.39538E-01 -1.61451E-01 -5.73432E-03 -1.21139E-01  9.68628E-03  9.85842E-02  1.25183E-01  7.64482E-02
  -1.21513E-01  8.98992E-02  2.23126E-01  8.21141E-02  1.67940E-01  4.11741E-01  1.08313E-01  2.33017E-02  3.12482E-01  1.14315E-01
  -2.44060E-02 -9.15501E-02  1.32911E-01  8.98692E-02 -2.39620E-02  8.23459E-02  1.28502E-01  3.86846E-01  9.43661E-02  1.91077E-01
   1.48850E-01  8.25972E-02  1.37727E-01  9.03825E-02  2.36839E-01  8.22670E-02  1.47460E-01  9.20650E-02  4.88680E-01  1.35477E-01
  -6.23037E-02  1.95390E-01 -2.47906E-01  2.23345E-02 -1.41653E-01 -2.57926E-01  8.70997E-03 -5.57254E-02 -1.89269E-01 -1.95407E-01
  -3.59935E-02 -2.31941E-01 -2.49327E-01 -4.16196E-02 -3.98141E-01 -3.47179E-01 -2.74333E-02 -2.62805E-01 -2.11838E-01 -2.40419E-01
  -2.93098E-01 -3.10704E-01 -1.99123E-01 -6.21989E-02 -6.45231E-02 -1.30564E-01 -4.41374E-01 -2.29859E-01 -1.33610E-01 -8.61702E-02
  -2.38450E-02 -6.63420E-02  1.06963E-01  1.98652E-01  2.07111E-01 -7.82332E-04  8.18773E-02  1.67467E-01 -1.81871E-01 -2.20124E-01
   1.83522E-02 -8.60723E-03  1.73611E-01  1.68113E-01  3.15723E-01  5.39347E-01  2.86339E-01  1.50239E-01 -2.07034E-02  1.61234E-01
   2.02637E-01  3.88527E-01  3.15604E-01 -1.27310E-01  3.14467E-02  1.20549E-01  1.35209E-01  2.91333E-02 -1.71659E-01 -7.37318E-02
   6.24344E-02  1.23004E-01  3.46352E-01  1.85974E-01 -1.65141E-01 -1.78506E-01  1.30518E-01 -3.62818E-01 -2.21743E-01  1.62961E-01
  -5.01194E-01  4.04330E-02 -1.08698E-01 -3.78008E-01 -2.73849E-01 -3.22039E-01 -1.05339E-01 -1.67896E-01 -7.77955E-02 -1.52303E-01
  -2.45015E-02  5.54855E-02  8.17218E-02 -3.62664E-01 -1.47946E-01  2.17407E-01 -5.03199E-02  1.18523E-01  9.80315E-02  2.62438E-01
   2.10436E-01  1.19692E-01  1.82772E-01  1.29098E-01  1.60994E-01  8.33377E-02  1.11069E-01  4.25084E-02 -2.66224E-02  3.72829E-01
   4.01293E-01 -3.81972E-02 -1.60797E-01 -4.01722E-02  1.12686E-01  1.23913E-01  4.47611E-02  1.39494E-01  3.06010E-02 -2.75032E-03
   3.02988E-01 -7.99443E-02 -8.45526E-02  1.43485E-01  4.54368E-02  1.38044E-01  1.11197E-01  1.44677E-01  7.75532E-02 -6.23105E-02
  -1.31106E-01  3.37493E-02  9.91918E-03 -1.05386E-01 -1.28046E-01 -2.12003E-01 -3.13400E-01 -2.13139E-01 -4.25357E-01 -7.74429E-01
  -4.27376E-01 -1.45824E-01 -1.76572E-01 -3.15536E-01 -2.93193E-01 -2.24957E-01 -3.17073E-01 -2.56553E-01  2.27954E-02 -3.40586E-01
  -1.35408E-01  2.88134E-02 -1.82078E-01  1.56741E-01 -2.10332E-01  5.43300E-02  9.16205E-02  1.03421E-02  2.19118E-01 -6.91620E-04
   8.15375E-02  1.57487E-01  1.35720E-01  1.82316E-01  1.01976E-01  8.26910E-02  3.33628E-01  1.49220E-01  1.55451E-01  1.07384E-01
   2.13184E-01  1.43640E-01  4.82806E-02  2.39684E-01  4.77676E-02  9.59197E-02  8.63576E-03  1.39787E-01  4.38566E-02 -1.10672E-01
   5.00901E-02  1.40679E-01  1.71072E-01  8.00891E-02 -3.03594E-02 -1.96143E-01 -1.17089E-01  1.89209E-01  1.06233E-01 -6.55967E-02
   1.30252E-01  1.39602E-01  8.69619E-02  1.13695E-02  7.04132E-02  9.45716E-02  8.54841E-02 -1.95300E-02  3.08323E-02  1.93928E-02
  -8.83286E-02  7.80670E-02 -2.00210E-02  2.49258E-01  3.86918E-01  9.16581E-02 -1.63111E-01 -1.01087E-01 -9.18870E-02 -3.00655E-02
   9.95386E-02  1.06688E-01  1.92564E-01  1.96723E-01  1.22843E-01 -1.89054E-02  1.22942E-01 -1.01341E-01  1.18416E-01  1.06165E-01
  -2.03689E-01  2.12690E-01 -1.03709E-02 -1.37749E-01 -1.42360E-02 -5.02549E-02  4.36206E-02 -1.80943E-01 -3.57774E-02  1.22051E-01
  -1.15729E-01  3.90083E-02  1.91758E-01  1.85427E-01 -8.78215E-02  2.44584E-01  3.42078E-01 -4.93943E-02 -1.32597E-01  5.97443E-02
  -1.22257E-02 -3.39913E-01  3.54373E-01  1.86361E-01  5.17646E-02  1.02120E-01  9.33777E-02  4.72891E-02 -4.66971E-03  3.77537E-01
  -3.52228E-02  2.59702E-01  1.52962E-01 -8.44761E-02  1.14291E-01 -8.00928E-02 -9.29996E-02 -2.00604E-02 -1.35195E-01 -6.61976E-02
   1.71930E-02 -1.81013E-01 -1.07372E-01 -2.19296E-02
 NY points of the fit to the data follow
  -1.48443E-02 -6.44288E-03 -1.24619E-04  9.08586E-04  6.31593E-03  1.42000E-02  1.14289E-02  2.26467E-02  1.91863E-02  2.44203E-02
   1.89788E-01  5.48354E-01  5.51004E-01  2.39380E-01  3.08834E-01  5.94809E-01  4.80215E-01  2.19374E-01  1.54478E-01  5.29354E-02
  -1.40673E-02 -1.75261E-02 -3.06605E-02 -5.02834E-02 -6.85697E-02 -8.19871E-02 -1.01989E-01 -1.19581E-01 -1.28745E-01 -1.41623E-01
  -1.50779E-01 -1.54120E-01 -1.69401E-01 -1.93569E-01 -2.18636E-01 -2.62231E-01 -2.79527E-01 -3.14322E-01 -3.20925E-01 -1.96456E-01
   9.81022E-02  2.08526E-01  2.15907E-01  3.78792E-01  3.48838E-01  3.48020E-01  2.74345E-01  1.39277E-01  1.12483E-01  5.54919E-02
   3.33055E-02  6.87922E-03 -8.82303E-03 -2.48070E-02 -5.93552E-02 -9.26639E-02 -1.32966E-01 -1.47448E-01 -1.46622E-01 -1.37235E-01
  -1.72130E-01 -2.95103E-01 -3.06365E-01 -2.27459E-01 -3.23982E-01 -3.35018E-01  1.17292E-01  1.44313E-01  6.58693E-03  4.10723E-01
   3.77154E-01  2.16112E-01  2.43889E-01  1.37768E-01  8.60066E-02  4.33363E-02 -3.26435E-02 -8.50074E-02 -2.17508E-01 -4.74573E-01
  -5.37394E-01 -2.03019E-01 -5.94069E-02 -6.91179E-02  2.64266E-01  3.87534E-01  3.11628E-01  3.14318E-01  2.61434E-01  2.14810E-01
   1.92471E-01  1.84806E-01  1.67137E-01  1.43861E-01  1.09975E-01  7.12743E-02 -3.46154E-02 -1.83893E-01 -3.85431E-01 -4.72926E-01
  -5.12875E-01 -2.67807E-01 -3.50419E-02  1.29006E-01  2.79182E-01  2.29260E-01  2.49404E-01  2.17364E-01  2.04855E-01  2.06066E-01
   2.06318E-01  2.08006E-01  2.05274E-01  2.00167E-01  2.00153E-01  1.99760E-01  2.01560E-01  2.04380E-01  2.01631E-01  1.94755E-01
   2.08362E-01  1.59907E-01  7.68082E-02  5.22430E-02 -8.92456E-03 -1.17671E-01 -9.85768E-02 -9.18622E-02 -4.79961E-01 -5.19188E-01
  -7.25617E-01 -6.59638E-01 -3.96721E-01 -3.21720E-01 -1.84565E-01 -6.10411E-01 -6.23256E-01 -7.03054E-01 -5.37483E-01 -1.97694E-01
  -1.81580E-01 -3.79069E-02 -1.22142E-02  7.22830E-03  3.26917E-02  6.04718E-02  8.38279E-02  1.03453E-01  1.23690E-01  1.37657E-01
   1.51748E-01  1.69340E-01  1.82536E-01  1.98236E-01  2.17286E-01  2.36326E-01  2.61375E-01  2.87997E-01  3.12545E-01  3.35346E-01
   3.70287E-01  4.32471E-01  5.48021E-01  6.53973E-01  8.33162E-01  1.18463E+00  1.05562E+00 -9.91583E-02 -1.09939E+00 -9.54749E-01
  -7.60240E-01 -6.33246E-01 -4.03444E-01 -3.94557E-01 -3.79803E-01 -4.05910E-01 -3.59105E-01 -3.05996E-01 -3.13074E-01 -3.19834E-01
  -2.92011E-01 -2.51637E-01 -2.49390E-01 -2.35511E-01 -2.26300E-01 -2.32998E-01 -2.21047E-01 -2.04561E-01 -1.94070E-01 -1.90517E-01
  -1.81915E-01 -1.65995E-01 -1.57415E-01 -1.43628E-01 -1.29942E-01 -1.22384E-01 -1.13859E-01 -1.01867E-01 -9.32367E-02 -8.85632E-02
  -8.19958E-02 -7.40509E-02 -6.70519E-02 -6.40782E-02 -6.39486E-02 -6.29255E-02 -6.04165E-02 -5.34984E-02 -5.07831E-02 -5.20292E-02
  -5.04223E-02 -4.46496E-02 -3.71059E-02 -3.30272E-02 -2.69297E-02 -2.00589E-02 -1.53536E-02 -4.24518E-03 -6.64649E-03 -1.92726E-02
  -2.47164E-02 -1.02693E-03  6.37103E-03  9.13620E-03  1.16614E-01  3.37051E-01  3.41546E-01  1.45666E-01  1.01733E-01  2.38906E-01
   4.17412E-01  4.10823E-01  1.97430E-01  8.09226E-02  2.82653E-02 -3.44006E-02 -2.50768E-02 -2.71796E-02 -3.44066E-02 -4.40743E-02
  -5.79627E-02 -6.58939E-02 -7.03215E-02 -6.98318E-02 -7.37797E-02 -7.44286E-02 -7.75690E-02 -6.99111E-02 -7.01400E-02 -6.27660E-02
  -6.50632E-02 -7.59162E-02 -1.00580E-01 -1.20347E-01 -1.50516E-01 -1.86724E-01 -8.85471E-02  1.15739E-01  1.57864E-02 -3.49903E-03
   2.40593E-01  2.17099E-01  1.34529E-01  1.20869E-01  2.18301E-01  2.02218E-01  1.05223E-01  1.61675E-01  1.22581E-01  1.37953E-01
   1.34322E-01  9.42042E-02  7.88374E-02  2.26340E-02  3.61337E-03 -3.52330E-02 -6.52222E-02 -1.09202E-01 -1.54151E-01 -2.24038E-01
  -3.35427E-01 -4.30705E-01 -4.05820E-01 -3.26260E-01 -1.08478E-01  1.99725E-01  3.06923E-01  4.67093E-01  4.91887E-01  3.54772E-01
   3.30405E-01  2.40381E-01  1.78979E-01  1.48309E-01  1.26268E-01  1.26686E-01  2.03507E-01  2.28399E-01  2.61602E-01  3.00025E-01
   2.63522E-01  2.71285E-01  2.51293E-01  2.45514E-01  2.45351E-01  2.35937E-01  2.30502E-01  2.21725E-01  2.00919E-01  1.79396E-01
   1.57544E-01  1.30579E-01  9.80825E-02  9.03012E-02  5.08014E-02  2.12496E-02 -3.40883E-02 -1.09235E-01 -1.40290E-01 -1.85181E-01
  -1.94624E-01 -2.42641E-01 -2.24452E-01 -2.35724E-01 -2.04479E-01 -1.21927E-01 -4.68583E-02  6.28116E-02  1.06165E-01  1.20169E-01
   7.05844E-02  3.01178E-02 -4.62855E-02 -1.10236E-01 -1.06808E-01 -1.84464E-01 -2.14716E-01 -1.87036E-01 -1.73674E-01 -3.27154E-02
  -3.59463E-02 -9.30892E-01 -2.69189E+00 -2.21982E+00 -8.90245E-01 -6.74420E-01 -1.65480E-01  2.16711E-02 -2.52586E-02 -2.62772E-02
  -1.11608E-02  8.67846E-03  2.28088E-02  3.26104E-02  4.22927E-02  5.06294E-02  6.23970E-02  6.59885E-02  7.18819E-02  6.25052E-02
   5.25468E-02  1.25567E-02 -3.07029E-03 -5.19127E-02 -6.50106E-02 -5.30918E-02 -5.91481E-02 -2.03277E-02 -1.34316E-02  8.34354E-03
   2.17253E-02  3.14272E-02  4.58513E-02  5.40416E-02  5.55430E-02  5.95839E-02  6.54640E-02  6.98071E-02  7.82222E-02  8.11699E-02
   8.20043E-02  8.49760E-02  8.96389E-02  9.49766E-02  9.90125E-02  1.00992E-01  1.00383E-01  9.95263E-02  1.03615E-01  1.10154E-01
   1.13768E-01  1.20644E-01  1.22720E-01  1.20057E-01  1.15980E-01  1.12523E-01  1.08997E-01  1.04987E-01  1.01762E-01  9.52836E-02
   8.60716E-02  7.88308E-02  7.08631E-02  5.79824E-02  4.64708E-02  3.98510E-02  3.30596E-02  2.25236E-02  1.42028E-02  7.36030E-03
  -8.41321E-04 -7.69027E-03 -9.25170E-03 -1.47405E-02 -2.08186E-02 -2.36833E-02 -2.99197E-02 -3.54610E-02 -3.80631E-02 -4.05268E-02
  -4.26141E-02 -4.59773E-02 -4.76285E-02 -4.39864E-02 -4.30595E-02 -4.08090E-02 -3.47636E-02 -3.00581E-02 -2.39266E-02 -1.42351E-02
   8.37709E-04 -4.34715E-03  1.65920E-02  7.48858E-02  1.53275E-01  1.40971E-01  1.52499E-01  1.10612E-01  3.34222E-02  5.13970E-02
   4.56151E-02  6.49331E-02  8.44321E-02  1.00456E-01  1.15670E-01  1.31608E-01  1.47460E-01  1.63368E-01  1.72810E-01  1.79361E-01
   1.80776E-01  1.81583E-01  1.82146E-01  1.79668E-01  1.79566E-01  1.74843E-01  1.64252E-01  1.53319E-01  1.31843E-01  1.20113E-01
   1.20382E-01  1.29055E-01  1.19910E-01  1.15936E-01  9.33705E-02  6.49228E-02  5.91814E-02  4.04111E-02  3.26528E-02  2.56487E-02
   1.99848E-02  1.36834E-02  7.90195E-03  2.75334E-03  8.54003E-04  5.72682E-03  9.27054E-03  1.05999E-02  1.61415E-02  2.23120E-02
   2.66875E-02  3.74963E-02  4.76850E-02  5.28466E-02  5.88315E-02  6.26400E-02  6.48481E-02  6.51945E-02  7.00340E-02  7.69316E-02
   8.02927E-02  8.13770E-02  7.95973E-02  7.86045E-02  7.66071E-02  7.37456E-02  6.67504E-02  6.30156E-02  6.13160E-02  5.69937E-02
   5.36979E-02  4.94532E-02  4.65040E-02  4.16728E-02  3.68694E-02  3.29014E-02  2.60485E-02  2.14164E-02  2.28775E-02  2.00581E-02
   1.44356E-02  1.21094E-02  9.23184E-03  2.69701E-03 -8.03679E-03 -1.80730E-02 -2.59145E-02 -3.50163E-02 -4.44543E-02 -5.90656E-02
  -8.28070E-02 -1.06731E-01 -1.28775E-01 -1.48420E-01 -1.70441E-01 -1.92463E-01 -2.10746E-01 -2.26392E-01 -2.41916E-01 -2.59178E-01
  -2.68051E-01 -2.66881E-01 -2.66072E-01 -2.68807E-01 -2.64404E-01 -2.52625E-01 -2.41739E-01 -2.33664E-01 -2.22456E-01 -2.15011E-01
  -2.09817E-01 -1.99307E-01 -1.85134E-01 -1.74866E-01 -1.63173E-01 -1.45778E-01 -1.31376E-01 -1.18234E-01 -1.04789E-01 -8.91724E-02
  -7.97308E-02 -6.86032E-02 -5.11941E-02 -4.04068E-02 -3.49602E-02 -2.63405E-02 -1.54711E-02 -2.84412E-03  2.21405E-03  2.39707E-03
   1.19052E-02  1.92706E-02  2.06305E-02  2.60980E-02  2.87711E-02  2.78861E-02  3.47413E-02  3.77670E-02  3.37569E-02  3.34768E-02
   3.84206E-02  4.19647E-02  4.25755E-02  4.94480E-02  5.38935E-02  5.22343E-02  5.22863E-02  5.38797E-02  5.34952E-02  5.16093E-02
   5.31007E-02  5.34505E-02  5.11651E-02  5.12828E-02  5.07263E-02  5.09549E-02  5.28685E-02  5.38168E-02  5.81239E-02  5.71213E-02
   4.59918E-02  4.19124E-02  4.87238E-02  5.01408E-02  4.65990E-02  4.69147E-02  4.74994E-02  4.74265E-02  4.12276E-02  3.86328E-02
   4.18849E-02  4.63223E-02  4.72610E-02  4.53523E-02  4.73605E-02  4.78133E-02  4.99118E-02  5.16309E-02  5.12558E-02  5.29415E-02
   5.63149E-02  5.40634E-02  4.83741E-02  4.68433E-02  4.85553E-02  4.86066E-02  4.96045E-02  5.33602E-02  5.39839E-02  5.26229E-02
   4.97956E-02  5.39946E-02  6.11939E-02  6.23020E-02  6.50833E-02  6.16763E-02  5.38556E-02  5.45309E-02  5.56120E-02  5.84593E-02
   6.04562E-02  5.68168E-02  5.46725E-02  5.47994E-02  5.44264E-02  5.59526E-02  5.59152E-02  5.05320E-02  5.34005E-02  5.83078E-02
   5.70947E-02  5.51307E-02  5.60075E-02  5.66842E-02  5.59427E-02  5.72431E-02  5.62127E-02  6.19840E-02  6.91626E-02  6.99809E-02
   7.19229E-02  7.19570E-02  7.28697E-02  7.25979E-02
 NY background values follow
    -1.406E-02   -1.330E-02   -1.254E-02   -1.179E-02   -1.103E-02   -1.027E-02   -9.516E-03   -8.759E-03   -8.003E-03   -7.248E-03
    -6.493E-03   -5.739E-03   -4.986E-03   -4.233E-03   -3.482E-03   -2.731E-03   -1.982E-03   -1.234E-03   -4.873E-04    2.581E-04
     1.002E-03    1.744E-03    2.485E-03    3.224E-03    3.961E-03    4.696E-03    5.430E-03    6.161E-03    6.890E-03    7.616E-03
     8.341E-03    9.063E-03    9.782E-03    1.050E-02    1.121E-02    1.192E-02    1.263E-02    1.334E-02    1.404E-02    1.474E-02
     1.544E-02    1.613E-02    1.682E-02    1.750E-02    1.819E-02    1.886E-02    1.954E-02    2.021E-02    2.088E-02    2.154E-02
     2.220E-02    2.285E-02    2.350E-02    2.415E-02    2.479E-02    2.543E-02    2.606E-02    2.669E-02    2.731E-02    2.792E-02
     2.853E-02    2.914E-02    2.974E-02    3.034E-02    3.093E-02    3.151E-02    3.209E-02    3.266E-02    3.323E-02    3.379E-02
