 
 $NMID
 ID=''
 FMTDAT='(2E13.5)'
 TRAMP=   1.00000E+0
 VOLUME=   1.00000E+0
 $END
  -5.54379E+3   1.85468E+4
  -2.75999E+4   4.16265E+4
  -2.02993E+4   4.54180E+4
  -1.89886E+4   4.16399E+4
  -2.13054E+4   4.25430E+4
  -1.96506E+4   4.32176E+4
  -1.97435E+4   4.10942E+4
  -2.12289E+4   4.10943E+4
  -2.03508E+4   4.12982E+4
  -2.04388E+4   3.98241E+4
  -2.13970E+4   3.96502E+4
  -2.06839E+4   3.96823E+4
  -2.06988E+4   3.86990E+4
  -2.16143E+4   3.84345E+4
  -2.11494E+4   3.83290E+4
  -2.11325E+4   3.74305E+4
  -2.16638E+4   3.71348E+4
  -2.13012E+4   3.70149E+4
  -2.11942E+4   3.63571E+4
  -2.16874E+4   3.61000E+4
  -2.14130E+4   3.57924E+4
  -2.11887E+4   3.52552E+4
  -2.16596E+4   3.49492E+4
  -2.14779E+4   3.47106E+4
  -2.13451E+4   3.40284E+4
  -2.15070E+4   3.37980E+4
  -2.14874E+4   3.36451E+4
  -2.14449E+4   3.29838E+4
  -2.17361E+4   3.26204E+4
  -2.16253E+4   3.23294E+4
  -2.15185E+4   3.19130E+4
  -2.16388E+4   3.17560E+4
  -2.17594E+4   3.14668E+4
  -2.17030E+4   3.10107E+4
  -2.17855E+4   3.07266E+4
  -2.18072E+4   3.05259E+4
  -2.18413E+4   3.00615E+4
  -2.17347E+4   2.97757E+4
  -2.18357E+4   2.95020E+4
  -2.17842E+4   2.91320E+4
  -2.18533E+4   2.88618E+4
  -2.19246E+4   2.84871E+4
  -2.19087E+4   2.79594E+4
  -2.18800E+4   2.75622E+4
  -2.18344E+4   2.72342E+4
  -2.17576E+4   2.68538E+4
  -2.18410E+4   2.65215E+4
  -2.17232E+4   2.61839E+4
  -2.17366E+4   2.58310E+4
  -2.16869E+4   2.55350E+4
  -2.16559E+4   2.52072E+4
  -2.16349E+4   2.48528E+4
  -2.15509E+4   2.44961E+4
  -2.14760E+4   2.42155E+4
  -2.15385E+4   2.39743E+4
  -2.14271E+4   2.36614E+4
  -2.15676E+4   2.32553E+4
  -2.14953E+4   2.29547E+4
  -2.14991E+4   2.25759E+4
  -2.14410E+4   2.22432E+4
  -2.13833E+4   2.18916E+4
  -2.13050E+4   2.15408E+4
  -2.12835E+4   2.12692E+4
  -2.13113E+4   2.09187E+4
  -2.12699E+4   2.05083E+4
  -2.12156E+4   2.02178E+4
  -2.10819E+4   1.99044E+4
  -2.11340E+4   1.95433E+4
  -2.10612E+4   1.91703E+4
  -2.10824E+4   1.88588E+4
  -2.09219E+4   1.85885E+4
  -2.08961E+4   1.82460E+4
  -2.07952E+4   1.79051E+4
  -2.06918E+4   1.76000E+4
  -2.05597E+4   1.73478E+4
  -2.05248E+4   1.69899E+4
  -2.04051E+4   1.68170E+4
  -2.03832E+4   1.63998E+4
  -2.01907E+4   1.61315E+4
  -2.01053E+4   1.58679E+4
  -2.01122E+4   1.56264E+4
  -2.00456E+4   1.52531E+4
  -1.98830E+4   1.50986E+4
  -1.97671E+4   1.47569E+4
  -1.98017E+4   1.44877E+4
  -1.96545E+4   1.41477E+4
  -1.95246E+4   1.38286E+4
  -1.93549E+4   1.35982E+4
  -1.92375E+4   1.32939E+4
  -1.91366E+4   1.31015E+4
  -1.90556E+4   1.28041E+4
  -1.89341E+4   1.25133E+4
  -1.87667E+4   1.23082E+4
  -1.87199E+4   1.20248E+4
  -1.85515E+4   1.17964E+4
  -1.84773E+4   1.15520E+4
  -1.82057E+4   1.12859E+4
  -1.81519E+4   1.10496E+4
  -1.80921E+4   1.08422E+4
  -1.79083E+4   1.05657E+4
  -1.77542E+4   1.03083E+4
  -1.75907E+4   1.01267E+4
  -1.74936E+4   9.94846E+3
  -1.74646E+4   9.75014E+3
  -1.72666E+4   9.46319E+3
  -1.71332E+4   9.26671E+3
  -1.70769E+4   9.00629E+3
  -1.69355E+4   8.77254E+3
  -1.67844E+4   8.58602E+3
  -1.66133E+4   8.37727E+3
  -1.64444E+4   8.17816E+3
  -1.63497E+4   8.02492E+3
  -1.62046E+4   7.79184E+3
  -1.60993E+4   7.55663E+3
  -1.60110E+4   7.35724E+3
  -1.58398E+4   7.13485E+3
  -1.56600E+4   6.99380E+3
  -1.55220E+4   6.69256E+3
  -1.54226E+4   6.63826E+3
  -1.52506E+4   6.35679E+3
  -1.50963E+4   6.22697E+3
  -1.49736E+4   6.03957E+3
  -1.48771E+4   5.84800E+3
  -1.46574E+4   5.65930E+3
  -1.45310E+4   5.55070E+3
  -1.43383E+4   5.29934E+3
  -1.41437E+4   5.16576E+3
  -1.40466E+4   4.95001E+3
  -1.38540E+4   4.88164E+3
  -1.37791E+4   4.64970E+3
  -1.36673E+4   4.46100E+3
  -1.34217E+4   4.39212E+3
  -1.32594E+4   4.22488E+3
  -1.31437E+4   4.10459E+3
  -1.30355E+4   3.97074E+3
  -1.28419E+4   3.77791E+3
  -1.26907E+4   3.70698E+3
  -1.25300E+4   3.53672E+3
  -1.23390E+4   3.40414E+3
  -1.22066E+4   3.30295E+3
  -1.20336E+4   3.14670E+3
  -1.18737E+4   3.05421E+3
  -1.17452E+4   2.90150E+3
  -1.16093E+4   2.87359E+3
  -1.15119E+4   2.68863E+3
  -1.13111E+4   2.56808E+3
  -1.11186E+4   2.48823E+3
  -1.09441E+4   2.43559E+3
  -1.08113E+4   2.27269E+3
  -1.07305E+4   2.14822E+3
  -1.05704E+4   2.05728E+3
  -1.03943E+4   1.92414E+3
  -1.02388E+4   1.81548E+3
  -1.00490E+4   1.81187E+3
  -9.92498E+3   1.64118E+3
  -9.85597E+3   1.53236E+3
  -9.70056E+3   1.46141E+3
  -9.48107E+3   1.34917E+3
  -9.37744E+3   1.24181E+3
  -9.24014E+3   1.16936E+3
  -9.12861E+3   1.08800E+3
  -8.93697E+3   1.01912E+3
  -8.77058E+3   9.34212E+2
  -8.63545E+3   8.35785E+2
  -8.45958E+3   7.21222E+2
  -8.36613E+3   6.35491E+2
  -8.21109E+3   5.88197E+2
  -8.07214E+3   5.36065E+2
  -7.91827E+3   4.41256E+2
  -7.77976E+3   4.11410E+2
  -7.59972E+3   2.73713E+2
  -7.51105E+3   2.68140E+2
  -7.37472E+3   1.23238E+2
  -7.22214E+3   1.80794E+2
  -7.08542E+3   1.30865E+2
  -6.87539E+3   1.16184E+1
  -6.78593E+3   2.15060E+1
  -6.63202E+3  -7.47855E-1
  -6.46908E+3  -1.05088E+2
  -6.39746E+3  -1.76981E+2
  -6.19792E+3  -2.35511E+2
  -6.06809E+3  -2.11840E+2
  -5.93615E+3  -2.24362E+2
  -5.84612E+3  -3.45311E+2
  -5.67013E+3  -3.58147E+2
  -5.52615E+3  -3.43379E+2
  -5.43885E+3  -3.98320E+2
  -5.28308E+3  -4.56308E+2
  -5.17877E+3  -4.18215E+2
  -5.00044E+3  -4.71210E+2
  -4.88821E+3  -4.74072E+2
  -4.78832E+3  -4.87602E+2
  -4.66169E+3  -4.92406E+2
  -4.55165E+3  -5.62660E+2
  -4.49438E+3  -5.73299E+2
  -4.39498E+3  -5.83424E+2
  -4.24756E+3  -5.95142E+2
  -4.03869E+3  -5.21517E+2
  -4.00851E+3  -6.22275E+2
  -3.93561E+3  -5.70934E+2
  -3.80370E+3  -6.32351E+2
  -3.73676E+3  -5.94865E+2
  -3.66877E+3  -6.55030E+2
  -3.60672E+3  -6.27338E+2
  -3.38988E+3  -6.55191E+2
  -3.28701E+3  -6.99981E+2
  -3.19291E+3  -6.98923E+2
  -3.20963E+3  -6.38976E+2
  -3.10560E+3  -7.09577E+2
  -3.02170E+3  -6.71778E+2
  -2.88413E+3  -6.76567E+2
  -2.88524E+3  -7.45966E+2
  -2.85338E+3  -6.66625E+2
  -2.78597E+3  -6.46719E+2
  -2.58874E+3  -6.80936E+2
  -2.54176E+3  -7.06674E+2
  -2.39481E+3  -7.35397E+2
  -2.37946E+3  -7.22128E+2
  -2.27883E+3  -6.96339E+2
  -2.27777E+3  -7.69041E+2
  -2.18744E+3  -6.95336E+2
  -2.11224E+3  -6.79258E+2
  -2.09122E+3  -6.99787E+2
  -1.94200E+3  -7.12310E+2
  -1.86073E+3  -6.63804E+2
  -1.88419E+3  -6.83728E+2
  -1.73961E+3  -6.73921E+2
  -1.71924E+3  -6.81549E+2
  -1.65198E+3  -6.65072E+2
  -1.56176E+3  -7.32584E+2
  -1.48373E+3  -6.52651E+2
  -1.47590E+3  -5.86455E+2
  -1.37023E+3  -6.25732E+2
  -1.31120E+3  -6.52284E+2
  -1.26855E+3  -6.10717E+2
  -1.17604E+3  -5.85546E+2
  -1.16503E+3  -5.44547E+2
  -1.11207E+3  -5.53196E+2
  -9.97985E+2  -5.40339E+2
  -1.02810E+3  -6.07124E+2
  -1.01149E+3  -5.20732E+2
  -9.83686E+2  -4.93526E+2
  -9.20793E+2  -4.61709E+2
  -8.08766E+2  -5.03123E+2
  -7.88166E+2  -4.26161E+2
  -7.97683E+2  -4.60959E+2
  -7.04895E+2  -4.19705E+2
  -6.64701E+2  -3.10818E+2
  -6.05295E+2  -3.70599E+2
  -6.34315E+2  -2.88854E+2
  -5.67943E+2  -2.85584E+2
  -5.14312E+2  -3.17546E+2
  -5.86171E+2  -3.11103E+2
  -4.11113E+2  -3.38473E+2
  -4.14561E+2  -1.89465E+2
  -3.85670E+2  -1.38924E+2
  -3.88865E+2  -1.84603E+2
  -3.44362E+2  -1.71215E+2
  -3.49966E+2  -1.89657E+2
  -2.83663E+2  -1.66205E+2
  -2.95245E+2  -1.66095E+2
  -2.32587E+2  -1.62241E+2
  -2.48743E+2  -1.39017E+2
  -1.61232E+2  -6.64877E+1
  -1.18956E+2  -9.75291E+1
  -1.05466E+2  -1.14191E+2
  -5.67198E+1  -1.05772E+2
  -1.21894E+2  -9.04005E+1
  -2.11487E+1  -8.42934E+1
  -6.57055E+1  -1.78003E+1
   8.37062E+1  -4.45080E+1
   5.04617E+1  -7.10362E+0
   1.44454E+2   6.73545E+0
   8.53395E+1  -1.56933E+1
   5.96407E+1   2.71697E+1
   8.91686E+1   8.61957E+1
   1.87369E+2   8.24929E+1
   1.26762E+2   6.28086E+1
   1.68280E+2   9.20711E+1
   2.40600E+2   9.74204E+1
   1.95207E+2   1.22307E+1
   2.40537E+2   7.25585E+1
   2.89774E+2   1.00056E+2
   2.46532E+2   1.04960E+2
   2.51312E+2   1.04559E+2
   2.59013E+2   1.97996E+2
   3.57675E+2   1.21068E+2
   3.29648E+2   1.97749E+2
   3.93100E+2   2.01640E+2
   3.22391E+2   2.22217E+2
   3.71421E+2   1.63973E+2
   4.48739E+2   2.10763E+2
   4.25192E+2   1.86620E+2
   4.56353E+2   2.66202E+2
   5.04674E+2   2.28137E+2
   4.31176E+2   2.82699E+2
   5.21336E+2   2.13159E+2
   5.19577E+2   2.48897E+2
   4.67801E+2   3.11419E+2
   4.96016E+2   3.34760E+2
   5.73202E+2   3.56890E+2
   5.57457E+2   3.36349E+2
   4.89708E+2   3.68394E+2
   5.36784E+2   3.65726E+2
   5.78516E+2   3.60735E+2
   6.03730E+2   3.53759E+2
   5.65870E+2   3.03264E+2
   6.00442E+2   3.62658E+2
   6.14775E+2   3.32634E+2
   5.89609E+2   3.78897E+2
   6.27442E+2   3.78527E+2
   6.55476E+2   3.54134E+2
   7.24756E+2   4.13637E+2
   6.52333E+2   3.45433E+2
   6.53395E+2   3.31127E+2
   6.62748E+2   4.07037E+2
   6.86463E+2   3.90678E+2
   7.10389E+2   3.78455E+2
   6.61725E+2   4.60765E+2
   6.93831E+2   3.64799E+2
   6.91551E+2   4.14037E+2
   6.87779E+2   3.77629E+2
   8.08777E+2   4.00559E+2
   7.63362E+2   4.03302E+2
   7.93265E+2   4.09900E+2
   7.64359E+2   4.10067E+2
   7.91506E+2   4.27923E+2
   8.03691E+2   3.76700E+2
   7.63838E+2   4.18519E+2
   8.31552E+2   5.10934E+2
   7.99072E+2   3.72467E+2
   8.17434E+2   4.33135E+2
   8.01035E+2   4.24316E+2
   8.11544E+2   4.17100E+2
   8.32708E+2   3.74099E+2
   8.06309E+2   4.47129E+2
   7.53847E+2   4.79569E+2
   8.98855E+2   4.54309E+2
   8.76106E+2   4.05044E+2
   8.20179E+2   4.76713E+2
   8.30744E+2   3.88629E+2
   8.40761E+2   4.05732E+2
   8.34270E+2   4.40199E+2
   9.14278E+2   5.26607E+2
   8.80397E+2   4.03686E+2
   8.44497E+2   4.32912E+2
   8.89736E+2   4.85705E+2
   8.02381E+2   4.41271E+2
   8.49817E+2   4.73117E+2
   8.68731E+2   4.33358E+2
   8.20309E+2   3.53591E+2
   8.92157E+2   4.36841E+2
   8.75260E+2   4.58994E+2
   8.10717E+2   4.22118E+2
   8.38125E+2   4.47606E+2
   8.72195E+2   4.45537E+2
   8.22365E+2   5.07123E+2
   8.72463E+2   4.48302E+2
   8.27332E+2   4.58399E+2
   8.21425E+2   4.84796E+2
   8.66903E+2   4.44257E+2
   8.54355E+2   4.72739E+2
   8.11469E+2   4.86958E+2
   7.76179E+2   4.54791E+2
   7.50445E+2   4.23845E+2
   8.18890E+2   4.36909E+2
   7.88800E+2   4.23424E+2
