 
 $NMID
 ID=''
 FMTDAT='(2E13.5)'
 TRAMP=   1.00000E+0
 VOLUME=   1.00000E+0
 $END
  -1.11622E+3   1.80690E+4
  -1.49090E+4   4.39470E+4
  -5.72778E+3   4.62540E+4
  -3.60694E+3   4.26744E+4
  -3.83198E+3   4.41525E+4
  -3.51575E+2   4.45292E+4
   8.91706E+2   4.25826E+4
   1.20602E+3   4.28876E+4
   3.69867E+3   4.28365E+4
   4.87686E+3   4.13921E+4
   5.46809E+3   4.12368E+4
   7.55794E+3   4.07116E+4
   8.82931E+3   3.95633E+4
   9.40839E+3   3.93036E+4
   1.11188E+4   3.87481E+4
   1.22807E+4   3.73782E+4
   1.30451E+4   3.69562E+4
   1.44274E+4   3.62217E+4
   1.56230E+4   3.50596E+4
   1.63823E+4   3.43919E+4
   1.77174E+4   3.36148E+4
   1.89674E+4   3.24272E+4
   1.98139E+4   3.17317E+4
   2.09685E+4   3.09105E+4
   2.19814E+4   2.97137E+4
   2.28180E+4   2.88433E+4
   2.37475E+4   2.80517E+4
   2.46550E+4   2.69548E+4
   2.52056E+4   2.60213E+4
   2.60758E+4   2.51326E+4
   2.69539E+4   2.38362E+4
   2.75777E+4   2.27475E+4
   2.82959E+4   2.17669E+4
   2.88863E+4   2.05126E+4
   2.95171E+4   1.93495E+4
   3.01406E+4   1.81560E+4
   3.06541E+4   1.68221E+4
   3.11689E+4   1.56113E+4
   3.17345E+4   1.43843E+4
   3.22777E+4   1.29785E+4
   3.26663E+4   1.18126E+4
   3.30642E+4   1.07763E+4
   3.33050E+4   9.52518E+3
   3.35156E+4   8.39683E+3
   3.37295E+4   7.13367E+3
   3.39560E+4   5.91010E+3
   3.40916E+4   4.79748E+3
   3.42215E+4   3.71628E+3
   3.42612E+4   2.53774E+3
   3.42911E+4   1.43351E+3
   3.41924E+4   4.14674E+2
   3.41851E+4  -6.58723E+2
   3.40343E+4  -1.76980E+3
   3.38472E+4  -2.89856E+3
   3.37352E+4  -3.99511E+3
   3.34283E+4  -4.90865E+3
   3.31939E+4  -5.85930E+3
   3.28459E+4  -6.80931E+3
   3.24011E+4  -7.73518E+3
   3.18643E+4  -8.62572E+3
   3.14222E+4  -9.52952E+3
   3.08664E+4  -1.03657E+4
   3.03599E+4  -1.11921E+4
   2.98209E+4  -1.20381E+4
   2.92329E+4  -1.28868E+4
   2.85785E+4  -1.36971E+4
   2.78458E+4  -1.45001E+4
   2.72000E+4  -1.53221E+4
   2.65346E+4  -1.60167E+4
   2.57523E+4  -1.67538E+4
   2.49774E+4  -1.75589E+4
   2.41857E+4  -1.81756E+4
   2.34016E+4  -1.88641E+4
   2.26279E+4  -1.95598E+4
   2.16958E+4  -2.02119E+4
   2.08890E+4  -2.08134E+4
   1.99413E+4  -2.14413E+4
   1.91611E+4  -2.19691E+4
   1.82440E+4  -2.24967E+4
   1.73436E+4  -2.30313E+4
   1.65402E+4  -2.34870E+4
   1.55368E+4  -2.40207E+4
   1.46223E+4  -2.43672E+4
   1.37677E+4  -2.48441E+4
   1.29209E+4  -2.52147E+4
   1.20949E+4  -2.55465E+4
   1.12130E+4  -2.58287E+4
   1.02834E+4  -2.61579E+4
   9.41087E+3  -2.63818E+4
   8.45260E+3  -2.67317E+4
   7.62798E+3  -2.68852E+4
   6.85030E+3  -2.70297E+4
   5.91412E+3  -2.73002E+4
   5.10990E+3  -2.73656E+4
   4.27583E+3  -2.74389E+4
   3.41800E+3  -2.74946E+4
   2.52968E+3  -2.75343E+4
   1.74146E+3  -2.75368E+4
   9.57782E+2  -2.75710E+4
   2.13182E+2  -2.74402E+4
  -5.32267E+2  -2.73119E+4
  -1.30673E+3  -2.72108E+4
  -2.11796E+3  -2.70105E+4
  -2.72013E+3  -2.70232E+4
  -3.48351E+3  -2.67045E+4
  -4.20487E+3  -2.64340E+4
  -4.88706E+3  -2.61599E+4
  -5.48876E+3  -2.59297E+4
  -6.18439E+3  -2.55701E+4
  -6.83077E+3  -2.52685E+4
  -7.44418E+3  -2.48691E+4
  -8.13587E+3  -2.45726E+4
  -8.75352E+3  -2.41692E+4
  -9.28252E+3  -2.37812E+4
  -9.83681E+3  -2.34383E+4
  -1.03779E+4  -2.30449E+4
  -1.08196E+4  -2.25454E+4
  -1.13654E+4  -2.20560E+4
  -1.18208E+4  -2.16022E+4
  -1.23240E+4  -2.10961E+4
  -1.27399E+4  -2.06933E+4
  -1.31436E+4  -2.01128E+4
  -1.35450E+4  -1.95884E+4
  -1.39304E+4  -1.90688E+4
  -1.42013E+4  -1.85686E+4
  -1.45190E+4  -1.79496E+4
  -1.48405E+4  -1.74484E+4
  -1.50820E+4  -1.68061E+4
  -1.53352E+4  -1.62669E+4
  -1.55497E+4  -1.56917E+4
  -1.57750E+4  -1.51367E+4
  -1.58860E+4  -1.44947E+4
  -1.60478E+4  -1.39266E+4
  -1.62656E+4  -1.32660E+4
  -1.63700E+4  -1.27244E+4
  -1.64530E+4  -1.21280E+4
  -1.64767E+4  -1.15438E+4
  -1.65455E+4  -1.09273E+4
  -1.65501E+4  -1.02365E+4
  -1.65550E+4  -9.56972E+3
  -1.65375E+4  -9.09937E+3
  -1.64963E+4  -8.44290E+3
  -1.64599E+4  -7.90164E+3
  -1.64521E+4  -7.21915E+3
  -1.62409E+4  -6.70362E+3
  -1.62192E+4  -5.98847E+3
  -1.61407E+4  -5.41066E+3
  -1.59458E+4  -4.88973E+3
  -1.58368E+4  -4.24623E+3
  -1.56873E+4  -3.63886E+3
  -1.55418E+4  -3.10725E+3
  -1.53411E+4  -2.60770E+3
  -1.50439E+4  -2.08161E+3
  -1.48743E+4  -1.44219E+3
  -1.45893E+4  -9.72683E+2
  -1.44817E+4  -4.30771E+2
  -1.41948E+4   1.97767E+1
  -1.39006E+4   4.95361E+2
  -1.36519E+4   9.65161E+2
  -1.33835E+4   1.37011E+3
  -1.30574E+4   1.83013E+3
  -1.27359E+4   2.24924E+3
  -1.25060E+4   2.66767E+3
  -1.21364E+4   3.06416E+3
  -1.18168E+4   3.47408E+3
  -1.14934E+4   3.79285E+3
  -1.10950E+4   4.23438E+3
  -1.07682E+4   4.52610E+3
  -1.04538E+4   4.90687E+3
  -1.00806E+4   5.19818E+3
  -9.72345E+3   5.50780E+3
  -9.33329E+3   5.81193E+3
  -8.97889E+3   6.04832E+3
  -8.57728E+3   6.29414E+3
  -8.15845E+3   6.54674E+3
  -7.79121E+3   6.78856E+3
  -7.36389E+3   7.00203E+3
  -6.95841E+3   7.14937E+3
  -6.60529E+3   7.42704E+3
  -6.24572E+3   7.56468E+3
  -5.86751E+3   7.67552E+3
  -5.46352E+3   7.79771E+3
  -5.06327E+3   7.92403E+3
  -4.64586E+3   8.03845E+3
  -4.31094E+3   8.15802E+3
  -3.86767E+3   8.21439E+3
  -3.45819E+3   8.35720E+3
  -3.11940E+3   8.40419E+3
  -2.68670E+3   8.34939E+3
  -2.32218E+3   8.47055E+3
  -1.92121E+3   8.50515E+3
  -1.56301E+3   8.48432E+3
  -1.17245E+3   8.49931E+3
  -8.73247E+2   8.43852E+3
  -4.74621E+2   8.47901E+3
  -1.36165E+2   8.33710E+3
   2.29119E+2   8.31582E+3
   5.85768E+2   8.23545E+3
   8.83332E+2   8.27213E+3
   1.26667E+3   8.18306E+3
   1.51656E+3   8.00767E+3
   1.83768E+3   7.91776E+3
   2.18410E+3   7.74093E+3
   2.41635E+3   7.63870E+3
   2.70876E+3   7.50799E+3
   2.99190E+3   7.40479E+3
   3.28837E+3   7.24961E+3
   3.54838E+3   7.06115E+3
   3.78036E+3   6.90521E+3
   4.12266E+3   6.80743E+3
   4.25469E+3   6.63460E+3
   4.47318E+3   6.34133E+3
   4.71103E+3   6.17520E+3
   4.84667E+3   6.02265E+3
   5.11150E+3   5.76141E+3
   5.26523E+3   5.58263E+3
   5.41155E+3   5.36316E+3
   5.63554E+3   5.16009E+3
   5.78430E+3   4.92804E+3
   5.87896E+3   4.70050E+3
   6.05171E+3   4.47540E+3
   6.22228E+3   4.22947E+3
   6.26271E+3   3.97730E+3
   6.40481E+3   3.70406E+3
   6.42287E+3   3.52084E+3
   6.57506E+3   3.28486E+3
   6.75527E+3   2.99738E+3
   6.78671E+3   2.80303E+3
   6.73440E+3   2.58874E+3
   6.82819E+3   2.26316E+3
   6.84603E+3   2.04564E+3
   6.92032E+3   1.80806E+3
   6.95266E+3   1.66219E+3
   6.95829E+3   1.35527E+3
   6.93246E+3   1.05144E+3
   6.99566E+3   8.05431E+2
   6.95162E+3   6.34290E+2
   6.96088E+3   3.98414E+2
   6.89521E+3   1.57563E+2
   6.85300E+3  -7.45635E+1
   6.74434E+3  -2.87662E+2
   6.73621E+3  -4.94548E+2
   6.69131E+3  -6.94780E+2
   6.64294E+3  -9.57373E+2
   6.51179E+3  -1.08934E+3
   6.45471E+3  -1.23385E+3
   6.39499E+3  -1.49795E+3
   6.27047E+3  -1.67511E+3
   6.14364E+3  -1.90988E+3
   6.04782E+3  -2.02055E+3
   5.97786E+3  -2.16664E+3
   5.89651E+3  -2.37658E+3
   5.73008E+3  -2.55420E+3
   5.59313E+3  -2.75943E+3
   5.46509E+3  -2.90153E+3
   5.32378E+3  -3.00204E+3
   5.23152E+3  -3.19825E+3
   5.07934E+3  -3.32164E+3
   4.91783E+3  -3.43745E+3
   4.71948E+3  -3.60264E+3
   4.64376E+3  -3.64320E+3
   4.46110E+3  -3.76867E+3
   4.27779E+3  -3.94814E+3
   4.13861E+3  -4.00031E+3
   4.02937E+3  -4.11142E+3
   3.83027E+3  -4.16769E+3
   3.67419E+3  -4.30066E+3
   3.55012E+3  -4.30756E+3
   3.32740E+3  -4.42613E+3
   3.21627E+3  -4.50037E+3
   3.01266E+3  -4.55875E+3
   2.78086E+3  -4.63183E+3
   2.74383E+3  -4.71692E+3
   2.51129E+3  -4.68618E+3
   2.34787E+3  -4.70051E+3
   2.18986E+3  -4.80049E+3
   2.02084E+3  -4.79332E+3
   1.79946E+3  -4.85767E+3
   1.69959E+3  -4.91588E+3
   1.58088E+3  -4.87272E+3
   1.38140E+3  -4.87316E+3
   1.25522E+3  -4.87854E+3
   1.10691E+3  -4.84267E+3
   9.69948E+2  -4.91440E+3
   7.86537E+2  -4.88191E+3
   6.44523E+2  -4.83453E+3
   4.98684E+2  -4.85555E+3
   3.76913E+2  -4.80603E+3
   2.16248E+2  -4.73696E+3
   8.06660E+1  -4.74961E+3
  -6.44361E+1  -4.76319E+3
  -1.88017E+2  -4.70634E+3
  -3.49359E+2  -4.63276E+3
  -4.50429E+2  -4.52315E+3
  -5.38783E+2  -4.55303E+3
  -6.55803E+2  -4.50676E+3
  -7.95390E+2  -4.38391E+3
  -9.43886E+2  -4.36332E+3
  -1.03770E+3  -4.30368E+3
  -1.13813E+3  -4.28722E+3
  -1.24407E+3  -4.24179E+3
  -1.35616E+3  -4.17144E+3
  -1.43733E+3  -4.17071E+3
  -1.51343E+3  -4.04258E+3
  -1.64851E+3  -4.02019E+3
  -1.65994E+3  -3.93989E+3
  -1.76347E+3  -3.85277E+3
  -1.84117E+3  -3.77184E+3
  -1.96037E+3  -3.68050E+3
  -1.99574E+3  -3.61292E+3
  -2.04971E+3  -3.53092E+3
  -2.18372E+3  -3.48269E+3
  -2.28042E+3  -3.37489E+3
  -2.29378E+3  -3.21016E+3
  -2.30662E+3  -3.18558E+3
  -2.39634E+3  -3.09198E+3
  -2.40597E+3  -3.00305E+3
  -2.43421E+3  -2.90684E+3
  -2.49734E+3  -2.84837E+3
  -2.55340E+3  -2.67157E+3
  -2.59380E+3  -2.69479E+3
  -2.65769E+3  -2.54577E+3
  -2.58833E+3  -2.48042E+3
  -2.65337E+3  -2.35902E+3
  -2.74040E+3  -2.33954E+3
  -2.72334E+3  -2.18630E+3
  -2.68570E+3  -2.15147E+3
  -2.73866E+3  -2.04872E+3
  -2.77089E+3  -1.99108E+3
  -2.78110E+3  -1.89182E+3
  -2.78903E+3  -1.78434E+3
  -2.77511E+3  -1.70499E+3
  -2.76836E+3  -1.63290E+3
  -2.77427E+3  -1.60280E+3
  -2.82392E+3  -1.48001E+3
  -2.65952E+3  -1.44477E+3
  -2.79547E+3  -1.30707E+3
  -2.70874E+3  -1.17535E+3
  -2.78265E+3  -1.14314E+3
  -2.63682E+3  -1.14265E+3
  -2.72558E+3  -1.06899E+3
  -2.70825E+3  -9.64156E+2
  -2.64871E+3  -8.67864E+2
  -2.62391E+3  -8.27235E+2
  -2.63491E+3  -7.13043E+2
  -2.63323E+3  -6.87786E+2
  -2.55291E+3  -5.74225E+2
  -2.56785E+3  -5.53042E+2
  -2.57092E+3  -5.42272E+2
  -2.54409E+3  -5.29025E+2
  -2.50710E+3  -4.68411E+2
  -2.38192E+3  -4.27846E+2
  -2.39856E+3  -2.83155E+2
  -2.29929E+3  -2.37535E+2
  -2.29666E+3  -2.15776E+2
  -2.20052E+3  -1.61162E+2
  -2.23333E+3  -8.18224E+1
  -2.20285E+3  -1.28153E+2
  -2.16282E+3  -7.59503E+1
  -2.09176E+3  -2.90394E+1
  -2.05263E+3  -1.93598E+1
  -1.97541E+3   6.48342E+1
  -1.97530E+3   4.25012E+1
  -1.88199E+3   1.95004E+2
  -1.90473E+3   1.29716E+2
  -1.86367E+3   1.44710E+2
  -1.84270E+3   2.22810E+2
