 LCModel (Version 6.3-1N) Copyright: S.W. Provencher.          Ref.: Magn. Reson. Med. 30:672-679 (1993).                
 Slice_N1@13_17  02-Jun-2023 14:37:10
 27 lines in following concentration table = NCONC+1
    Conc.  %SD /Cr+PCr  Metabolite                                         
 1.01E-06  40% 1.5E-04 Mac                                                 
 5.46E-02  12%   8.000 Cr                                                  
    0.000 999%   0.000 PCr                                                 
    0.100  10%  14.667 Ins                                                 
 5.97E-02  12%   8.748 NAA                                                 
 6.82E-02  13%   9.986 Tau                                                 
 2.58E-02  11%   3.786 PCho                                                
    0.000 999%   0.000 GPC                                                 
 9.00E-02  13%  13.189 Glu                                                 
 9.94E-03  73%   1.456 Gln                                                 
    0.000 999%   0.000 Ala                                                 
 2.21E-02  69%   3.231 Asc                                                 
 5.82E-03  97%   0.853 Asp                                                 
 9.42E-03  34%   1.380 GABA                                                
 3.98E-03  89%   0.582 Glc                                                 
 3.34E-03 103%   0.489 GSH                                                 
 3.18E-02  30%   4.656 Lac                                                 
    0.000 999%   0.000 NAAG                                                
    0.000 999%   0.000 PE                                                  
 2.58E-02  11%   3.786 GPC+PCho                                            
 5.97E-02  12%   8.748 NAA+NAAG                                            
    0.100  13%  14.645 Glu+Gln                                             
 5.46E-02  12%   8.000 Cr+PCr                                              
 5.97E-02  12%   8.748 NAA+NAAG                                            
 5.46E-02  12%   8.000 Cr+PCr                                              
    0.100  13%  14.645 Glu+Gln                                             
   6 lines in following misc. output table
  FWHM = 0.029 ppm    S/N =   3                                            
  Data shift = 0.012 ppm                                                   
  Ph: -32 deg      -3.3 deg/ppm                                            
  alphaB,S = 3.1E+01,   2.1E+01                                            
   18 spline knots.   Ns = 5(1)                                            
   2 inflections.     1 extrema                                            
  654 points on ppm-axis = NY
      4.000000     3.994181     3.988363     3.982544     3.976726     3.970907     3.965088     3.959270     3.953451     3.947633
      3.941814     3.935995     3.930177     3.924358     3.918540     3.912721     3.906902     3.901084     3.895265     3.889446
      3.883628     3.877809     3.871991     3.866172     3.860353     3.854535     3.848716     3.842898     3.837079     3.831260
      3.825442     3.819623     3.813805     3.807986     3.802167     3.796349     3.790530     3.784712     3.778893     3.773074
      3.767256     3.761437     3.755619     3.749800     3.743981     3.738163     3.732344     3.726526     3.720707     3.714888
      3.709070     3.703251     3.697433     3.691614     3.685795     3.679977     3.674158     3.668339     3.662521     3.656702
      3.650884     3.645065     3.639246     3.633428     3.627609     3.621791     3.615972     3.610153     3.604335     3.598516
      3.592698     3.586879     3.581060     3.575242     3.569423     3.563605     3.557786     3.551967     3.546149     3.540330
      3.534512     3.528693     3.522874     3.517056     3.511237     3.505419     3.499600     3.493781     3.487963     3.482144
      3.476326     3.470507     3.464688     3.458870     3.453051     3.447232     3.441414     3.435595     3.429777     3.423958
      3.418139     3.412321     3.406502     3.400684     3.394865     3.389046     3.383228     3.377409     3.371591     3.365772
      3.359953     3.354135     3.348316     3.342498     3.336679     3.330860     3.325042     3.319223     3.313405     3.307586
      3.301767     3.295949     3.290130     3.284312     3.278493     3.272674     3.266856     3.261037     3.255219     3.249400
      3.243581     3.237763     3.231944     3.226125     3.220307     3.214488     3.208670     3.202851     3.197032     3.191214
      3.185395     3.179577     3.173758     3.167939     3.162121     3.156302     3.150484     3.144665     3.138846     3.133028
      3.127209     3.121391     3.115572     3.109753     3.103935     3.098116     3.092298     3.086479     3.080660     3.074842
      3.069023     3.063205     3.057386     3.051567     3.045749     3.039930     3.034111     3.028293     3.022474     3.016656
      3.010837     3.005018     2.999200     2.993381     2.987563     2.981744     2.975925     2.970107     2.964288     2.958470
      2.952651     2.946832     2.941014     2.935195     2.929377     2.923558     2.917739     2.911921     2.906102     2.900284
      2.894465     2.888646     2.882828     2.877009     2.871191     2.865372     2.859553     2.853735     2.847916     2.842098
      2.836279     2.830460     2.824642     2.818823     2.813004     2.807186     2.801367     2.795549     2.789730     2.783911
      2.778093     2.772274     2.766456     2.760637     2.754818     2.749000     2.743181     2.737363     2.731544     2.725725
      2.719907     2.714088     2.708270     2.702451     2.696632     2.690814     2.684995     2.679177     2.673358     2.667539
      2.661721     2.655902     2.650084     2.644265     2.638446     2.632628     2.626809     2.620991     2.615172     2.609353
      2.603535     2.597716     2.591897     2.586079     2.580260     2.574442     2.568623     2.562804     2.556986     2.551167
      2.545349     2.539530     2.533711     2.527893     2.522074     2.516256     2.510437     2.504618     2.498800     2.492981
      2.487163     2.481344     2.475525     2.469707     2.463888     2.458070     2.452251     2.446432     2.440614     2.434795
      2.428977     2.423158     2.417339     2.411521     2.405702     2.399884     2.394065     2.388246     2.382428     2.376609
      2.370790     2.364972     2.359153     2.353335     2.347516     2.341697     2.335879     2.330060     2.324242     2.318423
      2.312604     2.306786     2.300967     2.295149     2.289330     2.283511     2.277693     2.271874     2.266056     2.260237
      2.254418     2.248600     2.242781     2.236963     2.231144     2.225325     2.219507     2.213688     2.207870     2.202051
      2.196232     2.190414     2.184595     2.178777     2.172958     2.167139     2.161321     2.155502     2.149683     2.143865
      2.138046     2.132228     2.126409     2.120590     2.114772     2.108953     2.103135     2.097316     2.091497     2.085679
      2.079860     2.074042     2.068223     2.062404     2.056586     2.050767     2.044949     2.039130     2.033311     2.027493
      2.021674     2.015856     2.010037     2.004218     1.998400     1.992581     1.986763     1.980944     1.975126     1.969307
      1.963489     1.957670     1.951852     1.946033     1.940215     1.934397     1.928578     1.922760     1.916941     1.911123
      1.905304     1.899486     1.893667     1.887849     1.882030     1.876212     1.870393     1.864575     1.858756     1.852938
      1.847119     1.841301     1.835482     1.829664     1.823845     1.818027     1.812208     1.806390     1.800571     1.794753
      1.788934     1.783116     1.777297     1.771479     1.765660     1.759842     1.754023     1.748205     1.742386     1.736568
      1.730749     1.724931     1.719113     1.713294     1.707476     1.701657     1.695839     1.690020     1.684202     1.678383
      1.672565     1.666746     1.660928     1.655109     1.649291     1.643472     1.637654     1.631835     1.626017     1.620198
      1.614380     1.608561     1.602743     1.596924     1.591106     1.585287     1.579469     1.573650     1.567832     1.562013
      1.556195     1.550376     1.544558     1.538739     1.532921     1.527102     1.521284     1.515465     1.509647     1.503829
      1.498010     1.492192     1.486373     1.480555     1.474736     1.468918     1.463099     1.457281     1.451462     1.445644
      1.439825     1.434007     1.428188     1.422370     1.416551     1.410733     1.404914     1.399096     1.393277     1.387459
      1.381640     1.375822     1.370003     1.364185     1.358366     1.352548     1.346729     1.340911     1.335092     1.329274
      1.323455     1.317637     1.311818     1.306000     1.300182     1.294363     1.288545     1.282726     1.276908     1.271089
      1.265271     1.259452     1.253634     1.247815     1.241997     1.236178     1.230360     1.224541     1.218723     1.212904
      1.207086     1.201267     1.195449     1.189630     1.183812     1.177993     1.172175     1.166356     1.160538     1.154719
      1.148901     1.143082     1.137264     1.131445     1.125627     1.119808     1.113990     1.108171     1.102353     1.096534
      1.090716     1.084898     1.079079     1.073261     1.067442     1.061624     1.055805     1.049987     1.044168     1.038350
      1.032531     1.026713     1.020894     1.015076     1.009257     1.003439     0.997620     0.991802     0.985983     0.980165
      0.974346     0.968528     0.962709     0.956891     0.951072     0.945254     0.939435     0.933617     0.927798     0.921980
      0.916161     0.910343     0.904524     0.898706     0.892887     0.887069     0.881251     0.875432     0.869614     0.863795
      0.857977     0.852158     0.846340     0.840521     0.834703     0.828884     0.823066     0.817247     0.811429     0.805610
      0.799792     0.793973     0.788155     0.782336     0.776518     0.770699     0.764881     0.759062     0.753244     0.747425
      0.741607     0.735788     0.729970     0.724151     0.718333     0.712514     0.706696     0.700877     0.695059     0.689240
      0.683422     0.677603     0.671785     0.665967     0.660148     0.654330     0.648511     0.642693     0.636874     0.631056
      0.625237     0.619419     0.613600     0.607782     0.601963     0.596145     0.590326     0.584508     0.578689     0.572871
      0.567052     0.561234     0.555415     0.549597     0.543778     0.537960     0.532141     0.526323     0.520504     0.514686
      0.508867     0.503049     0.497230     0.491412     0.485593     0.479775     0.473956     0.468138     0.462319     0.456501
      0.450682     0.444864     0.439045     0.433227     0.427408     0.421590     0.415771     0.409953     0.404134     0.398316
      0.392497     0.386679     0.380860     0.375042     0.369223     0.363405     0.357586     0.351767     0.345949     0.340130
      0.334312     0.328493     0.322675     0.316856     0.311038     0.305219     0.299401     0.293582     0.287764     0.281945
      0.276127     0.270308     0.264490     0.258671     0.252853     0.247034     0.241216     0.235397     0.229579     0.223760
      0.217942     0.212123     0.206305     0.200486
 NY phased data points follow
  -1.44268E-01 -1.75987E-01 -2.44706E-02  8.57979E-02 -2.95841E-01 -2.79868E-01  1.34244E-01  5.16344E-02 -3.33057E-01  1.07781E-01
  -1.36374E-01 -4.30191E-01  7.28182E-02 -3.28391E-02  3.07963E-01  2.22768E-01  5.11046E-01 -1.30135E-02 -1.79555E-01  2.69269E-01
   1.21048E-01  3.12574E-01 -1.11293E-01  1.81550E-01 -5.74206E-02 -1.63390E-01 -9.35258E-02 -4.06155E-01 -1.01067E-01 -2.06507E-02
   9.78450E-02  7.99096E-02  1.08801E-01  2.80318E-01 -1.16312E-01 -1.58657E-01 -2.15336E-01 -7.15792E-01 -2.50296E-01 -7.40007E-02
  -8.41573E-02  4.90356E-02  4.92565E-02  3.35041E-01  5.47729E-01  4.02811E-01  2.57946E-01  6.32049E-01  5.52783E-01  2.12195E-01
  -6.75439E-02 -4.86105E-02  9.34437E-02  2.41727E-01  1.12474E-01 -2.38644E-01  3.04531E-02 -3.82561E-01 -4.00677E-01  1.86561E-01
  -2.24813E-01 -5.87166E-01 -5.61358E-01 -4.12355E-01 -5.70221E-01 -4.65878E-01 -1.22244E-01 -7.62883E-02  1.12784E-02 -1.89801E-01
   7.02304E-02  2.55936E-01  2.27440E-01  3.22744E-01 -1.57873E-01 -2.63000E-01 -2.21137E-01 -1.69851E-01  5.13023E-02 -2.77149E-01
  -9.07898E-02  1.09225E-01 -1.23359E-01 -1.62831E-01  1.40573E-01  6.97341E-01  4.87540E-01  4.01801E-01  3.21950E-01  4.12425E-01
   2.17864E-01  1.86582E-01  7.83094E-01  3.23360E-01  1.61229E-01  2.83678E-01  1.50632E-01  1.13959E-01 -9.94093E-02 -3.62855E-01
   1.88042E-01  1.50005E-01  4.58600E-02  2.51853E-01  1.52772E-01  4.09138E-01  3.87964E-01  7.12073E-01  2.88345E-01  5.22929E-01
   5.63874E-01  3.75839E-01  6.33318E-01  4.07563E-01  7.52105E-01  2.30878E-01 -1.63120E-03  4.54573E-01  6.82038E-01  4.68351E-01
   6.08644E-01  3.38932E-01 -5.10870E-02  1.39829E-01  9.60339E-02  1.19206E-01 -4.07200E-01 -5.09264E-01 -4.37861E-01 -5.03647E-01
  -5.51481E-01 -5.78414E-01 -6.91022E-01 -4.67796E-01 -4.28109E-01 -7.45747E-01 -1.22457E+00 -1.83200E+00 -1.23471E+00 -8.03706E-01
  -2.99368E-01 -3.62194E-01 -4.99609E-01 -7.66378E-02 -6.92104E-03  1.60068E-01 -1.67548E-02  3.09414E-01  2.71769E-01  1.29661E-01
  -8.24945E-02 -3.66215E-02  2.34675E-01 -1.20615E-01  3.15301E-01  2.46621E-01 -1.42909E-03  2.53209E-02  3.35205E-02 -2.19183E-02
   2.12964E-01  5.63378E-01  2.75478E-01  6.97387E-01  5.12146E-01  7.19192E-01  1.07919E+00  3.95112E-01 -4.14889E-02 -7.34760E-01
  -7.13191E-01 -2.87221E-01 -5.23040E-01 -6.91656E-01 -9.83555E-02 -2.16243E-02 -4.03169E-01 -2.27045E-01 -3.25068E-01 -6.63359E-01
  -4.88300E-01 -2.22711E-01 -3.49864E-01 -2.36473E-01 -8.13263E-02  1.32204E-01 -8.06815E-02 -4.86246E-01 -3.29293E-01 -3.80243E-01
  -2.81420E-01 -8.87376E-02 -2.55968E-01 -7.80246E-02 -1.68776E-01 -2.55803E-01  1.06500E-02 -7.41938E-02  1.20803E-01  1.63160E-01
   1.70517E-01  7.79544E-02  4.06036E-02  1.99678E-01  1.31513E-01  9.45308E-03 -3.25365E-01 -2.15293E-01 -1.68774E-01 -1.43112E-05
  -2.36836E-02 -2.55523E-01 -8.47828E-03  1.11859E-01  1.55087E-01  1.48332E-02  2.18725E-01 -5.01159E-02 -1.69148E-01  1.82564E-01
  -8.59807E-03  1.84610E-01 -1.32834E-01  1.15216E-01  3.42053E-01 -3.12382E-02  3.08776E-01 -1.71425E-02  4.17614E-01  3.61669E-01
  -1.79042E-01  2.19627E-01  6.29392E-02  2.99095E-01 -3.43994E-02  5.15827E-03  1.56449E-01 -4.60297E-01 -2.94737E-01 -4.17349E-01
  -2.25744E-02 -4.31626E-03 -2.23610E-01  2.16906E-01 -6.60273E-02 -1.16112E-01 -1.67736E-01 -1.17409E-01  6.52612E-02  6.30371E-02
   2.08892E-02 -1.23782E-01  1.35575E-02 -5.41076E-02 -1.39374E-01 -7.43760E-02  4.96124E-02  2.30249E-02 -2.70454E-01 -1.47233E-01
  -7.96222E-02 -2.41314E-01 -6.41009E-02 -2.21491E-01 -2.48411E-01  1.44665E-02 -2.05617E-02  5.21780E-02 -4.83059E-02  2.86333E-01
   5.82659E-01 -9.62735E-02 -2.21538E-01 -2.55808E-01 -2.49239E-01 -5.34694E-02 -4.35956E-01 -2.07232E-02 -2.71712E-01 -3.63783E-01
  -2.47952E-01 -7.70424E-01 -3.42517E-01 -3.32241E-01  1.50130E-01  3.63082E-01  4.13288E-01  6.24720E-01  3.95604E-01  2.84845E-01
   1.10478E-01  4.94271E-01  3.16170E-01 -2.34667E-01 -3.14007E-01 -1.03995E-03 -1.08176E-01 -5.42672E-02  1.32632E-01  1.05694E-01
   2.77678E-01  2.59528E-01  5.72416E-01  3.44821E-01  7.05727E-02  3.46073E-01  2.57155E-01  5.34568E-01  7.31553E-01  1.74708E-01
   5.29035E-01  4.63430E-01 -1.54798E-02  2.47841E-01  2.37518E-01  4.34900E-01  3.32473E-01  6.84476E-02  1.20373E-01  6.21885E-02
  -7.21059E-02  3.24669E-02 -2.08432E-01 -1.18455E-01 -1.88364E-01 -5.72626E-01  7.85419E-02  1.00833E-01 -1.37558E-01  7.49851E-02
   5.49976E-02 -3.03154E-01 -1.27373E-01  2.33404E-01  6.52070E-02 -2.32132E-01 -5.17628E-01 -1.52005E-01 -1.77417E-01 -2.98710E-01
  -2.39567E-01 -3.11434E-01 -8.01706E-01 -1.70990E+00 -8.08911E-01 -1.40329E-01 -4.29749E-01 -1.97995E-01 -3.58512E-02  2.05745E-01
   1.34353E-01  2.92240E-01  1.18815E-01  2.69242E-02  2.99879E-01  3.37333E-01  4.22656E-01  1.94765E-01  3.28568E-01  2.83715E-01
   6.86030E-02  1.31358E-01  4.07401E-02 -1.61497E-01 -1.14354E-01  5.25377E-03 -1.54039E-01 -2.33713E-01 -1.46591E-01 -1.72726E-01
   6.61189E-02  7.83803E-02  2.86930E-02  2.48358E-01 -1.09047E-01  3.17269E-01  2.74956E-01 -3.58026E-02  1.54053E-01  1.45083E-01
   2.65808E-01 -1.05784E-01  3.03573E-02  4.70458E-02 -8.11687E-02  2.61358E-02  1.06449E-01  3.88043E-02  2.35362E-01  5.07097E-01
   1.03690E-01  2.30957E-01  2.99161E-01  1.65844E-01  3.19255E-01  3.26747E-01  3.59288E-01  9.71821E-02  3.40253E-01  6.21372E-01
  -1.93272E-01  8.19683E-02  9.63662E-02 -3.12522E-01  1.04680E-02 -1.03070E-01  1.00764E-01  5.22137E-02  1.10039E-01  2.67826E-01
   1.70161E-01  3.50007E-02 -1.43847E-01 -2.73035E-01 -3.57532E-01 -4.19254E-01 -1.74777E-01  2.57169E-02 -1.16441E-01 -1.73061E-01
  -6.24495E-01 -2.59569E-01 -4.58741E-01 -5.61489E-01 -1.07497E-02 -3.05659E-01 -2.88313E-01 -5.12970E-01 -1.54704E-01 -1.28298E-01
  -4.47686E-01 -2.90631E-01 -4.78449E-01 -3.84366E-01 -1.48376E-01 -2.78737E-01 -2.69394E-01 -3.08557E-02 -3.74624E-01 -3.09508E-01
  -2.70170E-01 -2.41182E-01 -2.06307E-01 -3.25545E-01  3.63889E-02 -1.64558E-01 -2.53346E-01  6.58238E-02  1.06669E-01 -2.66827E-01
  -6.64975E-02  6.03902E-02 -1.90190E-01  1.09276E-01  3.07391E-01 -2.14365E-01 -5.65720E-01 -3.43384E-03 -2.10209E-02  1.44879E-01
   2.93277E-01  2.77054E-01 -9.69079E-03 -8.63951E-02  4.22998E-01  2.85396E-01  2.02248E-01  3.93582E-02  4.86215E-01  4.69527E-01
   4.39699E-01  5.47760E-01  4.81127E-01  6.04685E-01  2.63299E-01  2.55656E-02 -1.54220E-04  2.09864E-01 -2.73482E-02  4.27103E-02
  -3.53463E-01 -6.78345E-02  4.65563E-01  4.72761E-03  1.13279E-01  4.79623E-02 -2.09004E-01 -1.73565E-02  2.78553E-02 -3.14576E-01
  -5.77342E-02 -1.55102E-01 -9.59737E-02 -2.84343E-01 -8.71126E-03  1.13041E-01 -2.57710E-01  8.18059E-02 -5.41385E-02  3.25375E-01
   4.76305E-02  6.09827E-02  5.70370E-02 -7.40873E-02  1.77696E-01  7.27657E-04  9.79307E-03  6.63174E-02  5.95343E-02  1.36902E-01
   4.21367E-01  1.09200E-01  1.02822E-01  1.32634E-01  6.93872E-02 -1.54156E-01  1.60903E-01  1.70575E-01 -1.49407E-01  1.73832E-01
  -4.61569E-02 -8.46684E-02  7.93356E-03  2.55182E-02 -4.70491E-01 -4.24946E-01 -2.61618E-01  1.07734E-01 -2.36182E-01 -6.09779E-01
  -1.69423E-01 -2.65915E-01  2.83457E-01 -5.17067E-02 -2.83857E-01 -2.89894E-02  2.68704E-01  6.10161E-03 -2.24417E-01 -1.85289E-01
  -1.96061E-01  1.80805E-01 -2.69980E-01 -8.46652E-02  4.16848E-02  1.12283E-01  3.70048E-01  1.37194E-02 -2.09885E-01  2.81029E-01
   2.53142E-01  1.89122E-01  2.85285E-01 -3.08497E-01 -6.16142E-02  5.82580E-02  1.38002E-01  4.36802E-01  3.82438E-01  2.35192E-01
   2.35897E-01  1.21346E-01  3.30462E-01  2.20758E-01 -4.86788E-02  1.40320E-01 -1.78305E-01  2.95581E-01  2.18218E-01 -9.96383E-02
   2.31997E-02  2.31186E-01  4.34030E-01  6.07826E-02  9.44747E-02 -1.04971E-01  6.00853E-02  2.44843E-01  3.66368E-01  2.21747E-01
  -2.55800E-01  2.33766E-01  6.61223E-02  1.08050E-01  3.36289E-01 -3.11347E-01 -1.84429E-01  2.62518E-02 -1.40001E-01 -1.24754E-01
  -1.13853E-02  1.79753E-01 -6.12294E-02 -1.92994E-01  3.48587E-01 -1.18720E-01 -1.89309E-01  2.35271E-01 -4.33751E-01 -3.91249E-01
  -7.97955E-02  1.09953E-01 -2.36622E-01 -4.62950E-04  1.42024E-01 -3.35234E-01  7.90274E-02 -1.95319E-01 -2.31487E-02  6.05159E-02
  -2.07936E-01  1.27749E-01  1.42648E-01 -1.09686E-01 -1.72240E-01  8.49731E-02  1.00589E-01 -1.45597E-01 -1.40226E-01 -5.83102E-02
   8.79064E-02  1.67765E-01  1.02826E-01  3.23869E-01  1.15337E-01  2.21702E-01  2.28444E-01 -2.27423E-01 -3.17376E-01  7.52027E-02
   1.81634E-01 -1.82492E-01 -2.07280E-01 -1.78780E-01  2.40477E-01  2.06877E-01  3.52594E-01 -1.93349E-02 -2.97033E-01  1.35958E-01
   1.44661E-01  4.91435E-01  1.96411E-01 -2.90477E-02 -1.28868E-01  1.49501E-01  3.90880E-01 -4.63675E-02 -1.31551E-01 -9.28924E-02
   1.17818E-01  2.19167E-01  1.49227E-02  3.98077E-02
 NY points of the fit to the data follow
   5.77528E-02  4.74627E-02  2.94922E-02  1.06539E-02 -4.28825E-03 -1.36797E-02 -1.88566E-02 -2.24237E-02 -2.55477E-02 -2.56814E-02
   9.59216E-04  4.60031E-02  8.77357E-02  1.70236E-01  3.26235E-01  4.85665E-01  5.33507E-01  4.22840E-01  2.66669E-01  1.63329E-01
   1.03695E-01  4.99869E-02  1.35240E-02 -1.10948E-02 -3.19931E-02 -4.94434E-02 -6.38908E-02 -7.61246E-02 -8.73180E-02 -9.84296E-02
  -1.10086E-01 -1.22514E-01 -1.37222E-01 -1.55988E-01 -1.79429E-01 -2.04966E-01 -2.25575E-01 -2.41818E-01 -2.44166E-01 -2.18646E-01
  -1.54726E-01 -5.64118E-02  5.60954E-02  1.57012E-01  2.34964E-01  2.73571E-01  2.75328E-01  2.45386E-01  2.09210E-01  1.67761E-01
   1.29175E-01  8.41599E-02  3.93298E-02 -6.45510E-03 -5.44553E-02 -1.09717E-01 -1.67426E-01 -2.28332E-01 -2.95979E-01 -3.49636E-01
  -3.82766E-01 -4.09268E-01 -3.84211E-01 -3.16719E-01 -2.74574E-01 -2.26347E-01 -1.26417E-01  3.45128E-02  2.11319E-01  3.16827E-01
   3.83962E-01  4.34862E-01  4.10633E-01  3.19156E-01  2.32580E-01  1.35490E-01  1.58868E-02 -8.98185E-02 -2.11639E-01 -3.65867E-01
  -4.59268E-01 -4.12072E-01 -2.47666E-01 -4.86051E-02  1.29658E-01  3.10972E-01  4.62989E-01  5.12740E-01  4.84365E-01  4.49861E-01
   4.14235E-01  3.69315E-01  3.22159E-01  2.68147E-01  2.02144E-01  1.20600E-01  2.09386E-02 -9.25554E-02 -1.93903E-01 -2.42190E-01
  -2.08084E-01 -9.01365E-02  6.73082E-02  2.10428E-01  3.04583E-01  3.51456E-01  3.69452E-01  3.75947E-01  3.75997E-01  3.73082E-01
   3.71006E-01  3.69732E-01  3.69089E-01  3.69009E-01  3.69755E-01  3.71583E-01  3.74758E-01  3.78395E-01  3.74590E-01  3.67447E-01
   3.61294E-01  3.23602E-01  2.58526E-01  1.84399E-01  9.78212E-02 -1.10486E-02 -1.35694E-01 -2.56098E-01 -3.56007E-01 -4.44354E-01
  -4.76105E-01 -4.95292E-01 -4.54623E-01 -3.82819E-01 -4.64073E-01 -8.35459E-01 -1.27757E+00 -1.44686E+00 -1.15976E+00 -7.75887E-01
  -5.33813E-01 -3.85945E-01 -2.35040E-01 -1.49054E-01 -9.40089E-02 -5.29115E-02 -1.98384E-02  7.99053E-03  3.19245E-02  5.30367E-02
   7.22375E-02  9.02393E-02  1.07626E-01  1.25014E-01  1.42881E-01  1.61803E-01  1.82541E-01  2.05903E-01  2.32837E-01  2.64918E-01
   3.05929E-01  3.64120E-01  4.54386E-01  5.02453E-01  5.22791E-01  5.89827E-01  5.82409E-01  3.26901E-01 -1.30863E-01 -5.34555E-01
  -6.20722E-01 -5.35210E-01 -4.67709E-01 -4.36731E-01 -3.73199E-01 -3.30898E-01 -2.97013E-01 -2.67259E-01 -2.42236E-01 -2.22782E-01
  -2.05622E-01 -1.88567E-01 -1.74090E-01 -1.62872E-01 -1.53856E-01 -1.45530E-01 -1.37801E-01 -1.30231E-01 -1.23033E-01 -1.16299E-01
  -1.10102E-01 -1.03854E-01 -9.77126E-02 -9.16946E-02 -8.59191E-02 -8.03318E-02 -7.49647E-02 -6.94419E-02 -6.37296E-02 -5.83659E-02
  -5.30145E-02 -4.70947E-02 -4.13066E-02 -3.80182E-02 -3.83822E-02 -3.90293E-02 -3.64873E-02 -3.28170E-02 -3.26635E-02 -3.74102E-02
  -4.33594E-02 -4.65351E-02 -4.69222E-02 -4.63840E-02 -4.55352E-02 -4.45460E-02 -4.37694E-02 -4.33951E-02 -4.30681E-02 -4.17377E-02
  -3.40519E-02 -2.01697E-02 -5.46801E-03  1.85439E-02  6.34343E-02  1.19332E-01  1.55351E-01  1.50407E-01  1.37525E-01  1.56551E-01
   1.90144E-01  1.91861E-01  1.47552E-01  8.54798E-02  3.89437E-02  9.56362E-03 -1.27612E-02 -2.88768E-02 -3.81885E-02 -4.57878E-02
  -5.22655E-02 -5.81920E-02 -6.33396E-02 -6.76814E-02 -7.16126E-02 -7.54656E-02 -7.95582E-02 -8.40015E-02 -8.87297E-02 -9.49008E-02
  -1.03136E-01 -1.14415E-01 -1.21759E-01 -1.28823E-01 -1.40238E-01 -1.35854E-01 -1.05276E-01 -6.62451E-02 -3.69582E-02 -1.66577E-02
   1.54745E-02  4.59539E-02  5.29400E-02  4.62129E-02  4.82919E-02  5.30527E-02  4.30806E-02  2.78403E-02  1.78824E-02  9.74289E-03
  -3.72314E-03 -2.44512E-02 -5.00092E-02 -8.08626E-02 -1.14908E-01 -1.53978E-01 -2.01024E-01 -2.53514E-01 -3.11266E-01 -3.76341E-01
  -4.32936E-01 -4.65848E-01 -4.44280E-01 -3.37958E-01 -1.65429E-01  3.86119E-02  2.22826E-01  3.43801E-01  3.96007E-01  3.88522E-01
   3.45875E-01  2.99882E-01  2.61634E-01  2.25854E-01  2.02565E-01  1.93910E-01  1.97017E-01  2.08344E-01  2.16289E-01  2.19288E-01
   2.15549E-01  2.08230E-01  1.99149E-01  1.91632E-01  1.83719E-01  1.76752E-01  1.70122E-01  1.63352E-01  1.56074E-01  1.47717E-01
   1.37857E-01  1.25628E-01  1.09064E-01  8.81396E-02  6.16840E-02  2.82955E-02 -1.51316E-02 -6.44856E-02 -1.14075E-01 -1.59372E-01
  -1.98788E-01 -2.28069E-01 -2.44234E-01 -2.40716E-01 -2.19198E-01 -1.76099E-01 -1.18208E-01 -5.65753E-02 -1.42561E-02  3.05405E-03
  -1.25873E-02 -4.71720E-02 -8.76337E-02 -1.22966E-01 -1.42238E-01 -1.45360E-01 -1.35875E-01 -1.58223E-01 -2.12061E-01 -2.57683E-01
  -3.67292E-01 -6.15352E-01 -9.03245E-01 -1.01305E+00 -8.35971E-01 -5.43932E-01 -3.40052E-01 -2.26476E-01 -1.33701E-01 -7.22506E-02
  -4.14026E-02 -2.10445E-02 -6.11673E-03  5.50238E-03  1.45627E-02  2.20407E-02  2.73009E-02  3.05321E-02  3.02836E-02  2.55413E-02
   1.66130E-02  4.01316E-03 -1.02438E-02 -2.21350E-02 -3.06922E-02 -3.20739E-02 -2.83032E-02 -2.00123E-02 -1.09217E-02 -1.51406E-03
   5.96607E-03  1.27031E-02  1.80331E-02  2.24904E-02  2.61352E-02  2.89674E-02  3.12801E-02  3.35642E-02  3.58521E-02  3.79905E-02
   3.98436E-02  4.13953E-02  4.28470E-02  4.44023E-02  4.59680E-02  4.73627E-02  4.84148E-02  4.92703E-02  5.02232E-02  5.14445E-02
   5.28775E-02  5.42478E-02  5.53386E-02  5.58383E-02  5.56671E-02  5.49481E-02  5.39801E-02  5.28774E-02  5.15520E-02  4.97843E-02
   4.75488E-02  4.50071E-02  4.22438E-02  3.92256E-02  3.59352E-02  3.26572E-02  2.96525E-02  2.67677E-02  2.38268E-02  2.08873E-02
   1.81669E-02  1.57038E-02  1.34485E-02  1.14130E-02  9.56986E-03  7.73299E-03  5.89168E-03  4.07594E-03  2.32677E-03  8.05293E-04
  -4.69980E-04 -1.62129E-03 -2.55845E-03 -3.09731E-03 -3.19015E-03 -2.87848E-03 -2.27227E-03 -1.45243E-03 -3.93345E-04  8.58472E-04
   2.15148E-03  3.18092E-03  3.71795E-03  4.25766E-03  5.43771E-03  7.38545E-03  9.67808E-03  1.19330E-02  1.41292E-02  1.64734E-02
   1.92237E-02  2.23981E-02  2.58891E-02  2.94143E-02  3.28492E-02  3.60691E-02  3.90173E-02  4.14423E-02  4.29830E-02  4.32095E-02
   4.19046E-02  3.90354E-02  3.44550E-02  2.80373E-02  1.94022E-02  1.08888E-02  1.41335E-02  2.20058E-02  4.21982E-02  9.56656E-02
   1.86631E-01  3.02649E-01  4.00770E-01  4.29588E-01  3.96496E-01  3.18495E-01  2.42682E-01  1.88244E-01  1.54900E-01  1.24755E-01
   1.07022E-01  9.45848E-02  8.50098E-02  7.73908E-02  7.14130E-02  6.70027E-02  6.38928E-02  6.17497E-02  6.03371E-02  5.95091E-02
   5.92376E-02  5.95237E-02  6.02588E-02  6.11959E-02  6.19781E-02  6.25072E-02  6.27993E-02  6.28918E-02  6.29452E-02  6.31520E-02
   6.34896E-02  6.35224E-02  6.29424E-02  6.19431E-02  6.07913E-02  5.93957E-02  5.76637E-02  5.56722E-02  5.37140E-02  5.19412E-02
   5.01280E-02  4.81713E-02  4.61886E-02  4.42395E-02  4.22754E-02  4.02402E-02  3.80933E-02  3.60512E-02  3.43073E-02  3.28008E-02
   3.12225E-02  2.93329E-02  2.72741E-02  2.50851E-02  2.24782E-02  1.92707E-02  1.56558E-02  1.17920E-02  7.61637E-03  2.79909E-03
  -3.03382E-03 -9.95838E-03 -1.75441E-02 -2.52166E-02 -3.26979E-02 -4.01288E-02 -4.73869E-02 -5.40326E-02 -5.99603E-02 -6.53711E-02
  -7.00007E-02 -7.32541E-02 -7.49615E-02 -7.56526E-02 -7.57207E-02 -7.48977E-02 -7.29837E-02 -7.04403E-02 -6.77821E-02 -6.52055E-02
  -6.26024E-02 -5.97968E-02 -5.66097E-02 -5.29852E-02 -4.90679E-02 -4.49599E-02 -4.05540E-02 -3.60356E-02 -3.15402E-02 -2.71735E-02
  -2.29645E-02 -1.88966E-02 -1.49223E-02 -1.09744E-02 -7.34274E-03 -4.25047E-03 -1.34969E-03  1.72897E-03  4.55253E-03  6.80099E-03
   8.60534E-03  1.03820E-02  1.21801E-02  1.37149E-02  1.48017E-02  1.56449E-02  1.64621E-02  1.72746E-02  1.79101E-02  1.82868E-02
   1.86616E-02  1.93035E-02  2.01638E-02  2.10442E-02  2.19103E-02  2.26623E-02  2.31059E-02  2.32712E-02  2.33538E-02  2.34391E-02
   2.33990E-02  2.32902E-02  2.32267E-02  2.31523E-02  2.30787E-02  2.30841E-02  2.30755E-02  2.31743E-02  2.34821E-02  2.35968E-02
   2.30972E-02  2.21982E-02  2.15922E-02  2.16679E-02  2.19105E-02  2.17985E-02  2.15543E-02  2.14260E-02  2.11744E-02  2.06629E-02
   2.03417E-02  2.05928E-02  2.11681E-02  2.16736E-02  2.19488E-02  2.22821E-02  2.27928E-02  2.33609E-02  2.37528E-02  2.40915E-02
   2.45140E-02  2.48492E-02  2.48098E-02  2.45131E-02  2.43383E-02  2.45728E-02  2.49834E-02  2.54404E-02  2.60660E-02  2.66650E-02
   2.70347E-02  2.74834E-02  2.82638E-02  2.94496E-02  3.05269E-02  3.09959E-02  3.09326E-02  3.06669E-02  3.06258E-02  3.10874E-02
   3.17273E-02  3.21351E-02  3.23074E-02  3.24258E-02  3.27364E-02  3.33246E-02  3.38559E-02  3.42396E-02  3.47153E-02  3.55432E-02
   3.66005E-02  3.75022E-02  3.81773E-02  3.89914E-02  4.01359E-02  4.13142E-02  4.26077E-02  4.42888E-02  4.64473E-02  4.88228E-02
   5.10036E-02  5.29421E-02  5.48719E-02  5.69307E-02
 NY background values follow
     6.523E-02    6.504E-02    6.485E-02    6.466E-02    6.447E-02    6.428E-02    6.409E-02    6.390E-02    6.371E-02    6.352E-02
     6.333E-02    6.314E-02    6.295E-02    6.276E-02    6.257E-02    6.239E-02    6.220E-02    6.201E-02    6.182E-02    6.163E-02
     6.144E-02    6.125E-02    6.106E-02    6.087E-02    6.068E-02    6.049E-02    6.030E-02    6.011E-02    5.992E-02    5.973E-02
     5.954E-02    5.935E-02    5.916E-02    5.897E-02    5.878E-02    5.859E-02    5.840E-02    5.821E-02    5.803E-02    5.784E-02
     5.765E-02    5.746E-02    5.727E-02    5.708E-02    5.689E-02    5.670E-02    5.651E-02    5.632E-02    5.613E-02    5.594E-02
     5.575E-02    5.556E-02    5.537E-02    5.518E-02    5.499E-02    5.480E-02    5.461E-02    5.442E-02    5.423E-02    5.404E-02
     5.385E-02    5.366E-02    5.347E-02    5.329E-02    5.310E-02    5.291E-02    5.272E-02    5.253E-02    5.234E-02    5.215E-02
