 
 $NMID
 ID=''
 FMTDAT='(2E13.5)'
 TRAMP=   1.00000E+0
 VOLUME=   1.00000E+0
 $END
  -3.75370E+3   1.81875E+4
  -2.29280E+4   4.20850E+4
  -1.55983E+4   4.50453E+4
  -1.48979E+4   4.11261E+4
  -1.71056E+4   4.20980E+4
  -1.55815E+4   4.25763E+4
  -1.59009E+4   4.04837E+4
  -1.73660E+4   4.06159E+4
  -1.66194E+4   4.07835E+4
  -1.68656E+4   3.92418E+4
  -1.78501E+4   3.90455E+4
  -1.72252E+4   3.89845E+4
  -1.72842E+4   3.80028E+4
  -1.82862E+4   3.77044E+4
  -1.79234E+4   3.74561E+4
  -1.80230E+4   3.64875E+4
  -1.85970E+4   3.62237E+4
  -1.84249E+4   3.59060E+4
  -1.84408E+4   3.50621E+4
  -1.89353E+4   3.46786E+4
  -1.88105E+4   3.42215E+4
  -1.87151E+4   3.35871E+4
  -1.91550E+4   3.32332E+4
  -1.90642E+4   3.27737E+4
  -1.89951E+4   3.19339E+4
  -1.92410E+4   3.16228E+4
  -1.92768E+4   3.10495E+4
  -1.92838E+4   3.02790E+4
  -1.95187E+4   2.97530E+4
  -1.94174E+4   2.92177E+4
  -1.92970E+4   2.86504E+4
  -1.94420E+4   2.81784E+4
  -1.94720E+4   2.76953E+4
  -1.93346E+4   2.70196E+4
  -1.93494E+4   2.65650E+4
  -1.92208E+4   2.61243E+4
  -1.89811E+4   2.55691E+4
  -1.88723E+4   2.50957E+4
  -1.86742E+4   2.48046E+4
  -1.85329E+4   2.42894E+4
  -1.85309E+4   2.40157E+4
  -1.84476E+4   2.34854E+4
  -1.83568E+4   2.29557E+4
  -1.81538E+4   2.25361E+4
  -1.80682E+4   2.22477E+4
  -1.79718E+4   2.18470E+4
  -1.79201E+4   2.14350E+4
  -1.77336E+4   2.11356E+4
  -1.77102E+4   2.07533E+4
  -1.76313E+4   2.03819E+4
  -1.75410E+4   2.00310E+4
  -1.73502E+4   1.96062E+4
  -1.71873E+4   1.93159E+4
  -1.71009E+4   1.89644E+4
  -1.69721E+4   1.86680E+4
  -1.69012E+4   1.82743E+4
  -1.68211E+4   1.79897E+4
  -1.66346E+4   1.76094E+4
  -1.65438E+4   1.72733E+4
  -1.63703E+4   1.69469E+4
  -1.62167E+4   1.66673E+4
  -1.61065E+4   1.64061E+4
  -1.59815E+4   1.61534E+4
  -1.59751E+4   1.59272E+4
  -1.58419E+4   1.55268E+4
  -1.57526E+4   1.53263E+4
  -1.56943E+4   1.51023E+4
  -1.56602E+4   1.49100E+4
  -1.55406E+4   1.44726E+4
  -1.55210E+4   1.42636E+4
  -1.54738E+4   1.39328E+4
  -1.54750E+4   1.36579E+4
  -1.54405E+4   1.33239E+4
  -1.53603E+4   1.30404E+4
  -1.52899E+4   1.27038E+4
  -1.52288E+4   1.24585E+4
  -1.52747E+4   1.20850E+4
  -1.51339E+4   1.17738E+4
  -1.50055E+4   1.14714E+4
  -1.50200E+4   1.11392E+4
  -1.49353E+4   1.08432E+4
  -1.48813E+4   1.05387E+4
  -1.48602E+4   1.01600E+4
  -1.47780E+4   9.83437E+3
  -1.46603E+4   9.44251E+3
  -1.46457E+4   9.15970E+3
  -1.44726E+4   8.76131E+3
  -1.44324E+4   8.45045E+3
  -1.42944E+4   8.18671E+3
  -1.41984E+4   7.74088E+3
  -1.40765E+4   7.39928E+3
  -1.39728E+4   7.15614E+3
  -1.38574E+4   6.75502E+3
  -1.37693E+4   6.43547E+3
  -1.35338E+4   6.13831E+3
  -1.34078E+4   5.82167E+3
  -1.32107E+4   5.46057E+3
  -1.31426E+4   5.17082E+3
  -1.29985E+4   4.89181E+3
  -1.27621E+4   4.48408E+3
  -1.25110E+4   4.14221E+3
  -1.23915E+4   3.88772E+3
  -1.22158E+4   3.61693E+3
  -1.20243E+4   3.27978E+3
  -1.18067E+4   3.04262E+3
  -1.16312E+4   2.75576E+3
  -1.13673E+4   2.46907E+3
  -1.12499E+4   2.19619E+3
  -1.10000E+4   1.95230E+3
  -1.08134E+4   1.74012E+3
  -1.05628E+4   1.49340E+3
  -1.03349E+4   1.27940E+3
  -1.02054E+4   1.01900E+3
  -9.94909E+3   8.54410E+2
  -9.73736E+3   5.76061E+2
  -9.48976E+3   4.09144E+2
  -9.29607E+3   2.05604E+2
  -9.13526E+3   5.28626E+0
  -8.79717E+3  -1.78686E+2
  -8.67736E+3  -3.66418E+2
  -8.48121E+3  -6.06450E+2
  -8.20795E+3  -7.71939E+2
  -8.04364E+3  -8.84269E+2
  -7.83049E+3  -1.10393E+3
  -7.56925E+3  -1.20451E+3
  -7.40345E+3  -1.38193E+3
  -7.22083E+3  -1.58426E+3
  -6.95113E+3  -1.67625E+3
  -6.74465E+3  -1.75460E+3
  -6.61244E+3  -1.93218E+3
  -6.38081E+3  -2.06529E+3
  -6.07486E+3  -2.17647E+3
  -5.83847E+3  -2.28171E+3
  -5.71072E+3  -2.27523E+3
  -5.51131E+3  -2.38747E+3
  -5.30284E+3  -2.57327E+3
  -5.07084E+3  -2.64945E+3
  -4.86803E+3  -2.67543E+3
  -4.75219E+3  -2.77031E+3
  -4.43023E+3  -2.88099E+3
  -4.34387E+3  -2.87174E+3
  -4.13954E+3  -2.95237E+3
  -3.95450E+3  -3.00923E+3
  -3.78152E+3  -3.07226E+3
  -3.51800E+3  -3.04669E+3
  -3.36541E+3  -3.14463E+3
  -3.20030E+3  -3.17097E+3
  -3.03289E+3  -3.26536E+3
  -2.83820E+3  -3.33173E+3
  -2.77332E+3  -3.35633E+3
  -2.54889E+3  -3.41297E+3
  -2.35990E+3  -3.36097E+3
  -2.20277E+3  -3.39130E+3
  -2.04574E+3  -3.37559E+3
  -1.78931E+3  -3.44932E+3
  -1.72124E+3  -3.40750E+3
  -1.51081E+3  -3.40270E+3
  -1.38848E+3  -3.38151E+3
  -1.23907E+3  -3.35791E+3
  -1.11208E+3  -3.36505E+3
  -9.49430E+2  -3.32771E+3
  -7.66539E+2  -3.28627E+3
  -6.83505E+2  -3.26035E+3
  -5.74196E+2  -3.24280E+3
  -3.79736E+2  -3.27506E+3
  -3.00325E+2  -3.27047E+3
  -1.92913E+2  -3.17145E+3
  -3.71045E+1  -3.12741E+3
   1.14510E+1  -3.13315E+3
   1.88131E+2  -3.08324E+3
   1.90116E+2  -3.06408E+3
   3.32326E+2  -2.99036E+3
   4.40608E+2  -2.94543E+3
   5.02747E+2  -2.93002E+3
   6.27365E+2  -2.77222E+3
   7.13746E+2  -2.77519E+3
   7.63997E+2  -2.70486E+3
   8.20624E+2  -2.65210E+3
   8.67083E+2  -2.66575E+3
   1.07714E+3  -2.56648E+3
   1.07784E+3  -2.53661E+3
   1.11609E+3  -2.44551E+3
   1.15231E+3  -2.40984E+3
   1.23376E+3  -2.38023E+3
   1.32004E+3  -2.20145E+3
   1.35927E+3  -2.23857E+3
   1.38884E+3  -2.10583E+3
   1.44745E+3  -2.05725E+3
   1.47064E+3  -2.04892E+3
   1.53593E+3  -2.01827E+3
   1.47899E+3  -1.93129E+3
   1.55105E+3  -1.89978E+3
   1.58852E+3  -1.89031E+3
   1.63571E+3  -1.78685E+3
   1.67988E+3  -1.77679E+3
   1.70575E+3  -1.69613E+3
   1.73082E+3  -1.72224E+3
   1.72719E+3  -1.58530E+3
   1.72111E+3  -1.47914E+3
   1.81538E+3  -1.55024E+3
   1.73833E+3  -1.42048E+3
   1.75205E+3  -1.40484E+3
   1.70902E+3  -1.31247E+3
   1.85403E+3  -1.33016E+3
   1.84510E+3  -1.32812E+3
   1.76706E+3  -1.22361E+3
   1.80464E+3  -1.22084E+3
   1.77435E+3  -1.11350E+3
   1.81693E+3  -1.05727E+3
   1.82504E+3  -1.13167E+3
   1.84649E+3  -1.02563E+3
   1.81019E+3  -9.92617E+2
   1.78861E+3  -9.50029E+2
   1.87753E+3  -9.42753E+2
   1.83248E+3  -8.40720E+2
   1.80591E+3  -8.54904E+2
   1.81493E+3  -7.86739E+2
   1.77564E+3  -7.70265E+2
   1.79866E+3  -7.75833E+2
   1.77778E+3  -7.93603E+2
   1.79689E+3  -7.35704E+2
   1.80198E+3  -6.41520E+2
   1.78641E+3  -6.13505E+2
   1.70146E+3  -5.42343E+2
   1.72906E+3  -6.09547E+2
   1.69253E+3  -4.94063E+2
   1.79515E+3  -4.31842E+2
   1.66764E+3  -4.83204E+2
   1.69582E+3  -4.82568E+2
   1.63544E+3  -4.06620E+2
   1.61246E+3  -4.26628E+2
   1.58885E+3  -3.73591E+2
   1.56775E+3  -3.79611E+2
   1.57746E+3  -2.94381E+2
   1.54628E+3  -2.75159E+2
   1.53078E+3  -2.83118E+2
   1.49964E+3  -2.19709E+2
   1.49125E+3  -2.88000E+2
   1.42748E+3  -2.25425E+2
   1.40003E+3  -1.91150E+2
   1.44539E+3  -2.54980E+2
   1.36854E+3  -1.52921E+2
   1.39025E+3  -1.23307E+2
   1.29943E+3  -9.84995E+1
   1.32306E+3  -1.54173E+2
   1.29020E+3  -1.49196E+2
   1.28349E+3  -9.10455E+1
   1.28565E+3  -9.00393E+1
   1.32246E+3  -4.35870E+1
   1.19793E+3  -3.01498E+1
   1.16101E+3  -9.31072E+0
   1.18343E+3  -4.98039E+1
   1.17045E+3  -4.28319E+1
   1.13973E+3  -5.14775E+1
   1.10903E+3  -8.89052E+1
   1.07644E+3   5.26827E+0
   1.10124E+3  -9.45427E+1
   1.07361E+3  -3.26775E+1
   1.03719E+3   4.48473E+1
   1.03228E+3   9.44632E+0
   9.79212E+2   1.29374E+1
   1.02135E+3   4.30698E+1
   9.78007E+2   8.95429E+1
   9.38105E+2   3.88474E+1
   9.13311E+2   6.72867E+1
   9.05101E+2   5.66096E+1
   9.12297E+2   6.17702E+1
   9.26799E+2   5.29714E+1
   8.88950E+2   1.34724E+2
   8.10664E+2   7.87806E+1
   8.75086E+2   7.30462E+1
   8.20792E+2   5.01058E+1
   8.12121E+2   8.76832E+1
   8.49710E+2   8.66213E+1
   8.05085E+2   1.57774E+2
   7.58183E+2   9.51835E+1
   7.70329E+2   9.54886E+1
   7.57549E+2   1.06980E+2
   7.46437E+2   1.07647E+2
   7.00406E+2   1.71110E+2
   7.96877E+2   1.23521E+2
   7.50508E+2   1.96906E+2
   7.87533E+2   1.62703E+2
   6.78465E+2   1.91103E+2
   7.42113E+2   1.45589E+2
   6.37883E+2   9.77011E+1
   7.05259E+2   1.52712E+2
   6.16522E+2   1.90232E+2
   6.26000E+2   2.19932E+2
   6.90669E+2   2.16933E+2
   5.66388E+2   1.66323E+2
   6.34904E+2   2.32732E+2
   5.82873E+2   2.07681E+2
   5.98811E+2   2.94612E+2
   5.55536E+2   2.21914E+2
   6.07224E+2   2.45568E+2
   5.00486E+2   2.35247E+2
   5.32974E+2   2.19400E+2
   5.46437E+2   2.61899E+2
   5.84494E+2   2.06277E+2
   5.44237E+2   2.72093E+2
   4.52299E+2   2.57581E+2
   4.46887E+2   2.22308E+2
   5.04739E+2   2.67980E+2
   4.66964E+2   2.41543E+2
   5.14032E+2   2.44563E+2
   5.21385E+2   2.87140E+2
   4.65826E+2   1.60070E+2
   4.98786E+2   3.29611E+2
   4.24997E+2   2.30300E+2
   4.01773E+2   2.86364E+2
   4.47926E+2   3.24263E+2
   4.51907E+2   2.31667E+2
   4.58496E+2   3.31550E+2
   4.75850E+2   2.76331E+2
   3.75550E+2   2.59261E+2
   4.27462E+2   3.02863E+2
   4.24483E+2   2.54387E+2
   3.95282E+2   3.00596E+2
   4.27136E+2   3.23399E+2
   3.50906E+2   2.98918E+2
   4.29066E+2   2.66023E+2
   4.07173E+2   2.82080E+2
   3.66858E+2   3.16844E+2
   3.87452E+2   2.72796E+2
   3.77630E+2   3.24183E+2
   3.20234E+2   3.09178E+2
   3.03687E+2   3.47809E+2
   3.67810E+2   2.82639E+2
   3.84649E+2   3.57369E+2
   3.38636E+2   3.22432E+2
   3.56636E+2   3.01151E+2
   3.03033E+2   2.95746E+2
   3.42643E+2   3.31059E+2
   3.30180E+2   3.02368E+2
   3.69208E+2   3.87838E+2
   2.81940E+2   2.94566E+2
   3.22089E+2   2.73258E+2
   3.23095E+2   2.77703E+2
   3.11328E+2   3.17787E+2
   2.53405E+2   3.12219E+2
   3.17401E+2   3.56455E+2
   1.85191E+2   3.16457E+2
   2.82542E+2   2.85885E+2
   2.76461E+2   3.24837E+2
   3.03575E+2   3.46890E+2
   2.92836E+2   3.65473E+2
   3.25278E+2   3.43884E+2
   2.23814E+2   3.26555E+2
   2.91741E+2   2.82364E+2
   2.37710E+2   2.85486E+2
   2.64522E+2   3.16006E+2
   2.28543E+2   3.13843E+2
   2.72323E+2   3.46233E+2
   3.02434E+2   2.63537E+2
   2.52024E+2   2.91700E+2
   2.52277E+2   3.38007E+2
   2.54092E+2   3.26961E+2
   2.68196E+2   3.03582E+2
   2.38448E+2   3.09243E+2
   2.48673E+2   2.82853E+2
   2.45678E+2   3.69092E+2
   2.64310E+2   2.65449E+2
   2.59026E+2   3.32510E+2
   2.49909E+2   3.06314E+2
   2.60045E+2   2.57223E+2
   2.43803E+2   3.30763E+2
