 LCModel (Version 6.3-1N) Copyright: S.W. Provencher.          Ref.: Magn. Reson. Med. 30:672-679 (1993).                
 Slice_N1@20_11  02-Jun-2023 14:37:19
 27 lines in following concentration table = NCONC+1
    Conc.  %SD /Cr+PCr  Metabolite                                         
 2.07E-06  16% 2.8E-04 Mac                                                 
 2.50E-02  39%   3.437 Cr                                                  
 3.32E-02  28%   4.563 PCr                                                 
 7.95E-02  10%  10.913 Ins                                                 
    0.105   6%  14.429 NAA                                                 
 6.30E-02  11%   8.643 Tau                                                 
 6.66E-03 104%   0.914 PCho                                                
 3.92E-03 180%   0.538 GPC                                                 
 8.98E-02  10%  12.322 Glu                                                 
 4.45E-02  16%   6.110 Gln                                                 
    0.000 999%   0.000 Ala                                                 
 2.42E-02  49%   3.319 Asc                                                 
 1.57E-02  49%   2.156 Asp                                                 
 4.19E-03  96%   0.575 GABA                                                
 9.24E-03  57%   1.268 Glc                                                 
 1.02E-02  43%   1.398 GSH                                                 
    0.000 999%   0.000 Lac                                                 
 6.23E-03  76%   0.856 NAAG                                                
 5.72E-04 999% 7.8E-02 PE                                                  
 1.06E-02  23%   1.452 GPC+PCho                                            
    0.111   6%  15.285 NAA+NAAG                                            
    0.134   8%  18.433 Glu+Gln                                             
 5.83E-02  10%   8.000 Cr+PCr                                              
    0.111   6%  15.285 NAA+NAAG                                            
 5.83E-02  10%   8.000 Cr+PCr                                              
    0.134   8%  18.433 Glu+Gln                                             
   6 lines in following misc. output table
  FWHM = 0.029 ppm    S/N =   5                                            
  Data shift = 0.006 ppm                                                   
  Ph: -41 deg     -10.1 deg/ppm                                            
  alphaB,S = 3.1E+01,   3.5E+00                                            
   18 spline knots.   Ns = 5(1)                                            
   2 inflections.     1 extrema                                            
  654 points on ppm-axis = NY
      4.000000     3.994181     3.988363     3.982544     3.976726     3.970907     3.965088     3.959270     3.953451     3.947633
      3.941814     3.935995     3.930177     3.924358     3.918540     3.912721     3.906902     3.901084     3.895265     3.889446
      3.883628     3.877809     3.871991     3.866172     3.860353     3.854535     3.848716     3.842898     3.837079     3.831260
      3.825442     3.819623     3.813805     3.807986     3.802167     3.796349     3.790530     3.784712     3.778893     3.773074
      3.767256     3.761437     3.755619     3.749800     3.743981     3.738163     3.732344     3.726526     3.720707     3.714888
      3.709070     3.703251     3.697433     3.691614     3.685795     3.679977     3.674158     3.668339     3.662521     3.656702
      3.650884     3.645065     3.639246     3.633428     3.627609     3.621791     3.615972     3.610153     3.604335     3.598516
      3.592698     3.586879     3.581060     3.575242     3.569423     3.563605     3.557786     3.551967     3.546149     3.540330
      3.534512     3.528693     3.522874     3.517056     3.511237     3.505419     3.499600     3.493781     3.487963     3.482144
      3.476326     3.470507     3.464688     3.458870     3.453051     3.447232     3.441414     3.435595     3.429777     3.423958
      3.418139     3.412321     3.406502     3.400684     3.394865     3.389046     3.383228     3.377409     3.371591     3.365772
      3.359953     3.354135     3.348316     3.342498     3.336679     3.330860     3.325042     3.319223     3.313405     3.307586
      3.301767     3.295949     3.290130     3.284312     3.278493     3.272674     3.266856     3.261037     3.255219     3.249400
      3.243581     3.237763     3.231944     3.226125     3.220307     3.214488     3.208670     3.202851     3.197032     3.191214
      3.185395     3.179577     3.173758     3.167939     3.162121     3.156302     3.150484     3.144665     3.138846     3.133028
      3.127209     3.121391     3.115572     3.109753     3.103935     3.098116     3.092298     3.086479     3.080660     3.074842
      3.069023     3.063205     3.057386     3.051567     3.045749     3.039930     3.034111     3.028293     3.022474     3.016656
      3.010837     3.005018     2.999200     2.993381     2.987563     2.981744     2.975925     2.970107     2.964288     2.958470
      2.952651     2.946832     2.941014     2.935195     2.929377     2.923558     2.917739     2.911921     2.906102     2.900284
      2.894465     2.888646     2.882828     2.877009     2.871191     2.865372     2.859553     2.853735     2.847916     2.842098
      2.836279     2.830460     2.824642     2.818823     2.813004     2.807186     2.801367     2.795549     2.789730     2.783911
      2.778093     2.772274     2.766456     2.760637     2.754818     2.749000     2.743181     2.737363     2.731544     2.725725
      2.719907     2.714088     2.708270     2.702451     2.696632     2.690814     2.684995     2.679177     2.673358     2.667539
      2.661721     2.655902     2.650084     2.644265     2.638446     2.632628     2.626809     2.620991     2.615172     2.609353
      2.603535     2.597716     2.591897     2.586079     2.580260     2.574442     2.568623     2.562804     2.556986     2.551167
      2.545349     2.539530     2.533711     2.527893     2.522074     2.516256     2.510437     2.504618     2.498800     2.492981
      2.487163     2.481344     2.475525     2.469707     2.463888     2.458070     2.452251     2.446432     2.440614     2.434795
      2.428977     2.423158     2.417339     2.411521     2.405702     2.399884     2.394065     2.388246     2.382428     2.376609
      2.370790     2.364972     2.359153     2.353335     2.347516     2.341697     2.335879     2.330060     2.324242     2.318423
      2.312604     2.306786     2.300967     2.295149     2.289330     2.283511     2.277693     2.271874     2.266056     2.260237
      2.254418     2.248600     2.242781     2.236963     2.231144     2.225325     2.219507     2.213688     2.207870     2.202051
      2.196232     2.190414     2.184595     2.178777     2.172958     2.167139     2.161321     2.155502     2.149683     2.143865
      2.138046     2.132228     2.126409     2.120590     2.114772     2.108953     2.103135     2.097316     2.091497     2.085679
      2.079860     2.074042     2.068223     2.062404     2.056586     2.050767     2.044949     2.039130     2.033311     2.027493
      2.021674     2.015856     2.010037     2.004218     1.998400     1.992581     1.986763     1.980944     1.975126     1.969307
      1.963489     1.957670     1.951852     1.946033     1.940215     1.934397     1.928578     1.922760     1.916941     1.911123
      1.905304     1.899486     1.893667     1.887849     1.882030     1.876212     1.870393     1.864575     1.858756     1.852938
      1.847119     1.841301     1.835482     1.829664     1.823845     1.818027     1.812208     1.806390     1.800571     1.794753
      1.788934     1.783116     1.777297     1.771479     1.765660     1.759842     1.754023     1.748205     1.742386     1.736568
      1.730749     1.724931     1.719113     1.713294     1.707476     1.701657     1.695839     1.690020     1.684202     1.678383
      1.672565     1.666746     1.660928     1.655109     1.649291     1.643472     1.637654     1.631835     1.626017     1.620198
      1.614380     1.608561     1.602743     1.596924     1.591106     1.585287     1.579469     1.573650     1.567832     1.562013
      1.556195     1.550376     1.544558     1.538739     1.532921     1.527102     1.521284     1.515465     1.509647     1.503829
      1.498010     1.492192     1.486373     1.480555     1.474736     1.468918     1.463099     1.457281     1.451462     1.445644
      1.439825     1.434007     1.428188     1.422370     1.416551     1.410733     1.404914     1.399096     1.393277     1.387459
      1.381640     1.375822     1.370003     1.364185     1.358366     1.352548     1.346729     1.340911     1.335092     1.329274
      1.323455     1.317637     1.311818     1.306000     1.300182     1.294363     1.288545     1.282726     1.276908     1.271089
      1.265271     1.259452     1.253634     1.247815     1.241997     1.236178     1.230360     1.224541     1.218723     1.212904
      1.207086     1.201267     1.195449     1.189630     1.183812     1.177993     1.172175     1.166356     1.160538     1.154719
      1.148901     1.143082     1.137264     1.131445     1.125627     1.119808     1.113990     1.108171     1.102353     1.096534
      1.090716     1.084898     1.079079     1.073261     1.067442     1.061624     1.055805     1.049987     1.044168     1.038350
      1.032531     1.026713     1.020894     1.015076     1.009257     1.003439     0.997620     0.991802     0.985983     0.980165
      0.974346     0.968528     0.962709     0.956891     0.951072     0.945254     0.939435     0.933617     0.927798     0.921980
      0.916161     0.910343     0.904524     0.898706     0.892887     0.887069     0.881251     0.875432     0.869614     0.863795
      0.857977     0.852158     0.846340     0.840521     0.834703     0.828884     0.823066     0.817247     0.811429     0.805610
      0.799792     0.793973     0.788155     0.782336     0.776518     0.770699     0.764881     0.759062     0.753244     0.747425
      0.741607     0.735788     0.729970     0.724151     0.718333     0.712514     0.706696     0.700877     0.695059     0.689240
      0.683422     0.677603     0.671785     0.665967     0.660148     0.654330     0.648511     0.642693     0.636874     0.631056
      0.625237     0.619419     0.613600     0.607782     0.601963     0.596145     0.590326     0.584508     0.578689     0.572871
      0.567052     0.561234     0.555415     0.549597     0.543778     0.537960     0.532141     0.526323     0.520504     0.514686
      0.508867     0.503049     0.497230     0.491412     0.485593     0.479775     0.473956     0.468138     0.462319     0.456501
      0.450682     0.444864     0.439045     0.433227     0.427408     0.421590     0.415771     0.409953     0.404134     0.398316
      0.392497     0.386679     0.380860     0.375042     0.369223     0.363405     0.357586     0.351767     0.345949     0.340130
      0.334312     0.328493     0.322675     0.316856     0.311038     0.305219     0.299401     0.293582     0.287764     0.281945
      0.276127     0.270308     0.264490     0.258671     0.252853     0.247034     0.241216     0.235397     0.229579     0.223760
      0.217942     0.212123     0.206305     0.200486
 NY phased data points follow
   1.10552E-01 -8.73645E-02  1.61888E-01  3.36247E-01 -8.63634E-02 -2.30504E-01  2.14181E-01 -3.29834E-01 -2.11838E-01  1.96646E-01
   3.41989E-02  1.52181E-01  2.90278E-01  5.08489E-01  1.92734E-01  1.14629E-01  2.39559E-01  3.42863E-01  1.76600E-01  2.03885E-01
   4.59744E-02  3.65962E-02  1.46430E-01  1.56511E-02  1.47688E-02 -1.67525E-01  6.37614E-02 -2.96179E-01 -4.58851E-01 -2.56281E-01
  -1.05561E-01 -6.61248E-02 -2.44212E-01 -1.54219E-01 -9.36039E-02 -4.54467E-01 -6.00422E-01 -1.17226E-01 -2.25899E-01 -1.07702E-01
  -7.69835E-02 -1.06600E-01  2.20263E-01  4.18199E-01  6.34714E-01  3.91710E-01  3.98640E-01  2.70352E-01  4.93560E-02  3.95857E-01
   2.60952E-01  5.20151E-02  3.35330E-01  6.74855E-02 -1.55075E-01 -1.82080E-01 -2.47055E-01  1.74629E-01 -8.67361E-02 -9.78377E-02
  -7.07636E-02 -5.09517E-01 -9.94394E-02 -2.93523E-01 -3.19918E-01 -9.71538E-02 -5.84852E-02  2.41007E-01  3.72442E-03  1.74996E-01
   3.37661E-01  1.27334E-01  5.72501E-02 -1.13160E-01 -2.56960E-01 -1.31373E-01 -7.24019E-02 -3.31190E-01 -4.42092E-01 -4.45961E-01
  -5.31544E-01 -1.80186E-01  5.74912E-02  1.88133E-01  2.92117E-01  3.21329E-01  7.06845E-01  2.08915E-01  8.72336E-02  2.54342E-01
  -1.34381E-01  3.29053E-02  2.78991E-01  1.07512E-02  1.00661E-01  4.20832E-01 -1.04785E-01 -1.75466E-01 -1.79816E-01 -4.32153E-01
  -2.62257E-01 -2.81292E-01 -3.33282E-01  1.85300E-01  2.99128E-01  3.60858E-01  5.28482E-01  3.25405E-01  5.93958E-01  5.06414E-01
   3.70435E-01  3.44991E-01  4.87399E-01  1.37921E-01  1.02374E-01  5.51350E-01  1.93750E-01  1.01885E-01  7.45640E-03  1.37964E-01
   2.35461E-01 -1.79566E-01 -1.66326E-01  2.08928E-01 -2.69457E-02 -1.78330E-01 -3.07362E-01 -3.35855E-01 -8.48598E-02 -3.17184E-01
  -5.71627E-01 -3.36322E-01 -1.53304E-01 -7.45627E-01 -5.85572E-01 -4.99925E-01 -6.59357E-01 -5.72541E-01 -6.34156E-01 -2.50221E-01
  -3.03127E-01 -1.10649E-01 -9.06244E-02 -2.76042E-01  1.20912E-01 -7.73822E-02  2.70385E-02  2.06963E-01  2.80825E-02  1.67447E-01
   1.63396E-01  3.79140E-01  6.63129E-02  6.53699E-02  2.65247E-01 -1.53884E-01  7.31855E-02  2.44195E-01  3.11275E-01  4.27915E-01
   3.19353E-01  4.74258E-01  6.06436E-01  5.11095E-01  8.77075E-01  8.43016E-01  6.98790E-01  4.84004E-01 -2.44148E-01 -5.00001E-01
  -8.96299E-01 -8.77169E-01 -3.45087E-01 -2.84497E-01 -3.67839E-01 -3.33704E-01 -4.17101E-01 -4.17791E-01 -3.63071E-01 -2.75452E-01
  -2.75228E-01 -3.53399E-01 -3.32643E-01 -4.62611E-01 -2.87653E-01 -1.30164E-02 -6.38780E-02 -1.35687E-01 -1.37305E-01 -3.79540E-01
  -3.20872E-01 -6.34524E-02 -1.80635E-01 -8.57638E-02  1.71273E-01 -8.97991E-02 -2.19079E-01  5.80113E-02 -5.15681E-02 -2.46842E-01
  -1.61932E-01  4.05350E-02 -8.25190E-02  1.43673E-01  6.30785E-02 -3.01354E-01  9.83765E-02 -2.19097E-01 -1.42227E-01  3.45759E-01
  -5.05008E-02 -7.83538E-02 -7.20148E-02 -2.84693E-01 -2.22496E-01  9.23107E-02  6.91740E-02 -7.82516E-02 -3.73863E-02 -1.94499E-01
   1.69574E-01  7.43125E-02 -9.19042E-02  8.03181E-02  2.25701E-01  4.88493E-01  1.80396E-01  3.82099E-01  6.65059E-01  4.21154E-01
   3.30299E-01  5.57942E-01  2.43258E-01  3.85079E-02  3.16887E-01  1.84358E-01  1.15843E-02 -3.45100E-01  8.20753E-03  2.77937E-01
   4.47259E-02  1.04401E-01 -1.03583E-01  2.27235E-01  3.12473E-01 -4.18620E-01 -3.02115E-01 -1.14064E-01 -1.06149E-01  1.08270E-01
  -6.67124E-02  1.04549E-01  2.82188E-02 -3.29900E-01 -5.87861E-02  6.97877E-02  6.33703E-02  1.49891E-01  1.96291E-01  1.60969E-01
  -2.35920E-02  2.22090E-01  2.68944E-01  6.15825E-02  1.58326E-01  1.14135E-01  2.29869E-02  1.84995E-01  3.61457E-01  3.82967E-01
   3.24400E-01  2.11396E-01  4.39203E-01  2.92606E-01  1.05768E-01  1.58448E-01 -4.08504E-02 -1.64664E-01 -6.54388E-02 -1.63438E-02
  -3.88095E-01 -5.74461E-01 -5.41666E-01 -8.87365E-02  1.06809E-01  1.27441E-01  4.49414E-01  5.80938E-01  7.96252E-01  5.84256E-01
   5.17678E-01  5.40140E-01  2.36596E-01  2.44325E-01  1.93594E-01  2.40040E-01  2.29277E-01  4.34439E-01  4.55742E-01 -2.99459E-04
   1.64693E-01  1.09044E-01  2.67087E-01  1.85176E-01  9.06273E-02  3.88453E-01  2.85547E-01  4.48287E-01  3.10039E-01  3.45123E-01
   3.24008E-01  1.92084E-01  2.85225E-01  1.00799E-01  2.77474E-02  1.98201E-01 -9.20965E-02 -3.65444E-01 -3.49440E-01 -4.15551E-01
  -5.08888E-01 -3.74828E-01 -3.87790E-01 -7.62657E-01 -5.41827E-01 -6.55395E-01 -1.33162E-02  1.91514E-01  1.18122E-01  2.54297E-01
  -3.44324E-01  7.72323E-02  5.70104E-02  4.83647E-02 -2.77023E-01 -1.61818E-01  2.37595E-02 -6.34459E-01 -4.68808E-01 -6.07173E-01
  -7.07404E-01 -9.41786E-01 -1.73568E+00 -1.69721E+00 -1.49741E+00 -1.30880E+00 -4.94969E-01 -1.07334E-01 -1.81794E-02 -1.03285E-01
   1.98371E-01 -1.39207E-02 -1.21670E-01  7.52675E-02 -1.52031E-01  1.98656E-01  7.63758E-02  2.55439E-01  1.08690E-01 -3.07879E-02
   2.66137E-01  2.75476E-01  2.61943E-01  1.55301E-01  7.21539E-03 -6.82366E-02  5.64011E-02 -4.59781E-02  1.94301E-01  2.34229E-01
   1.72142E-01  7.37468E-02 -3.96953E-02 -1.74935E-01  6.18393E-02  5.24244E-01  1.91814E-01  1.14604E-01 -1.36136E-01  2.01899E-01
   4.25258E-01 -4.19104E-02  1.88422E-01  2.14403E-01  3.63695E-01  3.01551E-01  1.76003E-01  1.15426E-01  2.28024E-01  5.83825E-01
   1.29120E-01  1.01885E-02  1.14531E-01  1.45746E-01  3.97918E-02  1.26301E-01  3.94192E-01  3.19794E-01  1.81347E-01  1.44537E-01
   4.15095E-01  1.14069E-01 -1.22088E-01 -5.19371E-02  2.46853E-01  1.41698E-01  1.22116E-01  3.63095E-01 -4.63645E-02  2.26016E-02
   4.89274E-02 -2.66140E-01 -1.42875E-01  2.41062E-01  1.16278E-01  1.96307E-01 -9.41529E-02 -3.56408E-01  1.26791E-02  4.03055E-02
  -2.97157E-01 -1.60359E-01  2.09967E-01 -3.40999E-01 -3.26452E-01 -2.77810E-01 -1.05660E-01 -1.86277E-01 -2.01084E-01  2.75610E-03
  -2.18198E-01  1.34122E-01 -1.34859E-01 -9.35484E-02  8.42346E-02  1.03136E-01  1.66799E-01  6.87760E-02  1.81410E-02  8.13011E-02
   4.06649E-02 -3.06710E-01 -8.48704E-02  4.61195E-02  2.42767E-01  6.13134E-02 -9.78944E-02  3.83208E-01  1.91543E-01 -1.78488E-01
   9.88334E-02  2.33671E-01  1.51559E-01  3.09267E-01  2.36244E-02  2.72598E-01  1.20431E-01 -9.96481E-02  1.17893E-01 -3.01231E-01
   2.86999E-01  9.64090E-02  1.47410E-01  4.52634E-01 -9.83143E-02  5.41908E-04 -2.31605E-01 -3.82021E-02 -3.91571E-02 -4.58557E-02
   3.61834E-02 -2.96394E-02 -1.50178E-01 -1.90127E-01 -1.24230E-01 -3.81579E-01 -2.32877E-01 -2.60902E-01 -1.82458E-02 -3.57496E-01
  -2.14616E-01  3.90872E-01  8.75368E-03 -2.70048E-01 -1.88056E-01  1.36746E-01 -6.06104E-02  4.02164E-02 -6.37036E-02 -3.10478E-01
  -2.24923E-01 -7.43017E-02  3.40719E-01  1.45625E-01 -4.70001E-02  4.16266E-02  1.33887E-01  2.61959E-01 -1.94659E-01 -1.48167E-01
   2.97559E-01 -7.35798E-02  3.82878E-02  9.51804E-02  5.35062E-03  7.74241E-02  1.91611E-01  4.07852E-01  3.40117E-01  4.59084E-01
   1.76763E-01  8.85039E-02 -1.52129E-01  6.19487E-02  4.40573E-01  6.29159E-02  1.36446E-01  1.66768E-02  1.51248E-01 -1.20189E-01
  -7.84464E-02  1.32680E-01 -1.68678E-01 -2.54411E-01 -3.88373E-01 -2.14934E-01 -5.11842E-01 -2.51261E-01 -3.43229E-01 -5.13823E-01
  -2.74115E-01 -3.90811E-01 -8.86304E-02 -6.63573E-02 -1.48766E-01 -2.20005E-01  4.42156E-02  9.16898E-02 -2.71271E-01 -4.26312E-01
   9.32187E-02 -9.31521E-03 -1.59847E-01  1.42666E-01 -7.80860E-02  7.38770E-03 -1.50302E-01  8.39447E-02  1.03900E-02  1.05828E-01
   1.54803E-01  1.33267E-01  3.12419E-01 -4.49148E-02  2.37807E-01  4.55977E-02 -4.40248E-02  1.72383E-01  1.49463E-01  3.07305E-01
   2.22954E-01 -6.26457E-03 -1.09005E-01 -7.21700E-02  2.68299E-01  4.23090E-01  2.39679E-01 -9.00217E-02  7.98655E-03  3.90145E-01
   1.85211E-03 -3.29966E-01 -1.46093E-01  1.43912E-01 -4.19272E-02 -3.97511E-02 -1.95029E-01 -2.47097E-02  1.57078E-01 -2.40463E-01
  -1.42478E-02  1.09826E-01  1.31012E-01 -6.53161E-02  5.79245E-02  1.87629E-02 -1.70380E-01 -8.59524E-02  4.99874E-03  2.87730E-02
  -1.01216E-01  2.90312E-02  2.43692E-01  2.28730E-01 -1.15825E-01  4.69509E-02 -1.45935E-02 -6.20888E-03  1.89016E-01  1.09260E-01
   1.64798E-01  4.97870E-02  9.89463E-02  1.82811E-01  4.91982E-02 -8.40090E-02 -8.35212E-02  8.85125E-02  1.50346E-01 -3.84503E-02
  -1.31877E-01 -3.10039E-03  1.38358E-01  2.94286E-03  1.08991E-01  3.79858E-02  1.56135E-01  1.11127E-02 -4.69366E-02  5.15491E-01
   4.01337E-02  2.74088E-01  3.74661E-01  1.73490E-01  3.29657E-01 -2.07998E-01 -5.32831E-02  1.46437E-01 -7.55347E-02  9.86102E-02
  -5.69472E-02 -2.23195E-01 -1.27910E-01 -5.09510E-02  1.93042E-01  2.43162E-01  2.34102E-01 -9.54776E-04  1.43821E-01  1.57365E-01
  -2.80147E-02  1.11338E-01 -2.08541E-02 -1.80333E-04  2.71099E-01  4.81610E-01 -4.20918E-02 -5.25780E-02  4.57288E-01  1.16731E-01
   4.83386E-02 -1.72593E-02 -1.84003E-01  4.04151E-01
 NY points of the fit to the data follow
   1.03316E-01  8.96561E-02  7.14666E-02  4.31415E-02  2.86067E-02  1.96012E-02  1.96836E-02  3.49244E-02  3.69964E-02  8.63264E-02
   1.59626E-01  2.27570E-01  3.45905E-01  4.46279E-01  4.20834E-01  4.25325E-01  3.62319E-01  2.83044E-01  2.56773E-01  1.48079E-01
   7.26020E-02  4.15509E-02  1.36692E-02 -2.19830E-02 -5.71180E-02 -8.66387E-02 -1.08025E-01 -1.23961E-01 -1.36040E-01 -1.48323E-01
  -1.59941E-01 -1.74016E-01 -1.91554E-01 -2.15464E-01 -2.45715E-01 -2.78507E-01 -3.09266E-01 -3.15493E-01 -2.61680E-01 -2.09255E-01
  -1.50157E-02  1.10766E-01  3.02346E-01  4.10149E-01  4.58135E-01  4.92215E-01  4.30691E-01  3.98611E-01  2.97489E-01  2.51575E-01
   1.95029E-01  1.46476E-01  1.07892E-01  5.94801E-02  1.11230E-02 -3.30815E-02 -8.68513E-02 -1.37897E-01 -1.79276E-01 -2.45428E-01
  -2.36035E-01 -2.98837E-01 -2.98396E-01 -1.91220E-01 -2.10610E-01 -8.22796E-03  1.12522E-01  2.06376E-01  3.79765E-01  3.78225E-01
   3.72448E-01  3.23525E-01  2.24322E-01  1.28417E-01  4.19885E-02 -2.64627E-02 -1.70179E-01 -2.83262E-01 -3.52245E-01 -4.73429E-01
  -3.61954E-01 -1.93174E-01 -1.49868E-02  2.38819E-01  3.41039E-01  4.05842E-01  4.55770E-01  4.03607E-01  3.33620E-01  2.83919E-01
   2.46753E-01  2.22001E-01  1.88599E-01  1.52676E-01  1.23716E-01  2.47258E-02  3.20693E-03 -1.84920E-01 -2.20569E-01 -3.47270E-01
  -3.73055E-01 -2.38846E-01 -1.57024E-01  9.08079E-02  2.10948E-01  3.01239E-01  3.25843E-01  3.10946E-01  2.92961E-01  2.88473E-01
   2.84009E-01  2.80623E-01  2.76256E-01  2.71138E-01  2.66182E-01  2.61774E-01  2.56830E-01  2.46281E-01  2.50169E-01  1.93466E-01
   1.78558E-01  1.17539E-01  1.14267E-04 -6.06262E-03 -1.11453E-01 -1.35447E-01 -1.55815E-01 -2.19210E-01 -2.88242E-01 -3.62523E-01
  -4.81772E-01 -5.55685E-01 -4.61574E-01 -5.49506E-01 -4.25369E-01 -5.12402E-01 -6.62091E-01 -6.04057E-01 -5.83080E-01 -3.32486E-01
  -1.22365E-01 -4.24428E-02 -1.29508E-02  1.65476E-02  4.27899E-02  6.55504E-02  8.59476E-02  1.03661E-01  1.20280E-01  1.34526E-01
   1.47557E-01  1.59828E-01  1.72588E-01  1.84998E-01  1.99257E-01  2.14859E-01  2.32285E-01  2.52390E-01  2.75505E-01  3.02431E-01
   3.37222E-01  3.85748E-01  4.50701E-01  4.80644E-01  6.86197E-01  5.47808E-01  5.58392E-01  3.09807E-01 -2.38703E-01 -5.33469E-01
  -8.59753E-01 -7.84532E-01 -5.40608E-01 -3.90549E-01 -3.49125E-01 -3.13315E-01 -2.89366E-01 -2.67920E-01 -2.47504E-01 -2.41264E-01
  -2.26993E-01 -2.16362E-01 -2.03472E-01 -1.91390E-01 -1.88252E-01 -1.84587E-01 -1.78711E-01 -1.70322E-01 -1.61735E-01 -1.52908E-01
  -1.44601E-01 -1.36352E-01 -1.26506E-01 -1.17551E-01 -1.08083E-01 -9.95836E-02 -9.12958E-02 -8.24172E-02 -7.42070E-02 -6.39542E-02
  -5.28315E-02 -4.10725E-02 -3.10133E-02 -2.36640E-02 -2.29778E-02 -2.47678E-02 -2.58222E-02 -2.48417E-02 -1.80100E-02 -2.31227E-02
  -3.76738E-02 -5.57581E-02 -6.71735E-02 -6.55404E-02 -5.73138E-02 -4.88887E-02 -4.42725E-02 -3.76276E-02 -3.48896E-02 -3.30097E-02
  -2.05543E-02 -1.87913E-02  3.12765E-02  8.93258E-02  1.50379E-01  2.55324E-01  2.89685E-01  3.15421E-01  3.23157E-01  2.84884E-01
   3.44515E-01  3.54157E-01  2.92154E-01  1.87547E-01  3.58714E-02 -3.87994E-02 -6.34254E-02 -7.74149E-02 -8.97058E-02 -9.96322E-02
  -1.09938E-01 -1.19719E-01 -1.25810E-01 -1.35456E-01 -1.35215E-01 -1.44676E-01 -1.44103E-01 -1.49007E-01 -1.55444E-01 -1.53343E-01
  -1.71179E-01 -1.76331E-01 -1.86402E-01 -2.32131E-01 -1.88581E-01 -2.06828E-01 -1.72311E-01 -5.63730E-02 -4.89183E-02  4.83252E-02
   6.86633E-02  8.00217E-02  1.34212E-01  1.00029E-01  1.07348E-01  1.04742E-01  9.57732E-02  1.61235E-01  1.36245E-01  1.85100E-01
   2.19788E-01  2.04687E-01  2.03554E-01  1.36513E-01  8.39756E-02  1.54795E-02 -4.84043E-02 -1.01891E-01 -1.93277E-01 -2.46760E-01
  -3.22980E-01 -3.83221E-01 -3.18229E-01 -2.73432E-01 -7.48435E-02  1.40436E-01  3.00475E-01  4.78226E-01  5.14131E-01  5.00960E-01
   4.57979E-01  3.75299E-01  3.30625E-01  2.95654E-01  2.73444E-01  2.64669E-01  2.52132E-01  2.50372E-01  2.44022E-01  2.35762E-01
   2.26969E-01  2.18333E-01  2.10043E-01  2.01638E-01  1.93386E-01  1.83791E-01  1.71094E-01  1.56756E-01  1.40168E-01  1.12392E-01
   9.55044E-02  6.07161E-02  3.88851E-02  9.51869E-03 -3.18077E-02 -6.25043E-02 -1.41044E-01 -1.87135E-01 -2.96560E-01 -3.65028E-01
  -4.46730E-01 -5.20071E-01 -5.17992E-01 -5.18448E-01 -4.24769E-01 -3.13513E-01 -1.72323E-01 -4.56156E-02  4.70583E-02  8.49398E-02
   5.39627E-02  3.10262E-02 -7.40378E-02 -9.08977E-02 -1.92999E-01 -2.04474E-01 -2.37440E-01 -3.28496E-01 -2.29709E-01 -4.91682E-01
  -7.20339E-01 -1.03659E+00 -1.67004E+00 -1.83642E+00 -1.68217E+00 -1.20029E+00 -4.90269E-01 -1.51909E-01 -8.90205E-02 -6.95743E-02
  -3.98052E-02 -1.62769E-02  2.57638E-03  1.60080E-02  2.70538E-02  3.48446E-02  4.17769E-02  4.48342E-02  4.62143E-02  4.59906E-02
   3.88154E-02  3.59660E-02  2.75044E-02  2.26405E-02  2.02954E-02  1.81210E-02  2.21338E-02  2.69919E-02  3.43958E-02  4.14164E-02
   4.84900E-02  5.50634E-02  6.14521E-02  6.82153E-02  7.29778E-02  7.71381E-02  8.04728E-02  8.33270E-02  8.66965E-02  9.04673E-02
   9.31656E-02  9.58918E-02  9.84986E-02  1.00365E-01  1.03880E-01  1.05361E-01  1.07911E-01  1.08792E-01  1.10323E-01  1.12825E-01
   1.15218E-01  1.18798E-01  1.20313E-01  1.21228E-01  1.20237E-01  1.17965E-01  1.15498E-01  1.12734E-01  1.09659E-01  1.06124E-01
   1.01715E-01  9.57143E-02  9.00254E-02  8.33973E-02  7.69696E-02  7.06364E-02  6.43484E-02  5.92645E-02  5.35285E-02  4.85117E-02
   4.34835E-02  3.86599E-02  3.52568E-02  3.20556E-02  2.88597E-02  2.63174E-02  2.34276E-02  2.05044E-02  1.82383E-02  1.57779E-02
   1.41952E-02  1.32569E-02  1.22852E-02  1.27883E-02  1.37381E-02  1.60130E-02  1.86294E-02  2.25696E-02  2.62530E-02  3.03306E-02
   3.49480E-02  3.74456E-02  4.08349E-02  4.31362E-02  4.72125E-02  5.28433E-02  5.99889E-02  6.73013E-02  7.42110E-02  8.12229E-02
   8.91396E-02  9.85489E-02  1.08303E-01  1.19478E-01  1.29529E-01  1.40163E-01  1.50115E-01  1.59516E-01  1.67522E-01  1.73475E-01
   1.77619E-01  1.78575E-01  1.79433E-01  1.78161E-01  1.76103E-01  1.73372E-01  1.67871E-01  1.61356E-01  1.52421E-01  1.42768E-01
   1.32570E-01  1.23562E-01  1.13803E-01  1.05556E-01  9.64719E-02  8.78141E-02  8.08861E-02  7.34584E-02  6.79081E-02  6.20642E-02
   5.69806E-02  5.26766E-02  4.91412E-02  4.65221E-02  4.45510E-02  4.43255E-02  4.54284E-02  4.78084E-02  5.06494E-02  5.40325E-02
   5.80607E-02  6.21914E-02  6.76052E-02  7.22837E-02  7.69614E-02  8.02756E-02  8.25905E-02  8.47050E-02  8.61522E-02  8.85002E-02
   9.05420E-02  9.16018E-02  9.24469E-02  9.11432E-02  8.88271E-02  8.71066E-02  8.38422E-02  8.09846E-02  7.77147E-02  7.43797E-02
   7.16712E-02  6.86484E-02  6.53268E-02  6.18666E-02  5.84482E-02  5.46040E-02  5.12837E-02  4.74770E-02  4.44065E-02  4.20412E-02
   3.93483E-02  3.65151E-02  3.27326E-02  2.80564E-02  2.29021E-02  1.66788E-02  9.64309E-03  1.84131E-03 -6.44260E-03 -1.64390E-02
  -2.79909E-02 -4.21316E-02 -5.79437E-02 -7.36011E-02 -8.91631E-02 -1.03531E-01 -1.16788E-01 -1.29641E-01 -1.41104E-01 -1.50309E-01
  -1.58110E-01 -1.63141E-01 -1.65088E-01 -1.64712E-01 -1.62061E-01 -1.58352E-01 -1.53114E-01 -1.46374E-01 -1.39231E-01 -1.32676E-01
  -1.26085E-01 -1.20272E-01 -1.12493E-01 -1.04203E-01 -9.54939E-02 -8.50593E-02 -7.60746E-02 -6.52669E-02 -5.59588E-02 -4.63199E-02
  -3.69429E-02 -2.87024E-02 -1.98844E-02 -1.17525E-02 -4.64513E-03  2.75467E-03  8.75105E-03  1.43130E-02  2.07572E-02  2.50252E-02
   2.94070E-02  3.28426E-02  3.58959E-02  3.92998E-02  4.18827E-02  4.37444E-02  4.51648E-02  4.66018E-02  4.81363E-02  4.90613E-02
   4.99555E-02  5.15615E-02  5.31385E-02  5.55543E-02  5.76528E-02  5.92429E-02  6.01406E-02  6.05302E-02  6.08848E-02  6.05073E-02
   6.07087E-02  6.11222E-02  6.04978E-02  6.07227E-02  6.09925E-02  6.05181E-02  6.14281E-02  6.20907E-02  6.22125E-02  6.26923E-02
   6.19890E-02  6.00151E-02  5.89962E-02  5.85225E-02  5.93086E-02  6.05952E-02  6.02130E-02  6.00753E-02  5.87932E-02  5.86091E-02
   5.81546E-02  5.82970E-02  6.00370E-02  6.12696E-02  6.27653E-02  6.35175E-02  6.42433E-02  6.56631E-02  6.66358E-02  6.80388E-02
   6.84225E-02  6.91285E-02  6.93388E-02  6.85441E-02  6.85492E-02  6.86445E-02  6.96141E-02  7.18331E-02  7.26454E-02  7.37677E-02
   7.54103E-02  7.53616E-02  7.81217E-02  8.01768E-02  8.19869E-02  8.44186E-02  8.32387E-02  8.27410E-02  8.23987E-02  8.26805E-02
   8.43541E-02  8.55040E-02  8.59073E-02  8.60611E-02  8.66118E-02  8.68853E-02  8.86275E-02  8.93309E-02  9.02058E-02  9.17936E-02
   9.34448E-02  9.53525E-02  9.69307E-02  9.83323E-02  9.92599E-02  1.01810E-01  1.04465E-01  1.07158E-01  1.11862E-01  1.15656E-01
   1.20352E-01  1.23579E-01  1.26352E-01  1.29533E-01
 NY background values follow
     6.325E-02    6.308E-02    6.291E-02    6.274E-02    6.257E-02    6.240E-02    6.223E-02    6.206E-02    6.189E-02    6.172E-02
     6.155E-02    6.138E-02    6.121E-02    6.104E-02    6.087E-02    6.070E-02    6.053E-02    6.036E-02    6.019E-02    6.002E-02
     5.985E-02    5.968E-02    5.951E-02    5.934E-02    5.917E-02    5.900E-02    5.883E-02    5.866E-02    5.849E-02    5.832E-02
     5.815E-02    5.798E-02    5.781E-02    5.764E-02    5.747E-02    5.730E-02    5.713E-02    5.696E-02    5.679E-02    5.662E-02
     5.645E-02    5.628E-02    5.611E-02    5.594E-02    5.577E-02    5.559E-02    5.542E-02    5.525E-02    5.508E-02    5.491E-02
     5.474E-02    5.457E-02    5.440E-02    5.423E-02    5.406E-02    5.389E-02    5.372E-02    5.355E-02    5.338E-02    5.321E-02
     5.304E-02    5.287E-02    5.270E-02    5.252E-02    5.235E-02    5.218E-02    5.201E-02    5.184E-02    5.167E-02    5.150E-02
