 
 $NMID
 ID=''
 FMTDAT='(2E13.5)'
 TRAMP=   1.00000E+0
 VOLUME=   1.00000E+0
 $END
  -1.11611E+4   6.53115E+3
  -3.35239E+4   7.79353E+3
  -3.29525E+4   1.24676E+4
  -3.16269E+4   1.04134E+4
  -3.37961E+4   9.14290E+3
  -3.37650E+4   9.26013E+3
  -3.31594E+4   7.20402E+3
  -3.40179E+4   5.60566E+3
  -3.40100E+4   5.00091E+3
  -3.33211E+4   3.16972E+3
  -3.35967E+4   1.62134E+3
  -3.32426E+4   9.28449E+2
  -3.26606E+4  -5.29244E+2
  -3.26234E+4  -2.12128E+3
  -3.21187E+4  -2.92732E+3
  -3.13876E+4  -4.22871E+3
  -3.12537E+4  -5.65642E+3
  -3.06148E+4  -6.37434E+3
  -2.99747E+4  -7.55170E+3
  -2.95434E+4  -8.68066E+3
  -2.88963E+4  -9.43778E+3
  -2.81620E+4  -1.04523E+4
  -2.77253E+4  -1.15727E+4
  -2.68554E+4  -1.23616E+4
  -2.59860E+4  -1.33031E+4
  -2.52709E+4  -1.42189E+4
  -2.44415E+4  -1.49704E+4
  -2.34258E+4  -1.58567E+4
  -2.25442E+4  -1.67350E+4
  -2.16011E+4  -1.73032E+4
  -2.05737E+4  -1.79187E+4
  -1.96358E+4  -1.86739E+4
  -1.87121E+4  -1.90840E+4
  -1.76015E+4  -1.96918E+4
  -1.65481E+4  -2.01008E+4
  -1.55637E+4  -2.04505E+4
  -1.44598E+4  -2.08254E+4
  -1.34544E+4  -2.11684E+4
  -1.24619E+4  -2.12949E+4
  -1.13371E+4  -2.16111E+4
  -1.02589E+4  -2.17555E+4
  -9.17262E+3  -2.17697E+4
  -8.02781E+3  -2.18546E+4
  -6.99186E+3  -2.18320E+4
  -6.01822E+3  -2.17664E+4
  -4.93994E+3  -2.15832E+4
  -3.89712E+3  -2.15314E+4
  -2.88049E+3  -2.13488E+4
  -1.93625E+3  -2.11339E+4
  -9.74901E+2  -2.08674E+4
   5.82589E+1  -2.05202E+4
   8.98856E+2  -2.01334E+4
   1.84065E+3  -1.97381E+4
   2.70912E+3  -1.93542E+4
   3.65119E+3  -1.88094E+4
   4.52550E+3  -1.82875E+4
   5.31810E+3  -1.76631E+4
   6.18693E+3  -1.70073E+4
   6.81069E+3  -1.63065E+4
   7.55191E+3  -1.55404E+4
   8.12076E+3  -1.47354E+4
   8.73657E+3  -1.39222E+4
   9.25658E+3  -1.31721E+4
   9.80228E+3  -1.22496E+4
   1.02053E+4  -1.14332E+4
   1.05784E+4  -1.04551E+4
   1.09452E+4  -9.70429E+3
   1.11808E+4  -8.72017E+3
   1.12433E+4  -7.72342E+3
   1.15009E+4  -6.79822E+3
   1.14190E+4  -5.90214E+3
   1.14984E+4  -5.00616E+3
   1.14549E+4  -4.03654E+3
   1.12900E+4  -3.24542E+3
   1.11639E+4  -2.45774E+3
   1.09384E+4  -1.63262E+3
   1.07483E+4  -7.53454E+2
   1.03122E+4  -1.64417E+2
   1.00768E+4   6.35896E+2
   9.63089E+3   1.25480E+3
   9.22084E+3   1.88764E+3
   8.79746E+3   2.40592E+3
   8.33585E+3   3.03365E+3
   7.80674E+3   3.47509E+3
   7.29218E+3   3.94919E+3
   6.73229E+3   4.32308E+3
   6.10217E+3   4.68431E+3
   5.58846E+3   4.95833E+3
   5.02620E+3   5.19649E+3
   4.52771E+3   5.37162E+3
   3.94313E+3   5.56378E+3
   3.32203E+3   5.65449E+3
   2.86936E+3   5.70704E+3
   2.29160E+3   5.72599E+3
   1.75132E+3   5.74192E+3
   1.23810E+3   5.62778E+3
   7.04499E+2   5.52882E+3
   2.09438E+2   5.44077E+3
  -2.36718E+2   5.16163E+3
  -6.58458E+2   4.96426E+3
  -1.06343E+3   4.75694E+3
  -1.39068E+3   4.47881E+3
  -1.82470E+3   4.17828E+3
  -2.08420E+3   3.83692E+3
  -2.32207E+3   3.52708E+3
  -2.55925E+3   3.17406E+3
  -2.75843E+3   2.79268E+3
  -2.89123E+3   2.45580E+3
  -3.04582E+3   2.02682E+3
  -3.15760E+3   1.59409E+3
  -3.15084E+3   1.28007E+3
  -3.18755E+3   9.03124E+2
  -3.23772E+3   5.58883E+2
  -3.18276E+3   1.70935E+2
  -3.04068E+3  -1.47949E+2
  -2.97378E+3  -5.11501E+2
  -2.84970E+3  -8.36434E+2
  -2.63303E+3  -1.08314E+3
  -2.49978E+3  -1.38979E+3
  -2.30573E+3  -1.59667E+3
  -2.06747E+3  -1.78527E+3
  -1.87630E+3  -2.03283E+3
  -1.75005E+3  -2.18457E+3
  -1.39765E+3  -2.36106E+3
  -1.16942E+3  -2.45579E+3
  -1.00715E+3  -2.58175E+3
  -7.38399E+2  -2.62123E+3
  -5.23367E+2  -2.74243E+3
  -3.27721E+2  -2.79592E+3
  -1.04770E+2  -2.80334E+3
   1.06703E+2  -2.80451E+3
   3.37669E+2  -2.75701E+3
   5.63810E+2  -2.67481E+3
   7.14988E+2  -2.64129E+3
   9.08970E+2  -2.55602E+3
   1.09548E+3  -2.47485E+3
   1.30107E+3  -2.36774E+3
   1.35121E+3  -2.27048E+3
   1.54961E+3  -2.15169E+3
   1.63024E+3  -2.02248E+3
   1.70278E+3  -1.83546E+3
   1.77157E+3  -1.71752E+3
   1.82942E+3  -1.58003E+3
   1.91810E+3  -1.40379E+3
   1.91267E+3  -1.26393E+3
   1.92607E+3  -1.09535E+3
   1.93344E+3  -9.33918E+2
   1.88682E+3  -8.77035E+2
   1.84343E+3  -7.16742E+2
   1.80630E+3  -5.76841E+2
   1.75415E+3  -4.48080E+2
   1.68005E+3  -3.61291E+2
   1.54815E+3  -1.90345E+2
   1.48249E+3  -1.59257E+2
   1.37435E+3  -3.27348E+0
   1.37070E+3  -7.31473E+1
   1.19375E+3   1.22441E+2
   1.10800E+3   1.60391E+2
   1.06190E+3   2.44292E+2
   9.23798E+2   2.83627E+2
   8.14477E+2   3.99970E+2
   7.28949E+2   3.32638E+2
   5.81711E+2   4.44850E+2
   5.50199E+2   4.00300E+2
   3.77517E+2   4.72890E+2
   3.07024E+2   4.49696E+2
   2.15990E+2   4.03996E+2
   1.05410E+2   3.91651E+2
   8.13287E+1   4.00622E+2
  -7.95129E+1   3.71425E+2
  -1.24635E+2   3.19618E+2
  -1.87019E+2   2.54222E+2
  -3.23743E+2   2.50324E+2
  -2.58665E+2   2.45635E+2
  -3.64183E+2   2.12865E+2
  -4.03717E+2   2.37173E+2
  -4.82031E+2   1.49816E+2
  -5.04383E+2   3.23229E+1
  -5.52052E+2   1.37341E+2
  -5.67731E+2  -1.76940E+1
  -5.95673E+2  -1.73269E+1
  -6.46933E+2  -7.30731E+1
  -7.15586E+2  -7.73732E+1
  -7.14324E+2  -8.04255E+1
  -6.65295E+2  -1.49678E+2
  -6.89259E+2  -1.93437E+2
  -6.89175E+2  -2.16321E+2
  -6.89406E+2  -2.30751E+2
  -6.05549E+2  -2.72375E+2
  -6.44117E+2  -2.98780E+2
  -6.91341E+2  -2.51492E+2
  -6.91634E+2  -3.64128E+2
  -6.79347E+2  -3.12428E+2
  -6.82039E+2  -3.59836E+2
  -6.47704E+2  -3.35523E+2
  -6.16552E+2  -3.98348E+2
  -6.17198E+2  -3.75464E+2
  -6.23883E+2  -3.23120E+2
  -5.98801E+2  -2.47363E+2
  -5.58115E+2  -3.16980E+2
  -5.52766E+2  -3.09550E+2
  -4.72180E+2  -3.41051E+2
  -5.25408E+2  -3.22390E+2
  -5.63945E+2  -3.36992E+2
  -4.74282E+2  -3.37466E+2
  -5.52867E+2  -2.60379E+2
  -5.17842E+2  -2.96024E+2
  -5.23133E+2  -3.27358E+2
  -5.93218E+2  -2.47635E+2
  -4.99335E+2  -1.87150E+2
  -5.34968E+2  -2.33274E+2
  -5.76993E+2  -1.84178E+2
  -5.48471E+2  -1.42811E+2
  -5.39694E+2  -1.53440E+2
  -5.47271E+2  -1.21756E+2
  -5.41119E+2  -1.26689E+2
  -5.57602E+2  -1.27783E+2
  -4.67780E+2  -7.14616E+1
  -5.60469E+2  -8.38888E+1
  -6.02778E+2  -1.00676E+2
  -6.16613E+2  -1.01489E+2
  -4.91401E+2  -9.02224E+1
  -5.41840E+2  -4.94873E+1
  -6.36738E+2  -9.50001E+1
  -5.64305E+2  -3.74796E+1
  -5.69715E+2   3.66023E+1
  -6.28589E+2  -3.78270E+1
  -6.01306E+2  -3.89508E+1
  -5.62978E+2  -5.83691E+1
  -6.09575E+2  -4.85835E+1
  -6.61918E+2   3.33072E+1
  -5.85279E+2  -2.86112E+1
  -5.56135E+2  -7.34215E+1
  -6.02960E+2  -7.35614E+1
  -6.88147E+2  -1.03582E+2
  -6.05323E+2  -3.23952E+1
  -6.45802E+2  -4.46671E+1
  -6.57544E+2  -1.64938E+1
  -5.66695E+2  -6.78692E+1
  -6.44401E+2  -1.15628E+2
  -5.95524E+2  -3.40249E+1
  -6.91203E+2  -5.78330E+1
  -6.75289E+2  -2.03094E+2
  -6.50812E+2  -6.65975E+1
  -6.72550E+2  -1.17331E+2
  -6.49098E+2  -8.94787E+1
  -6.28581E+2  -1.20081E+2
  -5.75669E+2  -1.13963E+2
  -6.40625E+2  -1.28558E+2
  -6.05209E+2  -1.28731E+2
  -6.29629E+2  -1.57766E+2
  -5.57413E+2  -1.22348E+2
  -5.99052E+2  -1.53106E+2
  -5.44945E+2  -1.50414E+2
  -6.15023E+2  -9.59943E+1
  -5.97700E+2  -1.49293E+2
  -5.36730E+2  -1.59382E+2
  -5.43496E+2  -1.62620E+2
  -5.81833E+2  -1.44860E+2
  -5.25194E+2  -1.32459E+2
  -5.22121E+2  -1.73099E+2
  -5.15347E+2  -1.28016E+2
  -5.78966E+2  -1.88270E+2
  -5.02562E+2  -1.60345E+2
  -5.20061E+2  -1.10378E+2
  -5.04271E+2  -1.74942E+2
  -5.47746E+2  -1.53921E+2
  -4.99157E+2  -1.33091E+2
  -5.68778E+2  -7.92319E+1
  -5.08354E+2  -1.54495E+2
  -4.48994E+2  -1.57941E+2
  -5.28241E+2  -1.46014E+2
  -5.10137E+2  -1.17387E+2
  -5.08429E+2  -1.63152E+2
  -5.13739E+2  -1.19514E+2
  -4.67685E+2  -1.83112E+2
  -4.95439E+2  -1.24866E+2
  -5.14775E+2  -1.94640E+2
  -5.31064E+2  -1.21056E+2
  -4.89051E+2  -1.25723E+2
  -4.78421E+2  -1.48306E+2
  -4.88765E+2  -1.97017E+2
  -4.80869E+2  -1.62043E+2
  -5.59663E+2  -1.62085E+2
  -4.50043E+2  -1.15386E+2
  -5.11038E+2  -7.99600E+1
  -4.53656E+2  -1.18465E+2
  -4.57504E+2  -1.56876E+2
  -4.07942E+2  -1.95044E+2
  -4.67565E+2  -1.40160E+2
  -4.96067E+2  -1.20183E+2
  -4.15990E+2  -1.49199E+2
  -4.44382E+2  -1.52595E+2
  -4.62993E+2  -1.55999E+2
  -5.07748E+2  -1.06937E+2
  -4.73420E+2  -1.48421E+2
  -4.48194E+2  -1.59578E+2
  -5.17820E+2  -1.27211E+2
  -5.11620E+2  -2.05304E+2
  -4.73448E+2  -1.19150E+2
  -4.94691E+2  -2.23119E+2
  -4.44503E+2  -1.40278E+2
  -3.67508E+2  -1.34212E+2
  -3.94204E+2  -1.56646E+2
  -5.02256E+2  -1.76332E+2
  -4.20478E+2  -1.57362E+2
  -3.70510E+2  -1.85641E+2
  -4.52222E+2  -1.76148E+2
  -3.90550E+2  -1.39952E+2
  -3.91656E+2  -1.65053E+2
  -3.97791E+2  -1.46819E+2
  -4.20545E+2  -1.67096E+2
  -4.36758E+2  -1.91762E+2
  -3.80806E+2  -1.90949E+2
  -4.18352E+2  -1.10020E+2
  -3.94580E+2  -1.48479E+2
  -4.15894E+2  -1.44513E+2
  -3.51704E+2  -2.41601E+2
  -4.13007E+2  -1.62091E+2
  -3.88406E+2  -2.07397E+2
  -3.27418E+2  -1.04274E+2
  -3.19304E+2  -1.32716E+2
  -4.14051E+2  -1.73251E+2
  -3.33261E+2  -9.99781E+1
  -3.53284E+2  -1.37941E+2
  -3.32031E+2  -1.26531E+2
  -3.74540E+2  -1.36396E+2
  -3.37853E+2  -1.38411E+2
  -2.96595E+2  -8.88084E+1
  -3.59506E+2  -1.36797E+2
  -3.94825E+2  -8.63833E+1
  -2.99353E+2  -1.82823E+2
  -4.07198E+2  -5.79349E+1
  -3.06568E+2  -8.32301E+1
  -2.37254E+2  -1.17570E+2
  -3.89405E+2  -3.72268E+1
  -3.48457E+2  -8.81646E+1
  -3.10537E+2  -1.53806E+2
  -2.84380E+2  -1.16366E+2
  -3.19721E+2  -1.21277E+2
  -3.15370E+2  -7.11366E+1
  -3.35203E+2  -1.34612E+2
  -2.94569E+2  -4.81810E+1
  -3.08224E+2  -3.73168E+1
  -2.86773E+2  -8.45728E+1
  -3.42289E+2  -1.07980E+2
  -3.38857E+2  -5.31006E+1
  -3.43867E+2  -1.03747E+2
  -3.47725E+2  -9.57151E+1
  -2.91371E+2  -5.44324E+1
  -2.61002E+2  -8.58367E+1
  -3.37325E+2  -1.18085E+2
  -2.99642E+2  -8.37392E+1
  -2.92279E+2  -5.31290E+1
  -2.86815E+2  -6.00867E+1
  -3.01103E+2  -6.78850E+1
  -2.98535E+2   2.52065E+1
  -2.63282E+2  -8.51051E+1
  -3.50974E+2  -2.67313E+1
  -3.07950E+2  -1.01651E+2
  -2.99247E+2  -7.20525E+1
  -2.92105E+2  -5.31721E+1
  -3.18038E+2  -8.33120E+1
  -2.58908E+2  -3.58479E+1
  -2.54686E+2  -9.47151E+1
  -2.86549E+2  -2.30955E+1
  -2.77232E+2   2.83019E+1
