 
 $NMID
 ID=''
 FMTDAT='(2E13.5)'
 TRAMP=   1.00000E+0
 VOLUME=   1.00000E+0
 $END
   7.30535E+2  -3.54054E+2
  -1.14168E+2   2.15019E+3
   3.73962E+3  -5.24577E+3
  -7.47738E+2  -1.66845E+3
  -2.31215E+3   7.48231E+2
   6.48896E+2  -9.31654E+2
  -1.88737E+3   1.58917E+3
  -3.28822E+3  -1.59085E+3
  -1.26356E+3  -3.37733E+3
   1.52298E+3  -2.73091E+3
   1.19049E+3  -2.49639E+3
   9.35766E+2   2.20883E+3
  -3.94786E+3   3.54303E+3
  -8.46227E+3   1.43361E+3
  -5.65270E+3  -1.44720E+3
  -1.15934E+3  -2.72265E+2
   6.73319E+2   5.06477E+3
   4.41651E+2   3.26894E+3
  -5.88277E+2   5.29159E+3
   6.65711E+2   1.05570E+3
   3.90803E+3   2.90608E+3
   2.74103E+3   8.48229E+3
  -2.03196E+3   4.11903E+3
   2.01909E+3  -4.99902E+3
   5.50745E+3  -2.13361E+3
   3.13391E+3   5.02796E+3
  -3.10989E+3  -1.16811E+3
   5.76431E+1  -3.98726E+3
   3.46460E+3  -3.20440E+3
   7.96854E+3  -7.67588E+2
   3.70048E+3   3.89444E+3
  -3.78565E+3   4.60835E+3
  -6.07508E+3  -2.83385E+3
   1.86485E+3  -3.26007E+3
  -1.82076E+3  -4.53634E+2
  -3.53514E+3  -4.08009E+3
   2.66029E+3  -5.68601E+3
   4.85490E+3   2.69721E+3
   8.94278E+2   3.69971E+3
  -1.09720E+3   1.06863E+3
  -3.85519E+3   2.41922E+3
  -5.39413E+3  -2.35376E+3
  -5.69251E+2  -5.74462E+3
   4.97923E+3  -1.79978E+3
   3.04753E+3   2.12607E+3
   2.46557E+3   3.40744E+2
   2.10433E+3   2.68118E+3
  -1.94288E+3   2.36221E+3
  -2.09736E+3   3.11344E+3
  -3.52914E+3  -2.12295E+3
  -2.03756E+3  -2.19741E+3
   1.04795E+3  -5.02262E+3
   3.20937E+3  -1.15658E+3
   1.54122E+3   2.80769E+3
  -3.04408E+3   1.54701E+3
  -2.89136E+3   9.48620E+2
  -2.92262E+3  -8.52633E+1
  -4.84918E+3  -2.93434E+3
  -1.28921E+1  -5.98623E+3
   4.81933E+3  -2.75595E+3
   5.99844E+3  -7.69468E+2
   3.77791E+3   3.17433E+3
  -3.24637E+3   4.15972E+3
  -2.58637E+3  -2.70350E+3
  -6.39744E+2  -1.74459E+3
   1.51227E+3   1.00023E+3
  -7.09231E+2   2.67591E+3
  -1.90682E+3  -4.67367E+2
  -9.81552E+2  -3.27294E+3
   5.64199E+2  -1.83643E+3
  -1.13556E+3   3.90578E+2
  -1.53005E+3  -1.66910E+3
  -1.10615E+3  -3.60628E+3
   3.02534E+3  -4.06264E+3
   2.82832E+3  -2.92584E+3
   1.29777E+3  -3.91461E+2
   9.29600E+2  -1.81960E+3
   1.72740E+3  -1.93734E+3
   3.14473E+3   2.44019E+2
   1.91770E+3  -2.92766E+2
  -7.87371E+2   6.06216E+1
   2.16464E+3  -1.41467E+3
   1.62582E+3  -9.17774E+2
  -1.86904E+3   1.86697E+3
  -4.51260E+3  -5.75967E+2
  -3.03991E+3  -4.14017E+3
  -1.25196E+2  -4.19972E+3
   4.92424E+3  -2.88666E+3
   3.62753E+3   2.01969E+3
  -1.22048E+2   1.50318E+3
  -8.49936E+2  -4.65814E+2
   1.25651E+3   1.30815E+3
  -5.76328E+2   2.44798E+3
  -3.97963E+3   1.82560E+3
  -1.62208E+3  -2.36958E+3
   2.59652E+3  -3.23536E+3
   5.89067E+3   4.28255E+2
  -9.51672E+1   4.66734E+3
  -3.50369E+3   3.37924E+3
  -1.64308E+3  -9.61373E+2
   3.02217E+3  -2.41967E+3
   5.57523E+3   1.73556E+3
  -1.93987E+2   4.29500E+3
  -4.17390E+3   2.93838E+3
  -2.41200E+3   5.39576E+2
  -8.53390E+2   4.73582E+2
  -1.81485E+3   5.12485E+2
  -1.31892E+3  -7.81219E+2
  -1.67164E+3  -2.96256E+3
   3.18520E+3  -2.36858E+3
   4.89339E+3   1.18994E+2
   1.86176E+3   4.29530E+3
  -9.00259E+0   3.10220E+3
   5.22330E+1   2.50695E+3
  -2.92914E+3   3.93342E+2
  -3.71425E+3  -8.19170E+1
  -1.31469E+3   7.05630E+2
  -9.28523E+2  -1.38084E+3
   1.94779E+3   2.41220E+2
   8.33147E+1   3.06440E+3
   2.59644E+2   1.16032E+3
  -2.91500E+2   8.88591E+2
   1.50606E+3  -2.21450E+3
   3.04668E+3  -6.65541E+2
  -4.36417E+2   2.70510E+3
   2.65037E+2   6.93568E+2
  -1.24815E+3   2.44543E+3
   4.92930E+2   2.52961E+3
  -1.84839E+3   1.12064E+3
  -3.17591E+3   9.10725E+1
  -2.25312E+1  -9.29581E+2
   2.91952E+2  -1.03775E+3
   3.92638E+3   1.91727E+3
  -2.66283E+2   3.75654E+3
  -4.74188E+3   2.58103E+3
  -2.52320E+3   1.15007E+2
  -1.44671E+3  -1.79021E+3
  -2.14113E+3  -9.34128E+2
   1.46069E+3  -1.06068E+3
  -3.01780E+2  -8.83434E+2
   4.70128E+2  -9.59399E+2
   1.94803E+3   6.06942E+2
   9.73926E+2   4.65792E+3
  -1.75183E+3   1.98597E+3
  -1.68235E+3   3.67558E+2
  -1.18788E+3   7.92728E+2
  -1.50084E+3   1.36554E+3
  -1.43796E+3   2.10362E+3
  -1.22612E+3   1.88867E+3
  -1.37022E+3   1.33277E+2
  -2.27008E+3  -2.17832E+3
  -1.90398E+3   5.73455E+2
   1.86834E+3  -1.44432E+3
   1.86400E+3  -1.40214E+3
   1.52335E+3   7.69811E+2
   8.08092E+2   1.50926E+3
  -7.84707E+2  -1.54774E+3
   6.53092E+2   2.60347E+3
   3.76631E+2  -3.61985E+1
  -1.18403E+3   6.67582E+2
  -8.47373E+2   9.84300E+1
  -7.19818E+2  -1.00071E+1
  -3.58373E+2   2.18778E+3
  -5.46123E+2  -2.54819E+2
  -1.37299E+3   5.96621E+2
  -1.05243E+3  -1.04410E+2
   1.62670E+3  -2.46656E+3
   2.86362E+3  -1.72278E+2
   1.28612E+3   3.29688E+3
  -3.78952E+3   2.36066E+3
  -2.47559E+3  -9.30046E+1
  -3.63194E+2  -2.45959E+3
   3.93805E+2  -2.23254E+3
   1.55235E+3  -1.40961E+3
   2.36301E+3  -9.09652E+2
   6.85531E+2  -3.13879E+2
   3.05453E+3  -6.66631E+2
   5.44115E+2   2.96586E+3
  -4.59482E+3   1.13348E+3
  -2.74454E+3   5.22479E+1
  -3.21300E+3  -1.88201E+3
   2.36414E+3  -5.86886E+1
   2.25242E+3   1.93121E+2
   1.01414E+3  -3.35496E+1
   5.52307E+2  -1.66392E+2
  -1.46599E+3   1.85082E+3
  -5.45631E+2   1.36846E+3
  -2.21648E+3  -2.21213E+2
  -4.29075E+2  -3.18039E+3
   9.40209E+2  -4.29579E+2
   1.83747E+3  -3.47970E+2
   2.16884E+3  -1.58132E+3
  -7.64987E+2   6.36147E+2
   1.31256E+2  -2.93478E+3
   7.80429E+2  -1.63930E+3
   2.81818E+3   3.04005E+2
   5.82034E+2   1.87386E+3
   1.91012E+3  -7.52363E+2
   2.22995E+3  -9.37162E+2
   5.32071E+2   3.16058E+3
  -2.96783E+3   3.02547E+3
  -3.51228E+3  -1.76344E+3
  -7.55556E+1  -1.97647E+3
   5.15515E+2  -3.65973E+2
   1.92545E+3   4.85893E+2
   1.04979E+3  -7.54781E+2
  -3.10397E+2  -1.28131E+3
   1.72827E+3  -2.04245E+3
   4.73326E+1   4.60901E+2
  -6.87926E+2   2.29070E+2
  -1.96020E+3   5.93510E+2
   1.36683E+3  -9.44944E+2
   1.06169E+3  -1.01524E+3
   2.82024E+3   3.32368E+3
  -2.31588E+3   1.33423E+3
  -6.06261E+2  -7.49419E+2
  -5.23750E+2  -1.37329E+3
  -5.83512E+2  -2.22359E+2
   1.30735E+3   9.95804E+1
   5.88491E+1  -2.10537E+3
   9.98664E+2  -1.51551E+2
  -5.72021E+2   1.64129E+2
   2.45718E+2  -1.44960E+2
   3.61867E+2  -5.60555E+1
   1.27700E+3  -4.46443E+2
   7.72203E+2  -7.29965E+2
   9.63668E+2   8.02405E+2
  -1.95514E+3   1.33961E+3
  -1.00820E+3  -6.80519E+2
  -4.56489E+2   1.41598E+2
  -1.39494E+3   1.95158E+2
  -9.26858E+2  -2.27147E+3
   8.05360E+1  -1.92341E+3
   9.14445E+2  -2.48110E+2
   1.90145E+3   3.51923E+1
   1.37967E+3   1.43086E+3
  -1.91478E+3   7.17285E+2
  -2.50832E+3  -1.77763E+3
  -4.28217E+2   1.12082E+2
   1.59729E+2   4.62183E+2
   6.75506E+2   1.10231E+3
   3.08611E+2   7.06972E+2
  -1.38644E+2  -3.08552E+2
  -8.96086E+2  -1.49919E+2
   2.02167E+3  -6.78891E+2
  -5.21146E+1   4.20712E+2
  -2.55588E+2  -1.86943E+3
   7.51791E+2  -6.67564E+1
   2.64298E+2  -2.31524E+2
   9.20557E+2   9.47410E+2
  -3.25104E+3  -3.75253E+2
  -1.77326E+3  -1.44537E+3
  -3.55897E+2  -1.53240E+3
   4.10505E+2  -4.91851E+2
   6.26924E+2  -1.66879E+3
   8.15776E+2  -3.67370E+2
   1.00660E+3   6.47708E+2
   2.65713E+3   1.34602E+2
  -6.84066E+2  -5.98417E+2
  -1.08841E+3  -1.49686E+2
  -2.37963E+2  -1.98645E+3
   1.20880E+3  -8.05668E+2
  -1.57234E+3  -3.71566E+2
  -9.98069E+2   1.33782E+3
  -4.11887E+2   1.88837E+2
  -2.26404E+2  -3.80826E+2
   2.31636E+3  -4.86954E+2
  -7.48246E+1  -5.77561E+2
   3.48710E+2  -1.70668E+3
   1.00470E+3  -2.45900E+3
   1.87685E+3  -7.20094E+2
   1.46963E+3   4.58092E+2
  -1.99790E+3   3.48040E+2
  -1.89403E+3  -5.45491E+2
   1.85119E+2  -2.06285E+3
   3.38824E+2  -6.24531E+2
   4.84328E+2   7.19942E+2
  -8.16024E+2  -2.31204E+2
   1.36075E+2  -8.61228E+2
   6.43621E+2   1.59338E+3
  -2.94548E+1   3.60487E+3
  -3.09818E+3   8.57757E+2
   3.43405E+2  -1.45142E+3
  -1.31954E+2  -2.50768E+3
   9.31289E+2   9.98985E+2
   3.84347E+2   2.18741E+3
   1.16819E+2   1.03932E+2
  -6.24388E+2  -1.19376E+3
   2.34993E+3  -6.21217E+2
   3.29078E+2   1.65529E+3
  -1.67997E+2  -3.69204E+2
  -1.20006E+3  -9.46117E+2
  -2.09708E+2  -9.44181E+2
   8.63692E+2  -4.16754E+1
   1.15736E+3   4.02595E+2
  -1.63028E+2  -4.23225E+2
   1.16896E+3  -2.70940E+3
   2.45630E+3  -3.73225E+2
   6.59477E+1   1.90849E+3
   4.19405E+2   3.33342E+2
  -1.64540E+3   1.10483E+3
   1.87617E+3   1.19721E+2
   1.22947E+3  -1.58671E+2
   5.37821E+2  -3.83123E+2
  -1.43840E+2  -2.10203E+3
   1.03565E+3  -9.29390E+2
   6.69133E+2  -5.94365E+2
   3.76611E+2   2.23961E+3
  -1.37337E+3   4.99512E+2
  -2.18651E+3  -1.57173E+3
  -6.66678E+2  -2.21251E+3
  -9.94394E+2   1.11507E+2
  -7.28016E+1   1.55294E+3
   2.95990E+2  -3.42987E+2
   1.67506E+3   1.68325E+3
  -5.55927E+2   1.44802E+3
   2.62035E+3   2.35056E+3
  -2.60882E+2   1.44733E+2
  -1.63338E+3  -5.57855E+2
   1.04142E+3  -2.16800E+3
   1.84207E+3  -1.25623E+3
  -9.65115E+2  -1.03925E+3
  -7.97574E+2  -1.23789E+2
  -1.53129E+3  -1.39268E+3
   1.34807E+3  -6.03865E+1
   4.76960E-1  -9.64342E+2
  -2.51366E+3  -5.07822E+2
   2.83289E+3  -1.46554E+3
   1.47918E+3  -3.56111E+2
   7.84945E+2   1.60865E+2
  -1.83382E+3   1.00037E+3
  -2.14346E+3  -2.46736E+2
   3.32965E+2  -1.52162E+3
   6.95224E+2  -1.24651E+3
   9.20519E+2  -4.44173E+2
  -3.74280E+2   6.44277E+2
   1.71170E+3  -1.36951E+3
   1.31760E+3   5.07403E+2
  -1.05753E+3   2.74893E+3
  -1.84500E+3   3.20234E+2
  -1.84636E+3  -5.11217E+2
   1.83569E+3  -4.53856E+1
   1.91171E+3   2.02344E+3
  -9.21756E+2   1.52996E+3
  -1.50285E+3   3.88532E+2
  -2.25617E+2  -7.32777E+2
  -1.04249E+3  -1.01851E+3
  -2.75399E+2   1.10741E+3
  -3.20405E+2   1.02863E+2
   1.14503E+3  -6.89308E+2
   3.02552E+2  -1.60519E+3
   9.06908E+2  -8.34821E+2
  -1.63688E+2   1.88723E+3
  -1.35419E+3  -1.73376E+3
  -4.31732E+2  -2.19247E+3
   1.17268E+3   2.04915E+2
   1.37324E+3   1.04776E+3
  -7.74115E+1   1.55585E+3
  -2.77672E+3  -3.08018E+2
  -9.18767E+1  -1.60318E+3
   3.76746E+2   4.13044E+2
   5.51793E+2   6.32298E+2
  -1.35994E+3   2.01851E+3
  -2.63822E+3  -2.46780E+3
   1.15849E+3  -1.25963E+3
   9.69147E+2   2.07466E+3
  -7.95242E+2   4.21626E+2
