 LCModel (Version 6.3-1N) Copyright: S.W. Provencher.          Ref.: Magn. Reson. Med. 30:672-679 (1993).                
 Slice_N1@24_22  02-Jun-2023 14:37:45
 27 lines in following concentration table = NCONC+1
    Conc.  %SD /Cr+PCr  Metabolite                                         
 3.12E-06  13% 3.7E-04 Mac                                                 
 6.82E-02  13%   8.000 Cr                                                  
    0.000 999%   0.000 PCr                                                 
 7.47E-02  16%   8.758 Ins                                                 
 9.15E-02  10%  10.730 NAA                                                 
 5.58E-02  20%   6.549 Tau                                                 
 1.81E-02  68%   2.118 PCho                                                
 9.90E-05 999% 1.2E-02 GPC                                                 
 9.01E-02  13%  10.562 Glu                                                 
 5.67E-03 132%   0.665 Gln                                                 
    0.000 999%   0.000 Ala                                                 
    0.000 999%   0.000 Asc                                                 
 5.74E-03 121%   0.673 Asp                                                 
 5.49E-03  74%   0.644 GABA                                                
 5.14E-03  87%   0.603 Glc                                                 
 2.29E-03 132%   0.268 GSH                                                 
    0.000 999%   0.000 Lac                                                 
    0.000 999%   0.000 NAAG                                                
    0.000 999%   0.000 PE                                                  
 1.82E-02  17%   2.129 GPC+PCho                                            
 9.15E-02  10%  10.730 NAA+NAAG                                            
 9.57E-02  15%  11.227 Glu+Gln                                             
 6.82E-02  13%   8.000 Cr+PCr                                              
 9.15E-02  10%  10.730 NAA+NAAG                                            
 6.82E-02  13%   8.000 Cr+PCr                                              
 9.57E-02  15%  11.227 Glu+Gln                                             
   6 lines in following misc. output table
  FWHM = 0.064 ppm    S/N =   2                                            
  Data shift = 0.099 ppm                                                   
  Ph:  43 deg      -3.2 deg/ppm                                            
  alphaB,S = 6.8E+00,   4.7E+01                                            
   18 spline knots.   Ns = 9(1)                                            
   4 inflections.     2 extrema                                            
  654 points on ppm-axis = NY
      4.000000     3.994181     3.988363     3.982544     3.976726     3.970907     3.965088     3.959270     3.953451     3.947633
      3.941814     3.935995     3.930177     3.924358     3.918540     3.912721     3.906902     3.901084     3.895265     3.889446
      3.883628     3.877809     3.871991     3.866172     3.860353     3.854535     3.848716     3.842898     3.837079     3.831260
      3.825442     3.819623     3.813805     3.807986     3.802167     3.796349     3.790530     3.784712     3.778893     3.773074
      3.767256     3.761437     3.755619     3.749800     3.743981     3.738163     3.732344     3.726526     3.720707     3.714888
      3.709070     3.703251     3.697433     3.691614     3.685795     3.679977     3.674158     3.668339     3.662521     3.656702
      3.650884     3.645065     3.639246     3.633428     3.627609     3.621791     3.615972     3.610153     3.604335     3.598516
      3.592698     3.586879     3.581060     3.575242     3.569423     3.563605     3.557786     3.551967     3.546149     3.540330
      3.534512     3.528693     3.522874     3.517056     3.511237     3.505419     3.499600     3.493781     3.487963     3.482144
      3.476326     3.470507     3.464688     3.458870     3.453051     3.447232     3.441414     3.435595     3.429777     3.423958
      3.418139     3.412321     3.406502     3.400684     3.394865     3.389046     3.383228     3.377409     3.371591     3.365772
      3.359953     3.354135     3.348316     3.342498     3.336679     3.330860     3.325042     3.319223     3.313405     3.307586
      3.301767     3.295949     3.290130     3.284312     3.278493     3.272674     3.266856     3.261037     3.255219     3.249400
      3.243581     3.237763     3.231944     3.226125     3.220307     3.214488     3.208670     3.202851     3.197032     3.191214
      3.185395     3.179577     3.173758     3.167939     3.162121     3.156302     3.150484     3.144665     3.138846     3.133028
      3.127209     3.121391     3.115572     3.109753     3.103935     3.098116     3.092298     3.086479     3.080660     3.074842
      3.069023     3.063205     3.057386     3.051567     3.045749     3.039930     3.034111     3.028293     3.022474     3.016656
      3.010837     3.005018     2.999200     2.993381     2.987563     2.981744     2.975925     2.970107     2.964288     2.958470
      2.952651     2.946832     2.941014     2.935195     2.929377     2.923558     2.917739     2.911921     2.906102     2.900284
      2.894465     2.888646     2.882828     2.877009     2.871191     2.865372     2.859553     2.853735     2.847916     2.842098
      2.836279     2.830460     2.824642     2.818823     2.813004     2.807186     2.801367     2.795549     2.789730     2.783911
      2.778093     2.772274     2.766456     2.760637     2.754818     2.749000     2.743181     2.737363     2.731544     2.725725
      2.719907     2.714088     2.708270     2.702451     2.696632     2.690814     2.684995     2.679177     2.673358     2.667539
      2.661721     2.655902     2.650084     2.644265     2.638446     2.632628     2.626809     2.620991     2.615172     2.609353
      2.603535     2.597716     2.591897     2.586079     2.580260     2.574442     2.568623     2.562804     2.556986     2.551167
      2.545349     2.539530     2.533711     2.527893     2.522074     2.516256     2.510437     2.504618     2.498800     2.492981
      2.487163     2.481344     2.475525     2.469707     2.463888     2.458070     2.452251     2.446432     2.440614     2.434795
      2.428977     2.423158     2.417339     2.411521     2.405702     2.399884     2.394065     2.388246     2.382428     2.376609
      2.370790     2.364972     2.359153     2.353335     2.347516     2.341697     2.335879     2.330060     2.324242     2.318423
      2.312604     2.306786     2.300967     2.295149     2.289330     2.283511     2.277693     2.271874     2.266056     2.260237
      2.254418     2.248600     2.242781     2.236963     2.231144     2.225325     2.219507     2.213688     2.207870     2.202051
      2.196232     2.190414     2.184595     2.178777     2.172958     2.167139     2.161321     2.155502     2.149683     2.143865
      2.138046     2.132228     2.126409     2.120590     2.114772     2.108953     2.103135     2.097316     2.091497     2.085679
      2.079860     2.074042     2.068223     2.062404     2.056586     2.050767     2.044949     2.039130     2.033311     2.027493
      2.021674     2.015856     2.010037     2.004218     1.998400     1.992581     1.986763     1.980944     1.975126     1.969307
      1.963489     1.957670     1.951852     1.946033     1.940215     1.934397     1.928578     1.922760     1.916941     1.911123
      1.905304     1.899486     1.893667     1.887849     1.882030     1.876212     1.870393     1.864575     1.858756     1.852938
      1.847119     1.841301     1.835482     1.829664     1.823845     1.818027     1.812208     1.806390     1.800571     1.794753
      1.788934     1.783116     1.777297     1.771479     1.765660     1.759842     1.754023     1.748205     1.742386     1.736568
      1.730749     1.724931     1.719113     1.713294     1.707476     1.701657     1.695839     1.690020     1.684202     1.678383
      1.672565     1.666746     1.660928     1.655109     1.649291     1.643472     1.637654     1.631835     1.626017     1.620198
      1.614380     1.608561     1.602743     1.596924     1.591106     1.585287     1.579469     1.573650     1.567832     1.562013
      1.556195     1.550376     1.544558     1.538739     1.532921     1.527102     1.521284     1.515465     1.509647     1.503829
      1.498010     1.492192     1.486373     1.480555     1.474736     1.468918     1.463099     1.457281     1.451462     1.445644
      1.439825     1.434007     1.428188     1.422370     1.416551     1.410733     1.404914     1.399096     1.393277     1.387459
      1.381640     1.375822     1.370003     1.364185     1.358366     1.352548     1.346729     1.340911     1.335092     1.329274
      1.323455     1.317637     1.311818     1.306000     1.300182     1.294363     1.288545     1.282726     1.276908     1.271089
      1.265271     1.259452     1.253634     1.247815     1.241997     1.236178     1.230360     1.224541     1.218723     1.212904
      1.207086     1.201267     1.195449     1.189630     1.183812     1.177993     1.172175     1.166356     1.160538     1.154719
      1.148901     1.143082     1.137264     1.131445     1.125627     1.119808     1.113990     1.108171     1.102353     1.096534
      1.090716     1.084898     1.079079     1.073261     1.067442     1.061624     1.055805     1.049987     1.044168     1.038350
      1.032531     1.026713     1.020894     1.015076     1.009257     1.003439     0.997620     0.991802     0.985983     0.980165
      0.974346     0.968528     0.962709     0.956891     0.951072     0.945254     0.939435     0.933617     0.927798     0.921980
      0.916161     0.910343     0.904524     0.898706     0.892887     0.887069     0.881251     0.875432     0.869614     0.863795
      0.857977     0.852158     0.846340     0.840521     0.834703     0.828884     0.823066     0.817247     0.811429     0.805610
      0.799792     0.793973     0.788155     0.782336     0.776518     0.770699     0.764881     0.759062     0.753244     0.747425
      0.741607     0.735788     0.729970     0.724151     0.718333     0.712514     0.706696     0.700877     0.695059     0.689240
      0.683422     0.677603     0.671785     0.665967     0.660148     0.654330     0.648511     0.642693     0.636874     0.631056
      0.625237     0.619419     0.613600     0.607782     0.601963     0.596145     0.590326     0.584508     0.578689     0.572871
      0.567052     0.561234     0.555415     0.549597     0.543778     0.537960     0.532141     0.526323     0.520504     0.514686
      0.508867     0.503049     0.497230     0.491412     0.485593     0.479775     0.473956     0.468138     0.462319     0.456501
      0.450682     0.444864     0.439045     0.433227     0.427408     0.421590     0.415771     0.409953     0.404134     0.398316
      0.392497     0.386679     0.380860     0.375042     0.369223     0.363405     0.357586     0.351767     0.345949     0.340130
      0.334312     0.328493     0.322675     0.316856     0.311038     0.305219     0.299401     0.293582     0.287764     0.281945
      0.276127     0.270308     0.264490     0.258671     0.252853     0.247034     0.241216     0.235397     0.229579     0.223760
      0.217942     0.212123     0.206305     0.200486
 NY phased data points follow
  -2.00998E-01 -9.51235E-02  1.80503E-01 -1.83093E-02 -3.15101E-01 -9.91006E-02 -2.49690E-01  1.39151E-02 -4.40985E-01 -3.77427E-01
   1.33880E-01  4.81049E-01  3.90435E-01  5.64470E-01  3.88602E-01  3.33607E-02  3.08417E-01  5.79423E-01  5.97141E-01  1.06650E-01
   2.36764E-01  2.07120E-02  4.43253E-01  4.23611E-01  2.46213E-01  1.10151E-01 -7.19315E-02 -6.92052E-02 -4.67667E-01 -4.11543E-01
  -3.92600E-01  7.34272E-02 -4.44263E-01 -4.29635E-01 -1.70422E-01  1.81989E-01  1.13344E-01 -9.85049E-01 -3.30195E-01 -4.04149E-01
  -2.67124E-01  1.55967E-01 -2.61635E-02  1.63297E-01  2.93155E-01  4.35622E-01  1.34602E-01  8.49010E-02  9.02423E-02  1.49463E-01
   1.73045E-01  8.17139E-02 -7.09847E-03 -1.79417E-01  1.03273E-01  1.23275E-01 -1.40821E-01 -1.23761E-01 -1.86298E-02 -4.16259E-01
  -4.32163E-01 -3.58759E-01 -3.61841E-01 -1.20972E-01 -2.23586E-01 -4.18527E-02 -7.79170E-02  1.06009E-01  3.03743E-01 -1.96164E-02
  -1.26430E-01 -4.40354E-02  1.43765E-01  1.79623E-01  1.47683E-01  4.01112E-01  2.24467E-01 -2.38314E-01  1.26892E-01  8.17462E-02
  -1.33817E-01  5.23437E-02  1.09001E-01 -1.75601E-01  1.31200E-01  4.94645E-01  1.69742E-01  3.47805E-01  2.04772E-01  2.43122E-01
   4.94013E-02 -1.36486E-01  2.74385E-01  1.99387E-01  2.82647E-01  1.10889E-01  1.27651E-01  1.10480E-01 -9.62973E-02  1.12660E-01
  -1.61542E-01 -4.71726E-02  2.55943E-01  1.67290E-01  3.58912E-02 -2.22716E-01 -2.75827E-02  4.27214E-01  3.72336E-01 -2.38397E-01
   3.83642E-01  6.15237E-01  1.27394E-01  5.67011E-01  4.29728E-01  7.04271E-03  1.30258E-01  4.52522E-01  3.68086E-01  3.69312E-01
   3.26455E-01  4.64624E-01  5.52750E-01  4.30320E-01  1.83079E-01  1.05483E-01  1.02923E-01 -3.52184E-01  6.57853E-02 -8.59929E-02
  -4.58526E-01 -6.43593E-01 -2.39512E-01 -9.07791E-02 -9.17124E-01 -1.11471E+00 -7.63640E-01 -1.83504E-01 -7.90482E-01 -5.93279E-01
  -3.01310E-01 -5.30780E-01 -1.78997E-01 -3.78304E-01 -5.18443E-01 -3.99714E-01 -8.33867E-02 -8.74341E-02 -1.34615E-01  1.69958E-02
   3.55014E-01  1.74258E-01  2.04752E-01  3.29187E-01  1.60311E-01  3.37767E-01  3.68599E-02 -5.55162E-02 -1.64846E-01  2.73066E-01
   5.69439E-01  5.97913E-01  9.64516E-01  7.43608E-01  8.09000E-01  3.83620E-01  4.38279E-01  8.64823E-01  2.67083E-01 -1.22987E-01
  -1.72661E-01 -3.45650E-01 -4.80380E-01 -4.30605E-01 -3.81472E-01 -3.79070E-01 -5.69258E-01 -5.58072E-01 -5.85225E-01 -4.88506E-01
  -3.48340E-01 -2.67688E-01 -2.19082E-01 -5.58742E-01 -4.57229E-01 -4.11411E-01 -2.07509E-01 -2.30481E-01 -2.40894E-01 -1.77999E-01
  -2.53289E-01 -2.35542E-02 -1.33635E-01 -1.76911E-01 -4.01455E-01 -2.06648E-01 -1.21876E-01 -3.90078E-01 -4.10393E-01 -2.24494E-01
   2.91452E-02  3.31828E-02  6.56401E-03 -2.32938E-01 -2.84342E-01 -1.54134E-01  1.34065E-01 -5.93808E-02 -5.02216E-02 -7.49009E-02
  -6.84827E-02  2.98506E-01  7.64033E-02  2.07512E-01  3.47390E-02  1.00877E-01  2.97987E-03 -2.75910E-01  2.06445E-01  6.88396E-02
  -1.69840E-02 -1.03791E-01 -2.60745E-01 -3.20587E-02  8.93489E-02  1.14733E-01  2.56931E-01  5.62600E-01  3.53065E-01  2.66141E-01
   4.93331E-01  2.76806E-01  2.34929E-01  1.82478E-01  1.15756E-01  4.94592E-02 -1.33119E-01 -3.97431E-02  1.80414E-02 -3.74508E-01
  -2.69288E-01  2.89238E-01  9.77681E-02 -9.37606E-02 -4.67923E-02 -1.91686E-02 -1.04190E-01 -5.44632E-02 -1.06001E-01 -5.58946E-01
  -5.38740E-01 -4.10078E-01 -1.17845E-01 -2.45829E-01 -3.56729E-01  2.26617E-01  3.66883E-02  2.15746E-01  2.23192E-01 -1.57486E-01
   2.71985E-01  8.54893E-02  2.64656E-02  2.03331E-01  1.07445E-01 -3.21754E-02  3.63167E-02  1.74565E-01  7.34512E-02  2.78010E-01
   4.99956E-02 -4.73539E-02  1.23792E-01  1.36012E-01  3.82731E-01  1.19142E-01 -2.75785E-01 -2.35069E-01 -1.87381E-01 -2.83957E-01
  -4.45337E-01 -1.58325E-01 -3.04524E-01 -5.34335E-01 -1.85692E-01 -1.64123E-01  4.31481E-02  4.51517E-02  1.48059E-01  9.56514E-03
   2.25315E-02  3.28374E-01  3.25996E-01  4.80551E-01  4.30919E-01  7.50159E-01  5.86514E-01  1.32664E-01  2.49519E-01  5.15522E-01
   3.13497E-01  2.11904E-01  4.31580E-01  2.48938E-01 -1.82898E-01 -3.25770E-03  3.70676E-01  1.71718E-01  2.85735E-01  2.09173E-01
   4.30900E-01  4.91362E-01  4.79539E-01  2.32326E-01  2.72820E-01  9.28679E-01  4.07171E-01 -5.83246E-02  1.37194E-01  8.98210E-02
  -2.23892E-01  1.30817E-01 -2.57057E-01 -3.65706E-01 -7.31459E-02 -4.64882E-02  2.88357E-02 -2.56687E-01  5.96757E-02  2.82810E-02
   3.26292E-02 -2.42863E-01 -1.64332E-01  1.54381E-02  1.08112E-01  2.03762E-01 -3.12131E-01 -8.53235E-02 -1.51768E-02 -6.04942E-01
  -6.10319E-01 -5.97179E-01 -1.06888E+00 -8.53930E-01 -8.13015E-01 -9.71970E-01 -9.14074E-01 -8.24465E-01 -8.67304E-01 -4.19217E-01
  -3.30264E-01 -2.23165E-01 -6.46756E-04 -4.47491E-01  2.42316E-01 -1.09312E-01 -6.55291E-02  9.53687E-02 -1.00015E-01 -5.75199E-02
  -2.57986E-01  3.91070E-01  1.93897E-01  1.20850E-01 -1.36248E-01 -2.41492E-02  5.61280E-02 -5.30008E-02  1.90469E-01  1.43393E-01
   2.18007E-01 -4.98241E-02  9.86255E-02  1.24921E-01  2.56580E-01 -2.89212E-02 -1.63719E-01  8.03560E-02  8.68360E-02  1.74121E-01
   9.37601E-02  5.58942E-01  5.48119E-02  7.39111E-02  5.88174E-01  1.52815E-01  1.81013E-01  5.12227E-02 -1.42247E-01  2.63485E-02
   1.66456E-01  3.87292E-01  5.09329E-01 -6.80132E-02  5.79752E-01  5.38539E-01  4.74258E-02  8.29162E-01  5.39772E-01  6.80540E-01
   3.65044E-01  1.22401E-01 -1.44661E-01 -3.70178E-01  2.31244E-01  2.19930E-01 -9.52010E-02 -2.89336E-01  2.25678E-01  1.90318E-01
   1.28133E-01  1.61232E-01  3.72993E-01 -7.18534E-02 -4.53079E-01 -1.83210E-01 -3.12866E-01  2.31723E-02 -1.94077E-01 -3.55109E-01
  -4.56682E-01 -3.90681E-01 -3.38567E-01 -2.94665E-01 -3.07019E-02 -8.34192E-02 -3.18758E-01 -3.16824E-01 -2.15910E-01 -2.95362E-01
  -1.50242E-01  5.06081E-02  8.31840E-02 -2.26709E-01 -7.86893E-02 -2.17820E-01 -1.71471E-01 -2.65336E-01 -2.09094E-01  2.39085E-02
  -1.49159E-01  1.04573E-01 -2.90513E-01 -4.83922E-02  5.17435E-02  2.38934E-02  1.60526E-01 -4.79569E-02  3.73438E-01  3.27405E-01
   2.77806E-01  4.64060E-01  3.43071E-01  2.41817E-01 -2.10156E-01  1.48728E-01 -1.36551E-02 -3.77089E-01  4.15190E-01 -5.90845E-02
  -6.60482E-02  7.27637E-02 -7.44407E-03  1.42160E-01  2.57335E-01  1.30833E-01 -2.89018E-01 -1.45816E-02 -1.01882E-01 -3.36265E-01
  -4.73202E-01 -3.30293E-01 -6.00487E-01 -4.24772E-01 -5.89836E-01 -8.72805E-01 -1.67558E-01 -2.72178E-01 -2.06642E-01  1.25720E-01
  -2.36780E-01 -3.64388E-01  1.00134E-01  2.52341E-01  4.68507E-01  1.17644E-01  2.77164E-01  5.43633E-01  8.72797E-02  5.90055E-02
   3.96180E-01  3.71730E-01  3.08074E-02  2.89257E-01  1.14540E-01  2.91530E-01  1.37659E-01  5.63531E-02 -4.04240E-03 -5.74689E-02
   5.46523E-01  8.05781E-02 -2.96928E-01  1.51720E-01  2.30272E-01 -1.58783E-01  1.09561E-01  8.27258E-02  1.14427E-01 -1.34431E-02
  -9.80040E-02  1.56227E-01 -4.32145E-02  6.67985E-02 -9.16026E-02 -9.98414E-02 -3.03782E-02  2.22409E-01  2.99592E-03 -1.97345E-01
   1.12583E-01 -2.90701E-01 -1.39984E-01 -1.01332E-02 -1.92375E-01 -2.95914E-01 -4.63494E-01 -1.15297E-01 -4.95790E-01 -7.73061E-01
  -4.34710E-01 -5.96167E-01 -7.00380E-01 -5.92186E-01 -1.97754E-01 -2.30473E-01 -5.47645E-01 -4.95599E-01 -4.73675E-01 -3.87869E-01
  -6.00600E-02  1.47421E-01 -2.56688E-02 -4.37874E-01 -1.81280E-01  2.91936E-01 -1.43469E-01 -3.46050E-01 -1.40330E-01  4.68673E-02
  -7.57185E-02 -6.74547E-02  1.67215E-01  6.42970E-02  3.11311E-01  4.29494E-01 -1.58592E-01  1.47923E-02  2.80349E-01 -1.67095E-01
   1.17907E-01 -4.40547E-02 -1.37181E-01  4.01267E-01  3.82713E-01  4.32691E-02 -2.28529E-01  1.00625E-01  1.18218E-03 -1.57834E-01
   2.04796E-01  2.11438E-01  2.44939E-01  2.00345E-01  2.99315E-01  1.14639E-01 -6.99295E-02  3.91591E-01 -1.34885E-01 -2.11471E-01
   1.52238E-01 -8.69781E-03  1.47879E-01  9.40061E-02  1.70337E-01  3.01532E-01  3.99307E-01  6.87912E-02 -2.74198E-01 -1.37669E-01
   2.05412E-02  2.52593E-01  2.43185E-01  2.97152E-01  1.33170E-01  1.51359E-01  2.72777E-01 -2.27069E-01 -3.57496E-02  2.19234E-01
  -1.72832E-01 -1.34158E-01  1.34970E-01  1.37284E-01 -1.30040E-01 -4.39531E-01  5.08119E-03  3.99761E-01 -1.15396E-02 -1.83040E-01
  -6.55424E-02  1.22912E-01  3.80120E-02  3.66487E-01  2.53574E-01 -4.07152E-02  6.23706E-02  2.16581E-02  4.47818E-01  2.03284E-01
   1.55512E-02 -2.64888E-01 -6.00892E-02  4.45733E-01  3.80328E-02 -2.06682E-01  1.78480E-01 -2.12696E-01 -3.89660E-01  1.63137E-01
  -4.74272E-01 -1.21188E-01  6.28300E-02  2.38157E-02  6.74839E-03  1.11802E-01  2.62515E-01 -1.14468E-01 -1.79592E-02 -1.79979E-03
   1.08777E-01 -8.12422E-02 -1.22268E-02 -3.27866E-01  2.36298E-01  2.52628E-01  1.29076E-01  2.34542E-01 -1.90596E-01  7.66204E-02
  -1.23896E-01  2.90903E-01 -8.55295E-02 -1.90538E-01
 NY points of the fit to the data follow
   1.03028E-01  8.57865E-02  8.63434E-02  9.25225E-02  9.62370E-02  9.22701E-02  3.61204E-02 -1.13097E-02 -6.09508E-03  4.88473E-02
   1.38813E-01  2.46537E-01  3.48946E-01  4.24277E-01  4.68789E-01  4.94275E-01  5.05845E-01  4.99460E-01  4.71237E-01  4.25338E-01
   3.74649E-01  3.24770E-01  2.77675E-01  2.17226E-01  1.30457E-01  4.52464E-02  9.71863E-03 -1.00974E-02 -2.44576E-02 -3.61158E-02
  -4.67716E-02 -5.95477E-02 -7.30642E-02 -9.51427E-02 -1.23729E-01 -1.58579E-01 -1.88822E-01 -2.04009E-01 -1.95260E-01 -1.61955E-01
  -1.10997E-01 -5.21548E-02  7.27652E-03  6.13669E-02  1.07311E-01  1.44292E-01  1.71242E-01  1.87940E-01  1.94360E-01  1.92420E-01
   1.82984E-01  1.65915E-01  1.33809E-01  8.98491E-02  3.87912E-02 -2.08070E-02 -7.71441E-02 -1.10832E-01 -1.60696E-01 -2.16590E-01
  -2.53444E-01 -2.86743E-01 -3.08803E-01 -3.03707E-01 -2.67913E-01 -2.10176E-01 -1.39589E-01 -6.07226E-02  2.04605E-02  9.74344E-02
   1.64784E-01  2.24297E-01  2.73148E-01  2.75955E-01  2.40738E-01  1.91548E-01  1.05792E-01 -2.68408E-03 -8.11120E-02 -1.34011E-01
  -1.65683E-01 -1.61386E-01 -1.29279E-01 -7.78082E-02 -1.64799E-02  4.68774E-02  1.08231E-01  1.67077E-01  2.26446E-01  2.85944E-01
   3.39013E-01  3.57157E-01  3.35108E-01  2.85014E-01  2.03344E-01  1.05507E-01  2.15983E-02 -3.77228E-02 -7.12467E-02 -8.22917E-02
  -7.57863E-02 -5.60922E-02 -2.61524E-02  1.09149E-02  5.10547E-02  9.22657E-02  1.33333E-01  1.74717E-01  2.13750E-01  2.46252E-01
   2.65035E-01  2.72105E-01  2.68843E-01  2.63098E-01  2.63413E-01  2.66819E-01  2.66703E-01  2.74989E-01  2.77564E-01  2.76804E-01
   2.69875E-01  2.64107E-01  2.33150E-01  1.74769E-01  8.89648E-02 -1.69866E-02 -1.25321E-01 -1.72818E-01 -1.68223E-01 -1.77125E-01
  -2.27988E-01 -3.16508E-01 -4.27375E-01 -5.40917E-01 -6.31744E-01 -6.82036E-01 -6.98877E-01 -7.01344E-01 -6.75939E-01 -6.23601E-01
  -5.50443E-01 -4.79809E-01 -4.11619E-01 -3.56818E-01 -2.95826E-01 -2.02622E-01 -8.71064E-02 -6.24544E-03  3.81287E-02  6.99634E-02
   9.56486E-02  1.17558E-01  1.36599E-01  1.53088E-01  1.67113E-01  1.77943E-01  1.83715E-01  1.79254E-01  1.69427E-01  2.78584E-01
   4.53970E-01  6.08211E-01  7.00943E-01  7.16079E-01  6.47387E-01  5.16162E-01  3.63449E-01  2.16062E-01  6.99735E-02 -7.94148E-02
  -2.21583E-01 -3.37535E-01 -4.18546E-01 -4.78395E-01 -5.30253E-01 -5.89120E-01 -6.26533E-01 -5.88080E-01 -4.87892E-01 -4.30892E-01
  -3.92023E-01 -3.61458E-01 -3.35144E-01 -3.11888E-01 -2.90127E-01 -2.70943E-01 -2.53829E-01 -2.38099E-01 -2.23185E-01 -2.08941E-01
  -1.95513E-01 -1.82766E-01 -1.70686E-01 -1.59701E-01 -1.49093E-01 -1.37763E-01 -1.26079E-01 -1.14747E-01 -1.04816E-01 -9.58164E-02
  -8.69676E-02 -7.81644E-02 -6.98236E-02 -6.26492E-02 -5.69039E-02 -5.28118E-02 -5.04404E-02 -4.87908E-02 -4.70575E-02 -4.51634E-02
  -4.38323E-02 -4.32177E-02 -4.27967E-02 -4.18157E-02 -4.06495E-02 -4.13030E-02 -5.21217E-02 -6.76817E-02 -7.34102E-02 -6.26793E-02
  -4.11662E-02 -2.41467E-02 -1.26491E-02  1.00454E-02  4.69866E-02  9.49631E-02  1.49086E-01  1.99849E-01  2.36266E-01  2.53576E-01
   2.56736E-01  2.52042E-01  2.40712E-01  2.18420E-01  1.81430E-01  1.36507E-01  9.88530E-02  7.04794E-02  4.30650E-02  7.61596E-03
  -3.14137E-02 -5.81905E-02 -7.07912E-02 -7.89719E-02 -8.41900E-02 -8.75943E-02 -8.99898E-02 -9.21248E-02 -1.08709E-01 -1.29495E-01
  -1.43888E-01 -1.62347E-01 -1.79005E-01 -1.88345E-01 -1.83528E-01 -1.71755E-01 -1.55440E-01 -1.28971E-01 -9.47188E-02 -5.71582E-02
  -2.05370E-02  1.48398E-02  4.79352E-02  7.60738E-02  9.88565E-02  1.13713E-01  1.16074E-01  1.10223E-01  1.05934E-01  9.23102E-02
   6.98391E-02  4.90887E-02  3.01416E-02  1.24907E-02 -1.44251E-02 -4.70640E-02 -9.79080E-02 -1.75011E-01 -2.63371E-01 -3.52318E-01
  -4.17955E-01 -4.43899E-01 -4.27295E-01 -3.74231E-01 -2.97747E-01 -2.07258E-01 -1.13926E-01 -2.39524E-02  5.82112E-02  1.30086E-01
   1.91721E-01  2.44322E-01  2.86245E-01  3.16408E-01  3.30504E-01  3.24244E-01  3.06978E-01  2.85000E-01  2.62447E-01  2.48500E-01
   2.39749E-01  2.34317E-01  2.31349E-01  2.29070E-01  2.27217E-01  2.23976E-01  2.20300E-01  2.15673E-01  2.10751E-01  2.06201E-01
   2.00246E-01  1.91759E-01  1.78013E-01  1.59662E-01  1.33485E-01  1.01911E-01  6.24239E-02  1.76396E-02 -3.30440E-02 -8.50604E-02
  -1.35013E-01 -1.77040E-01 -2.03477E-01 -2.16070E-01 -2.09999E-01 -1.94976E-01 -1.72858E-01 -1.51992E-01 -1.36195E-01 -1.28023E-01
  -1.27296E-01 -1.30179E-01 -1.29623E-01 -6.89495E-02  5.12979E-02  1.07664E-01  5.50730E-02 -9.03644E-02 -2.95693E-01 -5.19606E-01
  -7.11200E-01 -8.40268E-01 -9.15147E-01 -9.54207E-01 -9.63979E-01 -9.32336E-01 -8.63113E-01 -7.72489E-01 -6.82499E-01 -6.00073E-01
  -5.10044E-01 -3.76627E-01 -2.08428E-01 -9.02115E-02 -4.52965E-02 -2.01237E-02 -4.06233E-03  5.86040E-03  1.12708E-02  1.37850E-02
   1.43654E-02  1.38691E-02  1.32043E-02  1.27489E-02  1.26018E-02  1.32435E-02  1.50667E-02  1.80488E-02  2.21060E-02  2.67023E-02
   3.19063E-02  3.74571E-02  4.38023E-02  5.03557E-02  5.66018E-02  6.23866E-02  6.75559E-02  7.25973E-02  7.76682E-02  8.25956E-02
   8.70782E-02  9.10026E-02  9.42104E-02  9.71945E-02  1.00423E-01  1.04028E-01  1.07938E-01  1.11943E-01  1.15836E-01  1.19630E-01
   1.23084E-01  1.26158E-01  1.28588E-01  1.30273E-01  1.31219E-01  1.31560E-01  1.31002E-01  1.29192E-01  1.25974E-01  1.21526E-01
   1.15868E-01  1.09048E-01  1.01600E-01  9.34582E-02  8.48015E-02  7.57923E-02  6.66410E-02  5.75416E-02  4.87961E-02  4.04355E-02
   3.24914E-02  2.48139E-02  1.76734E-02  1.12340E-02  5.14501E-03 -7.95334E-04 -6.32714E-03 -1.14103E-02 -1.60753E-02 -2.01631E-02
  -2.37528E-02 -2.67441E-02 -2.88039E-02 -2.93466E-02 -2.85818E-02 -2.70082E-02 -2.48399E-02 -2.24110E-02 -1.95925E-02 -1.62028E-02
  -1.20519E-02 -7.19487E-03 -2.05010E-03  3.27670E-03  9.14010E-03  1.56842E-02  2.30675E-02  3.13492E-02  4.03062E-02  5.02318E-02
   6.15903E-02  7.48043E-02  8.95110E-02  1.05034E-01  1.20835E-01  1.36443E-01  1.51467E-01  1.65873E-01  1.79278E-01  1.91670E-01
   2.02455E-01  2.11201E-01  2.17435E-01  2.21044E-01  2.21815E-01  2.20004E-01  2.15592E-01  2.08752E-01  1.99930E-01  1.89470E-01
   1.77799E-01  1.65050E-01  1.51721E-01  1.38033E-01  1.24243E-01  1.10685E-01  9.74756E-02  8.47419E-02  7.28959E-02  6.18137E-02
   5.16096E-02  4.26536E-02  3.50676E-02  2.87905E-02  2.39930E-02  2.06873E-02  1.91957E-02  1.95416E-02  2.16586E-02  2.50902E-02
   2.93673E-02  3.42255E-02  3.96247E-02  4.55121E-02  5.15339E-02  5.74986E-02  6.32951E-02  6.89745E-02  7.41134E-02  7.84963E-02
   8.19297E-02  8.41896E-02  8.54179E-02  8.56176E-02  8.49163E-02  8.35362E-02  8.15385E-02  7.89878E-02  7.58061E-02  7.18131E-02
   6.71959E-02  6.23126E-02  5.72637E-02  5.20447E-02  4.68417E-02  4.20478E-02  3.78402E-02  3.37278E-02  2.96131E-02  2.53181E-02
   2.08439E-02  1.63763E-02  1.19367E-02  7.42840E-03  2.20571E-03 -4.10355E-03 -1.18475E-02 -2.14853E-02 -3.33377E-02 -4.71986E-02
  -6.28831E-02 -8.04085E-02 -9.99216E-02 -1.21055E-01 -1.42968E-01 -1.65145E-01 -1.87389E-01 -2.09205E-01 -2.29606E-01 -2.47767E-01
  -2.63055E-01 -2.75134E-01 -2.83840E-01 -2.89594E-01 -2.92431E-01 -2.92699E-01 -2.90814E-01 -2.87064E-01 -2.81365E-01 -2.73841E-01
  -2.65184E-01 -2.55524E-01 -2.44523E-01 -2.32515E-01 -2.20046E-01 -2.07050E-01 -1.93439E-01 -1.79316E-01 -1.65182E-01 -1.50945E-01
  -1.36422E-01 -1.22074E-01 -1.08362E-01 -9.49295E-02 -8.21102E-02 -7.01632E-02 -5.89034E-02 -4.84168E-02 -3.88264E-02 -3.00003E-02
  -2.16855E-02 -1.43658E-02 -8.23764E-03 -2.74787E-03  2.00561E-03  5.75818E-03  8.76185E-03  1.15362E-02  1.45023E-02  1.74187E-02
   2.00979E-02  2.26721E-02  2.51243E-02  2.74356E-02  2.96614E-02  3.16224E-02  3.31460E-02  3.44102E-02  3.55096E-02  3.61614E-02
   3.62653E-02  3.65699E-02  3.73610E-02  3.78779E-02  3.79998E-02  3.79884E-02  3.78347E-02  3.74271E-02  3.68218E-02  3.64710E-02
   3.62448E-02  3.59582E-02  3.52618E-02  3.42720E-02  3.33286E-02  3.23648E-02  3.13612E-02  3.03584E-02  2.94280E-02  2.89813E-02
   2.91147E-02  2.92364E-02  2.93332E-02  2.99784E-02  3.12439E-02  3.25380E-02  3.37148E-02  3.48571E-02  3.59120E-02  3.65781E-02
   3.68494E-02  3.71564E-02  3.76478E-02  3.78704E-02  3.78574E-02  3.77298E-02  3.77817E-02  3.85424E-02  3.98694E-02  4.13887E-02
   4.27554E-02  4.39978E-02  4.52505E-02  4.65699E-02  4.77901E-02  4.89703E-02  4.98168E-02  5.02352E-02  5.06607E-02  5.11898E-02
   5.15306E-02  5.13450E-02  5.10336E-02  5.07027E-02  5.04381E-02  5.06288E-02  5.10651E-02  5.15800E-02  5.18688E-02  5.17603E-02
   5.16765E-02  5.18957E-02  5.25017E-02  5.34025E-02  5.47461E-02  5.65673E-02  5.85617E-02  6.06200E-02  6.26185E-02  6.46886E-02
   6.71999E-02  7.00825E-02  7.30321E-02  7.58724E-02
 NY background values follow
     1.109E-01    1.106E-01    1.104E-01    1.101E-01    1.099E-01    1.096E-01    1.094E-01    1.091E-01    1.088E-01    1.086E-01
     1.083E-01    1.081E-01    1.078E-01    1.076E-01    1.073E-01    1.070E-01    1.068E-01    1.065E-01    1.063E-01    1.060E-01
     1.057E-01    1.055E-01    1.052E-01    1.050E-01    1.047E-01    1.045E-01    1.042E-01    1.039E-01    1.037E-01    1.034E-01
     1.032E-01    1.029E-01    1.027E-01    1.024E-01    1.021E-01    1.019E-01    1.016E-01    1.014E-01    1.011E-01    1.008E-01
     1.006E-01    1.003E-01    1.001E-01    9.981E-02    9.955E-02    9.929E-02    9.903E-02    9.877E-02    9.851E-02    9.825E-02
     9.800E-02    9.774E-02    9.748E-02    9.722E-02    9.696E-02    9.670E-02    9.644E-02    9.618E-02    9.592E-02    9.566E-02
     9.540E-02    9.514E-02    9.488E-02    9.462E-02    9.436E-02    9.410E-02    9.384E-02    9.358E-02    9.332E-02    9.306E-02
