 LCModel (Version 6.3-1N) Copyright: S.W. Provencher.          Ref.: Magn. Reson. Med. 30:672-679 (1993).                
 Slice_N1@15_22  02-Jun-2023 14:37:05
 27 lines in following concentration table = NCONC+1
    Conc.  %SD /Cr+PCr  Metabolite                                         
 1.20E-06  37% 1.2E-04 Mac                                                 
 7.91E-02  11%   8.000 Cr                                                  
    0.000 999%   0.000 PCr                                                 
 8.66E-02  14%   8.758 Ins                                                 
 7.31E-02  13%   7.395 NAA                                                 
 4.27E-02  26%   4.321 Tau                                                 
 2.65E-02  13%   2.677 PCho                                                
    0.000 999%   0.000 GPC                                                 
 6.65E-02  20%   6.725 Glu                                                 
    0.000 999%   0.000 Gln                                                 
 2.18E-02  47%   2.207 Ala                                                 
 3.32E-02  53%   3.356 Asc                                                 
 6.61E-03 140%   0.668 Asp                                                 
 1.38E-02  38%   1.397 GABA                                                
 9.99E-03  60%   1.010 Glc                                                 
    0.000 999%   0.000 GSH                                                 
    0.000 999%   0.000 Lac                                                 
 9.67E-03  73%   0.978 NAAG                                                
    0.000 999%   0.000 PE                                                  
 2.65E-02  13%   2.677 GPC+PCho                                            
 8.28E-02  12%   8.372 NAA+NAAG                                            
 6.65E-02  21%   6.725 Glu+Gln                                             
 7.91E-02  11%   8.000 Cr+PCr                                              
 8.28E-02  12%   8.372 NAA+NAAG                                            
 7.91E-02  11%   8.000 Cr+PCr                                              
 6.65E-02  21%   6.725 Glu+Gln                                             
   6 lines in following misc. output table
  FWHM = 0.041 ppm    S/N =   2                                            
  Data shift =-0.006 ppm                                                   
  Ph:  47 deg       8.3 deg/ppm                                            
  alphaB,S = 3.1E+01,   4.1E+01                                            
   18 spline knots.   Ns = 7(1)                                            
   2 inflections.     1 extrema                                            
  654 points on ppm-axis = NY
      4.000000     3.994181     3.988363     3.982544     3.976726     3.970907     3.965088     3.959270     3.953451     3.947633
      3.941814     3.935995     3.930177     3.924358     3.918540     3.912721     3.906902     3.901084     3.895265     3.889446
      3.883628     3.877809     3.871991     3.866172     3.860353     3.854535     3.848716     3.842898     3.837079     3.831260
      3.825442     3.819623     3.813805     3.807986     3.802167     3.796349     3.790530     3.784712     3.778893     3.773074
      3.767256     3.761437     3.755619     3.749800     3.743981     3.738163     3.732344     3.726526     3.720707     3.714888
      3.709070     3.703251     3.697433     3.691614     3.685795     3.679977     3.674158     3.668339     3.662521     3.656702
      3.650884     3.645065     3.639246     3.633428     3.627609     3.621791     3.615972     3.610153     3.604335     3.598516
      3.592698     3.586879     3.581060     3.575242     3.569423     3.563605     3.557786     3.551967     3.546149     3.540330
      3.534512     3.528693     3.522874     3.517056     3.511237     3.505419     3.499600     3.493781     3.487963     3.482144
      3.476326     3.470507     3.464688     3.458870     3.453051     3.447232     3.441414     3.435595     3.429777     3.423958
      3.418139     3.412321     3.406502     3.400684     3.394865     3.389046     3.383228     3.377409     3.371591     3.365772
      3.359953     3.354135     3.348316     3.342498     3.336679     3.330860     3.325042     3.319223     3.313405     3.307586
      3.301767     3.295949     3.290130     3.284312     3.278493     3.272674     3.266856     3.261037     3.255219     3.249400
      3.243581     3.237763     3.231944     3.226125     3.220307     3.214488     3.208670     3.202851     3.197032     3.191214
      3.185395     3.179577     3.173758     3.167939     3.162121     3.156302     3.150484     3.144665     3.138846     3.133028
      3.127209     3.121391     3.115572     3.109753     3.103935     3.098116     3.092298     3.086479     3.080660     3.074842
      3.069023     3.063205     3.057386     3.051567     3.045749     3.039930     3.034111     3.028293     3.022474     3.016656
      3.010837     3.005018     2.999200     2.993381     2.987563     2.981744     2.975925     2.970107     2.964288     2.958470
      2.952651     2.946832     2.941014     2.935195     2.929377     2.923558     2.917739     2.911921     2.906102     2.900284
      2.894465     2.888646     2.882828     2.877009     2.871191     2.865372     2.859553     2.853735     2.847916     2.842098
      2.836279     2.830460     2.824642     2.818823     2.813004     2.807186     2.801367     2.795549     2.789730     2.783911
      2.778093     2.772274     2.766456     2.760637     2.754818     2.749000     2.743181     2.737363     2.731544     2.725725
      2.719907     2.714088     2.708270     2.702451     2.696632     2.690814     2.684995     2.679177     2.673358     2.667539
      2.661721     2.655902     2.650084     2.644265     2.638446     2.632628     2.626809     2.620991     2.615172     2.609353
      2.603535     2.597716     2.591897     2.586079     2.580260     2.574442     2.568623     2.562804     2.556986     2.551167
      2.545349     2.539530     2.533711     2.527893     2.522074     2.516256     2.510437     2.504618     2.498800     2.492981
      2.487163     2.481344     2.475525     2.469707     2.463888     2.458070     2.452251     2.446432     2.440614     2.434795
      2.428977     2.423158     2.417339     2.411521     2.405702     2.399884     2.394065     2.388246     2.382428     2.376609
      2.370790     2.364972     2.359153     2.353335     2.347516     2.341697     2.335879     2.330060     2.324242     2.318423
      2.312604     2.306786     2.300967     2.295149     2.289330     2.283511     2.277693     2.271874     2.266056     2.260237
      2.254418     2.248600     2.242781     2.236963     2.231144     2.225325     2.219507     2.213688     2.207870     2.202051
      2.196232     2.190414     2.184595     2.178777     2.172958     2.167139     2.161321     2.155502     2.149683     2.143865
      2.138046     2.132228     2.126409     2.120590     2.114772     2.108953     2.103135     2.097316     2.091497     2.085679
      2.079860     2.074042     2.068223     2.062404     2.056586     2.050767     2.044949     2.039130     2.033311     2.027493
      2.021674     2.015856     2.010037     2.004218     1.998400     1.992581     1.986763     1.980944     1.975126     1.969307
      1.963489     1.957670     1.951852     1.946033     1.940215     1.934397     1.928578     1.922760     1.916941     1.911123
      1.905304     1.899486     1.893667     1.887849     1.882030     1.876212     1.870393     1.864575     1.858756     1.852938
      1.847119     1.841301     1.835482     1.829664     1.823845     1.818027     1.812208     1.806390     1.800571     1.794753
      1.788934     1.783116     1.777297     1.771479     1.765660     1.759842     1.754023     1.748205     1.742386     1.736568
      1.730749     1.724931     1.719113     1.713294     1.707476     1.701657     1.695839     1.690020     1.684202     1.678383
      1.672565     1.666746     1.660928     1.655109     1.649291     1.643472     1.637654     1.631835     1.626017     1.620198
      1.614380     1.608561     1.602743     1.596924     1.591106     1.585287     1.579469     1.573650     1.567832     1.562013
      1.556195     1.550376     1.544558     1.538739     1.532921     1.527102     1.521284     1.515465     1.509647     1.503829
      1.498010     1.492192     1.486373     1.480555     1.474736     1.468918     1.463099     1.457281     1.451462     1.445644
      1.439825     1.434007     1.428188     1.422370     1.416551     1.410733     1.404914     1.399096     1.393277     1.387459
      1.381640     1.375822     1.370003     1.364185     1.358366     1.352548     1.346729     1.340911     1.335092     1.329274
      1.323455     1.317637     1.311818     1.306000     1.300182     1.294363     1.288545     1.282726     1.276908     1.271089
      1.265271     1.259452     1.253634     1.247815     1.241997     1.236178     1.230360     1.224541     1.218723     1.212904
      1.207086     1.201267     1.195449     1.189630     1.183812     1.177993     1.172175     1.166356     1.160538     1.154719
      1.148901     1.143082     1.137264     1.131445     1.125627     1.119808     1.113990     1.108171     1.102353     1.096534
      1.090716     1.084898     1.079079     1.073261     1.067442     1.061624     1.055805     1.049987     1.044168     1.038350
      1.032531     1.026713     1.020894     1.015076     1.009257     1.003439     0.997620     0.991802     0.985983     0.980165
      0.974346     0.968528     0.962709     0.956891     0.951072     0.945254     0.939435     0.933617     0.927798     0.921980
      0.916161     0.910343     0.904524     0.898706     0.892887     0.887069     0.881251     0.875432     0.869614     0.863795
      0.857977     0.852158     0.846340     0.840521     0.834703     0.828884     0.823066     0.817247     0.811429     0.805610
      0.799792     0.793973     0.788155     0.782336     0.776518     0.770699     0.764881     0.759062     0.753244     0.747425
      0.741607     0.735788     0.729970     0.724151     0.718333     0.712514     0.706696     0.700877     0.695059     0.689240
      0.683422     0.677603     0.671785     0.665967     0.660148     0.654330     0.648511     0.642693     0.636874     0.631056
      0.625237     0.619419     0.613600     0.607782     0.601963     0.596145     0.590326     0.584508     0.578689     0.572871
      0.567052     0.561234     0.555415     0.549597     0.543778     0.537960     0.532141     0.526323     0.520504     0.514686
      0.508867     0.503049     0.497230     0.491412     0.485593     0.479775     0.473956     0.468138     0.462319     0.456501
      0.450682     0.444864     0.439045     0.433227     0.427408     0.421590     0.415771     0.409953     0.404134     0.398316
      0.392497     0.386679     0.380860     0.375042     0.369223     0.363405     0.357586     0.351767     0.345949     0.340130
      0.334312     0.328493     0.322675     0.316856     0.311038     0.305219     0.299401     0.293582     0.287764     0.281945
      0.276127     0.270308     0.264490     0.258671     0.252853     0.247034     0.241216     0.235397     0.229579     0.223760
      0.217942     0.212123     0.206305     0.200486
 NY phased data points follow
  -4.33046E-02 -2.30176E-01 -1.22719E-01 -1.60292E-01  5.16688E-02 -7.28799E-02 -1.07011E-01 -3.03059E-01 -1.06603E-01 -1.81769E-01
  -2.96292E-01 -8.39785E-02 -1.11368E-03  1.89895E-01  1.34861E-01  6.50263E-02  7.21930E-02  3.37146E-01  1.62347E-01  1.34633E-01
   3.49109E-01  1.76622E-01  3.52501E-02  3.06591E-01  1.10813E-01 -9.18238E-02 -2.16791E-01 -2.13399E-01  2.94538E-01  1.11261E-01
   4.26847E-02 -4.53446E-02  1.52379E-01  3.24704E-02 -5.88327E-02 -1.04326E-01 -2.18409E-01 -5.12800E-01 -6.13418E-01  1.20016E-01
  -3.82275E-01 -9.78529E-02 -6.69075E-02 -4.43820E-01 -1.93884E-02  2.21121E-01  7.22798E-01  5.46640E-01  1.22629E-02  6.57965E-02
   8.77947E-02  4.38221E-02  3.49647E-01  3.11181E-01  6.47151E-01  1.78146E-01 -3.76941E-01 -1.35612E-01 -5.32660E-01 -4.24415E-01
   1.15390E-01  2.29957E-01 -2.44710E-01 -3.80929E-01 -2.07966E-01 -5.10014E-01 -4.36481E-01  1.23315E-01 -7.68245E-02  1.67175E-01
   7.40568E-01  5.81278E-02  6.71646E-02 -8.26673E-02 -4.88359E-01  2.70846E-01  1.09271E-01 -1.00750E-01  2.09613E-01  3.19953E-01
   4.46960E-02 -5.93296E-01 -4.99241E-01 -4.55543E-01 -4.04163E-01 -3.96714E-01  3.64840E-02  3.58261E-01  2.72912E-01  7.07671E-01
   8.13953E-01  7.52937E-01  3.09074E-01  2.89366E-02 -1.13658E-01 -9.64102E-02  2.79196E-02 -1.67383E-01 -1.60282E-01 -1.41530E-01
   3.34156E-01  5.27614E-01  1.20813E-01  3.01285E-02 -2.10169E-01 -2.19242E-01 -3.62287E-03 -2.41014E-01 -1.78634E-01 -3.18549E-02
   2.93023E-01  7.52566E-01  6.87245E-01  6.55279E-01  9.25053E-01  7.61074E-01  6.06944E-01  6.46756E-01  2.80813E-01  1.18129E-01
  -8.80942E-02 -6.55646E-03 -1.55983E-02 -2.19930E-01 -3.57643E-02 -5.92359E-02  7.35774E-02  2.48788E-01  1.62800E-01 -1.22623E-01
  -1.32213E-01 -4.04320E-02 -5.28521E-01 -7.45607E-01 -6.86082E-01 -9.02678E-01 -1.00840E+00 -9.41784E-01 -8.62619E-01 -9.65542E-01
  -9.26292E-01 -7.66696E-01 -5.36107E-01 -2.38951E-01  2.38154E-02  1.98495E-01  2.53354E-01  5.71337E-01  4.64358E-01  3.62342E-01
   3.60944E-01 -2.62519E-01 -3.92176E-01 -2.18107E-01 -1.32831E-01 -2.44800E-01 -5.64072E-01 -2.65012E-01 -2.60646E-01  2.31610E-01
   5.73112E-01  1.51759E-01  5.62900E-01  8.02755E-01  1.01411E+00  1.10627E+00  1.20964E+00  9.69147E-01  7.27424E-01  5.42130E-01
  -3.66283E-01 -7.15559E-01 -5.07878E-01 -4.04526E-01 -7.07976E-01 -6.32765E-01 -5.65271E-01 -9.74374E-01 -9.58591E-01 -7.73810E-01
  -9.22169E-01 -7.49488E-01 -8.87737E-01 -8.21223E-01 -9.83865E-01 -1.00859E+00 -3.14928E-01 -4.86128E-01 -4.73720E-02 -2.00549E-01
   8.08199E-02  5.30836E-02  4.27206E-02  5.42668E-01  1.11151E-02  5.73843E-01  2.65510E-01  1.78523E-01  4.04067E-01  1.42675E-01
  -6.51650E-02  4.90505E-02  2.26464E-01 -2.94868E-01 -1.65780E-01 -2.75140E-01 -3.66612E-01 -2.12275E-01 -2.50794E-01 -2.53306E-01
  -3.39677E-01 -2.90840E-01 -4.43470E-01 -4.61154E-01  6.39844E-02 -8.30588E-02 -1.70925E-01  2.60610E-02 -1.80915E-02  2.22593E-03
  -1.07504E-02  1.39097E-02 -9.48936E-03  2.65806E-01  4.42075E-02  2.09456E-01  1.74329E-01 -1.07860E-01  4.62957E-01  7.12812E-01
   6.71101E-01  2.09184E-01  4.10409E-01  6.23465E-01  4.44572E-01  3.34238E-01 -1.55292E-01  2.50194E-01 -9.63001E-02 -1.17458E-01
   5.14400E-01 -7.39606E-02  1.89450E-01 -4.47753E-02 -6.52630E-02 -1.67749E-01 -2.14347E-01  5.16527E-02 -4.58954E-01  2.63688E-01
  -1.15494E-01 -3.44214E-01  3.27688E-02  1.87070E-02 -1.32089E-01 -9.30049E-03  4.39063E-01 -1.58493E-01  5.88505E-02  2.86489E-01
   3.99239E-01  3.57631E-01  1.38551E-01  3.71374E-01  3.09998E-01  3.56592E-01  3.43135E-01  2.71666E-02  4.79695E-02  3.13895E-01
   1.50331E-01 -3.29169E-02  1.26989E-02  1.58297E-01  2.02982E-01  6.72291E-02 -2.19873E-01 -9.12656E-02 -1.02575E-01 -1.37883E-01
  -2.76310E-01 -4.94029E-01 -2.67215E-02 -3.62094E-01 -3.57797E-01  1.47757E-01  1.17695E-02  9.13373E-02  5.49513E-01  6.03177E-01
   1.62705E-01  2.27027E-01  3.50330E-01 -4.54288E-02 -5.96157E-02  1.01934E-01 -2.55091E-01  3.13305E-01  3.76771E-01 -2.83254E-01
   2.75259E-01  3.16548E-01  3.57644E-01  2.02527E-01  1.28228E-01  3.46236E-01  1.36430E-01  6.99510E-01  4.62834E-01  3.22816E-01
   4.02412E-01  2.57013E-01  2.01657E-01  9.72915E-02  2.89182E-01  9.23577E-03  3.90438E-01  2.30309E-01 -1.71217E-01  1.01566E-02
   2.90825E-02 -2.12026E-02 -1.83195E-01 -1.41531E-01 -3.65322E-01 -1.28857E-01  1.17235E-01 -1.80506E-01 -1.09735E-01  6.40472E-02
   4.69572E-02  3.08850E-02  5.20511E-03  8.32495E-02 -3.73478E-02 -1.81226E-01 -4.98100E-01 -3.73925E-01 -1.41347E-02 -4.09984E-01
  -6.05471E-01 -8.42811E-01 -7.98069E-01 -9.75993E-01 -1.20615E+00 -7.37628E-01 -2.86169E-01 -1.47045E-01 -1.55650E-01 -1.08813E-01
   1.07410E-01  1.37121E-01 -7.87241E-02  3.56179E-01  3.56964E-01  3.22424E-01  1.84975E-01  3.17702E-02  2.13905E-01  3.73321E-01
   6.71979E-01  8.02712E-02  5.09219E-02  2.18324E-01 -1.26905E-01 -1.26613E-01 -3.67217E-02  1.28882E-01  3.04474E-01  1.89611E-01
   1.95735E-01  3.29431E-02 -3.26605E-01 -3.29595E-02 -3.62910E-01 -3.00385E-01  2.46901E-03 -1.47946E-01  1.82035E-01 -1.56214E-01
  -4.27103E-02  1.46928E-01 -1.85385E-01 -1.02557E-02 -1.02573E-02  6.12553E-02 -1.33863E-01 -8.04294E-02  1.37782E-01 -4.40824E-02
   8.74114E-02 -8.98039E-02  8.15181E-02 -2.27144E-02 -1.79490E-01  7.63187E-02  6.11463E-03  2.87728E-01 -1.35007E-01 -1.35755E-01
   2.65984E-01  1.28520E-01  2.03324E-03 -1.55120E-01  8.33143E-02 -1.98361E-01  1.41803E-02  1.53259E-02 -3.06590E-01  1.12374E-01
  -1.76539E-01 -1.70282E-02 -5.03202E-02 -2.94364E-01 -1.12121E-01 -1.64326E-01  3.91508E-02 -5.48235E-01 -4.87236E-01  1.02320E-01
  -2.52451E-01  6.33517E-02 -4.45811E-02 -3.90863E-01  9.79138E-02  1.25679E-01 -1.12499E-01  5.95029E-02  1.72178E-01  1.06725E-01
   1.15214E-01  2.04752E-01  2.57991E-01  2.73694E-02  2.23000E-01 -2.84607E-02  1.91642E-01  5.14817E-01  1.16982E-01  4.44066E-01
   8.25431E-03  2.20746E-01  2.08010E-01 -1.16495E-01  8.56293E-02  5.86274E-02  6.07269E-01  5.26688E-01  4.11480E-01  1.93715E-01
   1.43297E-01  3.89761E-01  2.55412E-01  2.55250E-01  5.72086E-01  3.38458E-01  1.15604E-02  5.30414E-03 -6.87029E-02  2.00904E-01
  -3.18155E-02  1.71318E-01  4.96847E-01  3.00681E-01  1.07490E-01 -8.30318E-02 -1.57052E-01 -1.47002E-01 -2.28929E-01 -4.55907E-01
  -4.37084E-01 -1.82395E-01 -2.08336E-01 -2.65163E-01  2.73579E-01 -1.62914E-01 -5.35539E-01 -3.16278E-01 -1.58465E-01 -6.62226E-02
   1.46581E-01  3.47611E-01 -1.46446E-01  1.40295E-01 -2.06567E-01 -3.25938E-01 -3.14224E-02 -1.37271E-01  4.13965E-01 -1.98174E-02
  -2.56620E-01  2.85256E-01 -6.01337E-02 -3.61223E-01 -1.33299E-01 -1.23262E-01  8.83418E-02 -3.25405E-02  4.79870E-02  1.65402E-01
   3.20186E-02  1.14172E-01 -3.90805E-02  2.63211E-01  7.10299E-02 -1.75660E-01 -8.91750E-03  1.47389E-01  2.24752E-01 -1.10035E-02
   1.80517E-01  4.68135E-01  3.15515E-01  5.53275E-02  9.93925E-02  3.73073E-02  2.52677E-01  7.42060E-02 -3.21460E-01 -8.09826E-02
  -2.28997E-01 -9.22980E-02 -1.79289E-01 -2.52383E-01  1.02919E-01 -3.39599E-01 -3.11932E-01 -1.94187E-01 -1.71937E-01 -1.48042E-01
  -4.69244E-01  8.91501E-02 -1.99288E-01 -1.79852E-01  1.66883E-01 -1.42135E-01  1.14681E-01 -2.09099E-01 -1.17741E-01 -8.13079E-03
   1.75879E-01  1.14078E-02 -1.53911E-01 -9.42606E-02 -4.99124E-01  1.35267E-02  1.21839E-01  2.07909E-01  4.30435E-02  2.34550E-02
   3.65521E-01  1.00544E-01  3.77762E-01  3.78343E-01  1.02569E-02  1.60677E-01  7.56231E-02  1.70382E-01  2.93215E-01  2.09128E-01
   3.09159E-01  2.62879E-02  1.64505E-01  1.75030E-01  5.78561E-02 -4.70584E-02  1.19329E-01 -4.77406E-02  1.55358E-01  4.47217E-01
  -1.74068E-01  1.44341E-01 -3.18743E-01 -2.97914E-01  6.46156E-02  3.67517E-01  6.33722E-02 -2.31470E-01  2.05830E-01 -1.06642E-01
   3.97546E-01 -4.93214E-02 -1.19730E-01 -4.40460E-02 -2.42943E-01 -2.24540E-03 -2.41660E-01 -7.35973E-02 -1.50171E-01 -4.54377E-02
   2.76948E-01 -2.95911E-02  1.26073E-01  3.29307E-01 -8.19753E-02  1.60289E-01 -2.87622E-01 -3.56190E-01  6.01837E-03 -2.11571E-01
  -2.31017E-01 -8.49664E-02  9.19424E-02  5.21384E-02  1.70376E-01 -5.05117E-02  1.24391E-03 -9.92521E-02 -1.38411E-01 -2.44458E-01
  -2.73585E-02  3.53692E-01 -3.61249E-01  2.52432E-02  3.18497E-01 -2.18270E-01  6.55130E-02 -5.40078E-02  1.56945E-01  2.29501E-01
  -2.50101E-01  8.26997E-02 -2.65576E-01 -2.89375E-01  7.20665E-02  1.52895E-01 -1.15743E-01 -3.46021E-02 -8.08450E-02 -3.60966E-01
   1.13687E-01 -1.43140E-01  2.16398E-01  9.82989E-02 -1.48523E-02  2.29993E-02 -1.52901E-01  1.29658E-01  3.09466E-02 -1.78733E-01
  -3.69220E-01  8.04399E-03 -1.92717E-01  1.14521E-01  2.35960E-01  6.06460E-02  4.12175E-02  4.08332E-02  2.71386E-01 -2.96014E-01
  -7.59253E-02 -5.27908E-02  3.65778E-02  3.21517E-01
 NY points of the fit to the data follow
   7.75669E-02  7.38732E-02  6.39892E-02  4.85393E-02  3.05885E-02  1.23340E-02 -4.03820E-03 -1.82514E-02 -3.15606E-02 -6.45215E-02
  -9.76958E-02 -9.73834E-02 -4.40166E-02  6.41651E-02  2.05383E-01  3.52833E-01  4.79065E-01  5.57295E-01  5.64777E-01  5.08345E-01
   4.27270E-01  3.44471E-01  2.57068E-01  1.64347E-01  7.27706E-02  1.60288E-02 -1.51227E-02 -3.70907E-02 -5.33787E-02 -6.66333E-02
  -7.81098E-02 -8.99482E-02 -1.02148E-01 -1.15366E-01 -1.31539E-01 -1.50335E-01 -1.73139E-01 -1.93979E-01 -2.11322E-01 -2.14914E-01
  -2.01795E-01 -1.65171E-01 -1.07941E-01 -3.78400E-02  3.69181E-02  1.06172E-01  1.62497E-01  2.02613E-01  2.23934E-01  2.27670E-01
   2.16948E-01  1.93638E-01  1.62332E-01  1.19114E-01  6.91441E-02  8.63393E-03 -5.04348E-02 -1.02810E-01 -1.46765E-01 -1.73715E-01
  -1.91065E-01 -2.10257E-01 -2.25087E-01 -2.42288E-01 -2.51654E-01 -2.38325E-01 -1.93382E-01 -1.17756E-01 -2.13341E-02  8.58058E-02
   1.83785E-01  2.62206E-01  3.15984E-01  3.36663E-01  3.38034E-01  3.02634E-01  2.20540E-01  1.13797E-01 -2.02032E-02 -1.55679E-01
  -2.66874E-01 -3.33706E-01 -3.37348E-01 -2.73423E-01 -1.62038E-01 -3.52419E-02  9.20667E-02  2.12267E-01  3.06752E-01  3.64689E-01
   3.84078E-01  3.83866E-01  3.74579E-01  3.48627E-01  3.02576E-01  2.47212E-01  1.79172E-01  1.04536E-01  3.63413E-02 -1.35921E-02
  -3.44954E-02 -2.48385E-02  1.07950E-02  6.28821E-02  1.19337E-01  1.73838E-01  2.21926E-01  2.58698E-01  2.88082E-01  3.02364E-01
   3.11713E-01  3.13881E-01  3.15191E-01  3.16267E-01  3.17474E-01  3.18538E-01  3.20790E-01  3.28987E-01  3.35655E-01  3.38904E-01
   3.39599E-01  3.30744E-01  3.09027E-01  2.75495E-01  2.20521E-01  1.47606E-01  6.00147E-02 -3.33852E-02 -7.40364E-02 -7.98567E-02
  -9.66649E-02 -1.68612E-01 -3.09068E-01 -5.01553E-01 -7.11969E-01 -9.01933E-01 -1.03101E+00 -1.04659E+00 -9.50406E-01 -8.18044E-01
  -6.81518E-01 -5.38664E-01 -3.83557E-01 -2.21211E-01 -1.20341E-01 -6.16276E-02 -1.92417E-02  1.43741E-02  4.24165E-02  6.66918E-02
   8.83390E-02  1.08234E-01  1.27130E-01  1.45602E-01  1.64072E-01  1.82922E-01  2.02443E-01  2.22987E-01  2.44713E-01  2.67508E-01
   2.89953E-01  3.08462E-01  4.12257E-01  5.76926E-01  7.48298E-01  8.58603E-01  8.52404E-01  7.25311E-01  4.86005E-01  1.67076E-01
  -1.74643E-01 -4.46354E-01 -6.01044E-01 -6.87920E-01 -7.39902E-01 -7.44180E-01 -6.92364E-01 -5.73040E-01 -4.93739E-01 -4.37571E-01
  -3.91532E-01 -3.54188E-01 -3.22193E-01 -2.95224E-01 -2.72373E-01 -2.52549E-01 -2.35114E-01 -2.19580E-01 -2.05614E-01 -1.92958E-01
  -1.81526E-01 -1.71156E-01 -1.61653E-01 -1.52803E-01 -1.44503E-01 -1.36925E-01 -1.29658E-01 -1.22102E-01 -1.14039E-01 -1.05813E-01
  -9.83539E-02 -9.18332E-02 -8.57838E-02 -8.00175E-02 -7.48249E-02 -7.06367E-02 -6.74347E-02 -6.53134E-02 -6.47776E-02 -6.60822E-02
  -6.88088E-02 -7.08853E-02 -7.06441E-02 -6.82481E-02 -6.46845E-02 -6.05566E-02 -5.58060E-02 -5.07510E-02 -5.00907E-02 -5.13365E-02
  -4.63885E-02 -3.00730E-02 -3.60308E-03  2.48552E-02  5.20585E-02  8.25933E-02  1.16733E-01  1.49916E-01  1.76440E-01  1.96429E-01
   2.08774E-01  2.05584E-01  1.81641E-01  1.40723E-01  9.95534E-02  6.49371E-02  3.23973E-02  6.02321E-04 -2.73952E-02 -4.65924E-02
  -5.69955E-02 -6.48878E-02 -7.12150E-02 -7.68844E-02 -8.27365E-02 -8.87609E-02 -9.43952E-02 -9.98641E-02 -1.04471E-01 -1.09270E-01
  -1.19926E-01 -1.31217E-01 -1.40046E-01 -1.46211E-01 -1.46650E-01 -1.38115E-01 -1.15784E-01 -8.41013E-02 -4.63212E-02 -7.89670E-03
   2.99983E-02  6.83191E-02  9.97076E-02  1.18858E-01  1.25908E-01  1.22927E-01  1.14648E-01  9.52229E-02  6.89948E-02  4.41111E-02
   2.06122E-02 -2.41409E-03 -2.70855E-02 -4.86609E-02 -6.75080E-02 -8.91973E-02 -1.16314E-01 -1.51544E-01 -1.98222E-01 -2.49230E-01
  -2.97234E-01 -3.29594E-01 -3.32534E-01 -2.99469E-01 -2.31632E-01 -1.39934E-01 -3.95356E-02  5.40860E-02  1.27552E-01  1.75249E-01
   1.94646E-01  1.92992E-01  1.78644E-01  1.58872E-01  1.44176E-01  1.35593E-01  1.36091E-01  1.44392E-01  1.54319E-01  1.63326E-01
   1.69414E-01  1.71213E-01  1.70354E-01  1.65755E-01  1.58223E-01  1.49234E-01  1.36370E-01  1.21927E-01  1.05119E-01  8.74954E-02
   7.19052E-02  5.98902E-02  5.29240E-02  4.95154E-02  4.86863E-02  4.68640E-02  4.16858E-02  3.13449E-02  1.38363E-02 -1.03271E-02
  -3.96387E-02 -7.12775E-02 -9.85738E-02 -1.16488E-01 -1.20267E-01 -1.08928E-01 -8.51942E-02 -5.68164E-02 -2.95742E-02 -1.07863E-02
  -3.38530E-04 -8.75552E-03 -3.72480E-02 -8.31902E-02 -1.34662E-01 -1.45305E-01 -1.41221E-01 -1.67752E-01 -2.53176E-01 -4.00644E-01
  -5.83256E-01 -7.70986E-01 -9.24924E-01 -1.00136E+00 -9.70949E-01 -8.47223E-01 -7.03027E-01 -5.64317E-01 -4.26803E-01 -2.86523E-01
  -1.53138E-01 -7.92697E-02 -4.45602E-02 -2.15193E-02 -3.33485E-03  1.10361E-02  2.30466E-02  3.03614E-02  3.24591E-02  2.75148E-02
   1.53314E-02 -2.72008E-03 -2.43701E-02 -4.59468E-02 -6.45338E-02 -7.76328E-02 -8.39027E-02 -8.37388E-02 -7.77372E-02 -6.75808E-02
  -5.56607E-02 -4.21960E-02 -3.02429E-02 -1.88414E-02 -9.65213E-03 -1.97113E-03  4.32311E-03  9.59997E-03  1.41378E-02  1.80490E-02
   2.15192E-02  2.46911E-02  2.76187E-02  3.03025E-02  3.26547E-02  3.47598E-02  3.66869E-02  3.86371E-02  4.06979E-02  4.28840E-02
   4.50158E-02  4.69562E-02  4.85277E-02  4.97173E-02  5.04691E-02  5.07670E-02  5.06126E-02  5.00454E-02  4.90823E-02  4.76016E-02
   4.56446E-02  4.32665E-02  4.05834E-02  3.76328E-02  3.45084E-02  3.12338E-02  2.79687E-02  2.47979E-02  2.17399E-02  1.88257E-02
   1.61519E-02  1.37505E-02  1.16148E-02  9.62613E-03  7.81339E-03  6.19257E-03  4.75661E-03  3.45471E-03  2.30886E-03  1.36588E-03
   6.33647E-04  2.05451E-04  1.16859E-04  4.31978E-04  1.29878E-03  2.77346E-03  4.51864E-03  4.63232E-03  3.09354E-03  6.91186E-03
   1.80302E-02  4.53291E-02  8.80509E-02  1.40047E-01  1.91812E-01  2.31882E-01  2.52072E-01  2.48825E-01  2.27045E-01  1.94216E-01
   1.57802E-01  1.24820E-01  9.67781E-02  7.56206E-02  6.44528E-02  5.94014E-02  6.35998E-02  6.88791E-02  7.39031E-02  7.82561E-02
   8.18246E-02  8.46145E-02  8.65963E-02  8.77051E-02  8.77884E-02  8.68315E-02  8.48611E-02  8.19569E-02  7.82843E-02  7.39326E-02
   6.91410E-02  6.40685E-02  5.88609E-02  5.36002E-02  4.84658E-02  4.35712E-02  3.90318E-02  3.48182E-02  3.08680E-02  2.71468E-02
   2.37986E-02  2.08586E-02  1.83876E-02  1.64272E-02  1.50180E-02  1.42773E-02  1.41661E-02  1.46603E-02  1.57057E-02  1.73185E-02
   1.94485E-02  2.19356E-02  2.45575E-02  2.70924E-02  2.94710E-02  3.16820E-02  3.36914E-02  3.55755E-02  3.72704E-02  3.87757E-02
   4.00562E-02  4.10008E-02  4.15121E-02  4.15336E-02  4.11623E-02  4.04277E-02  3.93551E-02  3.79884E-02  3.64301E-02  3.48504E-02
   3.32396E-02  3.15208E-02  2.96847E-02  2.77381E-02  2.58085E-02  2.38613E-02  2.19301E-02  2.01017E-02  1.84286E-02  1.68798E-02
   1.52972E-02  1.35272E-02  1.15110E-02  9.27830E-03  6.79557E-03  4.00526E-03  7.37551E-04 -3.06774E-03 -7.54799E-03 -1.28523E-02
  -1.90712E-02 -2.61311E-02 -3.38136E-02 -4.19046E-02 -5.02588E-02 -5.87446E-02 -6.71156E-02 -7.50031E-02 -8.21437E-02 -8.84045E-02
  -9.35980E-02 -9.75864E-02 -1.00138E-01 -1.01289E-01 -1.01165E-01 -9.99599E-02 -9.77863E-02 -9.48765E-02 -9.15543E-02 -8.80063E-02
  -8.42222E-02 -8.01162E-02 -7.56860E-02 -7.09582E-02 -6.58873E-02 -6.05529E-02 -5.50069E-02 -4.92623E-02 -4.34292E-02 -3.75923E-02
  -3.19049E-02 -2.64244E-02 -2.11036E-02 -1.59964E-02 -1.11755E-02 -6.66239E-03 -2.46779E-03  1.46896E-03  5.13950E-03  8.44680E-03
   1.13413E-02  1.39884E-02  1.64789E-02  1.86729E-02  2.04880E-02  2.20118E-02  2.33118E-02  2.44688E-02  2.54568E-02  2.63871E-02
   2.74346E-02  2.85743E-02  2.98364E-02  3.10948E-02  3.22321E-02  3.32936E-02  3.42138E-02  3.49489E-02  3.55046E-02  3.59155E-02
   3.62233E-02  3.64057E-02  3.65270E-02  3.67306E-02  3.71319E-02  3.76428E-02  3.81201E-02  3.85133E-02  3.87725E-02  3.89117E-02
   3.89094E-02  3.88306E-02  3.88331E-02  3.90263E-02  3.92577E-02  3.93691E-02  3.94307E-02  3.95691E-02  3.98578E-02  4.01865E-02
   4.05181E-02  4.10344E-02  4.17666E-02  4.25616E-02  4.34058E-02  4.43460E-02  4.55061E-02  4.66882E-02  4.77727E-02  4.86978E-02
   4.94749E-02  5.01458E-02  5.06987E-02  5.12341E-02  5.18679E-02  5.26442E-02  5.35260E-02  5.44586E-02  5.54645E-02  5.67030E-02
   5.81589E-02  5.97769E-02  6.13896E-02  6.29320E-02  6.43347E-02  6.55870E-02  6.67358E-02  6.78581E-02  6.89910E-02  7.01226E-02
   7.12493E-02  7.23935E-02  7.35260E-02  7.46766E-02  7.59747E-02  7.73783E-02  7.88633E-02  8.04443E-02  8.21284E-02  8.40340E-02
   8.60975E-02  8.81650E-02  9.02076E-02  9.23489E-02  9.47609E-02  9.75042E-02  1.00535E-01  1.03869E-01  1.07473E-01  1.11315E-01
   1.15246E-01  1.19250E-01  1.23452E-01  1.27900E-01
 NY background values follow
     3.754E-02    3.739E-02    3.724E-02    3.708E-02    3.693E-02    3.678E-02    3.662E-02    3.647E-02    3.632E-02    3.616E-02
     3.601E-02    3.586E-02    3.570E-02    3.555E-02    3.540E-02    3.525E-02    3.509E-02    3.494E-02    3.479E-02    3.463E-02
     3.448E-02    3.433E-02    3.417E-02    3.402E-02    3.387E-02    3.371E-02    3.356E-02    3.341E-02    3.325E-02    3.310E-02
     3.295E-02    3.279E-02    3.264E-02    3.249E-02    3.233E-02    3.218E-02    3.203E-02    3.187E-02    3.172E-02    3.157E-02
     3.142E-02    3.126E-02    3.111E-02    3.096E-02    3.080E-02    3.065E-02    3.050E-02    3.034E-02    3.019E-02    3.004E-02
     2.988E-02    2.973E-02    2.958E-02    2.942E-02    2.927E-02    2.912E-02    2.896E-02    2.881E-02    2.866E-02    2.850E-02
     2.835E-02    2.820E-02    2.804E-02    2.789E-02    2.774E-02    2.759E-02    2.743E-02    2.728E-02    2.713E-02    2.697E-02
