 LCModel (Version 6.3-1N) Copyright: S.W. Provencher.          Ref.: Magn. Reson. Med. 30:672-679 (1993).                
 Slice_N1@22_20  02-Jun-2023 14:37:24
 27 lines in following concentration table = NCONC+1
    Conc.  %SD /Cr+PCr  Metabolite                                         
 1.17E-06  27% 1.5E-04 Mac                                                 
 1.60E-02  83%   2.068 Cr                                                  
 4.59E-02  29%   5.932 PCr                                                 
 8.81E-02   9%  11.401 Ins                                                 
 8.12E-02   8%  10.503 NAA                                                 
 5.34E-02  14%   6.911 Tau                                                 
 1.05E-02  18%   1.360 PCho                                                
    0.000 999%   0.000 GPC                                                 
 9.33E-02  10%  12.075 Glu                                                 
 2.19E-02  30%   2.832 Gln                                                 
    0.000 999%   0.000 Ala                                                 
 4.77E-03 250%   0.617 Asc                                                 
 5.00E-03 139%   0.646 Asp                                                 
 6.84E-03  55%   0.884 GABA                                                
 6.49E-03  70%   0.840 Glc                                                 
 1.07E-02  36%   1.384 GSH                                                 
    0.000 999%   0.000 Lac                                                 
    0.000 999%   0.000 NAAG                                                
    0.000 999%   0.000 PE                                                  
 1.05E-02  18%   1.360 GPC+PCho                                            
 8.12E-02   8%  10.503 NAA+NAAG                                            
    0.115   9%  14.907 Glu+Gln                                             
 6.18E-02   9%   8.000 Cr+PCr                                              
 8.12E-02   8%  10.503 NAA+NAAG                                            
 6.18E-02   9%   8.000 Cr+PCr                                              
    0.115   9%  14.907 Glu+Gln                                             
   6 lines in following misc. output table
  FWHM = 0.029 ppm    S/N =   4                                            
  Data shift = 0.023 ppm                                                   
  Ph:  14 deg     -10.1 deg/ppm                                            
  alphaB,S = 3.1E+01,   9.7E+00                                            
   18 spline knots.   Ns = 5(1)                                            
   2 inflections.     1 extrema                                            
  654 points on ppm-axis = NY
      4.000000     3.994181     3.988363     3.982544     3.976726     3.970907     3.965088     3.959270     3.953451     3.947633
      3.941814     3.935995     3.930177     3.924358     3.918540     3.912721     3.906902     3.901084     3.895265     3.889446
      3.883628     3.877809     3.871991     3.866172     3.860353     3.854535     3.848716     3.842898     3.837079     3.831260
      3.825442     3.819623     3.813805     3.807986     3.802167     3.796349     3.790530     3.784712     3.778893     3.773074
      3.767256     3.761437     3.755619     3.749800     3.743981     3.738163     3.732344     3.726526     3.720707     3.714888
      3.709070     3.703251     3.697433     3.691614     3.685795     3.679977     3.674158     3.668339     3.662521     3.656702
      3.650884     3.645065     3.639246     3.633428     3.627609     3.621791     3.615972     3.610153     3.604335     3.598516
      3.592698     3.586879     3.581060     3.575242     3.569423     3.563605     3.557786     3.551967     3.546149     3.540330
      3.534512     3.528693     3.522874     3.517056     3.511237     3.505419     3.499600     3.493781     3.487963     3.482144
      3.476326     3.470507     3.464688     3.458870     3.453051     3.447232     3.441414     3.435595     3.429777     3.423958
      3.418139     3.412321     3.406502     3.400684     3.394865     3.389046     3.383228     3.377409     3.371591     3.365772
      3.359953     3.354135     3.348316     3.342498     3.336679     3.330860     3.325042     3.319223     3.313405     3.307586
      3.301767     3.295949     3.290130     3.284312     3.278493     3.272674     3.266856     3.261037     3.255219     3.249400
      3.243581     3.237763     3.231944     3.226125     3.220307     3.214488     3.208670     3.202851     3.197032     3.191214
      3.185395     3.179577     3.173758     3.167939     3.162121     3.156302     3.150484     3.144665     3.138846     3.133028
      3.127209     3.121391     3.115572     3.109753     3.103935     3.098116     3.092298     3.086479     3.080660     3.074842
      3.069023     3.063205     3.057386     3.051567     3.045749     3.039930     3.034111     3.028293     3.022474     3.016656
      3.010837     3.005018     2.999200     2.993381     2.987563     2.981744     2.975925     2.970107     2.964288     2.958470
      2.952651     2.946832     2.941014     2.935195     2.929377     2.923558     2.917739     2.911921     2.906102     2.900284
      2.894465     2.888646     2.882828     2.877009     2.871191     2.865372     2.859553     2.853735     2.847916     2.842098
      2.836279     2.830460     2.824642     2.818823     2.813004     2.807186     2.801367     2.795549     2.789730     2.783911
      2.778093     2.772274     2.766456     2.760637     2.754818     2.749000     2.743181     2.737363     2.731544     2.725725
      2.719907     2.714088     2.708270     2.702451     2.696632     2.690814     2.684995     2.679177     2.673358     2.667539
      2.661721     2.655902     2.650084     2.644265     2.638446     2.632628     2.626809     2.620991     2.615172     2.609353
      2.603535     2.597716     2.591897     2.586079     2.580260     2.574442     2.568623     2.562804     2.556986     2.551167
      2.545349     2.539530     2.533711     2.527893     2.522074     2.516256     2.510437     2.504618     2.498800     2.492981
      2.487163     2.481344     2.475525     2.469707     2.463888     2.458070     2.452251     2.446432     2.440614     2.434795
      2.428977     2.423158     2.417339     2.411521     2.405702     2.399884     2.394065     2.388246     2.382428     2.376609
      2.370790     2.364972     2.359153     2.353335     2.347516     2.341697     2.335879     2.330060     2.324242     2.318423
      2.312604     2.306786     2.300967     2.295149     2.289330     2.283511     2.277693     2.271874     2.266056     2.260237
      2.254418     2.248600     2.242781     2.236963     2.231144     2.225325     2.219507     2.213688     2.207870     2.202051
      2.196232     2.190414     2.184595     2.178777     2.172958     2.167139     2.161321     2.155502     2.149683     2.143865
      2.138046     2.132228     2.126409     2.120590     2.114772     2.108953     2.103135     2.097316     2.091497     2.085679
      2.079860     2.074042     2.068223     2.062404     2.056586     2.050767     2.044949     2.039130     2.033311     2.027493
      2.021674     2.015856     2.010037     2.004218     1.998400     1.992581     1.986763     1.980944     1.975126     1.969307
      1.963489     1.957670     1.951852     1.946033     1.940215     1.934397     1.928578     1.922760     1.916941     1.911123
      1.905304     1.899486     1.893667     1.887849     1.882030     1.876212     1.870393     1.864575     1.858756     1.852938
      1.847119     1.841301     1.835482     1.829664     1.823845     1.818027     1.812208     1.806390     1.800571     1.794753
      1.788934     1.783116     1.777297     1.771479     1.765660     1.759842     1.754023     1.748205     1.742386     1.736568
      1.730749     1.724931     1.719113     1.713294     1.707476     1.701657     1.695839     1.690020     1.684202     1.678383
      1.672565     1.666746     1.660928     1.655109     1.649291     1.643472     1.637654     1.631835     1.626017     1.620198
      1.614380     1.608561     1.602743     1.596924     1.591106     1.585287     1.579469     1.573650     1.567832     1.562013
      1.556195     1.550376     1.544558     1.538739     1.532921     1.527102     1.521284     1.515465     1.509647     1.503829
      1.498010     1.492192     1.486373     1.480555     1.474736     1.468918     1.463099     1.457281     1.451462     1.445644
      1.439825     1.434007     1.428188     1.422370     1.416551     1.410733     1.404914     1.399096     1.393277     1.387459
      1.381640     1.375822     1.370003     1.364185     1.358366     1.352548     1.346729     1.340911     1.335092     1.329274
      1.323455     1.317637     1.311818     1.306000     1.300182     1.294363     1.288545     1.282726     1.276908     1.271089
      1.265271     1.259452     1.253634     1.247815     1.241997     1.236178     1.230360     1.224541     1.218723     1.212904
      1.207086     1.201267     1.195449     1.189630     1.183812     1.177993     1.172175     1.166356     1.160538     1.154719
      1.148901     1.143082     1.137264     1.131445     1.125627     1.119808     1.113990     1.108171     1.102353     1.096534
      1.090716     1.084898     1.079079     1.073261     1.067442     1.061624     1.055805     1.049987     1.044168     1.038350
      1.032531     1.026713     1.020894     1.015076     1.009257     1.003439     0.997620     0.991802     0.985983     0.980165
      0.974346     0.968528     0.962709     0.956891     0.951072     0.945254     0.939435     0.933617     0.927798     0.921980
      0.916161     0.910343     0.904524     0.898706     0.892887     0.887069     0.881251     0.875432     0.869614     0.863795
      0.857977     0.852158     0.846340     0.840521     0.834703     0.828884     0.823066     0.817247     0.811429     0.805610
      0.799792     0.793973     0.788155     0.782336     0.776518     0.770699     0.764881     0.759062     0.753244     0.747425
      0.741607     0.735788     0.729970     0.724151     0.718333     0.712514     0.706696     0.700877     0.695059     0.689240
      0.683422     0.677603     0.671785     0.665967     0.660148     0.654330     0.648511     0.642693     0.636874     0.631056
      0.625237     0.619419     0.613600     0.607782     0.601963     0.596145     0.590326     0.584508     0.578689     0.572871
      0.567052     0.561234     0.555415     0.549597     0.543778     0.537960     0.532141     0.526323     0.520504     0.514686
      0.508867     0.503049     0.497230     0.491412     0.485593     0.479775     0.473956     0.468138     0.462319     0.456501
      0.450682     0.444864     0.439045     0.433227     0.427408     0.421590     0.415771     0.409953     0.404134     0.398316
      0.392497     0.386679     0.380860     0.375042     0.369223     0.363405     0.357586     0.351767     0.345949     0.340130
      0.334312     0.328493     0.322675     0.316856     0.311038     0.305219     0.299401     0.293582     0.287764     0.281945
      0.276127     0.270308     0.264490     0.258671     0.252853     0.247034     0.241216     0.235397     0.229579     0.223760
      0.217942     0.212123     0.206305     0.200486
 NY phased data points follow
  -3.64686E-01 -6.10546E-01 -5.82889E-02 -1.20446E-01 -2.80818E-01  2.87850E-02 -5.56347E-02 -1.13509E-01 -1.27494E-01 -2.21699E-01
   3.75305E-01  2.41860E-01  1.07175E-01  6.03853E-01  2.86722E-01  3.93773E-01  4.52393E-01  1.83548E-01  2.22426E-03 -1.81871E-01
  -6.94634E-02  1.97091E-01  1.24390E-01 -1.36016E-01 -4.92707E-02 -1.17316E-01 -1.50257E-01  2.47202E-01  1.29466E-01 -1.43827E-01
  -1.13405E-01 -2.15126E-01  1.98562E-01  2.47344E-02 -1.71678E-01 -1.49281E-01 -5.83428E-01 -2.83446E-01 -1.16608E-01 -1.69847E-01
  -3.37821E-01 -1.83324E-01  2.32407E-01  3.38147E-01  4.86798E-01  2.36774E-01  4.49940E-01  5.15645E-01  1.05112E-01  3.15456E-01
   4.81471E-01  2.49472E-01 -1.03557E-01  2.64085E-01  7.65531E-02 -2.39939E-01  1.24370E-01 -4.38564E-01 -4.63238E-01 -3.40781E-01
  -3.76696E-01 -1.52515E-01 -4.09142E-01 -4.17752E-01 -4.07258E-01 -3.06493E-01  1.83972E-02  6.98705E-03 -1.50704E-01 -4.29343E-02
  -3.48750E-02  2.54194E-01  4.77901E-01  3.73463E-02  2.30086E-01  2.28112E-01 -1.22622E-01 -8.35990E-02 -8.38520E-02 -7.90913E-02
  -3.62349E-01 -4.46134E-01 -3.70921E-01 -1.39718E-02  8.30514E-02  2.49804E-01  3.70201E-01  1.17846E-01  3.35242E-01  7.17554E-02
   3.24039E-01  2.86649E-01  1.52647E-01  2.50972E-01  1.78102E-01  1.78397E-01 -1.79034E-01  1.14866E-01  6.26039E-02 -3.29703E-02
   8.59333E-02 -7.58929E-02 -3.55673E-01  1.33005E-01  3.61075E-01  3.44314E-01  6.26149E-01  4.21579E-01  4.07061E-01  2.63568E-01
   5.30107E-01  6.38234E-01  6.14005E-01  1.31012E-01  3.02960E-01  4.04238E-01  1.21296E-01  4.80210E-01  2.54516E-01  2.54650E-01
   1.19640E-01  3.54717E-01 -9.41051E-02 -1.61681E-01 -1.53932E-01 -2.10810E-01 -4.93963E-02 -5.62544E-01 -2.08515E-01 -2.90291E-01
  -3.45322E-01 -4.85350E-01 -3.60175E-01 -6.22883E-01 -6.39976E-01 -3.20421E-01 -5.63447E-01 -3.51246E-01 -6.18375E-01 -4.29179E-01
  -1.52598E-01  2.12043E-02 -7.57219E-02 -3.40803E-03  9.59971E-03  9.69189E-03  3.30916E-02 -1.50540E-01  1.92972E-01 -1.37962E-02
   1.34482E-01 -2.67903E-02  7.97814E-02  4.29184E-01  8.48168E-02  2.08283E-01  2.36777E-01  1.87268E-01  3.53054E-01  4.76083E-01
   3.84678E-01  2.89450E-01  3.37879E-01  5.53787E-01  6.28037E-01  9.02153E-01  5.40404E-01  3.28302E-01  2.72904E-01 -5.11411E-01
  -4.93421E-01 -5.58804E-01 -6.52341E-01 -3.89697E-01 -1.05255E-01 -4.36620E-01 -2.40683E-01 -2.29032E-01 -4.34113E-01 -4.37823E-02
  -5.81424E-01 -3.62172E-01 -4.14867E-01 -2.83417E-01 -2.10570E-01 -4.17339E-01 -3.48145E-01 -4.42061E-01  5.90739E-02 -2.56622E-01
  -2.48683E-01 -2.11759E-01 -4.50828E-01 -2.44971E-01 -7.93372E-02 -1.89499E-01 -9.93953E-02 -5.71627E-02 -1.61443E-01 -2.95481E-02
  -1.01585E-01  1.09732E-01 -1.68409E-01 -2.23420E-01 -1.82121E-01 -2.14993E-01 -1.36822E-01 -1.88670E-01 -1.89465E-01 -2.00983E-01
  -2.85420E-02 -1.96451E-01  1.20432E-02 -1.93050E-01 -2.52912E-01  9.68159E-02 -2.67845E-01 -2.68866E-01 -7.37851E-02 -1.10595E-01
   9.71644E-02  7.67665E-02 -1.76760E-01 -1.02473E-01  8.78387E-02  4.55959E-01  3.31331E-01  9.38621E-02  1.88403E-01  5.01852E-01
   5.65920E-01  2.09903E-01  1.67680E-01 -1.38902E-01 -5.49188E-02  1.18087E-01 -9.15428E-03  1.06053E-02 -1.74826E-01 -1.20191E-01
  -2.21425E-01 -1.61200E-01 -1.33502E-01 -3.00377E-01 -1.81049E-01 -2.61278E-01 -2.07493E-01 -1.64623E-01  2.24380E-01  1.81274E-01
  -1.28686E-01 -2.09304E-01 -2.91504E-01  3.58562E-01  5.44224E-02 -9.78822E-02  2.35499E-02 -1.65222E-01  1.52164E-01  1.36502E-01
   4.46683E-02 -8.42374E-03  3.63422E-01  1.98632E-01 -4.22245E-02 -9.36297E-02 -2.53997E-01  1.85851E-01  1.37209E-01  1.51591E-01
   5.01773E-01  3.81418E-01 -8.19123E-02 -3.19580E-02  1.41531E-01  2.66515E-02 -1.33333E-01 -1.31477E-01 -1.44255E-01 -1.66569E-01
  -1.07406E-03 -4.49722E-01 -3.26732E-01 -4.48571E-01 -3.90997E-01  1.24210E-01  3.66996E-01  5.45186E-01  2.93403E-01  7.95993E-01
   2.47888E-01  3.97865E-01  5.50107E-01  7.47598E-02  4.91115E-01  2.59780E-01  3.18681E-01  6.23986E-02  1.93731E-01  1.76430E-01
   4.26074E-01  3.61006E-01 -9.97312E-02  2.23661E-01  5.24330E-02  3.59035E-01  4.92822E-01  4.76710E-01  3.16665E-01  1.85532E-01
   1.98221E-01  2.48545E-01  3.22457E-01  3.71456E-01  4.30956E-01  1.13903E-01  4.42654E-02 -9.27786E-04  1.74447E-01 -1.95751E-01
  -3.61965E-01 -1.16188E-01 -3.32891E-01 -6.74026E-02 -2.52525E-01 -2.13392E-01  5.68791E-02 -1.84904E-01 -6.16144E-03 -1.60349E-01
   8.29002E-02  8.21458E-02 -2.46073E-01  8.46148E-02 -2.59363E-01 -3.95575E-01 -3.32117E-01 -3.05407E-01 -3.31143E-01 -1.70027E-01
  -1.87905E-02 -4.79977E-01 -1.03029E+00 -1.42439E+00 -1.11314E+00 -9.56108E-01 -7.99882E-01 -3.23246E-01 -2.40801E-01  1.10540E-01
   2.75250E-01 -1.31872E-01  2.19829E-01  2.48543E-01 -2.67789E-02  1.16134E-01  4.03331E-02 -9.49350E-02  7.65469E-03  1.14781E-01
  -6.84637E-02  2.02014E-01 -7.87949E-02  3.25568E-02  4.81522E-02 -4.84271E-01  3.91958E-02  2.73834E-01  1.33172E-02 -1.41224E-01
   6.47741E-02  2.96582E-01  2.91700E-01  1.18677E-01  2.07380E-01  2.00537E-01 -7.49542E-02 -4.55944E-02  8.48169E-02  1.08506E-01
   2.53243E-01  2.01645E-01  3.69186E-01  5.12589E-01  1.91894E-01  2.98167E-01 -5.36571E-03 -9.98255E-02 -1.11899E-01  1.11362E-02
   2.46372E-01  3.80669E-01  3.84075E-01  4.97645E-02  9.55497E-02 -1.22673E-01 -5.86951E-03  1.84828E-01  2.65081E-01  2.43995E-01
  -1.61098E-02 -5.29790E-02  1.73472E-01 -1.75871E-01 -1.55110E-01  1.41823E-01 -1.36148E-01 -8.86382E-02 -2.96443E-01 -8.21116E-02
  -9.67750E-02 -1.97063E-01 -2.17532E-02 -3.91759E-02 -2.04617E-01 -7.32192E-03 -1.40106E-01 -3.01411E-01  3.47892E-02 -2.07234E-01
   1.41818E-01 -1.71820E-01 -3.67088E-01 -1.76785E-01 -1.52605E-01  1.58983E-01  1.30955E-01  2.90807E-02 -5.46266E-02  1.74324E-01
   8.04648E-02 -1.89899E-01 -9.56314E-03 -1.75061E-01 -5.00832E-01  3.91052E-03  4.66671E-02  6.46703E-02  2.93258E-02 -6.49208E-03
  -6.89233E-02 -1.09654E-02  3.55541E-01 -1.47597E-01  4.90396E-02  8.10388E-02 -1.52245E-03  2.19497E-01  1.20508E-01  5.28207E-02
   3.10700E-01  4.90814E-01  4.05245E-01  1.93651E-01 -6.19084E-02 -1.47954E-01 -2.86099E-01  1.04969E-01 -8.94060E-02 -1.14300E-01
  -4.76829E-02 -1.61541E-01 -5.52872E-02  5.01747E-03 -1.44232E-02 -4.94955E-02  1.61656E-01 -2.72483E-01 -1.69393E-01  1.45870E-01
  -3.99881E-03 -3.07159E-01 -1.02505E-01 -1.02882E-01 -1.95768E-01  1.12256E-01 -6.83783E-02  3.33509E-03 -8.53872E-02 -3.25656E-03
  -6.98546E-02 -4.39828E-02  1.46397E-01 -8.56434E-02 -1.77300E-01 -4.71206E-02  1.12955E-01 -8.95142E-03  1.16305E-01  1.04026E-01
  -2.73272E-01  3.14169E-03  1.71551E-01  8.62958E-03  2.13681E-01 -2.64270E-02  8.71535E-03  6.31361E-02 -4.86068E-02  6.73590E-02
  -5.09644E-02 -6.97388E-02  4.75034E-02  1.33791E-01 -1.70430E-02  1.93830E-01  1.57544E-01  9.12997E-02  2.74367E-01  4.08522E-01
   1.67962E-01 -2.14532E-01  7.81026E-02 -3.60717E-02  1.59900E-01  1.35164E-01  3.89298E-02  1.38496E-01 -2.10968E-01  2.76476E-01
   6.60725E-02 -2.62115E-01  9.27859E-02 -2.40960E-01 -2.00296E-01  4.10364E-02 -2.07083E-01  5.11061E-02 -4.28526E-02 -4.99227E-01
  -3.00054E-01 -3.62765E-01 -2.16753E-01 -1.24388E-01 -2.41227E-01 -7.95653E-02  8.00415E-02 -7.24759E-02 -1.28884E-02  1.26586E-01
  -3.56836E-01 -5.99715E-02 -1.48146E-01 -1.73581E-01  5.20514E-02 -1.42582E-01  1.87534E-01  1.14163E-01 -5.64872E-02  4.55164E-02
   1.32969E-01 -8.51835E-02 -1.06846E-02  1.54273E-01  1.64418E-01 -1.12127E-01 -2.15357E-02  2.45897E-02 -1.28260E-01  1.52580E-01
  -1.15293E-01  1.83367E-01 -2.71031E-02 -1.97913E-02  3.33630E-01  3.06741E-01  3.50111E-02 -3.53311E-01  7.86610E-02 -1.09629E-02
   1.53392E-01  2.22111E-02 -7.77563E-02  6.64754E-02 -5.69776E-02  1.12101E-01 -3.21247E-02 -1.48736E-01 -7.89483E-02 -1.53004E-01
  -1.41476E-01  1.85157E-01 -7.71523E-04  1.91452E-01  1.47297E-01 -2.14965E-01 -7.80524E-02 -1.70225E-01 -3.10674E-02  4.07267E-02
   9.58340E-02 -1.39652E-01 -2.96303E-01 -9.55479E-02 -1.85823E-01 -1.39802E-01 -1.76287E-01 -1.53502E-01 -7.51240E-02 -3.38793E-01
   1.44374E-01  2.47413E-01 -3.87709E-01 -2.73258E-01 -2.03605E-01 -3.21565E-02 -4.47921E-02 -1.26927E-01 -9.90068E-02  2.75811E-03
   1.43181E-01 -1.81821E-01 -2.04386E-01 -2.72074E-01 -1.99044E-02  4.13956E-02  4.94219E-02  1.59126E-01 -3.71832E-02  1.51381E-01
  -9.89876E-03 -9.92711E-02  4.72692E-02  1.96403E-01 -2.26676E-01  1.90129E-02  1.18942E-01 -3.00266E-01  3.03866E-01 -2.00793E-01
  -1.49550E-01  3.55746E-01  1.04117E-01  1.12163E-01 -2.89163E-02 -8.03841E-02  2.39196E-01  1.75467E-01 -9.63754E-02 -3.51696E-02
   2.73999E-02 -1.28198E-02 -3.49157E-01  1.50405E-01 -4.59907E-02 -7.93660E-02  2.21627E-01 -1.67005E-01  2.10583E-01 -2.74148E-02
  -2.60966E-01 -2.19176E-01  1.51898E-01  2.32881E-01
 NY points of the fit to the data follow
  -1.02695E-02 -7.91837E-03 -8.23309E-03 -9.35353E-03 -1.09967E-02 -1.07444E-02 -6.62982E-03  1.77262E-02  4.11140E-02  5.86241E-02
   1.22016E-01  2.19247E-01  3.40447E-01  4.54066E-01  4.79252E-01  4.24491E-01  3.62771E-01  2.38100E-01  1.32216E-01  7.69426E-02
   2.15582E-02 -5.19082E-03 -2.33012E-02 -4.02018E-02 -5.77138E-02 -7.36206E-02 -8.73233E-02 -9.93734E-02 -1.09209E-01 -1.17832E-01
  -1.27267E-01 -1.37293E-01 -1.49576E-01 -1.66759E-01 -1.86586E-01 -2.07723E-01 -2.18399E-01 -2.34158E-01 -2.27076E-01 -1.92553E-01
  -1.05909E-01  1.33547E-02  1.55942E-01  2.63551E-01  3.52290E-01  3.81778E-01  3.58878E-01  3.03801E-01  2.30572E-01  1.69951E-01
   1.10679E-01  6.93241E-02  3.38521E-02  3.58811E-03 -2.93213E-02 -6.49738E-02 -1.01391E-01 -1.44121E-01 -1.93736E-01 -2.29760E-01
  -2.79125E-01 -3.32944E-01 -3.31986E-01 -3.36703E-01 -3.33667E-01 -2.71255E-01 -2.09192E-01 -1.04344E-01  8.04224E-02  1.68793E-01
   2.59667E-01  3.60464E-01  3.24717E-01  2.76008E-01  2.16559E-01  1.11115E-01  1.83398E-02 -5.39638E-02 -1.63269E-01 -2.86667E-01
  -3.68913E-01 -3.92754E-01 -3.15307E-01 -1.56016E-01 -7.86549E-03  1.77291E-01  3.49894E-01  4.02683E-01  4.20767E-01  4.10133E-01
   3.59460E-01  3.10621E-01  2.66968E-01  2.23406E-01  1.74456E-01  1.23108E-01  5.74468E-02 -2.00022E-02 -1.01299E-01 -1.60194E-01
  -1.73574E-01 -1.20242E-01 -2.04378E-02  9.30213E-02  1.93038E-01  2.53580E-01  2.84154E-01  2.92523E-01  2.89358E-01  2.85069E-01
   2.82337E-01  2.79613E-01  2.76858E-01  2.74383E-01  2.71682E-01  2.69567E-01  2.67969E-01  2.66116E-01  2.56079E-01  2.52236E-01
   2.44576E-01  2.05196E-01  1.68086E-01  1.03719E-01  2.37699E-02 -6.55633E-02 -1.50147E-01 -2.69091E-01 -3.32017E-01 -4.27044E-01
  -4.86138E-01 -5.20129E-01 -4.52805E-01 -3.63692E-01 -3.14934E-01 -3.35741E-01 -4.45156E-01 -5.48799E-01 -4.90467E-01 -3.84765E-01
  -2.83645E-01 -1.33126E-01 -4.84616E-02 -1.70502E-03  3.02319E-02  5.50881E-02  7.59522E-02  9.40031E-02  1.10064E-01  1.24823E-01
   1.38642E-01  1.51909E-01  1.65382E-01  1.79126E-01  1.93795E-01  2.09948E-01  2.28420E-01  2.49705E-01  2.74956E-01  3.05905E-01
   3.46422E-01  4.05488E-01  4.73602E-01  4.70290E-01  5.40815E-01  6.29070E-01  6.24727E-01  4.36669E-01  7.56730E-02 -3.80829E-01
  -5.59184E-01 -6.20619E-01 -6.28022E-01 -4.83990E-01 -3.93466E-01 -3.42098E-01 -3.02752E-01 -2.66881E-01 -2.43471E-01 -2.25586E-01
  -2.12202E-01 -1.99467E-01 -1.86786E-01 -1.74082E-01 -1.69241E-01 -1.63257E-01 -1.61834E-01 -1.59664E-01 -1.54445E-01 -1.50042E-01
  -1.44299E-01 -1.38259E-01 -1.30843E-01 -1.23864E-01 -1.16257E-01 -1.08896E-01 -1.02092E-01 -9.55467E-02 -8.94425E-02 -8.39417E-02
  -7.83710E-02 -7.23848E-02 -6.64071E-02 -6.21747E-02 -6.12535E-02 -6.10404E-02 -5.93040E-02 -5.71256E-02 -5.55522E-02 -5.70843E-02
  -6.06007E-02 -6.35008E-02 -6.56806E-02 -6.62831E-02 -6.52573E-02 -6.39851E-02 -6.29362E-02 -6.24316E-02 -6.19842E-02 -5.96727E-02
  -4.78504E-02 -3.65540E-02 -2.73747E-02 -1.28436E-03  5.20551E-02  1.21462E-01  1.80309E-01  1.89542E-01  1.82133E-01  1.97653E-01
   2.16655E-01  2.21499E-01  1.95342E-01  1.35557E-01  7.45086E-02  1.49938E-02 -3.06110E-02 -5.16923E-02 -6.52158E-02 -7.53378E-02
  -8.38774E-02 -9.19046E-02 -9.88872E-02 -1.03926E-01 -1.08918E-01 -1.12020E-01 -1.16235E-01 -1.19871E-01 -1.22779E-01 -1.25395E-01
  -1.30362E-01 -1.36107E-01 -1.37880E-01 -1.52977E-01 -1.67022E-01 -1.63715E-01 -1.37582E-01 -1.02281E-01 -5.59921E-02 -2.15682E-02
   1.90081E-02  6.43840E-02  7.36276E-02  7.78504E-02  8.66838E-02  9.24614E-02  8.55467E-02  7.73124E-02  8.94308E-02  8.22025E-02
   8.30565E-02  7.14775E-02  4.58677E-02  1.49238E-02 -3.05307E-02 -7.44148E-02 -1.28996E-01 -1.77856E-01 -2.34070E-01 -2.95601E-01
  -3.51169E-01 -4.04855E-01 -4.20902E-01 -3.65033E-01 -2.54503E-01 -8.30520E-02  1.19258E-01  2.70711E-01  3.89877E-01  4.32800E-01
   4.11025E-01  3.79506E-01  3.29221E-01  2.87118E-01  2.62581E-01  2.44722E-01  2.41815E-01  2.39519E-01  2.37011E-01  2.35367E-01
   2.27124E-01  2.18764E-01  2.09635E-01  2.00405E-01  1.92214E-01  1.84718E-01  1.77179E-01  1.69382E-01  1.61088E-01  1.51050E-01
   1.38523E-01  1.23591E-01  1.01673E-01  7.70940E-02  4.23678E-02  1.15746E-03 -5.52615E-02 -1.14393E-01 -1.83883E-01 -2.41000E-01
  -2.95092E-01 -3.27603E-01 -3.45866E-01 -3.38202E-01 -3.12332E-01 -2.62843E-01 -1.88575E-01 -1.12159E-01 -4.00484E-02  7.65978E-03
   2.11773E-02  6.37829E-03 -2.96148E-02 -7.23165E-02 -1.10616E-01 -1.25810E-01 -1.42699E-01 -2.11315E-01 -2.36994E-01 -2.46751E-01
  -3.75343E-01 -6.64631E-01 -1.01707E+00 -1.32266E+00 -1.23976E+00 -9.80923E-01 -7.32131E-01 -4.13187E-01 -2.15330E-01 -1.31372E-01
  -8.61030E-02 -5.67128E-02 -3.54575E-02 -1.98991E-02 -7.63670E-03  1.27468E-03  8.53932E-03  1.34550E-02  1.51394E-02  1.46970E-02
   1.12616E-02  5.31506E-03 -1.30839E-03 -7.48861E-03 -1.32743E-02 -1.35955E-02 -1.27083E-02 -7.50879E-03 -4.93391E-04  5.93625E-03
   1.30951E-02  1.86348E-02  2.36604E-02  2.79463E-02  3.16370E-02  3.45016E-02  3.70295E-02  3.95857E-02  4.17931E-02  4.41234E-02
   4.61946E-02  4.79852E-02  4.97171E-02  5.14878E-02  5.32695E-02  5.48819E-02  5.63402E-02  5.73836E-02  5.85947E-02  5.98524E-02
   6.15236E-02  6.31441E-02  6.47775E-02  6.57837E-02  6.59351E-02  6.55109E-02  6.45019E-02  6.33927E-02  6.20822E-02  6.02895E-02
   5.81700E-02  5.56024E-02  5.26308E-02  4.92670E-02  4.56769E-02  4.20350E-02  3.86749E-02  3.54616E-02  3.22539E-02  2.91031E-02
   2.61382E-02  2.34461E-02  2.07807E-02  1.86247E-02  1.65929E-02  1.46089E-02  1.28256E-02  1.09652E-02  9.25003E-03  7.82791E-03
   6.45993E-03  5.34016E-03  4.48819E-03  3.94905E-03  4.00843E-03  4.54506E-03  5.34496E-03  6.68533E-03  8.38125E-03  1.03718E-02
   1.25141E-02  1.44262E-02  1.57987E-02  1.70777E-02  1.89994E-02  2.14836E-02  2.47057E-02  2.82262E-02  3.18905E-02  3.57307E-02
   3.99152E-02  4.47018E-02  5.00095E-02  5.55771E-02  6.14154E-02  6.72990E-02  7.30282E-02  7.87610E-02  8.38833E-02  8.80672E-02
   9.13892E-02  9.35216E-02  9.47131E-02  9.51249E-02  9.49151E-02  9.39441E-02  9.22473E-02  8.93555E-02  8.53814E-02  8.07021E-02
   7.56170E-02  7.06563E-02  6.55733E-02  6.05055E-02  5.54553E-02  5.06104E-02  4.60136E-02  4.19673E-02  3.79528E-02  3.42869E-02
   3.11641E-02  2.82641E-02  2.56660E-02  2.34855E-02  2.18657E-02  2.09218E-02  2.07719E-02  2.12530E-02  2.21868E-02  2.36175E-02
   2.53487E-02  2.73385E-02  2.97427E-02  3.22551E-02  3.46984E-02  3.68307E-02  3.85642E-02  3.98696E-02  4.09903E-02  4.21491E-02
   4.35025E-02  4.45327E-02  4.49011E-02  4.49321E-02  4.45054E-02  4.35108E-02  4.23358E-02  4.07291E-02  3.90579E-02  3.75961E-02
   3.59005E-02  3.42126E-02  3.24351E-02  3.06594E-02  2.88476E-02  2.68670E-02  2.48040E-02  2.27681E-02  2.09738E-02  1.93835E-02
   1.78384E-02  1.61119E-02  1.42377E-02  1.20886E-02  9.39007E-03  6.09923E-03  2.42841E-03 -1.65747E-03 -6.09523E-03 -1.12153E-02
  -1.73435E-02 -2.46192E-02 -3.27332E-02 -4.15146E-02 -5.03144E-02 -5.92231E-02 -6.78304E-02 -7.56911E-02 -8.31208E-02 -9.00313E-02
  -9.59461E-02 -1.00513E-01 -1.03593E-01 -1.05347E-01 -1.06183E-01 -1.05847E-01 -1.04362E-01 -1.02158E-01 -9.94965E-02 -9.67114E-02
  -9.38855E-02 -9.09908E-02 -8.78301E-02 -8.41598E-02 -8.00518E-02 -7.56302E-02 -7.07671E-02 -6.57040E-02 -6.06737E-02 -5.56453E-02
  -5.08897E-02 -4.61227E-02 -4.15609E-02 -3.69300E-02 -3.28241E-02 -2.92093E-02 -2.54860E-02 -2.20042E-02 -1.87899E-02 -1.59397E-02
  -1.36641E-02 -1.14284E-02 -9.27345E-03 -7.69452E-03 -6.18086E-03 -4.93949E-03 -3.98000E-03 -3.08027E-03 -2.42936E-03 -1.88320E-03
  -1.39639E-03 -7.78485E-04  6.31413E-05  9.22658E-04  1.87306E-03  2.77170E-03  3.28429E-03  3.47492E-03  3.54980E-03  3.56905E-03
   3.31097E-03  3.13521E-03  3.02082E-03  2.67334E-03  2.54855E-03  2.41650E-03  2.01044E-03  2.03312E-03  2.29251E-03  2.14384E-03
   1.60486E-03  5.60533E-04 -4.30984E-04 -9.38561E-04 -1.34979E-03 -1.70361E-03 -1.81488E-03 -2.05185E-03 -2.64317E-03 -3.50803E-03
  -4.20542E-03 -4.42008E-03 -4.51429E-03 -4.41659E-03 -4.35759E-03 -4.20625E-03 -4.05690E-03 -3.94909E-03 -3.93861E-03 -3.90445E-03
  -3.88205E-03 -3.94802E-03 -4.41074E-03 -5.05151E-03 -5.80493E-03 -6.23048E-03 -6.54606E-03 -6.62879E-03 -6.33281E-03 -6.30894E-03
  -6.40870E-03 -6.56367E-03 -6.62156E-03 -6.15630E-03 -5.61877E-03 -5.57330E-03 -5.87928E-03 -6.81097E-03 -7.81206E-03 -8.34991E-03
  -8.84628E-03 -9.24522E-03 -9.95209E-03 -1.08690E-02 -1.15371E-02 -1.22133E-02 -1.29355E-02 -1.36738E-02 -1.44389E-02 -1.50512E-02
  -1.53245E-02 -1.58997E-02 -1.66438E-02 -1.71572E-02 -1.77671E-02 -1.85592E-02 -1.91034E-02 -1.94404E-02 -1.93739E-02 -1.90438E-02
  -1.87750E-02 -1.88609E-02 -1.91524E-02 -1.97390E-02
 NY background values follow
     4.661E-02    4.647E-02    4.633E-02    4.619E-02    4.606E-02    4.592E-02    4.578E-02    4.564E-02    4.551E-02    4.537E-02
     4.523E-02    4.510E-02    4.496E-02    4.482E-02    4.468E-02    4.455E-02    4.441E-02    4.427E-02    4.413E-02    4.400E-02
     4.386E-02    4.372E-02    4.358E-02    4.344E-02    4.331E-02    4.317E-02    4.303E-02    4.289E-02    4.276E-02    4.262E-02
     4.248E-02    4.234E-02    4.220E-02    4.207E-02    4.193E-02    4.179E-02    4.165E-02    4.151E-02    4.138E-02    4.124E-02
     4.110E-02    4.096E-02    4.082E-02    4.069E-02    4.055E-02    4.041E-02    4.027E-02    4.013E-02    3.999E-02    3.986E-02
     3.972E-02    3.958E-02    3.944E-02    3.930E-02    3.917E-02    3.903E-02    3.889E-02    3.875E-02    3.861E-02    3.847E-02
     3.833E-02    3.820E-02    3.806E-02    3.792E-02    3.778E-02    3.764E-02    3.750E-02    3.736E-02    3.723E-02    3.709E-02
