 
 $NMID
 ID=''
 FMTDAT='(2E13.5)'
 TRAMP=   1.00000E+0
 VOLUME=   1.00000E+0
 $END
  -1.18536E+4   1.71965E+4
  -4.18257E+4   3.38369E+4
  -3.51840E+4   4.06465E+4
  -3.24495E+4   3.76757E+4
  -3.49186E+4   3.84687E+4
  -3.31724E+4   4.02228E+4
  -3.20125E+4   3.86365E+4
  -3.28934E+4   3.87624E+4
  -3.17232E+4   3.97782E+4
  -3.08146E+4   3.86536E+4
  -3.12838E+4   3.83458E+4
  -3.00837E+4   3.89118E+4
  -2.93875E+4   3.82461E+4
  -3.00659E+4   3.80438E+4
  -2.93724E+4   3.82527E+4
  -2.87319E+4   3.76366E+4
  -2.90384E+4   3.75764E+4
  -2.84457E+4   3.78172E+4
  -2.78979E+4   3.74772E+4
  -2.81054E+4   3.73392E+4
  -2.75699E+4   3.74175E+4
  -2.68482E+4   3.72608E+4
  -2.69048E+4   3.72896E+4
  -2.65120E+4   3.74225E+4
  -2.59240E+4   3.70538E+4
  -2.57374E+4   3.71624E+4
  -2.53692E+4   3.72402E+4
  -2.48911E+4   3.69358E+4
  -2.47728E+4   3.67914E+4
  -2.42727E+4   3.67555E+4
  -2.36495E+4   3.67122E+4
  -2.33748E+4   3.67546E+4
  -2.31042E+4   3.68064E+4
  -2.25460E+4   3.64851E+4
  -2.22211E+4   3.65127E+4
  -2.18070E+4   3.65618E+4
  -2.13675E+4   3.63214E+4
  -2.10712E+4   3.61441E+4
  -2.06434E+4   3.61679E+4
  -2.02288E+4   3.61368E+4
  -1.99717E+4   3.60117E+4
  -1.97413E+4   3.59608E+4
  -1.94630E+4   3.56094E+4
  -1.90798E+4   3.55044E+4
  -1.87605E+4   3.54661E+4
  -1.84840E+4   3.53194E+4
  -1.82395E+4   3.52002E+4
  -1.79881E+4   3.51154E+4
  -1.76595E+4   3.49247E+4
  -1.73840E+4   3.48545E+4
  -1.71318E+4   3.46974E+4
  -1.69274E+4   3.46172E+4
  -1.65469E+4   3.45058E+4
  -1.62379E+4   3.44569E+4
  -1.60180E+4   3.43840E+4
  -1.57975E+4   3.41263E+4
  -1.56082E+4   3.41770E+4
  -1.53729E+4   3.40254E+4
  -1.51262E+4   3.37759E+4
  -1.48495E+4   3.36131E+4
  -1.45252E+4   3.34539E+4
  -1.42701E+4   3.33761E+4
  -1.39616E+4   3.31762E+4
  -1.36842E+4   3.30505E+4
  -1.35691E+4   3.28368E+4
  -1.32441E+4   3.27122E+4
  -1.30134E+4   3.26352E+4
  -1.27399E+4   3.24460E+4
  -1.24897E+4   3.22754E+4
  -1.22108E+4   3.21221E+4
  -1.19894E+4   3.20176E+4
  -1.17696E+4   3.18777E+4
  -1.14936E+4   3.17021E+4
  -1.12423E+4   3.16048E+4
  -1.09076E+4   3.14131E+4
  -1.06435E+4   3.13452E+4
  -1.04826E+4   3.12146E+4
  -1.02391E+4   3.10221E+4
  -9.97717E+3   3.09250E+4
  -9.66483E+3   3.08034E+4
  -9.41504E+3   3.07254E+4
  -9.24181E+3   3.05879E+4
  -9.02763E+3   3.04361E+4
  -8.87737E+3   3.03238E+4
  -8.69188E+3   3.02107E+4
  -8.55981E+3   3.01467E+4
  -8.35595E+3   2.99124E+4
  -8.12019E+3   2.97867E+4
  -7.86462E+3   2.97270E+4
  -7.72734E+3   2.96342E+4
  -7.45870E+3   2.95755E+4
  -7.29570E+3   2.94577E+4
  -7.01934E+3   2.93566E+4
  -6.87524E+3   2.92751E+4
  -6.77038E+3   2.91403E+4
  -6.57494E+3   2.90959E+4
  -6.37705E+3   2.89779E+4
  -6.19934E+3   2.89295E+4
  -6.09944E+3   2.87935E+4
  -5.94671E+3   2.87789E+4
  -5.81007E+3   2.86303E+4
  -5.60360E+3   2.85808E+4
  -5.43248E+3   2.85682E+4
  -5.19061E+3   2.84693E+4
  -5.15160E+3   2.83821E+4
  -4.97951E+3   2.82262E+4
  -4.81154E+3   2.81859E+4
  -4.74878E+3   2.81276E+4
  -4.58844E+3   2.80496E+4
  -4.45245E+3   2.78787E+4
  -4.24286E+3   2.78120E+4
  -4.05248E+3   2.77411E+4
  -3.92861E+3   2.77410E+4
  -3.76829E+3   2.76936E+4
  -3.67947E+3   2.75630E+4
  -3.64575E+3   2.75361E+4
  -3.48192E+3   2.73714E+4
  -3.28758E+3   2.71941E+4
  -3.19041E+3   2.71980E+4
  -2.99985E+3   2.71295E+4
  -2.83602E+3   2.70189E+4
  -2.72250E+3   2.69122E+4
  -2.65338E+3   2.68270E+4
  -2.52536E+3   2.66945E+4
  -2.29602E+3   2.66071E+4
  -2.13520E+3   2.66234E+4
  -2.13515E+3   2.64850E+4
  -1.94455E+3   2.63696E+4
  -1.81664E+3   2.63077E+4
  -1.70050E+3   2.61822E+4
  -1.59959E+3   2.61221E+4
  -1.44696E+3   2.59339E+4
  -1.22797E+3   2.59359E+4
  -1.14294E+3   2.58390E+4
  -1.03968E+3   2.57915E+4
  -8.75426E+2   2.56321E+4
  -7.15793E+2   2.55740E+4
  -6.53231E+2   2.54132E+4
  -5.06084E+2   2.53177E+4
  -3.49286E+2   2.52334E+4
  -1.65746E+2   2.51585E+4
  -6.51661E+1   2.50453E+4
   5.39011E+1   2.49995E+4
   1.86583E+2   2.48696E+4
   3.58328E+2   2.48046E+4
   4.43409E+2   2.46582E+4
   5.43551E+2   2.45729E+4
   6.82530E+2   2.45371E+4
   8.08403E+2   2.43492E+4
   9.78163E+2   2.43230E+4
   1.08733E+3   2.42446E+4
   1.13065E+3   2.41094E+4
   1.23130E+3   2.39921E+4
   1.42622E+3   2.38500E+4
   1.57047E+3   2.37489E+4
   1.69571E+3   2.37052E+4
   1.83671E+3   2.36165E+4
   1.89593E+3   2.34769E+4
   2.01005E+3   2.34327E+4
   2.13819E+3   2.32237E+4
   2.24170E+3   2.32069E+4
   2.42466E+3   2.30314E+4
   2.43598E+3   2.29787E+4
   2.61183E+3   2.27943E+4
   2.72646E+3   2.27224E+4
   2.90564E+3   2.26790E+4
   2.89600E+3   2.25205E+4
   3.08537E+3   2.24328E+4
   3.24755E+3   2.22555E+4
   3.39942E+3   2.22165E+4
   3.49976E+3   2.21149E+4
   3.57957E+3   2.19792E+4
   3.72998E+3   2.18280E+4
   3.79861E+3   2.17606E+4
   3.95038E+3   2.16415E+4
   4.06049E+3   2.15235E+4
   4.11051E+3   2.13512E+4
   4.33545E+3   2.12129E+4
   4.45100E+3   2.11370E+4
   4.47634E+3   2.10936E+4
   4.67622E+3   2.09448E+4
   4.82522E+3   2.08130E+4
   4.90673E+3   2.07057E+4
   5.00684E+3   2.05521E+4
   5.08862E+3   2.04187E+4
   5.26437E+3   2.02451E+4
   5.34647E+3   2.02254E+4
   5.43942E+3   2.00736E+4
   5.53174E+3   1.99797E+4
   5.61274E+3   1.98194E+4
   5.80126E+3   1.96371E+4
   5.90556E+3   1.95384E+4
   5.91527E+3   1.94572E+4
   6.02812E+3   1.93212E+4
   6.11463E+3   1.91906E+4
   6.29880E+3   1.90056E+4
   6.33309E+3   1.89766E+4
   6.37223E+3   1.87684E+4
   6.47134E+3   1.86414E+4
   6.61216E+3   1.85300E+4
   6.70587E+3   1.84288E+4
   6.72307E+3   1.83308E+4
   6.77305E+3   1.82400E+4
   6.92140E+3   1.80296E+4
   6.97106E+3   1.79479E+4
   6.98002E+3   1.77620E+4
   7.08646E+3   1.77149E+4
   7.17985E+3   1.75510E+4
   7.27929E+3   1.74685E+4
   7.27573E+3   1.72648E+4
   7.43682E+3   1.72235E+4
   7.44944E+3   1.70575E+4
   7.49253E+3   1.69150E+4
   7.52950E+3   1.67702E+4
   7.71470E+3   1.67006E+4
   7.67641E+3   1.65684E+4
   7.70752E+3   1.63291E+4
   7.74821E+3   1.62403E+4
   7.79921E+3   1.61623E+4
   7.85473E+3   1.60116E+4
   7.86714E+3   1.58949E+4
   7.90664E+3   1.57426E+4
   8.03044E+3   1.56032E+4
   7.98716E+3   1.54971E+4
   8.04149E+3   1.53430E+4
   8.11832E+3   1.52303E+4
   8.14768E+3   1.50362E+4
   8.20042E+3   1.49486E+4
   8.17171E+3   1.48674E+4
   8.24014E+3   1.47016E+4
   8.22313E+3   1.45987E+4
   8.28145E+3   1.44415E+4
   8.29364E+3   1.43499E+4
   8.29589E+3   1.42078E+4
   8.32320E+3   1.40650E+4
   8.34957E+3   1.38953E+4
   8.49445E+3   1.38627E+4
   8.42876E+3   1.37161E+4
   8.37534E+3   1.36284E+4
   8.47102E+3   1.34174E+4
   8.54225E+3   1.33434E+4
   8.60180E+3   1.31927E+4
   8.51915E+3   1.30827E+4
   8.57655E+3   1.30338E+4
   8.63495E+3   1.27831E+4
   8.64942E+3   1.27223E+4
   8.60516E+3   1.25749E+4
   8.68219E+3   1.25219E+4
   8.64555E+3   1.23586E+4
   8.70559E+3   1.21424E+4
   8.72547E+3   1.21261E+4
   8.71904E+3   1.20193E+4
   8.65509E+3   1.19211E+4
   8.69328E+3   1.17711E+4
   8.69617E+3   1.16066E+4
   8.71466E+3   1.15501E+4
   8.73221E+3   1.14104E+4
   8.73538E+3   1.12462E+4
   8.76120E+3   1.11758E+4
   8.75587E+3   1.10755E+4
   8.76311E+3   1.09767E+4
   8.73983E+3   1.08375E+4
   8.73288E+3   1.06748E+4
   8.80198E+3   1.05941E+4
   8.76257E+3   1.04449E+4
   8.74330E+3   1.04249E+4
   8.72435E+3   1.02471E+4
   8.74623E+3   1.01787E+4
   8.69765E+3   1.01059E+4
   8.68552E+3   9.97268E+3
   8.74662E+3   9.82435E+3
   8.73144E+3   9.70132E+3
   8.75186E+3   9.55488E+3
   8.69827E+3   9.51134E+3
   8.72787E+3   9.37465E+3
   8.71981E+3   9.24434E+3
   8.66907E+3   9.10420E+3
   8.66006E+3   9.10423E+3
   8.64501E+3   8.92658E+3
   8.65483E+3   8.76683E+3
   8.63051E+3   8.72140E+3
   8.55858E+3   8.66537E+3
   8.57263E+3   8.57994E+3
   8.56591E+3   8.44924E+3
   8.48323E+3   8.31484E+3
   8.57014E+3   8.26746E+3
   8.52327E+3   8.11062E+3
   8.51694E+3   8.10289E+3
   8.47398E+3   7.97042E+3
   8.46250E+3   7.83520E+3
   8.40387E+3   7.74132E+3
   8.44801E+3   7.60033E+3
   8.42611E+3   7.57151E+3
   8.38895E+3   7.45529E+3
   8.39653E+3   7.40705E+3
   8.36945E+3   7.32782E+3
   8.33490E+3   7.20075E+3
   8.33925E+3   7.12352E+3
   8.26290E+3   7.02675E+3
   8.31688E+3   6.95521E+3
   8.15269E+3   6.87932E+3
   8.22843E+3   6.81826E+3
   8.19343E+3   6.64308E+3
   8.24482E+3   6.61207E+3
   8.06446E+3   6.53533E+3
   8.07733E+3   6.44902E+3
   8.19358E+3   6.29854E+3
   8.12708E+3   6.21616E+3
   8.08012E+3   6.20428E+3
   8.05717E+3   6.16480E+3
   8.03182E+3   6.05162E+3
   8.02716E+3   5.97202E+3
   7.98417E+3   5.89890E+3
   7.92075E+3   5.80473E+3
   7.82253E+3   5.73398E+3
   7.87665E+3   5.50271E+3
   7.89769E+3   5.54309E+3
   7.85220E+3   5.48271E+3
   7.79700E+3   5.43515E+3
   7.79620E+3   5.28602E+3
   7.75428E+3   5.26525E+3
   7.72921E+3   5.13668E+3
   7.68467E+3   5.13002E+3
   7.74209E+3   5.04683E+3
   7.63689E+3   4.95508E+3
   7.58569E+3   4.92850E+3
   7.58405E+3   4.83879E+3
   7.56631E+3   4.77300E+3
   7.56320E+3   4.70217E+3
   7.46621E+3   4.60652E+3
   7.50338E+3   4.59481E+3
   7.39697E+3   4.45309E+3
   7.45332E+3   4.45768E+3
   7.38955E+3   4.32368E+3
   7.40633E+3   4.25784E+3
   7.34720E+3   4.18318E+3
   7.25670E+3   4.17606E+3
   7.26785E+3   4.06221E+3
   7.28598E+3   4.01539E+3
   7.26845E+3   3.91855E+3
   7.22052E+3   3.83715E+3
   7.16811E+3   3.82588E+3
   7.15444E+3   3.78689E+3
   7.11948E+3   3.69780E+3
   7.11902E+3   3.64165E+3
   7.08876E+3   3.62097E+3
   6.96844E+3   3.57679E+3
   6.99380E+3   3.51682E+3
   6.90637E+3   3.42168E+3
   6.95700E+3   3.43305E+3
   6.85017E+3   3.29770E+3
   6.80998E+3   3.25334E+3
   6.87034E+3   3.21849E+3
   6.78478E+3   3.13519E+3
   6.77979E+3   3.08420E+3
   6.67983E+3   3.00313E+3
   6.69021E+3   2.90535E+3
   6.70549E+3   2.88984E+3
   6.57657E+3   2.81143E+3
   6.54589E+3   2.83017E+3
   6.56962E+3   2.71914E+3
   6.54003E+3   2.71088E+3
   6.54370E+3   2.70107E+3
   6.46340E+3   2.59811E+3
   6.45489E+3   2.57552E+3
   6.38907E+3   2.48440E+3
   6.36895E+3   2.44766E+3
