 LCModel (Version 6.3-1N) Copyright: S.W. Provencher.          Ref.: Magn. Reson. Med. 30:672-679 (1993).                
 Slice_N1@13_15  02-Jun-2023 14:36:31
 27 lines in following concentration table = NCONC+1
    Conc.  %SD /Cr+PCr  Metabolite                                         
 2.29E-06  15% 3.8E-04 Mac                                                 
    0.000 999%   0.000 Cr                                                  
 4.79E-02  12%   8.000 PCr                                                 
 6.33E-02  13%  10.588 Ins                                                 
 8.38E-02   8%  14.000 NAA                                                 
 3.59E-02  20%   6.006 Tau                                                 
 8.71E-03  40%   1.456 PCho                                                
 4.42E-03  82%   0.739 GPC                                                 
 5.98E-02  15%   9.994 Glu                                                 
 2.12E-02  31%   3.543 Gln                                                 
    0.000 999%   0.000 Ala                                                 
 3.48E-02  35%   5.820 Asc                                                 
 5.56E-03 120%   0.929 Asp                                                 
 8.36E-03  44%   1.398 GABA                                                
 6.24E-03  69%   1.043 Glc                                                 
 7.77E-03  48%   1.300 GSH                                                 
    0.000 999%   0.000 Lac                                                 
 4.43E-03 105%   0.740 NAAG                                                
 1.08E-02  99%   1.809 PE                                                  
 1.31E-02  20%   2.195 GPC+PCho                                            
 8.82E-02   9%  14.741 NAA+NAAG                                            
 8.10E-02  13%  13.537 Glu+Gln                                             
 4.79E-02  12%   8.000 Cr+PCr                                              
 8.82E-02   9%  14.741 NAA+NAAG                                            
 4.79E-02  12%   8.000 Cr+PCr                                              
 8.10E-02  13%  13.537 Glu+Gln                                             
   6 lines in following misc. output table
  FWHM = 0.023 ppm    S/N =   4                                            
  Data shift = 0.012 ppm                                                   
  Ph: -75 deg     -12.1 deg/ppm                                            
  alphaB,S = 4.3E-01,   1.3E+01                                            
   18 spline knots.   Ns = 5(1)                                            
  ( 5) 4 infls.   ( 4) 2 extrs.                                            
  654 points on ppm-axis = NY
      4.000000     3.994181     3.988363     3.982544     3.976726     3.970907     3.965088     3.959270     3.953451     3.947633
      3.941814     3.935995     3.930177     3.924358     3.918540     3.912721     3.906902     3.901084     3.895265     3.889446
      3.883628     3.877809     3.871991     3.866172     3.860353     3.854535     3.848716     3.842898     3.837079     3.831260
      3.825442     3.819623     3.813805     3.807986     3.802167     3.796349     3.790530     3.784712     3.778893     3.773074
      3.767256     3.761437     3.755619     3.749800     3.743981     3.738163     3.732344     3.726526     3.720707     3.714888
      3.709070     3.703251     3.697433     3.691614     3.685795     3.679977     3.674158     3.668339     3.662521     3.656702
      3.650884     3.645065     3.639246     3.633428     3.627609     3.621791     3.615972     3.610153     3.604335     3.598516
      3.592698     3.586879     3.581060     3.575242     3.569423     3.563605     3.557786     3.551967     3.546149     3.540330
      3.534512     3.528693     3.522874     3.517056     3.511237     3.505419     3.499600     3.493781     3.487963     3.482144
      3.476326     3.470507     3.464688     3.458870     3.453051     3.447232     3.441414     3.435595     3.429777     3.423958
      3.418139     3.412321     3.406502     3.400684     3.394865     3.389046     3.383228     3.377409     3.371591     3.365772
      3.359953     3.354135     3.348316     3.342498     3.336679     3.330860     3.325042     3.319223     3.313405     3.307586
      3.301767     3.295949     3.290130     3.284312     3.278493     3.272674     3.266856     3.261037     3.255219     3.249400
      3.243581     3.237763     3.231944     3.226125     3.220307     3.214488     3.208670     3.202851     3.197032     3.191214
      3.185395     3.179577     3.173758     3.167939     3.162121     3.156302     3.150484     3.144665     3.138846     3.133028
      3.127209     3.121391     3.115572     3.109753     3.103935     3.098116     3.092298     3.086479     3.080660     3.074842
      3.069023     3.063205     3.057386     3.051567     3.045749     3.039930     3.034111     3.028293     3.022474     3.016656
      3.010837     3.005018     2.999200     2.993381     2.987563     2.981744     2.975925     2.970107     2.964288     2.958470
      2.952651     2.946832     2.941014     2.935195     2.929377     2.923558     2.917739     2.911921     2.906102     2.900284
      2.894465     2.888646     2.882828     2.877009     2.871191     2.865372     2.859553     2.853735     2.847916     2.842098
      2.836279     2.830460     2.824642     2.818823     2.813004     2.807186     2.801367     2.795549     2.789730     2.783911
      2.778093     2.772274     2.766456     2.760637     2.754818     2.749000     2.743181     2.737363     2.731544     2.725725
      2.719907     2.714088     2.708270     2.702451     2.696632     2.690814     2.684995     2.679177     2.673358     2.667539
      2.661721     2.655902     2.650084     2.644265     2.638446     2.632628     2.626809     2.620991     2.615172     2.609353
      2.603535     2.597716     2.591897     2.586079     2.580260     2.574442     2.568623     2.562804     2.556986     2.551167
      2.545349     2.539530     2.533711     2.527893     2.522074     2.516256     2.510437     2.504618     2.498800     2.492981
      2.487163     2.481344     2.475525     2.469707     2.463888     2.458070     2.452251     2.446432     2.440614     2.434795
      2.428977     2.423158     2.417339     2.411521     2.405702     2.399884     2.394065     2.388246     2.382428     2.376609
      2.370790     2.364972     2.359153     2.353335     2.347516     2.341697     2.335879     2.330060     2.324242     2.318423
      2.312604     2.306786     2.300967     2.295149     2.289330     2.283511     2.277693     2.271874     2.266056     2.260237
      2.254418     2.248600     2.242781     2.236963     2.231144     2.225325     2.219507     2.213688     2.207870     2.202051
      2.196232     2.190414     2.184595     2.178777     2.172958     2.167139     2.161321     2.155502     2.149683     2.143865
      2.138046     2.132228     2.126409     2.120590     2.114772     2.108953     2.103135     2.097316     2.091497     2.085679
      2.079860     2.074042     2.068223     2.062404     2.056586     2.050767     2.044949     2.039130     2.033311     2.027493
      2.021674     2.015856     2.010037     2.004218     1.998400     1.992581     1.986763     1.980944     1.975126     1.969307
      1.963489     1.957670     1.951852     1.946033     1.940215     1.934397     1.928578     1.922760     1.916941     1.911123
      1.905304     1.899486     1.893667     1.887849     1.882030     1.876212     1.870393     1.864575     1.858756     1.852938
      1.847119     1.841301     1.835482     1.829664     1.823845     1.818027     1.812208     1.806390     1.800571     1.794753
      1.788934     1.783116     1.777297     1.771479     1.765660     1.759842     1.754023     1.748205     1.742386     1.736568
      1.730749     1.724931     1.719113     1.713294     1.707476     1.701657     1.695839     1.690020     1.684202     1.678383
      1.672565     1.666746     1.660928     1.655109     1.649291     1.643472     1.637654     1.631835     1.626017     1.620198
      1.614380     1.608561     1.602743     1.596924     1.591106     1.585287     1.579469     1.573650     1.567832     1.562013
      1.556195     1.550376     1.544558     1.538739     1.532921     1.527102     1.521284     1.515465     1.509647     1.503829
      1.498010     1.492192     1.486373     1.480555     1.474736     1.468918     1.463099     1.457281     1.451462     1.445644
      1.439825     1.434007     1.428188     1.422370     1.416551     1.410733     1.404914     1.399096     1.393277     1.387459
      1.381640     1.375822     1.370003     1.364185     1.358366     1.352548     1.346729     1.340911     1.335092     1.329274
      1.323455     1.317637     1.311818     1.306000     1.300182     1.294363     1.288545     1.282726     1.276908     1.271089
      1.265271     1.259452     1.253634     1.247815     1.241997     1.236178     1.230360     1.224541     1.218723     1.212904
      1.207086     1.201267     1.195449     1.189630     1.183812     1.177993     1.172175     1.166356     1.160538     1.154719
      1.148901     1.143082     1.137264     1.131445     1.125627     1.119808     1.113990     1.108171     1.102353     1.096534
      1.090716     1.084898     1.079079     1.073261     1.067442     1.061624     1.055805     1.049987     1.044168     1.038350
      1.032531     1.026713     1.020894     1.015076     1.009257     1.003439     0.997620     0.991802     0.985983     0.980165
      0.974346     0.968528     0.962709     0.956891     0.951072     0.945254     0.939435     0.933617     0.927798     0.921980
      0.916161     0.910343     0.904524     0.898706     0.892887     0.887069     0.881251     0.875432     0.869614     0.863795
      0.857977     0.852158     0.846340     0.840521     0.834703     0.828884     0.823066     0.817247     0.811429     0.805610
      0.799792     0.793973     0.788155     0.782336     0.776518     0.770699     0.764881     0.759062     0.753244     0.747425
      0.741607     0.735788     0.729970     0.724151     0.718333     0.712514     0.706696     0.700877     0.695059     0.689240
      0.683422     0.677603     0.671785     0.665967     0.660148     0.654330     0.648511     0.642693     0.636874     0.631056
      0.625237     0.619419     0.613600     0.607782     0.601963     0.596145     0.590326     0.584508     0.578689     0.572871
      0.567052     0.561234     0.555415     0.549597     0.543778     0.537960     0.532141     0.526323     0.520504     0.514686
      0.508867     0.503049     0.497230     0.491412     0.485593     0.479775     0.473956     0.468138     0.462319     0.456501
      0.450682     0.444864     0.439045     0.433227     0.427408     0.421590     0.415771     0.409953     0.404134     0.398316
      0.392497     0.386679     0.380860     0.375042     0.369223     0.363405     0.357586     0.351767     0.345949     0.340130
      0.334312     0.328493     0.322675     0.316856     0.311038     0.305219     0.299401     0.293582     0.287764     0.281945
      0.276127     0.270308     0.264490     0.258671     0.252853     0.247034     0.241216     0.235397     0.229579     0.223760
      0.217942     0.212123     0.206305     0.200486
 NY phased data points follow
   1.47699E-01  2.22723E-01  2.21534E-01 -6.96973E-02 -3.64655E-02 -3.15960E-01 -1.81827E-01  4.98100E-02 -2.42346E-02 -1.39049E-01
   8.09217E-02  1.00483E-01  4.92808E-01  3.54580E-01  4.45518E-01  3.19075E-01 -3.61596E-01  7.72083E-02  7.54683E-02 -2.29292E-02
  -2.97496E-01 -1.13857E-01  1.73990E-01 -1.15992E-02 -6.19104E-02 -1.07010E-01 -8.29164E-02  5.24328E-02 -1.06699E-02 -1.02449E-01
   1.05960E-01 -2.65645E-01 -7.96439E-02 -5.75422E-02 -3.51558E-01 -3.40898E-01 -9.65621E-02 -1.99490E-01 -5.16801E-01 -1.36637E-01
  -4.97662E-02  1.18572E-01  7.16755E-02  3.30685E-01  3.63661E-01  2.47813E-01  3.28515E-01  2.26850E-01  2.82608E-01  3.07656E-01
   3.78365E-02 -1.89636E-01  3.23916E-01  4.17735E-02  8.45169E-02  1.83317E-02 -2.44717E-01 -2.02056E-01 -2.71739E-01 -2.56501E-01
  -4.00602E-01 -1.85255E-02 -3.83287E-01 -7.26875E-02  1.58950E-02  6.54535E-02  4.47441E-01 -4.93618E-02  1.97370E-01  3.00832E-01
   3.49455E-01 -1.57077E-01 -1.69254E-01 -3.22134E-02 -3.15386E-01  5.16979E-03 -2.98033E-01 -3.08710E-01 -1.97653E-01 -2.39872E-01
  -3.05718E-01 -1.68345E-01  3.75424E-01  5.38720E-01  4.50274E-01  4.29785E-01  3.74547E-01  3.89087E-01  3.90649E-01  1.13101E-01
   1.55390E-01  1.18009E-01  2.39684E-01  2.50992E-01  8.97807E-02  1.23650E-01 -5.08950E-02  4.73618E-03 -7.75692E-02  4.52486E-02
  -2.97300E-02 -1.86034E-01  1.08279E-01 -7.18750E-02 -2.23170E-01  2.57902E-01  2.25804E-01  5.00850E-01  6.59091E-01 -4.22406E-02
   1.59102E-01  1.95259E-01  2.62215E-01  7.77022E-02  2.20496E-02  2.40759E-01 -7.43835E-02  5.67695E-02  1.59266E-01  1.67053E-01
   3.87669E-04 -1.03112E-01 -1.29689E-01 -2.32413E-02 -4.89450E-01 -4.66594E-01 -2.42221E-02 -3.67283E-01 -2.46311E-01 -4.72838E-01
  -5.34284E-01 -2.97730E-01 -6.53703E-01 -6.03424E-01 -5.71148E-01 -8.50363E-01 -8.10318E-01 -8.52119E-01 -3.79166E-01 -1.61870E-01
  -5.03432E-01 -5.38331E-01 -1.32981E-01 -3.72116E-02 -1.54052E-01  3.15938E-01 -5.82148E-03 -1.13815E-01  3.28400E-02  4.62487E-03
   6.20686E-02  5.37044E-02 -1.66349E-01 -2.06374E-01 -3.87808E-02 -7.10476E-02  1.17257E-01  3.76130E-03  4.33350E-02  2.51561E-01
   6.24575E-01  3.96333E-01  5.85851E-01  6.16175E-01  3.18757E-01  4.82863E-01  4.14923E-01  3.22836E-01 -3.44378E-01 -3.55841E-01
  -1.00509E+00 -1.15868E+00 -6.77208E-01 -4.58747E-01 -1.15849E-01 -4.56778E-01 -3.74234E-01  4.41859E-02 -1.87211E-01 -5.10470E-01
  -2.85083E-02 -3.43101E-01 -3.06565E-01 -3.25282E-01 -2.25029E-01 -9.29080E-02 -5.48724E-01 -1.98488E-01 -2.73631E-01 -6.99775E-02
  -3.28783E-01 -3.09564E-01 -3.28551E-02 -2.35268E-01  1.10239E-01 -2.56424E-01 -4.80362E-01 -9.23366E-02 -8.82629E-02 -2.36985E-01
  -2.04697E-01 -9.68610E-03 -3.30290E-01 -2.61716E-01  2.19055E-01  1.65212E-02 -1.83108E-02 -4.13246E-02  2.16859E-01  1.83402E-01
   1.39634E-01  1.86482E-01  4.51098E-02  7.75822E-02 -6.11888E-02  1.59818E-01 -1.89078E-01  1.89630E-02  1.44001E-01 -1.04595E-01
   2.05799E-01 -5.88017E-02 -1.38936E-01 -2.21961E-01  8.57211E-02  3.26378E-01  3.47831E-02  1.48567E-01  3.67032E-01  5.82569E-01
   3.21152E-01  3.38386E-01  5.44956E-01  2.01156E-01  2.63656E-01  1.32236E-01 -1.20414E-01 -1.20130E-01 -6.12333E-02  3.53397E-01
   1.52263E-01 -4.52889E-01 -4.15010E-02 -5.77818E-02 -2.04104E-01  2.63622E-01 -9.70629E-02 -9.47504E-02 -2.53595E-01 -1.04621E-01
   4.02685E-01  1.83010E-01  2.06196E-01  7.68194E-02 -1.80900E-01 -2.03582E-01  2.62420E-01  6.09788E-02 -6.97592E-02  1.91922E-01
   7.92753E-02  2.80741E-01 -2.33420E-02  1.95991E-01  4.22074E-01 -7.52844E-02  3.38255E-01  2.87110E-01  1.74940E-02  2.72518E-01
   2.61577E-01  3.44022E-01  3.07337E-02  1.73760E-01  1.84239E-01  3.31984E-02  2.54654E-01 -2.10727E-02  3.98889E-02 -9.38656E-02
  -1.83257E-01 -1.52947E-01 -3.23287E-01 -2.27897E-01 -6.29620E-02  2.26026E-01  5.54343E-01  6.93116E-01  5.11835E-01  2.60633E-01
   5.23248E-01  5.49869E-01  5.89653E-02  2.21867E-01  3.25455E-01  2.94423E-01  2.70862E-01  2.71323E-01  5.32451E-01  5.41300E-01
   4.89495E-01  3.74359E-01  1.94919E-01  6.24251E-02  3.66812E-01  4.35950E-01  1.89397E-01  2.91068E-01  2.17658E-01  3.65293E-01
   3.61048E-01  8.25377E-03  3.18465E-01  2.83418E-01 -4.59844E-02  2.08777E-01  1.41743E-01 -3.66397E-01 -3.91437E-01  1.54942E-02
  -2.46972E-01 -2.18285E-01 -7.47249E-02 -1.79869E-01  2.16858E-01 -1.12361E-01 -2.70184E-01  1.98031E-01  2.21275E-01  1.62962E-01
   2.37332E-01  1.99618E-01  1.02364E-01 -5.36449E-02 -3.82943E-01 -3.72419E-01  6.70110E-02 -1.68443E-01 -6.18037E-01 -2.80805E-01
  -3.17464E-01 -8.32154E-01 -1.68104E+00 -1.77862E+00 -9.97319E-01 -7.36743E-01 -1.12044E-01  9.06518E-02  1.06038E-01  1.75369E-01
   6.45711E-02  2.71669E-01  1.60485E-02  3.46754E-02 -1.05398E-02  1.34581E-01  3.72904E-01  7.96478E-02 -1.79073E-01 -1.83646E-01
  -1.56076E-01 -2.89753E-01  1.39335E-01 -3.06194E-01 -2.33084E-01  1.71603E-01 -1.84048E-01  5.33115E-02 -1.23072E-01  8.54349E-02
  -4.57921E-02  9.10524E-02  1.33577E-01 -3.00777E-02  4.56082E-01 -1.19476E-01 -6.57966E-02  3.73736E-01 -7.70367E-02 -1.87626E-01
   3.99704E-01  3.85335E-02 -1.43565E-01  2.37339E-01  1.49196E-01  2.48759E-01  2.60993E-02  6.25348E-02  4.63453E-02 -1.35646E-01
   1.57879E-01  2.09216E-01 -1.03974E-01  4.89313E-01  1.76498E-01 -2.24640E-01  2.90892E-01 -1.60922E-01 -3.64076E-02  3.00062E-01
   2.97883E-01 -2.03249E-01 -1.55870E-01  7.36362E-02  1.22585E-01 -2.63176E-01 -4.99086E-01  1.87706E-01 -1.83928E-01 -1.05837E-01
  -1.78818E-01 -1.72998E-01 -1.29412E-01 -1.29061E-01 -6.32331E-02 -2.90516E-01 -1.70646E-01 -1.87301E-01 -9.75601E-02 -3.24630E-01
  -1.18707E-01 -2.94818E-01 -8.54168E-03  3.43804E-02 -1.49952E-01  1.33420E-01 -2.30164E-01 -1.12013E-02  1.88747E-03  1.70411E-01
   8.41466E-02 -1.46359E-01 -6.07990E-02 -7.61861E-02  5.92989E-02  1.62888E-01  1.63841E-01  1.28923E-01 -2.77067E-02  1.56720E-01
  -1.88007E-02 -2.66251E-01  3.50411E-01  2.04726E-01  2.46828E-01  2.97473E-01  4.22584E-01  2.29412E-01  2.52772E-01  4.17660E-01
  -1.27337E-02  3.92123E-01  5.66556E-02  1.10316E-01  2.87922E-01  3.23063E-01  3.35460E-01 -2.95897E-02  6.07601E-02  2.03838E-01
   1.77716E-01  1.59546E-01  3.94992E-01  1.13496E-01 -1.53865E-01 -2.89463E-01 -7.56334E-02 -1.16164E-01 -1.62729E-01  2.28349E-01
   1.98284E-02 -1.28816E-01 -1.32203E-02 -1.18296E-01 -1.01048E-01  3.64976E-02 -2.79019E-01 -1.50900E-01  1.27730E-01  4.16400E-02
  -6.86743E-02  1.51374E-02 -1.37728E-01 -6.68785E-02  2.71373E-01  8.25119E-02  2.78193E-02 -1.18335E-01  1.42597E-01  2.73693E-01
   3.03990E-02  1.63582E-01 -8.89590E-02 -1.48799E-01  4.83909E-01  3.45228E-01  1.32111E-01  2.70453E-01  1.70819E-01  2.04787E-01
  -1.77420E-01 -2.76251E-01 -4.15684E-02  1.02322E-01  6.82588E-02  1.65576E-01  1.75350E-01 -7.75578E-02 -1.58083E-01 -1.13826E-01
  -4.08806E-02 -1.20554E-01  2.24217E-01 -5.11917E-02 -9.72760E-02  1.99809E-01 -3.01947E-01  1.67845E-02  1.90639E-01 -2.46205E-01
  -6.53629E-02 -1.13498E-02 -1.36549E-01 -8.20830E-02 -2.47595E-01 -6.05330E-01 -7.18039E-01 -2.95798E-01 -1.76554E-01 -2.28180E-01
  -2.45519E-01 -4.09986E-01 -2.63280E-01  1.96065E-02  2.67356E-01  1.41904E-01 -3.54879E-02 -4.16852E-02  7.68412E-02  7.76020E-02
  -1.70318E-01 -7.27218E-02  1.00103E-01  2.94455E-01  4.65018E-02 -2.52524E-01  1.52060E-01  2.02803E-01 -1.90001E-01  2.30416E-02
   3.60720E-01  5.00544E-02  3.24723E-01  3.16624E-01  5.06894E-01  6.34024E-01  1.44715E-01  5.65504E-01  4.73787E-02 -3.45118E-02
   2.96094E-01  3.24560E-01  2.14957E-01 -7.27094E-02  3.51627E-01  2.50473E-01 -7.73128E-02  5.90817E-02  3.58688E-01 -5.23520E-02
   8.90217E-02  1.74703E-01  9.00210E-02  6.84590E-02  5.06029E-02  4.64759E-01  4.49479E-02 -3.75276E-03  1.63202E-01  3.85340E-01
  -5.72680E-02 -3.11699E-02  3.77519E-01 -7.14455E-02 -9.02360E-02  1.02174E-01  2.98137E-01  2.85437E-02  3.10027E-01  4.54195E-02
  -3.27050E-01  4.08216E-01  2.65891E-01  1.76171E-01  2.73626E-01  1.74450E-02 -5.05957E-02 -1.30663E-01  4.42340E-01  3.89797E-01
  -8.72316E-02 -1.04940E-02  6.53989E-02  2.73439E-01 -4.08149E-02  1.34939E-01  1.74498E-01 -2.47561E-02  3.62526E-02  2.00034E-01
   1.42971E-01 -5.06541E-02  2.56632E-01 -8.85325E-02 -4.48765E-02  1.12218E-01  2.32588E-02  5.68716E-02 -4.66276E-02  2.88585E-01
   3.87745E-01 -2.00956E-01 -1.15115E-01  1.65203E-01  1.07791E-01  2.09244E-01  4.32949E-02  1.47622E-01  4.82473E-02  7.69915E-02
   7.61103E-02  2.07028E-01  1.78002E-01 -1.63130E-01  8.52123E-02  8.97157E-02  1.20531E-01  1.13343E-01  2.50060E-01  8.95682E-02
   2.31587E-01  7.17991E-01 -2.35165E-02 -3.43342E-01 -1.73549E-01 -1.04776E-02  2.62141E-01  7.17499E-02  2.36826E-01  5.53623E-02
   2.11129E-01  8.65542E-02 -1.55846E-01  4.91245E-01
 NY points of the fit to the data follow
   1.58143E-01  1.46520E-01  1.19711E-01  8.60949E-02  5.69373E-02  3.12599E-02  1.12436E-02 -1.44116E-03  4.88293E-02  1.03138E-01
   1.36853E-01  2.38817E-01  4.06338E-01  5.07066E-01  4.52792E-01  3.00581E-01  1.17608E-01 -1.60936E-02 -6.42010E-02 -5.65392E-02
  -4.83410E-02 -6.44846E-02 -8.61440E-02 -1.07119E-01 -1.26689E-01 -1.44049E-01 -1.57688E-01 -1.68065E-01 -1.77797E-01 -1.87782E-01
  -1.97596E-01 -2.10587E-01 -2.29097E-01 -2.53844E-01 -2.79103E-01 -2.98814E-01 -3.09437E-01 -3.01255E-01 -2.74712E-01 -2.01691E-01
  -9.27880E-02  1.20022E-02  1.14215E-01  1.80313E-01  2.33094E-01  2.67646E-01  2.85209E-01  2.65933E-01  2.26966E-01  1.75775E-01
   1.14273E-01  6.33290E-02  1.84929E-02 -2.12837E-02 -6.78901E-02 -1.16135E-01 -1.60766E-01 -2.03504E-01 -2.13204E-01 -2.54154E-01
  -2.99613E-01 -2.64005E-01 -2.32571E-01 -1.87211E-01 -9.23996E-02  4.36174E-02  1.45586E-01  2.38287E-01  3.08107E-01  3.07689E-01
   2.60308E-01  1.84486E-01  1.08318E-01  2.01400E-02 -8.00661E-02 -1.48831E-01 -1.95064E-01 -3.10584E-01 -4.01295E-01 -3.56931E-01
  -2.19368E-01 -6.42494E-02  1.12587E-01  2.75270E-01  3.57688E-01  3.76628E-01  3.53594E-01  3.01346E-01  2.37323E-01  1.96936E-01
   1.79698E-01  1.61655E-01  1.36743E-01  1.00470E-01  6.14867E-02  2.57131E-03 -4.95202E-02 -1.12856E-01 -1.54630E-01 -1.63553E-01
  -1.12627E-01 -1.77085E-02  8.81248E-02  1.73972E-01  2.11197E-01  2.18131E-01  2.02774E-01  1.92130E-01  1.85088E-01  1.85665E-01
   1.86763E-01  1.86878E-01  1.85546E-01  1.84013E-01  1.82689E-01  1.82560E-01  1.80512E-01  1.58549E-01  1.54110E-01  1.35876E-01
   6.54558E-02  1.69852E-02 -2.41488E-02 -9.67860E-02 -1.45674E-01 -1.88235E-01 -1.96549E-01 -2.38698E-01 -2.67031E-01 -3.04539E-01
  -3.57393E-01 -3.92377E-01 -3.97796E-01 -4.21276E-01 -5.93374E-01 -7.90522E-01 -8.80000E-01 -7.71563E-01 -5.33659E-01 -2.77190E-01
  -9.51227E-02 -2.70667E-02 -1.44862E-02 -8.24146E-03  1.02998E-02  2.94380E-02  4.75233E-02  6.36739E-02  7.77404E-02  9.04697E-02
   1.02804E-01  1.15157E-01  1.27989E-01  1.41570E-01  1.55622E-01  1.71473E-01  1.89233E-01  2.08329E-01  2.28531E-01  2.53705E-01
   2.88554E-01  3.39064E-01  4.19297E-01  5.08949E-01  4.29457E-01  4.71000E-01  4.97193E-01  2.98731E-01 -1.71796E-01 -5.94219E-01
  -7.99555E-01 -7.94405E-01 -5.86379E-01 -4.02874E-01 -2.96196E-01 -2.94699E-01 -2.74134E-01 -2.53319E-01 -2.42560E-01 -2.31547E-01
  -2.23010E-01 -2.08352E-01 -1.95420E-01 -1.82820E-01 -1.78543E-01 -1.75973E-01 -1.69596E-01 -1.61301E-01 -1.51738E-01 -1.43911E-01
  -1.34817E-01 -1.26932E-01 -1.16904E-01 -1.06794E-01 -9.75896E-02 -8.97359E-02 -8.19385E-02 -7.36889E-02 -6.64583E-02 -6.02159E-02
  -5.39637E-02 -4.70469E-02 -4.07959E-02 -3.84428E-02 -3.98054E-02 -4.10782E-02 -3.79845E-02 -3.33757E-02 -3.23722E-02 -3.54273E-02
  -3.90972E-02 -4.02537E-02 -3.69455E-02 -3.09646E-02 -2.55621E-02 -2.11482E-02 -1.62070E-02 -1.38045E-02 -1.39571E-02 -1.26516E-02
   6.51324E-03  3.16780E-02  5.60012E-02  8.76617E-02  1.50126E-01  2.43895E-01  2.92608E-01  2.68167E-01  2.55860E-01  2.95210E-01
   3.26551E-01  2.92636E-01  2.00305E-01  7.83231E-02 -2.14791E-02 -6.23444E-02 -6.00504E-02 -5.10154E-02 -5.41147E-02 -6.06420E-02
  -6.75329E-02 -7.35853E-02 -7.78707E-02 -7.98945E-02 -8.34655E-02 -8.47879E-02 -8.83237E-02 -9.07886E-02 -9.38677E-02 -9.65461E-02
  -1.01689E-01 -1.16656E-01 -1.08000E-01 -1.20629E-01 -1.37106E-01 -9.25395E-02 -3.56853E-02  2.34281E-02  5.16866E-02  9.85921E-02
   1.38324E-01  1.53407E-01  1.59330E-01  1.45807E-01  1.58868E-01  1.52914E-01  1.70170E-01  1.72560E-01  1.73958E-01  1.66382E-01
   1.46590E-01  1.23408E-01  7.96828E-02  4.30119E-02  2.17988E-03 -2.97368E-02 -6.83647E-02 -1.12421E-01 -1.53047E-01 -2.02609E-01
  -2.38172E-01 -2.54560E-01 -2.48707E-01 -1.78959E-01 -4.98570E-02  1.17207E-01  2.71976E-01  3.81603E-01  4.09875E-01  3.64540E-01
   2.99203E-01  2.30240E-01  1.94023E-01  1.80849E-01  1.94212E-01  2.11812E-01  2.28498E-01  2.38621E-01  2.35950E-01  2.30459E-01
   2.19952E-01  2.12698E-01  2.05547E-01  2.00937E-01  1.93591E-01  1.86114E-01  1.75336E-01  1.60221E-01  1.45028E-01  1.25230E-01
   1.05253E-01  8.45187E-02  6.21257E-02  3.58326E-02  5.10254E-03 -3.30719E-02 -8.41336E-02 -1.41448E-01 -1.92276E-01 -2.31683E-01
  -2.46159E-01 -2.42560E-01 -2.10842E-01 -1.67494E-01 -1.07494E-01 -4.58061E-02  8.85686E-03  5.99562E-02  8.06241E-02  8.96186E-02
   6.18790E-02  1.87664E-02 -3.84607E-02 -7.48785E-02 -9.97175E-02 -1.20453E-01 -1.16984E-01 -1.69913E-01 -3.92832E-01 -3.95683E-01
  -5.53366E-01 -1.04080E+00 -1.59135E+00 -1.66112E+00 -1.29071E+00 -7.32675E-01 -1.71894E-01  8.20029E-02  1.07273E-01  1.45700E-02
   1.30132E-02  2.25464E-02  3.24057E-02  4.01086E-02  4.76188E-02  4.98349E-02  5.31006E-02  4.75572E-02  4.13150E-02  2.75484E-02
   1.46710E-02  9.93135E-04 -7.99339E-03 -9.85576E-03 -5.40547E-03  6.86074E-03  1.91874E-02  3.35542E-02  4.39864E-02  5.30805E-02
   6.00730E-02  6.75411E-02  7.38791E-02  7.91158E-02  8.29615E-02  8.63675E-02  8.98009E-02  9.41634E-02  9.82450E-02  1.01591E-01
   1.04093E-01  1.06739E-01  1.09571E-01  1.12805E-01  1.15772E-01  1.17499E-01  1.18938E-01  1.20768E-01  1.23634E-01  1.26728E-01
   1.30057E-01  1.31948E-01  1.31857E-01  1.29842E-01  1.26797E-01  1.23126E-01  1.19479E-01  1.15871E-01  1.11225E-01  1.05332E-01
   9.89643E-02  9.22455E-02  8.46560E-02  7.69350E-02  7.00210E-02  6.38339E-02  5.76939E-02  5.23801E-02  4.70610E-02  4.18838E-02
   3.74801E-02  3.41519E-02  3.10443E-02  2.81331E-02  2.52468E-02  2.22599E-02  1.92342E-02  1.67099E-02  1.53170E-02  1.43921E-02
   1.37228E-02  1.38889E-02  1.51641E-02  1.71126E-02  2.05055E-02  2.44577E-02  2.85795E-02  3.29430E-02  3.82055E-02  4.34687E-02
   4.71942E-02  5.02792E-02  5.35608E-02  5.91463E-02  6.65877E-02  7.55164E-02  8.41947E-02  9.23930E-02  1.00792E-01  1.10484E-01
   1.21842E-01  1.33893E-01  1.46314E-01  1.57836E-01  1.69137E-01  1.79384E-01  1.88986E-01  1.96479E-01  2.01280E-01  2.03366E-01
   2.03298E-01  2.01685E-01  1.99086E-01  1.95438E-01  1.90516E-01  1.83618E-01  1.74539E-01  1.63028E-01  1.51167E-01  1.39400E-01
   1.29134E-01  1.19653E-01  1.10206E-01  1.00821E-01  9.20873E-02  8.47633E-02  7.79395E-02  7.20770E-02  6.66415E-02  6.21245E-02
   5.85208E-02  5.58542E-02  5.36333E-02  5.28781E-02  5.43600E-02  5.70725E-02  6.09517E-02  6.53917E-02  7.00056E-02  7.48514E-02
   8.05889E-02  8.67413E-02  9.19221E-02  9.63111E-02  9.95535E-02  1.01781E-01  1.03058E-01  1.04669E-01  1.06839E-01  1.08739E-01
   1.09854E-01  1.08932E-01  1.07062E-01  1.04341E-01  1.01255E-01  9.75105E-02  9.36501E-02  9.01562E-02  8.67560E-02  8.35207E-02
   8.02131E-02  7.66849E-02  7.26518E-02  6.90680E-02  6.52898E-02  6.11206E-02  5.73624E-02  5.46671E-02  5.21461E-02  4.88983E-02
   4.50825E-02  4.07643E-02  3.52386E-02  2.84112E-02  2.04140E-02  1.12924E-02  1.55943E-03 -8.79654E-03 -2.06358E-02 -3.56801E-02
  -5.30384E-02 -7.11488E-02 -8.82207E-02 -1.04291E-01 -1.19511E-01 -1.33337E-01 -1.45083E-01 -1.54979E-01 -1.63569E-01 -1.69244E-01
  -1.70880E-01 -1.69270E-01 -1.66090E-01 -1.60889E-01 -1.54030E-01 -1.45989E-01 -1.37351E-01 -1.28031E-01 -1.19967E-01 -1.12633E-01
  -1.04530E-01 -9.50124E-02 -8.47747E-02 -7.41061E-02 -6.22399E-02 -5.07271E-02 -3.94787E-02 -2.81854E-02 -1.72398E-02 -7.84051E-03
   1.37821E-03  1.08659E-02  2.00943E-02  2.77597E-02  3.40243E-02  4.05610E-02  4.74081E-02  5.29410E-02  5.73998E-02  6.14322E-02
   6.47227E-02  6.81145E-02  7.13563E-02  7.35938E-02  7.47663E-02  7.65886E-02  7.84941E-02  7.93319E-02  8.01904E-02  8.16668E-02
   8.35874E-02  8.57393E-02  8.87843E-02  9.13976E-02  9.25791E-02  9.31237E-02  9.33760E-02  9.31414E-02  9.28753E-02  9.29262E-02
   9.30062E-02  9.29761E-02  9.29351E-02  9.32188E-02  9.37766E-02  9.40016E-02  9.44305E-02  9.58492E-02  9.61002E-02  9.41504E-02
   9.18694E-02  9.11901E-02  9.19255E-02  9.23877E-02  9.29149E-02  9.29265E-02  9.28645E-02  9.19624E-02  9.13386E-02  9.18261E-02
   9.33906E-02  9.55034E-02  9.72224E-02  9.85361E-02  9.93974E-02  1.00882E-01  1.02405E-01  1.03544E-01  1.04477E-01  1.05634E-01
   1.05913E-01  1.05302E-01  1.04766E-01  1.04741E-01  1.05605E-01  1.06895E-01  1.09169E-01  1.11449E-01  1.12701E-01  1.13740E-01
   1.15343E-01  1.17517E-01  1.20210E-01  1.22491E-01  1.23131E-01  1.22113E-01  1.20980E-01  1.20876E-01  1.22547E-01  1.24456E-01
   1.25737E-01  1.26163E-01  1.25877E-01  1.26463E-01  1.27987E-01  1.29579E-01  1.30231E-01  1.31666E-01  1.33756E-01  1.35864E-01
   1.37869E-01  1.39318E-01  1.41231E-01  1.43411E-01  1.46065E-01  1.49136E-01  1.53054E-01  1.57944E-01  1.62574E-01  1.66670E-01
   1.70301E-01  1.73439E-01  1.76456E-01  1.80567E-01
 NY background values follow
    -1.219E-02   -1.191E-02   -1.164E-02   -1.137E-02   -1.110E-02   -1.083E-02   -1.056E-02   -1.029E-02   -1.002E-02   -9.744E-03
    -9.473E-03   -9.202E-03   -8.931E-03   -8.660E-03   -8.390E-03   -8.119E-03   -7.849E-03   -7.578E-03   -7.308E-03   -7.038E-03
    -6.768E-03   -6.499E-03   -6.229E-03   -5.960E-03   -5.691E-03   -5.422E-03   -5.153E-03   -4.885E-03   -4.617E-03   -4.349E-03
    -4.081E-03   -3.814E-03   -3.547E-03   -3.280E-03   -3.014E-03   -2.747E-03   -2.482E-03   -2.216E-03   -1.951E-03   -1.686E-03
    -1.421E-03   -1.157E-03   -8.935E-04   -6.301E-04   -3.671E-04   -1.045E-04    1.577E-04    4.195E-04    6.810E-04    9.421E-04
     1.203E-03    1.463E-03    1.723E-03    1.983E-03    2.242E-03    2.502E-03    2.760E-03    3.019E-03    3.277E-03    3.535E-03
     3.793E-03    4.050E-03    4.307E-03    4.564E-03    4.821E-03    5.077E-03    5.334E-03    5.590E-03    5.846E-03    6.101E-03
