 
 $NMID
 ID=''
 FMTDAT='(2E13.5)'
 TRAMP=   1.00000E+0
 VOLUME=   1.00000E+0
 $END
  -3.79451E+1  -3.66436E+2
   8.55868E+2   1.37714E+3
  -6.06383E+2  -1.70460E+3
   2.09636E+3   7.04596E+2
   2.26706E+3  -1.50926E+3
  -1.48772E+2  -3.75142E+3
  -1.02492E+3  -5.65759E+1
  -2.46689E+3  -7.63967E+2
  -3.23942E+3   1.03364E+2
  -1.31763E+3  -1.33137E+3
   4.54013E+1   1.60973E+2
   2.95765E+3  -8.41467E+2
   1.88906E+3   1.75153E+3
   3.62873E+2   1.70104E+3
  -2.61951E+3  -3.43465E+2
  -1.42665E+3  -3.85078E+3
  -7.88987E+2  -1.25596E+3
  -1.07827E+3   1.03587E+3
  -9.25931E+2   3.10091E+3
  -6.77306E+2   4.18959E+2
   5.82865E+2  -3.02104E+2
   4.24778E+3   3.41017E+3
   1.58176E+2   4.71366E+3
  -7.17957E+2   1.00058E+3
   1.98645E+3  -2.38141E+3
   5.52221E+3  -1.52801E+3
  -1.18864E+3   8.67269E+1
  -2.56828E+3  -8.12782E+2
  -4.61568E+3  -3.01731E+3
   2.99218E+2  -2.42954E+3
   3.51001E+3  -4.32608E+1
   2.79548E+3   6.95117E+3
  -8.96883E+2   5.67854E+3
  -2.61626E+3   1.27896E+3
   3.84001E+3   9.52147E+2
   4.58987E+2   2.72057E+3
   1.67652E+2  -2.59118E+3
   5.11782E+3  -4.35048E+3
   4.12175E+3  -2.41000E+3
   3.15656E+3  -1.79504E+3
   2.97962E+3   1.97831E+3
   1.22586E+3  -2.15527E+2
  -3.37925E+3  -4.55063E+3
   5.34246E+2  -6.00709E+3
  -1.11765E+3  -4.11546E+3
   9.14290E+2  -3.18372E+3
   6.30068E+2  -1.83999E+3
   3.04061E+2  -1.16069E+3
   8.71199E+2   2.00216E+3
  -4.64197E+2   1.80045E+3
  -2.55411E+3   2.48916E+2
  -1.53687E+3  -1.42034E+3
  -3.13388E+2  -2.54644E+3
   1.81100E+3   2.78683E+2
  -2.39916E+2   1.02214E+3
   1.46200E+3   2.27448E+3
   1.39094E+2   3.41984E+3
  -3.74079E+3   2.53535E+3
  -4.62555E+3  -7.01480E+2
  -4.05996E+3  -2.72554E+3
  -6.66668E+2  -5.51333E+3
   3.53668E+3  -1.32465E+3
   4.52321E+3   5.75030E+2
   2.32175E+3  -4.24734E+1
   1.03595E+3  -1.71996E+3
   3.55212E+3  -7.43688E+2
   2.04322E+3   1.44926E+3
  -2.55733E+2   3.71951E+3
  -3.51041E+3   3.31934E+3
   4.64328E+2   2.86128E+3
  -6.57148E+2   3.02949E+3
  -3.66210E+3   2.99821E+3
  -3.16115E+3   7.93632E+2
  -3.47233E+3   2.97697E+3
  -1.64464E+3  -1.09431E+3
   9.53242E+2  -6.75544E+2
  -1.94444E+3   7.34311E+0
  -1.88340E+3  -8.56804E+2
   1.21337E+3  -3.74533E+3
   2.60729E+3  -2.08507E+3
   6.54790E+2  -1.06728E+3
   2.88395E+2  -3.42817E+2
   1.94756E+3  -1.00985E+3
   3.32717E+3   1.96124E+3
   5.73811E+2   3.36803E+3
  -2.53667E+3   3.67368E+3
  -2.17852E+3   9.27308E+2
  -9.37704E+2  -9.80866E+2
  -1.30306E+3   7.65118E+1
  -4.13430E+2   3.98065E+3
  -2.39366E+3   1.83287E+3
  -2.87972E+3   1.51063E+3
  -1.88643E+2   1.66239E+3
  -3.61207E+2   5.10238E+3
  -4.90650E+3   6.70432E+2
  -4.65815E+3  -1.70319E+3
   2.02133E+3  -4.49426E+2
   1.78891E+3   2.82030E+2
   4.32548E+2   2.13747E+3
  -4.37635E+3  -6.84460E+2
  -2.03084E+3  -1.97502E+3
   1.37190E+3  -3.04724E+3
   3.62202E+3  -3.84417E+2
   2.10811E+3  -9.57369E+2
  -1.15197E+2   8.11337E+1
  -1.02465E+3   1.46549E+3
   5.52513E+2   6.68614E+2
   1.43674E+2   1.75484E+2
  -3.85674E+3   1.74904E+3
  -3.01378E+3  -1.77049E+3
   1.68945E+3  -4.05606E+3
   1.81925E+3  -1.06567E+3
   1.63371E+3  -9.08738E+2
   2.60765E+3   4.36157E+1
   1.74809E+3   5.29940E+2
   5.67994E+2   1.07085E+3
   2.26371E+3  -6.75069E+2
   4.22918E+2  -6.00532E+2
   1.58202E+3   9.20909E+2
   9.51740E+2  -1.86371E+3
   1.85302E+3  -3.28294E+2
   1.66921E+3  -1.79347E+2
   4.25920E+2   1.42698E+3
   1.29488E+3  -1.05889E+2
  -9.12581E+2  -2.60363E+2
   2.20530E+3  -2.52232E+3
   1.80434E+3   4.92156E+2
  -3.87141E+1  -2.22827E+3
   9.55066E+2   6.99417E+2
   6.62028E+2   2.65015E+2
   3.65744E+1   6.42850E+2
  -2.46926E+2  -1.69713E+3
  -1.73475E+3  -2.63932E+3
   1.58268E+3   1.08399E+3
   1.87004E+3   2.10307E+3
  -1.77433E+2  -9.04242E+2
  -1.07070E+3   7.05930E+2
  -3.24302E+3   7.20543E+2
   7.00314E+2  -1.49521E+3
   5.09516E+2  -3.07264E+2
  -2.64655E+2  -1.41389E+2
   1.72374E+1  -1.87277E+3
   6.89306E+2  -7.07729E+2
  -4.27135E+2  -4.53678E+1
   1.32763E+3  -9.95906E+2
  -1.83489E+3  -1.18704E+3
  -3.66739E+2  -3.07525E+2
  -1.50033E+3  -6.48699E+2
  -1.67920E+3  -6.25060E+2
  -9.69991E+2   7.46613E+2
  -3.40047E+1  -6.73999E+2
  -4.95519E+2  -3.38723E+1
  -1.26446E+3  -1.28960E+3
  -1.56355E+3  -1.11772E+3
   2.23877E+2  -2.52560E+3
   1.09950E+3  -1.06274E+3
  -4.87240E+2  -1.87727E+3
   1.19277E+3   1.20222E+1
  -2.49578E+2   6.91589E+2
   1.08806E+3   1.21082E+3
   3.34837E+2   1.41299E+3
   5.05878E+2  -2.48697E+2
  -4.09925E+2  -1.55837E+3
  -5.86488E+2  -1.08722E+3
   1.37951E+3   1.28861E+3
   7.67433E+2   7.36462E+2
  -1.69871E+3  -3.39344E+2
   2.23479E+1  -6.46644E-1
  -2.92037E+3  -3.21763E+2
   3.75364E+2   8.66895E+2
   1.96109E+3   6.21720E+2
   7.17939E+2   2.99214E+1
  -6.61937E+2   1.17296E+3
   6.63799E+2   1.27406E+3
   1.69508E+3  -1.10044E+3
  -2.87549E+3  -1.22587E+3
  -6.03759E+2  -4.34311E+3
  -1.47033E+2  -6.25623E+2
   2.66702E+3  -9.44271E+2
  -2.76147E+1   3.53363E+3
   6.92939E+2   2.99883E+2
  -1.50261E+2  -4.39708E+2
  -6.43275E+2  -6.74197E+2
   2.20797E+3  -2.00994E+2
  -1.30175E+2   7.20251E+2
   7.15847E+2  -2.88419E+2
  -1.12511E+2  -5.51489E+2
   4.54056E+2   1.31489E+3
  -2.17667E+3   3.57428E+3
  -1.45734E+3  -1.94292E+3
  -1.08837E+3  -5.27086E+2
  -8.47086E+2   9.44309E+2
  -2.58473E+3   1.20233E+3
  -1.21198E+3  -3.17949E+1
  -9.02023E+2   2.28907E+2
  -3.16260E+2  -1.70986E+3
   1.44413E+3   1.29176E+2
   1.63710E+3   2.51720E+2
  -1.57080E+2  -1.19600E+3
   1.19589E+3  -4.90878E+2
  -1.45177E+2   2.67989E+3
  -1.55101E+2   2.81178E+3
  -1.26479E+3   1.89590E+3
  -1.06245E+3  -5.63144E+2
   1.92131E+2   5.28719E+2
  -1.54090E+2  -7.84805E+1
   7.23273E+2   1.16813E+3
   6.90592E+2   2.31400E+3
   1.81962E+2   7.72932E+2
   1.62558E+3   1.58984E+3
   2.86934E+2   1.32677E+2
   3.71101E+2   3.69173E+2
  -1.27207E+3  -7.01925E+2
  -7.07468E+2   6.08114E+2
   1.33311E+3   8.42979E+2
   6.87098E+2  -3.12889E+1
  -1.79164E+3   2.05667E+3
   5.15339E+2   1.25760E+3
  -1.53397E+3  -1.14423E+3
   3.77666E+2   6.75986E+1
   8.75558E+2  -1.97511E+3
  -5.63331E+2  -2.11608E+3
   1.21407E+3   1.56341E+3
  -1.82797E+3   1.86758E+3
   6.20020E+2  -2.50187E+2
   1.98562E+3  -3.98057E+2
  -4.85299E+2  -1.40221E+3
  -7.74935E+2  -2.25860E+3
   1.43103E+3  -2.65913E+2
   1.36770E+2   9.29437E+2
   2.76028E+1  -2.27997E+3
  -7.46569E+1   8.92248E+1
   4.00376E+2   3.59356E+3
  -1.10701E+3  -2.96908E+2
   2.09232E+2  -1.05749E+3
   1.71709E+3  -7.29703E+2
   1.74908E+3   4.03262E+2
  -9.95537E+2   2.02447E+3
  -1.60021E+3  -8.33959E+2
   1.30164E+3  -4.02905E+2
  -1.59629E+2   2.11492E+3
  -1.09930E+3   4.29081E+2
  -7.50498E+2   8.22693E+2
  -1.40703E+3   1.16449E+3
   1.09194E+3   4.39990E+2
  -1.53822E+2   5.07839E+2
  -7.32904E+1  -9.23018E+2
  -1.53899E+3   8.03379E+2
   1.70230E+0   9.97733E+1
   1.07580E+3   5.48894E+0
  -1.46260E+3  -9.77633E+2
  -5.46692E+2   1.88072E+3
  -2.91452E+3   1.90110E+3
  -1.58433E+3  -4.74563E+2
   1.11720E+2  -9.61692E+2
  -7.50880E+2  -8.89120E+2
   1.65290E+3  -1.87348E+2
   4.73544E+2  -1.90352E+2
   1.80747E+3  -2.13001E+2
  -2.01690E+2  -5.87691E+2
  -1.23694E+3  -3.07070E+2
  -1.03739E+3  -1.10150E+3
   2.89342E+2   9.47198E+1
   9.78921E+1  -9.77516E+2
  -1.24205E+3  -1.85921E+3
  -6.09490E+2   1.55404E+2
   1.65495E+3   1.91869E+3
   1.32892E+3   4.04913E+2
  -1.12546E+3  -1.82732E+3
  -1.01420E+3  -8.56596E+2
   7.62803E+2  -3.24434E+3
   8.20627E+2  -2.28301E+3
   1.83254E+3  -5.70139E+2
  -1.00211E+3   1.63509E+3
   5.82206E+2   1.31802E+3
   5.26511E+1  -7.51460E+2
  -1.91193E+3  -1.32043E+2
  -6.55438E+2  -3.59858E+2
  -1.90947E+3  -2.10775E+2
   1.15577E+2  -3.66104E+2
   8.41631E+1  -1.42394E+3
   1.31451E+3  -4.28135E+2
  -4.06155E+2  -8.48417E+1
  -2.61863E+3  -1.48810E+3
  -7.40160E+2  -4.92776E+2
  -3.09901E+3  -6.31204E+2
  -1.60177E+3  -1.19356E+3
  -1.11937E+3  -1.50267E+3
  -2.09006E+3   9.63641E+2
  -7.86838E+2  -5.31818E+2
  -8.47831E+2   3.80015E+2
  -1.27559E+3  -1.43713E+3
   9.76922E+2  -1.19080E+3
   1.02672E+3  -1.58267E+3
   4.03726E+2   9.75597E+2
  -1.74499E+3   2.90677E+2
   1.29487E+2   1.23425E+3
   4.34326E+2  -9.09481E+2
   2.04378E+2  -2.14146E+3
   6.21063E+2   1.01688E+3
  -1.11997E+3   6.88051E+2
   1.64542E+3   4.03979E+2
   1.94122E+3   2.28462E+2
   4.94814E+2   9.46417E+2
   7.91081E+2   1.07530E+3
  -8.25275E+1   4.36260E+2
   1.81291E+3  -9.15271E+2
   1.59621E+3  -1.66771E+3
   5.69138E+2   1.65742E+3
   4.92460E+0   8.49653E+2
  -1.34399E+3  -1.34396E+3
   3.69706E+2   9.09816E+2
  -6.81527E+1  -3.37223E+2
   1.63599E+2   3.00514E+2
   8.50165E+1   5.24862E+2
   1.49016E+3  -1.05812E+3
   1.15253E+3  -5.94307E+2
   5.34955E+2   1.66979E+3
  -1.82047E+3   9.10242E+2
  -2.49452E+2  -1.61919E+3
  -1.33283E+3   2.20358E+2
   1.10763E+3  -5.52131E+2
   1.74863E+3   1.55153E+2
   7.33558E+1   5.55463E+2
   8.35099E+2  -1.40357E+2
   5.69043E+2  -4.24705E+2
  -6.57832E+2   7.41447E+2
   2.31253E+2   2.25354E+2
   2.29198E+2   2.66989E+2
  -3.29718E+2  -5.36163E+2
   1.53891E+3  -5.23096E+2
   1.89053E+3  -5.66344E+1
   2.72171E+3  -8.91756E+2
   2.48471E+2   3.95417E+2
   9.66448E+2   6.99822E+2
  -7.28408E+2   2.25488E+2
  -1.79958E+3   2.00021E+3
  -3.77477E+2  -1.45144E+3
   8.79113E+2  -3.29856E+2
   1.95230E+2  -1.77400E+2
  -6.49546E+2   2.34215E+3
  -2.79495E+3   8.46821E+1
  -1.39730E+3   9.83098E+2
   1.59272E+3  -9.12254E+2
   1.28392E+3   3.32813E+1
  -9.34739E+2  -2.58422E+2
  -2.32819E+2   7.25179E+2
   2.07540E+3  -9.11934E+2
   5.52369E+2  -1.07647E+3
   1.36988E+2   3.98001E+2
  -1.01369E+3   9.21579E+2
   8.05934E+2   1.48152E+3
   6.49417E+2   1.59449E+3
  -1.27282E+2   4.45963E+2
  -8.21337E+2  -1.48667E+3
  -6.70989E+2   3.40609E+2
   9.72712E+2  -6.27733E+2
   1.04255E+3   2.07664E+3
   1.03257E+2  -3.57436E+2
   6.21775E+2   6.06386E+2
   6.21410E+2   1.16123E+3
   1.43005E+3   6.16730E+2
   1.93030E+3   4.67214E+2
   7.04995E+2  -2.16864E+2
  -1.96338E+2   5.73945E+2
  -1.54644E+3   2.56239E+3
   1.01273E+3   1.00171E+3
