 
 $NMID
 ID=''
 FMTDAT='(2E13.5)'
 TRAMP=   1.00000E+0
 VOLUME=   1.00000E+0
 $END
  -2.25310E+4   3.63631E+3
  -5.84879E+4  -7.55899E+3
  -5.87919E+4   2.72985E+3
  -5.42562E+4   2.55425E+3
  -5.65049E+4   8.89075E+2
  -5.63809E+4   3.29890E+3
  -5.41944E+4   2.49633E+3
  -5.49659E+4   1.34168E+3
  -5.48402E+4   2.81635E+3
  -5.35439E+4   2.26295E+3
  -5.38197E+4   1.42761E+3
  -5.35908E+4   2.48440E+3
  -5.25678E+4   2.27247E+3
  -5.28083E+4   1.35147E+3
  -5.26131E+4   1.93206E+3
  -5.16511E+4   1.67244E+3
  -5.18086E+4   1.20509E+3
  -5.15012E+4   1.62713E+3
  -5.07624E+4   1.53852E+3
  -5.08107E+4   1.11814E+3
  -5.04850E+4   1.44107E+3
  -4.98955E+4   1.50951E+3
  -4.99371E+4   1.19079E+3
  -4.96636E+4   1.33370E+3
  -4.89904E+4   1.25967E+3
  -4.88950E+4   1.17867E+3
  -4.87708E+4   1.23796E+3
  -4.81192E+4   1.03298E+3
  -4.79184E+4   7.12638E+2
  -4.75798E+4   7.47820E+2
  -4.71336E+4   7.45164E+2
  -4.70051E+4   7.48751E+2
  -4.68064E+4   6.75570E+2
  -4.63352E+4   5.58290E+2
  -4.61735E+4   5.01760E+2
  -4.58737E+4   6.17801E+2
  -4.54480E+4   5.69988E+2
  -4.51143E+4   5.14321E+2
  -4.48417E+4   6.38867E+2
  -4.45795E+4   6.67075E+2
  -4.43305E+4   4.82260E+2
  -4.41576E+4   3.99154E+2
  -4.36709E+4   2.06586E+2
  -4.33009E+4   1.40209E+2
  -4.30226E+4   1.51232E+2
  -4.26517E+4   1.44808E+2
  -4.23631E+4   2.23489E+1
  -4.21360E+4  -1.23843E+1
  -4.17973E+4   2.27068E+1
  -4.14860E+4  -8.34596E+1
  -4.10780E+4  -1.09334E+2
  -4.07052E+4  -1.55129E+2
  -4.02813E+4  -2.31598E+2
  -3.99716E+4  -8.81729E+1
  -3.97221E+4  -1.83524E+2
  -3.93236E+4  -1.70266E+2
  -3.90314E+4  -2.02919E+2
  -3.88055E+4  -2.62279E+2
  -3.83839E+4  -2.87871E+2
  -3.80392E+4  -3.32467E+2
  -3.77327E+4  -3.03102E+2
  -3.74146E+4  -2.66975E+2
  -3.71030E+4  -2.09928E+2
  -3.68267E+4  -1.87968E+2
  -3.65476E+4  -3.02392E+2
  -3.62232E+4  -1.92011E+2
  -3.59865E+4  -2.67517E+2
  -3.57882E+4  -2.05991E+2
  -3.54703E+4  -2.66512E+2
  -3.53241E+4  -3.28572E+2
  -3.49873E+4  -2.50455E+2
  -3.47285E+4  -2.08404E+2
  -3.45205E+4  -2.71389E+2
  -3.43315E+4  -2.87653E+2
  -3.39992E+4  -2.72448E+2
  -3.37510E+4  -2.14963E+2
  -3.35780E+4  -2.03959E+2
  -3.33264E+4  -1.84744E+2
  -3.30732E+4  -2.02325E+2
  -3.29562E+4  -2.24251E+2
  -3.27073E+4  -2.28065E+2
  -3.24336E+4  -2.63392E+2
  -3.22411E+4  -3.13824E+2
  -3.20373E+4  -3.03462E+2
  -3.19059E+4  -4.14627E+2
  -3.16511E+4  -4.63680E+2
  -3.13862E+4  -5.63212E+2
  -3.11576E+4  -5.79602E+2
  -3.08955E+4  -6.20772E+2
  -3.07487E+4  -6.49092E+2
  -3.05665E+4  -7.35165E+2
  -3.02980E+4  -7.83909E+2
  -3.01044E+4  -8.19155E+2
  -2.99467E+4  -8.77730E+2
  -2.97212E+4  -9.64186E+2
  -2.94308E+4  -1.08369E+3
  -2.91875E+4  -1.09631E+3
  -2.90561E+4  -1.13049E+3
  -2.88707E+4  -1.20694E+3
  -2.85849E+4  -1.39716E+3
  -2.83142E+4  -1.38673E+3
  -2.80239E+4  -1.51238E+3
  -2.78495E+4  -1.48148E+3
  -2.76083E+4  -1.60305E+3
  -2.74090E+4  -1.67616E+3
  -2.71218E+4  -1.65217E+3
  -2.69328E+4  -1.76339E+3
  -2.66496E+4  -1.83839E+3
  -2.63253E+4  -1.93011E+3
  -2.61095E+4  -2.05468E+3
  -2.59593E+4  -2.02259E+3
  -2.56830E+4  -2.00228E+3
  -2.55446E+4  -2.06424E+3
  -2.53071E+4  -2.09406E+3
  -2.51235E+4  -2.20466E+3
  -2.48968E+4  -2.21501E+3
  -2.46345E+4  -2.28912E+3
  -2.43912E+4  -2.34033E+3
  -2.42370E+4  -2.34139E+3
  -2.40584E+4  -2.39593E+3
  -2.37490E+4  -2.39517E+3
  -2.35607E+4  -2.45399E+3
  -2.33618E+4  -2.48247E+3
  -2.31243E+4  -2.58163E+3
  -2.29750E+4  -2.58551E+3
  -2.27435E+4  -2.63593E+3
  -2.25068E+4  -2.62262E+3
  -2.22617E+4  -2.61203E+3
  -2.20991E+4  -2.70104E+3
  -2.19143E+4  -2.74873E+3
  -2.16962E+4  -2.77824E+3
  -2.15167E+4  -2.74151E+3
  -2.12764E+4  -2.81140E+3
  -2.11811E+4  -2.80524E+3
  -2.10184E+4  -2.83897E+3
  -2.07562E+4  -2.95075E+3
  -2.05460E+4  -2.90549E+3
  -2.03192E+4  -2.92464E+3
  -2.01881E+4  -2.96696E+3
  -1.99687E+4  -3.05040E+3
  -1.97517E+4  -2.98152E+3
  -1.95906E+4  -3.05186E+3
  -1.93200E+4  -3.12909E+3
  -1.91939E+4  -3.04499E+3
  -1.90589E+4  -3.19196E+3
  -1.87379E+4  -3.20988E+3
  -1.86294E+4  -3.15578E+3
  -1.84682E+4  -3.19494E+3
  -1.82473E+4  -3.20419E+3
  -1.80964E+4  -3.28856E+3
  -1.79175E+4  -3.32096E+3
  -1.77594E+4  -3.31704E+3
  -1.75486E+4  -3.35637E+3
  -1.73675E+4  -3.28429E+3
  -1.71662E+4  -3.30726E+3
  -1.70325E+4  -3.31092E+3
  -1.68263E+4  -3.34070E+3
  -1.66879E+4  -3.41592E+3
  -1.65157E+4  -3.41035E+3
  -1.63760E+4  -3.43590E+3
  -1.62601E+4  -3.39411E+3
  -1.60081E+4  -3.45997E+3
  -1.59454E+4  -3.49340E+3
  -1.56918E+4  -3.40680E+3
  -1.56036E+4  -3.47117E+3
  -1.53826E+4  -3.50174E+3
  -1.52258E+4  -3.50652E+3
  -1.50741E+4  -3.49282E+3
  -1.49667E+4  -3.46724E+3
  -1.48976E+4  -3.52423E+3
  -1.46773E+4  -3.48100E+3
  -1.45929E+4  -3.55642E+3
  -1.44394E+4  -3.46980E+3
  -1.42819E+4  -3.51333E+3
  -1.41553E+4  -3.51927E+3
  -1.40194E+4  -3.52936E+3
  -1.39271E+4  -3.50891E+3
  -1.38038E+4  -3.41840E+3
  -1.36724E+4  -3.47163E+3
  -1.35685E+4  -3.55738E+3
  -1.34856E+4  -3.60109E+3
  -1.32978E+4  -3.52950E+3
  -1.31898E+4  -3.54083E+3
  -1.30416E+4  -3.54092E+3
  -1.29648E+4  -3.56547E+3
  -1.28390E+4  -3.54203E+3
  -1.27648E+4  -3.58076E+3
  -1.25687E+4  -3.59708E+3
  -1.24620E+4  -3.65677E+3
  -1.23816E+4  -3.62934E+3
  -1.23240E+4  -3.67565E+3
  -1.22080E+4  -3.60043E+3
  -1.21230E+4  -3.61781E+3
  -1.20023E+4  -3.61676E+3
  -1.18312E+4  -3.62924E+3
  -1.17660E+4  -3.59363E+3
  -1.16955E+4  -3.66564E+3
  -1.15682E+4  -3.65905E+3
  -1.14314E+4  -3.70467E+3
  -1.13858E+4  -3.71001E+3
  -1.12841E+4  -3.72931E+3
  -1.12068E+4  -3.77887E+3
  -1.10820E+4  -3.82077E+3
  -1.10153E+4  -3.82050E+3
  -1.08683E+4  -3.74489E+3
  -1.07841E+4  -3.75426E+3
  -1.07433E+4  -3.75463E+3
  -1.06390E+4  -3.81128E+3
  -1.04901E+4  -3.76982E+3
  -1.04221E+4  -3.79164E+3
  -1.02869E+4  -3.80530E+3
  -1.02166E+4  -3.84688E+3
  -1.01391E+4  -3.82268E+3
  -1.01092E+4  -3.82786E+3
  -9.98094E+3  -3.85084E+3
  -9.96266E+3  -3.88011E+3
  -9.80675E+3  -3.86561E+3
  -9.70723E+3  -3.85723E+3
  -9.61821E+3  -3.78677E+3
  -9.53110E+3  -3.85669E+3
  -9.46020E+3  -3.89419E+3
  -9.27460E+3  -3.88237E+3
  -9.29209E+3  -3.85283E+3
  -9.22515E+3  -3.90246E+3
  -9.13467E+3  -3.90862E+3
  -9.03740E+3  -3.90302E+3
  -8.96224E+3  -3.90247E+3
  -8.86539E+3  -3.92898E+3
  -8.85347E+3  -3.88362E+3
  -8.71875E+3  -3.91654E+3
  -8.62837E+3  -3.95876E+3
  -8.50734E+3  -3.91985E+3
  -8.54686E+3  -4.01526E+3
  -8.39065E+3  -3.87553E+3
  -8.37866E+3  -3.95010E+3
  -8.31026E+3  -3.97018E+3
  -8.22925E+3  -3.96960E+3
  -8.17233E+3  -3.96330E+3
  -8.08108E+3  -3.94545E+3
  -8.01928E+3  -3.95803E+3
  -7.92481E+3  -3.90522E+3
  -7.89910E+3  -3.92929E+3
  -7.80254E+3  -3.92780E+3
  -7.70319E+3  -3.93380E+3
  -7.71653E+3  -3.92959E+3
  -7.65623E+3  -3.91579E+3
  -7.56141E+3  -3.92810E+3
  -7.48129E+3  -3.92557E+3
  -7.39059E+3  -3.89653E+3
  -7.36939E+3  -3.94502E+3
  -7.33079E+3  -3.97179E+3
  -7.23160E+3  -3.94338E+3
  -7.20576E+3  -3.97299E+3
  -7.14157E+3  -3.95330E+3
  -7.08436E+3  -3.93567E+3
  -7.05637E+3  -3.95899E+3
  -6.92928E+3  -3.90378E+3
  -6.83789E+3  -3.89494E+3
  -6.86306E+3  -3.85352E+3
  -6.81066E+3  -3.94357E+3
  -6.69743E+3  -3.92754E+3
  -6.68618E+3  -3.88569E+3
  -6.61002E+3  -3.82847E+3
  -6.54522E+3  -3.86069E+3
  -6.47457E+3  -3.73334E+3
  -6.46450E+3  -3.87713E+3
  -6.35351E+3  -3.85580E+3
  -6.22315E+3  -3.84179E+3
  -6.26001E+3  -3.75787E+3
  -6.22821E+3  -3.86176E+3
  -6.12418E+3  -3.84069E+3
  -6.16427E+3  -3.83639E+3
  -6.08225E+3  -3.77475E+3
  -6.02919E+3  -3.81601E+3
  -5.96444E+3  -3.76101E+3
  -5.89460E+3  -3.73224E+3
  -5.86787E+3  -3.76021E+3
  -5.78487E+3  -3.75979E+3
  -5.71098E+3  -3.77377E+3
  -5.72994E+3  -3.69359E+3
  -5.62271E+3  -3.76210E+3
  -5.62335E+3  -3.72866E+3
  -5.52916E+3  -3.73117E+3
  -5.51164E+3  -3.72305E+3
  -5.50549E+3  -3.73268E+3
  -5.40827E+3  -3.65660E+3
  -5.35575E+3  -3.75989E+3
  -5.38867E+3  -3.72155E+3
  -5.28377E+3  -3.71773E+3
  -5.21467E+3  -3.74525E+3
  -5.25843E+3  -3.69305E+3
  -5.19183E+3  -3.66953E+3
  -5.06944E+3  -3.68881E+3
  -5.10058E+3  -3.66787E+3
  -5.03241E+3  -3.67804E+3
  -5.01775E+3  -3.68044E+3
  -4.91915E+3  -3.67598E+3
  -4.89646E+3  -3.59058E+3
  -4.85781E+3  -3.61043E+3
  -4.82306E+3  -3.61991E+3
  -4.82710E+3  -3.65315E+3
  -4.74959E+3  -3.65826E+3
  -4.74120E+3  -3.58788E+3
  -4.64583E+3  -3.58735E+3
  -4.60721E+3  -3.60209E+3
  -4.60078E+3  -3.66786E+3
  -4.55254E+3  -3.61285E+3
  -4.53642E+3  -3.52794E+3
  -4.52984E+3  -3.52314E+3
  -4.38471E+3  -3.62361E+3
  -4.45581E+3  -3.58517E+3
  -4.40381E+3  -3.53571E+3
  -4.34536E+3  -3.46490E+3
  -4.31586E+3  -3.54777E+3
  -4.21401E+3  -3.51737E+3
  -4.24142E+3  -3.53081E+3
  -4.21686E+3  -3.51306E+3
  -4.11140E+3  -3.50745E+3
  -4.05811E+3  -3.53937E+3
  -4.09797E+3  -3.46422E+3
  -4.02287E+3  -3.44385E+3
  -4.02579E+3  -3.48573E+3
  -3.99102E+3  -3.46132E+3
  -3.98968E+3  -3.46668E+3
  -3.96290E+3  -3.43617E+3
  -3.87413E+3  -3.45179E+3
  -3.88637E+3  -3.48096E+3
  -3.74983E+3  -3.37367E+3
  -3.77966E+3  -3.36946E+3
  -3.78569E+3  -3.36665E+3
  -3.69063E+3  -3.34872E+3
  -3.73925E+3  -3.41287E+3
  -3.66881E+3  -3.35895E+3
  -3.60711E+3  -3.30964E+3
  -3.62057E+3  -3.26652E+3
  -3.57705E+3  -3.28776E+3
  -3.52496E+3  -3.40220E+3
  -3.50727E+3  -3.27780E+3
  -3.51319E+3  -3.20453E+3
  -3.47156E+3  -3.17917E+3
  -3.37105E+3  -3.29697E+3
  -3.35816E+3  -3.27438E+3
  -3.36474E+3  -3.22074E+3
  -3.35396E+3  -3.15444E+3
  -3.34594E+3  -3.18734E+3
  -3.28526E+3  -3.20230E+3
  -3.22680E+3  -3.22433E+3
  -3.23978E+3  -3.18376E+3
  -3.16364E+3  -3.18284E+3
  -3.22024E+3  -3.19153E+3
  -3.15045E+3  -3.09873E+3
  -3.13199E+3  -3.12600E+3
  -3.02745E+3  -3.09372E+3
  -3.10256E+3  -3.10399E+3
  -2.99973E+3  -3.09215E+3
  -3.01863E+3  -3.06292E+3
  -2.93044E+3  -3.03106E+3
  -3.02322E+3  -3.08233E+3
  -2.95635E+3  -3.01758E+3
  -2.93399E+3  -3.05383E+3
  -2.87104E+3  -3.05105E+3
  -2.87454E+3  -2.96535E+3
  -2.82153E+3  -3.02573E+3
  -2.78990E+3  -2.91884E+3
  -2.82194E+3  -2.98410E+3
  -2.74793E+3  -2.95727E+3
  -2.74519E+3  -2.94856E+3
