 
 $NMID
 ID=''
 FMTDAT='(2E13.5)'
 TRAMP=   1.00000E+0
 VOLUME=   1.00000E+0
 $END
  -1.69061E+4  -6.32304E+3
  -3.67965E+4  -2.92914E+4
  -3.99802E+4  -2.40199E+4
  -3.56296E+4  -2.41452E+4
  -3.50560E+4  -2.77876E+4
  -3.43604E+4  -2.75600E+4
  -3.09017E+4  -2.88098E+4
  -2.90542E+4  -3.12582E+4
  -2.76344E+4  -3.14421E+4
  -2.44911E+4  -3.23937E+4
  -2.22768E+4  -3.39692E+4
  -2.05765E+4  -3.38126E+4
  -1.79149E+4  -3.43026E+4
  -1.56259E+4  -3.54425E+4
  -1.35457E+4  -3.51999E+4
  -1.09784E+4  -3.52226E+4
  -8.77611E+3  -3.56772E+4
  -6.82941E+3  -3.52209E+4
  -4.48530E+3  -3.48342E+4
  -2.40773E+3  -3.48175E+4
  -5.99265E+2  -3.39202E+4
   1.44220E+3  -3.32699E+4
   3.38802E+3  -3.28817E+4
   5.12096E+3  -3.19165E+4
   7.02975E+3  -3.07551E+4
   8.59865E+3  -2.99966E+4
   1.00873E+4  -2.88707E+4
   1.18051E+4  -2.75164E+4
   1.32192E+4  -2.63638E+4
   1.43733E+4  -2.48887E+4
   1.55492E+4  -2.35320E+4
   1.66650E+4  -2.22988E+4
   1.76601E+4  -2.07459E+4
   1.86278E+4  -1.91003E+4
   1.93838E+4  -1.76773E+4
   1.99908E+4  -1.61012E+4
   2.06711E+4  -1.44890E+4
   2.10396E+4  -1.29758E+4
   2.13483E+4  -1.13874E+4
   2.15746E+4  -9.84586E+3
   2.17769E+4  -8.36828E+3
   2.18038E+4  -6.70141E+3
   2.17494E+4  -5.13132E+3
   2.15611E+4  -3.70002E+3
   2.12756E+4  -2.22615E+3
   2.10339E+4  -7.96059E+2
   2.05994E+4   6.14805E+2
   2.00994E+4   1.88407E+3
   1.96344E+4   3.12786E+3
   1.90332E+4   4.35499E+3
   1.82974E+4   5.56418E+3
   1.75743E+4   6.68260E+3
   1.68268E+4   7.67174E+3
   1.60121E+4   8.53165E+3
   1.51508E+4   9.46684E+3
   1.42810E+4   1.02532E+4
   1.33173E+4   1.10602E+4
   1.23275E+4   1.17651E+4
   1.12627E+4   1.24243E+4
   1.02847E+4   1.29248E+4
   9.28256E+3   1.33410E+4
   8.20865E+3   1.37738E+4
   7.23399E+3   1.41037E+4
   6.17547E+3   1.44753E+4
   5.05681E+3   1.45649E+4
   4.08642E+3   1.47039E+4
   3.03335E+3   1.48369E+4
   2.01658E+3   1.48526E+4
   9.38425E+2   1.47643E+4
  -8.30648E+0   1.47475E+4
  -9.96831E+2   1.44384E+4
  -1.93743E+3   1.41926E+4
  -2.88164E+3   1.38889E+4
  -3.73382E+3   1.35428E+4
  -4.54473E+3   1.31339E+4
  -5.36511E+3   1.27154E+4
  -6.07405E+3   1.22437E+4
  -6.81892E+3   1.16548E+4
  -7.45965E+3   1.11551E+4
  -8.02054E+3   1.04877E+4
  -8.56805E+3   9.97118E+3
  -9.10103E+3   9.27212E+3
  -9.43623E+3   8.59167E+3
  -9.92240E+3   7.94530E+3
  -1.03102E+4   7.24425E+3
  -1.05756E+4   6.57489E+3
  -1.07992E+4   5.88882E+3
  -1.09693E+4   5.14893E+3
  -1.10805E+4   4.48302E+3
  -1.11594E+4   3.90635E+3
  -1.11723E+4   3.18743E+3
  -1.11334E+4   2.57522E+3
  -1.11129E+4   2.04362E+3
  -1.10085E+4   1.42374E+3
  -1.08471E+4   8.49369E+2
  -1.06785E+4   3.22847E+2
  -1.04674E+4  -8.33524E+1
  -1.02504E+4  -4.32368E+2
  -1.00057E+4  -9.07135E+2
  -9.78241E+3  -1.37615E+3
  -9.47705E+3  -1.68530E+3
  -9.22905E+3  -2.01043E+3
  -9.01084E+3  -2.24177E+3
  -8.72810E+3  -2.51017E+3
  -8.31029E+3  -2.70437E+3
  -8.04774E+3  -2.88560E+3
  -7.81005E+3  -2.99244E+3
  -7.53850E+3  -3.18126E+3
  -7.20236E+3  -3.27190E+3
  -6.87058E+3  -3.41287E+3
  -6.59761E+3  -3.40024E+3
  -6.33574E+3  -3.38469E+3
  -6.16828E+3  -3.43070E+3
  -5.93447E+3  -3.33865E+3
  -5.70739E+3  -3.41079E+3
  -5.51257E+3  -3.46569E+3
  -5.31123E+3  -3.40164E+3
  -5.07023E+3  -3.29143E+3
  -4.94203E+3  -3.17666E+3
  -4.83217E+3  -3.14358E+3
  -4.70118E+3  -3.04743E+3
  -4.59109E+3  -2.93105E+3
  -4.50653E+3  -2.90114E+3
  -4.36968E+3  -2.80041E+3
  -4.32334E+3  -2.69835E+3
  -4.29944E+3  -2.65314E+3
  -4.15774E+3  -2.56656E+3
  -4.17287E+3  -2.45477E+3
  -4.12809E+3  -2.36347E+3
  -4.08743E+3  -2.32001E+3
  -4.10395E+3  -2.20811E+3
  -4.08605E+3  -2.16814E+3
  -4.11841E+3  -2.13192E+3
  -4.18417E+3  -2.01407E+3
  -4.13276E+3  -1.96728E+3
  -4.13440E+3  -1.96180E+3
  -4.21147E+3  -1.90365E+3
  -4.19948E+3  -1.91410E+3
  -4.19889E+3  -1.87148E+3
  -4.20739E+3  -1.86608E+3
  -4.20702E+3  -1.80208E+3
  -4.24527E+3  -1.83082E+3
  -4.27539E+3  -1.85945E+3
  -4.30488E+3  -1.85276E+3
  -4.27678E+3  -1.85142E+3
  -4.28227E+3  -1.84337E+3
  -4.25281E+3  -1.92707E+3
  -4.27147E+3  -1.84892E+3
  -4.22450E+3  -1.90989E+3
  -4.20463E+3  -1.96852E+3
  -4.30481E+3  -1.95169E+3
  -4.20723E+3  -1.96120E+3
  -4.14663E+3  -2.02006E+3
  -4.07998E+3  -2.07318E+3
  -4.09735E+3  -2.00975E+3
  -4.01947E+3  -2.02980E+3
  -3.98855E+3  -2.03402E+3
  -3.89741E+3  -2.06243E+3
  -3.87398E+3  -2.04147E+3
  -3.85907E+3  -2.11165E+3
  -3.77291E+3  -2.11180E+3
  -3.71852E+3  -2.05237E+3
  -3.67577E+3  -2.04216E+3
  -3.61479E+3  -2.08046E+3
  -3.57800E+3  -2.01819E+3
  -3.53129E+3  -2.03043E+3
  -3.44544E+3  -2.01240E+3
  -3.43233E+3  -1.89106E+3
  -3.36163E+3  -1.94163E+3
  -3.41734E+3  -1.85118E+3
  -3.24495E+3  -1.87137E+3
  -3.17531E+3  -1.84809E+3
  -3.19391E+3  -1.85096E+3
  -3.19840E+3  -1.86576E+3
  -3.10851E+3  -1.78529E+3
  -3.14818E+3  -1.72886E+3
  -3.02681E+3  -1.73975E+3
  -3.04891E+3  -1.78309E+3
  -3.04108E+3  -1.71679E+3
  -3.00416E+3  -1.76132E+3
  -2.96922E+3  -1.73651E+3
  -2.93838E+3  -1.65674E+3
  -2.88549E+3  -1.64294E+3
  -2.85915E+3  -1.63760E+3
  -2.84031E+3  -1.64103E+3
  -2.76345E+3  -1.63399E+3
  -2.75767E+3  -1.66083E+3
  -2.71879E+3  -1.60896E+3
  -2.69843E+3  -1.61574E+3
  -2.64964E+3  -1.63783E+3
  -2.61142E+3  -1.70962E+3
  -2.55997E+3  -1.69276E+3
  -2.51613E+3  -1.63972E+3
  -2.53786E+3  -1.62454E+3
  -2.39750E+3  -1.64074E+3
  -2.39502E+3  -1.72511E+3
  -2.38925E+3  -1.65804E+3
  -2.25571E+3  -1.67238E+3
  -2.22162E+3  -1.56922E+3
  -2.22286E+3  -1.64010E+3
  -2.10672E+3  -1.53820E+3
  -2.02557E+3  -1.62273E+3
  -1.97326E+3  -1.59727E+3
  -1.91748E+3  -1.63897E+3
  -1.90722E+3  -1.58405E+3
  -1.82874E+3  -1.58146E+3
  -1.71094E+3  -1.52912E+3
  -1.68905E+3  -1.56799E+3
  -1.63596E+3  -1.43026E+3
  -1.57201E+3  -1.42070E+3
  -1.45441E+3  -1.44081E+3
  -1.41271E+3  -1.43980E+3
  -1.32169E+3  -1.35253E+3
  -1.29374E+3  -1.31181E+3
  -1.19128E+3  -1.26810E+3
  -1.15853E+3  -1.25279E+3
  -1.10281E+3  -1.18062E+3
  -1.06762E+3  -1.20397E+3
  -1.00305E+3  -1.13005E+3
  -8.85297E+2  -1.12108E+3
  -8.28807E+2  -9.82974E+2
  -8.26271E+2  -9.85139E+2
  -7.12513E+2  -9.66841E+2
  -6.56259E+2  -9.01400E+2
  -6.31082E+2  -8.12019E+2
  -6.50173E+2  -7.41318E+2
  -5.89470E+2  -7.60979E+2
  -5.47108E+2  -6.98101E+2
  -4.80322E+2  -6.93052E+2
  -3.64756E+2  -6.12644E+2
  -3.35368E+2  -5.33542E+2
  -3.31511E+2  -5.17123E+2
  -2.31833E+2  -4.85198E+2
  -2.14962E+2  -4.49198E+2
  -2.68863E+2  -4.59997E+2
  -1.74220E+2  -3.73986E+2
  -1.52778E+2  -3.11616E+2
  -1.56880E+2  -3.77728E+2
  -1.07333E+2  -2.35222E+2
  -1.00815E+2  -1.84292E+2
  -8.63177E+1  -1.87173E+2
   2.10543E+1  -1.41309E+2
  -1.42183E+1  -1.17955E+2
   2.66008E+1  -5.51541E+1
   2.96347E+1  -3.17511E+1
   3.93388E+1  -9.26397E+0
   9.04371E+1   3.99953E+1
   1.27364E+2   9.13038E+1
   1.52452E+2   1.44748E+2
   1.76279E+2   1.07343E+2
   2.38891E+2   1.90288E+2
   1.63291E+2   1.91193E+2
   2.17210E+2   2.32891E+2
   2.81478E+2   3.04039E+2
   2.80146E+2   3.52184E+2
   2.96518E+2   3.41380E+2
   2.82732E+2   3.53072E+2
   2.63813E+2   3.50944E+2
   3.71667E+2   4.04829E+2
   3.71453E+2   4.99074E+2
   3.34730E+2   4.58012E+2
   3.62815E+2   4.57955E+2
   4.01475E+2   4.63119E+2
   4.11762E+2   5.71223E+2
   4.39385E+2   5.63189E+2
   3.83886E+2   6.17872E+2
   4.23112E+2   6.35297E+2
   4.08485E+2   6.95529E+2
   4.96515E+2   7.09317E+2
   5.26320E+2   6.87144E+2
   4.78812E+2   6.89217E+2
   4.66817E+2   7.38775E+2
   5.11852E+2   7.84844E+2
   5.74812E+2   8.04061E+2
   4.32665E+2   7.79129E+2
   4.74735E+2   8.39480E+2
   5.43676E+2   7.49633E+2
   5.17052E+2   8.84494E+2
   5.27354E+2   8.41713E+2
   5.39419E+2   9.12777E+2
   5.52888E+2   8.69703E+2
   5.31229E+2   9.23272E+2
   5.64458E+2   9.43670E+2
   5.90405E+2   9.02243E+2
   5.39906E+2   9.50637E+2
   5.19953E+2   9.30186E+2
   5.61611E+2   8.85042E+2
   5.65232E+2   9.29978E+2
   5.40127E+2   9.92259E+2
   5.18661E+2   9.89285E+2
   6.01235E+2   9.84059E+2
   5.58138E+2   1.03867E+3
   5.86949E+2   1.00307E+3
   5.82383E+2   1.02010E+3
   6.34565E+2   1.04862E+3
   5.77159E+2   1.05284E+3
   6.05354E+2   1.01640E+3
   5.81956E+2   1.04596E+3
   6.22801E+2   1.07839E+3
   6.07041E+2   1.03440E+3
   5.92470E+2   1.04503E+3
   5.24639E+2   1.05010E+3
   6.54544E+2   1.03299E+3
   6.68327E+2   1.10467E+3
   6.05177E+2   9.88340E+2
   5.59432E+2   1.04256E+3
   5.53703E+2   1.01148E+3
   5.89900E+2   1.00150E+3
   6.29280E+2   1.07848E+3
   5.80920E+2   1.12079E+3
   6.11034E+2   1.00990E+3
   5.67939E+2   1.11492E+3
   5.86339E+2   1.08768E+3
   5.76457E+2   1.03178E+3
   5.82112E+2   1.12742E+3
   5.03309E+2   1.07131E+3
   5.28704E+2   1.06486E+3
   5.92106E+2   1.06191E+3
   5.78810E+2   1.06354E+3
   5.37361E+2   1.10530E+3
   5.68812E+2   1.05125E+3
   5.82292E+2   1.02446E+3
   5.43756E+2   1.10523E+3
   5.83517E+2   1.05624E+3
   5.16389E+2   1.10462E+3
   5.14576E+2   1.07643E+3
   5.91046E+2   1.00495E+3
   5.37103E+2   1.03815E+3
   5.09781E+2   9.39039E+2
   5.23080E+2   9.70262E+2
   5.62422E+2   1.06274E+3
   5.09361E+2   1.05258E+3
   5.06291E+2   9.63336E+2
   4.76829E+2   9.87910E+2
   4.88793E+2   9.77422E+2
   4.70157E+2   1.00761E+3
   5.27431E+2   9.33459E+2
   4.84736E+2   9.35286E+2
   4.48907E+2   9.16607E+2
   5.18375E+2   9.47970E+2
   5.03214E+2   8.98901E+2
   5.11059E+2   9.25851E+2
   5.30368E+2   8.44944E+2
   4.87240E+2   8.78556E+2
   5.12408E+2   8.60435E+2
   5.37796E+2   9.06196E+2
   4.83014E+2   8.41947E+2
   4.70585E+2   8.62274E+2
   4.74343E+2   8.84484E+2
   4.89462E+2   8.35891E+2
   4.42261E+2   8.36966E+2
   4.19375E+2   8.33639E+2
   4.66597E+2   7.80776E+2
   5.50330E+2   7.39283E+2
   5.08313E+2   8.44648E+2
   4.26371E+2   7.94275E+2
   5.62377E+2   8.24160E+2
   4.51346E+2   7.92592E+2
   4.35566E+2   7.77244E+2
   5.28557E+2   7.44654E+2
   4.61394E+2   6.74324E+2
   5.14484E+2   6.91137E+2
   4.65492E+2   7.67577E+2
   4.29605E+2   7.61399E+2
   5.02352E+2   7.03486E+2
   4.27931E+2   7.08220E+2
   4.69997E+2   7.35878E+2
