 LCModel (Version 6.3-1N) Copyright: S.W. Provencher.          Ref.: Magn. Reson. Med. 30:672-679 (1993).                
 Slice_N1@21_22  02-Jun-2023 14:37:28
 27 lines in following concentration table = NCONC+1
    Conc.  %SD /Cr+PCr  Metabolite                                         
 2.73E-06  13% 4.5E-04 Mac                                                 
 2.46E-02  26%   4.027 Cr                                                  
 2.43E-02  25%   3.973 PCr                                                 
 5.17E-02  15%   8.452 Ins                                                 
 7.84E-02   8%  12.816 NAA                                                 
 5.92E-02  12%   9.687 Tau                                                 
    0.000 999%   0.000 PCho                                                
 6.87E-03  26%   1.123 GPC                                                 
 6.45E-02  14%  10.550 Glu                                                 
 2.22E-02  30%   3.625 Gln                                                 
 5.38E-03 120%   0.880 Ala                                                 
 2.94E-02  42%   4.805 Asc                                                 
 7.78E-03  83%   1.273 Asp                                                 
 1.49E-03 237%   0.244 GABA                                                
 6.10E-03  68%   0.998 Glc                                                 
 5.95E-03  62%   0.973 GSH                                                 
    0.000 999%   0.000 Lac                                                 
 1.02E-03 445%   0.166 NAAG                                                
    0.000 999%   0.000 PE                                                  
 6.87E-03  26%   1.123 GPC+PCho                                            
 7.94E-02  10%  12.983 NAA+NAAG                                            
 8.67E-02  12%  14.174 Glu+Gln                                             
 4.89E-02  11%   8.000 Cr+PCr                                              
 7.94E-02  10%  12.983 NAA+NAAG                                            
 4.89E-02  11%   8.000 Cr+PCr                                              
 8.67E-02  12%  14.174 Glu+Gln                                             
   6 lines in following misc. output table
  FWHM = 0.023 ppm    S/N =   4                                            
  Data shift = 0.029 ppm                                                   
  Ph:  22 deg     -14.0 deg/ppm                                            
  alphaB,S = 3.1E+01,   1.2E+01                                            
   18 spline knots.   Ns = 5(1)                                            
   2 inflections.     1 extrema                                            
  654 points on ppm-axis = NY
      4.000000     3.994181     3.988363     3.982544     3.976726     3.970907     3.965088     3.959270     3.953451     3.947633
      3.941814     3.935995     3.930177     3.924358     3.918540     3.912721     3.906902     3.901084     3.895265     3.889446
      3.883628     3.877809     3.871991     3.866172     3.860353     3.854535     3.848716     3.842898     3.837079     3.831260
      3.825442     3.819623     3.813805     3.807986     3.802167     3.796349     3.790530     3.784712     3.778893     3.773074
      3.767256     3.761437     3.755619     3.749800     3.743981     3.738163     3.732344     3.726526     3.720707     3.714888
      3.709070     3.703251     3.697433     3.691614     3.685795     3.679977     3.674158     3.668339     3.662521     3.656702
      3.650884     3.645065     3.639246     3.633428     3.627609     3.621791     3.615972     3.610153     3.604335     3.598516
      3.592698     3.586879     3.581060     3.575242     3.569423     3.563605     3.557786     3.551967     3.546149     3.540330
      3.534512     3.528693     3.522874     3.517056     3.511237     3.505419     3.499600     3.493781     3.487963     3.482144
      3.476326     3.470507     3.464688     3.458870     3.453051     3.447232     3.441414     3.435595     3.429777     3.423958
      3.418139     3.412321     3.406502     3.400684     3.394865     3.389046     3.383228     3.377409     3.371591     3.365772
      3.359953     3.354135     3.348316     3.342498     3.336679     3.330860     3.325042     3.319223     3.313405     3.307586
      3.301767     3.295949     3.290130     3.284312     3.278493     3.272674     3.266856     3.261037     3.255219     3.249400
      3.243581     3.237763     3.231944     3.226125     3.220307     3.214488     3.208670     3.202851     3.197032     3.191214
      3.185395     3.179577     3.173758     3.167939     3.162121     3.156302     3.150484     3.144665     3.138846     3.133028
      3.127209     3.121391     3.115572     3.109753     3.103935     3.098116     3.092298     3.086479     3.080660     3.074842
      3.069023     3.063205     3.057386     3.051567     3.045749     3.039930     3.034111     3.028293     3.022474     3.016656
      3.010837     3.005018     2.999200     2.993381     2.987563     2.981744     2.975925     2.970107     2.964288     2.958470
      2.952651     2.946832     2.941014     2.935195     2.929377     2.923558     2.917739     2.911921     2.906102     2.900284
      2.894465     2.888646     2.882828     2.877009     2.871191     2.865372     2.859553     2.853735     2.847916     2.842098
      2.836279     2.830460     2.824642     2.818823     2.813004     2.807186     2.801367     2.795549     2.789730     2.783911
      2.778093     2.772274     2.766456     2.760637     2.754818     2.749000     2.743181     2.737363     2.731544     2.725725
      2.719907     2.714088     2.708270     2.702451     2.696632     2.690814     2.684995     2.679177     2.673358     2.667539
      2.661721     2.655902     2.650084     2.644265     2.638446     2.632628     2.626809     2.620991     2.615172     2.609353
      2.603535     2.597716     2.591897     2.586079     2.580260     2.574442     2.568623     2.562804     2.556986     2.551167
      2.545349     2.539530     2.533711     2.527893     2.522074     2.516256     2.510437     2.504618     2.498800     2.492981
      2.487163     2.481344     2.475525     2.469707     2.463888     2.458070     2.452251     2.446432     2.440614     2.434795
      2.428977     2.423158     2.417339     2.411521     2.405702     2.399884     2.394065     2.388246     2.382428     2.376609
      2.370790     2.364972     2.359153     2.353335     2.347516     2.341697     2.335879     2.330060     2.324242     2.318423
      2.312604     2.306786     2.300967     2.295149     2.289330     2.283511     2.277693     2.271874     2.266056     2.260237
      2.254418     2.248600     2.242781     2.236963     2.231144     2.225325     2.219507     2.213688     2.207870     2.202051
      2.196232     2.190414     2.184595     2.178777     2.172958     2.167139     2.161321     2.155502     2.149683     2.143865
      2.138046     2.132228     2.126409     2.120590     2.114772     2.108953     2.103135     2.097316     2.091497     2.085679
      2.079860     2.074042     2.068223     2.062404     2.056586     2.050767     2.044949     2.039130     2.033311     2.027493
      2.021674     2.015856     2.010037     2.004218     1.998400     1.992581     1.986763     1.980944     1.975126     1.969307
      1.963489     1.957670     1.951852     1.946033     1.940215     1.934397     1.928578     1.922760     1.916941     1.911123
      1.905304     1.899486     1.893667     1.887849     1.882030     1.876212     1.870393     1.864575     1.858756     1.852938
      1.847119     1.841301     1.835482     1.829664     1.823845     1.818027     1.812208     1.806390     1.800571     1.794753
      1.788934     1.783116     1.777297     1.771479     1.765660     1.759842     1.754023     1.748205     1.742386     1.736568
      1.730749     1.724931     1.719113     1.713294     1.707476     1.701657     1.695839     1.690020     1.684202     1.678383
      1.672565     1.666746     1.660928     1.655109     1.649291     1.643472     1.637654     1.631835     1.626017     1.620198
      1.614380     1.608561     1.602743     1.596924     1.591106     1.585287     1.579469     1.573650     1.567832     1.562013
      1.556195     1.550376     1.544558     1.538739     1.532921     1.527102     1.521284     1.515465     1.509647     1.503829
      1.498010     1.492192     1.486373     1.480555     1.474736     1.468918     1.463099     1.457281     1.451462     1.445644
      1.439825     1.434007     1.428188     1.422370     1.416551     1.410733     1.404914     1.399096     1.393277     1.387459
      1.381640     1.375822     1.370003     1.364185     1.358366     1.352548     1.346729     1.340911     1.335092     1.329274
      1.323455     1.317637     1.311818     1.306000     1.300182     1.294363     1.288545     1.282726     1.276908     1.271089
      1.265271     1.259452     1.253634     1.247815     1.241997     1.236178     1.230360     1.224541     1.218723     1.212904
      1.207086     1.201267     1.195449     1.189630     1.183812     1.177993     1.172175     1.166356     1.160538     1.154719
      1.148901     1.143082     1.137264     1.131445     1.125627     1.119808     1.113990     1.108171     1.102353     1.096534
      1.090716     1.084898     1.079079     1.073261     1.067442     1.061624     1.055805     1.049987     1.044168     1.038350
      1.032531     1.026713     1.020894     1.015076     1.009257     1.003439     0.997620     0.991802     0.985983     0.980165
      0.974346     0.968528     0.962709     0.956891     0.951072     0.945254     0.939435     0.933617     0.927798     0.921980
      0.916161     0.910343     0.904524     0.898706     0.892887     0.887069     0.881251     0.875432     0.869614     0.863795
      0.857977     0.852158     0.846340     0.840521     0.834703     0.828884     0.823066     0.817247     0.811429     0.805610
      0.799792     0.793973     0.788155     0.782336     0.776518     0.770699     0.764881     0.759062     0.753244     0.747425
      0.741607     0.735788     0.729970     0.724151     0.718333     0.712514     0.706696     0.700877     0.695059     0.689240
      0.683422     0.677603     0.671785     0.665967     0.660148     0.654330     0.648511     0.642693     0.636874     0.631056
      0.625237     0.619419     0.613600     0.607782     0.601963     0.596145     0.590326     0.584508     0.578689     0.572871
      0.567052     0.561234     0.555415     0.549597     0.543778     0.537960     0.532141     0.526323     0.520504     0.514686
      0.508867     0.503049     0.497230     0.491412     0.485593     0.479775     0.473956     0.468138     0.462319     0.456501
      0.450682     0.444864     0.439045     0.433227     0.427408     0.421590     0.415771     0.409953     0.404134     0.398316
      0.392497     0.386679     0.380860     0.375042     0.369223     0.363405     0.357586     0.351767     0.345949     0.340130
      0.334312     0.328493     0.322675     0.316856     0.311038     0.305219     0.299401     0.293582     0.287764     0.281945
      0.276127     0.270308     0.264490     0.258671     0.252853     0.247034     0.241216     0.235397     0.229579     0.223760
      0.217942     0.212123     0.206305     0.200486
 NY phased data points follow
  -1.14208E-01 -2.59878E-02 -6.01167E-02 -1.75683E-03 -2.62903E-01  8.95780E-02 -3.00115E-01 -2.08926E-01  1.85847E-01 -1.52550E-02
   1.73480E-01  2.64614E-01  1.97359E-01  3.77204E-01  3.28954E-01  1.97441E-01  1.31075E-01  2.23670E-01  5.33944E-01  1.03936E-01
   2.51571E-01  7.85899E-02  4.38304E-02 -4.71343E-02 -4.57862E-01  9.87536E-02 -5.82001E-03 -1.66363E-01 -6.86942E-02 -4.40592E-03
  -8.54572E-02  6.57450E-02 -2.08315E-01 -2.12354E-01 -2.41262E-02 -5.00175E-01 -4.48617E-01 -5.36928E-01 -4.48603E-01 -2.60861E-01
  -2.06056E-01  1.16952E-01  4.35686E-01  2.63357E-01  3.38315E-01  2.87969E-01  7.34778E-03  3.25601E-01  6.40270E-01  4.63511E-01
  -1.92678E-01 -1.45181E-02 -4.36916E-03 -1.69883E-01  1.40189E-01  7.72846E-02 -6.21730E-02 -2.16133E-01 -1.87908E-01 -1.17667E-01
   6.03808E-02  6.60483E-03 -3.14633E-01 -2.83089E-01 -3.48884E-01 -2.65033E-01  1.49754E-01  1.79412E-01  3.04374E-01  6.91172E-02
  -1.34244E-01  2.50450E-01  2.79143E-01  1.42975E-01 -3.78858E-02  2.59654E-01 -8.97324E-03 -3.87327E-01 -1.87407E-01 -1.27266E-01
  -3.21380E-02 -1.31351E-01  7.23259E-02  9.46273E-02  4.30887E-01  3.76644E-01  2.27751E-01  1.61399E-01 -1.92406E-01  3.30399E-01
   1.12181E-02 -5.49812E-02  6.27416E-02 -6.70806E-02  1.02574E-01  7.56364E-02 -2.16478E-02 -4.80053E-01 -2.53421E-01 -4.92771E-01
  -5.28824E-01 -1.00650E-01 -1.65909E-01  1.62694E-01  2.20159E-01  4.34772E-01  4.97075E-01  3.57864E-01  5.05366E-01  5.41968E-01
   1.23114E-01 -1.31414E-01  3.21823E-01  2.61010E-01  1.89643E-01  3.72898E-02  3.56972E-03  4.60433E-01  4.65131E-01  1.20320E-01
   1.99950E-01  4.63083E-01 -1.19801E-01 -2.89416E-02 -6.12587E-02 -2.71911E-01  4.95526E-02 -3.28341E-01 -4.96757E-01 -3.34472E-01
  -4.14555E-01 -8.34453E-01 -4.16448E-01 -2.40457E-01 -6.78689E-01 -4.27928E-01 -4.28529E-01 -4.52346E-01 -1.70644E-01 -5.35639E-02
  -1.18867E-01 -1.98770E-01  4.52104E-03 -1.96912E-02 -7.56649E-02 -1.05823E-02 -1.20296E-01  2.60808E-01 -1.07280E-01  8.49581E-02
   3.27676E-01 -1.07916E-01  5.87105E-02  1.84671E-01  2.63344E-01 -6.02681E-03  1.65125E-01  8.46163E-02  5.20633E-01  3.18742E-01
   2.09732E-01  6.62286E-01  5.36212E-01  6.23470E-01  5.59374E-01  9.53125E-01  6.86188E-02 -3.71549E-03 -4.61212E-01 -1.01715E+00
  -4.63213E-01 -5.54269E-01 -4.09496E-01 -5.65445E-01 -3.94213E-01 -3.13665E-01 -2.25533E-01 -5.05662E-01 -2.43084E-01 -3.16409E-01
  -5.16828E-01 -2.04274E-01 -3.12803E-01 -2.43464E-02 -5.48778E-02 -2.44584E-01 -4.41699E-01 -3.49148E-01 -4.91363E-01  1.30443E-01
   8.55828E-02 -4.89307E-01  1.70624E-01 -1.95776E-01 -2.06814E-01  2.07481E-01 -1.67013E-01  2.47703E-02  8.25401E-02 -7.29966E-02
   2.86167E-02 -1.14377E-01 -5.99071E-02 -3.90787E-01 -4.32337E-01 -2.93895E-03  2.41835E-01  2.64453E-02  1.58837E-02  2.31036E-01
   8.40176E-02  4.82201E-02 -1.56025E-01 -5.86326E-02 -2.04157E-01 -1.05545E-01 -2.92402E-02 -1.37829E-01 -9.97761E-02 -6.76132E-02
  -7.85620E-02 -7.98106E-02  1.63880E-01  1.22531E-02  1.95431E-01  2.46986E-01  1.32162E-01 -9.64094E-02  8.07089E-04  3.48481E-01
   3.85949E-01  1.67972E-01  2.62677E-01  5.28678E-01 -1.29633E-01  4.33388E-02  2.47120E-01 -3.19708E-02 -1.35943E-01 -3.67095E-02
   7.20539E-02 -2.24763E-01 -1.50545E-02 -5.72832E-02 -1.96882E-01 -1.43937E-01 -1.04196E-01  2.14741E-01 -3.55615E-02 -1.83606E-01
   3.34804E-02 -8.16607E-02  9.33987E-02  1.46379E-01  1.45462E-02 -3.63776E-02 -2.18810E-02  1.60700E-02 -1.42383E-01 -6.24948E-02
  -2.26821E-02 -1.14675E-01 -1.85862E-02  4.08107E-01  4.88063E-01 -2.74333E-01  4.80846E-02  3.47787E-01  1.35860E-01  4.04532E-01
  -1.46457E-01  3.21216E-01  1.93867E-01 -1.95740E-01  1.08343E-01 -7.74931E-02  3.37168E-01 -4.53625E-01 -3.63948E-01  1.27912E-02
  -2.46184E-01  2.10703E-02 -3.90566E-01 -9.09462E-02  3.28423E-01  1.21960E-01  4.59170E-01  7.13540E-01  6.36276E-01  4.84762E-01
  -2.06486E-02  5.29504E-01  5.41009E-01  1.23637E-01  2.36055E-01 -1.15979E-01  3.22118E-02  1.01689E-01  1.34284E-01  1.86515E-01
   3.91326E-01  6.37790E-02 -1.62050E-02  5.97122E-01  2.59282E-01  3.24074E-02  2.89330E-01  1.93475E-01  2.22843E-01  4.13705E-01
  -4.48831E-02  2.67368E-01  1.45568E-01  1.90529E-01  5.54560E-01 -1.15124E-01  3.57749E-01 -1.21408E-01 -1.96733E-01  2.30856E-02
  -3.86146E-01 -1.99014E-01 -7.33977E-01 -4.33754E-01 -3.19459E-01 -3.05908E-01  9.06436E-02  7.87316E-02  2.66661E-02 -8.99716E-02
  -3.79768E-02  1.85032E-01 -4.73409E-03 -1.99441E-01 -4.01075E-02 -2.77441E-01 -6.17405E-02 -3.74761E-01 -1.82054E-01  1.76106E-01
  -6.13924E-01 -1.21234E+00 -1.72998E+00 -1.64647E+00 -1.17240E+00 -7.96364E-01 -6.00781E-01  9.59712E-02  9.49279E-02  1.58655E-01
   4.35258E-01  1.75493E-01  2.56232E-01 -1.66912E-01 -5.98755E-02 -9.89037E-02 -1.73836E-03  1.67520E-01 -1.16672E-01  1.74017E-01
   5.26377E-01  4.02359E-01  3.41478E-02  1.56296E-01  2.48912E-01  4.14296E-01  1.75849E-01  8.64485E-03  3.64294E-01 -5.14422E-02
  -1.98097E-01  6.60896E-02  1.41196E-01  2.32227E-01  2.79438E-02 -9.59099E-02  1.51604E-01  3.36144E-01  1.41951E-01 -1.00876E-01
   5.42830E-04  1.18194E-01  2.56425E-01  5.70384E-01  1.96013E-01 -1.82699E-01 -1.20977E-01 -5.76114E-02  6.80041E-02 -2.54432E-03
   2.43900E-01  1.99576E-01  4.51872E-01  3.79925E-01  1.13142E-01  3.34435E-01 -2.35821E-01  3.98522E-02  1.72067E-01 -1.60401E-01
   2.54490E-01  1.57525E-01 -7.45964E-02 -4.72336E-02 -4.19634E-01  1.08232E-02  7.62014E-02 -4.26064E-01 -5.57809E-02 -3.81507E-01
  -5.58161E-01 -8.75234E-02 -1.66297E-02 -4.77288E-01 -1.78768E-02  2.09094E-01 -1.94819E-01 -6.54784E-02 -6.05045E-03  2.03580E-01
  -9.54024E-02 -1.38256E-01 -2.51571E-01 -1.08905E-01 -9.29105E-02 -5.59203E-01 -3.40336E-01 -3.34396E-01 -5.26969E-02  1.65604E-01
  -2.65042E-02 -3.56944E-02  9.29185E-02  3.53377E-01  1.35836E-01  7.35711E-02  1.57779E-01 -2.08254E-01  1.64885E-01  2.64553E-01
  -2.26930E-01 -2.98542E-01  1.31355E-01  2.77199E-01  1.12764E-01  1.71119E-01  1.93052E-01  1.16808E-01 -6.11831E-02  6.35564E-01
   6.28804E-01  4.26903E-01  2.96490E-01  5.14275E-02  3.16231E-01  5.87161E-02  9.59446E-02 -1.43399E-01  1.43666E-01  1.19263E-01
  -3.64758E-01 -1.53964E-01 -5.25261E-02  1.43800E-01  1.83440E-01  1.69189E-02 -3.40904E-01 -5.52826E-02  1.62679E-01 -1.62422E-02
  -3.60803E-02 -1.15478E-01 -1.05277E-01 -3.66075E-01 -1.87705E-01 -7.18629E-02 -3.15553E-01 -2.55631E-01 -4.70881E-01 -4.20335E-01
  -1.31788E-01 -2.24251E-01 -9.26481E-02  6.93289E-02 -2.65422E-01 -7.15802E-02  1.96842E-01  9.07741E-03  1.71486E-02  5.74080E-03
  -1.67729E-02 -6.25306E-03  1.09226E-01 -2.53233E-01 -3.09316E-02  1.47602E-01 -1.31274E-02  2.51439E-01  1.31372E-01  4.70423E-01
   1.81538E-01  2.03064E-01  3.69901E-01  7.99882E-02  3.52563E-01 -8.90919E-02  5.01379E-02  3.84032E-01  1.59538E-01  2.82037E-01
   1.23286E-01  3.27343E-01  3.85491E-01 -4.16987E-02  5.48556E-02  3.30153E-01  3.12065E-01  1.52110E-02 -1.27531E-02 -2.05953E-01
  -1.07976E-01 -1.95858E-01 -2.38175E-01 -5.57671E-02 -3.97631E-01 -4.42401E-01 -6.62824E-01 -2.79467E-01 -3.39146E-01 -5.76507E-01
  -4.11326E-01 -6.43754E-01 -5.82109E-01 -3.37412E-01 -3.23970E-01 -4.03391E-01 -8.02465E-02 -1.60844E-01 -6.63356E-03  4.32178E-02
  -1.74557E-01 -1.90441E-01  1.57443E-01  1.30105E-02 -3.65615E-01 -1.12634E-01 -1.58550E-01  3.37787E-01  5.48407E-03  2.07635E-02
   3.28670E-02 -2.19982E-01  2.74774E-01 -3.00381E-01  2.73079E-01  3.91514E-01 -4.67917E-02  2.85882E-01  3.88140E-02  6.90792E-02
  -1.22729E-01  1.58271E-01  2.86359E-01 -1.27785E-01 -2.10057E-01 -1.22218E-02  2.92907E-01  9.94821E-02 -2.48389E-02 -3.29685E-02
  -8.08736E-02 -1.63252E-01  2.05126E-01  1.19457E-01 -5.99015E-02  4.27522E-02  2.05576E-01  1.60647E-01 -8.49874E-02  3.92039E-01
   1.53728E-01  2.29681E-01 -3.20038E-01 -1.32751E-01  1.99327E-01 -2.44745E-01  2.28695E-01 -1.70625E-01  7.95745E-02 -6.22410E-02
   1.52218E-01  6.14465E-02 -3.89543E-01  2.33823E-01  3.12961E-01 -1.26188E-01  1.05431E-02  3.92813E-01  6.68117E-02  3.55965E-01
  -1.86295E-01  1.08250E-01  1.78835E-01 -9.11756E-02  1.93012E-01 -1.56342E-01  2.80586E-01 -2.28308E-04  1.38132E-01  9.03713E-02
   9.35422E-03 -7.35723E-02 -1.87424E-01 -1.14551E-01 -1.32310E-01  3.08856E-01  1.68433E-02  1.41866E-01  7.86238E-02 -5.06175E-03
   1.06515E-01  2.28523E-01  4.84092E-02  1.65379E-01  1.07596E-01 -4.00169E-01  3.62810E-01  1.99965E-01  1.03260E-01 -5.00897E-02
  -1.66210E-01  2.06504E-01  5.42062E-02  2.05711E-01  1.17492E-01  3.44552E-02 -1.37475E-01 -7.38388E-02 -4.04020E-02  6.76726E-02
   7.21234E-02  6.05265E-02  3.39449E-02 -1.56933E-01 -1.16246E-01 -6.66739E-02  3.69786E-01 -7.21507E-02  9.54218E-03  1.40839E-01
  -2.68045E-01 -7.28540E-02 -1.58339E-01 -1.05744E-01
 NY points of the fit to the data follow
   1.64965E-01  1.32862E-01  9.55598E-02  6.85507E-02  5.70569E-02  5.72864E-02  5.77792E-02  5.35209E-02  7.51331E-02  1.76099E-01
   2.94127E-01  3.57743E-01  3.36318E-01  3.48700E-01  3.96961E-01  4.17550E-01  3.68859E-01  2.98066E-01  2.38452E-01  1.34843E-01
   4.14702E-02 -6.02357E-03 -1.18433E-02 -3.36142E-02 -5.65783E-02 -7.70116E-02 -9.29291E-02 -1.06782E-01 -1.18041E-01 -1.27221E-01
  -1.34307E-01 -1.44637E-01 -1.59771E-01 -1.80202E-01 -2.06041E-01 -2.36598E-01 -2.68196E-01 -2.85309E-01 -2.47542E-01 -1.64831E-01
  -3.45523E-02  9.15743E-02  2.13136E-01  3.02197E-01  3.53259E-01  3.57103E-01  3.36027E-01  3.10712E-01  2.66716E-01  2.27018E-01
   1.74960E-01  1.35932E-01  9.53818E-02  5.32350E-02  7.20054E-04 -4.27727E-02 -6.93606E-02 -7.29123E-02 -7.20559E-02 -9.78595E-02
  -1.18781E-01 -1.49352E-01 -2.10479E-01 -2.17936E-01 -1.64791E-01 -4.93266E-02  6.98948E-02  1.63690E-01  2.67650E-01  3.12946E-01
   2.76017E-01  2.22785E-01  1.82841E-01  1.15340E-01  5.15375E-02  3.96774E-03 -8.62775E-02 -2.15507E-01 -2.99639E-01 -3.09321E-01
  -2.46662E-01 -1.32930E-01  1.69430E-02  1.86791E-01  2.91398E-01  3.12395E-01  2.99551E-01  2.70755E-01  2.17141E-01  1.69755E-01
   1.47288E-01  1.28502E-01  1.06860E-01  8.40526E-02  4.66327E-02 -3.02700E-02 -1.34568E-01 -3.03707E-01 -4.28577E-01 -5.04183E-01
  -4.44449E-01 -2.80653E-01 -8.04024E-02  1.16230E-01  2.27740E-01  2.76845E-01  2.59441E-01  2.40890E-01  2.08693E-01  2.01599E-01
   1.97499E-01  1.93077E-01  1.87847E-01  1.82295E-01  1.76988E-01  1.72884E-01  1.69047E-01  1.67223E-01  1.63906E-01  1.41297E-01
   1.08669E-01  7.41429E-02  1.19539E-02 -4.57550E-02 -8.39551E-02 -1.01524E-01 -1.37618E-01 -2.51205E-01 -4.01125E-01 -5.36722E-01
  -6.19163E-01 -5.90816E-01 -4.91200E-01 -4.56571E-01 -4.90175E-01 -5.24334E-01 -4.86520E-01 -4.00962E-01 -2.95463E-01 -1.62086E-01
  -4.89595E-02 -1.39327E-03  4.43582E-03  2.46990E-02  4.51966E-02  6.42841E-02  8.11723E-02  9.59737E-02  1.09085E-01  1.20384E-01
   1.30968E-01  1.40753E-01  1.50766E-01  1.61664E-01  1.74417E-01  1.89080E-01  2.04881E-01  2.21051E-01  2.37821E-01  2.58118E-01
   2.84770E-01  3.20938E-01  4.04294E-01  5.64370E-01  6.45114E-01  5.73566E-01  2.48871E-01 -1.58740E-01 -5.07897E-01 -7.20540E-01
  -7.34612E-01 -6.26358E-01 -4.64308E-01 -3.61197E-01 -2.96271E-01 -2.85841E-01 -2.71342E-01 -2.60256E-01 -2.51426E-01 -2.39856E-01
  -2.29122E-01 -2.16044E-01 -2.05043E-01 -1.94465E-01 -1.87139E-01 -1.80943E-01 -1.73466E-01 -1.65079E-01 -1.56486E-01 -1.48730E-01
  -1.39304E-01 -1.30916E-01 -1.21903E-01 -1.12691E-01 -1.03169E-01 -9.46569E-02 -8.63029E-02 -7.84404E-02 -7.09041E-02 -6.05669E-02
  -4.86217E-02 -3.94501E-02 -3.75372E-02 -4.08420E-02 -4.04722E-02 -3.50039E-02 -2.96646E-02 -2.97803E-02 -3.55691E-02 -4.29808E-02
  -4.93529E-02 -5.29850E-02 -5.09446E-02 -4.43742E-02 -3.81822E-02 -3.52744E-02 -3.47408E-02 -3.48241E-02 -3.49595E-02 -3.43983E-02
  -3.62284E-02 -3.67849E-02 -6.42912E-03  6.42274E-02  1.51541E-01  1.98270E-01  1.88554E-01  1.93474E-01  2.47071E-01  3.08427E-01
   3.24458E-01  2.78832E-01  1.99943E-01  1.01349E-01 -6.35895E-04 -6.15756E-02 -6.99945E-02 -6.46739E-02 -7.03667E-02 -7.79931E-02
  -8.63149E-02 -9.30194E-02 -9.76562E-02 -1.01515E-01 -1.05252E-01 -1.08535E-01 -1.12381E-01 -1.13299E-01 -1.13996E-01 -1.14583E-01
  -1.19541E-01 -1.32267E-01 -1.56591E-01 -1.92249E-01 -1.87411E-01 -1.54805E-01 -1.15720E-01 -7.22170E-02 -3.06317E-02  3.92328E-02
   7.05578E-02  6.97387E-02  7.83113E-02  8.74666E-02  9.26006E-02  8.29365E-02  9.74559E-02  1.13208E-01  1.23841E-01  1.22924E-01
   1.09984E-01  9.07959E-02  5.41007E-02  1.73542E-02 -2.20253E-02 -5.70338E-02 -9.17778E-02 -1.34578E-01 -1.99366E-01 -2.71037E-01
  -3.38168E-01 -3.62787E-01 -3.10094E-01 -1.91928E-01 -1.18527E-02  1.71167E-01  3.14335E-01  3.91738E-01  3.95482E-01  3.54729E-01
   3.01171E-01  2.51203E-01  2.10652E-01  1.90871E-01  1.80488E-01  1.72016E-01  1.66997E-01  1.63491E-01  1.62165E-01  1.61516E-01
   1.60721E-01  1.60536E-01  1.60196E-01  1.59596E-01  1.57729E-01  1.54945E-01  1.51184E-01  1.45487E-01  1.36103E-01  1.23438E-01
   1.07727E-01  8.84325E-02  6.72061E-02  4.21777E-02  6.09434E-03 -3.94225E-02 -9.91809E-02 -1.59346E-01 -2.28502E-01 -2.86760E-01
  -3.36528E-01 -3.64001E-01 -3.65470E-01 -3.36897E-01 -2.67916E-01 -1.78347E-01 -7.97195E-02 -5.95437E-03  4.04652E-02  4.12170E-02
   1.01547E-02 -3.74399E-02 -9.28580E-02 -1.28578E-01 -1.58692E-01 -1.61238E-01 -1.46467E-01 -9.01856E-02  9.95485E-03 -4.89377E-02
  -5.26801E-01 -1.16947E+00 -1.62289E+00 -1.60857E+00 -1.28873E+00 -8.86039E-01 -4.11717E-01 -7.20340E-02  1.10564E-02 -5.55691E-02
  -4.82812E-02 -3.46587E-02 -2.30529E-02 -1.46364E-02 -7.40405E-03 -2.06570E-03  1.54793E-03  4.04599E-03  6.28779E-03  8.96319E-03
   1.10827E-02  1.33713E-02  1.50435E-02  1.70561E-02  1.97393E-02  2.28364E-02  2.59791E-02  2.94625E-02  3.30546E-02  3.68521E-02
   4.20024E-02  4.77906E-02  5.35413E-02  5.81147E-02  6.16123E-02  6.54329E-02  6.93010E-02  7.33202E-02  7.69856E-02  8.03911E-02
   8.32079E-02  8.65038E-02  9.03004E-02  9.39444E-02  9.69963E-02  9.83903E-02  9.97064E-02  1.01175E-01  1.04536E-01  1.08871E-01
   1.14082E-01  1.18284E-01  1.19764E-01  1.18636E-01  1.15774E-01  1.12541E-01  1.09190E-01  1.05813E-01  1.01454E-01  9.61164E-02
   8.96836E-02  8.16106E-02  7.23634E-02  6.29431E-02  5.46560E-02  4.70684E-02  3.94414E-02  3.22192E-02  2.51682E-02  1.88528E-02
   1.27682E-02  7.82258E-03  3.75132E-03 -8.30253E-05 -3.93070E-03 -7.70700E-03 -1.14946E-02 -1.46338E-02 -1.69676E-02 -1.94391E-02
  -2.14486E-02 -2.25044E-02 -2.24198E-02 -2.12266E-02 -1.90022E-02 -1.52921E-02 -9.95731E-03 -3.04133E-03  4.81078E-03  1.10750E-02
   1.75425E-02  3.47196E-02  5.87756E-02  9.02558E-02  1.12458E-01  1.20718E-01  1.13958E-01  9.48190E-02  7.93970E-02  7.31582E-02
   7.88226E-02  9.06313E-02  1.08526E-01  1.24625E-01  1.39596E-01  1.54491E-01  1.68836E-01  1.80925E-01  1.90044E-01  1.95880E-01
   1.98837E-01  1.99642E-01  1.99591E-01  1.98630E-01  1.96279E-01  1.90884E-01  1.81676E-01  1.69587E-01  1.56410E-01  1.43387E-01
   1.30915E-01  1.18879E-01  1.06643E-01  9.49414E-02  8.36775E-02  7.37297E-02  6.43813E-02  5.59675E-02  4.87254E-02  4.23385E-02
   3.60857E-02  3.00738E-02  2.55402E-02  2.29764E-02  2.24253E-02  2.36327E-02  2.62424E-02  3.00208E-02  3.46479E-02  3.96830E-02
   4.60392E-02  5.34045E-02  6.06270E-02  6.67675E-02  7.16392E-02  7.47582E-02  7.66471E-02  7.92824E-02  8.28776E-02  8.65826E-02
   8.90561E-02  8.98405E-02  8.97027E-02  8.76946E-02  8.43595E-02  8.01916E-02  7.59214E-02  7.21898E-02  6.83653E-02  6.45530E-02
   6.06334E-02  5.69652E-02  5.28985E-02  4.83450E-02  4.32133E-02  3.79186E-02  3.33588E-02  2.97962E-02  2.67426E-02  2.36260E-02
   2.06470E-02  1.70162E-02  1.15457E-02  4.14193E-03 -4.19800E-03 -1.25570E-02 -2.12413E-02 -3.10269E-02 -4.29039E-02 -5.84735E-02
  -7.69876E-02 -9.76323E-02 -1.18988E-01 -1.40496E-01 -1.61119E-01 -1.79946E-01 -1.97357E-01 -2.14137E-01 -2.29588E-01 -2.41043E-01
  -2.48361E-01 -2.52432E-01 -2.53907E-01 -2.51965E-01 -2.46649E-01 -2.39107E-01 -2.30663E-01 -2.21599E-01 -2.13128E-01 -2.05536E-01
  -1.97819E-01 -1.89180E-01 -1.79181E-01 -1.67941E-01 -1.55142E-01 -1.41756E-01 -1.28475E-01 -1.15273E-01 -1.02857E-01 -9.08992E-02
  -7.90757E-02 -6.70766E-02 -5.61600E-02 -4.71532E-02 -3.83421E-02 -2.88252E-02 -2.03111E-02 -1.34522E-02 -7.17826E-03 -1.43734E-03
   4.03928E-03  8.30091E-03  1.19513E-02  1.56492E-02  1.86358E-02  2.10197E-02  2.26637E-02  2.35368E-02  2.43337E-02  2.57351E-02
   2.77162E-02  3.02110E-02  3.37432E-02  3.72291E-02  3.93601E-02  4.04501E-02  4.09024E-02  4.09543E-02  4.06561E-02  4.04356E-02
   4.03782E-02  4.00039E-02  3.95521E-02  3.94596E-02  3.92659E-02  3.95273E-02  4.15071E-02  4.34899E-02  4.29401E-02  4.03021E-02
   3.75695E-02  3.61051E-02  3.53497E-02  3.47622E-02  3.57947E-02  3.71778E-02  3.67410E-02  3.44270E-02  3.26569E-02  3.26173E-02
   3.31599E-02  3.40123E-02  3.50604E-02  3.65334E-02  3.77894E-02  3.88026E-02  3.97311E-02  4.09803E-02  4.24491E-02  4.38087E-02
   4.35884E-02  4.22534E-02  4.06423E-02  3.95889E-02  3.93384E-02  3.99611E-02  4.19440E-02  4.37558E-02  4.43620E-02  4.42549E-02
   4.50989E-02  4.72651E-02  5.05248E-02  5.30073E-02  5.37653E-02  5.25494E-02  5.04525E-02  4.94824E-02  4.97732E-02  5.04242E-02
   5.05797E-02  5.00023E-02  4.91843E-02  4.88186E-02  4.85858E-02  4.79749E-02  4.74716E-02  4.77467E-02  4.87301E-02  4.95053E-02
   4.96853E-02  5.01348E-02  5.07846E-02  5.02413E-02  4.95570E-02  5.01411E-02  5.24134E-02  5.58517E-02  5.94333E-02  6.24675E-02
   6.46319E-02  6.53167E-02  6.55957E-02  6.65686E-02
 NY background values follow
     5.954E-02    5.940E-02    5.926E-02    5.912E-02    5.898E-02    5.884E-02    5.870E-02    5.856E-02    5.842E-02    5.829E-02
     5.815E-02    5.801E-02    5.787E-02    5.773E-02    5.759E-02    5.745E-02    5.731E-02    5.717E-02    5.703E-02    5.689E-02
     5.675E-02    5.662E-02    5.648E-02    5.634E-02    5.620E-02    5.606E-02    5.592E-02    5.578E-02    5.564E-02    5.550E-02
     5.536E-02    5.522E-02    5.508E-02    5.494E-02    5.480E-02    5.466E-02    5.452E-02    5.439E-02    5.425E-02    5.411E-02
     5.397E-02    5.383E-02    5.369E-02    5.355E-02    5.341E-02    5.327E-02    5.313E-02    5.299E-02    5.285E-02    5.271E-02
     5.257E-02    5.243E-02    5.229E-02    5.215E-02    5.201E-02    5.187E-02    5.173E-02    5.159E-02    5.145E-02    5.131E-02
     5.117E-02    5.103E-02    5.089E-02    5.075E-02    5.061E-02    5.047E-02    5.033E-02    5.019E-02    5.005E-02    4.991E-02
