 LCModel (Version 6.3-1N) Copyright: S.W. Provencher.          Ref.: Magn. Reson. Med. 30:672-679 (1993).                
 Slice_N1@23_10  02-Jun-2023 14:37:36
 27 lines in following concentration table = NCONC+1
    Conc.  %SD /Cr+PCr  Metabolite                                         
 3.68E-06  10% 4.0E-04 Mac                                                 
 4.17E-02  52%   4.545 Cr                                                  
 3.17E-02  69%   3.455 PCr                                                 
 5.49E-02  18%   5.986 Ins                                                 
    0.135   6%  14.714 NAA                                                 
 6.27E-02  15%   6.834 Tau                                                 
 1.46E-02  18%   1.592 PCho                                                
    0.000 999%   0.000 GPC                                                 
 9.16E-02  12%   9.988 Glu                                                 
 7.96E-03  83%   0.868 Gln                                                 
 8.96E-03  91%   0.977 Ala                                                 
 7.23E-03 200%   0.788 Asc                                                 
 1.41E-02  59%   1.538 Asp                                                 
 1.26E-02  36%   1.372 GABA                                                
 7.90E-03  68%   0.862 Glc                                                 
 3.18E-03  86%   0.347 GSH                                                 
    0.000 999%   0.000 Lac                                                 
    0.000 999%   0.000 NAAG                                                
    0.000 999%   0.000 PE                                                  
 1.46E-02  18%   1.592 GPC+PCho                                            
    0.135   6%  14.714 NAA+NAAG                                            
    0.100  13%  10.856 Glu+Gln                                             
 7.34E-02  10%   8.000 Cr+PCr                                              
    0.135   6%  14.714 NAA+NAAG                                            
 7.34E-02  10%   8.000 Cr+PCr                                              
    0.100  13%  10.856 Glu+Gln                                             
   6 lines in following misc. output table
  FWHM = 0.052 ppm    S/N =   4                                            
  Data shift = 0.076 ppm                                                   
  Ph: -46 deg     -12.1 deg/ppm                                            
  alphaB,S = 7.3E-01,   3.9E+01                                            
   18 spline knots.   Ns = 8(1)                                            
  (11) 4 infls.   ( 2) 2 extrs.                                            
  654 points on ppm-axis = NY
      4.000000     3.994181     3.988363     3.982544     3.976726     3.970907     3.965088     3.959270     3.953451     3.947633
      3.941814     3.935995     3.930177     3.924358     3.918540     3.912721     3.906902     3.901084     3.895265     3.889446
      3.883628     3.877809     3.871991     3.866172     3.860353     3.854535     3.848716     3.842898     3.837079     3.831260
      3.825442     3.819623     3.813805     3.807986     3.802167     3.796349     3.790530     3.784712     3.778893     3.773074
      3.767256     3.761437     3.755619     3.749800     3.743981     3.738163     3.732344     3.726526     3.720707     3.714888
      3.709070     3.703251     3.697433     3.691614     3.685795     3.679977     3.674158     3.668339     3.662521     3.656702
      3.650884     3.645065     3.639246     3.633428     3.627609     3.621791     3.615972     3.610153     3.604335     3.598516
      3.592698     3.586879     3.581060     3.575242     3.569423     3.563605     3.557786     3.551967     3.546149     3.540330
      3.534512     3.528693     3.522874     3.517056     3.511237     3.505419     3.499600     3.493781     3.487963     3.482144
      3.476326     3.470507     3.464688     3.458870     3.453051     3.447232     3.441414     3.435595     3.429777     3.423958
      3.418139     3.412321     3.406502     3.400684     3.394865     3.389046     3.383228     3.377409     3.371591     3.365772
      3.359953     3.354135     3.348316     3.342498     3.336679     3.330860     3.325042     3.319223     3.313405     3.307586
      3.301767     3.295949     3.290130     3.284312     3.278493     3.272674     3.266856     3.261037     3.255219     3.249400
      3.243581     3.237763     3.231944     3.226125     3.220307     3.214488     3.208670     3.202851     3.197032     3.191214
      3.185395     3.179577     3.173758     3.167939     3.162121     3.156302     3.150484     3.144665     3.138846     3.133028
      3.127209     3.121391     3.115572     3.109753     3.103935     3.098116     3.092298     3.086479     3.080660     3.074842
      3.069023     3.063205     3.057386     3.051567     3.045749     3.039930     3.034111     3.028293     3.022474     3.016656
      3.010837     3.005018     2.999200     2.993381     2.987563     2.981744     2.975925     2.970107     2.964288     2.958470
      2.952651     2.946832     2.941014     2.935195     2.929377     2.923558     2.917739     2.911921     2.906102     2.900284
      2.894465     2.888646     2.882828     2.877009     2.871191     2.865372     2.859553     2.853735     2.847916     2.842098
      2.836279     2.830460     2.824642     2.818823     2.813004     2.807186     2.801367     2.795549     2.789730     2.783911
      2.778093     2.772274     2.766456     2.760637     2.754818     2.749000     2.743181     2.737363     2.731544     2.725725
      2.719907     2.714088     2.708270     2.702451     2.696632     2.690814     2.684995     2.679177     2.673358     2.667539
      2.661721     2.655902     2.650084     2.644265     2.638446     2.632628     2.626809     2.620991     2.615172     2.609353
      2.603535     2.597716     2.591897     2.586079     2.580260     2.574442     2.568623     2.562804     2.556986     2.551167
      2.545349     2.539530     2.533711     2.527893     2.522074     2.516256     2.510437     2.504618     2.498800     2.492981
      2.487163     2.481344     2.475525     2.469707     2.463888     2.458070     2.452251     2.446432     2.440614     2.434795
      2.428977     2.423158     2.417339     2.411521     2.405702     2.399884     2.394065     2.388246     2.382428     2.376609
      2.370790     2.364972     2.359153     2.353335     2.347516     2.341697     2.335879     2.330060     2.324242     2.318423
      2.312604     2.306786     2.300967     2.295149     2.289330     2.283511     2.277693     2.271874     2.266056     2.260237
      2.254418     2.248600     2.242781     2.236963     2.231144     2.225325     2.219507     2.213688     2.207870     2.202051
      2.196232     2.190414     2.184595     2.178777     2.172958     2.167139     2.161321     2.155502     2.149683     2.143865
      2.138046     2.132228     2.126409     2.120590     2.114772     2.108953     2.103135     2.097316     2.091497     2.085679
      2.079860     2.074042     2.068223     2.062404     2.056586     2.050767     2.044949     2.039130     2.033311     2.027493
      2.021674     2.015856     2.010037     2.004218     1.998400     1.992581     1.986763     1.980944     1.975126     1.969307
      1.963489     1.957670     1.951852     1.946033     1.940215     1.934397     1.928578     1.922760     1.916941     1.911123
      1.905304     1.899486     1.893667     1.887849     1.882030     1.876212     1.870393     1.864575     1.858756     1.852938
      1.847119     1.841301     1.835482     1.829664     1.823845     1.818027     1.812208     1.806390     1.800571     1.794753
      1.788934     1.783116     1.777297     1.771479     1.765660     1.759842     1.754023     1.748205     1.742386     1.736568
      1.730749     1.724931     1.719113     1.713294     1.707476     1.701657     1.695839     1.690020     1.684202     1.678383
      1.672565     1.666746     1.660928     1.655109     1.649291     1.643472     1.637654     1.631835     1.626017     1.620198
      1.614380     1.608561     1.602743     1.596924     1.591106     1.585287     1.579469     1.573650     1.567832     1.562013
      1.556195     1.550376     1.544558     1.538739     1.532921     1.527102     1.521284     1.515465     1.509647     1.503829
      1.498010     1.492192     1.486373     1.480555     1.474736     1.468918     1.463099     1.457281     1.451462     1.445644
      1.439825     1.434007     1.428188     1.422370     1.416551     1.410733     1.404914     1.399096     1.393277     1.387459
      1.381640     1.375822     1.370003     1.364185     1.358366     1.352548     1.346729     1.340911     1.335092     1.329274
      1.323455     1.317637     1.311818     1.306000     1.300182     1.294363     1.288545     1.282726     1.276908     1.271089
      1.265271     1.259452     1.253634     1.247815     1.241997     1.236178     1.230360     1.224541     1.218723     1.212904
      1.207086     1.201267     1.195449     1.189630     1.183812     1.177993     1.172175     1.166356     1.160538     1.154719
      1.148901     1.143082     1.137264     1.131445     1.125627     1.119808     1.113990     1.108171     1.102353     1.096534
      1.090716     1.084898     1.079079     1.073261     1.067442     1.061624     1.055805     1.049987     1.044168     1.038350
      1.032531     1.026713     1.020894     1.015076     1.009257     1.003439     0.997620     0.991802     0.985983     0.980165
      0.974346     0.968528     0.962709     0.956891     0.951072     0.945254     0.939435     0.933617     0.927798     0.921980
      0.916161     0.910343     0.904524     0.898706     0.892887     0.887069     0.881251     0.875432     0.869614     0.863795
      0.857977     0.852158     0.846340     0.840521     0.834703     0.828884     0.823066     0.817247     0.811429     0.805610
      0.799792     0.793973     0.788155     0.782336     0.776518     0.770699     0.764881     0.759062     0.753244     0.747425
      0.741607     0.735788     0.729970     0.724151     0.718333     0.712514     0.706696     0.700877     0.695059     0.689240
      0.683422     0.677603     0.671785     0.665967     0.660148     0.654330     0.648511     0.642693     0.636874     0.631056
      0.625237     0.619419     0.613600     0.607782     0.601963     0.596145     0.590326     0.584508     0.578689     0.572871
      0.567052     0.561234     0.555415     0.549597     0.543778     0.537960     0.532141     0.526323     0.520504     0.514686
      0.508867     0.503049     0.497230     0.491412     0.485593     0.479775     0.473956     0.468138     0.462319     0.456501
      0.450682     0.444864     0.439045     0.433227     0.427408     0.421590     0.415771     0.409953     0.404134     0.398316
      0.392497     0.386679     0.380860     0.375042     0.369223     0.363405     0.357586     0.351767     0.345949     0.340130
      0.334312     0.328493     0.322675     0.316856     0.311038     0.305219     0.299401     0.293582     0.287764     0.281945
      0.276127     0.270308     0.264490     0.258671     0.252853     0.247034     0.241216     0.235397     0.229579     0.223760
      0.217942     0.212123     0.206305     0.200486
 NY phased data points follow
  -2.41641E-01 -6.36225E-02  1.56552E-01 -1.37818E-01  3.33548E-01  1.94951E-01 -3.82705E-01 -3.92405E-01 -3.89261E-01  4.75331E-02
   2.87287E-01  1.03851E-01 -2.76951E-02  2.17656E-01  4.87037E-01  2.86471E-01  4.54996E-01  6.00540E-01  5.07459E-01  4.60876E-01
   2.01147E-01  2.28494E-01  1.68468E-01  2.47986E-03  1.21859E-01 -7.44842E-02 -4.61920E-01 -3.08638E-01 -1.26195E-01 -3.93752E-02
  -1.31780E-01 -4.52518E-01 -2.55331E-01 -3.47317E-01 -3.69859E-01 -1.50380E-01 -2.71303E-01 -3.13165E-01 -2.71826E-01  1.02131E-01
   1.69851E-02 -1.66219E-01  2.78810E-01  4.84789E-03 -4.01606E-02  1.88396E-01  6.47229E-02  2.24420E-01 -1.74276E-03  2.13777E-01
   4.83223E-01  2.15189E-01  2.03693E-01  3.25854E-01  1.79908E-01 -3.79712E-02 -2.25954E-02  8.92139E-02  1.77010E-01 -2.17167E-01
  -1.39495E-01  7.72172E-03 -3.61905E-01 -1.65095E-01 -2.03063E-01 -4.28549E-01 -2.12711E-01 -9.61157E-02  1.80037E-01  8.26783E-03
  -1.46875E-01  3.43228E-01  1.86025E-01  4.61944E-02  2.72608E-02 -2.10029E-01 -2.02243E-01 -2.01093E-01 -1.61009E-01 -1.89437E-02
   1.66163E-01 -4.05527E-02 -3.80454E-01  5.78301E-03  1.40369E-01  3.41947E-02  1.07178E-02  4.36787E-02  1.46563E-01 -7.95288E-02
   8.00600E-02  2.20089E-01  3.19024E-02 -1.08085E-01  4.20066E-01  1.18476E-01 -2.87408E-01  4.27341E-02 -2.25829E-01 -2.94880E-01
  -3.14275E-01 -4.37636E-02 -1.98828E-01  5.86802E-02  1.29650E-01 -2.05773E-01  2.71934E-01  2.99952E-01  2.66970E-01  5.39450E-01
   2.48922E-01  2.15794E-01  6.60322E-01  2.63905E-01  3.26160E-01  2.36904E-01  4.30793E-01  5.01274E-01  2.78455E-01  5.85533E-01
   3.29542E-01  2.26642E-01  3.96317E-02  1.78384E-01  2.34850E-01  3.96068E-02  8.42869E-02  2.92943E-01 -3.18456E-02 -2.81935E-01
  -2.94576E-01 -2.15405E-01 -4.34134E-01 -7.22364E-01 -2.46604E-01 -5.48057E-01 -6.16951E-01 -4.81079E-01 -4.94526E-01 -9.32901E-01
  -6.91836E-01 -3.58914E-01 -5.04573E-01 -1.91983E-01 -4.35165E-01 -2.26634E-01 -1.49527E-01 -3.35553E-01 -3.09146E-01  1.53956E-01
   7.61119E-02 -1.18782E-01 -2.68811E-02 -3.65899E-02  1.22939E-01  1.40126E-02 -2.20298E-02 -6.59205E-02 -8.65776E-03  1.18580E-01
   6.31359E-01  5.72929E-01  7.68816E-01  1.05540E+00  1.14561E+00  1.24031E+00  6.35329E-01  6.03803E-01  3.65344E-01  4.93646E-02
  -7.33556E-02 -6.17645E-02 -3.24516E-01 -5.03546E-01 -3.58916E-01 -8.83572E-01 -3.69190E-01 -2.95557E-01 -8.49160E-01 -3.03583E-01
  -6.99818E-01 -3.64148E-01 -2.74338E-01 -6.48141E-01 -3.46268E-02 -4.96458E-01 -3.99594E-01 -4.60836E-01 -5.45482E-01 -4.75706E-01
  -3.77438E-01 -1.80999E-01 -2.45571E-01  1.84446E-01 -1.57712E-01 -1.75271E-01 -1.30098E-01 -4.32700E-02 -2.03625E-01 -1.72923E-01
   3.75695E-02 -2.78117E-01  1.86628E-01  2.16302E-01 -6.74437E-02 -3.07674E-01 -1.01283E-01 -2.30046E-02  4.54166E-02  6.23435E-03
  -4.32864E-01  2.86632E-02 -1.81276E-02  1.86504E-02  8.97155E-02 -2.45918E-01  2.04840E-01  1.19184E-02 -2.84875E-01  1.76597E-01
  -4.08087E-02 -2.86570E-02 -7.19730E-02 -3.22414E-01  1.46914E-01  2.92667E-01  1.90343E-01  3.39333E-01  5.21022E-01  4.76025E-01
   6.83647E-01  6.37218E-01  7.74081E-01  4.87764E-01  1.75141E-01  5.79940E-01  3.54594E-01  4.64690E-01 -1.26216E-01  1.60479E-01
   3.51164E-01 -9.61879E-02  2.37344E-01 -1.16439E-01 -6.73393E-02 -3.82287E-01 -1.77603E-01 -6.33736E-02 -2.42417E-01 -1.70119E-01
  -4.16449E-01 -2.14741E-01 -1.29766E-01 -2.50743E-01 -1.55879E-01 -7.43898E-02 -2.76024E-01  2.31482E-01 -1.30862E-01 -1.76646E-01
   2.36628E-01  8.51124E-02  3.32497E-01 -3.92113E-02  1.52469E-01  1.88057E-01  1.97909E-01  3.23955E-01  1.12503E-01  1.18965E-01
   1.70927E-01  1.56339E-01  7.30417E-02  4.13907E-01  2.43226E-02 -9.75838E-02  2.02210E-01 -3.19612E-02 -2.97077E-01 -3.37848E-01
  -2.67689E-01 -5.53042E-01 -3.03429E-01 -3.32121E-01 -1.95144E-01  9.00428E-02 -2.66301E-01 -1.82180E-01 -3.71330E-02  2.42562E-01
   2.09367E-01  1.27247E-01  2.19424E-01  3.89894E-01  3.67631E-01  1.24523E-01  2.10424E-01  3.23979E-01  2.71202E-01  7.24344E-02
   5.57004E-01  4.10211E-01  1.21921E-01  4.91511E-01  3.76048E-01  3.17739E-01  2.18726E-01  2.16776E-01  4.94444E-01  5.18634E-01
   6.74299E-01  5.98348E-01  4.34811E-01  7.01772E-01  2.41691E-01  4.63245E-01  6.19752E-01  2.75886E-01  4.20275E-01  2.38061E-01
   2.02382E-01  3.83118E-02  2.65438E-02 -1.32010E-01 -4.24211E-01 -4.53291E-01 -3.04797E-01 -2.00723E-01 -1.72380E-01 -1.42800E-01
   1.59459E-01 -5.37939E-03 -3.68490E-01  2.32673E-01  1.74814E-01  2.69804E-01  2.84472E-01  1.94086E-01 -2.07094E-02 -6.20022E-01
  -5.17529E-01 -1.45615E+00 -1.70192E+00 -1.37744E+00 -1.37101E+00 -8.53293E-01 -1.29214E+00 -1.06743E+00 -7.63534E-01 -7.96089E-01
  -8.08266E-01 -7.23935E-01 -1.02241E-01 -2.99721E-01 -2.37319E-01 -1.06866E-01  2.30290E-01  3.00005E-01 -2.69452E-02  7.06170E-02
   3.53489E-01  2.42514E-01 -1.38979E-01 -4.19342E-03  1.01549E-02  6.73289E-02 -1.82121E-01  6.60154E-02 -1.03835E-01 -1.39609E-01
   1.26344E-01  2.01998E-01  1.98518E-01 -7.75662E-02  1.29344E-01  7.61991E-02  2.29840E-01 -2.65272E-02  1.98847E-01 -1.18673E-02
   7.53454E-02  2.36910E-01  7.82876E-02  2.55629E-01  9.97936E-02  3.03380E-01 -2.09036E-01 -4.23121E-02  8.97292E-02  3.25042E-01
   2.63615E-01  3.03252E-01  3.13327E-01  2.68951E-02  1.66841E-01  1.67396E-01  5.28296E-01  3.47445E-01  4.72161E-01  2.06624E-01
   1.16495E-01  1.09592E-01  5.32650E-02  2.77003E-01  2.28615E-01  1.58756E-01  2.84899E-01 -6.00648E-02 -1.99283E-01  3.01932E-01
  -6.85764E-02 -1.53426E-02  6.77332E-02  4.34663E-02 -2.37079E-01 -1.34517E-01 -1.29663E-01  9.34187E-03  1.28889E-01 -8.39431E-02
  -1.19479E-01 -3.96282E-01  1.92544E-01  1.70366E-01 -6.04866E-02 -2.50537E-01 -6.54579E-02 -1.19701E-02 -2.09840E-02 -1.32954E-01
   1.65036E-01  1.33275E-01 -2.02987E-01  3.11248E-01 -1.25486E-01  7.54796E-02 -2.00279E-02  3.00569E-01 -1.07367E-01 -1.90040E-01
   1.99906E-01 -3.16343E-01  9.74893E-02  5.81921E-02  1.28360E-01 -2.91277E-01  1.37509E-01  2.36645E-01 -1.90644E-01  4.66765E-01
   3.14750E-01  6.13993E-02  5.36660E-01  6.40254E-01  3.93650E-01  2.12954E-01  3.21627E-01  4.14822E-01  5.21885E-02 -1.45914E-02
  -2.07847E-01 -1.78343E-01 -4.32503E-01 -4.43683E-01 -1.37302E-01  1.10528E-01 -6.56461E-02 -5.51963E-01 -1.42918E-01 -4.95220E-02
  -3.29199E-01 -4.07269E-01 -3.27498E-01 -2.47298E-01 -1.04189E-01 -7.19285E-01 -5.67160E-01 -3.70135E-01 -4.27753E-01 -9.50349E-02
  -6.06237E-01 -1.97596E-01  3.14597E-02  3.04577E-02 -1.78948E-01 -1.77505E-01  2.50006E-01  1.07882E-02  8.18552E-02  2.60941E-01
   2.47199E-01  6.84049E-03  6.34306E-02  4.10791E-01  3.92251E-01  1.46730E-01  2.82821E-01  2.43966E-01  1.38202E-01  1.73175E-01
  -4.74709E-03  1.28669E-01 -1.08168E-01  1.63024E-01  5.43777E-01 -6.64107E-02 -7.01564E-02  1.56654E-01  2.08461E-01 -2.50447E-02
   1.21198E-01  2.72143E-01 -3.33260E-02  4.52875E-01  1.83486E-01 -4.69060E-03  1.34178E-01  1.66523E-01  2.13240E-01 -1.02257E-01
   2.31942E-01  8.03831E-02 -3.35087E-02 -1.21589E-01 -2.06965E-01 -2.03651E-01 -5.31241E-01 -2.83738E-01 -5.79504E-01 -6.55297E-01
  -6.71861E-01 -8.58746E-01 -3.56809E-01 -4.03987E-01 -6.49950E-01 -4.83835E-01 -2.71404E-01 -4.87078E-01 -4.05849E-01 -2.89528E-01
  -5.62781E-01 -3.01285E-01 -1.98348E-01 -6.10897E-01 -4.15770E-01  1.58439E-02 -1.62594E-01  4.33525E-02 -1.04851E-03 -2.35049E-01
   2.02345E-02 -5.99776E-02 -2.01677E-03  2.28754E-01 -3.37773E-01 -2.23896E-01  1.81497E-01 -1.44544E-01  1.04030E-02 -3.09915E-01
  -3.05146E-02  2.84660E-01  2.41763E-01  1.60037E-01 -8.28834E-02  2.65165E-01 -1.29037E-01 -1.72290E-01  1.70055E-01 -4.99399E-02
  -4.15422E-02  1.10030E-01 -3.21445E-01 -1.41733E-01  1.67624E-01  1.29380E-01  4.04394E-02 -8.42144E-03 -2.04437E-02 -2.62581E-01
   1.44474E-01  2.71502E-01  2.78880E-01 -2.48924E-01  4.68565E-02  1.65553E-02 -2.96004E-01  2.83575E-01  1.02023E-02  2.91599E-01
   1.04828E-02 -1.41025E-02  9.19390E-02 -1.51164E-01 -3.33150E-02  4.86164E-03  1.89691E-02 -7.88395E-02 -5.32664E-03 -8.83222E-02
  -9.16116E-04  2.03429E-01 -7.96550E-03 -1.51331E-01  9.08097E-02 -2.57330E-02  1.44892E-01  4.69606E-02 -3.16648E-02  5.69481E-02
  -1.36815E-01  9.89490E-03  2.11794E-01  5.82977E-02 -1.23066E-01  4.17712E-01  1.95600E-01 -1.27822E-01  4.74368E-02  1.12449E-01
   5.96894E-02  3.60046E-01  1.61578E-01 -1.21029E-01  3.34986E-01  8.57131E-02  9.82619E-02  2.48975E-01  4.61300E-01  3.04147E-01
   1.22936E-01  1.59136E-01  7.55748E-02  1.78843E-02 -1.53595E-02  1.02359E-01  2.29300E-02  1.62817E-01  1.06370E-01  3.01380E-01
  -1.78074E-02 -2.37690E-01  6.95782E-02 -5.51198E-02 -9.71376E-02  3.81465E-02  3.75002E-01 -1.20000E-01 -3.01382E-01  1.60557E-01
   1.04822E-02  1.21473E-01  3.82059E-02 -1.27106E-01
 NY points of the fit to the data follow
   4.84155E-02  4.59132E-02  4.74047E-02  4.77984E-02  3.42261E-02  5.35468E-03 -8.99804E-03 -3.81352E-02 -3.97222E-02  4.96534E-03
   8.78171E-02  1.97889E-01  3.08203E-01  4.04358E-01  4.73278E-01  5.03099E-01  5.04211E-01  4.86478E-01  4.62686E-01  4.35345E-01
   3.90157E-01  3.27290E-01  2.63300E-01  1.95127E-01  1.21076E-01  7.47977E-02  4.15220E-02  1.50530E-02 -7.01567E-03 -2.59257E-02
  -4.41866E-02 -6.09756E-02 -8.24625E-02 -1.04118E-01 -1.30093E-01 -1.56610E-01 -1.89709E-01 -2.20263E-01 -2.44466E-01 -2.49800E-01
  -2.27394E-01 -1.79615E-01 -1.11812E-01 -3.23247E-02  4.50519E-02  1.10016E-01  1.57134E-01  1.88703E-01  2.09682E-01  2.21938E-01
   2.27528E-01  2.21963E-01  2.06084E-01  1.74918E-01  1.34260E-01  8.91135E-02  3.44936E-02 -1.54662E-02 -5.48543E-02 -1.09584E-01
  -1.56123E-01 -1.90949E-01 -2.18910E-01 -2.30016E-01 -2.23412E-01 -1.91101E-01 -1.37320E-01 -7.35051E-02 -5.47833E-03  5.54170E-02
   1.06000E-01  1.48888E-01  1.84630E-01  2.04015E-01  1.93193E-01  1.52675E-01  8.38694E-02 -5.23359E-04 -9.20536E-02 -1.66056E-01
  -1.95898E-01 -1.87361E-01 -1.54666E-01 -1.06524E-01 -5.08829E-02  6.61809E-03  5.79123E-02  1.02990E-01  1.52995E-01  2.09002E-01
   2.42541E-01  2.67439E-01  2.68002E-01  2.31791E-01  1.52088E-01  4.79292E-02 -5.84690E-02 -1.50441E-01 -2.09773E-01 -2.29235E-01
  -2.14859E-01 -1.76212E-01 -1.29838E-01 -8.38641E-02 -3.72307E-02  1.27410E-02  6.75837E-02  1.23574E-01  1.74336E-01  2.07298E-01
   2.28984E-01  2.35228E-01  2.37471E-01  2.39009E-01  2.41350E-01  2.51501E-01  2.58878E-01  2.61717E-01  2.73235E-01  2.76413E-01
   2.86064E-01  2.87805E-01  2.94368E-01  2.74418E-01  2.22456E-01  1.35467E-01  1.75942E-02 -1.10678E-01 -1.94040E-01 -2.12771E-01
  -2.22280E-01 -2.44971E-01 -2.92873E-01 -3.77187E-01 -4.85263E-01 -5.97629E-01 -6.73699E-01 -6.77927E-01 -6.30879E-01 -5.65136E-01
  -5.16961E-01 -4.70416E-01 -4.25141E-01 -3.77140E-01 -3.07479E-01 -2.06050E-01 -1.14451E-01 -5.82385E-02 -1.54856E-02  1.96714E-02
   4.96579E-02  7.64114E-02  1.01584E-01  1.25202E-01  1.47206E-01  1.67390E-01  1.85276E-01  1.97770E-01  1.96800E-01  1.82861E-01
   3.30679E-01  5.38765E-01  7.24670E-01  8.53131E-01  8.96991E-01  8.41653E-01  6.61161E-01  4.01408E-01  1.63941E-01 -1.03404E-02
  -1.30202E-01 -2.42945E-01 -3.62784E-01 -4.66593E-01 -5.62960E-01 -6.47744E-01 -6.48700E-01 -5.60466E-01 -5.09534E-01 -4.75112E-01
  -4.47421E-01 -4.21456E-01 -3.98319E-01 -3.75128E-01 -3.54521E-01 -3.35940E-01 -3.18789E-01 -3.02640E-01 -2.86917E-01 -2.72270E-01
  -2.58452E-01 -2.45047E-01 -2.31842E-01 -2.19261E-01 -2.08068E-01 -1.96723E-01 -1.83312E-01 -1.68083E-01 -1.52253E-01 -1.38918E-01
  -1.26921E-01 -1.13712E-01 -1.00632E-01 -8.89443E-02 -7.86239E-02 -6.94772E-02 -6.25647E-02 -6.06942E-02 -6.31284E-02 -6.69146E-02
  -7.04824E-02 -7.27582E-02 -7.34638E-02 -7.31580E-02 -7.34577E-02 -7.57118E-02 -8.09523E-02 -1.01408E-01 -1.24705E-01 -1.30548E-01
  -1.12140E-01 -7.54697E-02 -4.51455E-02 -1.44881E-02  4.22386E-02  1.11295E-01  1.83018E-01  2.57275E-01  3.36484E-01  4.08761E-01
   4.45700E-01  4.39501E-01  4.04688E-01  3.53154E-01  2.95326E-01  2.44485E-01  2.01503E-01  1.59881E-01  1.06766E-01  4.33433E-02
  -3.75030E-03 -2.90509E-02 -4.72646E-02 -6.06464E-02 -7.15781E-02 -8.02426E-02 -8.67642E-02 -9.15756E-02 -9.51742E-02 -1.25975E-01
  -1.59152E-01 -1.81351E-01 -2.15616E-01 -2.42547E-01 -2.55845E-01 -2.36925E-01 -2.02516E-01 -1.67272E-01 -1.18499E-01 -5.97003E-02
   5.37179E-03  6.54017E-02  1.16167E-01  1.65194E-01  2.07044E-01  2.25372E-01  2.23448E-01  2.26144E-01  2.18357E-01  1.94332E-01
   1.69743E-01  1.44841E-01  1.20252E-01  8.84823E-02  6.33716E-02  3.40533E-02 -5.47967E-03 -6.26947E-02 -1.49261E-01 -2.42437E-01
  -3.36703E-01 -4.08263E-01 -4.32812E-01 -4.07816E-01 -3.33275E-01 -2.32600E-01 -1.21730E-01 -2.00364E-02  6.28127E-02  1.29319E-01
   1.84318E-01  2.31711E-01  2.70623E-01  3.00440E-01  3.14145E-01  3.15740E-01  3.12338E-01  3.01699E-01  2.95222E-01  2.94021E-01
   2.95645E-01  2.99522E-01  3.03238E-01  3.06942E-01  3.07496E-01  3.08013E-01  3.06916E-01  3.04350E-01  3.01283E-01  2.96651E-01
   2.91758E-01  2.83900E-01  2.72964E-01  2.56184E-01  2.34827E-01  2.05032E-01  1.69075E-01  1.26020E-01  7.81973E-02  2.39745E-02
  -3.32834E-02 -8.90755E-02 -1.36483E-01 -1.66632E-01 -1.78063E-01 -1.66408E-01 -1.36157E-01 -1.00050E-01 -6.24819E-02 -3.88543E-02
  -2.40209E-02 -2.34637E-02 -2.92565E-02 -2.99075E-02  8.03509E-02  2.65912E-01  3.14662E-01  1.97842E-01 -5.81262E-02 -4.15095E-01
  -8.29109E-01 -1.22304E+00 -1.46412E+00 -1.51183E+00 -1.43583E+00 -1.33058E+00 -1.24577E+00 -1.15176E+00 -1.03734E+00 -9.04779E-01
  -7.10331E-01 -4.46432E-01 -2.49598E-01 -1.65167E-01 -1.13679E-01 -7.64563E-02 -5.08665E-02 -3.33856E-02 -2.44026E-02 -2.21234E-02
  -2.46269E-02 -3.03846E-02 -3.68574E-02 -4.21349E-02 -4.55901E-02 -4.64290E-02 -4.46264E-02 -4.01464E-02 -3.35994E-02 -2.47301E-02
  -1.48374E-02 -3.50438E-03  8.44702E-03  1.98691E-02  3.09385E-02  4.04509E-02  4.93252E-02  5.73440E-02  6.48850E-02  7.19351E-02
   7.89123E-02  8.50425E-02  9.08325E-02  9.61085E-02  1.00839E-01  1.05259E-01  1.09906E-01  1.15190E-01  1.21189E-01  1.27316E-01
   1.33132E-01  1.38006E-01  1.41984E-01  1.44904E-01  1.47035E-01  1.48427E-01  1.49273E-01  1.48776E-01  1.46374E-01  1.42003E-01
   1.36010E-01  1.28953E-01  1.20666E-01  1.11827E-01  1.02389E-01  9.24021E-02  8.20325E-02  7.13516E-02  6.07648E-02  5.07813E-02
   4.13488E-02  3.25142E-02  2.42360E-02  1.66210E-02  9.51027E-03  2.57005E-03 -4.13104E-03 -1.01584E-02 -1.58976E-02 -2.12005E-02
  -2.60169E-02 -3.02226E-02 -3.36258E-02 -3.57221E-02 -3.61433E-02 -3.57520E-02 -3.91971E-02 -3.82324E-02 -3.52857E-02 -2.45226E-02
  -4.58848E-03  2.07314E-02  4.86990E-02  7.36355E-02  9.18202E-02  1.01783E-01  1.04310E-01  1.04505E-01  1.04894E-01  1.06965E-01
   1.11636E-01  1.16817E-01  1.20986E-01  1.26548E-01  1.36405E-01  1.48247E-01  1.65295E-01  1.83025E-01  1.99503E-01  2.14210E-01
   2.27327E-01  2.38609E-01  2.47357E-01  2.53221E-01  2.55768E-01  2.54625E-01  2.50145E-01  2.42966E-01  2.33106E-01  2.21500E-01
   2.08446E-01  1.94035E-01  1.78506E-01  1.62326E-01  1.46033E-01  1.30354E-01  1.15442E-01  1.01142E-01  8.71700E-02  7.40794E-02
   6.19307E-02  5.08828E-02  4.13788E-02  3.38017E-02  2.79621E-02  2.35558E-02  2.12083E-02  2.08012E-02  2.23340E-02  2.57503E-02
   3.09375E-02  3.72310E-02  4.38447E-02  5.05220E-02  5.70432E-02  6.35207E-02  7.02412E-02  7.64826E-02  8.26635E-02  8.84680E-02
   9.29538E-02  9.58241E-02  9.72185E-02  9.77005E-02  9.71004E-02  9.54294E-02  9.29590E-02  8.97553E-02  8.58040E-02  8.13317E-02
   7.63294E-02  7.06274E-02  6.46079E-02  5.84252E-02  5.20516E-02  4.59241E-02  4.02115E-02  3.50389E-02  3.01999E-02  2.52876E-02
   1.99988E-02  1.42594E-02  8.27669E-03  1.90307E-03 -4.57400E-03 -1.18669E-02 -2.04722E-02 -3.11234E-02 -4.43415E-02 -6.04301E-02
  -7.93532E-02 -1.00651E-01 -1.23484E-01 -1.47759E-01 -1.73690E-01 -2.00527E-01 -2.27224E-01 -2.53237E-01 -2.77928E-01 -3.00205E-01
  -3.18931E-01 -3.33664E-01 -3.44688E-01 -3.51598E-01 -3.54680E-01 -3.54538E-01 -3.51560E-01 -3.46550E-01 -3.39762E-01 -3.31350E-01
  -3.21713E-01 -3.10598E-01 -2.98002E-01 -2.83910E-01 -2.69253E-01 -2.54189E-01 -2.38363E-01 -2.21839E-01 -2.04851E-01 -1.87804E-01
  -1.71144E-01 -1.54407E-01 -1.37891E-01 -1.22346E-01 -1.07630E-01 -9.36706E-02 -8.03849E-02 -6.79848E-02 -5.68502E-02 -4.66197E-02
  -3.72058E-02 -2.87010E-02 -2.10253E-02 -1.45533E-02 -8.93378E-03 -4.28801E-03 -7.86345E-04  2.21935E-03  5.38348E-03  8.49454E-03
   1.15007E-02  1.47983E-02  1.79988E-02  2.08724E-02  2.35715E-02  2.58246E-02  2.75148E-02  2.91263E-02  3.05842E-02  3.14492E-02
   3.17276E-02  3.15639E-02  3.15024E-02  3.21059E-02  3.29139E-02  3.34138E-02  3.35821E-02  3.35388E-02  3.31489E-02  3.17541E-02
   3.04994E-02  3.02289E-02  3.02193E-02  2.99616E-02  2.92095E-02  2.82305E-02  2.71035E-02  2.57786E-02  2.46584E-02  2.44249E-02
   2.49332E-02  2.54773E-02  2.57889E-02  2.64360E-02  2.74525E-02  2.91196E-02  3.08675E-02  3.27655E-02  3.44736E-02  3.55692E-02
   3.60439E-02  3.61101E-02  3.62120E-02  3.68618E-02  3.76433E-02  3.80902E-02  3.85597E-02  3.91171E-02  4.02091E-02  4.18954E-02
   4.41425E-02  4.69172E-02  4.95144E-02  5.15433E-02  5.31823E-02  5.42846E-02  5.52603E-02  5.62670E-02  5.72330E-02  5.83243E-02
   5.92730E-02  5.92727E-02  5.88538E-02  5.88574E-02  5.93169E-02  6.01032E-02  6.09823E-02  6.18979E-02  6.31761E-02  6.45386E-02
   6.56533E-02  6.64595E-02  6.75083E-02  6.90596E-02  7.11573E-02  7.39488E-02  7.80047E-02  8.21686E-02  8.60744E-02  9.00542E-02
   9.40914E-02  9.84077E-02  1.03147E-01  1.08334E-01
 NY background values follow
     6.923E-03    7.374E-03    7.825E-03    8.276E-03    8.727E-03    9.179E-03    9.630E-03    1.008E-02    1.053E-02    1.098E-02
     1.144E-02    1.189E-02    1.234E-02    1.279E-02    1.324E-02    1.369E-02    1.414E-02    1.460E-02    1.505E-02    1.550E-02
     1.595E-02    1.640E-02    1.685E-02    1.730E-02    1.775E-02    1.820E-02    1.865E-02    1.910E-02    1.955E-02    2.000E-02
     2.045E-02    2.090E-02    2.135E-02    2.180E-02    2.225E-02    2.270E-02    2.314E-02    2.359E-02    2.404E-02    2.449E-02
     2.493E-02    2.538E-02    2.582E-02    2.627E-02    2.672E-02    2.716E-02    2.760E-02    2.805E-02    2.849E-02    2.893E-02
     2.937E-02    2.982E-02    3.026E-02    3.070E-02    3.114E-02    3.158E-02    3.201E-02    3.245E-02    3.289E-02    3.333E-02
     3.376E-02    3.420E-02    3.463E-02    3.506E-02    3.550E-02    3.593E-02    3.636E-02    3.679E-02    3.722E-02    3.764E-02
