 
 $NMID
 ID=''
 FMTDAT='(2E13.5)'
 TRAMP=   1.00000E+0
 VOLUME=   1.00000E+0
 $END
   7.17919E+2  -1.70262E+2
  -8.07693E+2   6.34606E+2
   2.79875E+3  -3.25244E+3
  -1.37470E+3  -1.40927E+3
  -3.81834E+3  -9.25760E+2
   2.18351E+2   1.90366E+3
  -2.76120E+3   1.19615E+3
  -2.14751E+3   1.23253E+3
  -4.47556E+2  -1.06253E+3
  -2.72297E+3   1.41491E+2
   2.41548E+3   1.30821E+3
   3.69343E+3   1.83433E+3
   9.26067E+2   4.80075E+3
  -2.81885E+3   2.32261E+3
  -1.19051E+3  -2.80335E+3
   2.82099E+2  -3.25464E+3
   2.98832E+3  -1.37422E+3
   1.37806E+3   1.49830E+3
  -2.14791E+3   1.80368E+3
  -1.01632E+2  -2.19444E+3
   4.91843E+3  -1.72012E+3
   1.44746E+3   3.19811E+3
  -1.24634E+3   1.21310E+2
  -3.51699E+2  -5.56830E+3
   2.83703E+3  -5.40393E+3
   1.91043E+3  -4.24293E+1
  -2.55273E+3  -6.20126E+1
  -2.25879E+3  -4.78957E+3
   2.34894E+3  -5.53599E+3
   5.13789E+3  -1.37408E+3
   8.18578E+2   4.22551E+3
  -4.43827E+3   5.25060E+3
  -3.18559E+3  -1.14341E+3
   5.46992E+2  -1.83201E+3
   6.89625E+2  -5.15109E+2
   2.13780E+3  -2.64771E+3
   4.95161E+3  -3.99542E+3
   5.28812E+3   2.66833E+3
   2.87081E+3   4.39002E+3
  -1.93747E+3   1.53927E+3
  -2.06397E+3   2.38980E+3
  -4.40075E+3  -2.94117E+3
   1.23540E+3  -5.16176E+3
   7.00615E+3  -3.96011E+3
   1.93148E+3   1.36300E+3
  -8.50773E+2   1.58114E+3
   6.52231E+2   2.56765E+3
  -2.65966E+3   3.26821E+3
  -4.31201E+3   2.76984E+3
  -3.67491E+3  -1.04039E+3
  -1.49428E+3  -3.89746E+3
   1.03356E+2  -3.26778E+3
   2.63594E+3  -1.55579E+2
   7.67902E+2   2.87274E+3
  -1.90727E+3   1.14147E+3
  -4.93160E+3  -1.02753E+3
  -5.09521E+3  -2.74001E+3
  -2.40785E+3  -5.08926E+3
   1.78256E+3  -7.31940E+3
   4.56141E+3  -2.24522E+3
   4.90361E+3  -1.27189E+3
   4.08131E+3   1.62383E+3
   1.71881E+2   1.73028E+3
  -1.91794E+3  -2.01261E+3
   1.24903E+3  -7.93001E+2
   7.93162E+2   2.47355E+3
  -3.90248E+3   9.02751E+2
  -2.40152E+3  -4.34984E+3
  -1.18848E+3  -1.96490E+3
   2.33624E+2   5.63782E+2
  -2.09156E+3  -3.79806E+2
  -1.36440E+3   3.69327E+2
   9.95517E+2   3.57891E+2
   1.66170E+3  -3.02831E+3
   1.16128E+3  -7.53609E+1
  -4.74320E+2   2.36871E+2
   2.97215E+3   8.06802E+2
   2.94165E+3  -1.36808E+3
   1.56499E+3   3.71897E+2
  -9.51896E+2   3.57483E+3
   6.78275E+2   2.16971E+1
   8.12844E+2  -3.06453E+2
  -2.56246E+3   1.11650E+3
  -4.34734E+3   1.24200E+3
  -9.69007E+2  -1.18489E+2
  -1.28416E+2  -1.09151E+3
   1.27161E+3  -3.08618E+3
   5.17812E+3  -1.16392E+3
   1.41101E+3   1.72310E+3
  -2.17239E+3   7.68836E+2
  -7.41671E+2  -6.02928E+2
   6.37442E+2   1.18639E+3
  -3.40203E+3   2.14418E+3
  -5.67259E+3  -2.64186E+3
  -6.81775E+2  -1.61509E+3
   1.73158E+3  -7.14981E+2
   2.17457E+3   1.76085E+3
  -3.66339E+3   3.11979E+3
  -2.61598E+3  -1.93462E+3
   3.72655E+2  -2.10122E+3
   1.84550E+3   3.17113E+3
   2.63644E+3   3.84509E+3
  -2.54178E+3   2.87559E+3
  -3.49341E+3   8.67666E+1
  -6.73017E+2  -4.01043E+3
   2.44667E+3  -1.43717E+3
  -1.37490E+3  -1.13984E+3
   1.24394E+2  -3.16347E+3
   2.30774E+3  -1.05557E+3
   2.35929E+3   5.41134E+2
   2.40314E+3   3.15283E+3
  -1.86144E+3   4.36003E+3
  -4.63474E+2   8.12065E+2
  -3.46580E+3   2.28798E+3
  -2.02008E+3  -8.36202E+2
  -1.78415E+2  -1.62341E+3
  -5.09194E+2   1.32032E+2
   2.80432E+3   1.97025E+3
   1.31618E+2   8.63749E+2
  -6.26238E+2   1.62447E+3
  -1.01188E+3   2.65188E+3
  -1.18601E+3   5.69228E+2
   3.20521E+3  -1.66690E+2
  -4.60141E+2   2.00328E+3
  -1.28499E+2   1.38282E+3
   6.41097E+2  -9.84259E+1
   1.97890E+2   1.10209E+3
   7.35050E+2   9.44024E+2
  -2.16041E+3   1.77741E+3
  -5.39128E+2  -5.81981E+1
  -8.58256E+2   1.01379E+3
   7.09454E+2   3.01535E+3
  -2.15062E+3   2.82207E+3
  -3.23032E+3   1.28981E+3
  -2.67019E+3  -1.14796E+3
   6.40756E+1  -2.60380E+3
   1.10161E+3   1.13859E+3
  -3.21531E+2   1.32871E+3
   5.46183E+2   1.70479E+3
  -1.53002E+3  -7.61771E+2
   1.58631E+3  -9.76345E+1
  -6.30389E+2   4.57196E+2
  -2.57832E+3  -2.55293E+2
  -5.58716E+2   6.51423E+2
   7.35520E+2  -8.22505E+2
  -1.15084E+3  -3.98463E+2
   1.38353E+2  -6.27253E+2
  -1.50078E+3  -1.97083E+3
   4.06217E+2  -6.88564E+2
  -1.25951E+2   1.27631E+2
   2.23046E+3  -1.59419E+3
   2.04935E+3   1.76912E+3
   6.77044E+2   5.96644E+2
   8.12966E+2   2.23676E+3
  -9.06923E+2   1.49693E+3
  -2.64348E+3  -2.48787E+2
  -8.01145E+2  -3.93601E+2
  -1.73230E+3  -6.74079E+2
  -8.22394E+2   1.32231E+3
  -2.24385E+3   3.63206E+2
  -5.19778E+2   3.09885E+2
  -1.52975E+3  -3.89985E+2
   1.84595E+2   4.16364E+2
   2.24383E+3   3.66862E+1
  -1.22108E+3  -1.07855E+3
   6.31963E+2  -6.79909E+2
   1.05822E+3   1.79366E+3
  -3.31925E+3   1.05759E+3
  -2.39145E+3  -5.45378E+2
  -1.01447E+3  -1.27550E+3
   1.00713E+3  -1.74629E+3
  -2.73571E+2  -7.79038E+2
   2.69658E+2  -2.77637E+2
   1.71933E+3   3.21541E+3
  -5.68680E+2  -1.14245E+2
   1.57598E+3   6.33094E+2
   6.52595E+2  -9.82573E+1
  -1.22924E+3  -6.71591E+2
   9.97597E+2  -2.05328E+3
  -1.31016E+3  -1.21637E+3
   2.00648E+3   4.60454E+2
   8.61144E+2  -1.11576E+1
  -1.83036E+3   1.98142E+2
  -1.53925E+3   1.36727E+3
  -1.03959E+3   1.33428E+3
  -2.49199E+3   7.48812E+2
  -2.68017E+2  -1.16704E+3
  -3.23401E+2  -1.57735E+3
   6.67826E+2  -7.73672E+2
  -1.07004E+3   4.55645E+2
  -5.55373E+2  -4.47939E+1
  -5.68872E+2   4.46120E+2
   2.88061E+2  -4.01578E+2
   1.50319E+3   4.22748E+2
  -1.86658E+3  -1.41899E+2
   6.65021E+2  -3.54787E+2
   1.03942E+3  -3.68523E+3
  -1.95229E+3   7.84739E+2
  -2.23783E+3  -7.15395E+2
  -6.35128E+2  -3.07806E+3
   2.41772E+3  -1.84977E+3
   4.19755E+3  -5.17918E+2
   2.52933E+3   2.16411E+3
   1.59540E+3  -4.92736E+2
  -2.01401E+3   1.02800E+3
  -9.00709E+2  -7.15083E+2
   1.94887E+1  -1.60178E+3
   1.23021E+3   2.14378E+3
  -6.38935E+2  -1.55087E+3
  -2.54722E+2  -2.18957E+2
   6.73327E+2   1.32763E+2
   1.17524E+3   2.00618E+3
   6.04772E+2   1.39088E+3
  -1.91809E+3   8.10577E+2
  -1.60948E+3   1.27723E+3
   2.78968E+1  -1.31802E+3
   6.32665E+2   1.03178E+3
   1.05116E+3  -2.11828E+3
  -3.01435E+2  -1.73575E+3
  -4.62280E+2  -6.20219E+2
  -7.24433E+2  -7.36101E+2
   2.29622E+3   1.66926E+3
   1.95841E+2   1.17030E+3
   6.09725E+2  -1.43894E+3
   1.00572E+3  -1.51303E+3
   8.96509E+2   1.03168E+3
   1.61541E+3  -5.35515E+2
   2.16650E+3  -1.73044E+3
   1.21135E+3   7.60856E+2
   2.13427E+3   1.28036E+3
   1.85702E+3   9.71952E+2
  -5.10451E+1   1.10497E+3
   1.40807E+3   1.05254E+3
   2.79511E+2   8.96332E+2
  -1.04779E+3   1.49821E+2
  -7.95515E+2  -4.40032E+2
   8.54359E+2  -6.43647E+2
   7.41700E+2   3.26951E+2
  -1.14663E+3   1.27905E+3
  -2.03247E+2   1.55627E+3
   5.68672E+2  -8.19189E+2
   1.08168E+3   1.12955E+3
   2.69657E+1  -2.33531E+3
   1.07410E+3  -6.26329E+2
  -1.95943E+2  -2.12822E+3
   1.88483E+2  -1.29976E+3
   3.11372E+2   1.65819E+3
   2.64445E+1   7.18699E+2
  -7.78816E+2   2.05572E+2
  -6.81325E+2   1.09840E+3
  -6.81862E+2  -1.16989E+3
   5.64070E+2   1.38807E+3
  -1.08285E+2   7.59433E+2
   8.84426E+2   1.26783E+3
   4.05181E+2   1.27293E+3
  -2.27100E+3   7.32998E+2
  -8.73557E+2   1.16453E+3
   3.78393E+2  -8.20336E+2
   1.03285E+3  -5.34054E+2
   6.06754E+2  -9.79898E+2
  -1.48436E+2  -1.90855E+1
   1.51821E+3   9.71363E+2
  -7.15680E+2   7.23757E+2
  -1.57600E+2  -1.47565E+3
   1.95041E+2   4.07470E+2
   5.46494E+2   2.09248E+3
   5.76969E+2  -5.56673E+2
  -1.50772E+3   3.16139E+2
  -7.89570E+2   1.22758E+3
   3.82224E+2   4.88777E+2
   1.74450E+2   4.06216E+2
  -9.33446E+1  -3.30128E+2
   1.61906E+3  -5.84191E+2
   1.15360E+3   4.31882E+1
   1.64509E+3  -1.38121E+3
   1.00776E+3   6.44243E+1
   1.48072E+3  -6.96584E+2
  -6.76712E+2   1.43046E+3
  -7.85080E+2   1.18092E+3
   3.07300E+2  -1.46622E+2
  -2.60971E+2  -5.13171E+2
  -5.75180E+2   4.55597E+2
   2.23136E+2  -1.02444E+2
   6.22384E+2  -3.29610E+2
   1.31673E+3   1.72956E+3
   8.22197E+2   3.78373E+0
  -3.22712E+2   3.52264E+2
   9.11898E+2   3.38283E+3
   7.31542E+1   1.08006E+3
  -1.70130E+3   1.01211E+3
  -5.84616E+2   1.06309E+3
   5.25378E+1  -8.03040E+2
  -9.68175E+2   1.47651E+3
  -2.16150E+2   8.47309E+2
   1.36799E+3   1.14284E+3
   1.43343E+3  -2.03706E+2
   9.95466E+2   1.01730E+3
  -2.97137E+2   1.64811E+3
   1.28293E+3   1.57851E+3
   6.97727E+2   5.22009E+2
   1.34227E+2  -2.09751E+2
  -8.31939E+2   1.04950E+3
   1.94189E+3   2.34096E+1
   7.69651E+2  -2.40758E+3
  -2.58684E+2  -3.41883E+2
   6.47412E+2  -1.37661E+3
   1.01613E+3   2.49930E+1
  -5.80503E+2  -1.29242E+3
   1.13275E+3  -8.96678E+2
   1.22855E+3  -2.05467E+3
  -2.06885E+3   3.73599E+2
  -1.42321E+3   9.48892E+2
   3.36548E+2   1.89588E+3
   1.88738E+1  -2.62318E+2
   5.37908E+2  -1.32558E+3
   6.51792E+2   5.60738E+2
  -1.44368E+3   1.11359E+2
   2.01340E+3   3.52806E+2
  -5.84598E+2   5.77640E+2
   2.04245E+3   5.94140E+1
  -5.97664E+2  -9.35284E+1
  -2.06045E+3  -9.85342E+2
   2.06531E+2  -5.92294E+2
  -3.15914E+2   1.10890E+3
   1.50390E+3   1.02415E+3
   4.90407E+2  -2.85988E+2
   5.23955E+2   5.51521E+2
   1.06354E+3  -9.88532E+2
  -5.89765E+2   9.93681E+2
  -5.01296E+2  -2.17277E+2
   9.26925E+2   1.64624E+3
   2.92429E+2  -3.18397E+2
  -1.13191E+3   1.22810E+3
  -3.11157E+2   1.53269E+3
   1.08483E+3  -1.54634E+3
   1.63886E+3  -4.22039E+2
   1.77929E+2   6.34100E+2
   8.13256E-1   5.74500E+2
   2.02002E+3  -2.42787E+3
  -9.81333E+2  -1.46470E+2
   2.67693E+2  -4.76506E+2
  -2.17588E+3   2.01645E+3
  -2.46023E+3   1.56623E+3
  -6.31422E+2   1.05081E+2
  -8.83484E+2  -1.87801E+2
   2.05406E+1   1.52117E+3
   3.14163E+3  -3.46910E+1
  -1.15450E+3   4.57508E+2
  -1.97845E+3  -1.35468E+2
   3.41589E+2   8.19201E+2
   6.94632E+1  -1.08508E+3
   3.28801E+2   1.54360E+2
  -9.50348E+2   9.48896E+2
  -2.90671E+2  -7.97939E+2
  -1.87795E+3  -6.21844E+2
  -2.16798E+3  -8.42266E+2
   1.00982E+1  -2.41489E+3
  -9.11372E+1   9.58688E+2
   6.62569E+2   7.92290E+2
  -2.66312E+3   1.68221E+3
   1.42997E+3   1.26280E+3
   4.02454E+2   3.26502E+2
   6.74275E+2  -1.65221E+3
  -7.51295E+2  -2.40559E+3
  -8.08430E+2  -1.37406E+3
   6.57778E+2   5.15374E+2
  -5.35364E+2  -7.12043E+2
