 LCModel (Version 6.3-1N) Copyright: S.W. Provencher.          Ref.: Magn. Reson. Med. 30:672-679 (1993).                
 Slice_N1@25_20  02-Jun-2023 14:37:52
 27 lines in following concentration table = NCONC+1
    Conc.  %SD /Cr+PCr  Metabolite                                         
 2.17E-06  20% 3.2E-04 Mac                                                 
 2.58E-02  99%   3.776 Cr                                                  
 2.89E-02  89%   4.224 PCr                                                 
 7.57E-02  22%  11.064 Ins                                                 
 7.41E-02  15%  10.830 NAA                                                 
 6.06E-02  25%   8.857 Tau                                                 
 7.98E-03  50%   1.167 PCho                                                
    0.000 999%   0.000 GPC                                                 
 5.21E-02  29%   7.622 Glu                                                 
 1.77E-02  55%   2.585 Gln                                                 
    0.000 999%   0.000 Ala                                                 
 3.15E-02  66%   4.599 Asc                                                 
 4.70E-03 145%   0.687 Asp                                                 
 7.13E-03  56%   1.042 GABA                                                
 5.62E-03  75%   0.822 Glc                                                 
 7.78E-03  62%   1.137 GSH                                                 
    0.000 999%   0.000 Lac                                                 
    0.000 999%   0.000 NAAG                                                
    0.000 999%   0.000 PE                                                  
 7.98E-03  50%   1.167 GPC+PCho                                            
 7.41E-02  15%  10.830 NAA+NAAG                                            
 6.98E-02  26%  10.207 Glu+Gln                                             
 5.47E-02  20%   8.000 Cr+PCr                                              
 7.41E-02  15%  10.830 NAA+NAAG                                            
 5.47E-02  20%   8.000 Cr+PCr                                              
 6.98E-02  26%  10.207 Glu+Gln                                             
   6 lines in following misc. output table
  FWHM = 0.070 ppm    S/N =   1                                            
  Data shift = 0.058 ppm                                                   
  Ph:  45 deg      -7.4 deg/ppm                                            
  alphaB,S = 3.1E+01,   4.9E+01                                            
   18 spline knots.   Ns = 6(2)                                            
   2 inflections.     1 extrema                                            
  654 points on ppm-axis = NY
      4.000000     3.994181     3.988363     3.982544     3.976726     3.970907     3.965088     3.959270     3.953451     3.947633
      3.941814     3.935995     3.930177     3.924358     3.918540     3.912721     3.906902     3.901084     3.895265     3.889446
      3.883628     3.877809     3.871991     3.866172     3.860353     3.854535     3.848716     3.842898     3.837079     3.831260
      3.825442     3.819623     3.813805     3.807986     3.802167     3.796349     3.790530     3.784712     3.778893     3.773074
      3.767256     3.761437     3.755619     3.749800     3.743981     3.738163     3.732344     3.726526     3.720707     3.714888
      3.709070     3.703251     3.697433     3.691614     3.685795     3.679977     3.674158     3.668339     3.662521     3.656702
      3.650884     3.645065     3.639246     3.633428     3.627609     3.621791     3.615972     3.610153     3.604335     3.598516
      3.592698     3.586879     3.581060     3.575242     3.569423     3.563605     3.557786     3.551967     3.546149     3.540330
      3.534512     3.528693     3.522874     3.517056     3.511237     3.505419     3.499600     3.493781     3.487963     3.482144
      3.476326     3.470507     3.464688     3.458870     3.453051     3.447232     3.441414     3.435595     3.429777     3.423958
      3.418139     3.412321     3.406502     3.400684     3.394865     3.389046     3.383228     3.377409     3.371591     3.365772
      3.359953     3.354135     3.348316     3.342498     3.336679     3.330860     3.325042     3.319223     3.313405     3.307586
      3.301767     3.295949     3.290130     3.284312     3.278493     3.272674     3.266856     3.261037     3.255219     3.249400
      3.243581     3.237763     3.231944     3.226125     3.220307     3.214488     3.208670     3.202851     3.197032     3.191214
      3.185395     3.179577     3.173758     3.167939     3.162121     3.156302     3.150484     3.144665     3.138846     3.133028
      3.127209     3.121391     3.115572     3.109753     3.103935     3.098116     3.092298     3.086479     3.080660     3.074842
      3.069023     3.063205     3.057386     3.051567     3.045749     3.039930     3.034111     3.028293     3.022474     3.016656
      3.010837     3.005018     2.999200     2.993381     2.987563     2.981744     2.975925     2.970107     2.964288     2.958470
      2.952651     2.946832     2.941014     2.935195     2.929377     2.923558     2.917739     2.911921     2.906102     2.900284
      2.894465     2.888646     2.882828     2.877009     2.871191     2.865372     2.859553     2.853735     2.847916     2.842098
      2.836279     2.830460     2.824642     2.818823     2.813004     2.807186     2.801367     2.795549     2.789730     2.783911
      2.778093     2.772274     2.766456     2.760637     2.754818     2.749000     2.743181     2.737363     2.731544     2.725725
      2.719907     2.714088     2.708270     2.702451     2.696632     2.690814     2.684995     2.679177     2.673358     2.667539
      2.661721     2.655902     2.650084     2.644265     2.638446     2.632628     2.626809     2.620991     2.615172     2.609353
      2.603535     2.597716     2.591897     2.586079     2.580260     2.574442     2.568623     2.562804     2.556986     2.551167
      2.545349     2.539530     2.533711     2.527893     2.522074     2.516256     2.510437     2.504618     2.498800     2.492981
      2.487163     2.481344     2.475525     2.469707     2.463888     2.458070     2.452251     2.446432     2.440614     2.434795
      2.428977     2.423158     2.417339     2.411521     2.405702     2.399884     2.394065     2.388246     2.382428     2.376609
      2.370790     2.364972     2.359153     2.353335     2.347516     2.341697     2.335879     2.330060     2.324242     2.318423
      2.312604     2.306786     2.300967     2.295149     2.289330     2.283511     2.277693     2.271874     2.266056     2.260237
      2.254418     2.248600     2.242781     2.236963     2.231144     2.225325     2.219507     2.213688     2.207870     2.202051
      2.196232     2.190414     2.184595     2.178777     2.172958     2.167139     2.161321     2.155502     2.149683     2.143865
      2.138046     2.132228     2.126409     2.120590     2.114772     2.108953     2.103135     2.097316     2.091497     2.085679
      2.079860     2.074042     2.068223     2.062404     2.056586     2.050767     2.044949     2.039130     2.033311     2.027493
      2.021674     2.015856     2.010037     2.004218     1.998400     1.992581     1.986763     1.980944     1.975126     1.969307
      1.963489     1.957670     1.951852     1.946033     1.940215     1.934397     1.928578     1.922760     1.916941     1.911123
      1.905304     1.899486     1.893667     1.887849     1.882030     1.876212     1.870393     1.864575     1.858756     1.852938
      1.847119     1.841301     1.835482     1.829664     1.823845     1.818027     1.812208     1.806390     1.800571     1.794753
      1.788934     1.783116     1.777297     1.771479     1.765660     1.759842     1.754023     1.748205     1.742386     1.736568
      1.730749     1.724931     1.719113     1.713294     1.707476     1.701657     1.695839     1.690020     1.684202     1.678383
      1.672565     1.666746     1.660928     1.655109     1.649291     1.643472     1.637654     1.631835     1.626017     1.620198
      1.614380     1.608561     1.602743     1.596924     1.591106     1.585287     1.579469     1.573650     1.567832     1.562013
      1.556195     1.550376     1.544558     1.538739     1.532921     1.527102     1.521284     1.515465     1.509647     1.503829
      1.498010     1.492192     1.486373     1.480555     1.474736     1.468918     1.463099     1.457281     1.451462     1.445644
      1.439825     1.434007     1.428188     1.422370     1.416551     1.410733     1.404914     1.399096     1.393277     1.387459
      1.381640     1.375822     1.370003     1.364185     1.358366     1.352548     1.346729     1.340911     1.335092     1.329274
      1.323455     1.317637     1.311818     1.306000     1.300182     1.294363     1.288545     1.282726     1.276908     1.271089
      1.265271     1.259452     1.253634     1.247815     1.241997     1.236178     1.230360     1.224541     1.218723     1.212904
      1.207086     1.201267     1.195449     1.189630     1.183812     1.177993     1.172175     1.166356     1.160538     1.154719
      1.148901     1.143082     1.137264     1.131445     1.125627     1.119808     1.113990     1.108171     1.102353     1.096534
      1.090716     1.084898     1.079079     1.073261     1.067442     1.061624     1.055805     1.049987     1.044168     1.038350
      1.032531     1.026713     1.020894     1.015076     1.009257     1.003439     0.997620     0.991802     0.985983     0.980165
      0.974346     0.968528     0.962709     0.956891     0.951072     0.945254     0.939435     0.933617     0.927798     0.921980
      0.916161     0.910343     0.904524     0.898706     0.892887     0.887069     0.881251     0.875432     0.869614     0.863795
      0.857977     0.852158     0.846340     0.840521     0.834703     0.828884     0.823066     0.817247     0.811429     0.805610
      0.799792     0.793973     0.788155     0.782336     0.776518     0.770699     0.764881     0.759062     0.753244     0.747425
      0.741607     0.735788     0.729970     0.724151     0.718333     0.712514     0.706696     0.700877     0.695059     0.689240
      0.683422     0.677603     0.671785     0.665967     0.660148     0.654330     0.648511     0.642693     0.636874     0.631056
      0.625237     0.619419     0.613600     0.607782     0.601963     0.596145     0.590326     0.584508     0.578689     0.572871
      0.567052     0.561234     0.555415     0.549597     0.543778     0.537960     0.532141     0.526323     0.520504     0.514686
      0.508867     0.503049     0.497230     0.491412     0.485593     0.479775     0.473956     0.468138     0.462319     0.456501
      0.450682     0.444864     0.439045     0.433227     0.427408     0.421590     0.415771     0.409953     0.404134     0.398316
      0.392497     0.386679     0.380860     0.375042     0.369223     0.363405     0.357586     0.351767     0.345949     0.340130
      0.334312     0.328493     0.322675     0.316856     0.311038     0.305219     0.299401     0.293582     0.287764     0.281945
      0.276127     0.270308     0.264490     0.258671     0.252853     0.247034     0.241216     0.235397     0.229579     0.223760
      0.217942     0.212123     0.206305     0.200486
 NY phased data points follow
  -6.93193E-02 -6.03705E-02  2.42379E-02 -3.20505E-02 -1.16002E-01  1.20663E-01 -2.44440E-01 -2.47659E-01  1.60734E-01  3.36334E-01
   4.78416E-01  1.83857E-01  3.36043E-01  5.13828E-02  1.96207E-01  3.18451E-01 -1.88720E-01  3.08708E-01  1.80832E-01  8.58418E-02
   3.31039E-02 -2.54078E-01 -2.39399E-01 -6.69236E-02 -9.74995E-02 -1.11601E-01 -9.77326E-02 -3.39876E-01  5.47281E-02  3.75461E-02
  -1.07369E-02 -1.09914E-01 -1.56554E-01  1.94367E-01 -2.54134E-01 -3.00070E-01  4.64751E-02  1.12690E-01 -2.60706E-01 -2.32333E-01
   1.22686E-01 -1.80494E-01  2.49903E-01 -1.28244E-02 -1.88984E-01  6.86004E-01  1.26958E-01 -1.28320E-01  9.63405E-02 -2.25735E-01
   2.11631E-01  1.87158E-01  1.22188E-01  1.76832E-01 -8.27251E-02 -1.12209E-01 -4.94618E-02  3.86322E-01 -1.49735E-01  1.01131E-01
  -7.35352E-02 -8.48100E-02  2.68804E-01 -4.40537E-01  1.45131E-01 -2.03461E-01 -2.26935E-01 -3.13265E-01  7.29638E-02  2.72922E-01
  -4.32302E-02  1.58904E-01 -5.07496E-01  3.42035E-01  3.43788E-01  2.27787E-02 -2.98889E-01 -5.46585E-01  4.28411E-01 -5.01448E-02
  -2.49788E-01  1.15948E-01 -5.13492E-01 -1.99586E-01  1.67953E-01  9.12722E-04 -2.21772E-02 -4.66851E-02  1.06288E-01  4.58473E-02
   2.52111E-01 -1.76687E-01 -1.11493E-01 -7.20456E-02 -3.09217E-02 -8.86148E-02 -1.61877E-01  5.74716E-02 -3.72236E-01  2.63673E-01
  -1.41640E-01 -9.45976E-02  2.58124E-01  1.56145E-01  5.58232E-01  1.69135E-01  2.41560E-01  4.33958E-01  3.68907E-01  2.91207E-01
   1.56295E-01  1.84701E-01  4.50305E-01  4.18820E-01  4.84746E-01  3.79769E-01  3.65886E-01  4.10040E-01  2.47503E-01  3.50442E-01
   7.46575E-02 -3.30869E-02  2.98805E-02 -1.81890E-01 -2.73329E-01 -6.39893E-02 -1.26943E-01 -3.36435E-01 -5.59662E-01 -1.99869E-01
   5.40335E-02 -2.00022E-01 -2.41456E-01 -5.54913E-01 -4.65526E-01 -3.58981E-01 -3.71903E-01 -5.27333E-01 -2.84842E-01 -6.02929E-02
  -5.00227E-01 -2.45230E-01 -1.91253E-01  5.32440E-02  1.21594E-01  1.80000E-01  2.18533E-01 -2.65313E-01  5.19960E-01  2.50935E-01
  -2.09392E-02  5.34328E-01  1.57975E-01  9.79414E-02  5.71589E-01  4.09210E-01  7.65738E-02  3.59735E-01  2.86950E-02  3.81618E-01
   2.55384E-01  4.03880E-01  9.42679E-01  2.20506E-01  2.36568E-01  2.86343E-01  3.62262E-01  5.28774E-01  3.43657E-03 -3.59676E-01
   2.90361E-01 -1.67401E-01 -3.13025E-01 -1.37936E-01 -6.95519E-01 -2.94797E-01 -5.14551E-01 -3.72519E-01 -1.13280E-01 -6.11397E-01
  -5.74198E-01 -3.29165E-01 -2.33384E-01  2.38065E-02 -4.13315E-01 -3.56758E-01 -1.21760E-01 -2.26611E-01  3.18609E-01  1.16452E-02
  -1.78047E-01  3.78824E-02  2.31009E-01  8.26270E-02 -4.48289E-02 -3.24485E-02 -2.38549E-01 -3.52548E-01 -3.25913E-01 -2.00546E-01
  -1.36422E-01  2.74076E-02 -4.21152E-01 -2.72946E-01  1.68687E-01  2.20241E-01  8.69060E-02  3.51040E-02  1.05558E-01 -2.62705E-01
  -2.03513E-01 -2.41191E-01 -2.96680E-02 -2.48026E-01 -2.34286E-01  2.86276E-02 -2.84123E-01  1.22144E-01 -3.45045E-01 -2.52813E-01
  -2.31633E-02  1.33820E-01  2.99910E-01 -1.09958E-01  4.63886E-01 -8.90799E-02  2.29598E-01  6.62137E-01  3.08145E-01  1.90137E-01
  -1.28868E-01  3.07602E-01  8.77523E-02 -2.62247E-01 -3.78176E-01 -2.78246E-02 -3.39536E-01 -2.93594E-01  1.50074E-01 -2.00105E-02
   3.15878E-01 -2.39655E-03  1.56901E-01 -1.43499E-01 -5.32734E-01 -1.15108E-01 -8.95535E-02  1.20885E-02  1.36178E-01  2.24994E-01
  -2.50278E-01 -9.36669E-02  1.72530E-01 -2.22986E-01 -1.24886E-01 -1.52335E-01  1.03044E-01 -8.04184E-02  5.60220E-02  3.31358E-01
  -2.61223E-01  1.53103E-02  1.70275E-02 -3.56277E-02  4.93447E-01  2.69616E-01 -3.78659E-01 -2.91465E-02  2.15134E-01  5.81764E-02
   8.47543E-02  1.56053E-01  1.53432E-01 -9.00845E-02 -2.17650E-02  3.15392E-03  3.26380E-01 -3.20765E-01 -5.56908E-01  1.41417E-01
  -6.27634E-02 -2.31279E-01  9.35531E-02  2.15122E-01 -7.24800E-02 -2.10297E-01 -2.06070E-02  4.31881E-01  1.87752E-01  1.67002E-01
   9.14281E-02  1.29547E-01  3.70109E-01  1.54997E-01 -1.11080E-01  3.00008E-01  5.44573E-01  1.74197E-01  3.47470E-01 -8.51142E-02
   1.98800E-01  2.12593E-01  2.61687E-01  1.50277E-01  1.44326E-01  3.27957E-01 -3.55306E-01  4.66347E-01  5.45146E-01  3.76938E-01
   4.65159E-01  3.19727E-02 -2.50685E-01 -7.05026E-02 -4.60249E-02  1.34530E-01  3.49156E-01 -2.79642E-02  8.78850E-02 -2.13018E-01
  -2.82830E-01 -2.71799E-01 -1.99763E-01 -2.31878E-01  6.22594E-02  3.46204E-01 -1.97944E-01  6.08872E-02  6.26309E-02 -2.84939E-01
  -1.18969E-01 -1.70750E-01 -3.94692E-02  5.84646E-02 -1.90619E-01 -6.40184E-02 -2.11124E-01 -3.07657E-01 -3.51265E-01 -5.07030E-01
  -8.73794E-01 -1.02911E+00 -5.98616E-01 -5.62405E-01 -5.30926E-01 -3.74553E-01 -3.73558E-01 -4.76526E-01 -4.99753E-02  2.51428E-01
   1.13864E-01  1.38613E-01  1.65459E-01 -1.04413E-02  1.69913E-01  8.45149E-02  2.41947E-03  4.76991E-01 -2.11450E-01 -8.61386E-03
   4.42424E-01 -3.11725E-02  1.86517E-01  1.54765E-01 -1.55193E-01 -3.24318E-01 -2.17513E-02  2.80363E-01 -2.35600E-02 -1.83990E-01
  -2.40707E-01 -8.16413E-02  4.16522E-01  1.54536E-01 -1.04845E-01  7.29787E-02 -4.75165E-02  1.44228E-02  1.72296E-01  4.78541E-01
   4.53280E-01 -3.15487E-03  4.82112E-01  6.64376E-01  3.39263E-01  1.59586E-01 -6.09069E-02  4.08912E-01  2.21405E-02 -6.12111E-02
   2.92562E-01  1.75615E-01  2.92842E-01  1.53363E-01  1.40642E-01  1.38573E-01  3.51454E-01  4.29535E-02  5.88284E-01  3.52304E-01
  -3.36410E-01  2.62059E-01 -1.41649E-01 -1.23904E-01 -2.73229E-01 -1.47335E-01 -5.38860E-01 -2.57246E-01  4.24923E-01 -1.29671E-01
   1.34258E-01 -2.21566E-01 -2.61168E-01 -2.64518E-01 -4.08243E-01 -2.28416E-01 -2.39018E-01 -4.74874E-01 -2.70976E-01 -8.74486E-02
   1.97504E-01  4.18447E-02 -4.30097E-01  8.06905E-02 -2.79433E-01  3.03987E-01 -1.55745E-01 -3.88649E-01  6.48095E-02 -6.20691E-02
   4.46621E-01 -1.11625E-01 -2.88769E-01 -2.55027E-01  4.39935E-01 -9.44966E-02 -3.18137E-01 -2.86221E-02 -2.15903E-01  6.49641E-01
   9.45086E-02 -1.42468E-01  2.22117E-02 -1.51557E-03  2.41292E-01 -2.61742E-01 -1.79819E-01  8.43897E-02 -2.00651E-01  8.95320E-02
   4.48358E-02  6.16902E-02 -1.70056E-01  1.78811E-01  3.49975E-01 -2.46401E-01  1.39438E-01 -1.22252E-01  2.77621E-01  3.55928E-01
  -1.32717E-01 -1.54371E-01  7.17231E-02 -1.05992E-01 -2.45845E-01  2.22461E-01 -5.16909E-02  1.88117E-01 -1.41186E-01 -2.09796E-01
  -1.16259E-01 -4.43293E-01  1.19438E-01 -1.31101E-01 -2.72366E-01 -1.27954E-01 -7.89274E-02  2.97916E-02 -3.94071E-01  4.38490E-02
  -2.30901E-01 -2.87489E-01  2.14834E-01 -1.27993E-01 -9.71131E-02 -4.08759E-02  5.00400E-01  1.17200E-01  6.75734E-02  8.62449E-02
   1.32122E-01  3.79400E-01  9.83219E-02  5.93836E-01 -3.66621E-02 -3.07717E-01 -5.67275E-02 -1.03884E-01  2.37109E-01  4.54256E-01
  -1.95762E-01 -2.21384E-01  1.53543E-01  7.80624E-02  2.37915E-01  3.15870E-02  5.86317E-02  3.57685E-02  1.72616E-01 -1.32179E-01
   2.08724E-01  4.19858E-01 -9.41347E-02  6.74173E-02 -9.42231E-02  3.83116E-02  2.86252E-01  1.95196E-02 -1.29773E-01  1.44380E-01
   9.83646E-03 -3.05491E-01 -5.51570E-01 -3.67456E-01 -1.98726E-01 -1.36891E-01  1.88240E-01 -2.41854E-01 -6.55901E-01 -4.49835E-01
  -4.70849E-01 -5.97520E-01 -1.54119E-01 -2.84816E-01 -3.73319E-01  1.76722E-01 -3.76002E-01 -5.25652E-01 -1.02683E-01 -4.32422E-01
  -1.96088E-01 -3.36773E-01 -2.65203E-01  2.97193E-01  1.42170E-01 -9.10733E-02 -2.97417E-01 -8.63024E-03  2.49737E-01  1.20580E-01
   1.11156E-01  2.10062E-01 -7.47734E-02  7.20588E-02  2.09676E-01  3.32950E-01  1.40659E-01 -2.82550E-01  6.88633E-02  3.51319E-02
   1.96354E-01  7.74219E-03  2.45305E-03  1.21753E-01  1.33210E-01 -5.49083E-02 -8.84458E-02  2.42873E-01 -1.29942E-01  4.12504E-02
  -8.55715E-02  1.90584E-01  2.49215E-01 -2.11829E-02  2.91699E-01  1.31311E-01  1.85006E-01  9.65036E-02  1.69434E-02  4.03992E-02
   4.24180E-02  1.17571E-01  5.37770E-01  2.22576E-01 -4.23393E-01  1.38641E-01 -5.57283E-02  5.99692E-02  4.51206E-01  7.42050E-02
   1.24511E-01  9.53604E-04  5.34103E-02  5.51371E-02 -4.73815E-02  7.85528E-02  3.91997E-02  2.35074E-01  5.91299E-01 -7.59277E-02
  -2.04517E-01  3.60307E-01 -6.38922E-02  7.23757E-02  2.52302E-01 -7.31700E-03  6.41081E-02  3.09620E-01 -1.98152E-01  7.12433E-02
   3.64618E-01  1.06624E-02  5.44570E-01  7.54893E-02  6.97938E-02  1.76187E-01 -8.29425E-02  2.62323E-01  1.31559E-01  4.28870E-02
   2.70177E-01 -8.17146E-02 -2.17239E-01 -7.68565E-02 -6.06456E-02  3.85606E-01 -8.81107E-02  1.03628E-01  3.55516E-01 -1.31527E-01
   2.58724E-01  2.26221E-01 -1.59074E-01  1.38523E-01  1.36285E-01 -2.74752E-01  1.19739E-01  4.94064E-02 -3.06452E-01 -1.01451E-01
  -1.59564E-02  2.01338E-01  7.66794E-02 -4.68128E-02  2.01731E-02 -3.16525E-01  1.13174E-01  7.10356E-02 -2.69336E-01  2.99582E-01
   2.32875E-01  1.23168E-02  1.63592E-01  4.99860E-01
 NY points of the fit to the data follow
   1.26802E-01  8.79511E-02  1.21446E-01  9.13040E-02  1.33862E-01  1.14888E-01  1.65831E-01  1.57376E-01  2.09106E-01  2.17077E-01
   2.48955E-01  2.75201E-01  2.69346E-01  3.04656E-01  2.61096E-01  2.93437E-01  2.24822E-01  2.46087E-01  1.67097E-01  1.75469E-01
   1.03913E-01  9.73219E-02  4.61315E-02  2.90004E-02 -2.65087E-03 -2.37119E-02 -4.08451E-02 -6.44308E-02 -7.48527E-02 -9.64066E-02
  -1.02259E-01 -1.26686E-01 -1.21066E-01 -1.46547E-01 -1.23652E-01 -1.45209E-01 -1.03218E-01 -1.16053E-01 -5.95344E-02 -5.85045E-02
   8.38691E-05  1.93728E-02  6.46149E-02  9.96336E-02  1.20614E-01  1.61052E-01  1.54966E-01  1.88792E-01  1.59649E-01  1.79098E-01
   1.34952E-01  1.34979E-01  8.36290E-02  6.89683E-02  1.20160E-02 -6.06979E-03 -6.31454E-02 -7.78449E-02 -1.27238E-01 -1.28591E-01
  -1.63916E-01 -1.49284E-01 -1.57687E-01 -1.36583E-01 -1.02745E-01 -8.95664E-02 -1.78848E-02 -2.10573E-02  6.28785E-02  3.27681E-02
   1.07999E-01  5.52046E-02  1.01474E-01  3.43030E-02  4.82681E-02 -1.87742E-02 -2.95388E-02 -7.84951E-02 -9.40271E-02 -1.02688E-01
  -1.09942E-01 -7.55383E-02 -6.35889E-02 -5.00037E-03  1.85498E-02  7.93150E-02  1.00932E-01  1.38912E-01  1.53675E-01  1.47806E-01
   1.62657E-01  1.04827E-01  1.28448E-01  2.57893E-02  7.22835E-02 -5.76794E-02  2.72022E-02 -9.81691E-02  1.67790E-02 -8.37468E-02
   4.54349E-02 -2.17045E-02  9.66396E-02  6.32920E-02  1.54865E-01  1.48349E-01  2.06006E-01  2.13650E-01  2.40685E-01  2.51158E-01
   2.58926E-01  2.66103E-01  2.61964E-01  2.68538E-01  2.56106E-01  2.61473E-01  2.35460E-01  2.40786E-01  1.83706E-01  1.95190E-01
   9.65138E-02  1.19705E-01 -2.12008E-02  1.96287E-02 -1.62362E-01 -9.98595E-02 -3.01314E-01 -2.10339E-01 -4.00529E-01 -2.94281E-01
  -4.41845E-01 -3.48246E-01 -4.33115E-01 -3.71461E-01 -3.85949E-01 -3.56915E-01 -3.11209E-01 -3.07769E-01 -2.28972E-01 -2.36084E-01
  -1.50513E-01 -1.56546E-01 -8.03679E-02 -7.32234E-02 -1.85652E-02  1.23385E-03  3.71493E-02  6.06582E-02  8.52977E-02  1.08295E-01
   1.25928E-01  1.46142E-01  1.67146E-01  1.93886E-01  2.26596E-01  2.48800E-01  2.78141E-01  2.96479E-01  3.18397E-01  3.28173E-01
   3.29581E-01  3.23619E-01  2.82584E-01  2.60372E-01  1.61412E-01  1.40744E-01  4.29742E-04 -3.31697E-03 -1.53815E-01 -1.35778E-01
  -2.67967E-01 -2.33288E-01 -3.29490E-01 -2.83725E-01 -3.31291E-01 -2.88695E-01 -2.96370E-01 -2.67918E-01 -2.53706E-01 -2.39610E-01
  -2.14309E-01 -2.15773E-01 -1.96217E-01 -2.00145E-01 -1.80531E-01 -1.84357E-01 -1.67029E-01 -1.68792E-01 -1.54593E-01 -1.53490E-01
  -1.41978E-01 -1.37803E-01 -1.28822E-01 -1.22778E-01 -1.15479E-01 -1.08225E-01 -1.01966E-01 -9.50268E-02 -8.96307E-02 -8.37588E-02
  -7.94155E-02 -7.47489E-02 -7.16217E-02 -6.81177E-02 -6.63362E-02 -6.39579E-02 -6.33738E-02 -6.17946E-02 -6.20869E-02 -6.08489E-02
  -6.14817E-02 -6.04234E-02 -6.04737E-02 -5.61299E-02 -5.46319E-02 -4.69206E-02 -4.42735E-02 -3.06533E-02 -2.28156E-02 -5.19094E-04
   9.91285E-03  3.94857E-02  5.06968E-02  8.16919E-02  9.11521E-02  1.18730E-01  1.22276E-01  1.42379E-01  1.33307E-01  1.42737E-01
   1.20066E-01  1.17969E-01  8.63226E-02  7.70487E-02  4.30143E-02  3.12230E-02 -1.17658E-03 -1.24501E-02 -3.83215E-02 -4.53760E-02
  -6.36974E-02 -6.78813E-02 -8.22250E-02 -8.36718E-02 -9.56168E-02 -9.07628E-02 -1.08339E-01 -9.76296E-02 -1.18197E-01 -9.90684E-02
  -1.22377E-01 -9.31750E-02 -1.14847E-01 -7.67961E-02 -9.07651E-02 -5.26646E-02 -5.18508E-02 -2.16894E-02 -7.01348E-03  1.33379E-02
   3.28134E-02  4.88099E-02  6.03371E-02  7.77607E-02  7.29716E-02  9.57412E-02  7.14001E-02  9.72257E-02  5.81344E-02  7.92707E-02
   3.28107E-02  4.40402E-02 -3.34310E-03 -5.43236E-03 -4.47874E-02 -5.57622E-02 -8.51091E-02 -9.59819E-02 -1.12625E-01 -1.12543E-01
  -1.12134E-01 -9.71828E-02 -7.57598E-02 -5.02374E-02 -1.31142E-02  1.52986E-02  5.46990E-02  8.13066E-02  1.10459E-01  1.33784E-01
   1.46129E-01  1.65712E-01  1.61113E-01  1.77750E-01  1.62129E-01  1.76280E-01  1.58334E-01  1.69777E-01  1.56062E-01  1.64020E-01
   1.56799E-01  1.59538E-01  1.55799E-01  1.53812E-01  1.48636E-01  1.42929E-01  1.33296E-01  1.24180E-01  1.08126E-01  9.52520E-02
   7.17916E-02  5.52646E-02  2.43882E-02  6.25921E-03 -3.01587E-02 -4.54200E-02 -8.31517E-02 -8.97879E-02 -1.24178E-01 -1.17538E-01
  -1.44565E-01 -1.23937E-01 -1.40745E-01 -1.10462E-01 -1.16306E-01 -8.49460E-02 -8.15524E-02 -5.81303E-02 -4.89425E-02 -3.90488E-02
  -5.54129E-02 -6.25953E-02 -1.04290E-01 -1.19962E-01 -1.97473E-01 -2.16437E-01 -3.31972E-01 -3.50701E-01 -4.80054E-01 -4.92175E-01
  -5.82599E-01 -5.78556E-01 -6.01906E-01 -5.79639E-01 -5.40077E-01 -5.04582E-01 -4.24400E-01 -3.82253E-01 -2.83792E-01 -2.40506E-01
  -1.59306E-01 -1.23626E-01 -7.62697E-02 -5.28260E-02 -3.19904E-02 -2.03447E-02 -2.21077E-02 -2.11159E-02 -1.80923E-02 -2.16327E-02
  -1.59327E-02 -2.32143E-02 -1.39444E-02 -2.25255E-02 -1.03116E-02 -1.78355E-02 -4.20416E-03 -9.04086E-03  4.11669E-03  2.52536E-03
   1.38501E-02  1.49087E-02  2.39464E-02  2.64336E-02  3.35185E-02  3.62820E-02  4.21226E-02  4.45433E-02  4.96693E-02  5.18340E-02
   5.63219E-02  5.87329E-02  6.22586E-02  6.52303E-02  6.76073E-02  7.12202E-02  7.24799E-02  7.64518E-02  7.67332E-02  8.03296E-02
   7.97983E-02  8.23295E-02  8.10229E-02  8.20437E-02  7.99311E-02  7.92643E-02  7.61577E-02  7.39319E-02  6.97186E-02  6.63156E-02
   6.10253E-02  5.69384E-02  5.08760E-02  4.64761E-02  4.01454E-02  3.55979E-02  2.95454E-02  2.49927E-02  1.95994E-02  1.51964E-02
   1.06226E-02  6.56637E-03  2.83151E-03 -7.84705E-04 -3.72241E-03 -6.72727E-03 -8.89211E-03 -1.10881E-02 -1.23433E-02 -1.36836E-02
  -1.38107E-02 -1.43086E-02 -1.31547E-02 -1.27802E-02 -1.02835E-02 -9.05757E-03 -5.49305E-03 -3.36279E-03  8.70165E-04  4.11796E-03
   8.71556E-03  1.33943E-02  1.82499E-02  2.45044E-02  2.97829E-02  3.76062E-02  4.35659E-02  5.27613E-02  5.97413E-02  6.97532E-02
   7.78117E-02  8.79103E-02  9.66577E-02  1.06100E-01  1.14791E-01  1.22834E-01  1.30316E-01  1.36353E-01  1.41637E-01  1.45349E-01
   1.47729E-01  1.48894E-01  1.48086E-01  1.46508E-01  1.42922E-01  1.38639E-01  1.33046E-01  1.26378E-01  1.19759E-01  1.11202E-01
   1.04487E-01  9.47316E-02  8.85314E-02  7.85224E-02  7.31517E-02  6.38218E-02  5.93826E-02  5.14969E-02  4.80384E-02  4.20542E-02
   3.97908E-02  3.59294E-02  3.50172E-02  3.32464E-02  3.38176E-02  3.39219E-02  3.58419E-02  3.75362E-02  4.04937E-02  4.33635E-02
   4.68270E-02  5.03738E-02  5.36802E-02  5.74409E-02  6.01328E-02  6.35868E-02  6.54508E-02  6.81668E-02  6.90221E-02  7.07125E-02
   7.05247E-02  7.10471E-02  6.99318E-02  6.92477E-02  6.74437E-02  6.56014E-02  6.33394E-02  6.06371E-02  5.80537E-02  5.47664E-02
   5.19990E-02  4.84219E-02  4.54682E-02  4.18718E-02  3.86730E-02  3.51660E-02  3.15740E-02  2.80325E-02  2.38482E-02  1.99138E-02
   1.47681E-02  9.98311E-03  3.54101E-03 -2.49687E-03 -1.06426E-02 -1.82733E-02 -2.84249E-02 -3.77352E-02 -4.99372E-02 -6.06668E-02
  -7.42870E-02 -8.58387E-02 -9.99199E-02 -1.11365E-01 -1.24647E-01 -1.34953E-01 -1.46168E-01 -1.54282E-01 -1.62386E-01 -1.67616E-01
  -1.72112E-01 -1.74025E-01 -1.75005E-01 -1.73661E-01 -1.71651E-01 -1.67496E-01 -1.63229E-01 -1.56821E-01 -1.50945E-01 -1.42909E-01
  -1.35850E-01 -1.26739E-01 -1.18712E-01 -1.09222E-01 -1.00319E-01 -9.10071E-02 -8.12218E-02 -7.25928E-02 -6.23420E-02 -5.45837E-02
  -4.43325E-02 -3.75337E-02 -2.78309E-02 -2.19662E-02 -1.32841E-02 -8.18380E-03 -8.79158E-04  3.66341E-03  9.40883E-03  1.34810E-02
   1.78116E-02  2.13797E-02  2.46057E-02  2.76536E-02  3.00529E-02  3.26267E-02  3.45446E-02  3.67154E-02  3.84191E-02  4.02095E-02
   4.18277E-02  4.32781E-02  4.48592E-02  4.58555E-02  4.73018E-02  4.79601E-02  4.92058E-02  4.96059E-02  5.05840E-02  5.06809E-02
   5.14257E-02  5.14032E-02  5.19474E-02  5.18927E-02  5.22064E-02  5.22549E-02  5.22902E-02  5.23253E-02  5.21825E-02  5.22780E-02
   5.20222E-02  5.21733E-02  5.19397E-02  5.20456E-02  5.20316E-02  5.20044E-02  5.24418E-02  5.22949E-02  5.33588E-02  5.31129E-02
   5.47125E-02  5.43904E-02  5.64040E-02  5.60512E-02  5.83093E-02  5.78518E-02  6.02704E-02  5.96965E-02  6.21542E-02  6.13031E-02
   6.38416E-02  6.29446E-02  6.55122E-02  6.47768E-02  6.72999E-02  6.68876E-02  6.93011E-02  6.93621E-02  7.15524E-02  7.21880E-02
   7.39781E-02  7.49948E-02  7.63852E-02  7.74125E-02  7.86442E-02  7.94266E-02  8.06134E-02  8.11606E-02  8.23822E-02  8.27771E-02
   8.40335E-02  8.44965E-02  8.57582E-02  8.65952E-02  8.77177E-02  8.90839E-02  9.01426E-02  9.21326E-02  9.32060E-02  9.57341E-02
   9.69741E-02  9.99310E-02  1.01503E-01  1.04987E-01  1.06974E-01  1.11017E-01  1.13254E-01  1.17925E-01  1.20261E-01  1.25586E-01
   1.28064E-01  1.33972E-01  1.36818E-01  1.43269E-01
 NY background values follow
     6.202E-02    6.188E-02    6.173E-02    6.158E-02    6.144E-02    6.129E-02    6.114E-02    6.100E-02    6.085E-02    6.071E-02
     6.056E-02    6.041E-02    6.027E-02    6.012E-02    5.997E-02    5.983E-02    5.968E-02    5.954E-02    5.939E-02    5.924E-02
     5.910E-02    5.895E-02    5.880E-02    5.866E-02    5.851E-02    5.836E-02    5.822E-02    5.807E-02    5.792E-02    5.778E-02
     5.763E-02    5.748E-02    5.734E-02    5.719E-02    5.704E-02    5.690E-02    5.675E-02    5.660E-02    5.646E-02    5.631E-02
     5.616E-02    5.602E-02    5.587E-02    5.572E-02    5.558E-02    5.543E-02    5.528E-02    5.514E-02    5.499E-02    5.484E-02
     5.470E-02    5.455E-02    5.440E-02    5.425E-02    5.411E-02    5.396E-02    5.381E-02    5.367E-02    5.352E-02    5.337E-02
     5.322E-02    5.308E-02    5.293E-02    5.278E-02    5.264E-02    5.249E-02    5.234E-02    5.219E-02    5.205E-02    5.190E-02
