 
 $NMID
 ID=''
 FMTDAT='(2E13.5)'
 TRAMP=   1.00000E+0
 VOLUME=   1.00000E+0
 $END
  -5.97051E+3   1.85192E+4
  -2.83333E+4   4.14052E+4
  -2.06915E+4   4.54516E+4
  -1.92491E+4   4.16973E+4
  -2.14517E+4   4.26164E+4
  -1.95980E+4   4.34016E+4
  -1.96017E+4   4.15338E+4
  -2.09407E+4   4.16190E+4
  -1.98970E+4   4.21281E+4
  -1.97461E+4   4.07918E+4
  -2.05188E+4   4.06332E+4
  -1.95908E+4   4.08683E+4
  -1.94975E+4   3.99716E+4
  -2.02282E+4   3.97315E+4
  -1.96784E+4   3.97783E+4
  -1.95316E+4   3.89018E+4
  -2.00257E+4   3.87556E+4
  -1.96690E+4   3.86752E+4
  -1.95105E+4   3.80480E+4
  -2.00258E+4   3.77980E+4
  -1.96952E+4   3.74505E+4
  -1.94045E+4   3.69471E+4
  -1.97590E+4   3.67909E+4
  -1.95666E+4   3.64904E+4
  -1.93093E+4   3.59046E+4
  -1.93790E+4   3.56638E+4
  -1.93480E+4   3.55416E+4
  -1.92419E+4   3.49754E+4
  -1.93366E+4   3.45950E+4
  -1.91742E+4   3.44603E+4
  -1.89629E+4   3.42269E+4
  -1.89210E+4   3.41172E+4
  -1.89106E+4   3.39509E+4
  -1.88829E+4   3.35124E+4
  -1.88821E+4   3.33370E+4
  -1.87537E+4   3.31554E+4
  -1.86442E+4   3.28506E+4
  -1.86333E+4   3.26116E+4
  -1.85365E+4   3.23694E+4
  -1.84618E+4   3.21238E+4
  -1.84657E+4   3.19177E+4
  -1.85625E+4   3.16835E+4
  -1.84470E+4   3.11894E+4
  -1.84187E+4   3.08615E+4
  -1.82637E+4   3.06366E+4
  -1.82929E+4   3.03453E+4
  -1.82033E+4   3.01249E+4
  -1.82110E+4   2.98163E+4
  -1.81125E+4   2.94573E+4
  -1.80374E+4   2.92269E+4
  -1.80461E+4   2.89659E+4
  -1.78776E+4   2.86706E+4
  -1.77350E+4   2.84062E+4
  -1.77155E+4   2.82312E+4
  -1.76359E+4   2.79759E+4
  -1.75968E+4   2.76410E+4
  -1.75807E+4   2.74034E+4
  -1.74449E+4   2.70923E+4
  -1.74160E+4   2.67572E+4
  -1.73258E+4   2.64621E+4
  -1.71601E+4   2.61866E+4
  -1.71321E+4   2.60193E+4
  -1.71086E+4   2.57403E+4
  -1.69508E+4   2.54073E+4
  -1.68794E+4   2.51665E+4
  -1.67925E+4   2.49900E+4
  -1.65705E+4   2.47953E+4
  -1.65513E+4   2.45003E+4
  -1.63532E+4   2.42228E+4
  -1.62599E+4   2.39786E+4
  -1.61828E+4   2.37571E+4
  -1.60671E+4   2.35183E+4
  -1.59537E+4   2.33065E+4
  -1.57913E+4   2.30316E+4
  -1.56276E+4   2.28851E+4
  -1.55665E+4   2.26897E+4
  -1.53707E+4   2.25073E+4
  -1.52721E+4   2.22801E+4
  -1.51620E+4   2.21248E+4
  -1.50548E+4   2.20263E+4
  -1.48992E+4   2.17791E+4
  -1.47501E+4   2.16265E+4
  -1.46683E+4   2.14924E+4
  -1.46162E+4   2.12296E+4
  -1.44611E+4   2.11071E+4
  -1.43009E+4   2.08726E+4
  -1.42432E+4   2.07299E+4
  -1.41719E+4   2.04053E+4
  -1.39506E+4   2.03165E+4
  -1.39037E+4   2.01795E+4
  -1.37494E+4   2.00117E+4
  -1.35772E+4   1.99063E+4
  -1.35211E+4   1.97892E+4
  -1.33705E+4   1.96794E+4
  -1.33586E+4   1.95109E+4
  -1.31816E+4   1.93236E+4
  -1.29796E+4   1.91207E+4
  -1.28982E+4   1.90657E+4
  -1.28288E+4   1.90469E+4
  -1.27354E+4   1.87940E+4
  -1.25852E+4   1.86386E+4
  -1.23962E+4   1.84914E+4
  -1.23648E+4   1.83824E+4
  -1.21636E+4   1.82242E+4
  -1.21379E+4   1.81044E+4
  -1.20519E+4   1.80068E+4
  -1.19790E+4   1.78557E+4
  -1.17948E+4   1.77331E+4
  -1.17306E+4   1.75640E+4
  -1.15919E+4   1.74007E+4
  -1.13565E+4   1.73186E+4
  -1.13018E+4   1.72254E+4
  -1.12043E+4   1.71007E+4
  -1.11397E+4   1.69656E+4
  -1.10210E+4   1.68487E+4
  -1.09402E+4   1.67110E+4
  -1.08633E+4   1.65933E+4
  -1.07088E+4   1.64688E+4
  -1.05863E+4   1.63496E+4
  -1.04668E+4   1.62336E+4
  -1.04430E+4   1.60626E+4
  -1.03108E+4   1.60134E+4
  -1.02128E+4   1.58704E+4
  -1.00714E+4   1.57376E+4
  -1.00473E+4   1.55943E+4
  -9.94935E+3   1.55107E+4
  -9.79870E+3   1.53411E+4
  -9.70275E+3   1.52317E+4
  -9.59237E+3   1.50983E+4
  -9.50272E+3   1.50118E+4
  -9.39737E+3   1.48191E+4
  -9.29129E+3   1.47645E+4
  -9.17139E+3   1.46489E+4
  -9.05143E+3   1.46525E+4
  -8.96642E+3   1.44287E+4
  -8.96044E+3   1.42831E+4
  -8.87916E+3   1.41565E+4
  -8.73969E+3   1.40789E+4
  -8.59510E+3   1.38935E+4
  -8.53523E+3   1.38006E+4
  -8.44565E+3   1.36693E+4
  -8.32873E+3   1.36006E+4
  -8.20735E+3   1.35624E+4
  -8.06309E+3   1.33593E+4
  -8.02635E+3   1.33008E+4
  -7.90860E+3   1.32025E+4
  -7.82411E+3   1.31443E+4
  -7.71429E+3   1.30292E+4
  -7.63332E+3   1.28932E+4
  -7.53990E+3   1.28770E+4
  -7.51510E+3   1.26847E+4
  -7.41286E+3   1.26322E+4
  -7.34443E+3   1.25177E+4
  -7.20855E+3   1.24567E+4
  -7.08737E+3   1.23264E+4
  -7.01548E+3   1.21442E+4
  -6.91803E+3   1.22335E+4
  -6.85891E+3   1.20254E+4
  -6.77113E+3   1.20070E+4
  -6.67909E+3   1.18679E+4
  -6.63579E+3   1.17989E+4
  -6.56874E+3   1.16967E+4
  -6.41233E+3   1.16320E+4
  -6.37885E+3   1.15067E+4
  -6.35301E+3   1.15376E+4
  -6.24472E+3   1.14584E+4
  -6.23885E+3   1.13566E+4
  -6.12075E+3   1.12565E+4
  -6.03129E+3   1.11344E+4
  -5.92529E+3   1.11718E+4
  -5.92008E+3   1.10339E+4
  -5.91550E+3   1.09399E+4
  -5.76123E+3   1.08182E+4
  -5.72134E+3   1.08062E+4
  -5.68827E+3   1.07245E+4
  -5.64969E+3   1.05734E+4
  -5.64692E+3   1.05431E+4
  -5.48684E+3   1.04648E+4
  -5.46451E+3   1.03787E+4
  -5.43360E+3   1.02828E+4
  -5.39770E+3   1.02022E+4
  -5.25538E+3   1.01233E+4
  -5.21538E+3   1.00646E+4
  -5.21398E+3   1.00506E+4
  -5.11801E+3   9.89710E+3
  -5.08109E+3   9.85684E+3
  -5.05991E+3   9.74647E+3
  -5.02168E+3   9.68887E+3
  -4.96273E+3   9.58712E+3
  -4.87129E+3   9.49090E+3
  -4.86270E+3   9.39357E+3
  -4.81358E+3   9.32054E+3
  -4.78577E+3   9.33860E+3
  -4.77023E+3   9.22588E+3
  -4.68928E+3   9.10467E+3
  -4.63292E+3   9.04993E+3
  -4.57255E+3   8.97637E+3
  -4.57041E+3   8.90754E+3
  -4.55529E+3   8.79666E+3
  -4.51081E+3   8.67438E+3
  -4.44111E+3   8.67080E+3
  -4.41881E+3   8.58445E+3
  -4.35208E+3   8.48451E+3
  -4.30663E+3   8.43216E+3
  -4.32212E+3   8.34753E+3
  -4.20859E+3   8.25759E+3
  -4.21774E+3   8.16942E+3
  -4.19198E+3   8.14034E+3
  -4.17584E+3   8.02620E+3
  -4.08506E+3   7.98782E+3
  -4.00992E+3   7.96353E+3
  -4.05140E+3   7.84200E+3
  -3.98813E+3   7.80728E+3
  -3.90108E+3   7.69660E+3
  -3.95761E+3   7.65332E+3
  -3.87323E+3   7.53674E+3
  -3.84447E+3   7.53045E+3
  -3.79935E+3   7.45514E+3
  -3.75404E+3   7.38786E+3
  -3.73643E+3   7.25879E+3
  -3.71948E+3   7.23665E+3
  -3.70168E+3   7.13818E+3
  -3.56107E+3   7.09575E+3
  -3.61084E+3   7.08882E+3
  -3.55027E+3   6.94748E+3
  -3.62063E+3   6.89900E+3
  -3.53907E+3   6.82551E+3
  -3.47930E+3   6.74071E+3
  -3.44385E+3   6.71352E+3
  -3.36833E+3   6.64678E+3
  -3.39445E+3   6.54881E+3
  -3.34269E+3   6.48197E+3
  -3.30788E+3   6.46390E+3
  -3.28242E+3   6.31305E+3
  -3.23931E+3   6.26169E+3
  -3.23926E+3   6.22739E+3
  -3.23610E+3   6.18756E+3
  -3.16280E+3   6.07425E+3
  -3.12083E+3   6.04261E+3
  -3.05127E+3   5.99350E+3
  -3.08393E+3   5.90474E+3
  -3.08069E+3   5.87087E+3
  -2.98675E+3   5.85450E+3
  -2.97229E+3   5.72660E+3
  -2.93072E+3   5.57807E+3
  -2.96703E+3   5.60365E+3
  -2.87625E+3   5.62385E+3
  -2.87291E+3   5.48879E+3
  -2.82781E+3   5.42515E+3
  -2.78432E+3   5.41941E+3
  -2.77404E+3   5.33045E+3
  -2.72269E+3   5.23795E+3
  -2.73002E+3   5.23217E+3
  -2.69776E+3   5.12129E+3
  -2.69044E+3   5.09720E+3
  -2.66594E+3   5.09075E+3
  -2.58013E+3   5.02732E+3
  -2.55947E+3   4.88861E+3
  -2.56884E+3   4.85585E+3
  -2.48547E+3   4.83729E+3
  -2.50856E+3   4.75307E+3
  -2.49149E+3   4.75034E+3
  -2.54528E+3   4.67114E+3
  -2.35923E+3   4.63156E+3
  -2.38610E+3   4.58074E+3
  -2.36322E+3   4.53987E+3
  -2.30783E+3   4.48312E+3
  -2.30927E+3   4.45062E+3
  -2.28961E+3   4.37429E+3
  -2.23548E+3   4.28291E+3
  -2.21860E+3   4.29338E+3
  -2.27647E+3   4.18088E+3
  -2.21064E+3   4.18150E+3
  -2.21696E+3   4.12201E+3
  -2.17168E+3   4.08823E+3
  -2.15731E+3   4.07177E+3
  -2.09454E+3   3.96902E+3
  -2.06002E+3   3.94532E+3
  -2.05653E+3   3.85056E+3
  -2.06529E+3   3.90076E+3
  -1.98577E+3   3.86273E+3
  -1.97323E+3   3.76751E+3
  -1.96366E+3   3.69893E+3
  -1.94301E+3   3.68727E+3
  -1.94437E+3   3.62055E+3
  -1.87433E+3   3.61312E+3
  -1.91267E+3   3.53740E+3
  -1.91928E+3   3.44645E+3
  -1.87726E+3   3.41702E+3
  -1.85420E+3   3.37803E+3
  -1.78803E+3   3.31322E+3
  -1.82931E+3   3.30851E+3
  -1.78536E+3   3.28487E+3
  -1.75049E+3   3.19177E+3
  -1.76616E+3   3.13879E+3
  -1.73739E+3   3.10077E+3
  -1.64790E+3   3.08627E+3
  -1.70646E+3   3.03284E+3
  -1.70673E+3   2.98311E+3
  -1.62225E+3   2.94863E+3
  -1.53208E+3   2.91917E+3
  -1.55067E+3   2.87944E+3
  -1.55975E+3   2.90049E+3
  -1.54974E+3   2.80853E+3
  -1.50789E+3   2.74334E+3
  -1.53588E+3   2.76844E+3
  -1.49261E+3   2.74032E+3
  -1.47336E+3   2.61885E+3
  -1.50304E+3   2.65783E+3
  -1.48083E+3   2.63662E+3
  -1.36049E+3   2.56677E+3
  -1.44485E+3   2.54164E+3
  -1.36158E+3   2.52826E+3
  -1.34091E+3   2.48419E+3
  -1.42652E+3   2.46663E+3
  -1.38543E+3   2.40908E+3
  -1.31324E+3   2.42563E+3
  -1.33574E+3   2.30117E+3
  -1.31685E+3   2.31749E+3
  -1.30093E+3   2.24687E+3
  -1.17798E+3   2.20776E+3
  -1.23562E+3   2.23353E+3
  -1.21433E+3   2.16971E+3
  -1.16264E+3   2.15320E+3
  -1.19594E+3   2.08344E+3
  -1.13855E+3   2.10744E+3
  -1.16455E+3   2.07934E+3
  -1.18219E+3   2.09598E+3
  -1.16923E+3   1.99427E+3
  -1.07132E+3   2.01580E+3
  -1.13434E+3   1.94651E+3
  -1.09342E+3   1.89720E+3
  -1.07029E+3   1.94895E+3
  -1.10221E+3   1.88371E+3
  -1.04648E+3   1.84301E+3
  -1.03113E+3   1.79850E+3
  -1.04023E+3   1.86592E+3
  -9.99622E+2   1.72651E+3
  -9.30306E+2   1.71461E+3
  -9.68726E+2   1.72012E+3
  -1.00055E+3   1.67277E+3
  -9.56649E+2   1.68339E+3
  -9.02787E+2   1.64303E+3
  -9.13780E+2   1.67526E+3
  -8.92427E+2   1.57477E+3
  -9.41646E+2   1.54750E+3
  -9.12220E+2   1.48521E+3
  -8.86181E+2   1.57323E+3
  -8.67940E+2   1.49821E+3
  -8.21491E+2   1.50530E+3
  -8.62584E+2   1.46564E+3
  -8.17301E+2   1.48926E+3
  -8.16034E+2   1.41909E+3
  -8.58676E+2   1.39202E+3
  -8.31606E+2   1.42426E+3
  -8.46084E+2   1.38987E+3
  -7.63632E+2   1.34613E+3
  -7.48056E+2   1.31292E+3
  -7.76025E+2   1.35305E+3
  -7.64515E+2   1.29714E+3
  -7.01909E+2   1.27477E+3
  -7.56214E+2   1.26610E+3
  -7.39599E+2   1.30471E+3
  -7.59185E+2   1.24267E+3
  -7.08653E+2   1.23125E+3
  -6.99913E+2   1.23213E+3
  -7.22665E+2   1.17540E+3
