 LCModel (Version 6.3-1N) Copyright: S.W. Provencher.          Ref.: Magn. Reson. Med. 30:672-679 (1993).                
 Slice_N1@12_15  02-Jun-2023 14:36:31
 27 lines in following concentration table = NCONC+1
    Conc.  %SD /Cr+PCr  Metabolite                                         
 2.80E-06  19% 2.9E-04 Mac                                                 
 5.23E-02  25%   5.434 Cr                                                  
 2.47E-02  54%   2.566 PCr                                                 
    0.108  11%  11.197 Ins                                                 
    0.123   8%  12.770 NAA                                                 
 4.10E-02  26%   4.265 Tau                                                 
 7.75E-03  77%   0.805 PCho                                                
 1.21E-02  47%   1.260 GPC                                                 
 8.16E-02  16%   8.475 Glu                                                 
 3.49E-02  29%   3.624 Gln                                                 
    0.000 999%   0.000 Ala                                                 
 2.11E-03 882%   0.219 Asc                                                 
 1.46E-02  73%   1.517 Asp                                                 
 1.48E-02  39%   1.537 GABA                                                
 1.09E-02  64%   1.132 Glc                                                 
 1.56E-02  37%   1.623 GSH                                                 
    0.000 999%   0.000 Lac                                                 
 1.29E-02  53%   1.339 NAAG                                                
    0.000 999%   0.000 PE                                                  
 1.99E-02  15%   2.065 GPC+PCho                                            
    0.136   8%  14.109 NAA+NAAG                                            
    0.116  14%  12.100 Glu+Gln                                             
 7.70E-02  11%   8.000 Cr+PCr                                              
    0.136   8%  14.109 NAA+NAAG                                            
 7.70E-02  11%   8.000 Cr+PCr                                              
    0.116  14%  12.100 Glu+Gln                                             
   6 lines in following misc. output table
  FWHM = 0.023 ppm    S/N =   5                                            
  Data shift = 0.017 ppm                                                   
  Ph: -54 deg      -4.3 deg/ppm                                            
  alphaB,S = 7.6E+00,   1.7E+01                                            
   18 spline knots.   Ns = 5(1)                                            
   2 inflections.     2 extrema                                            
  654 points on ppm-axis = NY
      4.000000     3.994181     3.988363     3.982544     3.976726     3.970907     3.965088     3.959270     3.953451     3.947633
      3.941814     3.935995     3.930177     3.924358     3.918540     3.912721     3.906902     3.901084     3.895265     3.889446
      3.883628     3.877809     3.871991     3.866172     3.860353     3.854535     3.848716     3.842898     3.837079     3.831260
      3.825442     3.819623     3.813805     3.807986     3.802167     3.796349     3.790530     3.784712     3.778893     3.773074
      3.767256     3.761437     3.755619     3.749800     3.743981     3.738163     3.732344     3.726526     3.720707     3.714888
      3.709070     3.703251     3.697433     3.691614     3.685795     3.679977     3.674158     3.668339     3.662521     3.656702
      3.650884     3.645065     3.639246     3.633428     3.627609     3.621791     3.615972     3.610153     3.604335     3.598516
      3.592698     3.586879     3.581060     3.575242     3.569423     3.563605     3.557786     3.551967     3.546149     3.540330
      3.534512     3.528693     3.522874     3.517056     3.511237     3.505419     3.499600     3.493781     3.487963     3.482144
      3.476326     3.470507     3.464688     3.458870     3.453051     3.447232     3.441414     3.435595     3.429777     3.423958
      3.418139     3.412321     3.406502     3.400684     3.394865     3.389046     3.383228     3.377409     3.371591     3.365772
      3.359953     3.354135     3.348316     3.342498     3.336679     3.330860     3.325042     3.319223     3.313405     3.307586
      3.301767     3.295949     3.290130     3.284312     3.278493     3.272674     3.266856     3.261037     3.255219     3.249400
      3.243581     3.237763     3.231944     3.226125     3.220307     3.214488     3.208670     3.202851     3.197032     3.191214
      3.185395     3.179577     3.173758     3.167939     3.162121     3.156302     3.150484     3.144665     3.138846     3.133028
      3.127209     3.121391     3.115572     3.109753     3.103935     3.098116     3.092298     3.086479     3.080660     3.074842
      3.069023     3.063205     3.057386     3.051567     3.045749     3.039930     3.034111     3.028293     3.022474     3.016656
      3.010837     3.005018     2.999200     2.993381     2.987563     2.981744     2.975925     2.970107     2.964288     2.958470
      2.952651     2.946832     2.941014     2.935195     2.929377     2.923558     2.917739     2.911921     2.906102     2.900284
      2.894465     2.888646     2.882828     2.877009     2.871191     2.865372     2.859553     2.853735     2.847916     2.842098
      2.836279     2.830460     2.824642     2.818823     2.813004     2.807186     2.801367     2.795549     2.789730     2.783911
      2.778093     2.772274     2.766456     2.760637     2.754818     2.749000     2.743181     2.737363     2.731544     2.725725
      2.719907     2.714088     2.708270     2.702451     2.696632     2.690814     2.684995     2.679177     2.673358     2.667539
      2.661721     2.655902     2.650084     2.644265     2.638446     2.632628     2.626809     2.620991     2.615172     2.609353
      2.603535     2.597716     2.591897     2.586079     2.580260     2.574442     2.568623     2.562804     2.556986     2.551167
      2.545349     2.539530     2.533711     2.527893     2.522074     2.516256     2.510437     2.504618     2.498800     2.492981
      2.487163     2.481344     2.475525     2.469707     2.463888     2.458070     2.452251     2.446432     2.440614     2.434795
      2.428977     2.423158     2.417339     2.411521     2.405702     2.399884     2.394065     2.388246     2.382428     2.376609
      2.370790     2.364972     2.359153     2.353335     2.347516     2.341697     2.335879     2.330060     2.324242     2.318423
      2.312604     2.306786     2.300967     2.295149     2.289330     2.283511     2.277693     2.271874     2.266056     2.260237
      2.254418     2.248600     2.242781     2.236963     2.231144     2.225325     2.219507     2.213688     2.207870     2.202051
      2.196232     2.190414     2.184595     2.178777     2.172958     2.167139     2.161321     2.155502     2.149683     2.143865
      2.138046     2.132228     2.126409     2.120590     2.114772     2.108953     2.103135     2.097316     2.091497     2.085679
      2.079860     2.074042     2.068223     2.062404     2.056586     2.050767     2.044949     2.039130     2.033311     2.027493
      2.021674     2.015856     2.010037     2.004218     1.998400     1.992581     1.986763     1.980944     1.975126     1.969307
      1.963489     1.957670     1.951852     1.946033     1.940215     1.934397     1.928578     1.922760     1.916941     1.911123
      1.905304     1.899486     1.893667     1.887849     1.882030     1.876212     1.870393     1.864575     1.858756     1.852938
      1.847119     1.841301     1.835482     1.829664     1.823845     1.818027     1.812208     1.806390     1.800571     1.794753
      1.788934     1.783116     1.777297     1.771479     1.765660     1.759842     1.754023     1.748205     1.742386     1.736568
      1.730749     1.724931     1.719113     1.713294     1.707476     1.701657     1.695839     1.690020     1.684202     1.678383
      1.672565     1.666746     1.660928     1.655109     1.649291     1.643472     1.637654     1.631835     1.626017     1.620198
      1.614380     1.608561     1.602743     1.596924     1.591106     1.585287     1.579469     1.573650     1.567832     1.562013
      1.556195     1.550376     1.544558     1.538739     1.532921     1.527102     1.521284     1.515465     1.509647     1.503829
      1.498010     1.492192     1.486373     1.480555     1.474736     1.468918     1.463099     1.457281     1.451462     1.445644
      1.439825     1.434007     1.428188     1.422370     1.416551     1.410733     1.404914     1.399096     1.393277     1.387459
      1.381640     1.375822     1.370003     1.364185     1.358366     1.352548     1.346729     1.340911     1.335092     1.329274
      1.323455     1.317637     1.311818     1.306000     1.300182     1.294363     1.288545     1.282726     1.276908     1.271089
      1.265271     1.259452     1.253634     1.247815     1.241997     1.236178     1.230360     1.224541     1.218723     1.212904
      1.207086     1.201267     1.195449     1.189630     1.183812     1.177993     1.172175     1.166356     1.160538     1.154719
      1.148901     1.143082     1.137264     1.131445     1.125627     1.119808     1.113990     1.108171     1.102353     1.096534
      1.090716     1.084898     1.079079     1.073261     1.067442     1.061624     1.055805     1.049987     1.044168     1.038350
      1.032531     1.026713     1.020894     1.015076     1.009257     1.003439     0.997620     0.991802     0.985983     0.980165
      0.974346     0.968528     0.962709     0.956891     0.951072     0.945254     0.939435     0.933617     0.927798     0.921980
      0.916161     0.910343     0.904524     0.898706     0.892887     0.887069     0.881251     0.875432     0.869614     0.863795
      0.857977     0.852158     0.846340     0.840521     0.834703     0.828884     0.823066     0.817247     0.811429     0.805610
      0.799792     0.793973     0.788155     0.782336     0.776518     0.770699     0.764881     0.759062     0.753244     0.747425
      0.741607     0.735788     0.729970     0.724151     0.718333     0.712514     0.706696     0.700877     0.695059     0.689240
      0.683422     0.677603     0.671785     0.665967     0.660148     0.654330     0.648511     0.642693     0.636874     0.631056
      0.625237     0.619419     0.613600     0.607782     0.601963     0.596145     0.590326     0.584508     0.578689     0.572871
      0.567052     0.561234     0.555415     0.549597     0.543778     0.537960     0.532141     0.526323     0.520504     0.514686
      0.508867     0.503049     0.497230     0.491412     0.485593     0.479775     0.473956     0.468138     0.462319     0.456501
      0.450682     0.444864     0.439045     0.433227     0.427408     0.421590     0.415771     0.409953     0.404134     0.398316
      0.392497     0.386679     0.380860     0.375042     0.369223     0.363405     0.357586     0.351767     0.345949     0.340130
      0.334312     0.328493     0.322675     0.316856     0.311038     0.305219     0.299401     0.293582     0.287764     0.281945
      0.276127     0.270308     0.264490     0.258671     0.252853     0.247034     0.241216     0.235397     0.229579     0.223760
      0.217942     0.212123     0.206305     0.200486
 NY phased data points follow
  -3.42385E-01 -2.68079E-01 -3.95334E-02 -1.07762E-01  4.57597E-01 -2.77976E-01 -6.16147E-01 -5.14260E-01 -6.99212E-01  1.31873E-01
   2.83761E-02  7.71679E-01  3.09165E-01 -1.08636E-01  4.15133E-01  4.17240E-01  6.08665E-01  2.11445E-01  3.41557E-01  1.27298E-01
   4.32297E-01 -1.74393E-01 -2.74667E-01 -1.73923E-01 -4.46937E-01  1.63295E-01 -2.74608E-01 -3.27835E-01  1.76736E-02  1.26343E-01
  -1.01590E-01  4.26445E-01  4.29164E-02 -6.51056E-01 -2.30633E-01  1.89598E-01 -2.37027E-01 -4.72416E-01  6.20607E-02  2.44292E-01
   3.80982E-01 -2.97773E-02  5.68502E-01  6.09792E-01  3.69899E-01  4.39098E-01  3.55322E-01  1.78608E-01  1.20857E-01  9.20391E-02
  -9.58760E-02  6.37435E-01 -4.82654E-01 -6.51781E-01 -3.20658E-01 -6.36523E-01 -6.53010E-02 -1.14866E-01 -2.39834E-01 -1.72596E-01
  -2.33379E-01 -3.75218E-01 -1.55976E-01 -4.53359E-01 -1.64603E-01 -3.05363E-01 -2.89837E-02  3.58687E-01  2.85243E-01  7.26900E-01
  -3.40898E-01 -5.93953E-02  6.71083E-02 -1.52695E-02 -4.37147E-02 -3.74933E-01 -4.26671E-01 -1.20284E+00 -7.06295E-01 -8.51608E-01
  -8.20790E-02  2.79386E-01  3.20480E-01  8.00238E-01  4.20814E-01  1.15939E+00  3.95696E-01  1.96998E-01  3.83659E-01  5.32944E-01
   4.79898E-01  8.38808E-02  2.20807E-01 -1.95081E-01  4.03208E-02  1.31324E-02  5.78913E-01  5.99838E-01  6.32449E-02 -2.00916E-01
   5.66529E-02  5.27471E-01 -7.82967E-02  1.60327E-01  8.68266E-01  5.64985E-01  4.09447E-01  4.27168E-01  1.48371E-01  1.00641E+00
   6.25107E-01  6.85045E-02  4.01846E-01  4.78933E-01  2.76110E-01  4.60318E-02  4.61570E-01 -1.70875E-01  1.91467E-01  4.87136E-01
  -1.39644E-01  2.14112E-01  1.13954E-02 -2.75848E-01 -1.20695E-01 -4.35124E-01 -2.67888E-01  5.48860E-03 -2.71549E-01 -6.75371E-01
  -6.36519E-01 -1.55351E-01 -3.20268E-01 -4.81861E-01 -9.34570E-01 -9.33304E-01 -9.40096E-01 -1.18237E+00 -6.26058E-01 -3.80374E-01
  -2.47506E-01  2.60443E-02 -4.37548E-01 -4.94481E-01  4.65572E-02  2.39445E-02  3.84413E-01 -2.56171E-01 -2.42532E-01  3.33035E-01
  -6.96767E-02  2.26363E-01 -1.89651E-02 -2.07054E-01  2.08076E-01  2.08998E-01  2.67049E-01  4.48345E-01  3.90685E-01  5.07945E-01
   6.21081E-01  8.19131E-01  6.43645E-01  3.45883E-01  8.05922E-01  1.72621E+00  1.25906E+00 -1.06624E-01 -1.14149E+00 -1.36027E+00
  -8.35570E-01 -1.02044E+00 -4.28850E-01 -6.57499E-01 -7.43485E-01 -8.24777E-01 -8.20911E-01 -3.06621E-01 -6.46286E-01 -1.42595E-01
  -5.80198E-01 -2.81233E-01 -1.41846E-01 -2.33889E-01 -2.68867E-01 -3.93916E-01  5.62967E-02 -4.86792E-01 -2.66809E-01 -3.07824E-01
  -3.62248E-01 -4.44358E-01 -5.63108E-01 -2.22966E-01 -3.62148E-01 -1.69607E-01  1.92445E-02 -5.62566E-02 -2.37642E-01 -2.43931E-01
   4.35709E-01 -2.41774E-01 -8.89121E-01  4.35917E-02  4.35257E-02  1.41805E-02  8.24619E-02  2.88545E-01  5.55677E-02  7.29041E-02
   6.52458E-01 -8.00344E-02 -3.52960E-01 -1.30683E-01 -2.16876E-01 -2.01693E-01 -3.01244E-01  1.66157E-02  2.37796E-01 -3.93017E-02
   6.06078E-01  4.36500E-01 -8.50163E-02 -7.02118E-02  1.38240E-01  8.10364E-01  2.47174E-01  4.21303E-01  1.03255E+00  3.11960E-01
   5.76603E-02  2.23864E-01  1.70889E-01  2.88174E-01 -1.43427E-01 -2.58874E-01 -7.36743E-03  4.44218E-02 -2.23616E-01 -3.21111E-01
  -3.38623E-02  1.80897E-01  2.13801E-01 -6.11525E-01 -1.58734E-01 -1.67805E-01 -8.55044E-02 -4.62086E-02 -4.96376E-01 -8.47498E-02
  -1.09451E-02  1.71039E-01 -5.00104E-02  7.52974E-01 -3.14807E-01 -1.70060E-01  5.32791E-01 -2.56489E-01  3.28350E-01  3.95248E-01
   8.54605E-01 -1.35749E-01  3.05540E-01  3.51638E-01 -7.47654E-02  4.20973E-01 -8.10776E-02  4.93403E-01  3.03064E-01  5.50033E-01
   5.51544E-01  3.24442E-01  1.96280E-01 -1.00691E-01 -1.44631E-01 -8.85507E-02  6.31653E-02 -3.27504E-01 -2.62948E-01 -1.00673E-01
   3.52309E-02 -4.45908E-01 -4.24040E-01 -4.02178E-01 -5.99786E-02  6.70601E-01  4.62332E-01  9.04299E-01  6.99807E-01  6.04308E-01
   2.12214E-01  1.92471E-01  2.26491E-01 -2.20934E-01  4.67350E-01  9.32462E-02  3.31955E-01  3.77138E-01  1.57344E-01  4.31498E-02
   1.25939E-01  6.81292E-01  2.37684E-01  1.72678E-01 -2.66294E-02  5.38543E-01  5.18868E-01  5.36318E-01  3.80494E-01  3.55932E-01
   9.55038E-01  3.06061E-01  5.50698E-01  1.09521E-02  1.14760E-01  2.55967E-01 -1.51059E-01 -4.11996E-01 -7.77678E-01  1.81315E-01
  -2.21626E-01 -6.15121E-01 -2.16553E-01 -2.12424E-01 -4.28725E-02 -1.37606E-02  5.05258E-02  1.43894E-02  1.33359E-01  3.44037E-01
  -2.76492E-01 -1.84057E-01  3.69833E-01  3.02524E-01 -2.00006E-01 -8.46637E-01 -4.99992E-01 -3.38650E-01 -7.42827E-01 -1.04438E+00
  -1.01024E+00 -1.92711E+00 -3.34425E+00 -2.59544E+00 -6.40198E-01 -7.00251E-02 -1.12546E-01  1.63413E-01  1.56585E-01  1.53964E-01
   3.08813E-02 -1.99077E-01 -9.93343E-02  4.29872E-01  2.67301E-01  2.05573E-01 -9.45371E-02  4.73533E-03  5.57461E-01  5.15470E-02
  -1.11256E-01  3.99331E-02  3.35650E-01 -3.26952E-02 -2.99675E-01 -2.84341E-01 -2.92640E-01 -5.75356E-02  7.77299E-02 -1.53251E-01
  -3.24268E-01  2.58412E-01  2.56679E-01 -2.61542E-02 -3.72582E-03  1.36161E-01  5.20314E-02  7.75868E-02  4.01996E-01  3.17932E-01
   1.79300E-01  1.88710E-01 -2.03806E-01  1.49083E-01  3.58636E-01 -3.66362E-05  2.76880E-01  2.16610E-01  2.81408E-01  3.14138E-01
   3.61688E-01  7.86978E-01  9.71181E-01  4.29768E-01  4.14640E-01  3.77351E-01  1.03730E-01 -9.83646E-02 -1.62159E-02  4.61336E-01
   1.92019E-01  4.23003E-01  1.52142E-01  5.50572E-01  4.99379E-01 -3.96325E-02  2.63457E-01  1.19295E-02 -1.29120E-02 -1.43134E-01
  -2.07532E-01 -1.54596E-01  2.70596E-01  3.95673E-02  5.12988E-02  7.48459E-02  1.81263E-02  3.57150E-01  1.50804E-01 -1.76826E-01
  -4.77612E-01 -1.80642E-01 -1.96105E-01 -3.78636E-01 -3.86054E-01  5.86413E-02 -1.01028E-01 -6.38313E-01 -4.93637E-01 -2.47168E-01
  -3.85576E-02 -1.35003E-02 -2.65715E-01 -4.94758E-01 -1.43975E-01 -1.06942E-02  1.51346E-01 -9.63303E-04 -3.17747E-02 -8.44024E-02
  -3.34770E-01  1.69925E-02  1.05520E-01  1.27510E-01  3.03304E-02 -1.57793E-03  1.65111E-01  9.74394E-02  5.66757E-01  4.71994E-01
  -1.42411E-01  5.06109E-01  2.37115E-01  7.02454E-02  2.56896E-01 -1.79070E-01 -4.26336E-01 -1.84368E-01  7.74954E-01 -1.05891E-01
  -1.73079E-01  2.92823E-01 -6.85555E-02 -1.52568E-01 -6.92673E-01 -9.08264E-03 -3.77775E-01 -5.68509E-01 -4.41766E-01 -6.81486E-01
   3.31755E-03 -3.41306E-01  2.78242E-01 -1.16127E-02 -7.28526E-01 -1.82441E-01 -5.29466E-01 -1.21521E-01  2.96243E-01 -1.31868E-01
   1.30859E-01  4.30179E-01 -4.52060E-02  5.18098E-02  4.56771E-01  2.97752E-01 -3.72946E-01 -4.25282E-02  4.25699E-03 -3.45596E-01
   3.16769E-01 -4.54847E-02  2.08029E-01  4.82269E-01 -1.92107E-01 -1.76235E-01  4.12622E-01  2.02114E-01 -1.61175E-02 -3.84559E-02
   1.56800E-02  4.81588E-01  7.58123E-02  1.94075E-01  2.79272E-01  3.08207E-01  2.06962E-01  8.97387E-02  8.70053E-02  1.04397E-01
   5.12280E-01  4.18662E-01  2.53190E-01  3.05964E-01  3.14435E-01 -1.28034E-01  3.60403E-01  2.26254E-01 -1.82392E-01 -4.71547E-02
  -5.45367E-01 -4.39498E-01 -5.26795E-01 -8.02576E-01 -4.92181E-01 -1.29216E-01 -5.39028E-01 -1.00944E+00 -6.27496E-01 -3.65362E-01
  -5.76383E-01 -3.03900E-01 -1.15758E-01 -1.21742E-01 -2.77356E-01 -1.50065E-01 -1.50409E-01 -7.31612E-01 -4.10542E-01 -8.68106E-02
  -1.08711E-01  2.52474E-02  9.14674E-02 -1.31948E-02  2.58249E-01  1.54015E-01  2.66444E-01  1.29456E-01 -3.69462E-01  1.81434E-01
   4.68198E-01  4.57412E-01  8.45950E-02  2.95914E-01  4.44517E-01  3.76218E-01  3.77972E-01 -2.73778E-02 -1.39696E-01  1.60979E-01
   4.04338E-01  7.41476E-03 -1.27127E-01  2.14731E-01  3.87719E-01 -1.14152E-01 -9.65969E-02  3.77993E-01  3.67744E-01 -1.24960E-01
  -2.56808E-01  1.96868E-01  4.34302E-01  2.91257E-01  8.98497E-02 -2.60304E-01 -3.29414E-01  3.62949E-02 -3.46263E-01  2.91172E-01
   1.25604E-01 -4.22727E-01  1.73694E-01 -5.08842E-02 -3.83844E-01 -3.67049E-01 -8.60886E-02  4.17368E-02  2.39235E-01 -7.14814E-02
   9.67905E-03 -1.72759E-01 -1.74015E-01  1.59731E-01  8.10809E-02  6.59487E-01  2.00629E-01  2.98746E-01  4.13632E-01 -5.81043E-02
   1.90768E-01 -7.38176E-03  1.44534E-01  1.36549E-01 -2.21707E-01 -1.66443E-01  7.23152E-02  4.59179E-01 -5.68871E-01 -6.42029E-01
   4.46714E-01 -1.51545E-01 -4.25219E-01 -5.22969E-01  1.96478E-02  4.38077E-01 -3.60174E-01  7.67891E-03  3.50985E-01  7.77390E-02
  -1.97549E-01  3.28982E-02  7.06344E-01 -1.18006E-01 -6.44281E-02  1.31361E-01 -7.50274E-02  5.58280E-01 -4.15444E-02  2.11940E-01
   2.50104E-01 -3.32280E-01 -3.94492E-02  4.93322E-01  4.11168E-01  2.58868E-02 -1.87886E-01 -1.41498E-01  5.20374E-01 -6.68358E-02
  -3.75601E-01 -1.69281E-01 -4.95663E-02  3.76588E-01  1.92227E-01 -1.69519E-01  6.87041E-05 -5.58418E-01 -1.04814E-01  3.19094E-01
  -1.10021E-01  3.48042E-01 -5.07968E-01 -2.33867E-01
 NY points of the fit to the data follow
   8.74556E-03  1.16897E-02  1.56783E-02  1.99854E-02  2.66858E-02  3.68861E-02  4.66932E-02  6.53532E-02  8.67878E-02  1.28681E-01
   2.33740E-01  3.82436E-01  4.75673E-01  5.31384E-01  6.23657E-01  7.23919E-01  6.88995E-01  4.80434E-01  2.48026E-01  1.13487E-01
   5.85810E-02  3.36539E-02  2.31249E-03 -3.85125E-02 -7.15950E-02 -9.76581E-02 -1.18760E-01 -1.35565E-01 -1.49035E-01 -1.61232E-01
  -1.73199E-01 -1.88433E-01 -2.12785E-01 -2.47219E-01 -2.87840E-01 -3.10490E-01 -3.20402E-01 -2.86671E-01 -1.79526E-01  2.21614E-03
   1.93838E-01  3.24432E-01  3.81584E-01  3.95733E-01  3.76224E-01  3.21367E-01  2.30658E-01  1.27225E-01  4.10261E-02 -1.83970E-02
  -5.76920E-02 -9.32825E-02 -1.30326E-01 -1.70944E-01 -2.18111E-01 -2.74985E-01 -3.28455E-01 -3.59634E-01 -3.53043E-01 -3.77126E-01
  -4.39382E-01 -4.53214E-01 -4.30074E-01 -3.49636E-01 -1.88991E-01  4.49126E-02  3.00120E-01  4.75033E-01  5.56569E-01  5.57754E-01
   4.54730E-01  3.12044E-01  1.82063E-01  5.97035E-02 -7.33483E-02 -2.11031E-01 -3.60477E-01 -5.72593E-01 -7.29427E-01 -6.55997E-01
  -3.60530E-01 -7.08298E-03  2.75011E-01  5.04644E-01  6.69279E-01  6.88774E-01  6.04072E-01  4.97548E-01  4.08630E-01  3.59696E-01
   3.32938E-01  3.07671E-01  2.76718E-01  2.36683E-01  1.86198E-01  1.19525E-01  3.91301E-02 -4.25247E-02 -9.61589E-02 -8.91018E-02
  -1.00262E-02  1.15087E-01  2.35254E-01  3.09771E-01  3.33608E-01  3.26199E-01  3.12906E-01  3.05987E-01  3.05519E-01  3.08174E-01
   3.09916E-01  3.09201E-01  3.06647E-01  3.03769E-01  3.01863E-01  3.01358E-01  2.99639E-01  2.81199E-01  2.63373E-01  2.22522E-01
   1.19035E-01  8.45704E-03 -8.60692E-02 -1.74745E-01 -2.40928E-01 -2.92925E-01 -2.88941E-01 -2.91181E-01 -3.25755E-01 -3.30293E-01
  -3.19522E-01 -2.91269E-01 -2.58872E-01 -3.57393E-01 -6.66627E-01 -1.05511E+00 -1.21781E+00 -9.98592E-01 -5.86189E-01 -2.42362E-01
  -6.48849E-02 -6.82295E-03  1.03390E-02  3.13264E-02  5.89190E-02  8.58272E-02  1.10841E-01  1.33156E-01  1.53084E-01  1.71340E-01
   1.89239E-01  2.07528E-01  2.26374E-01  2.46594E-01  2.69048E-01  2.94334E-01  3.23028E-01  3.54970E-01  3.91087E-01  4.35848E-01
   4.98282E-01  5.92383E-01  7.27584E-01  8.00530E-01  8.89372E-01  9.29947E-01  6.41100E-01 -8.66966E-02 -9.00187E-01 -1.26981E+00
  -1.11031E+00 -7.91899E-01 -5.62548E-01 -4.70371E-01 -4.58720E-01 -4.32565E-01 -3.88730E-01 -3.56226E-01 -3.48206E-01 -3.40605E-01
  -3.19999E-01 -2.90181E-01 -2.68642E-01 -2.61963E-01 -2.64469E-01 -2.65570E-01 -2.59323E-01 -2.46866E-01 -2.35577E-01 -2.26586E-01
  -2.15968E-01 -2.02457E-01 -1.87451E-01 -1.73440E-01 -1.60926E-01 -1.49920E-01 -1.39050E-01 -1.27213E-01 -1.15125E-01 -1.03165E-01
  -9.00910E-02 -7.58665E-02 -6.50060E-02 -6.38327E-02 -7.08014E-02 -7.41016E-02 -6.53114E-02 -5.35377E-02 -5.54141E-02 -7.37854E-02
  -9.36798E-02 -1.00990E-01 -9.45775E-02 -8.25678E-02 -7.05625E-02 -5.76189E-02 -4.43269E-02 -3.77899E-02 -4.09433E-02 -4.40947E-02
  -1.98367E-02  2.53991E-02  8.02663E-02  1.79088E-01  3.21519E-01  4.25071E-01  4.13924E-01  3.36419E-01  3.29807E-01  4.00183E-01
   4.24740E-01  3.27943E-01  1.53210E-01  3.43463E-03 -7.28834E-02 -9.81782E-02 -1.02857E-01 -1.07980E-01 -1.18437E-01 -1.30559E-01
  -1.42457E-01 -1.52316E-01 -1.58194E-01 -1.61741E-01 -1.66181E-01 -1.71003E-01 -1.76608E-01 -1.81102E-01 -1.84270E-01 -1.86907E-01
  -1.92309E-01 -2.06694E-01 -2.15576E-01 -2.31939E-01 -2.22541E-01 -1.49473E-01 -3.75062E-02  5.13226E-02  9.38114E-02  1.49314E-01
   2.10044E-01  2.14308E-01  1.88015E-01  1.75467E-01  1.94942E-01  2.04239E-01  1.98979E-01  2.10765E-01  2.31852E-01  2.44683E-01
   2.31240E-01  1.82216E-01  1.20900E-01  6.04819E-02  7.23866E-03 -3.93008E-02 -9.04651E-02 -1.49510E-01 -2.14573E-01 -2.92451E-01
  -3.71351E-01 -4.27465E-01 -4.34586E-01 -3.40388E-01 -1.42207E-01  1.13684E-01  3.50143E-01  4.87937E-01  5.13825E-01  4.44910E-01
   3.35112E-01  2.46323E-01  1.96266E-01  1.86726E-01  2.08213E-01  2.41899E-01  2.75244E-01  2.94425E-01  2.98616E-01  2.90743E-01
   2.75726E-01  2.61666E-01  2.49478E-01  2.39035E-01  2.27217E-01  2.12526E-01  1.92500E-01  1.63638E-01  1.31447E-01  9.41261E-02
   5.98877E-02  3.21812E-02  9.65717E-03 -1.09093E-02 -4.05374E-02 -8.91366E-02 -1.60141E-01 -2.48460E-01 -3.28562E-01 -3.83306E-01
  -4.03411E-01 -3.90354E-01 -3.44050E-01 -2.72120E-01 -1.82356E-01 -8.63591E-02  1.85660E-03  7.62734E-02  1.18474E-01  1.24484E-01
   8.93278E-02  1.95035E-02 -6.86375E-02 -1.44532E-01 -2.16947E-01 -2.98520E-01 -3.59355E-01 -4.98977E-01 -5.56946E-01 -7.51680E-01
  -1.44515E+00 -2.40805E+00 -2.87590E+00 -2.32628E+00 -1.21687E+00 -3.93589E-01 -4.50818E-02 -1.05019E-03 -5.69365E-02 -5.87849E-02
  -3.90460E-02 -1.85408E-02 -2.76352E-04  1.47420E-02  2.82696E-02  3.94005E-02  4.61959E-02  4.77467E-02  3.78388E-02  1.90742E-02
  -9.32555E-03 -4.16974E-02 -7.13089E-02 -9.28757E-02 -9.98857E-02 -9.17096E-02 -7.33160E-02 -4.91123E-02 -2.62532E-02 -7.38840E-03
   8.57971E-03  2.22939E-02  3.45601E-02  4.40826E-02  5.08757E-02  5.66212E-02  6.27658E-02  6.94836E-02  7.57068E-02  8.07891E-02
   8.49625E-02  8.93888E-02  9.44976E-02  9.96493E-02  1.04107E-01  1.06931E-01  1.09056E-01  1.11947E-01  1.16600E-01  1.22474E-01
   1.28217E-01  1.32444E-01  1.34218E-01  1.33149E-01  1.30366E-01  1.27111E-01  1.24218E-01  1.21441E-01  1.17587E-01  1.11767E-01
   1.04578E-01  9.66837E-02  8.81711E-02  7.90039E-02  7.02035E-02  6.28384E-02  5.61186E-02  4.92606E-02  4.21484E-02  3.54094E-02
   2.97387E-02  2.50800E-02  2.09480E-02  1.69622E-02  1.27280E-02  8.65655E-03  4.72125E-03  1.04005E-03 -1.67645E-03 -3.73295E-03
  -5.71361E-03 -7.14206E-03 -7.32864E-03 -5.87066E-03 -3.13224E-03  5.39024E-04  5.23637E-03  1.07936E-02  1.70781E-02  2.31658E-02
   2.73188E-02  2.94685E-02  3.19114E-02  3.73649E-02  4.61422E-02  5.64033E-02  6.63777E-02  7.54026E-02  8.47889E-02  9.61985E-02
   1.09713E-01  1.24640E-01  1.39913E-01  1.54904E-01  1.69941E-01  1.84848E-01  1.99138E-01  2.11305E-01  2.20000E-01  2.25172E-01
   2.27749E-01  2.28642E-01  2.28636E-01  2.27303E-01  2.24226E-01  2.18478E-01  2.09171E-01  1.96541E-01  1.82657E-01  1.69537E-01
   1.57758E-01  1.46659E-01  1.34997E-01  1.22867E-01  1.11404E-01  1.01657E-01  9.32602E-02  8.52022E-02  7.73980E-02  7.05516E-02
   6.48154E-02  5.98671E-02  5.54621E-02  5.27460E-02  5.28085E-02  5.51364E-02  5.85627E-02  6.24473E-02  6.72057E-02  7.28873E-02
   7.94147E-02  8.67605E-02  9.39547E-02  9.98763E-02  1.04309E-01  1.07555E-01  1.09900E-01  1.12307E-01  1.15838E-01  1.19873E-01
   1.22963E-01  1.23486E-01  1.21895E-01  1.19543E-01  1.16715E-01  1.13211E-01  1.08920E-01  1.04764E-01  1.01489E-01  9.83817E-02
   9.48279E-02  9.07554E-02  8.63899E-02  8.21640E-02  7.77636E-02  7.29374E-02  6.82455E-02  6.47288E-02  6.24435E-02  5.99156E-02
   5.62119E-02  5.15770E-02  4.59039E-02  3.86921E-02  2.98454E-02  2.00868E-02  1.02459E-02 -5.87678E-04 -1.37592E-02 -3.08155E-02
  -5.16488E-02 -7.43079E-02 -9.67162E-02 -1.18265E-01 -1.39262E-01 -1.59566E-01 -1.77958E-01 -1.94185E-01 -2.08931E-01 -2.21377E-01
  -2.29385E-01 -2.32423E-01 -2.32450E-01 -2.30851E-01 -2.27089E-01 -2.20419E-01 -2.12098E-01 -2.03780E-01 -1.96467E-01 -1.90151E-01
  -1.83336E-01 -1.74758E-01 -1.64471E-01 -1.53107E-01 -1.40898E-01 -1.27850E-01 -1.14815E-01 -1.02050E-01 -8.96998E-02 -7.81736E-02
  -6.70738E-02 -5.57991E-02 -4.45590E-02 -3.46324E-02 -2.67765E-02 -1.89801E-02 -1.00753E-02 -1.96509E-03  4.12027E-03  8.67211E-03
   1.32811E-02  1.84157E-02  2.27126E-02  2.58377E-02  2.81200E-02  3.01357E-02  3.23933E-02  3.38238E-02  3.44199E-02  3.56557E-02
   3.81785E-02  4.14516E-02  4.47727E-02  4.79264E-02  5.01031E-02  5.08379E-02  5.08807E-02  5.06575E-02  5.04001E-02  5.02826E-02
   5.01384E-02  4.98187E-02  4.92797E-02  4.91066E-02  4.95630E-02  4.99505E-02  5.04574E-02  5.16419E-02  5.20435E-02  4.97799E-02
   4.56280E-02  4.27363E-02  4.30180E-02  4.41259E-02  4.40895E-02  4.35470E-02  4.29753E-02  4.16819E-02  3.95054E-02  3.81146E-02
   3.87846E-02  4.05360E-02  4.18028E-02  4.21690E-02  4.23964E-02  4.33823E-02  4.45931E-02  4.54307E-02  4.56104E-02  4.58562E-02
   4.57313E-02  4.42212E-02  4.17784E-02  3.99221E-02  3.96587E-02  4.05981E-02  4.18039E-02  4.29517E-02  4.34724E-02  4.31976E-02
   4.32345E-02  4.44103E-02  4.68456E-02  4.90056E-02  4.90193E-02  4.67301E-02  4.33806E-02  4.11150E-02  4.11034E-02  4.18579E-02
   4.15217E-02  3.96083E-02  3.69940E-02  3.51927E-02  3.46131E-02  3.40880E-02  3.24657E-02  3.05451E-02  2.99318E-02  3.03054E-02
   2.99663E-02  2.81620E-02  2.62567E-02  2.50347E-02  2.40503E-02  2.32030E-02  2.32174E-02  2.47806E-02  2.71364E-02  2.81396E-02
   2.75798E-02  2.58828E-02  2.38392E-02  2.25917E-02
 NY background values follow
     5.823E-02    5.815E-02    5.808E-02    5.800E-02    5.792E-02    5.785E-02    5.777E-02    5.769E-02    5.761E-02    5.754E-02
     5.746E-02    5.738E-02    5.730E-02    5.723E-02    5.715E-02    5.707E-02    5.699E-02    5.692E-02    5.684E-02    5.676E-02
     5.669E-02    5.661E-02    5.653E-02    5.645E-02    5.637E-02    5.630E-02    5.622E-02    5.614E-02    5.606E-02    5.599E-02
     5.591E-02    5.583E-02    5.575E-02    5.568E-02    5.560E-02    5.552E-02    5.544E-02    5.537E-02    5.529E-02    5.521E-02
     5.513E-02    5.505E-02    5.498E-02    5.490E-02    5.482E-02    5.474E-02    5.466E-02    5.459E-02    5.451E-02    5.443E-02
     5.435E-02    5.427E-02    5.420E-02    5.412E-02    5.404E-02    5.396E-02    5.388E-02    5.381E-02    5.373E-02    5.365E-02
     5.357E-02    5.349E-02    5.341E-02    5.334E-02    5.326E-02    5.318E-02    5.310E-02    5.302E-02    5.294E-02    5.287E-02
