 LCModel (Version 6.3-1N) Copyright: S.W. Provencher.          Ref.: Magn. Reson. Med. 30:672-679 (1993).                
 Slice_N1@14_23  02-Jun-2023 14:37:17
 27 lines in following concentration table = NCONC+1
    Conc.  %SD /Cr+PCr  Metabolite                                         
 2.59E-06  17% 3.0E-04 Mac                                                 
 3.19E-02  47%   3.666 Cr                                                  
 3.77E-02  39%   4.334 PCr                                                 
 6.91E-02  16%   7.944 Ins                                                 
    0.100   9%  11.536 NAA                                                 
 6.17E-02  17%   7.098 Tau                                                 
 1.07E-02  35%   1.235 PCho                                                
    0.000 999%   0.000 GPC                                                 
 6.68E-02  19%   7.688 Glu                                                 
 3.13E-02  29%   3.601 Gln                                                 
    0.000 999%   0.000 Ala                                                 
 4.71E-02  37%   5.423 Asc                                                 
 1.27E-02  63%   1.461 Asp                                                 
 7.58E-03  59%   0.871 GABA                                                
 7.80E-03  65%   0.897 Glc                                                 
 1.01E-02  55%   1.163 GSH                                                 
    0.000 999%   0.000 Lac                                                 
    0.000 999%   0.000 NAAG                                                
 3.97E-03 379%   0.457 PE                                                  
 1.07E-02  35%   1.235 GPC+PCho                                            
    0.100   9%  11.536 NAA+NAAG                                            
 9.81E-02  15%  11.289 Glu+Gln                                             
 6.95E-02  12%   8.000 Cr+PCr                                              
    0.100   9%  11.536 NAA+NAAG                                            
 6.95E-02  12%   8.000 Cr+PCr                                              
 9.81E-02  15%  11.289 Glu+Gln                                             
   6 lines in following misc. output table
  FWHM = 0.035 ppm    S/N =   3                                            
  Data shift =-0.006 ppm                                                   
  Ph:  28 deg      -2.4 deg/ppm                                            
  alphaB,S = 3.1E+01,   2.3E+01                                            
   18 spline knots.   Ns = 6(1)                                            
  ( 5) 2 infls.   ( 1) 1 extrs.                                            
  654 points on ppm-axis = NY
      4.000000     3.994181     3.988363     3.982544     3.976726     3.970907     3.965088     3.959270     3.953451     3.947633
      3.941814     3.935995     3.930177     3.924358     3.918540     3.912721     3.906902     3.901084     3.895265     3.889446
      3.883628     3.877809     3.871991     3.866172     3.860353     3.854535     3.848716     3.842898     3.837079     3.831260
      3.825442     3.819623     3.813805     3.807986     3.802167     3.796349     3.790530     3.784712     3.778893     3.773074
      3.767256     3.761437     3.755619     3.749800     3.743981     3.738163     3.732344     3.726526     3.720707     3.714888
      3.709070     3.703251     3.697433     3.691614     3.685795     3.679977     3.674158     3.668339     3.662521     3.656702
      3.650884     3.645065     3.639246     3.633428     3.627609     3.621791     3.615972     3.610153     3.604335     3.598516
      3.592698     3.586879     3.581060     3.575242     3.569423     3.563605     3.557786     3.551967     3.546149     3.540330
      3.534512     3.528693     3.522874     3.517056     3.511237     3.505419     3.499600     3.493781     3.487963     3.482144
      3.476326     3.470507     3.464688     3.458870     3.453051     3.447232     3.441414     3.435595     3.429777     3.423958
      3.418139     3.412321     3.406502     3.400684     3.394865     3.389046     3.383228     3.377409     3.371591     3.365772
      3.359953     3.354135     3.348316     3.342498     3.336679     3.330860     3.325042     3.319223     3.313405     3.307586
      3.301767     3.295949     3.290130     3.284312     3.278493     3.272674     3.266856     3.261037     3.255219     3.249400
      3.243581     3.237763     3.231944     3.226125     3.220307     3.214488     3.208670     3.202851     3.197032     3.191214
      3.185395     3.179577     3.173758     3.167939     3.162121     3.156302     3.150484     3.144665     3.138846     3.133028
      3.127209     3.121391     3.115572     3.109753     3.103935     3.098116     3.092298     3.086479     3.080660     3.074842
      3.069023     3.063205     3.057386     3.051567     3.045749     3.039930     3.034111     3.028293     3.022474     3.016656
      3.010837     3.005018     2.999200     2.993381     2.987563     2.981744     2.975925     2.970107     2.964288     2.958470
      2.952651     2.946832     2.941014     2.935195     2.929377     2.923558     2.917739     2.911921     2.906102     2.900284
      2.894465     2.888646     2.882828     2.877009     2.871191     2.865372     2.859553     2.853735     2.847916     2.842098
      2.836279     2.830460     2.824642     2.818823     2.813004     2.807186     2.801367     2.795549     2.789730     2.783911
      2.778093     2.772274     2.766456     2.760637     2.754818     2.749000     2.743181     2.737363     2.731544     2.725725
      2.719907     2.714088     2.708270     2.702451     2.696632     2.690814     2.684995     2.679177     2.673358     2.667539
      2.661721     2.655902     2.650084     2.644265     2.638446     2.632628     2.626809     2.620991     2.615172     2.609353
      2.603535     2.597716     2.591897     2.586079     2.580260     2.574442     2.568623     2.562804     2.556986     2.551167
      2.545349     2.539530     2.533711     2.527893     2.522074     2.516256     2.510437     2.504618     2.498800     2.492981
      2.487163     2.481344     2.475525     2.469707     2.463888     2.458070     2.452251     2.446432     2.440614     2.434795
      2.428977     2.423158     2.417339     2.411521     2.405702     2.399884     2.394065     2.388246     2.382428     2.376609
      2.370790     2.364972     2.359153     2.353335     2.347516     2.341697     2.335879     2.330060     2.324242     2.318423
      2.312604     2.306786     2.300967     2.295149     2.289330     2.283511     2.277693     2.271874     2.266056     2.260237
      2.254418     2.248600     2.242781     2.236963     2.231144     2.225325     2.219507     2.213688     2.207870     2.202051
      2.196232     2.190414     2.184595     2.178777     2.172958     2.167139     2.161321     2.155502     2.149683     2.143865
      2.138046     2.132228     2.126409     2.120590     2.114772     2.108953     2.103135     2.097316     2.091497     2.085679
      2.079860     2.074042     2.068223     2.062404     2.056586     2.050767     2.044949     2.039130     2.033311     2.027493
      2.021674     2.015856     2.010037     2.004218     1.998400     1.992581     1.986763     1.980944     1.975126     1.969307
      1.963489     1.957670     1.951852     1.946033     1.940215     1.934397     1.928578     1.922760     1.916941     1.911123
      1.905304     1.899486     1.893667     1.887849     1.882030     1.876212     1.870393     1.864575     1.858756     1.852938
      1.847119     1.841301     1.835482     1.829664     1.823845     1.818027     1.812208     1.806390     1.800571     1.794753
      1.788934     1.783116     1.777297     1.771479     1.765660     1.759842     1.754023     1.748205     1.742386     1.736568
      1.730749     1.724931     1.719113     1.713294     1.707476     1.701657     1.695839     1.690020     1.684202     1.678383
      1.672565     1.666746     1.660928     1.655109     1.649291     1.643472     1.637654     1.631835     1.626017     1.620198
      1.614380     1.608561     1.602743     1.596924     1.591106     1.585287     1.579469     1.573650     1.567832     1.562013
      1.556195     1.550376     1.544558     1.538739     1.532921     1.527102     1.521284     1.515465     1.509647     1.503829
      1.498010     1.492192     1.486373     1.480555     1.474736     1.468918     1.463099     1.457281     1.451462     1.445644
      1.439825     1.434007     1.428188     1.422370     1.416551     1.410733     1.404914     1.399096     1.393277     1.387459
      1.381640     1.375822     1.370003     1.364185     1.358366     1.352548     1.346729     1.340911     1.335092     1.329274
      1.323455     1.317637     1.311818     1.306000     1.300182     1.294363     1.288545     1.282726     1.276908     1.271089
      1.265271     1.259452     1.253634     1.247815     1.241997     1.236178     1.230360     1.224541     1.218723     1.212904
      1.207086     1.201267     1.195449     1.189630     1.183812     1.177993     1.172175     1.166356     1.160538     1.154719
      1.148901     1.143082     1.137264     1.131445     1.125627     1.119808     1.113990     1.108171     1.102353     1.096534
      1.090716     1.084898     1.079079     1.073261     1.067442     1.061624     1.055805     1.049987     1.044168     1.038350
      1.032531     1.026713     1.020894     1.015076     1.009257     1.003439     0.997620     0.991802     0.985983     0.980165
      0.974346     0.968528     0.962709     0.956891     0.951072     0.945254     0.939435     0.933617     0.927798     0.921980
      0.916161     0.910343     0.904524     0.898706     0.892887     0.887069     0.881251     0.875432     0.869614     0.863795
      0.857977     0.852158     0.846340     0.840521     0.834703     0.828884     0.823066     0.817247     0.811429     0.805610
      0.799792     0.793973     0.788155     0.782336     0.776518     0.770699     0.764881     0.759062     0.753244     0.747425
      0.741607     0.735788     0.729970     0.724151     0.718333     0.712514     0.706696     0.700877     0.695059     0.689240
      0.683422     0.677603     0.671785     0.665967     0.660148     0.654330     0.648511     0.642693     0.636874     0.631056
      0.625237     0.619419     0.613600     0.607782     0.601963     0.596145     0.590326     0.584508     0.578689     0.572871
      0.567052     0.561234     0.555415     0.549597     0.543778     0.537960     0.532141     0.526323     0.520504     0.514686
      0.508867     0.503049     0.497230     0.491412     0.485593     0.479775     0.473956     0.468138     0.462319     0.456501
      0.450682     0.444864     0.439045     0.433227     0.427408     0.421590     0.415771     0.409953     0.404134     0.398316
      0.392497     0.386679     0.380860     0.375042     0.369223     0.363405     0.357586     0.351767     0.345949     0.340130
      0.334312     0.328493     0.322675     0.316856     0.311038     0.305219     0.299401     0.293582     0.287764     0.281945
      0.276127     0.270308     0.264490     0.258671     0.252853     0.247034     0.241216     0.235397     0.229579     0.223760
      0.217942     0.212123     0.206305     0.200486
 NY phased data points follow
   3.34345E-01  2.64301E-01 -5.13642E-02 -2.15319E-01  2.10599E-01  6.85476E-02  1.19463E-02  5.73478E-02 -1.00374E-01 -6.80293E-02
  -9.21815E-02  1.89068E-01  5.11486E-01  2.90813E-01  4.57031E-01  8.67424E-02 -9.95307E-03  4.73131E-01  1.09775E-01  1.73776E-02
  -1.87554E-01 -6.43858E-03 -1.85019E-01 -3.62821E-01  1.88744E-01 -1.64440E-01 -7.74137E-02 -2.14577E-01 -1.58620E-01  2.25774E-01
  -2.88960E-01  1.26472E-01 -3.63735E-01 -4.78089E-01  2.26884E-01 -2.37982E-01 -3.30198E-01 -5.33463E-01 -1.83585E-01  2.13647E-02
  -1.53102E-01 -8.03883E-02 -6.35804E-02  2.57357E-01  4.04645E-01  5.43939E-01  5.25437E-01  3.36521E-01  4.34184E-01  5.27641E-01
   2.09416E-01  1.31522E-01  1.71927E-01 -5.33457E-02 -1.36096E-01  2.20791E-03 -1.18878E-01  1.49520E-01  3.06468E-01 -2.33871E-01
  -2.43309E-01 -1.96556E-01 -1.46876E-01 -1.84106E-01 -3.46905E-01 -4.00395E-01 -2.33602E-01 -6.82217E-02  2.03963E-01  3.37876E-01
  -1.45883E-01 -6.30067E-02 -1.33548E-01 -2.58202E-01 -9.91057E-02 -2.77245E-01 -4.21601E-02  2.19300E-01 -9.50322E-02  2.83077E-02
  -3.30900E-01 -6.17819E-01  2.14443E-01 -4.23617E-02  5.20779E-02  2.62542E-01 -5.46586E-02  4.47058E-01  5.22250E-01  4.07869E-01
   2.73988E-01  1.70106E-01  6.68565E-01 -5.92757E-02 -4.40455E-01  3.40660E-01 -3.55725E-01  4.53589E-02 -8.92767E-02 -3.24020E-01
   2.71993E-01 -2.61273E-01  2.16746E-01 -1.10113E-01 -3.29535E-01 -7.64661E-02 -1.58490E-01 -1.24140E-01 -5.45572E-02  4.58267E-02
   3.53157E-01  2.14960E-01  2.08162E-01  8.21006E-01  2.43788E-01  6.00677E-01  5.78349E-01  5.07833E-01  8.82180E-02 -1.54685E-01
   8.08579E-02 -2.60550E-01  3.51496E-01 -6.35117E-02 -5.91046E-02  9.45119E-02 -1.16506E-01 -2.30308E-01  1.08621E-01 -5.66701E-01
  -8.10633E-01 -1.32092E-01 -7.06970E-01 -7.32900E-01 -9.11797E-01 -4.65807E-01 -6.93205E-01 -8.49196E-01 -5.48589E-01 -4.78954E-01
  -2.35208E-01 -1.41807E-01 -1.00249E-01 -3.55734E-01  1.30393E-01  4.84895E-03 -2.40503E-01  1.13123E-01  3.94079E-01  4.84027E-01
   1.42511E-01 -1.64381E-01  2.42551E-01  3.66091E-01  1.37318E-01  5.65663E-03  8.19761E-02  3.02169E-01  4.24683E-01  3.51437E-01
   3.34743E-01  6.70393E-01  5.58267E-01  1.17775E+00  9.86433E-01  9.10947E-01  8.85304E-01  5.60528E-01  5.81458E-01 -3.25676E-01
  -4.78979E-01 -8.54843E-01 -5.90983E-01 -4.03383E-01 -6.67200E-01 -4.35122E-01 -4.99387E-01 -5.55211E-01 -5.08489E-01 -4.40138E-01
  -6.81881E-01 -4.43641E-01 -4.22362E-01 -6.15662E-01 -6.23715E-01 -6.32412E-01 -3.41391E-01 -4.05071E-01 -2.08562E-01  2.63909E-01
   1.12167E-01 -3.59252E-01 -3.04085E-01  4.84317E-01  1.24929E-01  3.70433E-02  1.88753E-01 -2.75563E-01  1.83507E-01  3.18853E-01
   3.40816E-01  3.97929E-01  2.22741E-01 -7.75653E-03  1.77428E-02 -5.58010E-02 -1.45386E-02  1.76788E-01  2.37467E-01  1.75077E-01
   1.62188E-02  7.24888E-02  4.28237E-03  3.49125E-02 -2.38679E-01 -2.54058E-01 -5.16110E-02  4.88466E-01  2.76523E-01 -5.82413E-01
  -1.95253E-01  3.92623E-01  2.24584E-02  1.77105E-01  3.55453E-01  4.52457E-02  3.90901E-01  2.07438E-01  3.34990E-01  4.14683E-01
   4.51866E-01  3.88770E-01  3.96845E-01  1.34140E-01  4.19337E-02  1.46272E-01 -2.46447E-03  9.03353E-02 -3.73684E-01 -1.22057E-01
  -3.67289E-01 -1.50346E-01 -1.70093E-01  3.65819E-02 -2.57711E-02 -2.77317E-01  1.66813E-01  8.44386E-02  4.07905E-01 -2.25987E-01
  -1.01646E-01 -1.49655E-01  4.81937E-02 -4.41160E-02 -3.06440E-01 -4.14450E-02 -3.01095E-02  1.38492E-01 -6.42025E-02  2.31339E-01
  -7.84206E-02  1.61296E-01  3.21408E-01  1.08192E-01  3.86134E-01  3.49269E-01 -1.08795E-01  1.51805E-01  2.68996E-01  1.55750E-01
   3.79067E-01  5.01944E-01  2.96132E-01 -1.11869E-01  2.12330E-01 -7.30299E-02 -6.38355E-03 -2.00184E-01  2.26461E-01 -6.14800E-02
  -5.31030E-01 -5.22666E-02 -4.12841E-01 -3.30726E-02  9.19983E-03 -7.75508E-02  1.38110E-01  7.44481E-01  2.19499E-01  2.43137E-01
   4.60190E-01  2.56348E-01  5.28529E-01  2.87618E-01  3.60538E-01  4.40245E-02  1.88682E-01  2.63729E-01  5.00060E-02  7.53928E-03
   4.71852E-01  1.61764E-01  4.19870E-02  2.92437E-01  1.04512E-01  5.71488E-01  3.99588E-01  2.75150E-01  3.89964E-01  4.26437E-01
   2.32414E-01  3.19895E-01  3.52006E-01  3.49049E-01 -8.54841E-02 -2.22019E-01  3.02821E-02 -2.76028E-01 -2.44029E-01 -5.64817E-01
  -1.28926E-01 -1.87979E-01 -6.25121E-01 -4.83042E-01 -5.99662E-01  6.91142E-02  2.46743E-02 -7.91420E-02  4.29082E-01 -1.06844E-01
   2.61487E-01  3.47071E-01  1.96161E-02  2.79154E-01 -2.31111E-01 -2.15961E-01 -1.12530E-01 -1.89697E-01 -4.89862E-01 -3.13790E-01
  -2.65558E-01 -6.99109E-01 -1.26386E+00 -1.49205E+00 -1.38857E+00 -1.25747E+00 -2.17972E-01 -5.27336E-01 -3.31610E-01  1.80840E-01
  -5.02556E-02  1.07379E-01 -5.05869E-02 -4.24383E-01 -3.54757E-01  2.28213E-01 -2.68792E-01 -4.01205E-01  1.32285E-01  7.87346E-02
  -2.58236E-01 -2.30854E-01 -4.87903E-02  8.91760E-02  6.07783E-02  6.13147E-03 -1.97064E-01 -2.15551E-03  2.22030E-01 -2.67828E-01
  -8.53117E-02  3.45999E-02  2.61816E-01 -1.00535E-01 -1.59473E-02  2.03005E-01  1.52023E-01  1.60974E-01 -1.12596E-01  5.10318E-01
   8.19890E-02 -1.96467E-01  3.84624E-02  6.46086E-01  4.71835E-01 -1.12884E-01  6.80106E-02  2.24960E-01  5.14484E-01  2.82256E-01
   4.63223E-01  4.35498E-01  5.70060E-01  3.26659E-01  1.52198E-01  3.46211E-01  3.55447E-01  3.58588E-01  2.19681E-01  4.57872E-01
   6.79880E-01  6.08662E-01 -2.97107E-02  1.57688E-01  1.74445E-01  3.49983E-01  3.14091E-02 -3.89529E-01  1.75511E-01 -1.52494E-01
   1.38478E-01  1.23819E-01 -5.17562E-02  1.95884E-01  7.13972E-03 -2.36793E-01 -8.89426E-02 -7.22741E-02 -2.93913E-01 -4.89787E-02
  -3.99522E-01 -4.81377E-01 -4.59052E-01 -6.18246E-01 -1.96432E-01 -3.02039E-01 -1.67281E-01 -1.88701E-01 -2.17470E-01  1.68550E-01
  -1.59675E-01  3.90270E-02  1.06918E-01 -1.32383E-02 -1.15232E-01 -1.81992E-02  2.18847E-02 -2.74028E-01  1.52331E-01  1.35738E-01
   2.47979E-01  4.16542E-01  1.09224E-01 -2.97805E-01  3.62874E-01  4.65921E-01 -1.45678E-01  3.54085E-01  2.53725E-01  2.89652E-01
   7.16235E-03  4.69452E-01  5.85867E-01  1.87431E-02  6.01994E-02 -3.13811E-01  3.97009E-01 -3.45114E-01 -3.90260E-01  4.00389E-01
  -2.35265E-01 -5.44772E-03 -1.49162E-01 -4.55492E-02 -1.73072E-01  1.15163E-01 -1.08984E-01 -7.04074E-01  5.86983E-02 -2.77293E-01
  -3.61183E-01 -4.13260E-01 -2.03048E-01 -1.25044E-01 -3.88420E-01 -1.03652E-01 -1.81641E-01 -8.16514E-02 -1.07709E-01  7.65412E-02
  -6.16220E-02  2.40986E-01  1.91592E-01 -2.86886E-01  9.63609E-02  1.88315E-02 -2.57798E-02  1.70795E-01 -1.06508E-01 -1.58482E-01
   2.65830E-01 -3.57595E-01 -1.66261E-01  1.21273E-01  1.82341E-02  5.22834E-01  2.68753E-01  1.80307E-01 -2.68823E-01  3.69477E-01
   3.55072E-01 -3.33834E-01  1.57488E-01 -3.17303E-02  3.49662E-01  2.00145E-01  2.11990E-01  1.28615E-01  1.50509E-01  5.60241E-01
  -1.27707E-01  3.30604E-01  1.85032E-01 -3.80085E-01  7.21553E-02  2.16706E-01  2.19782E-02  7.28377E-02 -2.71697E-02 -1.09636E-01
   1.20205E-01 -1.79614E-01 -8.92389E-02 -3.44699E-02 -3.14072E-01 -4.04137E-01 -4.95279E-01 -3.25882E-01 -1.11252E-01 -4.52820E-01
  -2.60692E-01 -1.00770E-01 -3.65886E-01 -2.40933E-01 -1.19646E-01 -1.13404E-02 -1.31876E-02  1.91586E-02 -3.01827E-01  2.90677E-01
  -1.67264E-01 -5.04071E-01 -2.12260E-01 -5.78922E-01  2.60841E-01 -4.24033E-02 -2.31333E-01  3.29564E-01  3.82545E-01 -3.96986E-01
   2.86660E-02  1.74633E-01 -2.22601E-01  5.58595E-01  1.38878E-01  4.00355E-02 -4.42303E-02  2.57376E-02 -1.28972E-01  2.88496E-03
   1.96340E-01  6.14871E-02  3.41550E-01  2.50731E-01  4.36381E-01  3.05860E-01  2.55629E-01 -1.79890E-02 -1.41486E-02  1.73912E-01
   2.56012E-01  4.37380E-01  1.07812E-01  3.44823E-02  2.55723E-01  3.32534E-01  9.36796E-02 -3.58577E-01 -2.49543E-01 -1.46045E-01
  -1.61901E-01  1.98491E-01 -2.75912E-02  1.49454E-01  2.63281E-01  5.41970E-03  2.14391E-01  3.64616E-01 -1.57011E-02  1.44495E-01
   1.97913E-01 -2.48353E-01  5.10396E-01  3.41157E-01 -1.00158E-01  2.00805E-01 -2.53857E-02 -2.82388E-01 -3.06323E-02 -6.38082E-02
  -1.60858E-02  4.40826E-02 -3.17676E-02  3.23733E-01 -4.09291E-02 -6.05802E-02  1.36936E-01  2.26573E-01 -7.06275E-02 -1.58539E-01
   2.40578E-02 -1.65853E-01 -2.16749E-01 -2.54676E-01  9.45664E-02  5.80197E-02  1.02450E-01 -1.23933E-01 -1.80906E-01 -2.39805E-01
   4.55452E-02  3.24426E-01 -4.73048E-02  2.52913E-01  4.17075E-02  1.75285E-01 -7.27960E-02  5.46278E-02  2.33849E-01 -1.64836E-01
   1.82581E-01  3.50272E-02  4.90824E-02 -1.81630E-01 -1.04119E-01  2.04091E-01  1.59488E-01  2.88631E-02 -2.45679E-01 -4.24234E-02
   3.90988E-02 -2.21965E-01 -7.22080E-02  6.19735E-02  1.28706E-01  3.84709E-01  1.69982E-01  3.15656E-01 -5.01574E-02  3.80440E-02
   3.77109E-01 -5.35125E-02  7.74428E-02  1.14929E-01
 NY points of the fit to the data follow
   1.90166E-01  1.69305E-01  1.39812E-01  1.09493E-01  8.64229E-02  7.01742E-02  6.09484E-02  6.36613E-02  8.24445E-02  1.13969E-01
   1.63461E-01  2.47295E-01  3.47472E-01  4.20241E-01  4.46876E-01  4.38065E-01  4.22216E-01  3.92313E-01  3.13702E-01  2.00253E-01
   1.04710E-01  4.86003E-02  8.36119E-04 -4.34686E-02 -7.41424E-02 -9.86476E-02 -1.18625E-01 -1.34561E-01 -1.47643E-01 -1.59397E-01
  -1.70892E-01 -1.83541E-01 -1.99134E-01 -2.18579E-01 -2.41881E-01 -2.62773E-01 -2.74259E-01 -2.72033E-01 -2.42780E-01 -1.77750E-01
  -8.09124E-02  3.10162E-02  1.36481E-01  2.27060E-01  3.08670E-01  3.78226E-01  4.15281E-01  4.14709E-01  3.86941E-01  3.45142E-01
   3.00155E-01  2.54484E-01  2.04200E-01  1.52106E-01  1.02966E-01  5.24269E-02  1.85851E-04 -4.93623E-02 -9.82204E-02 -1.41994E-01
  -1.77269E-01 -2.07937E-01 -2.17374E-01 -2.03598E-01 -1.77083E-01 -1.27950E-01 -5.87951E-02  3.33847E-02  1.37778E-01  2.22848E-01
   2.70597E-01  2.83365E-01  2.71737E-01  2.23795E-01  1.55628E-01  8.60033E-02  5.45709E-03 -7.58885E-02 -1.58050E-01 -2.38960E-01
  -2.82634E-01 -2.59873E-01 -1.65755E-01 -3.22870E-02  9.70508E-02  2.08798E-01  2.98970E-01  3.49538E-01  3.44775E-01  3.14318E-01
   2.86853E-01  2.55147E-01  2.19554E-01  1.82506E-01  1.39418E-01  8.65206E-02  2.08279E-02 -5.68577E-02 -1.41659E-01 -2.18160E-01
  -2.60907E-01 -2.48192E-01 -1.73229E-01 -5.67705E-02  6.51315E-02  1.62175E-01  2.21786E-01  2.51886E-01  2.63932E-01  2.67403E-01
   2.65785E-01  2.60752E-01  2.55585E-01  2.50306E-01  2.45019E-01  2.40218E-01  2.35893E-01  2.31068E-01  2.22016E-01  2.08732E-01
   1.92242E-01  1.61148E-01  1.16971E-01  6.81325E-02  8.47417E-03 -5.25567E-02 -1.19322E-01 -1.95652E-01 -2.71305E-01 -3.59601E-01
  -4.47560E-01 -5.31542E-01 -5.76714E-01 -5.68183E-01 -5.70015E-01 -5.98104E-01 -6.55231E-01 -6.67923E-01 -5.73627E-01 -4.12649E-01
  -2.58205E-01 -1.61920E-01 -8.38993E-02 -1.39215E-02  3.03030E-02  6.24874E-02  8.89696E-02  1.11603E-01  1.31184E-01  1.48533E-01
   1.64452E-01  1.79681E-01  1.94773E-01  2.10312E-01  2.26668E-01  2.44351E-01  2.64113E-01  2.86205E-01  3.11215E-01  3.40836E-01
   3.78790E-01  4.31825E-01  5.06177E-01  5.80484E-01  6.25318E-01  6.43113E-01  5.98165E-01  4.15919E-01  7.12245E-02 -3.46921E-01
  -6.55615E-01 -7.51184E-01 -6.99770E-01 -6.30143E-01 -5.74773E-01 -5.04827E-01 -4.38073E-01 -3.92035E-01 -3.58539E-01 -3.33718E-01
  -3.13319E-01 -2.92619E-01 -2.73547E-01 -2.58295E-01 -2.46787E-01 -2.36529E-01 -2.25627E-01 -2.14785E-01 -2.03817E-01 -1.92991E-01
  -1.82543E-01 -1.71676E-01 -1.60206E-01 -1.48609E-01 -1.37497E-01 -1.26789E-01 -1.16207E-01 -1.05337E-01 -9.40645E-02 -8.31163E-02
  -7.23165E-02 -6.14802E-02 -5.14830E-02 -4.48346E-02 -4.36109E-02 -4.42255E-02 -4.19932E-02 -3.76969E-02 -3.73432E-02 -4.48029E-02
  -5.56264E-02 -6.31132E-02 -6.47392E-02 -6.32672E-02 -6.16054E-02 -5.94590E-02 -5.71648E-02 -5.53361E-02 -5.34939E-02 -4.99949E-02
  -3.89697E-02 -1.76534E-02  1.12769E-02  5.28742E-02  1.11421E-01  1.82313E-01  2.43561E-01  2.68029E-01  2.67878E-01  2.78569E-01
   3.07621E-01  3.18162E-01  2.73134E-01  1.85752E-01  9.76583E-02  3.51952E-02 -6.95858E-03 -4.13427E-02 -6.46909E-02 -7.89039E-02
  -9.02579E-02 -9.94051E-02 -1.06501E-01 -1.11732E-01 -1.15595E-01 -1.18459E-01 -1.21076E-01 -1.23039E-01 -1.25540E-01 -1.30200E-01
  -1.38609E-01 -1.52718E-01 -1.65573E-01 -1.75612E-01 -1.85286E-01 -1.77527E-01 -1.45388E-01 -9.51279E-02 -4.15272E-02  1.48439E-03
   4.40450E-02  8.45307E-02  1.16147E-01  1.25871E-01  1.27749E-01  1.45299E-01  1.59013E-01  1.67555E-01  1.75169E-01  1.85209E-01
   1.89111E-01  1.74438E-01  1.47946E-01  1.10754E-01  7.09066E-02  2.88438E-02 -1.61317E-02 -6.23147E-02 -1.10308E-01 -1.59042E-01
  -2.01364E-01 -2.27903E-01 -2.28112E-01 -1.88183E-01 -1.10135E-01 -3.13411E-03  1.13924E-01  2.16445E-01  2.85803E-01  3.12938E-01
   3.07025E-01  2.80942E-01  2.50207E-01  2.26990E-01  2.10996E-01  2.04881E-01  2.07351E-01  2.11905E-01  2.15643E-01  2.16076E-01
   2.14580E-01  2.11370E-01  2.06861E-01  2.02423E-01  1.97641E-01  1.92563E-01  1.86687E-01  1.79247E-01  1.69783E-01  1.57401E-01
   1.41175E-01  1.19895E-01  9.25621E-02  5.84489E-02  1.63630E-02 -3.30267E-02 -9.02509E-02 -1.52450E-01 -2.15121E-01 -2.73053E-01
  -3.17906E-01 -3.44939E-01 -3.47451E-01 -3.23750E-01 -2.75403E-01 -2.07725E-01 -1.32193E-01 -5.96607E-02 -4.84517E-03  2.64835E-02
   3.35677E-02  1.90130E-02 -7.30862E-03 -3.92531E-02 -6.46898E-02 -7.92830E-02 -8.43145E-02 -1.15370E-01 -2.06003E-01 -3.35299E-01
  -5.38648E-01 -8.54421E-01 -1.22297E+00 -1.47653E+00 -1.43502E+00 -1.12380E+00 -7.53488E-01 -4.96995E-01 -3.34604E-01 -1.95452E-01
  -1.03924E-01 -6.00322E-02 -3.20051E-02 -1.22090E-02  2.32958E-03  1.30139E-02  2.06025E-02  2.55508E-02  2.72057E-02  2.59109E-02
   2.24621E-02  1.72743E-02  1.18790E-02  6.95097E-03  4.45046E-03  5.39932E-03  9.82441E-03  1.69875E-02  2.50361E-02  3.35976E-02
   4.17035E-02  4.94266E-02  5.66357E-02  6.29589E-02  6.85183E-02  7.31755E-02  7.74693E-02  8.18572E-02  8.63428E-02  9.04155E-02
   9.40052E-02  9.73671E-02  1.00704E-01  1.04197E-01  1.07571E-01  1.10445E-01  1.12806E-01  1.15094E-01  1.17679E-01  1.20847E-01
   1.24305E-01  1.27425E-01  1.29625E-01  1.30509E-01  1.30016E-01  1.28271E-01  1.25812E-01  1.22877E-01  1.19309E-01  1.14852E-01
   1.09406E-01  1.03145E-01  9.62298E-02  8.87817E-02  8.09975E-02  7.33148E-02  6.60786E-02  5.92528E-02  5.26207E-02  4.61211E-02
   4.02083E-02  3.49966E-02  3.03101E-02  2.60699E-02  2.20878E-02  1.82639E-02  1.45991E-02  1.12259E-02  8.26503E-03  5.84094E-03
   3.96719E-03  2.59821E-03  1.85794E-03  2.04452E-03  3.33457E-03  5.63100E-03  8.71187E-03  1.24970E-02  1.69908E-02  2.19163E-02
   2.66882E-02  3.09480E-02  3.48144E-02  3.90912E-02  4.48128E-02  5.19488E-02  5.98794E-02  6.81115E-02  7.67047E-02  8.61390E-02
   9.66477E-02  1.08289E-01  1.20751E-01  1.33580E-01  1.46539E-01  1.59452E-01  1.71969E-01  1.83545E-01  1.93410E-01  2.01056E-01
   2.06347E-01  2.09553E-01  2.11093E-01  2.11000E-01  2.09281E-01  2.05755E-01  2.00109E-01  1.92214E-01  1.82343E-01  1.71349E-01
   1.60083E-01  1.49038E-01  1.38125E-01  1.27124E-01  1.16368E-01  1.06268E-01  9.70783E-02  8.86696E-02  8.08989E-02  7.37303E-02
   6.74294E-02  6.21594E-02  5.76365E-02  5.40557E-02  5.19445E-02  5.15286E-02  5.26589E-02  5.49454E-02  5.80536E-02  6.20405E-02
   6.69487E-02  7.25286E-02  7.83076E-02  8.39032E-02  8.89477E-02  9.31342E-02  9.66389E-02  9.96308E-02  1.02387E-01  1.05102E-01
   1.07592E-01  1.09282E-01  1.09621E-01  1.08882E-01  1.07342E-01  1.05105E-01  1.02144E-01  9.86663E-02  9.51718E-02  9.17404E-02
   8.83471E-02  8.46987E-02  8.07826E-02  7.68397E-02  7.28265E-02  6.86765E-02  6.44756E-02  6.05134E-02  5.70088E-02  5.38010E-02
   5.04142E-02  4.64780E-02  4.18819E-02  3.65619E-02  3.01779E-02  2.25249E-02  1.39478E-02  4.56469E-03 -6.06919E-03 -1.86502E-02
  -3.36519E-02 -5.06865E-02 -6.89282E-02 -8.74877E-02 -1.05988E-01 -1.24303E-01 -1.41824E-01 -1.57916E-01 -1.72256E-01 -1.84794E-01
  -1.94951E-01 -2.01917E-01 -2.05615E-01 -2.06672E-01 -2.05606E-01 -2.02385E-01 -1.97041E-01 -1.90340E-01 -1.83261E-01 -1.76183E-01
  -1.68820E-01 -1.60868E-01 -1.52135E-01 -1.42472E-01 -1.32049E-01 -1.20991E-01 -1.09448E-01 -9.75853E-02 -8.57791E-02 -7.43601E-02
  -6.32434E-02 -5.24562E-02 -4.19746E-02 -3.18529E-02 -2.25970E-02 -1.43158E-02 -6.40978E-03  1.36363E-03  8.46569E-03  1.44173E-02
   1.94669E-02  2.42727E-02  2.88958E-02  3.27808E-02  3.57558E-02  3.82844E-02  4.07035E-02  4.26876E-02  4.42199E-02  4.55795E-02
   4.70772E-02  4.91869E-02  5.16758E-02  5.41313E-02  5.63476E-02  5.81379E-02  5.93710E-02  5.99516E-02  6.02473E-02  6.04467E-02
   6.04114E-02  6.02634E-02  6.01013E-02  5.99495E-02  5.99456E-02  6.01686E-02  6.04790E-02  6.08212E-02  6.11427E-02  6.09126E-02
   5.97171E-02  5.79920E-02  5.67904E-02  5.65202E-02  5.64566E-02  5.59790E-02  5.53001E-02  5.48683E-02  5.42957E-02  5.34586E-02
   5.30753E-02  5.35433E-02  5.45616E-02  5.53608E-02  5.59236E-02  5.67356E-02  5.78621E-02  5.89526E-02  5.97438E-02  6.03324E-02
   6.07371E-02  6.07056E-02  6.01404E-02  5.92486E-02  5.86314E-02  5.87058E-02  5.91970E-02  5.99354E-02  6.07542E-02  6.15682E-02
   6.23711E-02  6.33104E-02  6.47214E-02  6.63346E-02  6.74576E-02  6.76452E-02  6.69838E-02  6.60662E-02  6.55263E-02  6.55367E-02
   6.56757E-02  6.54201E-02  6.46856E-02  6.38192E-02  6.32818E-02  6.30714E-02  6.27649E-02  6.22639E-02  6.19616E-02  6.20517E-02
   6.24394E-02  6.26108E-02  6.22979E-02  6.21184E-02  6.23330E-02  6.27722E-02  6.34070E-02  6.46184E-02  6.65331E-02  6.85513E-02
   7.02428E-02  7.13713E-02  7.21267E-02  7.29741E-02
 NY background values follow
     5.376E-02    5.366E-02    5.357E-02    5.347E-02    5.337E-02    5.328E-02    5.318E-02    5.309E-02    5.299E-02    5.289E-02
     5.280E-02    5.270E-02    5.260E-02    5.251E-02    5.241E-02    5.231E-02    5.222E-02    5.212E-02    5.202E-02    5.193E-02
     5.183E-02    5.173E-02    5.163E-02    5.154E-02    5.144E-02    5.134E-02    5.125E-02    5.115E-02    5.105E-02    5.096E-02
     5.086E-02    5.076E-02    5.066E-02    5.057E-02    5.047E-02    5.037E-02    5.028E-02    5.018E-02    5.008E-02    4.998E-02
     4.989E-02    4.979E-02    4.969E-02    4.959E-02    4.950E-02    4.940E-02    4.930E-02    4.920E-02    4.911E-02    4.901E-02
     4.891E-02    4.881E-02    4.872E-02    4.862E-02    4.852E-02    4.842E-02    4.832E-02    4.823E-02    4.813E-02    4.803E-02
     4.793E-02    4.784E-02    4.774E-02    4.764E-02    4.754E-02    4.744E-02    4.735E-02    4.725E-02    4.715E-02    4.705E-02
