 
 $NMID
 ID=''
 FMTDAT='(2E13.5)'
 TRAMP=   1.00000E+0
 VOLUME=   1.00000E+0
 $END
  -1.84260E+4   7.09468E+2
  -4.62035E+4  -1.14348E+4
  -4.76723E+4  -2.95932E+3
  -4.41771E+4  -2.25471E+3
  -4.58370E+4  -3.47083E+3
  -4.61903E+4  -1.33418E+3
  -4.43979E+4  -1.48501E+3
  -4.48278E+4  -2.11795E+3
  -4.49175E+4  -6.83019E+2
  -4.37759E+4  -7.98815E+2
  -4.38342E+4  -1.21156E+3
  -4.37026E+4  -1.12060E+2
  -4.29412E+4   9.45719E+1
  -4.29870E+4  -3.74331E+2
  -4.27693E+4   4.52635E+2
  -4.20493E+4   6.57776E+2
  -4.20880E+4   4.71741E+2
  -4.17540E+4   1.11997E+3
  -4.11464E+4   1.50765E+3
  -4.11200E+4   1.35341E+3
  -4.07640E+4   1.84113E+3
  -4.02227E+4   2.34577E+3
  -4.02333E+4   2.38968E+3
  -4.00226E+4   2.69140E+3
  -3.93188E+4   2.98263E+3
  -3.91929E+4   3.17845E+3
  -3.90516E+4   3.39820E+3
  -3.84717E+4   3.53369E+3
  -3.83014E+4   3.66007E+3
  -3.81058E+4   3.96891E+3
  -3.76123E+4   4.17244E+3
  -3.74315E+4   4.36110E+3
  -3.72353E+4   4.57501E+3
  -3.68914E+4   4.73513E+3
  -3.66198E+4   4.87403E+3
  -3.63784E+4   5.20323E+3
  -3.60111E+4   5.38476E+3
  -3.57300E+4   5.55098E+3
  -3.54925E+4   5.84494E+3
  -3.52149E+4   6.12163E+3
  -3.50366E+4   6.23987E+3
  -3.48025E+4   6.28111E+3
  -3.44544E+4   6.33989E+3
  -3.41895E+4   6.43904E+3
  -3.39258E+4   6.72025E+3
  -3.36694E+4   6.79160E+3
  -3.32828E+4   6.91291E+3
  -3.30884E+4   7.04651E+3
  -3.27658E+4   7.18486E+3
  -3.24780E+4   7.33411E+3
  -3.22961E+4   7.35262E+3
  -3.19423E+4   7.44911E+3
  -3.15583E+4   7.57131E+3
  -3.13758E+4   7.78792E+3
  -3.11016E+4   7.86431E+3
  -3.08812E+4   7.93768E+3
  -3.05680E+4   8.02503E+3
  -3.02793E+4   8.08322E+3
  -3.00236E+4   8.08886E+3
  -2.96554E+4   8.18928E+3
  -2.93118E+4   8.22895E+3
  -2.90216E+4   8.36165E+3
  -2.88228E+4   8.41780E+3
  -2.85644E+4   8.47395E+3
  -2.82220E+4   8.45055E+3
  -2.78620E+4   8.46239E+3
  -2.76289E+4   8.61919E+3
  -2.74325E+4   8.65616E+3
  -2.70969E+4   8.64451E+3
  -2.67436E+4   8.64732E+3
  -2.64278E+4   8.79850E+3
  -2.60760E+4   8.82889E+3
  -2.57968E+4   8.87494E+3
  -2.54954E+4   8.83883E+3
  -2.51776E+4   8.94939E+3
  -2.49703E+4   9.04734E+3
  -2.46854E+4   9.06490E+3
  -2.43411E+4   9.12369E+3
  -2.40389E+4   9.16047E+3
  -2.37687E+4   9.24757E+3
  -2.34880E+4   9.28874E+3
  -2.32125E+4   9.37159E+3
  -2.28332E+4   9.43216E+3
  -2.25961E+4   9.43064E+3
  -2.23514E+4   9.50320E+3
  -2.20356E+4   9.49553E+3
  -2.18062E+4   9.46856E+3
  -2.15325E+4   9.49706E+3
  -2.12387E+4   9.55537E+3
  -2.10303E+4   9.62099E+3
  -2.07656E+4   9.57877E+3
  -2.04075E+4   9.70079E+3
  -2.01924E+4   9.75401E+3
  -1.98932E+4   9.81274E+3
  -1.97011E+4   9.88539E+3
  -1.93766E+4   9.89231E+3
  -1.90835E+4   1.00393E+4
  -1.88812E+4   1.00339E+4
  -1.86101E+4   1.00783E+4
  -1.83598E+4   1.01014E+4
  -1.81428E+4   1.01275E+4
  -1.78694E+4   1.01495E+4
  -1.76184E+4   1.03034E+4
  -1.74309E+4   1.03019E+4
  -1.72360E+4   1.03219E+4
  -1.70150E+4   1.03257E+4
  -1.67535E+4   1.03487E+4
  -1.66251E+4   1.04118E+4
  -1.63660E+4   1.04315E+4
  -1.60970E+4   1.04184E+4
  -1.58694E+4   1.04038E+4
  -1.56033E+4   1.05049E+4
  -1.54473E+4   1.04783E+4
  -1.51750E+4   1.05085E+4
  -1.50420E+4   1.04914E+4
  -1.48400E+4   1.04036E+4
  -1.46472E+4   1.04036E+4
  -1.44414E+4   1.04211E+4
  -1.42237E+4   1.04739E+4
  -1.39897E+4   1.04375E+4
  -1.38143E+4   1.04263E+4
  -1.37156E+4   1.03829E+4
  -1.34534E+4   1.03078E+4
  -1.32711E+4   1.02963E+4
  -1.30026E+4   1.03056E+4
  -1.29059E+4   1.02507E+4
  -1.27391E+4   1.02221E+4
  -1.25323E+4   1.02633E+4
  -1.23868E+4   1.01576E+4
  -1.22578E+4   1.01777E+4
  -1.20943E+4   1.01122E+4
  -1.18906E+4   1.00322E+4
  -1.17210E+4   1.00155E+4
  -1.15712E+4   9.97545E+3
  -1.14062E+4   9.89644E+3
  -1.11901E+4   9.89987E+3
  -1.10360E+4   9.85361E+3
  -1.08676E+4   9.75664E+3
  -1.06879E+4   9.71040E+3
  -1.05190E+4   9.62921E+3
  -1.02857E+4   9.61599E+3
  -1.01501E+4   9.52809E+3
  -1.00327E+4   9.39497E+3
  -9.85444E+3   9.42144E+3
  -9.71648E+3   9.41273E+3
  -9.57987E+3   9.31004E+3
  -9.37107E+3   9.24807E+3
  -9.20185E+3   9.23531E+3
  -9.07985E+3   9.16387E+3
  -8.90885E+3   9.11786E+3
  -8.81045E+3   9.10841E+3
  -8.62698E+3   8.97013E+3
  -8.48723E+3   8.88083E+3
  -8.33177E+3   8.78600E+3
  -8.15046E+3   8.72903E+3
  -8.02541E+3   8.73272E+3
  -7.87346E+3   8.56634E+3
  -7.73385E+3   8.57513E+3
  -7.59006E+3   8.57114E+3
  -7.49240E+3   8.50850E+3
  -7.34028E+3   8.41365E+3
  -7.21597E+3   8.40828E+3
  -7.11098E+3   8.30321E+3
  -7.05457E+3   8.27006E+3
  -6.87367E+3   8.17129E+3
  -6.74092E+3   8.09672E+3
  -6.65835E+3   8.06761E+3
  -6.45927E+3   7.96046E+3
  -6.38371E+3   7.93782E+3
  -6.26574E+3   7.90651E+3
  -6.22714E+3   7.79883E+3
  -6.07738E+3   7.73307E+3
  -6.01888E+3   7.71560E+3
  -5.87367E+3   7.57535E+3
  -5.71950E+3   7.51365E+3
  -5.66651E+3   7.43751E+3
  -5.60287E+3   7.40511E+3
  -5.46979E+3   7.38519E+3
  -5.39186E+3   7.29471E+3
  -5.26794E+3   7.18448E+3
  -5.19313E+3   7.07168E+3
  -5.10533E+3   7.07596E+3
  -4.96471E+3   6.99116E+3
  -4.86182E+3   6.93939E+3
  -4.84737E+3   6.87823E+3
  -4.72691E+3   6.75023E+3
  -4.61723E+3   6.77996E+3
  -4.54911E+3   6.67384E+3
  -4.41760E+3   6.53354E+3
  -4.33973E+3   6.49284E+3
  -4.26993E+3   6.40052E+3
  -4.16439E+3   6.35628E+3
  -4.12110E+3   6.33571E+3
  -4.03524E+3   6.23545E+3
  -3.93981E+3   6.18250E+3
  -3.91540E+3   6.10815E+3
  -3.79823E+3   6.05741E+3
  -3.76774E+3   5.94674E+3
  -3.61565E+3   5.88845E+3
  -3.56742E+3   5.86051E+3
  -3.50165E+3   5.81975E+3
  -3.45950E+3   5.72562E+3
  -3.42966E+3   5.60735E+3
  -3.35450E+3   5.60037E+3
  -3.19300E+3   5.44349E+3
  -3.17867E+3   5.51384E+3
  -3.14909E+3   5.39351E+3
  -3.05762E+3   5.36680E+3
  -2.88880E+3   5.26502E+3
  -2.91471E+3   5.24605E+3
  -2.91851E+3   5.15663E+3
  -2.79173E+3   5.11543E+3
  -2.84928E+3   5.03130E+3
  -2.61339E+3   4.98292E+3
  -2.62977E+3   4.95831E+3
  -2.60399E+3   4.92751E+3
  -2.55844E+3   4.85814E+3
  -2.43962E+3   4.71202E+3
  -2.47001E+3   4.75335E+3
  -2.43029E+3   4.61593E+3
  -2.37982E+3   4.57479E+3
  -2.30243E+3   4.61158E+3
  -2.23710E+3   4.46308E+3
  -2.21277E+3   4.50385E+3
  -2.11169E+3   4.45395E+3
  -2.13740E+3   4.38731E+3
  -2.10958E+3   4.35015E+3
  -2.07530E+3   4.25123E+3
  -2.03767E+3   4.21817E+3
  -2.08787E+3   4.20352E+3
  -1.91538E+3   4.13193E+3
  -1.89079E+3   4.09064E+3
  -1.88147E+3   4.00444E+3
  -1.82878E+3   4.02490E+3
  -1.86821E+3   3.97715E+3
  -1.69541E+3   3.88534E+3
  -1.67582E+3   3.82267E+3
  -1.73902E+3   3.85932E+3
  -1.64689E+3   3.74126E+3
  -1.63993E+3   3.74064E+3
  -1.60789E+3   3.62963E+3
  -1.62895E+3   3.61966E+3
  -1.56655E+3   3.59106E+3
  -1.57093E+3   3.55073E+3
  -1.54434E+3   3.55788E+3
  -1.50092E+3   3.41239E+3
  -1.50106E+3   3.45329E+3
  -1.46724E+3   3.40366E+3
  -1.50576E+3   3.37084E+3
  -1.37238E+3   3.28225E+3
  -1.42193E+3   3.29020E+3
  -1.38811E+3   3.26019E+3
  -1.44263E+3   3.21985E+3
  -1.35649E+3   3.16516E+3
  -1.29975E+3   3.08432E+3
  -1.27569E+3   3.17509E+3
  -1.26639E+3   3.01626E+3
  -1.20081E+3   3.00421E+3
  -1.22107E+3   3.02397E+3
  -1.17393E+3   2.96001E+3
  -1.18430E+3   2.90095E+3
  -1.20123E+3   2.96171E+3
  -1.09581E+3   2.89793E+3
  -1.06556E+3   2.90882E+3
  -1.04720E+3   2.77068E+3
  -1.12988E+3   2.78419E+3
  -1.04318E+3   2.82495E+3
  -9.67831E+2   2.72227E+3
  -1.05386E+3   2.74367E+3
  -9.89213E+2   2.75710E+3
  -9.78437E+2   2.61204E+3
  -9.28007E+2   2.60468E+3
  -9.60913E+2   2.57474E+3
  -8.99761E+2   2.60619E+3
  -8.83311E+2   2.62096E+3
  -9.26235E+2   2.55359E+3
  -8.77400E+2   2.50532E+3
  -8.69670E+2   2.48709E+3
  -8.54935E+2   2.42275E+3
  -8.04179E+2   2.47497E+3
  -7.77305E+2   2.38060E+3
  -7.88526E+2   2.33274E+3
  -7.87890E+2   2.38195E+3
  -8.00564E+2   2.38818E+3
  -7.67216E+2   2.33076E+3
  -6.75313E+2   2.28915E+3
  -6.92586E+2   2.31873E+3
  -7.51857E+2   2.22971E+3
  -6.29454E+2   2.18705E+3
  -7.11804E+2   2.22684E+3
  -6.50064E+2   2.23227E+3
  -6.58986E+2   2.17891E+3
  -6.00048E+2   2.20818E+3
  -5.94200E+2   2.11195E+3
  -6.15101E+2   2.15160E+3
  -5.83923E+2   2.12531E+3
  -5.43013E+2   2.09031E+3
  -6.07217E+2   2.14350E+3
  -5.60493E+2   2.04488E+3
  -5.56756E+2   2.06646E+3
  -4.65126E+2   2.01245E+3
  -5.48838E+2   2.07027E+3
  -4.71713E+2   2.06056E+3
  -5.58413E+2   1.95997E+3
  -5.18639E+2   2.02368E+3
  -5.25586E+2   1.97049E+3
  -4.48506E+2   1.96439E+3
  -4.86172E+2   1.93653E+3
  -4.51284E+2   1.89916E+3
  -4.24245E+2   1.92203E+3
  -3.88121E+2   1.82716E+3
  -4.07042E+2   1.84916E+3
  -4.29728E+2   1.88663E+3
  -3.70294E+2   1.85937E+3
  -2.89817E+2   1.83972E+3
  -3.51237E+2   1.86804E+3
  -3.56505E+2   1.76320E+3
  -2.88332E+2   1.85477E+3
  -4.19561E+2   1.77268E+3
  -3.21131E+2   1.79492E+3
  -3.03354E+2   1.76891E+3
  -3.53009E+2   1.75320E+3
  -2.93253E+2   1.73442E+3
  -2.48944E+2   1.67919E+3
  -2.97101E+2   1.66661E+3
  -2.22912E+2   1.60739E+3
  -2.65204E+2   1.67662E+3
  -2.31149E+2   1.66865E+3
  -2.98964E+2   1.63192E+3
  -2.63138E+2   1.64862E+3
  -1.85881E+2   1.65227E+3
  -1.89804E+2   1.65181E+3
  -2.70336E+2   1.60622E+3
  -1.81248E+2   1.62857E+3
  -1.89577E+2   1.60998E+3
  -2.06154E+2   1.61334E+3
  -1.42107E+2   1.53788E+3
  -1.32536E+2   1.51579E+3
  -1.24718E+2   1.55055E+3
  -8.35205E+1   1.52023E+3
  -1.28270E+2   1.54537E+3
  -1.20097E+2   1.54033E+3
  -7.26413E+1   1.48993E+3
  -1.14457E+2   1.47538E+3
  -1.52371E+2   1.45248E+3
  -8.30019E+1   1.50360E+3
  -9.24773E+1   1.48332E+3
  -1.12500E+2   1.48974E+3
  -7.98990E+1   1.41974E+3
  -7.81811E+1   1.47658E+3
  -5.75688E+1   1.39725E+3
  -9.92513E+1   1.37251E+3
  -6.87689E+1   1.36955E+3
  -4.05442E+1   1.37775E+3
  -6.45469E+1   1.38031E+3
  -5.35760E+1   1.33608E+3
  -1.42380E+1   1.35122E+3
   2.06504E+0   1.28129E+3
  -9.95221E+0   1.34839E+3
   6.19909E+1   1.31705E+3
  -2.73055E+1   1.24677E+3
  -6.62301E+1   1.27905E+3
   9.14817E+0   1.32339E+3
   4.22044E+1   1.26422E+3
   4.01755E+1   1.24628E+3
  -4.12162E+1   1.29991E+3
   3.51491E+1   1.24229E+3
