 
 $NMID
 ID=''
 FMTDAT='(2E13.5)'
 TRAMP=   1.00000E+0
 VOLUME=   1.00000E+0
 $END
  -1.16541E+4   1.57425E+4
  -3.99654E+4   3.04702E+4
  -3.35699E+4   3.71151E+4
  -3.05612E+4   3.42900E+4
  -3.25511E+4   3.47470E+4
  -3.08201E+4   3.63420E+4
  -2.96985E+4   3.48394E+4
  -3.06511E+4   3.48850E+4
  -2.94211E+4   3.60378E+4
  -2.86511E+4   3.51662E+4
  -2.90955E+4   3.51110E+4
  -2.79485E+4   3.59416E+4
  -2.71291E+4   3.55821E+4
  -2.75384E+4   3.56441E+4
  -2.67089E+4   3.62473E+4
  -2.58200E+4   3.59782E+4
  -2.58554E+4   3.61108E+4
  -2.51061E+4   3.64729E+4
  -2.42181E+4   3.62185E+4
  -2.42052E+4   3.62019E+4
  -2.34518E+4   3.63961E+4
  -2.26345E+4   3.62834E+4
  -2.24722E+4   3.63515E+4
  -2.19058E+4   3.64692E+4
  -2.11512E+4   3.61575E+4
  -2.08512E+4   3.61818E+4
  -2.04131E+4   3.63455E+4
  -1.99041E+4   3.60312E+4
  -1.96164E+4   3.59539E+4
  -1.90649E+4   3.60100E+4
  -1.84815E+4   3.59102E+4
  -1.81267E+4   3.60120E+4
  -1.78290E+4   3.60424E+4
  -1.73145E+4   3.59355E+4
  -1.69538E+4   3.58758E+4
  -1.65585E+4   3.59272E+4
  -1.60121E+4   3.57641E+4
  -1.55602E+4   3.57449E+4
  -1.50906E+4   3.57747E+4
  -1.46549E+4   3.56958E+4
  -1.42775E+4   3.56655E+4
  -1.39520E+4   3.56787E+4
  -1.35757E+4   3.54877E+4
  -1.31414E+4   3.53054E+4
  -1.26015E+4   3.54082E+4
  -1.20857E+4   3.53310E+4
  -1.17270E+4   3.52095E+4
  -1.12571E+4   3.52365E+4
  -1.07719E+4   3.51601E+4
  -1.03934E+4   3.50463E+4
  -9.98520E+3   3.50380E+4
  -9.58673E+3   3.48537E+4
  -9.06415E+3   3.48075E+4
  -8.54261E+3   3.47338E+4
  -8.18356E+3   3.46499E+4
  -7.72664E+3   3.45760E+4
  -7.35955E+3   3.45444E+4
  -6.94989E+3   3.43618E+4
  -6.56770E+3   3.42308E+4
  -6.04157E+3   3.40954E+4
  -5.63317E+3   3.38979E+4
  -5.18719E+3   3.37173E+4
  -4.72818E+3   3.36957E+4
  -4.35867E+3   3.36072E+4
  -3.99353E+3   3.33913E+4
  -3.53233E+3   3.32818E+4
  -3.08474E+3   3.31617E+4
  -2.72551E+3   3.30819E+4
  -2.42015E+3   3.28910E+4
  -1.94452E+3   3.27624E+4
  -1.57724E+3   3.26429E+4
  -1.24149E+3   3.24624E+4
  -8.56805E+2   3.23278E+4
  -4.46934E+2   3.21632E+4
  -8.93959E+1   3.20453E+4
   3.08099E+2   3.19379E+4
   6.27340E+2   3.17884E+4
   9.91479E+2   3.16034E+4
   1.29473E+3   3.13850E+4
   1.73759E+3   3.13077E+4
   2.04362E+3   3.10580E+4
   2.39935E+3   3.09836E+4
   2.73802E+3   3.07430E+4
   3.08935E+3   3.05852E+4
   3.33599E+3   3.05129E+4
   3.63385E+3   3.03263E+4
   3.89242E+3   3.00885E+4
   4.21689E+3   2.98552E+4
   4.57048E+3   2.97254E+4
   4.86321E+3   2.96156E+4
   5.18130E+3   2.93638E+4
   5.40980E+3   2.92518E+4
   5.68576E+3   2.90513E+4
   6.02238E+3   2.89043E+4
   6.22093E+3   2.87124E+4
   6.53622E+3   2.84591E+4
   6.74455E+3   2.82746E+4
   7.18413E+3   2.80568E+4
   7.35989E+3   2.79474E+4
   7.51048E+3   2.77724E+4
   7.72684E+3   2.74712E+4
   8.00539E+3   2.72517E+4
   8.36438E+3   2.70169E+4
   8.55632E+3   2.69581E+4
   8.80346E+3   2.67076E+4
   9.07295E+3   2.65450E+4
   9.27014E+3   2.62949E+4
   9.54536E+3   2.60829E+4
   9.72982E+3   2.58242E+4
   9.96530E+3   2.55714E+4
   1.02502E+4   2.52984E+4
   1.04682E+4   2.51515E+4
   1.07139E+4   2.49494E+4
   1.09450E+4   2.47285E+4
   1.11861E+4   2.45467E+4
   1.13088E+4   2.43175E+4
   1.15099E+4   2.41360E+4
   1.17176E+4   2.38517E+4
   1.19247E+4   2.36555E+4
   1.21855E+4   2.34250E+4
   1.24085E+4   2.31443E+4
   1.25731E+4   2.30125E+4
   1.27369E+4   2.27540E+4
   1.28890E+4   2.25303E+4
   1.30915E+4   2.23788E+4
   1.32721E+4   2.21078E+4
   1.34783E+4   2.19032E+4
   1.36532E+4   2.16673E+4
   1.37789E+4   2.14606E+4
   1.39151E+4   2.12719E+4
   1.40570E+4   2.10470E+4
   1.41654E+4   2.07310E+4
   1.43339E+4   2.05619E+4
   1.45193E+4   2.02851E+4
   1.45385E+4   2.01541E+4
   1.46666E+4   1.99556E+4
   1.47420E+4   1.96508E+4
   1.48465E+4   1.93419E+4
   1.49809E+4   1.91174E+4
   1.50982E+4   1.89418E+4
   1.50897E+4   1.86436E+4
   1.52563E+4   1.83937E+4
   1.52967E+4   1.81999E+4
   1.54041E+4   1.80429E+4
   1.55022E+4   1.77657E+4
   1.55500E+4   1.75298E+4
   1.56418E+4   1.72002E+4
   1.56776E+4   1.70355E+4
   1.57796E+4   1.67622E+4
   1.58749E+4   1.65547E+4
   1.58920E+4   1.63452E+4
   1.58995E+4   1.60705E+4
   1.58572E+4   1.58418E+4
   1.59309E+4   1.56501E+4
   1.59563E+4   1.53901E+4
   1.61130E+4   1.51253E+4
   1.60847E+4   1.48945E+4
   1.61651E+4   1.46320E+4
   1.61798E+4   1.44108E+4
   1.62549E+4   1.42466E+4
   1.62561E+4   1.39299E+4
   1.63326E+4   1.36898E+4
   1.62952E+4   1.35640E+4
   1.63213E+4   1.32929E+4
   1.63530E+4   1.30999E+4
   1.64683E+4   1.28433E+4
   1.63639E+4   1.26672E+4
   1.64493E+4   1.23598E+4
   1.65070E+4   1.21530E+4
   1.64930E+4   1.19634E+4
   1.65731E+4   1.17258E+4
   1.64515E+4   1.15991E+4
   1.65098E+4   1.13612E+4
   1.64867E+4   1.11659E+4
   1.64716E+4   1.08878E+4
   1.65028E+4   1.06218E+4
   1.64576E+4   1.05133E+4
   1.65458E+4   1.01831E+4
   1.65398E+4   9.99606E+3
   1.65606E+4   9.89425E+3
   1.64829E+4   9.57916E+3
   1.64974E+4   9.44429E+3
   1.64477E+4   9.26407E+3
   1.64045E+4   9.05929E+3
   1.63910E+4   8.84586E+3
   1.63453E+4   8.62746E+3
   1.63805E+4   8.38833E+3
   1.62954E+4   8.19837E+3
   1.63084E+4   8.10345E+3
   1.62200E+4   7.79926E+3
   1.62222E+4   7.62582E+3
   1.61293E+4   7.37978E+3
   1.61460E+4   7.15935E+3
   1.60327E+4   7.04555E+3
   1.59673E+4   6.81924E+3
   1.60018E+4   6.60400E+3
   1.59883E+4   6.38149E+3
   1.59268E+4   6.25483E+3
   1.58205E+4   6.01373E+3
   1.58036E+4   5.81206E+3
   1.57672E+4   5.68290E+3
   1.57006E+4   5.50427E+3
   1.56380E+4   5.35459E+3
   1.56325E+4   5.14021E+3
   1.55200E+4   4.90192E+3
   1.54626E+4   4.68394E+3
   1.54379E+4   4.55583E+3
   1.53593E+4   4.35013E+3
   1.52847E+4   4.15040E+3
   1.52774E+4   3.98397E+3
   1.52038E+4   3.79812E+3
   1.50932E+4   3.63902E+3
   1.50861E+4   3.49100E+3
   1.50406E+4   3.24666E+3
   1.49935E+4   3.05841E+3
   1.49028E+4   2.93361E+3
   1.47693E+4   2.81387E+3
   1.47097E+4   2.63921E+3
   1.46700E+4   2.44290E+3
   1.46318E+4   2.28844E+3
   1.45707E+4   2.12707E+3
   1.45465E+4   1.92408E+3
   1.44412E+4   1.89920E+3
   1.43693E+4   1.71856E+3
   1.43535E+4   1.56470E+3
   1.43103E+4   1.38971E+3
   1.41280E+4   1.20757E+3
   1.41377E+4   1.11157E+3
   1.40332E+4   9.26647E+2
   1.39418E+4   7.72818E+2
   1.38909E+4   6.64182E+2
   1.37681E+4   4.92239E+2
   1.37359E+4   3.78712E+2
   1.36642E+4   2.55282E+2
   1.35369E+4   1.32866E+2
   1.34944E+4  -4.15443E+1
   1.34397E+4  -2.18218E+2
   1.34242E+4  -3.33317E+2
   1.33051E+4  -4.67197E+2
   1.31153E+4  -5.51298E+2
   1.30209E+4  -7.04927E+2
   1.29974E+4  -8.11867E+2
   1.29322E+4  -9.73469E+2
   1.28388E+4  -1.08653E+3
   1.27163E+4  -1.17399E+3
   1.26932E+4  -1.28081E+3
   1.26031E+4  -1.40245E+3
   1.25710E+4  -1.54242E+3
   1.23403E+4  -1.71536E+3
   1.23517E+4  -1.77740E+3
   1.22125E+4  -1.97193E+3
   1.22491E+4  -2.08279E+3
   1.20991E+4  -2.09545E+3
   1.20166E+4  -2.23395E+3
   1.19261E+4  -2.29670E+3
   1.18480E+4  -2.45473E+3
   1.17356E+4  -2.53056E+3
   1.17216E+4  -2.64570E+3
   1.15824E+4  -2.84329E+3
   1.15651E+4  -2.92023E+3
   1.14379E+4  -3.05683E+3
   1.13070E+4  -3.07378E+3
   1.12497E+4  -3.22764E+3
   1.11784E+4  -3.33984E+3
   1.10837E+4  -3.46111E+3
   1.10380E+4  -3.52271E+3
   1.08875E+4  -3.68663E+3
   1.08049E+4  -3.65295E+3
   1.07284E+4  -3.80718E+3
   1.05958E+4  -3.90662E+3
   1.05354E+4  -3.99189E+3
   1.03671E+4  -4.13012E+3
   1.03352E+4  -4.27731E+3
   1.02467E+4  -4.24191E+3
   1.01055E+4  -4.24725E+3
   1.00556E+4  -4.41684E+3
   9.95252E+3  -4.58733E+3
   9.84551E+3  -4.59279E+3
   9.75640E+3  -4.80522E+3
   9.68875E+3  -4.69164E+3
   9.58148E+3  -4.85009E+3
   9.42725E+3  -4.93966E+3
   9.39244E+3  -5.00581E+3
   9.22580E+3  -5.05567E+3
   9.18018E+3  -5.08101E+3
   9.03209E+3  -5.23464E+3
   8.94419E+3  -5.25423E+3
   8.89656E+3  -5.27456E+3
   8.60963E+3  -5.30419E+3
   8.68309E+3  -5.41807E+3
   8.59779E+3  -5.47034E+3
   8.42777E+3  -5.55373E+3
   8.36265E+3  -5.62439E+3
   8.27166E+3  -5.67229E+3
   8.17376E+3  -5.79059E+3
   8.00317E+3  -5.81886E+3
   7.89731E+3  -5.78943E+3
   7.86642E+3  -5.87827E+3
   7.74313E+3  -5.93628E+3
   7.61009E+3  -6.02683E+3
   7.54925E+3  -6.06324E+3
   7.44814E+3  -6.10462E+3
   7.28698E+3  -6.12053E+3
   7.24652E+3  -6.15674E+3
   7.09802E+3  -6.15020E+3
   7.01722E+3  -6.20827E+3
   6.81574E+3  -6.28629E+3
   6.87671E+3  -6.35825E+3
   6.74080E+3  -6.39337E+3
   6.63671E+3  -6.37452E+3
   6.52627E+3  -6.38743E+3
   6.39880E+3  -6.46280E+3
   6.25494E+3  -6.48758E+3
   6.17458E+3  -6.53625E+3
   6.05826E+3  -6.58770E+3
   5.93756E+3  -6.55915E+3
   5.85736E+3  -6.62340E+3
   5.73757E+3  -6.66976E+3
   5.72365E+3  -6.70081E+3
   5.61056E+3  -6.69767E+3
   5.45056E+3  -6.66848E+3
   5.35248E+3  -6.70831E+3
   5.28749E+3  -6.73661E+3
   5.21505E+3  -6.72093E+3
   5.05455E+3  -6.76120E+3
   4.96612E+3  -6.76354E+3
   4.91016E+3  -6.79635E+3
   4.76457E+3  -6.73874E+3
   4.70036E+3  -6.79611E+3
   4.57471E+3  -6.73944E+3
   4.55319E+3  -6.85843E+3
   4.44253E+3  -6.84628E+3
   4.28316E+3  -6.75821E+3
   4.22162E+3  -6.78201E+3
   4.18104E+3  -6.86519E+3
   4.01868E+3  -6.82222E+3
   3.94235E+3  -6.79929E+3
   3.88071E+3  -6.82894E+3
   3.79002E+3  -6.87707E+3
   3.65296E+3  -6.81861E+3
   3.61052E+3  -6.75981E+3
   3.52115E+3  -6.76044E+3
   3.39874E+3  -6.79565E+3
   3.26178E+3  -6.81203E+3
   3.22574E+3  -6.74270E+3
   3.19500E+3  -6.76726E+3
   3.06481E+3  -6.67827E+3
   2.93600E+3  -6.74777E+3
   2.89523E+3  -6.77018E+3
   2.82319E+3  -6.71326E+3
   2.70869E+3  -6.63684E+3
   2.64807E+3  -6.73056E+3
   2.57202E+3  -6.63863E+3
   2.51971E+3  -6.55878E+3
   2.39047E+3  -6.52559E+3
   2.31141E+3  -6.50942E+3
   2.25827E+3  -6.54034E+3
   2.13185E+3  -6.48341E+3
   2.11416E+3  -6.50574E+3
   2.02425E+3  -6.40640E+3
   1.90847E+3  -6.45028E+3
   1.86057E+3  -6.43194E+3
   1.81403E+3  -6.40550E+3
   1.66133E+3  -6.35543E+3
   1.65330E+3  -6.32209E+3
   1.50673E+3  -6.26302E+3
   1.40894E+3  -6.25239E+3
