 
 $NMID
 ID=''
 FMTDAT='(2E13.5)'
 TRAMP=   1.00000E+0
 VOLUME=   1.00000E+0
 $END
  -9.77158E+3  -3.22951E+3
  -2.25118E+4  -1.72909E+4
  -2.45176E+4  -1.63878E+4
  -2.18405E+4  -1.85065E+4
  -2.09403E+4  -2.20421E+4
  -1.94219E+4  -2.33216E+4
  -1.61938E+4  -2.51237E+4
  -1.37398E+4  -2.73047E+4
  -1.13597E+4  -2.79655E+4
  -7.92405E+3  -2.87883E+4
  -4.90768E+3  -2.96811E+4
  -2.34285E+3  -2.95671E+4
   9.50012E+2  -2.94117E+4
   3.89071E+3  -2.93797E+4
   6.63722E+3  -2.84314E+4
   9.76463E+3  -2.72826E+4
   1.22213E+4  -2.62162E+4
   1.46078E+4  -2.45440E+4
   1.70205E+4  -2.25978E+4
   1.89860E+4  -2.07046E+4
   2.06506E+4  -1.84592E+4
   2.23184E+4  -1.61454E+4
   2.35644E+4  -1.37767E+4
   2.44833E+4  -1.11694E+4
   2.54492E+4  -8.45349E+3
   2.58670E+4  -5.91741E+3
   2.60769E+4  -3.15298E+3
   2.61486E+4  -3.61548E+2
   2.59339E+4   2.30116E+3
   2.51967E+4   4.97089E+3
   2.45571E+4   7.43118E+3
   2.34433E+4   9.75919E+3
   2.21637E+4   1.22212E+4
   2.05849E+4   1.43548E+4
   1.89818E+4   1.61674E+4
   1.70356E+4   1.79434E+4
   1.50735E+4   1.94710E+4
   1.30184E+4   2.06884E+4
   1.07649E+4   2.18877E+4
   8.55822E+3   2.26433E+4
   6.15771E+3   2.32298E+4
   3.68229E+3   2.36356E+4
   1.29907E+3   2.37399E+4
  -1.10028E+3   2.34325E+4
  -3.44751E+3   2.31396E+4
  -5.64330E+3   2.25158E+4
  -7.87710E+3   2.17220E+4
  -9.91623E+3   2.06289E+4
  -1.17240E+4   1.93706E+4
  -1.34507E+4   1.80674E+4
  -1.50741E+4   1.64806E+4
  -1.64377E+4   1.48316E+4
  -1.75842E+4   1.30208E+4
  -1.84999E+4   1.11925E+4
  -1.92476E+4   9.31322E+3
  -1.98123E+4   7.31889E+3
  -2.02046E+4   5.36390E+3
  -2.03370E+4   3.45569E+3
  -2.02645E+4   1.47316E+3
  -2.00246E+4  -3.76416E+2
  -1.95563E+4  -2.14553E+3
  -1.90249E+4  -3.78308E+3
  -1.82620E+4  -5.35768E+3
  -1.74216E+4  -6.80457E+3
  -1.63456E+4  -8.15416E+3
  -1.52380E+4  -9.47615E+3
  -1.40555E+4  -1.05544E+4
  -1.27000E+4  -1.14744E+4
  -1.13775E+4  -1.22649E+4
  -9.94846E+3  -1.30143E+4
  -8.55838E+3  -1.33697E+4
  -7.12520E+3  -1.38023E+4
  -5.70303E+3  -1.38948E+4
  -4.30010E+3  -1.40183E+4
  -2.89970E+3  -1.38233E+4
  -1.61191E+3  -1.36905E+4
  -3.24286E+2  -1.32821E+4
   9.39309E+2  -1.28386E+4
   1.99624E+3  -1.23522E+4
   3.14784E+3  -1.16611E+4
   4.08184E+3  -1.08812E+4
   4.95438E+3  -1.00639E+4
   5.72517E+3  -9.26467E+3
   6.44099E+3  -8.34218E+3
   7.03004E+3  -7.29142E+3
   7.50296E+3  -6.27816E+3
   7.89021E+3  -5.26573E+3
   8.10673E+3  -4.23958E+3
   8.27412E+3  -3.22161E+3
   8.37433E+3  -2.20827E+3
   8.28262E+3  -1.16184E+3
   8.11367E+3  -2.26385E+2
   7.90760E+3   7.30869E+2
   7.62454E+3   1.60091E+3
   7.22859E+3   2.43271E+3
   6.81161E+3   3.20459E+3
   6.30215E+3   3.80129E+3
   5.68901E+3   4.50555E+3
   5.05159E+3   5.06610E+3
   4.40958E+3   5.60553E+3
   3.70088E+3   5.89848E+3
   3.07147E+3   6.34286E+3
   2.31644E+3   6.58541E+3
   1.59824E+3   6.80124E+3
   8.63559E+2   6.85588E+3
   1.19145E+2   6.84238E+3
  -5.44280E+2   6.79675E+3
  -1.20250E+3   6.67814E+3
  -1.87696E+3   6.60096E+3
  -2.41515E+3   6.31257E+3
  -3.05767E+3   6.04605E+3
  -3.55673E+3   5.66057E+3
  -4.05534E+3   5.32569E+3
  -4.47753E+3   4.95352E+3
  -4.87952E+3   4.48169E+3
  -5.17460E+3   4.00666E+3
  -5.45707E+3   3.59546E+3
  -5.64625E+3   3.07915E+3
  -5.85085E+3   2.56320E+3
  -5.92134E+3   2.09459E+3
  -6.01005E+3   1.60139E+3
  -6.04417E+3   1.12592E+3
  -5.99484E+3   5.99618E+2
  -5.91100E+3   1.46723E+2
  -5.76424E+3  -2.55002E+2
  -5.64769E+3  -6.73279E+2
  -5.36630E+3  -1.05912E+3
  -5.13959E+3  -1.44423E+3
  -4.96769E+3  -1.78608E+3
  -4.69432E+3  -2.10016E+3
  -4.38828E+3  -2.33033E+3
  -4.00951E+3  -2.51956E+3
  -3.81006E+3  -2.69303E+3
  -3.46269E+3  -2.86606E+3
  -3.06156E+3  -2.96723E+3
  -2.78564E+3  -3.00746E+3
  -2.42835E+3  -3.05773E+3
  -2.05031E+3  -3.17534E+3
  -1.75030E+3  -3.09776E+3
  -1.48681E+3  -3.10129E+3
  -1.17241E+3  -3.05142E+3
  -8.69693E+2  -2.92501E+3
  -6.11982E+2  -2.83799E+3
  -4.06555E+2  -2.64606E+3
  -1.44020E+2  -2.56178E+3
   3.66988E+1  -2.34110E+3
   1.42301E+2  -2.23275E+3
   3.58208E+2  -2.00895E+3
   4.86770E+2  -1.78391E+3
   5.88472E+2  -1.67392E+3
   7.02192E+2  -1.40399E+3
   7.95952E+2  -1.22841E+3
   8.82318E+2  -1.05471E+3
   9.06207E+2  -8.88658E+2
   8.42686E+2  -6.65670E+2
   9.86962E+2  -4.79853E+2
   9.02806E+2  -2.71644E+2
   9.63780E+2  -1.02041E+2
   9.20213E+2  -3.12825E+1
   8.82954E+2   1.56898E+2
   8.06524E+2   3.23141E+2
   7.46176E+2   4.40910E+2
   6.62694E+2   5.04015E+2
   5.56146E+2   6.86032E+2
   5.73687E+2   8.02192E+2
   4.78726E+2   8.55818E+2
   3.47723E+2   9.21292E+2
   3.68314E+2   9.67622E+2
   2.73179E+2   1.03172E+3
   1.28586E+2   1.06950E+3
   8.01273E+1   1.05069E+3
   1.60199E+1   1.14954E+3
  -1.81080E+1   1.10601E+3
  -6.63867E+1   1.15589E+3
  -1.29077E+2   1.10625E+3
  -1.61781E+2   1.22525E+3
  -2.40344E+2   1.18267E+3
  -2.22481E+2   1.08524E+3
  -3.40411E+2   1.11275E+3
  -3.72659E+2   1.10183E+3
  -3.21082E+2   1.05727E+3
  -3.32793E+2   1.04894E+3
  -3.77756E+2   1.05138E+3
  -3.66243E+2   1.08766E+3
  -3.99044E+2   1.05740E+3
  -3.72566E+2   1.04249E+3
  -3.55212E+2   9.90613E+2
  -3.29060E+2   1.08708E+3
  -3.47332E+2   9.92356E+2
  -4.07751E+2   9.61172E+2
  -4.20172E+2   9.48329E+2
  -3.75842E+2   9.87903E+2
  -2.70037E+2   9.70712E+2
  -2.76720E+2   9.79643E+2
  -2.65581E+2   9.65918E+2
  -2.46562E+2   1.00791E+3
  -2.07176E+2   9.60549E+2
  -2.26252E+2   1.04545E+3
  -2.50506E+2   1.05905E+3
  -1.71298E+2   1.14185E+3
  -1.69314E+2   1.11283E+3
  -1.57828E+2   1.13210E+3
  -2.24219E+2   1.07832E+3
  -1.57287E+2   1.19102E+3
  -1.63636E+2   1.23493E+3
  -1.78800E+2   1.25258E+3
  -2.40491E+2   1.16705E+3
  -2.84431E+2   1.23883E+3
  -2.62684E+2   1.24422E+3
  -2.37046E+2   1.32601E+3
  -2.29570E+2   1.28794E+3
  -3.49464E+2   1.32687E+3
  -3.06204E+2   1.31820E+3
  -3.38682E+2   1.37609E+3
  -3.14729E+2   1.41338E+3
  -3.49432E+2   1.41127E+3
  -3.88773E+2   1.30701E+3
  -4.33450E+2   1.31785E+3
  -3.97007E+2   1.37608E+3
  -4.48149E+2   1.35373E+3
  -4.71317E+2   1.35696E+3
  -4.42056E+2   1.30357E+3
  -5.19262E+2   1.32771E+3
  -5.16417E+2   1.31252E+3
  -5.89837E+2   1.21561E+3
  -5.44560E+2   1.21515E+3
  -5.51148E+2   1.30011E+3
  -5.61952E+2   1.24170E+3
  -5.91713E+2   1.18648E+3
  -5.26301E+2   1.19022E+3
  -6.12814E+2   1.11583E+3
  -6.14366E+2   1.18938E+3
  -5.26949E+2   1.16046E+3
  -5.95561E+2   1.09390E+3
  -5.77529E+2   1.07412E+3
  -6.04906E+2   1.00551E+3
  -5.83947E+2   1.01814E+3
  -5.98951E+2   9.82416E+2
  -5.47832E+2   8.37160E+2
  -5.42616E+2   9.12326E+2
  -5.58803E+2   8.72321E+2
  -5.37056E+2   8.09054E+2
  -5.15003E+2   7.96461E+2
  -5.67844E+2   8.48073E+2
  -5.51254E+2   8.28790E+2
  -4.66907E+2   8.09714E+2
  -4.97097E+2   8.15819E+2
  -4.80605E+2   7.81644E+2
  -4.67411E+2   7.19472E+2
  -4.54615E+2   7.54868E+2
  -3.83588E+2   7.70832E+2
  -4.14243E+2   7.44356E+2
  -4.29972E+2   7.49862E+2
  -4.34074E+2   7.38241E+2
  -4.26637E+2   7.43544E+2
  -4.38370E+2   7.81496E+2
  -4.12912E+2   7.65387E+2
  -3.26752E+2   7.06937E+2
  -3.48404E+2   7.15593E+2
  -4.24511E+2   7.39682E+2
  -3.43835E+2   7.03328E+2
  -4.04487E+2   6.27662E+2
  -3.87105E+2   6.51577E+2
  -4.34861E+2   7.24212E+2
  -4.14040E+2   7.31573E+2
  -4.47135E+2   6.85986E+2
  -3.94560E+2   7.22889E+2
  -3.89188E+2   6.96327E+2
  -4.52846E+2   6.21231E+2
  -4.73856E+2   6.69933E+2
  -4.80772E+2   6.22860E+2
  -5.17395E+2   6.67455E+2
  -5.10864E+2   6.98792E+2
  -4.85403E+2   6.00873E+2
  -5.36708E+2   6.09051E+2
  -5.10419E+2   6.38148E+2
  -5.59148E+2   6.37437E+2
  -5.67002E+2   5.13356E+2
  -6.38531E+2   5.81941E+2
  -6.28045E+2   5.85933E+2
  -5.60305E+2   5.45876E+2
  -6.48318E+2   4.75516E+2
  -6.06856E+2   5.07349E+2
  -7.22256E+2   4.61753E+2
  -6.71873E+2   4.36805E+2
  -7.67764E+2   4.36335E+2
  -7.28625E+2   4.06526E+2
  -7.54057E+2   3.97821E+2
  -7.07101E+2   3.34655E+2
  -7.28383E+2   2.80724E+2
  -7.38179E+2   3.04076E+2
  -7.39087E+2   3.19683E+2
  -7.37645E+2   2.40714E+2
  -7.58948E+2   2.54818E+2
  -7.53534E+2   2.89639E+2
  -6.68960E+2   2.55740E+2
  -7.32038E+2   2.25284E+2
  -7.81273E+2   1.93670E+2
  -8.00522E+2   1.42710E+2
  -7.83762E+2   1.08621E+2
  -7.79613E+2   1.50930E+2
  -7.72645E+2   6.41730E+1
  -7.09810E+2   9.72119E+1
  -7.10862E+2   6.21622E+0
  -6.58280E+2   7.25834E+1
  -6.73782E+2   1.67077E+1
  -6.45323E+2  -2.00674E+1
  -6.64107E+2  -3.51236E+1
  -6.87552E+2  -5.20866E+1
  -6.48463E+2  -2.14983E+0
  -6.30711E+2  -8.04733E+1
  -6.07972E+2  -2.89169E+1
  -6.08949E+2  -5.90095E+1
  -6.07601E+2  -1.25173E+2
  -5.44836E+2  -1.13996E+2
  -5.61162E+2  -4.66564E+1
  -5.72709E+2  -8.85128E+1
  -5.75424E+2  -1.04049E+2
  -5.00505E+2  -9.45826E+1
  -5.23423E+2  -9.11789E+0
  -5.72738E+2  -5.28065E+0
  -5.00058E+2  -3.10521E+1
  -5.21645E+2  -4.32671E+1
  -4.91298E+2   1.47786E+0
  -5.50274E+2  -1.47998E+1
  -4.65591E+2   3.23939E+1
  -4.96567E+2   1.41108E+1
  -5.16174E+2   4.97075E+1
  -5.46518E+2   1.91112E+1
  -6.03068E+2   8.00255E+0
  -4.88463E+2  -5.51173E+0
  -5.40525E+2  -2.88914E+1
  -5.55034E+2   1.47978E+1
  -5.36741E+2   3.24447E+1
  -5.56188E+2   2.47145E+1
  -5.31357E+2   2.97665E+1
  -6.11284E+2   8.04737E+1
  -5.90843E+2   7.04865E+1
  -6.75504E+2   7.83293E+1
  -5.90618E+2   3.49545E+1
  -6.47800E+2   1.66629E+1
  -6.80512E+2  -1.44028E+1
  -7.04537E+2   2.10163E+1
  -6.97760E+2   3.42894E+1
  -7.08148E+2  -1.76272E+1
  -7.59002E+2   1.84715E+1
  -7.10819E+2  -7.65076E+1
  -6.84855E+2  -4.27771E+1
  -6.79797E+2  -8.25696E+1
  -7.44041E+2  -8.04062E+1
  -6.57065E+2  -1.52873E+2
  -7.62449E+2  -1.72481E+2
  -7.63945E+2  -1.80215E+2
  -7.90026E+2  -1.69231E+2
  -7.72374E+2  -2.21851E+2
  -6.67357E+2  -2.18634E+2
  -7.83211E+2  -2.24427E+2
  -7.61281E+2  -2.16947E+2
  -7.54536E+2  -2.65096E+2
  -6.94246E+2  -3.27365E+2
  -7.03634E+2  -3.27268E+2
  -6.96176E+2  -3.05205E+2
  -7.17037E+2  -3.50702E+2
  -6.80831E+2  -3.95348E+2
  -6.74281E+2  -3.31173E+2
  -6.00589E+2  -3.67661E+2
  -7.02201E+2  -3.23821E+2
