 
 $NMID
 ID=''
 FMTDAT='(2E13.5)'
 TRAMP=   1.00000E+0
 VOLUME=   1.00000E+0
 $END
  -9.60856E+3   1.80009E+4
  -3.68077E+4   3.75160E+4
  -2.94929E+4   4.31990E+4
  -2.68793E+4   3.96429E+4
  -2.90842E+4   4.03139E+4
  -2.72783E+4   4.17017E+4
  -2.67080E+4   3.98670E+4
  -2.80138E+4   3.99312E+4
  -2.68547E+4   4.07177E+4
  -2.63712E+4   3.96293E+4
  -2.69740E+4   3.95761E+4
  -2.59022E+4   4.01831E+4
  -2.52885E+4   3.94865E+4
  -2.56951E+4   3.93919E+4
  -2.49059E+4   3.96184E+4
  -2.43129E+4   3.89911E+4
  -2.46006E+4   3.88481E+4
  -2.38768E+4   3.89963E+4
  -2.34945E+4   3.85172E+4
  -2.36470E+4   3.84118E+4
  -2.31153E+4   3.83919E+4
  -2.25738E+4   3.81162E+4
  -2.25988E+4   3.80980E+4
  -2.23685E+4   3.79885E+4
  -2.18757E+4   3.74853E+4
  -2.18145E+4   3.73997E+4
  -2.15964E+4   3.74724E+4
  -2.13247E+4   3.69516E+4
  -2.12855E+4   3.67261E+4
  -2.09063E+4   3.66202E+4
  -2.05037E+4   3.63506E+4
  -2.04580E+4   3.62207E+4
  -2.01439E+4   3.61623E+4
  -1.98600E+4   3.57925E+4
  -1.95358E+4   3.56500E+4
  -1.91415E+4   3.54802E+4
  -1.87474E+4   3.52442E+4
  -1.84542E+4   3.50980E+4
  -1.80160E+4   3.50293E+4
  -1.75835E+4   3.48746E+4
  -1.73281E+4   3.47193E+4
  -1.71101E+4   3.45644E+4
  -1.67090E+4   3.42816E+4
  -1.64045E+4   3.39664E+4
  -1.60429E+4   3.38683E+4
  -1.56906E+4   3.36731E+4
  -1.54878E+4   3.35129E+4
  -1.51250E+4   3.32961E+4
  -1.47996E+4   3.31749E+4
  -1.45678E+4   3.29125E+4
  -1.42616E+4   3.27497E+4
  -1.39967E+4   3.26546E+4
  -1.35886E+4   3.23665E+4
  -1.31918E+4   3.22899E+4
  -1.28959E+4   3.21780E+4
  -1.26220E+4   3.19851E+4
  -1.22643E+4   3.18758E+4
  -1.20913E+4   3.17545E+4
  -1.18456E+4   3.14926E+4
  -1.15039E+4   3.14069E+4
  -1.11506E+4   3.12299E+4
  -1.09322E+4   3.11334E+4
  -1.06238E+4   3.11029E+4
  -1.04332E+4   3.09120E+4
  -1.01910E+4   3.08277E+4
  -9.94341E+3   3.06909E+4
  -9.70731E+3   3.07178E+4
  -9.47358E+3   3.05782E+4
  -9.34222E+3   3.04510E+4
  -9.17258E+3   3.03663E+4
  -8.89782E+3   3.01798E+4
  -8.74399E+3   3.01317E+4
  -8.55193E+3   2.99679E+4
  -8.42121E+3   2.98213E+4
  -8.20152E+3   2.97731E+4
  -7.99736E+3   2.95896E+4
  -7.81967E+3   2.94546E+4
  -7.59231E+3   2.93271E+4
  -7.49725E+3   2.91559E+4
  -7.28342E+3   2.90452E+4
  -7.14430E+3   2.89560E+4
  -7.02479E+3   2.87943E+4
  -6.80418E+3   2.86474E+4
  -6.62927E+3   2.85243E+4
  -6.52048E+3   2.83892E+4
  -6.50905E+3   2.81877E+4
  -6.46253E+3   2.80124E+4
  -6.22190E+3   2.77745E+4
  -6.02312E+3   2.76569E+4
  -5.94174E+3   2.75619E+4
  -5.75677E+3   2.74334E+4
  -5.64196E+3   2.72723E+4
  -5.47570E+3   2.70774E+4
  -5.28580E+3   2.70171E+4
  -5.19623E+3   2.67647E+4
  -5.12760E+3   2.66203E+4
  -4.89282E+3   2.64018E+4
  -4.79465E+3   2.62534E+4
  -4.65244E+3   2.61678E+4
  -4.56321E+3   2.60006E+4
  -4.42428E+3   2.57896E+4
  -4.15078E+3   2.55609E+4
  -4.04330E+3   2.54045E+4
  -3.99806E+3   2.53820E+4
  -3.81942E+3   2.52115E+4
  -3.70348E+3   2.50302E+4
  -3.57294E+3   2.48429E+4
  -3.42465E+3   2.47295E+4
  -3.31492E+3   2.46469E+4
  -3.22235E+3   2.44462E+4
  -2.97931E+3   2.43057E+4
  -2.84273E+3   2.41854E+4
  -2.71824E+3   2.40019E+4
  -2.65724E+3   2.39090E+4
  -2.53663E+3   2.38095E+4
  -2.41180E+3   2.36630E+4
  -2.30662E+3   2.34758E+4
  -2.25707E+3   2.32871E+4
  -2.11832E+3   2.32022E+4
  -1.93404E+3   2.30483E+4
  -1.85988E+3   2.30056E+4
  -1.73707E+3   2.27940E+4
  -1.65869E+3   2.27033E+4
  -1.49913E+3   2.24952E+4
  -1.36342E+3   2.24159E+4
  -1.34191E+3   2.22236E+4
  -1.22719E+3   2.20832E+4
  -1.12749E+3   2.19058E+4
  -1.03068E+3   2.18084E+4
  -8.66138E+2   2.16587E+4
  -7.86776E+2   2.15166E+4
  -6.43142E+2   2.13813E+4
  -5.82896E+2   2.12361E+4
  -4.97727E+2   2.11266E+4
  -3.49995E+2   2.10469E+4
  -3.05477E+2   2.08181E+4
  -2.19821E+2   2.07424E+4
  -9.45133E+1   2.05714E+4
   3.64359E+1   2.05276E+4
   1.14235E+2   2.03341E+4
   2.84886E+2   2.01876E+4
   2.85457E+2   2.00480E+4
   4.61901E+2   1.99438E+4
   5.26187E+2   1.98083E+4
   5.75459E+2   1.97050E+4
   6.90291E+2   1.95672E+4
   8.71744E+2   1.93586E+4
   8.62293E+2   1.92626E+4
   9.36318E+2   1.92260E+4
   1.01493E+3   1.90993E+4
   1.10600E+3   1.89132E+4
   1.20273E+3   1.88124E+4
   1.21494E+3   1.86833E+4
   1.32852E+3   1.85609E+4
   1.39242E+3   1.83390E+4
   1.56366E+3   1.82368E+4
   1.63290E+3   1.81698E+4
   1.69152E+3   1.80692E+4
   1.77490E+3   1.79110E+4
   1.81488E+3   1.78197E+4
   1.92459E+3   1.77268E+4
   1.98317E+3   1.75980E+4
   2.00734E+3   1.74681E+4
   2.13427E+3   1.73274E+4
   2.17606E+3   1.72304E+4
   2.25614E+3   1.71311E+4
   2.28583E+3   1.70038E+4
   2.40562E+3   1.68054E+4
   2.51251E+3   1.67051E+4
   2.61881E+3   1.65919E+4
   2.62241E+3   1.63991E+4
   2.67084E+3   1.63155E+4
   2.69197E+3   1.62314E+4
   2.86227E+3   1.60747E+4
   2.87209E+3   1.60266E+4
   3.02219E+3   1.57954E+4
   3.06014E+3   1.56988E+4
   3.11318E+3   1.56308E+4
   3.18365E+3   1.54549E+4
   3.30391E+3   1.54022E+4
   3.33203E+3   1.52733E+4
   3.41440E+3   1.51283E+4
   3.42540E+3   1.50701E+4
   3.42195E+3   1.48817E+4
   3.61297E+3   1.47551E+4
   3.59411E+3   1.46424E+4
   3.68739E+3   1.45839E+4
   3.72383E+3   1.44156E+4
   3.75143E+3   1.43460E+4
   3.84705E+3   1.41131E+4
   3.91171E+3   1.40517E+4
   3.95832E+3   1.40027E+4
   3.94737E+3   1.39202E+4
   4.05498E+3   1.37930E+4
   4.09095E+3   1.36402E+4
   4.09937E+3   1.34227E+4
   4.23967E+3   1.34618E+4
   4.16758E+3   1.33261E+4
   4.29056E+3   1.31718E+4
   4.28362E+3   1.31470E+4
   4.36866E+3   1.31113E+4
   4.41855E+3   1.29412E+4
   4.34367E+3   1.28253E+4
   4.40322E+3   1.26425E+4
   4.53133E+3   1.26054E+4
   4.52668E+3   1.24936E+4
   4.57993E+3   1.23673E+4
   4.61082E+3   1.22651E+4
   4.62813E+3   1.21659E+4
   4.68413E+3   1.20578E+4
   4.65535E+3   1.20272E+4
   4.69584E+3   1.18248E+4
   4.74244E+3   1.16441E+4
   4.80902E+3   1.16089E+4
   4.84289E+3   1.15362E+4
   4.84829E+3   1.14407E+4
   4.83470E+3   1.13946E+4
   4.92832E+3   1.11914E+4
   4.96231E+3   1.11105E+4
   4.97069E+3   1.10717E+4
   4.97477E+3   1.09669E+4
   4.99587E+3   1.09140E+4
   5.03304E+3   1.07343E+4
   5.02878E+3   1.06848E+4
   5.11545E+3   1.05200E+4
   5.12107E+3   1.04757E+4
   5.11463E+3   1.03420E+4
   5.22139E+3   1.03436E+4
   5.22757E+3   1.01841E+4
   5.22607E+3   1.00891E+4
   5.30656E+3   9.95086E+3
   5.30785E+3   9.88390E+3
   5.35991E+3   9.69113E+3
   5.33156E+3   9.66704E+3
   5.37666E+3   9.60450E+3
   5.40576E+3   9.44877E+3
   5.51668E+3   9.40820E+3
   5.41225E+3   9.32186E+3
   5.45689E+3   9.25749E+3
   5.43479E+3   9.13937E+3
   5.55109E+3   9.02538E+3
   5.57925E+3   9.01395E+3
   5.62972E+3   8.92163E+3
   5.59006E+3   8.81155E+3
   5.62510E+3   8.78303E+3
   5.58237E+3   8.68600E+3
   5.60723E+3   8.59250E+3
   5.64506E+3   8.47487E+3
   5.66194E+3   8.30728E+3
   5.68251E+3   8.25335E+3
   5.78307E+3   8.25750E+3
   5.76425E+3   8.13619E+3
   5.73189E+3   8.09939E+3
   5.80681E+3   8.02096E+3
   5.80197E+3   7.88681E+3
   5.76678E+3   7.83747E+3
   5.81179E+3   7.75420E+3
   5.88930E+3   7.64020E+3
   5.89600E+3   7.53867E+3
   5.81983E+3   7.52777E+3
   5.88057E+3   7.44504E+3
   5.87645E+3   7.34242E+3
   5.80140E+3   7.23204E+3
   5.91880E+3   7.14703E+3
   5.95589E+3   7.23754E+3
   5.91215E+3   7.08141E+3
   5.90373E+3   7.00247E+3
   5.89699E+3   6.91964E+3
   5.94638E+3   6.84270E+3
   5.87178E+3   6.72210E+3
   5.99337E+3   6.72259E+3
   5.96986E+3   6.66320E+3
   6.08312E+3   6.56238E+3
   6.08192E+3   6.48716E+3
   6.05249E+3   6.44501E+3
   6.00205E+3   6.34043E+3
   6.02410E+3   6.27163E+3
   6.02748E+3   6.23772E+3
   6.06764E+3   6.18749E+3
   6.02974E+3   6.11367E+3
   6.07261E+3   6.04850E+3
   6.01605E+3   5.97775E+3
   6.05003E+3   5.90214E+3
   6.09024E+3   5.89046E+3
   6.11370E+3   5.76942E+3
   6.17857E+3   5.74003E+3
   6.08853E+3   5.65536E+3
   6.06125E+3   5.56190E+3
   6.03957E+3   5.55452E+3
   6.06404E+3   5.52597E+3
   6.06645E+3   5.40333E+3
   6.11177E+3   5.36067E+3
   6.01250E+3   5.25050E+3
   6.10183E+3   5.21913E+3
   6.10330E+3   5.20318E+3
   6.04432E+3   5.11392E+3
   6.10928E+3   5.07789E+3
   6.11353E+3   5.00990E+3
   6.09679E+3   4.96093E+3
   6.05991E+3   4.91267E+3
   6.06728E+3   4.83081E+3
   6.03212E+3   4.79702E+3
   6.07882E+3   4.75787E+3
   6.06980E+3   4.64492E+3
   6.07628E+3   4.64102E+3
   6.00628E+3   4.58146E+3
   6.01951E+3   4.48958E+3
   5.98425E+3   4.45937E+3
   5.94116E+3   4.40388E+3
   6.01230E+3   4.39809E+3
   5.98690E+3   4.32602E+3
   5.98799E+3   4.25215E+3
   6.03396E+3   4.21537E+3
   5.98016E+3   4.18860E+3
   5.96862E+3   4.11278E+3
   6.02112E+3   4.01005E+3
   6.01340E+3   3.92266E+3
   5.94976E+3   3.96713E+3
   5.88115E+3   3.95137E+3
   5.89888E+3   3.81539E+3
   5.89942E+3   3.84126E+3
   5.95820E+3   3.75080E+3
   5.96086E+3   3.76266E+3
   5.87032E+3   3.71669E+3
   5.82030E+3   3.53349E+3
   5.84205E+3   3.55981E+3
   5.81242E+3   3.55120E+3
   5.81231E+3   3.52638E+3
   5.78516E+3   3.45963E+3
   5.83842E+3   3.37098E+3
   5.78279E+3   3.33613E+3
   5.72313E+3   3.31374E+3
   5.74147E+3   3.31209E+3
   5.69271E+3   3.26301E+3
   5.70143E+3   3.12074E+3
   5.64933E+3   3.10401E+3
   5.66811E+3   3.10575E+3
   5.65030E+3   3.02713E+3
   5.70171E+3   3.01992E+3
   5.62079E+3   2.97221E+3
   5.66637E+3   2.92238E+3
   5.59241E+3   2.88716E+3
   5.51971E+3   2.86118E+3
   5.55028E+3   2.79505E+3
   5.49754E+3   2.71910E+3
   5.50343E+3   2.66264E+3
   5.47470E+3   2.67236E+3
   5.41970E+3   2.62626E+3
   5.44814E+3   2.58960E+3
   5.42679E+3   2.48362E+3
   5.40668E+3   2.51900E+3
   5.35840E+3   2.44545E+3
   5.35512E+3   2.46366E+3
   5.36948E+3   2.41624E+3
   5.31320E+3   2.35405E+3
   5.26997E+3   2.33148E+3
   5.30616E+3   2.26359E+3
   5.24170E+3   2.19934E+3
   5.27874E+3   2.19463E+3
   5.19230E+3   2.14248E+3
   5.22343E+3   2.11581E+3
   5.15133E+3   2.03928E+3
   5.15577E+3   2.04717E+3
   5.11715E+3   2.09690E+3
   5.07550E+3   1.99888E+3
   5.03338E+3   1.88382E+3
   5.00919E+3   1.88446E+3
