 
 $NMID
 ID=''
 FMTDAT='(2E13.5)'
 TRAMP=   1.00000E+0
 VOLUME=   1.00000E+0
 $END
  -1.17831E+4   1.43155E+4
  -3.90695E+4   2.70193E+4
  -3.32817E+4   3.37811E+4
  -3.00421E+4   3.14110E+4
  -3.17806E+4   3.18845E+4
  -2.99835E+4   3.35629E+4
  -2.85987E+4   3.22880E+4
  -2.91795E+4   3.22558E+4
  -2.79322E+4   3.34587E+4
  -2.68733E+4   3.25438E+4
  -2.70782E+4   3.24547E+4
  -2.58270E+4   3.32423E+4
  -2.48312E+4   3.28780E+4
  -2.49049E+4   3.28151E+4
  -2.40049E+4   3.32697E+4
  -2.30287E+4   3.29837E+4
  -2.29402E+4   3.29652E+4
  -2.20340E+4   3.32503E+4
  -2.11386E+4   3.30188E+4
  -2.08389E+4   3.30055E+4
  -2.00445E+4   3.31499E+4
  -1.91250E+4   3.30630E+4
  -1.88856E+4   3.31437E+4
  -1.82948E+4   3.32523E+4
  -1.73473E+4   3.29234E+4
  -1.68669E+4   3.30104E+4
  -1.63725E+4   3.31029E+4
  -1.57130E+4   3.28732E+4
  -1.53754E+4   3.27902E+4
  -1.47543E+4   3.28663E+4
  -1.40324E+4   3.27571E+4
  -1.36620E+4   3.27696E+4
  -1.32223E+4   3.27223E+4
  -1.26249E+4   3.25023E+4
  -1.21624E+4   3.23750E+4
  -1.16462E+4   3.24204E+4
  -1.10234E+4   3.20590E+4
  -1.04864E+4   3.19263E+4
  -9.87863E+3   3.18469E+4
  -9.25277E+3   3.16302E+4
  -8.79041E+3   3.14287E+4
  -8.29555E+3   3.13383E+4
  -7.82111E+3   3.09879E+4
  -7.24909E+3   3.07769E+4
  -6.58993E+3   3.06031E+4
  -6.11633E+3   3.03942E+4
  -5.57039E+3   3.02470E+4
  -5.01343E+3   3.00034E+4
  -4.50598E+3   2.98468E+4
  -3.99966E+3   2.97114E+4
  -3.55859E+3   2.94546E+4
  -3.07508E+3   2.91845E+4
  -2.56538E+3   2.90129E+4
  -1.93878E+3   2.88231E+4
  -1.54649E+3   2.86764E+4
  -1.12026E+3   2.84804E+4
  -6.73830E+2   2.82528E+4
  -3.24053E+2   2.79782E+4
   1.20838E+2   2.77512E+4
   5.24561E+2   2.74841E+4
   9.39611E+2   2.72362E+4
   1.39091E+3   2.70242E+4
   1.72387E+3   2.68036E+4
   2.14520E+3   2.65595E+4
   2.41321E+3   2.63106E+4
   2.90221E+3   2.60227E+4
   3.28575E+3   2.58168E+4
   3.69090E+3   2.56091E+4
   4.00238E+3   2.53850E+4
   4.39855E+3   2.51020E+4
   4.73258E+3   2.48592E+4
   5.09664E+3   2.46071E+4
   5.48431E+3   2.42853E+4
   5.74492E+3   2.41130E+4
   6.25073E+3   2.39001E+4
   6.49336E+3   2.36477E+4
   6.79153E+3   2.33855E+4
   7.07960E+3   2.31084E+4
   7.43613E+3   2.28611E+4
   7.74576E+3   2.25698E+4
   8.09809E+3   2.23746E+4
   8.36373E+3   2.21876E+4
   8.62970E+3   2.19392E+4
   8.89702E+3   2.16357E+4
   9.04515E+3   2.14793E+4
   9.33686E+3   2.11795E+4
   9.56639E+3   2.09433E+4
   9.82481E+3   2.05814E+4
   1.01046E+4   2.04164E+4
   1.03461E+4   2.01208E+4
   1.05965E+4   1.98890E+4
   1.08021E+4   1.96528E+4
   1.10743E+4   1.94002E+4
   1.12613E+4   1.91505E+4
   1.14120E+4   1.88333E+4
   1.16513E+4   1.85250E+4
   1.18409E+4   1.82547E+4
   1.20009E+4   1.80886E+4
   1.21089E+4   1.78229E+4
   1.22611E+4   1.75364E+4
   1.23778E+4   1.72060E+4
   1.25400E+4   1.69590E+4
   1.26696E+4   1.66430E+4
   1.29043E+4   1.63875E+4
   1.29418E+4   1.61834E+4
   1.30354E+4   1.59164E+4
   1.31305E+4   1.56866E+4
   1.32619E+4   1.53435E+4
   1.33164E+4   1.50929E+4
   1.33189E+4   1.48265E+4
   1.34904E+4   1.44431E+4
   1.35791E+4   1.41631E+4
   1.36367E+4   1.39270E+4
   1.36960E+4   1.36559E+4
   1.36729E+4   1.33924E+4
   1.37265E+4   1.30778E+4
   1.37635E+4   1.28032E+4
   1.37543E+4   1.25315E+4
   1.38440E+4   1.21926E+4
   1.38033E+4   1.18939E+4
   1.38566E+4   1.16421E+4
   1.39269E+4   1.14364E+4
   1.38839E+4   1.11089E+4
   1.38185E+4   1.08179E+4
   1.39111E+4   1.04556E+4
   1.38255E+4   1.01221E+4
   1.38581E+4   9.79065E+3
   1.39052E+4   9.49704E+3
   1.38782E+4   9.26589E+3
   1.38820E+4   8.94301E+3
   1.37686E+4   8.69813E+3
   1.37212E+4   8.34814E+3
   1.37244E+4   8.03167E+3
   1.36574E+4   7.77951E+3
   1.36416E+4   7.47201E+3
   1.36580E+4   7.17186E+3
   1.35151E+4   6.89290E+3
   1.34967E+4   6.53988E+3
   1.34536E+4   6.29297E+3
   1.34418E+4   5.96197E+3
   1.33161E+4   5.76148E+3
   1.32093E+4   5.36640E+3
   1.32566E+4   5.10901E+3
   1.31707E+4   4.85744E+3
   1.30940E+4   4.59583E+3
   1.30272E+4   4.28715E+3
   1.29898E+4   4.02969E+3
   1.28634E+4   3.76319E+3
   1.28481E+4   3.56538E+3
   1.27679E+4   3.21113E+3
   1.25943E+4   3.03234E+3
   1.24401E+4   2.78247E+3
   1.24137E+4   2.47794E+3
   1.23180E+4   2.19421E+3
   1.22340E+4   1.92421E+3
   1.20552E+4   1.74765E+3
   1.20640E+4   1.50073E+3
   1.19744E+4   1.34216E+3
   1.18144E+4   1.10679E+3
   1.15887E+4   8.15642E+2
   1.16043E+4   6.72100E+2
   1.14732E+4   4.24120E+2
   1.13249E+4   1.68019E+2
   1.12452E+4  -7.19387E+1
   1.11733E+4  -2.01434E+2
   1.10440E+4  -3.79592E+2
   1.09060E+4  -5.47157E+2
   1.07474E+4  -7.60508E+2
   1.06855E+4  -9.26225E+2
   1.04683E+4  -1.16881E+3
   1.04133E+4  -1.28868E+3
   1.02964E+4  -1.52537E+3
   1.01731E+4  -1.62638E+3
   1.00375E+4  -1.81760E+3
   9.92581E+3  -2.00541E+3
   9.79261E+3  -2.18929E+3
   9.67516E+3  -2.25832E+3
   9.55808E+3  -2.40721E+3
   9.36254E+3  -2.57514E+3
   9.26885E+3  -2.66502E+3
   9.16043E+3  -2.83776E+3
   9.02045E+3  -3.02547E+3
   8.84771E+3  -3.15674E+3
   8.76423E+3  -3.22175E+3
   8.61316E+3  -3.38771E+3
   8.55099E+3  -3.43206E+3
   8.36926E+3  -3.58661E+3
   8.29330E+3  -3.65999E+3
   8.09808E+3  -3.76541E+3
   7.93634E+3  -3.88403E+3
   7.87313E+3  -3.95463E+3
   7.75774E+3  -4.08613E+3
   7.60839E+3  -4.14228E+3
   7.54927E+3  -4.26300E+3
   7.36144E+3  -4.28521E+3
   7.25551E+3  -4.34182E+3
   7.13917E+3  -4.47779E+3
   7.05512E+3  -4.49973E+3
   6.90239E+3  -4.49679E+3
   6.80552E+3  -4.60517E+3
   6.66173E+3  -4.64197E+3
   6.62386E+3  -4.69890E+3
   6.47702E+3  -4.77559E+3
   6.33556E+3  -4.74699E+3
   6.21564E+3  -4.84992E+3
   6.13292E+3  -4.88754E+3
   6.01337E+3  -4.92059E+3
   5.96702E+3  -4.95825E+3
   5.76807E+3  -4.95187E+3
   5.74532E+3  -4.99189E+3
   5.56468E+3  -4.91761E+3
   5.48082E+3  -5.00169E+3
   5.32743E+3  -5.06423E+3
   5.26216E+3  -5.08535E+3
   5.20611E+3  -5.10750E+3
   5.05631E+3  -5.13645E+3
   5.01570E+3  -5.10335E+3
   4.88082E+3  -5.06447E+3
   4.86727E+3  -5.16637E+3
   4.74145E+3  -5.10337E+3
   4.65411E+3  -5.08963E+3
   4.53543E+3  -5.03570E+3
   4.56453E+3  -5.01315E+3
   4.39039E+3  -5.14179E+3
   4.38902E+3  -5.06222E+3
   4.23428E+3  -5.10007E+3
   4.16012E+3  -5.12617E+3
   4.06337E+3  -5.11105E+3
   3.99685E+3  -4.98293E+3
   3.97663E+3  -5.01693E+3
   3.88272E+3  -4.98864E+3
   3.79063E+3  -4.99474E+3
   3.69938E+3  -4.95104E+3
   3.65773E+3  -4.93274E+3
   3.50527E+3  -4.92846E+3
   3.51873E+3  -4.94865E+3
   3.48346E+3  -4.91136E+3
   3.44227E+3  -4.92868E+3
   3.36774E+3  -4.91105E+3
   3.25321E+3  -4.89745E+3
   3.20868E+3  -4.89288E+3
   3.14729E+3  -4.81744E+3
   3.15211E+3  -4.79262E+3
   3.08527E+3  -4.73067E+3
   2.98036E+3  -4.74322E+3
   2.93821E+3  -4.66713E+3
   2.89480E+3  -4.71079E+3
   2.88046E+3  -4.70590E+3
   2.80838E+3  -4.69566E+3
   2.79799E+3  -4.63634E+3
   2.67362E+3  -4.58154E+3
   2.64999E+3  -4.59543E+3
   2.65708E+3  -4.60980E+3
   2.60648E+3  -4.46294E+3
   2.55373E+3  -4.45432E+3
   2.53471E+3  -4.53234E+3
   2.50997E+3  -4.46161E+3
   2.41050E+3  -4.49284E+3
   2.41690E+3  -4.38888E+3
   2.32008E+3  -4.43080E+3
   2.42695E+3  -4.34109E+3
   2.28416E+3  -4.32268E+3
   2.29621E+3  -4.33604E+3
   2.25752E+3  -4.33540E+3
   2.20890E+3  -4.27198E+3
   2.18858E+3  -4.25136E+3
   2.08498E+3  -4.28690E+3
   2.11020E+3  -4.22960E+3
   2.09334E+3  -4.11814E+3
   2.13606E+3  -4.18084E+3
   1.99840E+3  -4.17662E+3
   1.96112E+3  -4.08785E+3
   1.97713E+3  -4.13233E+3
   2.00887E+3  -4.09676E+3
   1.91730E+3  -4.05593E+3
   1.93382E+3  -4.02041E+3
   1.84902E+3  -4.04491E+3
   1.91808E+3  -3.98837E+3
   1.84681E+3  -3.94091E+3
   1.78138E+3  -3.92954E+3
   1.77340E+3  -3.96700E+3
   1.80260E+3  -3.97644E+3
   1.74591E+3  -3.95573E+3
   1.68857E+3  -3.83265E+3
   1.72137E+3  -3.88682E+3
   1.72424E+3  -3.89609E+3
   1.74178E+3  -3.78769E+3
   1.65780E+3  -3.78286E+3
   1.64637E+3  -3.75440E+3
   1.70218E+3  -3.70915E+3
   1.60529E+3  -3.66387E+3
   1.61179E+3  -3.66727E+3
   1.59868E+3  -3.64062E+3
   1.53222E+3  -3.64853E+3
   1.55769E+3  -3.62042E+3
   1.51182E+3  -3.62282E+3
   1.56320E+3  -3.61733E+3
   1.48540E+3  -3.59995E+3
   1.49280E+3  -3.65446E+3
   1.52387E+3  -3.51747E+3
   1.40714E+3  -3.54722E+3
   1.40910E+3  -3.50550E+3
   1.38879E+3  -3.45548E+3
   1.35661E+3  -3.45004E+3
   1.33827E+3  -3.46361E+3
   1.35861E+3  -3.44444E+3
   1.33969E+3  -3.39136E+3
   1.31592E+3  -3.43235E+3
   1.28144E+3  -3.35317E+3
   1.24212E+3  -3.32966E+3
   1.27188E+3  -3.39895E+3
   1.26259E+3  -3.34484E+3
   1.26791E+3  -3.26022E+3
   1.26751E+3  -3.25782E+3
   1.19219E+3  -3.23631E+3
   1.17024E+3  -3.28196E+3
   1.11734E+3  -3.21881E+3
   1.16909E+3  -3.24374E+3
   1.17050E+3  -3.17040E+3
   1.08637E+3  -3.14405E+3
   1.06100E+3  -3.19861E+3
   1.05217E+3  -3.13416E+3
   1.09944E+3  -3.15601E+3
   1.06825E+3  -3.10105E+3
   1.07551E+3  -3.08916E+3
   1.05073E+3  -3.06621E+3
   9.40061E+2  -3.09478E+3
   1.01102E+3  -3.09771E+3
   1.06401E+3  -3.02746E+3
   1.01932E+3  -3.00701E+3
   9.56337E+2  -3.07050E+3
   9.14645E+2  -3.04386E+3
   9.48962E+2  -2.93553E+3
   8.59875E+2  -2.90131E+3
   8.93622E+2  -2.90537E+3
   9.42000E+2  -2.93261E+3
   8.98062E+2  -2.89030E+3
   7.87521E+2  -2.92391E+3
   8.26547E+2  -2.85983E+3
   8.45254E+2  -2.90188E+3
   8.27778E+2  -2.76800E+3
   8.21355E+2  -2.83201E+3
   8.48641E+2  -2.73403E+3
   7.82912E+2  -2.80098E+3
   7.41716E+2  -2.75913E+3
   8.05983E+2  -2.78725E+3
   7.31545E+2  -2.74028E+3
   7.15391E+2  -2.73774E+3
   7.50789E+2  -2.72995E+3
   7.47501E+2  -2.69437E+3
   7.30428E+2  -2.67255E+3
   6.39127E+2  -2.69367E+3
   6.26335E+2  -2.71582E+3
   5.89470E+2  -2.68010E+3
   5.97687E+2  -2.64114E+3
   5.73587E+2  -2.62154E+3
   5.78649E+2  -2.60889E+3
   5.76722E+2  -2.55704E+3
   5.75816E+2  -2.56136E+3
   5.67115E+2  -2.53922E+3
   5.05057E+2  -2.51810E+3
   4.75853E+2  -2.52192E+3
   4.89468E+2  -2.55805E+3
   4.42490E+2  -2.50727E+3
   5.31853E+2  -2.47718E+3
   5.15730E+2  -2.51786E+3
   4.70438E+2  -2.43659E+3
