 
 $NMID
 ID=''
 FMTDAT='(2E13.5)'
 TRAMP=   1.00000E+0
 VOLUME=   1.00000E+0
 $END
  -3.82679E+3   1.86175E+4
  -2.30397E+4   4.31369E+4
  -1.50309E+4   4.61331E+4
  -1.37681E+4   4.21938E+4
  -1.53483E+4   4.33167E+4
  -1.31887E+4   4.38632E+4
  -1.29929E+4   4.17640E+4
  -1.37543E+4   4.19216E+4
  -1.24869E+4   4.20937E+4
  -1.21894E+4   4.07844E+4
  -1.26989E+4   4.06800E+4
  -1.15676E+4   4.07139E+4
  -1.11219E+4   3.98071E+4
  -1.15418E+4   3.97364E+4
  -1.07743E+4   3.96769E+4
  -1.03981E+4   3.87511E+4
  -1.05540E+4   3.86403E+4
  -9.76256E+3   3.85149E+4
  -9.39642E+3   3.77989E+4
  -9.48584E+3   3.76907E+4
  -8.89291E+3   3.73930E+4
  -8.44417E+3   3.69333E+4
  -8.42573E+3   3.68197E+4
  -8.03299E+3   3.66309E+4
  -7.66784E+3   3.60744E+4
  -7.70746E+3   3.58188E+4
  -7.32571E+3   3.57144E+4
  -7.20079E+3   3.51551E+4
  -7.16836E+3   3.47329E+4
  -6.99547E+3   3.44435E+4
  -6.66123E+3   3.39822E+4
  -6.54252E+3   3.36696E+4
  -6.37278E+3   3.33357E+4
  -6.10574E+3   3.27832E+4
  -6.04406E+3   3.23595E+4
  -5.64186E+3   3.20390E+4
  -5.42862E+3   3.13918E+4
  -5.22852E+3   3.10934E+4
  -4.89509E+3   3.06750E+4
  -4.58434E+3   3.02551E+4
  -4.37347E+3   2.99286E+4
  -4.26932E+3   2.94430E+4
  -4.15855E+3   2.88830E+4
  -3.95066E+3   2.84382E+4
  -3.64550E+3   2.79619E+4
  -3.45598E+3   2.74718E+4
  -3.26243E+3   2.70278E+4
  -3.05999E+3   2.65578E+4
  -2.83194E+3   2.61355E+4
  -2.70687E+3   2.56542E+4
  -2.49319E+3   2.51804E+4
  -2.30771E+3   2.46153E+4
  -1.97212E+3   2.40609E+4
  -1.71131E+3   2.37066E+4
  -1.50689E+3   2.32576E+4
  -1.29136E+3   2.27387E+4
  -1.14442E+3   2.23967E+4
  -9.64506E+2   2.18895E+4
  -7.93908E+2   2.14445E+4
  -5.72309E+2   2.09795E+4
  -4.31194E+2   2.04859E+4
  -1.47603E+2   2.02153E+4
   4.21755E+1   1.96788E+4
   1.44067E+2   1.92982E+4
   3.32545E+2   1.88923E+4
   5.01518E+2   1.85324E+4
   6.70727E+2   1.81805E+4
   8.50051E+2   1.78274E+4
   9.66158E+2   1.73497E+4
   1.07770E+3   1.69609E+4
   1.28002E+3   1.65608E+4
   1.36507E+3   1.62123E+4
   1.54727E+3   1.58483E+4
   1.67285E+3   1.54512E+4
   1.82423E+3   1.50639E+4
   1.99114E+3   1.47823E+4
   2.12045E+3   1.44574E+4
   2.28346E+3   1.40741E+4
   2.36705E+3   1.38826E+4
   2.51027E+3   1.35072E+4
   2.65242E+3   1.32576E+4
   2.75681E+3   1.30051E+4
   2.83217E+3   1.26999E+4
   2.93625E+3   1.24981E+4
   2.90890E+3   1.21746E+4
   3.01344E+3   1.18927E+4
   3.03797E+3   1.17549E+4
   3.11424E+3   1.14725E+4
   3.14077E+3   1.12176E+4
   3.18703E+3   1.09946E+4
   3.16450E+3   1.08443E+4
   3.17707E+3   1.05408E+4
   3.25325E+3   1.03693E+4
   3.29184E+3   1.01277E+4
   3.24630E+3   9.96879E+3
   3.23908E+3   9.75775E+3
   3.23670E+3   9.49194E+3
   3.29273E+3   9.33574E+3
   3.20404E+3   9.10933E+3
   3.17957E+3   8.91768E+3
   3.14366E+3   8.75471E+3
   3.13382E+3   8.56833E+3
   3.11500E+3   8.37145E+3
   3.05281E+3   8.26071E+3
   2.97649E+3   8.02961E+3
   2.96493E+3   7.89857E+3
   2.88235E+3   7.67541E+3
   2.74349E+3   7.51919E+3
   2.66208E+3   7.39816E+3
   2.63958E+3   7.27037E+3
   2.60342E+3   7.04880E+3
   2.52941E+3   6.87558E+3
   2.45432E+3   6.77384E+3
   2.38368E+3   6.55659E+3
   2.25931E+3   6.36029E+3
   2.17207E+3   6.23050E+3
   2.03975E+3   6.04415E+3
   1.95005E+3   5.92877E+3
   1.86361E+3   5.73216E+3
   1.81847E+3   5.65539E+3
   1.69938E+3   5.52057E+3
   1.63670E+3   5.35665E+3
   1.63372E+3   5.16086E+3
   1.43915E+3   5.06628E+3
   1.43577E+3   4.85414E+3
   1.33890E+3   4.79555E+3
   1.18135E+3   4.62234E+3
   1.14742E+3   4.47411E+3
   1.06624E+3   4.36048E+3
   9.49100E+2   4.21692E+3
   8.86489E+2   4.06412E+3
   8.12872E+2   3.89721E+3
   7.04273E+2   3.74583E+3
   6.56482E+2   3.74568E+3
   6.02195E+2   3.59450E+3
   5.26182E+2   3.51135E+3
   4.56189E+2   3.39024E+3
   3.77988E+2   3.21737E+3
   3.01956E+2   3.14907E+3
   3.15136E+2   2.98816E+3
   2.68503E+2   2.94526E+3
   2.02041E+2   2.86026E+3
   5.54598E+1   2.68613E+3
   6.75441E+1   2.65725E+3
  -2.83876E+1   2.59037E+3
  -9.45814E+1   2.50951E+3
  -1.22045E+2   2.41793E+3
  -1.85546E+2   2.38273E+3
  -2.50361E+2   2.23995E+3
  -2.95110E+2   2.19703E+3
  -3.63389E+2   2.02144E+3
  -4.73617E+2   2.03757E+3
  -4.68184E+2   1.90480E+3
  -4.94556E+2   1.89361E+3
  -5.23341E+2   1.89271E+3
  -4.79972E+2   1.74129E+3
  -6.23251E+2   1.68169E+3
  -6.67559E+2   1.58280E+3
  -7.29492E+2   1.62434E+3
  -8.03943E+2   1.60723E+3
  -8.68385E+2   1.46717E+3
  -9.21432E+2   1.43276E+3
  -9.39892E+2   1.38291E+3
  -1.00363E+3   1.29496E+3
  -1.04207E+3   1.25919E+3
  -1.03180E+3   1.16512E+3
  -1.07525E+3   1.11828E+3
  -1.08893E+3   1.12006E+3
  -1.19882E+3   1.12281E+3
  -1.24604E+3   1.00118E+3
  -1.22880E+3   9.69577E+2
  -1.28668E+3   9.70962E+2
  -1.33113E+3   8.56910E+2
  -1.36841E+3   8.28988E+2
  -1.35948E+3   7.46819E+2
  -1.36606E+3   6.47133E+2
  -1.40281E+3   6.96283E+2
  -1.45650E+3   6.10054E+2
  -1.47294E+3   5.83962E+2
  -1.49499E+3   4.86598E+2
  -1.47251E+3   4.73104E+2
  -1.50238E+3   4.15367E+2
  -1.52357E+3   3.63827E+2
  -1.49762E+3   3.59193E+2
  -1.49458E+3   3.09743E+2
  -1.51114E+3   2.82865E+2
  -1.53199E+3   2.26070E+2
  -1.53734E+3   2.21907E+2
  -1.51870E+3   9.35834E+1
  -1.50942E+3   1.36783E+2
  -1.57756E+3   4.90597E+1
  -1.54896E+3   4.85195E+1
  -1.57258E+3  -7.16104E+0
  -1.50866E+3  -2.18026E+1
  -1.55086E+3  -5.99336E+1
  -1.50606E+3  -1.01791E+2
  -1.37666E+3  -1.03089E+2
  -1.46513E+3  -1.44505E+2
  -1.43501E+3  -2.05711E+2
  -1.44031E+3  -2.36275E+2
  -1.41358E+3  -2.41754E+2
  -1.43601E+3  -2.71157E+2
  -1.38045E+3  -2.39112E+2
  -1.37144E+3  -3.27535E+2
  -1.38173E+3  -3.25913E+2
  -1.36446E+3  -3.93921E+2
  -1.31748E+3  -3.89856E+2
  -1.30964E+3  -3.93281E+2
  -1.34337E+3  -4.54721E+2
  -1.28054E+3  -5.07057E+2
  -1.26273E+3  -4.97430E+2
  -1.33636E+3  -5.40804E+2
  -1.30183E+3  -5.27435E+2
  -1.21227E+3  -5.81596E+2
  -1.26554E+3  -6.11839E+2
  -1.25283E+3  -6.45789E+2
  -1.25354E+3  -6.32903E+2
  -1.18120E+3  -7.21223E+2
  -1.18514E+3  -6.97418E+2
  -1.22293E+3  -7.33823E+2
  -1.06367E+3  -6.81357E+2
  -1.14844E+3  -6.84929E+2
  -1.14032E+3  -7.08189E+2
  -1.10651E+3  -7.20864E+2
  -1.05744E+3  -7.02853E+2
  -1.01402E+3  -8.01888E+2
  -1.04459E+3  -7.36529E+2
  -9.54433E+2  -8.20803E+2
  -9.06103E+2  -8.50472E+2
  -9.99782E+2  -8.14674E+2
  -9.69172E+2  -8.59988E+2
  -9.18465E+2  -7.82485E+2
  -8.92441E+2  -8.66683E+2
  -9.32846E+2  -7.88700E+2
  -8.21145E+2  -8.74607E+2
  -7.93248E+2  -8.52617E+2
  -8.51037E+2  -8.77955E+2
  -7.97767E+2  -8.37293E+2
  -8.43029E+2  -8.26092E+2
  -7.86207E+2  -8.29887E+2
  -8.38387E+2  -8.90069E+2
  -7.53100E+2  -8.67955E+2
  -7.49465E+2  -9.14299E+2
  -7.35448E+2  -9.09787E+2
  -7.19958E+2  -8.81901E+2
  -6.94702E+2  -9.33527E+2
  -7.12936E+2  -8.39593E+2
  -7.01652E+2  -9.50528E+2
  -5.98132E+2  -8.91934E+2
  -7.01652E+2  -8.26144E+2
  -7.75640E+2  -8.65409E+2
  -6.91995E+2  -8.19398E+2
  -6.80259E+2  -8.94520E+2
  -6.22067E+2  -8.92614E+2
  -6.83988E+2  -9.34995E+2
  -6.23984E+2  -9.72269E+2
  -6.71316E+2  -9.07073E+2
  -6.03452E+2  -8.42624E+2
  -6.03261E+2  -8.37616E+2
  -6.26790E+2  -8.37994E+2
  -6.43439E+2  -8.47959E+2
  -6.27150E+2  -8.95959E+2
  -5.69825E+2  -8.85673E+2
  -5.83100E+2  -8.43813E+2
  -5.38740E+2  -8.94073E+2
  -5.07109E+2  -9.08788E+2
  -5.42108E+2  -8.46747E+2
  -5.19131E+2  -8.91461E+2
  -5.16494E+2  -9.23960E+2
  -5.51874E+2  -8.73118E+2
  -5.06183E+2  -9.12625E+2
  -4.91996E+2  -8.14934E+2
  -4.48819E+2  -9.31688E+2
  -5.28376E+2  -8.73170E+2
  -5.06658E+2  -8.99591E+2
  -4.78023E+2  -9.10584E+2
  -4.58396E+2  -8.33484E+2
  -4.26413E+2  -9.06563E+2
  -4.96026E+2  -9.38323E+2
  -4.19655E+2  -8.60096E+2
  -5.20830E+2  -8.35775E+2
  -4.37933E+2  -8.22089E+2
  -4.86342E+2  -9.09493E+2
  -4.04105E+2  -8.75416E+2
  -4.55084E+2  -8.47845E+2
  -4.50250E+2  -8.20846E+2
  -4.55526E+2  -8.21383E+2
  -4.95681E+2  -7.74684E+2
  -4.19222E+2  -8.16678E+2
  -4.57991E+2  -7.97156E+2
  -4.61210E+2  -7.69739E+2
  -4.17852E+2  -7.53721E+2
  -4.10662E+2  -8.34828E+2
  -4.19261E+2  -7.87677E+2
  -4.32505E+2  -7.56364E+2
  -4.16675E+2  -7.43826E+2
  -4.68823E+2  -7.51068E+2
  -4.65188E+2  -6.70198E+2
  -4.35398E+2  -7.18631E+2
  -4.49509E+2  -6.31711E+2
  -4.01301E+2  -7.31338E+2
  -3.80179E+2  -7.54208E+2
  -4.43682E+2  -6.57269E+2
  -4.31933E+2  -6.28446E+2
  -4.43848E+2  -6.80382E+2
  -4.70415E+2  -6.50057E+2
  -3.64135E+2  -6.65763E+2
  -3.56309E+2  -6.48823E+2
  -3.60666E+2  -6.23092E+2
  -3.75693E+2  -6.61189E+2
  -3.70005E+2  -6.29251E+2
  -3.72947E+2  -5.29830E+2
  -4.16428E+2  -5.91203E+2
  -4.41143E+2  -6.13553E+2
  -3.76087E+2  -5.77668E+2
  -4.40338E+2  -5.82458E+2
  -3.98787E+2  -5.89964E+2
  -4.15213E+2  -5.48298E+2
  -4.65038E+2  -5.68124E+2
  -4.34535E+2  -5.34431E+2
  -3.56425E+2  -5.67636E+2
  -3.56836E+2  -4.83583E+2
  -4.06635E+2  -5.26928E+2
  -3.74698E+2  -5.10483E+2
  -3.60057E+2  -5.07075E+2
  -3.49947E+2  -4.52837E+2
  -3.54000E+2  -4.86292E+2
  -3.93327E+2  -4.43251E+2
  -3.75270E+2  -4.60949E+2
  -4.46112E+2  -4.76329E+2
  -3.97017E+2  -4.28671E+2
  -4.04926E+2  -4.48855E+2
  -3.73437E+2  -4.37385E+2
  -4.00032E+2  -4.10410E+2
  -4.04004E+2  -4.35056E+2
  -3.61706E+2  -4.23271E+2
  -3.39107E+2  -3.90494E+2
  -3.97373E+2  -4.15495E+2
  -3.75083E+2  -3.31288E+2
  -3.67380E+2  -3.23747E+2
  -3.34455E+2  -3.42396E+2
  -4.35823E+2  -3.89000E+2
  -3.73868E+2  -3.72871E+2
  -3.88647E+2  -3.86904E+2
  -4.15750E+2  -3.63178E+2
  -3.17711E+2  -2.72874E+2
  -3.67536E+2  -3.07696E+2
  -3.75608E+2  -2.48611E+2
  -4.04082E+2  -2.35465E+2
  -4.28814E+2  -2.29719E+2
  -3.83698E+2  -3.12648E+2
  -4.02547E+2  -2.64982E+2
  -3.46378E+2  -2.43305E+2
  -3.80586E+2  -2.54774E+2
  -3.76116E+2  -2.47772E+2
  -3.55378E+2  -2.67838E+2
  -3.33482E+2  -2.63057E+2
  -3.00487E+2  -1.86331E+2
  -3.69982E+2  -2.43565E+2
  -3.22059E+2  -2.12288E+2
  -3.26474E+2  -2.04595E+2
  -3.91594E+2  -1.86455E+2
  -3.42556E+2  -1.48909E+2
  -3.77553E+2  -1.55693E+2
  -3.17563E+2  -1.44673E+2
  -3.48532E+2  -1.75280E+2
  -3.67549E+2  -1.55479E+2
