 
 $NMID
 ID=''
 FMTDAT='(2E13.5)'
 TRAMP=   1.00000E+0
 VOLUME=   1.00000E+0
 $END
  -2.21648E+4   2.09463E+3
  -5.64683E+4  -1.09360E+4
  -5.72520E+4  -5.62971E+2
  -5.27632E+4   2.33352E+2
  -5.48768E+4  -8.68162E+2
  -5.47639E+4   2.07571E+3
  -5.23653E+4   2.14750E+3
  -5.28402E+4   1.53760E+3
  -5.26161E+4   3.31649E+3
  -5.10595E+4   3.27927E+3
  -5.11862E+4   2.77814E+3
  -5.08823E+4   4.19969E+3
  -4.99296E+4   4.37300E+3
  -5.03433E+4   3.95540E+3
  -5.02154E+4   4.81726E+3
  -4.92894E+4   5.08224E+3
  -4.94747E+4   5.09867E+3
  -4.93003E+4   5.96962E+3
  -4.85563E+4   6.42394E+3
  -4.86879E+4   6.51492E+3
  -4.83491E+4   7.29354E+3
  -4.78006E+4   8.01231E+3
  -4.77494E+4   8.17614E+3
  -4.76255E+4   8.75540E+3
  -4.69069E+4   9.16213E+3
  -4.67590E+4   9.60258E+3
  -4.66899E+4   1.00458E+4
  -4.61207E+4   1.04142E+4
  -4.58714E+4   1.03999E+4
  -4.55814E+4   1.09167E+4
  -4.50881E+4   1.12999E+4
  -4.49506E+4   1.15029E+4
  -4.47485E+4   1.17995E+4
  -4.42636E+4   1.19251E+4
  -4.40257E+4   1.21814E+4
  -4.37460E+4   1.25701E+4
  -4.32671E+4   1.28412E+4
  -4.29533E+4   1.31195E+4
  -4.27680E+4   1.34049E+4
  -4.23349E+4   1.36812E+4
  -4.21099E+4   1.39055E+4
  -4.19982E+4   1.40571E+4
  -4.16522E+4   1.41255E+4
  -4.12225E+4   1.43824E+4
  -4.10278E+4   1.47508E+4
  -4.07881E+4   1.49796E+4
  -4.05193E+4   1.52029E+4
  -4.02396E+4   1.55786E+4
  -4.00128E+4   1.58447E+4
  -3.97700E+4   1.60711E+4
  -3.95538E+4   1.63210E+4
  -3.92729E+4   1.65032E+4
  -3.89053E+4   1.68043E+4
  -3.87643E+4   1.71816E+4
  -3.85833E+4   1.74305E+4
  -3.83063E+4   1.76027E+4
  -3.80951E+4   1.78625E+4
  -3.78467E+4   1.80905E+4
  -3.76066E+4   1.81848E+4
  -3.72168E+4   1.83231E+4
  -3.70020E+4   1.86217E+4
  -3.66892E+4   1.88509E+4
  -3.63932E+4   1.91155E+4
  -3.61751E+4   1.92449E+4
  -3.58540E+4   1.92938E+4
  -3.54240E+4   1.95790E+4
  -3.52736E+4   1.98250E+4
  -3.49753E+4   1.98931E+4
  -3.46195E+4   1.99500E+4
  -3.42100E+4   2.01267E+4
  -3.38650E+4   2.02670E+4
  -3.35982E+4   2.04090E+4
  -3.32376E+4   2.04692E+4
  -3.28415E+4   2.06576E+4
  -3.25131E+4   2.08534E+4
  -3.21500E+4   2.08952E+4
  -3.18619E+4   2.10353E+4
  -3.14686E+4   2.11756E+4
  -3.10458E+4   2.12365E+4
  -3.06275E+4   2.13751E+4
  -3.03247E+4   2.15184E+4
  -3.00031E+4   2.15221E+4
  -2.96587E+4   2.16382E+4
  -2.93095E+4   2.17027E+4
  -2.89620E+4   2.18082E+4
  -2.86187E+4   2.18641E+4
  -2.82345E+4   2.18186E+4
  -2.78860E+4   2.17797E+4
  -2.74552E+4   2.19640E+4
  -2.71067E+4   2.19884E+4
  -2.66303E+4   2.19903E+4
  -2.63037E+4   2.20731E+4
  -2.59673E+4   2.21311E+4
  -2.55268E+4   2.22014E+4
  -2.52179E+4   2.23581E+4
  -2.48200E+4   2.21710E+4
  -2.43493E+4   2.22644E+4
  -2.39396E+4   2.23381E+4
  -2.35958E+4   2.23663E+4
  -2.32855E+4   2.23550E+4
  -2.28138E+4   2.23026E+4
  -2.23208E+4   2.23376E+4
  -2.19287E+4   2.23830E+4
  -2.15375E+4   2.24344E+4
  -2.11041E+4   2.24387E+4
  -2.07700E+4   2.24060E+4
  -2.03330E+4   2.24089E+4
  -1.98732E+4   2.24158E+4
  -1.94643E+4   2.24438E+4
  -1.89477E+4   2.23829E+4
  -1.84657E+4   2.23973E+4
  -1.81178E+4   2.24459E+4
  -1.76177E+4   2.24787E+4
  -1.71980E+4   2.25286E+4
  -1.67500E+4   2.25256E+4
  -1.64358E+4   2.25292E+4
  -1.59316E+4   2.24865E+4
  -1.54965E+4   2.24551E+4
  -1.51043E+4   2.24129E+4
  -1.47438E+4   2.24320E+4
  -1.42863E+4   2.25086E+4
  -1.38990E+4   2.24312E+4
  -1.34904E+4   2.24520E+4
  -1.31718E+4   2.24960E+4
  -1.26762E+4   2.24396E+4
  -1.23425E+4   2.24901E+4
  -1.19049E+4   2.24128E+4
  -1.16407E+4   2.24743E+4
  -1.12428E+4   2.24279E+4
  -1.09103E+4   2.24359E+4
  -1.05425E+4   2.24374E+4
  -1.00928E+4   2.23868E+4
  -9.85800E+3   2.23837E+4
  -9.51587E+3   2.24402E+4
  -9.17593E+3   2.24197E+4
  -8.84463E+3   2.24154E+4
  -8.56134E+3   2.22965E+4
  -8.23022E+3   2.23218E+4
  -7.84211E+3   2.22705E+4
  -7.59831E+3   2.22887E+4
  -7.34470E+3   2.22008E+4
  -7.08125E+3   2.21977E+4
  -6.82177E+3   2.20903E+4
  -6.48866E+3   2.20711E+4
  -6.29468E+3   2.20251E+4
  -5.99597E+3   2.19826E+4
  -5.77415E+3   2.19698E+4
  -5.49678E+3   2.19645E+4
  -5.23082E+3   2.19393E+4
  -5.06324E+3   2.17828E+4
  -4.82271E+3   2.17317E+4
  -4.58306E+3   2.16560E+4
  -4.37017E+3   2.15845E+4
  -4.11320E+3   2.14263E+4
  -3.92056E+3   2.13418E+4
  -3.65066E+3   2.13060E+4
  -3.55680E+3   2.12126E+4
  -3.28494E+3   2.11578E+4
  -3.16535E+3   2.10237E+4
  -2.95815E+3   2.09449E+4
  -2.80249E+3   2.08628E+4
  -2.67215E+3   2.06991E+4
  -2.49365E+3   2.06203E+4
  -2.37782E+3   2.04854E+4
  -2.12488E+3   2.03270E+4
  -1.98022E+3   2.02502E+4
  -1.86130E+3   2.01360E+4
  -1.71361E+3   1.98961E+4
  -1.48716E+3   1.98394E+4
  -1.37183E+3   1.97431E+4
  -1.24855E+3   1.95991E+4
  -1.10528E+3   1.94011E+4
  -9.68309E+2   1.92603E+4
  -7.82318E+2   1.90839E+4
  -6.55227E+2   1.89996E+4
  -6.16409E+2   1.88097E+4
  -4.74955E+2   1.86677E+4
  -3.17825E+2   1.85993E+4
  -1.92955E+2   1.84284E+4
  -1.51616E+2   1.82828E+4
  -5.67310E+1   1.81576E+4
   7.72453E+1   1.80066E+4
   2.16734E+2   1.78332E+4
   2.95462E+2   1.76532E+4
   3.79575E+2   1.75024E+4
   5.05601E+2   1.73957E+4
   4.67755E+2   1.72400E+4
   5.48721E+2   1.70966E+4
   6.26944E+2   1.69156E+4
   7.05350E+2   1.67357E+4
   8.06636E+2   1.65742E+4
   8.77372E+2   1.63875E+4
   9.39753E+2   1.62906E+4
   1.00710E+3   1.60998E+4
   1.05403E+3   1.59259E+4
   1.13169E+3   1.57887E+4
   1.19363E+3   1.56545E+4
   1.25847E+3   1.54591E+4
   1.24524E+3   1.52820E+4
   1.29924E+3   1.51373E+4
   1.34757E+3   1.49645E+4
   1.34048E+3   1.47977E+4
   1.43939E+3   1.46365E+4
   1.48378E+3   1.44250E+4
   1.53153E+3   1.42592E+4
   1.61689E+3   1.40533E+4
   1.62909E+3   1.39839E+4
   1.66571E+3   1.37926E+4
   1.74938E+3   1.36799E+4
   1.75919E+3   1.35663E+4
   1.77398E+3   1.34062E+4
   1.75870E+3   1.30945E+4
   1.84115E+3   1.29917E+4
   1.90430E+3   1.27607E+4
   1.88837E+3   1.26308E+4
   1.86088E+3   1.25370E+4
   1.89846E+3   1.23134E+4
   1.92251E+3   1.21885E+4
   1.97352E+3   1.19822E+4
   1.97719E+3   1.18261E+4
   1.98546E+3   1.16844E+4
   2.04493E+3   1.15279E+4
   2.11125E+3   1.14037E+4
   2.03730E+3   1.11692E+4
   2.08051E+3   1.10134E+4
   2.09466E+3   1.09925E+4
   2.15292E+3   1.07895E+4
   2.16867E+3   1.06042E+4
   2.11201E+3   1.04692E+4
   2.05751E+3   1.03687E+4
   2.14026E+3   1.01613E+4
   2.16045E+3   1.00113E+4
   2.11912E+3   9.89879E+3
   2.13603E+3   9.77090E+3
   2.10600E+3   9.62484E+3
   2.19353E+3   9.42287E+3
   2.17492E+3   9.35468E+3
   2.16730E+3   9.15753E+3
   2.16533E+3   9.13401E+3
   2.14960E+3   8.98594E+3
   2.20903E+3   8.89250E+3
   2.17596E+3   8.69443E+3
   2.14885E+3   8.58462E+3
   2.10137E+3   8.48550E+3
   2.18931E+3   8.30865E+3
   2.11642E+3   8.17318E+3
   2.09919E+3   8.13278E+3
   2.15663E+3   7.93955E+3
   2.17338E+3   7.84196E+3
   2.18084E+3   7.69442E+3
   2.16031E+3   7.63900E+3
   2.08761E+3   7.52529E+3
   2.10462E+3   7.42017E+3
   2.03485E+3   7.24020E+3
   2.06911E+3   7.16921E+3
   2.06469E+3   7.05227E+3
   2.08594E+3   6.97122E+3
   2.11837E+3   6.92321E+3
   2.03791E+3   6.73883E+3
   2.00970E+3   6.68505E+3
   1.97749E+3   6.54387E+3
   2.02242E+3   6.51241E+3
   2.00237E+3   6.36780E+3
   1.95402E+3   6.27475E+3
   2.03795E+3   6.21211E+3
   2.02180E+3   6.07625E+3
   1.97309E+3   6.00170E+3
   1.90825E+3   5.94821E+3
   1.97600E+3   5.77688E+3
   1.91322E+3   5.71548E+3
   1.87919E+3   5.61269E+3
   1.87910E+3   5.49173E+3
   1.93800E+3   5.45534E+3
   1.88631E+3   5.37253E+3
   1.89684E+3   5.25383E+3
   1.88517E+3   5.20220E+3
   1.87113E+3   5.08496E+3
   1.89391E+3   5.00931E+3
   1.89811E+3   4.93196E+3
   1.83389E+3   4.85394E+3
   1.75228E+3   4.81458E+3
   1.84919E+3   4.68517E+3
   1.79512E+3   4.62950E+3
   1.83879E+3   4.52431E+3
   1.71368E+3   4.47284E+3
   1.74729E+3   4.40034E+3
   1.65553E+3   4.30050E+3
   1.63149E+3   4.33338E+3
   1.61623E+3   4.15158E+3
   1.61798E+3   4.15258E+3
   1.59704E+3   4.02241E+3
   1.70800E+3   3.97809E+3
   1.62379E+3   3.88599E+3
   1.62450E+3   3.86537E+3
   1.56072E+3   3.78874E+3
   1.57273E+3   3.75903E+3
   1.58151E+3   3.65649E+3
   1.53220E+3   3.56498E+3
   1.51160E+3   3.60077E+3
   1.55881E+3   3.42794E+3
   1.50060E+3   3.37825E+3
   1.46017E+3   3.34844E+3
   1.52026E+3   3.28195E+3
   1.45272E+3   3.23822E+3
   1.39103E+3   3.18828E+3
   1.39087E+3   3.19814E+3
   1.46295E+3   3.04729E+3
   1.37419E+3   3.02732E+3
   1.39657E+3   2.95363E+3
   1.40369E+3   2.93837E+3
   1.30614E+3   2.89047E+3
   1.35387E+3   2.80121E+3
   1.32538E+3   2.80763E+3
   1.32562E+3   2.67693E+3
   1.37542E+3   2.66285E+3
   1.39075E+3   2.59137E+3
   1.32478E+3   2.58855E+3
   1.27197E+3   2.51532E+3
   1.35766E+3   2.47031E+3
   1.23168E+3   2.39861E+3
   1.21607E+3   2.32554E+3
   1.26303E+3   2.35190E+3
   1.22247E+3   2.24958E+3
   1.21660E+3   2.25962E+3
   1.17976E+3   2.23114E+3
   1.19520E+3   2.24157E+3
   1.25210E+3   2.14374E+3
   1.15335E+3   2.05402E+3
   1.16061E+3   2.00962E+3
   1.16753E+3   1.99700E+3
   1.14935E+3   1.96324E+3
   1.11947E+3   1.95588E+3
   1.16973E+3   1.92450E+3
   1.12671E+3   1.83312E+3
   1.12285E+3   1.76389E+3
   1.09261E+3   1.80820E+3
   1.09980E+3   1.74283E+3
   1.09739E+3   1.67967E+3
   1.13398E+3   1.69397E+3
   1.04626E+3   1.62201E+3
   1.07321E+3   1.55639E+3
   1.06271E+3   1.54053E+3
   1.05242E+3   1.57364E+3
   1.02784E+3   1.49171E+3
   9.64094E+2   1.56589E+3
   1.07223E+3   1.48064E+3
   1.00675E+3   1.52318E+3
   1.03067E+3   1.43946E+3
   9.21415E+2   1.37798E+3
   9.63444E+2   1.37704E+3
   9.01789E+2   1.33533E+3
   9.03515E+2   1.34266E+3
   9.63950E+2   1.15931E+3
   9.32038E+2   1.20169E+3
   9.50210E+2   1.22707E+3
   8.91893E+2   1.18539E+3
   9.23685E+2   1.14775E+3
   8.65244E+2   1.10539E+3
   9.04090E+2   1.08100E+3
   9.07873E+2   1.07811E+3
   9.10979E+2   1.04866E+3
   8.58721E+2   1.01829E+3
   8.62675E+2   9.70222E+2
   8.29393E+2   9.46905E+2
   8.63367E+2   9.17195E+2
   7.77555E+2   9.06803E+2
   8.49643E+2   8.86204E+2
