 
 $NMID
 ID=''
 FMTDAT='(2E13.5)'
 TRAMP=   1.00000E+0
 VOLUME=   1.00000E+0
 $END
  -2.22505E+4   1.54125E+3
  -5.61831E+4  -1.24283E+4
  -5.75685E+4  -2.43015E+3
  -5.33151E+4  -1.93387E+3
  -5.55296E+4  -3.32987E+3
  -5.58368E+4  -4.69488E+2
  -5.37541E+4  -4.83785E+2
  -5.43958E+4  -1.19469E+3
  -5.43332E+4   7.07744E+2
  -5.26920E+4   5.89874E+2
  -5.27314E+4   3.17913E+1
  -5.24212E+4   1.41913E+3
  -5.13553E+4   1.51596E+3
  -5.15841E+4   7.01097E+2
  -5.12663E+4   1.36405E+3
  -5.04488E+4   1.29263E+3
  -5.06223E+4   9.52465E+2
  -5.04821E+4   1.56460E+3
  -4.98472E+4   1.75114E+3
  -5.00354E+4   1.48415E+3
  -4.97186E+4   2.02807E+3
  -4.91926E+4   2.44912E+3
  -4.93848E+4   2.37937E+3
  -4.93070E+4   2.67884E+3
  -4.85841E+4   3.02717E+3
  -4.84971E+4   3.04662E+3
  -4.84076E+4   3.45115E+3
  -4.77334E+4   3.44269E+3
  -4.75323E+4   3.43695E+3
  -4.72227E+4   3.80462E+3
  -4.67334E+4   4.13566E+3
  -4.64122E+4   4.27287E+3
  -4.62185E+4   4.60519E+3
  -4.56153E+4   4.69765E+3
  -4.52037E+4   5.04130E+3
  -4.49406E+4   5.31701E+3
  -4.44122E+4   5.50737E+3
  -4.39860E+4   5.68592E+3
  -4.37443E+4   6.05267E+3
  -4.33841E+4   6.15445E+3
  -4.30654E+4   6.27871E+3
  -4.28831E+4   6.39511E+3
  -4.25109E+4   6.30985E+3
  -4.21487E+4   6.43369E+3
  -4.18593E+4   6.51403E+3
  -4.14893E+4   6.54674E+3
  -4.12971E+4   6.59287E+3
  -4.10833E+4   6.71396E+3
  -4.07905E+4   6.85821E+3
  -4.05995E+4   6.86256E+3
  -4.02992E+4   6.86930E+3
  -4.00079E+4   6.87911E+3
  -3.97835E+4   7.03667E+3
  -3.95143E+4   7.13183E+3
  -3.93572E+4   7.17533E+3
  -3.91527E+4   7.22897E+3
  -3.89642E+4   7.31352E+3
  -3.87476E+4   7.37870E+3
  -3.84551E+4   7.40732E+3
  -3.82016E+4   7.35473E+3
  -3.79466E+4   7.45984E+3
  -3.76894E+4   7.58023E+3
  -3.75075E+4   7.75242E+3
  -3.73347E+4   7.72057E+3
  -3.71562E+4   7.71787E+3
  -3.68880E+4   7.82798E+3
  -3.68146E+4   7.95267E+3
  -3.65588E+4   7.93540E+3
  -3.63126E+4   8.00007E+3
  -3.60804E+4   7.95794E+3
  -3.59331E+4   8.05106E+3
  -3.57606E+4   8.13318E+3
  -3.54732E+4   8.08304E+3
  -3.51869E+4   8.07968E+3
  -3.49544E+4   8.18382E+3
  -3.47859E+4   8.30321E+3
  -3.44961E+4   8.33406E+3
  -3.42605E+4   8.33230E+3
  -3.40376E+4   8.37038E+3
  -3.37388E+4   8.53180E+3
  -3.35944E+4   8.49398E+3
  -3.33243E+4   8.51443E+3
  -3.31154E+4   8.53415E+3
  -3.28997E+4   8.60731E+3
  -3.27170E+4   8.61389E+3
  -3.24897E+4   8.59415E+3
  -3.22562E+4   8.60820E+3
  -3.20014E+4   8.62966E+3
  -3.18370E+4   8.68246E+3
  -3.16623E+4   8.70816E+3
  -3.14399E+4   8.77469E+3
  -3.13057E+4   8.84295E+3
  -3.10748E+4   8.88141E+3
  -3.10034E+4   8.95167E+3
  -3.07029E+4   9.00285E+3
  -3.05466E+4   9.03447E+3
  -3.03398E+4   9.08432E+3
  -3.02426E+4   9.16730E+3
  -3.01058E+4   9.21665E+3
  -2.99506E+4   9.23341E+3
  -2.97913E+4   9.21794E+3
  -2.95490E+4   9.31669E+3
  -2.94413E+4   9.46253E+3
  -2.93644E+4   9.49952E+3
  -2.92316E+4   9.58995E+3
  -2.90970E+4   9.57459E+3
  -2.88465E+4   9.68082E+3
  -2.87296E+4   9.74386E+3
  -2.85358E+4   9.77721E+3
  -2.83894E+4   9.86462E+3
  -2.81538E+4   9.93772E+3
  -2.80307E+4   1.01091E+4
  -2.79072E+4   1.01549E+4
  -2.77637E+4   1.02650E+4
  -2.76221E+4   1.02876E+4
  -2.75778E+4   1.03815E+4
  -2.73650E+4   1.04056E+4
  -2.71872E+4   1.05418E+4
  -2.70690E+4   1.06133E+4
  -2.69206E+4   1.07192E+4
  -2.67117E+4   1.08279E+4
  -2.65925E+4   1.09321E+4
  -2.64641E+4   1.10044E+4
  -2.63658E+4   1.10532E+4
  -2.61031E+4   1.11884E+4
  -2.60079E+4   1.13575E+4
  -2.58153E+4   1.13289E+4
  -2.57543E+4   1.14498E+4
  -2.55326E+4   1.15912E+4
  -2.53716E+4   1.16225E+4
  -2.52615E+4   1.16917E+4
  -2.50531E+4   1.18375E+4
  -2.48354E+4   1.19334E+4
  -2.46845E+4   1.20894E+4
  -2.45500E+4   1.21893E+4
  -2.44301E+4   1.22183E+4
  -2.42427E+4   1.22718E+4
  -2.41079E+4   1.22958E+4
  -2.38857E+4   1.24511E+4
  -2.37379E+4   1.25631E+4
  -2.34910E+4   1.26348E+4
  -2.33236E+4   1.26918E+4
  -2.31817E+4   1.27681E+4
  -2.29394E+4   1.28774E+4
  -2.28185E+4   1.28958E+4
  -2.26271E+4   1.29787E+4
  -2.24920E+4   1.30937E+4
  -2.22769E+4   1.31164E+4
  -2.20739E+4   1.31787E+4
  -2.19778E+4   1.32420E+4
  -2.17655E+4   1.33036E+4
  -2.16106E+4   1.34062E+4
  -2.13952E+4   1.33971E+4
  -2.12015E+4   1.34837E+4
  -2.10147E+4   1.36156E+4
  -2.08908E+4   1.36370E+4
  -2.06937E+4   1.36900E+4
  -2.04959E+4   1.37503E+4
  -2.03498E+4   1.37583E+4
  -2.01136E+4   1.38642E+4
  -1.99474E+4   1.38583E+4
  -1.97369E+4   1.38992E+4
  -1.95540E+4   1.39346E+4
  -1.93685E+4   1.40133E+4
  -1.91641E+4   1.39940E+4
  -1.90036E+4   1.40277E+4
  -1.88310E+4   1.39668E+4
  -1.85639E+4   1.39985E+4
  -1.83432E+4   1.41369E+4
  -1.81450E+4   1.41569E+4
  -1.80536E+4   1.41202E+4
  -1.78773E+4   1.41839E+4
  -1.76209E+4   1.40991E+4
  -1.73958E+4   1.41295E+4
  -1.71476E+4   1.41353E+4
  -1.69168E+4   1.42105E+4
  -1.68121E+4   1.42059E+4
  -1.65199E+4   1.42284E+4
  -1.63659E+4   1.42860E+4
  -1.62119E+4   1.42807E+4
  -1.59649E+4   1.42463E+4
  -1.57448E+4   1.42887E+4
  -1.54955E+4   1.42106E+4
  -1.53958E+4   1.42544E+4
  -1.51989E+4   1.42412E+4
  -1.50465E+4   1.42421E+4
  -1.48076E+4   1.42174E+4
  -1.46172E+4   1.42113E+4
  -1.43872E+4   1.41873E+4
  -1.41963E+4   1.41289E+4
  -1.39860E+4   1.41214E+4
  -1.38034E+4   1.40964E+4
  -1.36887E+4   1.40777E+4
  -1.33796E+4   1.40399E+4
  -1.32060E+4   1.40139E+4
  -1.30236E+4   1.39799E+4
  -1.28412E+4   1.38844E+4
  -1.26562E+4   1.38259E+4
  -1.23643E+4   1.38476E+4
  -1.22568E+4   1.37945E+4
  -1.20786E+4   1.38213E+4
  -1.19899E+4   1.36583E+4
  -1.17303E+4   1.35875E+4
  -1.15006E+4   1.35885E+4
  -1.12838E+4   1.35123E+4
  -1.11517E+4   1.35847E+4
  -1.10105E+4   1.33604E+4
  -1.08019E+4   1.33734E+4
  -1.05600E+4   1.32847E+4
  -1.04634E+4   1.32527E+4
  -1.02904E+4   1.31900E+4
  -1.01017E+4   1.31063E+4
  -9.89012E+3   1.30278E+4
  -9.75046E+3   1.29417E+4
  -9.56858E+3   1.29378E+4
  -9.44780E+3   1.28272E+4
  -9.21012E+3   1.27495E+4
  -9.04654E+3   1.26723E+4
  -8.91872E+3   1.25915E+4
  -8.72319E+3   1.25336E+4
  -8.49291E+3   1.25015E+4
  -8.30683E+3   1.24135E+4
  -8.19218E+3   1.23293E+4
  -8.06103E+3   1.22731E+4
  -7.97271E+3   1.20852E+4
  -7.75976E+3   1.20702E+4
  -7.57694E+3   1.20385E+4
  -7.39064E+3   1.19671E+4
  -7.25168E+3   1.18738E+4
  -7.16765E+3   1.18041E+4
  -6.99665E+3   1.17536E+4
  -6.87002E+3   1.16619E+4
  -6.69105E+3   1.15805E+4
  -6.56375E+3   1.14717E+4
  -6.40169E+3   1.13674E+4
  -6.18998E+3   1.13123E+4
  -6.04150E+3   1.12726E+4
  -5.97251E+3   1.11407E+4
  -5.87975E+3   1.10399E+4
  -5.73294E+3   1.09718E+4
  -5.49949E+3   1.08843E+4
  -5.39931E+3   1.08723E+4
  -5.32801E+3   1.07735E+4
  -5.16586E+3   1.07259E+4
  -5.02852E+3   1.05717E+4
  -4.86340E+3   1.05093E+4
  -4.73864E+3   1.04575E+4
  -4.69733E+3   1.04104E+4
  -4.56613E+3   1.03195E+4
  -4.41530E+3   1.02287E+4
  -4.29759E+3   1.01999E+4
  -4.17379E+3   1.00933E+4
  -4.06808E+3   9.98940E+3
  -3.94525E+3   9.92047E+3
  -3.84497E+3   9.88720E+3
  -3.76832E+3   9.80344E+3
  -3.59687E+3   9.72416E+3
  -3.50420E+3   9.68858E+3
  -3.41187E+3   9.62370E+3
  -3.28632E+3   9.49300E+3
  -3.21177E+3   9.48467E+3
  -3.11164E+3   9.38210E+3
  -2.97988E+3   9.36167E+3
  -2.96268E+3   9.21105E+3
  -2.80088E+3   9.14389E+3
  -2.76042E+3   9.08639E+3
  -2.67203E+3   8.98725E+3
  -2.58196E+3   9.00516E+3
  -2.46450E+3   8.86176E+3
  -2.49729E+3   8.77103E+3
  -2.36926E+3   8.68347E+3
  -2.25276E+3   8.60484E+3
  -2.16606E+3   8.61206E+3
  -2.13438E+3   8.50626E+3
  -2.05524E+3   8.45803E+3
  -1.92405E+3   8.39015E+3
  -1.88781E+3   8.25492E+3
  -1.75862E+3   8.24568E+3
  -1.75109E+3   8.13613E+3
  -1.67032E+3   8.01973E+3
  -1.65066E+3   8.01948E+3
  -1.53692E+3   7.88595E+3
  -1.52849E+3   7.84925E+3
  -1.43688E+3   7.74354E+3
  -1.33241E+3   7.73255E+3
  -1.36536E+3   7.65740E+3
  -1.23567E+3   7.53097E+3
  -1.23134E+3   7.43387E+3
  -1.11804E+3   7.40364E+3
  -1.09662E+3   7.33670E+3
  -1.05431E+3   7.24449E+3
  -9.73147E+2   7.22859E+3
  -8.80057E+2   7.14748E+3
  -9.10126E+2   7.08556E+3
  -7.77822E+2   6.98837E+3
  -7.47776E+2   6.94695E+3
  -7.46740E+2   6.88409E+3
  -6.62706E+2   6.75790E+3
  -5.96724E+2   6.75874E+3
  -5.44313E+2   6.68182E+3
  -5.44410E+2   6.53469E+3
  -4.51648E+2   6.53977E+3
  -3.92510E+2   6.51118E+3
  -4.13117E+2   6.38710E+3
  -3.47543E+2   6.35779E+3
  -3.01947E+2   6.28277E+3
  -2.28504E+2   6.21369E+3
  -1.66357E+2   6.14060E+3
  -1.36755E+2   6.08278E+3
  -1.81647E+1   6.09468E+3
  -5.39109E+1   5.96983E+3
  -7.95324E+1   5.87299E+3
  -2.32364E+1   5.87470E+3
  -2.28240E+1   5.79408E+3
   1.38094E+2   5.77909E+3
   6.58202E+1   5.76066E+3
   1.23995E+2   5.65937E+3
   1.45037E+2   5.64122E+3
   2.12561E+2   5.56730E+3
   2.29380E+2   5.47790E+3
   3.15970E+2   5.42918E+3
   3.43766E+2   5.35895E+3
   3.29801E+2   5.36507E+3
   3.74139E+2   5.35571E+3
   3.98312E+2   5.24184E+3
   4.26521E+2   5.18028E+3
   4.04845E+2   5.13588E+3
   4.93041E+2   5.10726E+3
   5.36366E+2   5.04362E+3
   5.00264E+2   4.99508E+3
   5.95794E+2   5.04227E+3
   6.28051E+2   4.99263E+3
   6.26752E+2   4.84823E+3
   6.15563E+2   4.76686E+3
   6.53603E+2   4.78855E+3
   6.44923E+2   4.74068E+3
   7.62313E+2   4.63326E+3
   7.34388E+2   4.59964E+3
   7.85034E+2   4.59794E+3
   7.70692E+2   4.60179E+3
   7.78616E+2   4.51278E+3
   7.86965E+2   4.48164E+3
   8.66837E+2   4.40087E+3
   8.00312E+2   4.33960E+3
   8.58995E+2   4.34991E+3
   8.65227E+2   4.34654E+3
   8.65357E+2   4.21089E+3
   9.23251E+2   4.18156E+3
   9.22998E+2   4.23877E+3
   9.42372E+2   4.15640E+3
   9.92555E+2   4.13145E+3
   9.58966E+2   4.09551E+3
   9.63242E+2   4.06950E+3
   9.52663E+2   3.99579E+3
   9.74363E+2   3.91502E+3
   1.01388E+3   3.91987E+3
   9.89405E+2   3.84890E+3
   1.06259E+3   3.80734E+3
   1.05844E+3   3.84122E+3
   1.09390E+3   3.74329E+3
   1.14059E+3   3.73323E+3
   1.10141E+3   3.68189E+3
   1.15845E+3   3.64940E+3
   1.07940E+3   3.60394E+3
   1.12813E+3   3.64567E+3
   1.15556E+3   3.50764E+3
   1.13444E+3   3.50395E+3
