 
 $NMID
 ID=''
 FMTDAT='(2E13.5)'
 TRAMP=   1.00000E+0
 VOLUME=   1.00000E+0
 $END
   2.67001E+1  -1.50427E+2
   1.30228E+3  -1.24989E+3
  -3.70046E+3  -1.11058E+3
  -2.57747E+3  -8.82641E+2
  -4.51328E+2   2.52774E+3
  -6.03620E+2  -6.45673E+2
   1.53804E+3   1.74349E+3
   1.19780E+3   8.93449E+1
  -2.36065E+3  -1.72270E+1
  -1.52132E+3  -7.11848E+2
  -2.22024E+3  -1.53920E+3
   6.95741E+2  -3.63768E+3
  -1.21824E+3   1.11304E+3
  -2.15134E+3   3.24394E+2
  -1.92487E+3  -9.16030E+2
  -1.69466E+3  -1.92058E+3
  -8.16452E+2  -1.37484E+2
  -4.18945E+2   2.68499E+3
  -2.47898E+3   1.30817E+3
  -8.85655E+2   5.94219E+2
  -1.47937E+3  -1.14781E+3
   2.34373E+3  -1.98186E+3
   1.24653E+3   1.53000E+3
   1.66594E+3   3.05155E+3
  -6.50433E+2  -2.06839E+3
   4.45496E+3  -2.54701E+3
   4.64160E+3   1.38077E+2
  -1.29360E+3   2.10078E+3
  -2.60651E+2   1.40140E+2
  -1.66506E+3  -3.46125E+3
   1.67089E+3  -5.85372E+3
   4.36321E+3  -1.89743E+3
   7.04141E+2   2.24629E+3
   7.32143E+2  -8.47674E+0
  -6.31034E+2  -1.36894E+3
  -2.49051E+3   1.18158E+3
  -2.74009E+3  -2.92384E+2
   1.43256E+2   1.38478E+2
   1.73196E+3   7.49637E+2
   1.11392E+3  -2.63120E+3
   2.52310E+3   1.27830E+3
  -5.71828E+2   4.60431E+3
  -5.60204E+3   4.63950E+3
  -4.93189E+3  -1.54794E+3
  -8.65694E+2   3.96072E+2
  -2.09829E+2  -1.19111E+3
  -2.81777E+2  -7.27221E+2
   1.95908E+3   5.99114E+2
  -2.62639E+1  -2.32811E+3
   1.80826E+3  -2.28415E+2
   4.89735E+2   3.50189E+2
  -7.81375E+2   2.50980E+3
  -8.88899E+2  -1.37114E+3
   1.48040E+3  -5.95918E+2
  -4.77633E+2   2.30683E+1
   9.83130E+2  -2.11132E+2
   1.15952E+3  -1.22999E+3
  -3.91362E+2   9.66869E+2
  -5.36256E+2   1.55738E+3
  -1.58216E+3   1.04713E+3
  -1.29049E+3  -1.63391E+3
  -1.34804E+3  -5.81717E+2
   3.09906E+2  -1.80944E+3
   1.13404E+2  -5.55540E+2
   2.25282E+3   1.99717E+3
   1.04469E+3  -1.91711E+3
   1.47073E+3   3.16865E+2
   2.06731E+3  -6.86504E+2
   3.44432E+3   2.67518E+3
  -3.22199E+2  -3.27940E+3
  -4.93049E+2  -2.41520E+2
   1.43645E+3  -1.09553E+3
   1.49345E+3   3.10449E+2
   5.23410E+2   1.02832E+3
  -6.09992E+2   1.14405E+3
   1.90965E+3   3.74997E+2
   9.13207E+2   8.56346E+2
  -9.66414E+2   1.53527E+3
   4.20536E+2   3.94727E+2
  -4.13109E+2  -1.20649E+2
   6.86785E+2  -1.78024E+3
  -3.85432E+2  -2.97450E+2
   8.59599E+2   1.31900E+3
  -2.14897E+3  -8.01962E+2
   5.38696E+2   1.91388E+3
  -5.42766E+1   1.80835E+3
   3.14928E+2   2.62389E+3
  -2.23589E+3   9.61413E+2
  -9.48591E+2   3.20365E+2
  -1.36938E+3   1.12087E+2
  -1.03473E+2   4.38528E+2
  -4.75789E+2  -2.10151E+1
   7.78155E+2  -9.69164E+2
   8.82126E+2  -1.02945E+3
  -3.40055E+2   6.73402E+2
   1.38063E+3   8.09638E+2
   1.00810E+2  -2.51138E+3
   2.83083E+3  -1.36696E+3
  -1.85216E+2  -1.38017E+3
   5.66721E+2   1.49024E+3
  -9.17702E+2   1.40909E+3
  -1.46260E+3   1.54669E+3
  -4.93626E+2   5.11055E+2
   1.22659E+3  -1.39080E+2
  -7.22509E+2   7.68174E+2
  -6.41737E+2   7.37278E+2
  -1.48597E+3   1.50461E+2
  -4.95469E+2   5.77196E+2
   3.54263E+2   7.52654E+2
  -8.69487E+2   1.05244E+3
  -1.33533E+3  -1.67649E+1
  -9.64643E+2  -1.96723E+3
  -5.78084E+2  -9.45614E+2
  -1.34209E+3  -1.31256E+3
   8.89554E+2   1.30634E+3
  -1.21549E+3  -5.50232E+2
  -1.43734E+3   1.55710E+3
  -1.01700E+2  -7.19097E+2
  -5.85540E+2   5.58343E+2
  -1.51153E+3   1.88517E+1
   3.50681E+1  -2.39806E+2
   1.98954E+2   1.26956E+3
  -1.91006E+2  -4.61914E+2
  -9.37188E+2  -6.88143E+2
   1.37316E+3  -8.35066E+1
  -1.07303E+3  -3.17682E+2
  -1.25120E+2  -9.03376E+2
  -3.59063E+2   6.76720E+2
  -5.76275E+2  -1.95748E+3
  -9.20600E+1  -1.15676E+3
  -1.00357E+3  -1.85675E+3
  -1.28523E+3  -1.61960E+3
  -4.19214E+2  -3.80994E+2
   1.95279E+2  -1.88672E+3
   1.30444E+3   7.97280E+2
   1.66759E+3  -4.54150E+2
   6.01234E+2   9.36221E+2
   9.19299E+2  -8.85148E+2
  -6.11817E+2   4.87008E+2
   2.00000E+3   1.50468E+3
  -3.40570E+2  -4.72969E+2
  -4.43059E+2  -1.11661E+3
  -6.60704E+2   5.00368E-1
   2.06654E+2  -5.81091E+2
   2.48011E+3   1.13217E+3
   8.10854E+2  -1.54938E+3
   9.51848E+2  -1.22283E+3
  -1.77836E+3  -9.25294E+2
   1.18156E+3   7.78649E+2
   5.17501E+2  -1.08239E+3
   5.84650E+2  -1.75756E+3
   1.01059E+1  -1.27163E+3
  -2.41694E+3   5.95771E+2
  -1.25330E+2   6.24046E+2
  -7.13351E+2   9.29169E+2
  -1.70104E+3   2.06108E+1
  -4.18236E+2   2.30729E+3
  -1.39571E+3   3.77222E+2
  -5.10853E+2   1.06724E+2
  -1.42060E+2  -3.08336E+2
  -7.00379E+2   3.28533E+2
   1.29426E+3   6.47250E+2
   5.64941E+2   1.19016E+3
  -1.36119E+3   4.07124E+1
  -4.28614E+1  -5.42935E+0
   2.00752E+2   4.32443E+2
  -7.32658E+2  -9.40172E+2
   2.78591E+1   7.56385E+2
  -1.07323E+3   1.32763E+3
  -1.28681E+3   1.09940E+3
  -8.31898E+2  -3.13261E+3
   2.35114E+3  -1.24926E+3
   1.82495E+3   1.31897E+3
   7.31614E+1   6.67236E+2
  -3.48935E+1  -1.23414E+3
   7.39843E+1   5.63900E+2
  -1.35934E+3  -4.62944E+2
   1.32066E+3   7.82104E+2
   7.27345E+1  -7.51444E+2
   1.14958E+3   1.45770E+3
   4.50016E+2   2.11806E+3
   2.02176E+2  -2.91752E+2
  -2.10994E+3  -1.71312E+2
   1.25094E+3   3.09500E+3
  -8.82390E+2   1.09336E+3
   4.64725E+2   1.05455E+3
   1.15198E+3   1.39240E+3
   8.14330E+2   3.56976E+1
   1.27140E+3   2.42265E+2
   1.38428E+3  -2.45624E+2
   1.86919E+3  -8.16965E+2
   1.40062E+3   7.40648E+1
   4.57606E+2   8.47731E+2
   2.58416E+2   2.74494E+3
  -1.81945E+3   2.47027E+2
  -4.12167E+2  -2.99261E+2
   7.43365E+2   5.38870E+2
   3.28918E+2  -2.91456E+2
  -5.79531E+2  -1.88694E+3
   8.92661E+2   1.86105E+3
  -1.65018E+3   2.27908E+3
  -8.63049E+2   7.50217E+2
   3.49508E+2  -1.56819E+2
  -1.56103E+3  -1.35337E+3
   1.90091E+2  -1.83738E+2
   5.78174E+2  -6.01705E+2
   1.45433E+3   1.31735E+3
   5.58832E+2  -6.31599E+2
   2.43481E+3  -6.82225E+2
  -3.65849E+2  -1.91152E+3
   1.89737E+3   7.56223E+1
   6.60398E+2   5.81306E+2
  -2.39739E+3  -4.65673E+2
   9.00427E+1  -1.28207E+3
  -3.69905E+2   1.53213E+2
  -8.12783E+2   2.13100E+3
  -1.31939E+2   1.06526E+3
   2.73205E+3   4.68486E+2
  -1.43966E+3  -1.82418E+3
  -1.45789E+3  -1.13580E+3
   1.96424E+3  -5.88061E+2
   5.36153E+2   1.50444E+3
  -2.51910E+3  -1.84843E+3
  -4.30842E+2  -5.19403E+2
  -1.86271E+2  -1.91093E+2
   8.95844E+0  -2.37528E+3
   1.94850E+3   8.05960E+2
   1.02442E+3   1.22562E+3
   1.23191E+3   1.38040E+3
  -3.37223E+2   2.92548E+2
  -2.82478E+2  -3.45968E+2
   2.01452E+3   3.88718E+1
   9.26809E+2  -7.23223E+2
  -1.48269E+3   8.06300E+2
  -1.93311E+3   1.09587E+2
   1.27520E+3   9.54601E+2
   7.24712E+2   5.66731E+2
  -5.04392E+2   7.09558E+2
   1.30173E+3  -1.03076E+2
   5.20600E+2  -9.91287E+1
  -3.01671E+2  -9.66407E+2
  -2.70753E+2  -2.34857E+3
  -4.12969E+2  -2.24442E+2
   3.00639E+0  -2.28725E+3
  -1.56156E+2  -2.32990E+3
   2.36875E+2   1.04111E+1
  -3.16301E+2  -2.11145E+2
  -2.47935E+3   1.73433E+2
  -7.01377E+2   2.93450E+2
  -1.63066E+3  -1.19495E+3
   4.77191E+2  -8.37344E+2
  -1.68247E+3   6.01568E+2
   1.30121E+3   1.19661E+3
  -1.35257E+3   1.34892E+3
  -5.32719E+2   3.05842E+2
  -1.53083E+3  -7.99908E+2
  -5.07706E+2  -1.54328E+2
   4.36220E+2  -1.05090E+1
  -4.18499E+2   6.17205E+2
  -2.03015E+3   7.27741E+2
  -1.26934E+3  -1.01469E+3
  -6.75148E+2  -2.03607E+3
   1.46681E+3  -1.05470E+3
   2.39596E+2   8.41182E+2
   7.36192E+1   1.58276E+3
  -5.65935E+2   6.82933E+2
  -1.04120E+3   1.00596E+3
   1.86591E+3  -1.79285E+2
  -4.12009E+2   2.93539E+2
   2.77721E+2  -4.96555E+2
  -9.70896E+2   1.81197E+3
   9.74815E+2  -5.99091E+2
  -2.00318E+2  -2.99509E+2
  -1.33874E+2  -1.41095E+3
  -2.95783E+2  -1.77461E+3
   9.03600E+2   1.81586E+3
  -5.50737E+2  -5.09448E+2
   7.59596E+2   3.17078E+2
  -8.07440E+1   2.64751E+3
   4.03800E+2   1.10714E+3
   7.36108E+2   4.84844E+2
  -2.18936E+3   2.60259E+2
   1.41843E+3  -4.97407E+2
  -6.22215E+2   4.69380E+2
   5.20417E+2   1.14750E+3
  -5.60218E+2   2.94457E+3
  -2.48694E+3  -8.20909E+2
  -1.18641E+2   2.19822E+2
   3.77348E+2  -8.00600E+1
   8.48417E+2   7.30229E+2
  -2.30420E+2   7.95832E+2
   5.90680E+2  -7.16028E+2
  -1.10815E+3   2.55068E+3
   1.78934E+2   1.01999E+3
   5.79137E+2  -3.98225E+2
  -2.26664E+3   1.27655E+3
  -6.20192E+2  -5.93179E+2
  -7.67981E+2   7.76456E+2
   7.06533E+2   3.77874E+3
   2.11607E+3   1.00730E+2
  -1.03708E+3   2.01049E+3
  -5.54662E+2   1.11665E+3
   1.87553E+3  -4.12065E+2
  -7.72965E+2   3.28797E+2
   7.94566E+2  -6.63970E+2
  -1.11652E+2   1.07489E+3
  -6.13908E+2  -2.49325E+2
   2.74869E+2   1.45163E+3
   9.72216E+2  -4.83846E+2
   8.84214E+2   1.25235E+3
  -8.66988E+2   6.28439E+2
   6.16415E+2   5.17561E+2
   2.04587E+3   1.65711E+3
   8.16562E+2   1.63544E+3
  -5.39255E+2  -1.31236E+2
   2.03899E+2  -3.79874E+2
   1.00438E+3   1.20080E+3
  -7.28202E+2  -2.63417E+2
   4.76755E+2  -5.85455E+2
  -1.50026E+3  -3.82410E+2
   7.56642E+2  -3.07930E+2
  -1.08596E+3  -1.03327E+2
   1.00087E+2   7.94583E+2
   4.94384E+1   1.80938E+2
   8.45565E+1   2.63148E+2
  -8.62242E+2  -1.11760E+3
  -3.79836E+2   9.05995E+2
   1.33322E+3   1.76480E+3
   1.04033E+3   1.26974E+3
   5.07157E+2   1.28452E+3
  -8.50782E+2   3.40509E+2
  -1.06583E+2   1.75300E+3
   2.57030E+2   3.49487E+2
  -1.95095E+2  -1.05217E+3
   8.48336E+2  -7.54288E+1
   1.29459E+3  -7.00026E+2
   6.80169E+2  -1.01831E+3
   4.45601E+2   1.03745E+3
   2.31076E+3  -1.23969E+1
   6.29106E+2  -5.07887E+1
  -2.63435E+2   1.29973E+2
   1.32461E+3   1.02863E+3
  -6.64568E+1   1.31185E+3
   1.48240E+3  -1.56556E+3
   6.59061E+2  -2.31104E+2
  -8.98531E+1  -1.63012E+2
  -6.90631E+2   3.88483E+2
   8.89435E+2  -1.13303E+2
  -8.07386E+2   6.77047E+2
  -1.63675E+2  -5.81605E+2
   1.03223E+3  -9.76063E+2
   1.85660E+3   2.45639E+2
   2.10482E+3  -1.72731E+3
   1.20459E+3   1.34894E+2
  -3.05670E+2   8.05236E+2
   2.89905E+2  -8.17801E+2
  -7.30051E+2  -2.93907E+1
   2.39157E+2   4.75182E+2
  -1.51476E+3   8.41855E+2
   1.28233E+3  -8.60733E+2
   7.09495E+2   1.21959E+2
   5.01732E+2   4.16154E+2
  -1.16698E+3   1.64545E+3
  -6.82325E+2  -1.33697E+3
   5.60525E+2  -5.24244E+2
  -7.79552E+2   1.30278E+2
  -6.11516E+2   2.42081E+2
