 
 $NMID
 ID=''
 FMTDAT='(2E13.5)'
 TRAMP=   1.00000E+0
 VOLUME=   1.00000E+0
 $END
   1.13613E+2  -1.27107E+2
   1.52544E+3   4.35606E+2
  -1.84078E+3  -1.26766E+3
   2.00834E+2  -1.72075E+3
   7.68438E+2  -2.99502E+3
  -3.82053E+3  -4.81304E+3
  -1.91355E+3   9.01472E+1
  -5.26763E+3   1.82761E+3
  -4.40732E+3   5.46135E+3
  -4.39284E+3   4.26887E+3
   2.30729E+1   1.02027E+3
   2.25483E+3  -2.36769E+3
   5.09996E+3   1.05029E+3
   1.89448E+3   1.72798E+3
  -1.48943E+2  -3.30800E+2
  -1.20768E+3  -4.62587E+3
  -2.61184E+3  -3.21584E+3
  -3.86968E+3  -2.19731E+3
  -3.97272E+3   2.80422E+3
  -1.23290E+3   3.17787E+2
  -1.73449E+3   1.22634E+3
   2.93635E+3   1.67681E+3
   3.89913E+3   1.54781E+3
   1.14754E+3   1.88482E+3
   1.82595E+3  -3.46263E+3
   5.04973E+3  -3.70221E+3
   3.83111E+3  -2.96687E+3
  -2.26607E+3  -3.31560E+3
  -4.91145E+3  -5.00649E+3
  -2.78818E+3  -6.82009E+3
   1.39294E+3  -4.20077E+3
   2.85924E+3   2.14874E+3
  -1.72882E+3   3.38419E+3
  -1.82309E+3  -4.24329E+2
   1.06092E+3   2.80991E+2
  -1.27907E+3   1.15644E+3
  -1.14293E+3  -8.01117E+2
   4.60906E+3  -1.02667E+3
   6.40042E+3  -1.37527E+3
   5.43730E+3   9.45670E+2
   5.14089E+3   2.57562E+3
   2.65487E+2   1.23666E+3
  -6.35705E+2   2.10295E+2
  -1.79293E+3  -4.50101E+3
   8.08789E+2  -4.97998E+3
   5.55688E+2  -3.50110E+3
   1.61919E+3  -2.83596E+3
   1.84966E+2  -3.19534E+3
   1.60397E+3  -1.50338E+2
  -9.21812E+1   2.10680E+3
  -2.50890E+3   3.54727E+3
  -4.94869E+3   2.45448E+3
  -2.06785E+3  -9.67127E+2
   2.50181E+2  -5.34417E+2
   3.60890E+2   3.78456E+3
   1.35306E+1   1.99377E+3
   1.75156E+3   4.25977E+3
  -1.23730E+3   5.32260E+3
  -4.25113E+3   3.50938E+3
  -4.50376E+3   1.47914E+2
  -3.40655E+3  -3.70749E+3
  -1.10090E+3  -1.86940E+3
   2.03148E+2  -6.89984E+2
   1.07947E+3  -3.49427E+3
  -1.99323E+3  -1.68690E+3
   1.28700E+3  -3.69122E+3
   2.74510E+3  -1.37172E+3
   1.54936E+3   2.66981E+3
   3.46897E+2   3.18211E+3
   7.51912E+2  -3.12345E+2
   8.69312E+2   1.84837E+3
   1.54527E+3   5.36531E+2
  -4.92473E+2   2.94696E+3
  -6.52109E+2   2.51401E+3
  -1.33198E+2   2.95874E+0
   9.05727E+2   2.49077E+3
   1.73833E+2  -6.56243E+2
  -1.39631E+3  -6.63996E+2
  -9.38932E+2  -1.23561E+3
  -9.50528E+2   9.24804E+2
   4.45729E+2   1.15921E+3
  -1.59767E+3   1.53942E+3
   5.20717E+1  -2.20035E+3
  -6.88155E+2  -1.64033E+3
   1.78198E+3   7.46482E+2
   5.74098E+2   9.77659E+2
  -2.31469E+3   2.31344E+3
  -3.53141E+3   7.45682E+2
  -2.24423E+3  -2.23052E+3
   1.46030E+3  -8.18027E+2
  -2.18956E+3  -7.77097E+2
  -1.55592E+3  -9.28720E+2
  -9.30419E+2  -1.70391E+3
   2.71536E+3   1.25137E+3
  -1.74722E+2   3.35015E+3
  -4.98679E+3   9.70524E+2
  -1.08197E+2  -2.08407E+3
   1.69675E+3  -8.15405E+2
   1.87228E+3   6.93867E+2
   1.91582E+3   1.82805E+3
  -3.37918E+3  -7.49244E+2
  -4.53495E+2  -1.19258E+3
   1.76717E+3  -1.22763E+3
   1.68583E+3  -5.18660E+2
   2.44068E+3   2.15242E+3
   1.41292E+3   3.25866E+2
   1.82580E+3  -4.32418E+2
  -7.87183E+2   1.97019E+3
  -3.74334E+2   3.25336E+3
  -1.57094E+3   7.81011E+2
  -2.00379E+3  -2.31827E+2
   5.57920E+2   1.24263E+2
  -4.15535E+2   4.81994E+2
   1.87284E+2  -4.78420E+2
  -1.59082E+2  -1.38871E+3
   2.13025E+2   1.74828E+3
   6.13559E+2   1.55973E+3
  -9.29361E+2   5.39474E+2
  -2.84672E+3  -9.93247E+2
  -1.16654E+3  -6.26062E+2
   2.02073E+3  -2.15062E+3
   1.47781E+3  -1.17439E+3
  -1.78201E+3  -5.25587E+2
  -1.34246E+3  -1.07069E+2
   6.73193E+2  -1.81542E+3
   1.87331E+3  -2.71762E+3
  -1.23082E+3   9.48698E+1
  -3.44075E+2  -1.43484E+3
   1.78712E+3  -1.97184E+3
   1.10389E+3   5.86907E+2
  -1.64841E+2  -2.18829E+1
  -1.45683E+3   2.26850E+2
  -1.40480E+3  -2.81124E+3
   4.88540E+2  -4.68582E+2
   2.32649E+3  -7.28534E+2
  -9.45529E+2  -5.70141E+2
  -2.79335E+3   9.38258E+2
  -1.70463E+3  -1.11131E+3
  -9.75960E+2   9.56526E+2
  -3.13440E+3  -4.38723E+2
   9.21401E+1  -4.44066E+2
   1.56735E+2  -2.35933E+3
   5.99232E+2  -8.54672E+2
   9.93191E+2  -4.68363E+2
   1.53146E+3   1.10239E+3
  -2.90860E+1  -1.11759E+3
  -1.56506E+3  -1.68248E+3
  -7.10026E+2   3.09493E+2
  -2.24013E+3  -9.01388E+2
   1.12504E+3  -5.88696E+2
   4.59325E+2   1.37909E+3
   6.21993E+2   4.45045E+2
  -6.08516E+2  -5.87793E+1
   1.63853E+3   4.42413E+2
  -1.22364E+1   9.53877E+2
   6.71609E+2  -1.91308E+3
  -6.79064E+1  -1.26409E+3
   1.16770E+3   1.45370E+3
  -9.89470E+2   3.65440E+2
   8.70566E+2  -1.06974E+3
  -2.98311E+1   5.90492E+2
   1.07828E+3   6.28493E+2
  -3.98472E+2   1.39415E+3
   5.47166E+2  -1.18698E+3
  -5.77830E+2  -2.37908E+3
  -5.77497E+2  -1.75983E+3
   3.96161E+2  -7.24179E+1
  -6.26876E+2   5.64639E+2
  -1.09313E+3  -3.55593E+2
   1.52699E+2  -9.13120E+2
   1.68804E+3   5.44417E+2
   1.43432E+3  -3.94906E+2
   2.10913E+3   1.28403E+3
  -4.81217E+2   4.18073E+2
   1.22365E+3  -8.55157E+2
  -1.51217E+3   1.00634E+3
  -4.85536E+2   1.36431E+3
  -1.46444E+3   6.17173E+2
  -1.53094E+2   5.72125E+1
  -1.14701E+3  -8.74566E+0
  -1.53247E+2   5.67969E+2
  -5.02962E+1   7.93334E+2
  -1.39126E+3  -5.01206E+1
   8.46898E+2  -6.18737E+0
  -8.41661E+2   1.25494E+3
   2.29421E+3   4.52218E+2
   6.20424E+2   1.97122E+3
   2.15861E+3  -7.95641E+2
   1.35888E+3   1.04171E+3
  -2.16729E+2  -4.54780E+2
   4.64002E+2  -8.60495E+2
  -1.59357E+3  -1.51993E+3
   7.24415E+2   5.97368E+2
   1.49372E+3   1.35735E+3
  -4.36011E+2  -8.73652E+2
  -5.01662E+2  -1.76452E+2
   4.48050E+2   6.48485E+2
   2.23830E+3   7.27970E+2
   1.64449E+3   3.20768E+2
  -2.78832E+2   4.85418E+2
   7.58119E+1  -9.35777E+2
   7.69680E+2  -1.02516E+3
  -9.97392E+2   4.48164E+2
   4.91160E+2  -1.08353E+3
  -1.63782E+3   5.20529E+2
   5.05428E+2  -1.61972E+3
  -3.87382E+2   7.32028E+2
   9.44746E+2  -5.22975E+1
   1.21764E+3  -3.40708E+2
  -1.30916E+3  -8.79915E+1
   5.52074E+2   7.64233E+2
   2.09350E+2  -3.74098E+2
   2.86734E+2  -4.22816E+2
  -6.60017E+1   1.38042E+3
  -8.30620E+2   8.60842E+2
  -1.89367E+2  -8.47418E+2
  -4.01123E+2   1.67720E+3
  -1.36215E+3   9.53429E+1
   4.41939E+2  -2.16396E+3
   2.44414E+3   6.16250E+2
  -1.37449E+3  -3.83070E+2
   2.41923E+3   3.92461E+2
  -2.00417E+2   1.33565E+3
   1.25765E+3  -2.21117E+3
   1.65724E+3  -7.36335E+2
  -1.06915E+3  -4.47310E+2
  -3.87165E+2  -2.08657E+3
  -4.06859E+2   1.48314E+3
  -1.27814E+2  -2.46483E+2
   1.56169E+3  -1.48940E+3
  -8.00866E+2  -1.60195E+2
  -7.23484E+2  -2.17246E+3
  -4.51915E+2  -8.48512E+2
   1.57261E+3  -1.65869E+3
  -1.11206E+3  -1.24901E+3
  -2.29803E+3  -1.32494E+3
  -6.97547E+2   7.19079E+2
  -2.56353E+0   1.29274E+3
  -8.91015E+2  -3.10482E+3
  -8.35008E+1   7.38596E+2
  -8.00157E+1  -2.05294E+2
  -4.07257E+2  -1.27884E+3
   7.21517E+2   8.00411E+1
   6.22831E+2   4.43942E+2
   2.42597E+3   4.18012E+2
   2.03915E+3  -1.64637E+2
   7.12529E+1   9.31557E+2
   3.42847E+2  -5.63467E+2
  -9.07229E+2   4.95235E+2
   7.55286E+1  -2.38714E+3
  -1.94570E+3  -1.42265E+3
   3.45659E+2  -1.25461E+3
  -2.68269E+2  -1.45401E+3
   7.52857E+2  -1.43935E+3
  -2.56519E+3   8.88394E+2
   3.57110E+3  -3.10561E+2
  -7.01962E+2   2.06889E+2
  -1.68916E+3  -1.88411E+3
   6.72915E+2  -1.21118E+3
   1.21866E+2  -1.68630E+3
   1.85256E+2  -1.07405E+3
   4.65295E+2   7.52415E+2
   4.29756E+2  -2.61765E+2
  -8.13971E+2   1.95977E+1
  -5.42384E+2  -2.00812E+3
   8.04825E+2  -2.26470E+2
  -1.15171E+3   3.00742E+2
  -9.72502E+1  -2.10274E+3
   2.84065E+2  -1.07906E+3
   1.20149E+3  -2.74508E+2
   6.69219E+2  -1.07824E+2
   3.64755E+2   1.06175E+3
   3.51400E+2  -3.78811E+2
  -1.23523E+3   3.70211E+2
   6.42814E+2  -1.22922E+2
  -1.17574E+2  -2.44896E+2
  -1.34042E+3  -4.38307E+2
   1.07392E+3   9.23775E+2
  -6.09681E+2   1.26913E+3
   6.75404E+2  -1.26796E+3
   1.09662E+3  -7.46811E+2
   1.41282E+3   7.64163E+1
   6.49697E+2  -1.16311E+2
  -4.78656E+2   1.76109E+2
   1.58383E+3   4.50176E+2
  -1.11193E+3   2.85866E+2
  -1.81091E+3  -1.17723E+3
   4.10356E+2  -6.98457E+2
  -8.35434E+2  -1.07936E+3
   1.07207E+3  -5.91842E+2
   1.19762E+2   1.05419E+3
   2.32681E+2  -3.05443E+2
   2.44897E+2  -2.57992E+3
  -6.56010E+2  -2.13493E+2
  -2.38823E+3  -2.27226E+2
   8.21878E+2  -1.57856E+3
   6.62736E+2   1.85725E+3
  -1.36242E+3   8.16799E+2
  -2.01745E+3   6.23679E+2
  -4.11932E+2   2.42969E+2
  -1.21187E+2   1.15545E+3
   1.00491E+3   9.80597E+2
  -1.01100E+3  -7.25398E+2
   1.58186E+2   1.92061E+3
  -3.19664E+2   4.17050E+1
   1.27279E+3  -2.08422E+3
  -3.90656E+2   2.70392E+2
   1.01658E+3   2.13622E+2
  -8.91820E+2  -7.79672E+2
   8.81664E+1   4.36392E+2
   1.66391E+3   6.19066E+1
   6.83936E+2  -3.21696E+1
  -6.31401E+2   9.33517E+1
   1.63004E+3  -3.38366E+1
  -5.12052E+2   1.96736E+3
   1.66278E+3  -3.04465E+2
   1.11365E+3   1.01243E+3
  -9.22627E+2   6.98885E+2
  -1.32267E+3  -5.53085E+2
   1.12264E+3   1.41269E+2
  -5.31097E+2   1.29119E+3
   1.86067E+3   1.40860E+3
   1.52077E+2   1.45949E+3
   8.70203E+2   1.33438E+3
  -1.22709E+3  -1.72572E+3
  -5.38828E+2  -4.43649E+2
   1.39510E+3   4.74394E+2
  -7.68385E+2  -4.00320E+2
  -3.41734E+2  -1.82530E+2
  -1.26553E+3   1.75113E+3
   1.20781E+3   1.04393E+3
  -6.74986E+2   4.56168E+2
   1.84613E+3   1.17567E+3
   9.34469E+1  -1.22432E+3
   8.85001E+2  -1.02403E+3
   2.13101E+2   2.13937E+2
   1.15752E+3   1.35009E+3
   9.69607E+2   9.19579E+2
  -8.46255E+1   6.26454E+2
  -3.64172E+2  -1.58169E+3
   1.12822E+3   1.30472E+2
   9.29984E+2  -9.03135E+1
   2.26659E+3   9.54577E+2
   7.41512E+1  -7.49621E+2
  -2.89028E+2   2.21384E+2
  -4.73408E+2   9.82519E+2
   1.64585E+2   4.94220E+2
   1.05897E+3  -1.81447E+2
   7.70298E+2   1.22698E+3
  -1.73538E+3   3.91823E+2
   9.24570E+2   8.28285E+2
   1.77237E+3   1.56385E+3
   1.61717E+3  -2.69266E+2
  -6.13236E+2  -8.46548E+2
   6.37071E+2   3.46618E+2
   9.64063E+2   1.52442E+2
   2.50519E+2   4.82815E+2
   1.32790E+3   1.17231E+3
  -9.73443E+2  -9.99111E+2
  -1.86099E+2   7.14944E+2
   1.51931E+3   6.74401E+2
   2.39850E+2  -1.88781E+3
   8.62332E+0  -4.13120E+2
  -4.37216E+1  -1.71353E+3
  -5.22165E+1   2.27576E+3
   1.57747E+3   6.56248E+2
  -4.57614E+2  -9.09067E+2
