 
 $NMID
 ID=''
 FMTDAT='(2E13.5)'
 TRAMP=   1.00000E+0
 VOLUME=   1.00000E+0
 $END
  -8.31106E+3   6.66054E+3
  -2.53626E+4   1.06580E+4
  -2.33365E+4   1.53842E+4
  -2.16200E+4   1.45439E+4
  -2.29037E+4   1.46737E+4
  -2.22312E+4   1.59071E+4
  -2.13972E+4   1.53902E+4
  -2.18950E+4   1.52756E+4
  -2.13410E+4   1.60200E+4
  -2.06802E+4   1.57043E+4
  -2.08667E+4   1.56498E+4
  -2.02655E+4   1.62014E+4
  -1.96525E+4   1.61120E+4
  -1.98320E+4   1.60456E+4
  -1.93793E+4   1.64285E+4
  -1.87488E+4   1.64107E+4
  -1.87337E+4   1.64428E+4
  -1.83877E+4   1.68864E+4
  -1.79564E+4   1.68933E+4
  -1.79944E+4   1.68788E+4
  -1.75054E+4   1.71459E+4
  -1.71923E+4   1.72377E+4
  -1.72217E+4   1.74469E+4
  -1.69875E+4   1.74480E+4
  -1.65569E+4   1.74720E+4
  -1.64325E+4   1.74073E+4
  -1.62997E+4   1.75531E+4
  -1.60482E+4   1.73708E+4
  -1.58538E+4   1.73371E+4
  -1.54976E+4   1.73309E+4
  -1.50446E+4   1.72872E+4
  -1.47963E+4   1.72755E+4
  -1.45600E+4   1.73276E+4
  -1.41441E+4   1.72399E+4
  -1.38076E+4   1.73277E+4
  -1.35004E+4   1.74385E+4
  -1.30510E+4   1.74431E+4
  -1.27134E+4   1.75267E+4
  -1.23898E+4   1.77353E+4
  -1.21054E+4   1.78086E+4
  -1.19142E+4   1.77900E+4
  -1.18315E+4   1.79078E+4
  -1.16323E+4   1.78421E+4
  -1.14307E+4   1.77251E+4
  -1.11881E+4   1.76893E+4
  -1.09679E+4   1.76814E+4
  -1.07183E+4   1.76945E+4
  -1.05859E+4   1.77398E+4
  -1.03925E+4   1.76183E+4
  -1.02748E+4   1.75454E+4
  -9.95992E+3   1.74555E+4
  -9.79974E+3   1.74212E+4
  -9.49794E+3   1.72595E+4
  -9.23309E+3   1.71717E+4
  -9.08300E+3   1.71026E+4
  -8.87834E+3   1.70147E+4
  -8.67678E+3   1.69097E+4
  -8.50721E+3   1.67715E+4
  -8.26331E+3   1.65808E+4
  -7.98401E+3   1.64924E+4
  -7.77727E+3   1.64070E+4
  -7.54034E+3   1.62684E+4
  -7.34193E+3   1.61839E+4
  -7.14853E+3   1.60560E+4
  -6.90525E+3   1.58933E+4
  -6.73197E+3   1.58314E+4
  -6.40830E+3   1.57277E+4
  -6.24354E+3   1.56704E+4
  -6.06846E+3   1.54931E+4
  -5.78614E+3   1.53463E+4
  -5.55765E+3   1.52102E+4
  -5.32224E+3   1.50733E+4
  -5.20338E+3   1.49579E+4
  -4.91420E+3   1.48930E+4
  -4.67239E+3   1.47689E+4
  -4.35539E+3   1.46176E+4
  -4.10702E+3   1.45980E+4
  -4.05598E+3   1.45213E+4
  -3.80451E+3   1.43615E+4
  -3.57089E+3   1.43692E+4
  -3.34269E+3   1.42812E+4
  -3.12727E+3   1.42252E+4
  -3.00105E+3   1.40880E+4
  -2.75293E+3   1.40105E+4
  -2.66055E+3   1.39326E+4
  -2.45459E+3   1.38538E+4
  -2.31423E+3   1.37266E+4
  -2.10078E+3   1.36888E+4
  -1.87909E+3   1.35785E+4
  -1.76428E+3   1.35316E+4
  -1.56418E+3   1.35555E+4
  -1.43077E+3   1.33435E+4
  -1.28598E+3   1.33874E+4
  -1.07791E+3   1.33003E+4
  -8.76569E+2   1.32044E+4
  -7.62320E+2   1.31334E+4
  -6.06929E+2   1.30381E+4
  -4.43961E+2   1.30339E+4
  -3.38386E+2   1.29553E+4
  -2.26726E+2   1.28429E+4
  -5.72327E+1   1.28122E+4
   1.06636E+2   1.26478E+4
   3.43078E+2   1.26120E+4
   4.58908E+2   1.25699E+4
   5.61704E+2   1.24948E+4
   7.16055E+2   1.23533E+4
   8.98275E+2   1.23684E+4
   9.97768E+2   1.22566E+4
   1.11077E+3   1.21713E+4
   1.25052E+3   1.20385E+4
   1.39612E+3   1.20386E+4
   1.60262E+3   1.19926E+4
   1.62028E+3   1.19882E+4
   1.79649E+3   1.18546E+4
   1.91978E+3   1.17966E+4
   1.98506E+3   1.17134E+4
   2.11674E+3   1.16836E+4
   2.20172E+3   1.16423E+4
   2.34462E+3   1.14830E+4
   2.46903E+3   1.14979E+4
   2.53494E+3   1.14118E+4
   2.59841E+3   1.13637E+4
   2.64365E+3   1.13565E+4
   2.71887E+3   1.11551E+4
   2.87435E+3   1.10972E+4
   2.99957E+3   1.10886E+4
   3.02346E+3   1.09780E+4
   3.11302E+3   1.08443E+4
   3.14734E+3   1.08023E+4
   3.23613E+3   1.07608E+4
   3.31520E+3   1.06524E+4
   3.38998E+3   1.05795E+4
   3.44756E+3   1.05357E+4
   3.49834E+3   1.04614E+4
   3.49412E+3   1.03531E+4
   3.54482E+3   1.03299E+4
   3.58618E+3   1.02297E+4
   3.68320E+3   1.01394E+4
   3.72514E+3   1.00269E+4
   3.78118E+3   9.95018E+3
   3.73942E+3   9.83726E+3
   3.77590E+3   9.74932E+3
   3.90962E+3   9.70555E+3
   3.93650E+3   9.57039E+3
   3.93175E+3   9.47539E+3
   3.94676E+3   9.37380E+3
   3.95680E+3   9.21671E+3
   3.99252E+3   9.16494E+3
   4.03240E+3   8.99627E+3
   4.09027E+3   8.99003E+3
   4.11481E+3   8.90073E+3
   4.14267E+3   8.79941E+3
   4.12820E+3   8.67615E+3
   4.17387E+3   8.49014E+3
   4.16638E+3   8.48253E+3
   4.27495E+3   8.35145E+3
   4.30923E+3   8.29347E+3
   4.31902E+3   8.15379E+3
   4.30769E+3   8.06775E+3
   4.30271E+3   7.96262E+3
   4.41112E+3   7.89204E+3
   4.41318E+3   7.75451E+3
   4.38829E+3   7.61696E+3
   4.42382E+3   7.52188E+3
   4.46022E+3   7.49111E+3
   4.41588E+3   7.34579E+3
   4.46832E+3   7.30810E+3
   4.51411E+3   7.17329E+3
   4.54403E+3   7.02486E+3
   4.57451E+3   6.97288E+3
   4.60841E+3   6.87668E+3
   4.69321E+3   6.76217E+3
   4.55591E+3   6.62429E+3
   4.63116E+3   6.50390E+3
   4.66837E+3   6.38184E+3
   4.66510E+3   6.34325E+3
   4.64576E+3   6.22239E+3
   4.73550E+3   6.09876E+3
   4.78289E+3   6.05174E+3
   4.71948E+3   5.97567E+3
   4.68737E+3   5.83119E+3
   4.73327E+3   5.73030E+3
   4.73648E+3   5.64157E+3
   4.70751E+3   5.67010E+3
   4.75275E+3   5.46769E+3
   4.76834E+3   5.48306E+3
   4.76385E+3   5.36293E+3
   4.81939E+3   5.24578E+3
   4.81395E+3   5.13221E+3
   4.74302E+3   5.04625E+3
   4.72301E+3   4.99502E+3
   4.81828E+3   4.83652E+3
   4.82471E+3   4.79139E+3
   4.83864E+3   4.67542E+3
   4.83452E+3   4.62918E+3
   4.76520E+3   4.54463E+3
   4.78606E+3   4.44164E+3
   4.84825E+3   4.39447E+3
   4.74709E+3   4.32001E+3
   4.79748E+3   4.23580E+3
   4.83992E+3   4.18373E+3
   4.77251E+3   4.12453E+3
   4.74597E+3   4.02079E+3
   4.75521E+3   3.94258E+3
   4.69686E+3   3.79844E+3
   4.74092E+3   3.81079E+3
   4.68307E+3   3.66697E+3
   4.71326E+3   3.67205E+3
   4.70657E+3   3.51865E+3
   4.77821E+3   3.48168E+3
   4.73395E+3   3.45666E+3
   4.60044E+3   3.41236E+3
   4.65759E+3   3.31398E+3
   4.64513E+3   3.19722E+3
   4.64600E+3   3.17134E+3
   4.61080E+3   3.06901E+3
   4.64459E+3   3.04411E+3
   4.56386E+3   2.98284E+3
   4.50643E+3   2.81145E+3
   4.59999E+3   2.78725E+3
   4.55892E+3   2.70039E+3
   4.51902E+3   2.69842E+3
   4.55655E+3   2.57331E+3
   4.52911E+3   2.62623E+3
   4.51001E+3   2.49939E+3
   4.53611E+3   2.46422E+3
   4.50727E+3   2.42384E+3
   4.42611E+3   2.38355E+3
   4.46380E+3   2.24164E+3
   4.40750E+3   2.25309E+3
   4.39422E+3   2.15852E+3
   4.37419E+3   2.08920E+3
   4.39687E+3   2.10916E+3
   4.34373E+3   2.03350E+3
   4.35413E+3   1.97437E+3
   4.40971E+3   1.86545E+3
   4.32855E+3   1.88329E+3
   4.34915E+3   1.75911E+3
   4.36910E+3   1.76193E+3
   4.19143E+3   1.68576E+3
   4.30355E+3   1.65806E+3
   4.27388E+3   1.65214E+3
   4.26213E+3   1.52510E+3
   4.21312E+3   1.50588E+3
   4.26728E+3   1.44916E+3
   4.22307E+3   1.41373E+3
   4.23284E+3   1.36239E+3
   4.17773E+3   1.34874E+3
   4.13330E+3   1.25375E+3
   4.13964E+3   1.26773E+3
   4.09955E+3   1.17237E+3
   4.04055E+3   1.16654E+3
   4.08142E+3   1.14601E+3
   4.04152E+3   1.13754E+3
   4.04572E+3   1.01674E+3
   4.01151E+3   9.82152E+2
   3.99458E+3   9.94611E+2
   4.06634E+3   8.52317E+2
   3.96275E+3   8.13865E+2
   3.98661E+3   8.72790E+2
   3.86567E+3   8.14791E+2
   3.91803E+3   7.74731E+2
   3.89234E+3   6.69060E+2
   3.89438E+3   6.94508E+2
   3.88524E+3   6.36770E+2
   3.79044E+3   6.12349E+2
   3.79161E+3   5.82490E+2
   3.67407E+3   4.82782E+2
   3.80163E+3   5.07016E+2
   3.73303E+3   4.70466E+2
   3.74196E+3   4.04080E+2
   3.70635E+3   3.47581E+2
   3.73105E+3   2.99198E+2
   3.70002E+3   2.84712E+2
   3.62488E+3   2.44632E+2
   3.64731E+3   2.70636E+2
   3.60887E+3   1.72371E+2
   3.59089E+3   2.13064E+2
   3.56885E+3   2.29189E+2
   3.52499E+3   1.27273E+2
   3.48892E+3   8.81469E+1
   3.48508E+3   6.64827E+1
   3.48286E+3   6.61527E+1
   3.47968E+3   3.19856E+0
   3.42162E+3  -5.95225E+1
   3.44255E+3  -1.24776E+2
   3.40313E+3  -4.49444E+1
   3.34705E+3  -7.54332E+1
   3.44998E+3  -1.68497E+2
   3.36599E+3  -1.35212E+2
   3.35365E+3  -2.34844E+2
   3.35294E+3  -2.43795E+2
   3.28126E+3  -2.66643E+2
   3.35821E+3  -2.86241E+2
   3.22792E+3  -2.83818E+2
   3.30146E+3  -2.51032E+2
   3.22331E+3  -3.03862E+2
   3.21176E+3  -2.80379E+2
   3.23062E+3  -3.26624E+2
   3.13308E+3  -3.91570E+2
   3.17277E+3  -4.42229E+2
   3.17679E+3  -3.74876E+2
   3.11869E+3  -4.13856E+2
   3.04771E+3  -4.81888E+2
   3.07941E+3  -5.32755E+2
   2.99799E+3  -4.93798E+2
   3.02793E+3  -5.21995E+2
   2.94036E+3  -5.22159E+2
   2.94721E+3  -5.84040E+2
   2.91737E+3  -6.08737E+2
   2.86315E+3  -5.58842E+2
   2.88465E+3  -6.78830E+2
   2.86210E+3  -6.77721E+2
   2.86531E+3  -7.05686E+2
   2.79298E+3  -6.96616E+2
   2.77849E+3  -7.24468E+2
   2.77238E+3  -7.14209E+2
   2.78909E+3  -8.35336E+2
   2.78207E+3  -7.72394E+2
   2.75860E+3  -7.92859E+2
   2.70524E+3  -7.98146E+2
   2.68074E+3  -8.31910E+2
   2.65906E+3  -8.76152E+2
   2.61528E+3  -8.64919E+2
   2.59723E+3  -8.40890E+2
   2.50661E+3  -9.38482E+2
   2.55299E+3  -9.34184E+2
   2.58750E+3  -8.68360E+2
   2.48696E+3  -9.77455E+2
   2.48326E+3  -9.61500E+2
   2.49626E+3  -1.02044E+3
   2.46915E+3  -9.99656E+2
   2.42630E+3  -9.71859E+2
   2.39789E+3  -1.00419E+3
   2.37385E+3  -1.08377E+3
   2.31559E+3  -1.02576E+3
   2.37795E+3  -1.02222E+3
   2.27670E+3  -1.04781E+3
   2.33993E+3  -1.05147E+3
   2.23937E+3  -1.13413E+3
   2.22522E+3  -1.15918E+3
   2.27879E+3  -1.04682E+3
   2.22062E+3  -1.14365E+3
   2.20473E+3  -1.16589E+3
   2.13822E+3  -1.16239E+3
   2.18239E+3  -1.18735E+3
   2.12458E+3  -1.18404E+3
   2.07893E+3  -1.23617E+3
   2.02674E+3  -1.22761E+3
   2.04853E+3  -1.26961E+3
   2.00923E+3  -1.22755E+3
   1.99801E+3  -1.27499E+3
   2.05291E+3  -1.27565E+3
   1.89035E+3  -1.27597E+3
   1.94875E+3  -1.22226E+3
   1.87382E+3  -1.31604E+3
   1.90412E+3  -1.25752E+3
   1.84988E+3  -1.34854E+3
   1.89005E+3  -1.21711E+3
   1.80207E+3  -1.29456E+3
   1.79354E+3  -1.30698E+3
   1.83067E+3  -1.34861E+3
   1.79774E+3  -1.41347E+3
   1.76656E+3  -1.40103E+3
   1.69147E+3  -1.38797E+3
   1.70406E+3  -1.38021E+3
   1.62882E+3  -1.42116E+3
