 LCModel (Version 6.3-1N) Copyright: S.W. Provencher.          Ref.: Magn. Reson. Med. 30:672-679 (1993).                
 Slice_N1@16_21  02-Jun-2023 14:37:23
 27 lines in following concentration table = NCONC+1
    Conc.  %SD /Cr+PCr  Metabolite                                         
 1.58E-06  23% 2.2E-04 Mac                                                 
 3.86E-02  29%   5.257 Cr                                                  
 2.01E-02  57%   2.743 PCr                                                 
 9.18E-02  10%  12.513 Ins                                                 
 9.00E-02   8%  12.274 NAA                                                 
 6.96E-02  12%   9.490 Tau                                                 
 1.35E-02  15%   1.841 PCho                                                
    0.000 999%   0.000 GPC                                                 
 8.07E-02  12%  11.000 Glu                                                 
 2.66E-02  28%   3.626 Gln                                                 
    0.000 999%   0.000 Ala                                                 
 1.67E-04 999% 2.3E-02 Asc                                                 
 8.28E-03  88%   1.129 Asp                                                 
 1.18E-02  33%   1.606 GABA                                                
 7.13E-03  66%   0.972 Glc                                                 
 1.29E-02  33%   1.765 GSH                                                 
 1.05E-02  72%   1.433 Lac                                                 
 9.58E-03  51%   1.306 NAAG                                                
    0.000 999%   0.000 PE                                                  
 1.35E-02  15%   1.841 GPC+PCho                                            
    0.100   8%  13.579 NAA+NAAG                                            
    0.107  11%  14.625 Glu+Gln                                             
 5.87E-02  10%   8.000 Cr+PCr                                              
    0.100   8%  13.579 NAA+NAAG                                            
 5.87E-02  10%   8.000 Cr+PCr                                              
    0.107  11%  14.625 Glu+Gln                                             
   6 lines in following misc. output table
  FWHM = 0.023 ppm    S/N =   4                                            
  Data shift = 0.006 ppm                                                   
  Ph:  -8 deg     -12.4 deg/ppm                                            
  alphaB,S = 1.6E+01,   1.4E+01                                            
   18 spline knots.   Ns = 5(1)                                            
  ( 3) 2 infls.   ( 1) 1 extrs.                                            
  654 points on ppm-axis = NY
      4.000000     3.994181     3.988363     3.982544     3.976726     3.970907     3.965088     3.959270     3.953451     3.947633
      3.941814     3.935995     3.930177     3.924358     3.918540     3.912721     3.906902     3.901084     3.895265     3.889446
      3.883628     3.877809     3.871991     3.866172     3.860353     3.854535     3.848716     3.842898     3.837079     3.831260
      3.825442     3.819623     3.813805     3.807986     3.802167     3.796349     3.790530     3.784712     3.778893     3.773074
      3.767256     3.761437     3.755619     3.749800     3.743981     3.738163     3.732344     3.726526     3.720707     3.714888
      3.709070     3.703251     3.697433     3.691614     3.685795     3.679977     3.674158     3.668339     3.662521     3.656702
      3.650884     3.645065     3.639246     3.633428     3.627609     3.621791     3.615972     3.610153     3.604335     3.598516
      3.592698     3.586879     3.581060     3.575242     3.569423     3.563605     3.557786     3.551967     3.546149     3.540330
      3.534512     3.528693     3.522874     3.517056     3.511237     3.505419     3.499600     3.493781     3.487963     3.482144
      3.476326     3.470507     3.464688     3.458870     3.453051     3.447232     3.441414     3.435595     3.429777     3.423958
      3.418139     3.412321     3.406502     3.400684     3.394865     3.389046     3.383228     3.377409     3.371591     3.365772
      3.359953     3.354135     3.348316     3.342498     3.336679     3.330860     3.325042     3.319223     3.313405     3.307586
      3.301767     3.295949     3.290130     3.284312     3.278493     3.272674     3.266856     3.261037     3.255219     3.249400
      3.243581     3.237763     3.231944     3.226125     3.220307     3.214488     3.208670     3.202851     3.197032     3.191214
      3.185395     3.179577     3.173758     3.167939     3.162121     3.156302     3.150484     3.144665     3.138846     3.133028
      3.127209     3.121391     3.115572     3.109753     3.103935     3.098116     3.092298     3.086479     3.080660     3.074842
      3.069023     3.063205     3.057386     3.051567     3.045749     3.039930     3.034111     3.028293     3.022474     3.016656
      3.010837     3.005018     2.999200     2.993381     2.987563     2.981744     2.975925     2.970107     2.964288     2.958470
      2.952651     2.946832     2.941014     2.935195     2.929377     2.923558     2.917739     2.911921     2.906102     2.900284
      2.894465     2.888646     2.882828     2.877009     2.871191     2.865372     2.859553     2.853735     2.847916     2.842098
      2.836279     2.830460     2.824642     2.818823     2.813004     2.807186     2.801367     2.795549     2.789730     2.783911
      2.778093     2.772274     2.766456     2.760637     2.754818     2.749000     2.743181     2.737363     2.731544     2.725725
      2.719907     2.714088     2.708270     2.702451     2.696632     2.690814     2.684995     2.679177     2.673358     2.667539
      2.661721     2.655902     2.650084     2.644265     2.638446     2.632628     2.626809     2.620991     2.615172     2.609353
      2.603535     2.597716     2.591897     2.586079     2.580260     2.574442     2.568623     2.562804     2.556986     2.551167
      2.545349     2.539530     2.533711     2.527893     2.522074     2.516256     2.510437     2.504618     2.498800     2.492981
      2.487163     2.481344     2.475525     2.469707     2.463888     2.458070     2.452251     2.446432     2.440614     2.434795
      2.428977     2.423158     2.417339     2.411521     2.405702     2.399884     2.394065     2.388246     2.382428     2.376609
      2.370790     2.364972     2.359153     2.353335     2.347516     2.341697     2.335879     2.330060     2.324242     2.318423
      2.312604     2.306786     2.300967     2.295149     2.289330     2.283511     2.277693     2.271874     2.266056     2.260237
      2.254418     2.248600     2.242781     2.236963     2.231144     2.225325     2.219507     2.213688     2.207870     2.202051
      2.196232     2.190414     2.184595     2.178777     2.172958     2.167139     2.161321     2.155502     2.149683     2.143865
      2.138046     2.132228     2.126409     2.120590     2.114772     2.108953     2.103135     2.097316     2.091497     2.085679
      2.079860     2.074042     2.068223     2.062404     2.056586     2.050767     2.044949     2.039130     2.033311     2.027493
      2.021674     2.015856     2.010037     2.004218     1.998400     1.992581     1.986763     1.980944     1.975126     1.969307
      1.963489     1.957670     1.951852     1.946033     1.940215     1.934397     1.928578     1.922760     1.916941     1.911123
      1.905304     1.899486     1.893667     1.887849     1.882030     1.876212     1.870393     1.864575     1.858756     1.852938
      1.847119     1.841301     1.835482     1.829664     1.823845     1.818027     1.812208     1.806390     1.800571     1.794753
      1.788934     1.783116     1.777297     1.771479     1.765660     1.759842     1.754023     1.748205     1.742386     1.736568
      1.730749     1.724931     1.719113     1.713294     1.707476     1.701657     1.695839     1.690020     1.684202     1.678383
      1.672565     1.666746     1.660928     1.655109     1.649291     1.643472     1.637654     1.631835     1.626017     1.620198
      1.614380     1.608561     1.602743     1.596924     1.591106     1.585287     1.579469     1.573650     1.567832     1.562013
      1.556195     1.550376     1.544558     1.538739     1.532921     1.527102     1.521284     1.515465     1.509647     1.503829
      1.498010     1.492192     1.486373     1.480555     1.474736     1.468918     1.463099     1.457281     1.451462     1.445644
      1.439825     1.434007     1.428188     1.422370     1.416551     1.410733     1.404914     1.399096     1.393277     1.387459
      1.381640     1.375822     1.370003     1.364185     1.358366     1.352548     1.346729     1.340911     1.335092     1.329274
      1.323455     1.317637     1.311818     1.306000     1.300182     1.294363     1.288545     1.282726     1.276908     1.271089
      1.265271     1.259452     1.253634     1.247815     1.241997     1.236178     1.230360     1.224541     1.218723     1.212904
      1.207086     1.201267     1.195449     1.189630     1.183812     1.177993     1.172175     1.166356     1.160538     1.154719
      1.148901     1.143082     1.137264     1.131445     1.125627     1.119808     1.113990     1.108171     1.102353     1.096534
      1.090716     1.084898     1.079079     1.073261     1.067442     1.061624     1.055805     1.049987     1.044168     1.038350
      1.032531     1.026713     1.020894     1.015076     1.009257     1.003439     0.997620     0.991802     0.985983     0.980165
      0.974346     0.968528     0.962709     0.956891     0.951072     0.945254     0.939435     0.933617     0.927798     0.921980
      0.916161     0.910343     0.904524     0.898706     0.892887     0.887069     0.881251     0.875432     0.869614     0.863795
      0.857977     0.852158     0.846340     0.840521     0.834703     0.828884     0.823066     0.817247     0.811429     0.805610
      0.799792     0.793973     0.788155     0.782336     0.776518     0.770699     0.764881     0.759062     0.753244     0.747425
      0.741607     0.735788     0.729970     0.724151     0.718333     0.712514     0.706696     0.700877     0.695059     0.689240
      0.683422     0.677603     0.671785     0.665967     0.660148     0.654330     0.648511     0.642693     0.636874     0.631056
      0.625237     0.619419     0.613600     0.607782     0.601963     0.596145     0.590326     0.584508     0.578689     0.572871
      0.567052     0.561234     0.555415     0.549597     0.543778     0.537960     0.532141     0.526323     0.520504     0.514686
      0.508867     0.503049     0.497230     0.491412     0.485593     0.479775     0.473956     0.468138     0.462319     0.456501
      0.450682     0.444864     0.439045     0.433227     0.427408     0.421590     0.415771     0.409953     0.404134     0.398316
      0.392497     0.386679     0.380860     0.375042     0.369223     0.363405     0.357586     0.351767     0.345949     0.340130
      0.334312     0.328493     0.322675     0.316856     0.311038     0.305219     0.299401     0.293582     0.287764     0.281945
      0.276127     0.270308     0.264490     0.258671     0.252853     0.247034     0.241216     0.235397     0.229579     0.223760
      0.217942     0.212123     0.206305     0.200486
 NY phased data points follow
  -2.00706E-01 -2.38954E-01 -6.37292E-02 -2.13447E-01 -1.51584E-01 -1.82060E-01 -1.34641E-01  2.19982E-02 -6.63853E-01 -4.49057E-01
   2.26983E-01  1.54644E-01  1.80062E-01  2.51489E-01  4.21549E-01  3.30526E-01  1.38778E-01 -2.33887E-02 -2.12304E-01 -7.71016E-02
   8.21712E-02 -1.37189E-01  5.08503E-01  3.47821E-01 -2.94651E-01 -5.33445E-02 -4.41144E-01 -2.72953E-01 -1.75728E-01 -2.22510E-01
   6.98844E-03  6.85247E-03 -1.84461E-02  2.00201E-01 -2.18255E-01 -2.58081E-01  1.96039E-01 -1.04601E-01  3.34371E-02 -1.59711E-03
   4.02217E-01  2.83803E-01  1.15408E-01  3.46166E-01  1.19885E-01  3.18948E-01  3.27252E-01  4.56336E-01  3.41044E-01  1.33056E-01
  -4.24628E-02 -5.99867E-02 -6.72664E-02 -1.23434E-01 -2.59073E-01 -1.86922E-01  6.04718E-02 -6.31467E-02  4.71206E-02 -4.84870E-01
  -4.63433E-01 -2.40228E-01 -4.21697E-01 -4.59481E-01 -3.95837E-01 -2.43018E-01 -2.32660E-01  5.44255E-01  1.76541E-01  9.57955E-02
   3.72565E-01  1.01752E-02  3.41144E-01  1.64126E-02 -1.61783E-01 -5.16138E-02  1.04863E-02 -3.37089E-01 -5.44408E-01 -5.24849E-01
  -6.07038E-01 -8.94973E-03 -1.22030E-01 -2.25097E-01  3.19912E-01  2.55080E-01  1.33537E-01  5.03811E-01  6.13494E-01  8.30653E-02
   1.90998E-01  5.01206E-01 -1.16426E-01  2.29899E-01  3.91859E-01  8.66796E-03 -1.04205E-01 -2.91209E-01 -8.66113E-02 -4.36364E-01
  -5.00980E-01 -9.40579E-02  2.78475E-01  2.23807E-02  3.65638E-01  8.99928E-01  3.66449E-01  5.85174E-01  5.48845E-01  3.38749E-01
   6.60604E-01  5.73727E-01  3.32202E-01  5.77441E-01  4.88602E-01  1.16492E-01  1.72549E-01  4.11443E-01  4.52985E-01  3.33073E-01
   3.06225E-01  3.25100E-01  1.94816E-02 -1.65560E-01  1.23820E-02 -2.35482E-01 -1.55662E-01 -1.30565E-01 -3.86783E-01 -2.97314E-01
  -3.82602E-01 -8.23010E-01 -5.84809E-01 -3.23954E-01 -2.17617E-01 -5.33758E-01 -1.00959E+00 -6.01827E-01 -6.45447E-01 -4.99622E-02
  -1.97745E-01 -2.34532E-01  1.35191E-01 -3.80726E-01 -2.84566E-01  3.77730E-02  3.08375E-01  4.89313E-02  1.60005E-01  1.75252E-01
   4.92855E-02  7.00979E-02  2.92274E-01  1.53725E-01  1.86654E-01  8.16446E-01  1.99404E-01 -1.30101E-01  3.30419E-01  2.57506E-01
   4.23735E-01  6.72658E-01  4.39153E-01  8.30653E-01  7.12794E-01  8.63318E-01  9.98614E-01 -1.89359E-01 -7.99017E-01 -7.60062E-01
  -5.10985E-01 -1.49352E-01 -4.86208E-01 -5.23679E-01 -2.32442E-01 -7.34617E-01 -3.71717E-01 -2.71220E-01 -2.87899E-01 -4.29152E-01
  -4.28486E-01 -2.39094E-01 -5.58668E-01 -2.72917E-01 -6.20185E-01 -4.50672E-01 -2.31555E-01 -1.06369E-01 -3.62029E-01 -2.61940E-01
  -2.24006E-02 -4.04801E-01  1.75577E-01 -2.89920E-01 -3.58344E-01 -2.01834E-01 -2.02488E-01  1.96207E-01 -3.38925E-01 -2.21375E-02
   1.60245E-01 -1.70355E-01 -1.00663E-01 -1.64991E-01 -1.20744E-02 -4.31268E-01 -2.52684E-01  8.19020E-02  1.18833E-01  2.72212E-01
  -1.21316E-01  1.07948E-01 -1.31126E-01 -3.75391E-01 -3.18322E-01 -1.63250E-01 -6.41931E-02 -2.28318E-01  1.55146E-01  6.52670E-02
   4.82991E-02  2.91960E-01  2.57126E-01  2.34219E-01  1.31134E-01  4.88193E-01  4.80259E-01  1.69095E-01  6.64796E-01  2.77615E-01
   2.92549E-01  4.14132E-01  3.88611E-02  7.51206E-02 -2.20236E-01  9.30511E-02 -1.20449E-01 -1.41508E-01 -1.21509E-02 -1.42683E-01
  -7.60430E-02 -9.95857E-02  5.45634E-02 -1.20911E-01 -3.33049E-02 -1.68639E-01 -1.53578E-01 -2.55914E-01 -4.21112E-01 -9.65263E-03
  -6.13534E-03 -7.02429E-02 -2.40584E-01 -1.52287E-01 -7.35925E-02  5.70149E-03  2.63944E-01  7.16922E-02  1.53957E-01  1.01628E-01
   1.69949E-01  7.69327E-02 -2.38004E-02  2.27101E-01 -2.59836E-02  1.41822E-01  1.67692E-01  1.48325E-02  1.62317E-01  9.67629E-03
   1.27253E-01  3.22998E-01 -1.35899E-01  2.44515E-01  5.82886E-02 -4.06897E-01  2.58154E-01 -9.28265E-02 -2.03488E-01 -4.51296E-01
  -3.46663E-01  4.41139E-02 -2.35126E-01 -3.68245E-01 -1.75107E-01  5.73845E-01  5.80942E-01  4.12833E-01  1.67595E-01  5.03620E-01
   6.92833E-01  3.73307E-02  1.91309E-01  3.43223E-01  2.28766E-01  1.25288E-01  4.45637E-01  5.72515E-01  2.64871E-01  4.79290E-01
   1.96942E-01 -1.54690E-01  1.92032E-01  2.87035E-01  2.79128E-01  3.14271E-01  2.77738E-01  4.13899E-01  3.70921E-01  3.09015E-01
   4.34263E-01  3.36468E-01  4.02721E-01  2.77688E-01 -1.58971E-01 -1.05672E-01  1.95066E-01 -2.03571E-01 -3.12637E-01 -1.30828E-01
  -4.26089E-01 -2.18683E-01 -1.96224E-01  3.70539E-02 -1.06827E-01 -3.38170E-01 -1.39473E-01 -9.49212E-02  1.29326E-02  5.67561E-02
   2.25813E-01  4.16066E-02  1.45500E-01 -1.36288E-01 -2.29301E-01 -2.66242E-01 -4.32137E-01 -3.88471E-01 -5.40008E-01 -2.65388E-01
  -2.45157E-01 -9.65572E-01 -2.04640E+00 -1.82789E+00 -1.02284E+00 -3.70392E-01 -2.61813E-01 -5.78118E-02  1.67018E-01 -1.35455E-01
  -9.31552E-02 -3.50271E-01 -2.89809E-02  4.56740E-01  2.36966E-01  5.48399E-02  3.51793E-01  9.71107E-02 -9.07857E-02  4.16690E-02
  -1.70713E-01 -1.70379E-01 -2.66277E-01 -2.62941E-01 -8.82664E-02  4.26025E-02 -2.55020E-01 -1.93151E-01  2.82668E-01  7.75130E-02
   1.69564E-01  2.71513E-01 -9.79302E-02  2.51425E-01  7.77625E-02  1.20807E-01  1.55421E-01 -1.41113E-01  4.33458E-01  3.24739E-01
   2.18910E-01  1.65228E-01  2.00490E-01  3.21309E-01  2.61638E-01  1.62813E-01  2.30712E-01  3.87979E-01  3.73956E-01  4.28490E-01
   1.54790E-01  1.55297E-01  2.05808E-01  2.67763E-01  2.56302E-01  1.92809E-01  3.47476E-01  4.84418E-01  1.21859E-01  1.63173E-01
   3.06883E-01  4.90159E-02  1.81287E-01 -1.62329E-02  3.06482E-01  9.34380E-02 -2.90535E-01  1.86313E-01  1.38098E-01  1.21018E-01
   1.36395E-01  5.66291E-02 -1.00722E-01 -3.63460E-02  2.54261E-01 -7.34659E-02  5.06616E-02 -2.18221E-01 -4.56849E-01  1.83236E-02
  -2.68011E-01 -7.11429E-02 -3.22283E-01 -3.26703E-01 -1.51631E-01 -5.09620E-01 -1.00995E-01  1.76832E-01  1.47689E-01 -9.68405E-02
  -7.47749E-02 -6.01932E-03 -1.28379E-02 -5.69953E-02 -3.26245E-01 -2.16729E-01 -1.26388E-01 -3.17691E-01 -2.04279E-01 -3.46613E-01
  -2.44229E-01 -2.77452E-01 -3.15207E-01  4.47921E-02 -1.83894E-01 -3.12822E-01 -1.14700E-01  3.23266E-01  8.92962E-02  2.48929E-01
   3.06156E-02 -7.50196E-02  2.45126E-01  2.19497E-02  2.49171E-01 -8.87188E-02  1.17069E-01 -1.72340E-01 -1.70444E-01  2.10856E-01
  -1.65806E-02  3.78378E-01  3.11077E-01  7.36764E-02  2.21743E-01  2.60186E-01 -6.14152E-02 -7.92784E-02  1.47122E-01 -2.35817E-01
  -6.05022E-01 -7.63470E-04  1.37887E-01 -1.07634E-01 -3.39259E-02 -2.34878E-01 -2.69080E-01 -7.39148E-02 -4.24152E-02 -1.08420E-01
  -1.43222E-01  7.21641E-02  9.35470E-02  1.13141E-01  2.00921E-01 -6.75755E-02  1.86462E-01  7.20892E-02  1.24335E-01 -1.11258E-01
  -3.26654E-03  1.86466E-01 -1.10322E-01  1.84289E-01 -4.04675E-01  7.30509E-02  1.28699E-01 -2.71378E-01  3.29253E-02 -2.55984E-02
   7.84173E-02 -5.09203E-02  2.05805E-01  1.25509E-01 -4.37420E-03  3.77773E-01  5.60461E-02  3.16519E-02  2.63236E-01  3.95561E-02
   1.72054E-01  3.03979E-01  1.73040E-01 -2.17009E-01  1.12635E-01  4.28148E-01  4.31212E-01 -1.38046E-01 -1.90708E-01  5.75882E-02
  -2.91447E-01  2.41975E-01 -2.92076E-02  1.15841E-01 -1.54300E-01 -3.06594E-01 -2.56518E-01 -3.61220E-01 -2.68213E-01 -4.64221E-01
  -1.27870E-01 -3.59337E-01 -2.11554E-01 -3.92368E-01 -3.16892E-01 -3.44860E-01  1.77245E-01  7.95896E-02 -5.36388E-01  6.91709E-02
  -7.90804E-02 -2.47461E-01 -3.14969E-01 -4.92604E-02  9.43554E-02  2.75739E-02 -2.90162E-02  3.38778E-01  2.41169E-02 -9.41431E-02
   1.43763E-01  4.45367E-01  3.90736E-01 -2.34528E-01  1.83542E-01 -7.75481E-02  1.18902E-01  1.18635E-01  1.47551E-01  3.30419E-01
   4.24379E-01  2.15986E-01 -1.07334E-01  3.83205E-01  1.12517E-01  1.48838E-01  1.60476E-01  2.39572E-01  3.67739E-01  2.43313E-01
   6.09923E-02 -2.29578E-01 -2.09584E-03  2.36468E-01 -7.11783E-02  1.81834E-01  1.31749E-02 -4.72693E-02  2.90901E-01 -2.40072E-01
   2.35210E-01  2.51586E-01 -1.21265E-01 -3.23632E-02  7.23627E-02 -2.08053E-01 -6.79018E-02  2.91209E-01  7.52208E-02  1.21379E-01
  -1.27985E-01 -1.55608E-01 -1.14371E-01  1.08781E-01  8.10425E-03 -2.60978E-02  8.70869E-02  2.69310E-03  4.47906E-02 -1.85306E-01
  -3.91671E-01 -1.75963E-01  6.66534E-02  5.12549E-02  1.10258E-01 -1.85140E-01 -5.02441E-02  2.28528E-01 -1.64903E-02 -2.52307E-01
   1.43952E-01  1.49975E-01 -8.38826E-02 -8.79262E-02 -3.19031E-01  7.61541E-02  1.25790E-01 -6.05865E-02  9.14586E-02 -5.81519E-03
  -1.23631E-01 -1.27950E-01 -3.57411E-01 -1.65929E-01 -3.97179E-02  2.77485E-01  2.12213E-01 -2.93105E-01 -4.44063E-02 -9.46842E-02
   2.40727E-02 -1.07525E-01  6.90893E-02  1.20930E-01 -1.49615E-01  2.58477E-02 -1.34605E-02  2.71123E-01  3.03635E-01 -1.88055E-01
  -2.55823E-01  4.17676E-02  3.28089E-02  2.65712E-02 -4.72093E-02  6.96847E-02  1.30906E-02  9.49790E-02  4.77160E-03 -2.11099E-01
   3.63304E-01 -1.70146E-01 -9.85732E-02  3.25982E-01
 NY points of the fit to the data follow
  -1.00735E-02 -7.30070E-03 -4.43525E-03 -2.66476E-03 -1.55605E-03 -3.48461E-04  1.32098E-03  1.18768E-02  3.17057E-02  4.93633E-02
   1.30618E-01  2.45416E-01  3.50244E-01  4.38600E-01  5.38553E-01  5.33344E-01  3.78946E-01  2.04112E-01  1.01572E-01  6.35905E-02
   4.90861E-02  1.89200E-02 -1.05938E-02 -3.68132E-02 -5.91662E-02 -7.59399E-02 -8.79572E-02 -9.70311E-02 -1.06884E-01 -1.18185E-01
  -1.29424E-01 -1.41745E-01 -1.60780E-01 -1.85409E-01 -2.16925E-01 -2.24176E-01 -2.35448E-01 -2.17006E-01 -1.40787E-01  1.64212E-02
   1.42198E-01  2.09580E-01  2.46114E-01  2.92287E-01  3.31660E-01  3.37431E-01  2.81063E-01  1.98591E-01  1.24365E-01  7.82525E-02
   4.41395E-02  1.61738E-02 -1.50746E-02 -4.81832E-02 -8.60452E-02 -1.30436E-01 -1.77857E-01 -2.32840E-01 -3.00861E-01 -3.44616E-01
  -3.90770E-01 -4.34150E-01 -3.93234E-01 -3.19873E-01 -2.83600E-01 -2.08246E-01 -4.33943E-03  1.81051E-01  2.88481E-01  3.73000E-01
   3.92794E-01  3.39663E-01  2.49742E-01  1.51587E-01  7.17555E-02 -3.31768E-02 -1.41789E-01 -2.39250E-01 -4.15902E-01 -5.90183E-01
  -5.40008E-01 -2.78905E-01 -5.20985E-02  1.09375E-01  3.02486E-01  4.54345E-01  4.90159E-01  4.37071E-01  3.66004E-01  3.27612E-01
   3.00683E-01  2.66251E-01  2.27644E-01  1.75093E-01  1.21945E-01  2.92969E-02 -7.16746E-02 -2.13513E-01 -3.37779E-01 -4.09634E-01
  -3.44279E-01 -1.71880E-01  4.48980E-02  2.28026E-01  3.19214E-01  3.33026E-01  3.30719E-01  3.23673E-01  3.28029E-01  3.26798E-01
   3.24066E-01  3.21285E-01  3.18560E-01  3.15834E-01  3.14279E-01  3.14342E-01  3.15671E-01  3.15583E-01  2.99077E-01  2.91974E-01
   2.74469E-01  1.92217E-01  1.01443E-01  4.70729E-02 -3.01882E-02 -1.37056E-01 -2.13389E-01 -2.67751E-01 -4.00855E-01 -5.31130E-01
  -6.04941E-01 -5.96538E-01 -4.96546E-01 -3.58213E-01 -3.56484E-01 -6.05238E-01 -8.58124E-01 -7.89331E-01 -5.04728E-01 -2.55884E-01
  -1.40932E-01 -9.92347E-02 -5.53120E-02 -7.97647E-03  2.44822E-02  5.12332E-02  7.44645E-02  9.49069E-02  1.12956E-01  1.29338E-01
   1.45033E-01  1.60671E-01  1.76559E-01  1.93341E-01  2.11677E-01  2.31911E-01  2.55346E-01  2.82639E-01  3.14136E-01  3.52347E-01
   4.04958E-01  4.85495E-01  6.07892E-01  6.08044E-01  6.83405E-01  8.15329E-01  6.52714E-01 -7.74082E-02 -7.42077E-01 -8.47200E-01
  -6.23770E-01 -4.36139E-01 -3.83660E-01 -3.98348E-01 -3.61556E-01 -3.18190E-01 -2.74113E-01 -2.51651E-01 -2.50696E-01 -2.45317E-01
  -2.22574E-01 -1.97246E-01 -1.86519E-01 -1.85595E-01 -1.87855E-01 -1.85549E-01 -1.78476E-01 -1.70190E-01 -1.64580E-01 -1.59397E-01
  -1.52154E-01 -1.42323E-01 -1.32879E-01 -1.24069E-01 -1.15949E-01 -1.08357E-01 -1.01194E-01 -9.32483E-02 -8.52288E-02 -7.81483E-02
  -7.04787E-02 -6.09795E-02 -5.34116E-02 -5.30616E-02 -5.75507E-02 -5.77832E-02 -4.98156E-02 -4.27206E-02 -4.67088E-02 -5.91126E-02
  -6.83166E-02 -6.89542E-02 -6.35693E-02 -5.80489E-02 -5.35198E-02 -4.55415E-02 -3.40298E-02 -2.83502E-02 -3.29523E-02 -3.81197E-02
  -2.16086E-02  6.39293E-03  3.14656E-02  7.09032E-02  1.50818E-01  2.38983E-01  2.54700E-01  2.00283E-01  1.96808E-01  2.98414E-01
   3.79871E-01  3.10185E-01  1.57118E-01  4.09600E-02 -8.90424E-03 -2.56839E-02 -4.29972E-02 -6.13672E-02 -7.32433E-02 -8.47206E-02
  -9.43945E-02 -1.02993E-01 -1.07662E-01 -1.11459E-01 -1.14130E-01 -1.17897E-01 -1.21011E-01 -1.23244E-01 -1.26429E-01 -1.29633E-01
  -1.34556E-01 -1.46235E-01 -1.45366E-01 -1.56998E-01 -1.69057E-01 -1.25709E-01 -3.89596E-02  1.46938E-02  1.78773E-02  6.28914E-02
   1.23346E-01  1.43668E-01  1.24365E-01  1.06533E-01  1.33666E-01  1.54726E-01  1.55311E-01  1.53339E-01  1.64499E-01  1.70898E-01
   1.54007E-01  1.19047E-01  7.66185E-02  3.51276E-02 -2.42740E-03 -4.38512E-02 -8.87501E-02 -1.46023E-01 -2.01634E-01 -2.67544E-01
  -3.40943E-01 -3.97989E-01 -4.07980E-01 -3.32150E-01 -1.66614E-01  5.05474E-02  2.37919E-01  3.60884E-01  4.10002E-01  3.74498E-01
   3.13428E-01  2.57204E-01  2.25953E-01  2.18570E-01  2.29356E-01  2.49076E-01  2.64919E-01  2.70721E-01  2.65060E-01  2.51574E-01
   2.40193E-01  2.28957E-01  2.19667E-01  2.09839E-01  1.98580E-01  1.86379E-01  1.71802E-01  1.50530E-01  1.27240E-01  1.00502E-01
   7.60462E-02  5.28551E-02  3.62388E-02  1.43023E-02 -1.05174E-02 -4.78205E-02 -1.00648E-01 -1.68060E-01 -2.24722E-01 -2.67014E-01
  -2.86123E-01 -2.89506E-01 -2.70108E-01 -2.34762E-01 -1.83522E-01 -1.20923E-01 -4.81006E-02  2.60230E-02  8.05620E-02  1.00911E-01
   8.53726E-02  3.82395E-02 -2.88536E-02 -8.30123E-02 -1.27220E-01 -2.01020E-01 -2.63047E-01 -2.96309E-01 -3.45622E-01 -3.35594E-01
  -5.37346E-01 -1.17566E+00 -1.85439E+00 -1.79574E+00 -1.13305E+00 -5.41251E-01 -2.88470E-01 -2.39296E-01 -1.97181E-01 -1.16007E-01
  -7.52497E-02 -4.68850E-02 -2.49812E-02 -8.20409E-03  6.58010E-03  1.69559E-02  2.43075E-02  2.54754E-02  1.85726E-02  3.15496E-03
  -1.73912E-02 -3.77267E-02 -5.63541E-02 -6.78833E-02 -7.21555E-02 -6.78534E-02 -5.56986E-02 -4.16230E-02 -2.80661E-02 -1.63253E-02
  -6.27567E-03  3.89947E-03  1.29904E-02  2.06165E-02  2.60747E-02  3.03693E-02  3.45574E-02  3.90610E-02  4.36079E-02  4.74807E-02
   5.04025E-02  5.30243E-02  5.60158E-02  5.93254E-02  6.25310E-02  6.48448E-02  6.64789E-02  6.80174E-02  7.03584E-02  7.34868E-02
   7.66582E-02  7.94434E-02  8.12590E-02  8.16429E-02  8.08712E-02  7.97689E-02  7.87165E-02  7.74606E-02  7.56662E-02  7.29081E-02
   6.92877E-02  6.54670E-02  6.14915E-02  5.66973E-02  5.15948E-02  4.72464E-02  4.34523E-02  3.92948E-02  3.49383E-02  3.09054E-02
   2.72609E-02  2.40414E-02  2.14292E-02  1.90111E-02  1.65622E-02  1.40756E-02  1.15288E-02  8.96631E-03  6.81557E-03  5.24642E-03
   3.92842E-03  2.60704E-03  1.85056E-03  2.15029E-03  2.98955E-03  4.40431E-03  6.26773E-03  8.41026E-03  1.09438E-02  1.41037E-02
   1.68914E-02  1.82245E-02  1.90482E-02  2.09346E-02  2.49646E-02  3.01332E-02  3.51519E-02  3.94871E-02  4.39039E-02  4.91863E-02
   5.56638E-02  6.30574E-02  7.08171E-02  7.84578E-02  8.59169E-02  9.35462E-02  1.00960E-01  1.07670E-01  1.12869E-01  1.15987E-01
   1.17177E-01  1.16948E-01  1.15526E-01  1.12751E-01  1.08392E-01  1.03139E-01  1.04181E-01  9.90304E-02  1.04282E-01  1.27992E-01
   1.75448E-01  2.17002E-01  2.37356E-01  2.20790E-01  1.76162E-01  1.35527E-01  1.12068E-01  9.79778E-02  8.91758E-02  7.85801E-02
   7.11542E-02  6.53484E-02  6.02751E-02  5.61066E-02  5.34359E-02  5.26171E-02  5.28316E-02  5.35258E-02  5.46968E-02  5.64109E-02
   5.87483E-02  6.20083E-02  6.57905E-02  6.89461E-02  7.13730E-02  7.32736E-02  7.46486E-02  7.56980E-02  7.71793E-02  7.92515E-02
   8.09945E-02  8.15271E-02  8.08314E-02  7.97762E-02  7.87465E-02  7.71581E-02  7.46381E-02  7.20963E-02  7.00753E-02  6.81735E-02
   6.58870E-02  6.33789E-02  6.09479E-02  5.84986E-02  5.59214E-02  5.31243E-02  5.01491E-02  4.76129E-02  4.60564E-02  4.45798E-02
   4.22558E-02  3.94926E-02  3.68330E-02  3.36527E-02  2.92572E-02  2.38850E-02  1.83640E-02  1.26842E-02  6.34892E-03 -1.65019E-03
  -1.21915E-02 -2.45672E-02 -3.70030E-02 -4.87167E-02 -6.02861E-02 -7.21071E-02 -8.33911E-02 -9.33227E-02 -1.02329E-01 -1.10913E-01
  -1.17662E-01 -1.21097E-01 -1.22342E-01 -1.23249E-01 -1.23193E-01 -1.20913E-01 -1.16919E-01 -1.12848E-01 -1.09040E-01 -1.05622E-01
  -1.02125E-01 -9.78444E-02 -9.23434E-02 -8.64511E-02 -8.04309E-02 -7.37106E-02 -6.66112E-02 -5.96036E-02 -5.27965E-02 -4.60543E-02
  -3.97935E-02 -3.36864E-02 -2.72173E-02 -2.09168E-02 -1.59432E-02 -1.17280E-02 -6.97123E-03 -1.63417E-03  2.45162E-03  5.02105E-03
   7.68142E-03  1.08266E-02  1.36636E-02  1.58083E-02  1.71337E-02  1.81161E-02  1.96508E-02  2.12143E-02  2.16924E-02  2.17512E-02
   2.26311E-02  2.41849E-02  2.56751E-02  2.73267E-02  2.88891E-02  2.96573E-02  2.98159E-02  2.99140E-02  2.99704E-02  2.99447E-02
   2.97954E-02  2.95848E-02  2.93533E-02  2.91302E-02  2.88638E-02  2.87651E-02  2.88733E-02  2.92337E-02  2.99076E-02  2.95555E-02
   2.72860E-02  2.50497E-02  2.49352E-02  2.58983E-02  2.58479E-02  2.49717E-02  2.42274E-02  2.37775E-02  2.25581E-02  2.11307E-02
   2.08136E-02  2.18053E-02  2.27300E-02  2.27520E-02  2.24717E-02  2.27075E-02  2.33461E-02  2.38725E-02  2.38469E-02  2.39890E-02
   2.44252E-02  2.41795E-02  2.27652E-02  2.13769E-02  2.09486E-02  2.12019E-02  2.13527E-02  2.16855E-02  2.21254E-02  2.19496E-02
   2.13158E-02  2.15331E-02  2.30163E-02  2.45418E-02  2.49866E-02  2.39440E-02  2.17727E-02  2.02232E-02  1.98884E-02  2.03462E-02
   2.03944E-02  1.93877E-02  1.79396E-02  1.67932E-02  1.62806E-02  1.60565E-02  1.52714E-02  1.38094E-02  1.31318E-02  1.33831E-02
   1.32499E-02  1.22729E-02  1.10628E-02  1.03940E-02  1.00354E-02  9.45489E-03  9.01269E-03  9.51442E-03  1.08651E-02  1.15470E-02
   1.12863E-02  1.05259E-02  9.76101E-03  9.12602E-03
 NY background values follow
     5.659E-02    5.648E-02    5.637E-02    5.626E-02    5.615E-02    5.604E-02    5.593E-02    5.582E-02    5.571E-02    5.560E-02
     5.549E-02    5.538E-02    5.528E-02    5.517E-02    5.506E-02    5.495E-02    5.484E-02    5.473E-02    5.462E-02    5.451E-02
     5.440E-02    5.429E-02    5.418E-02    5.407E-02    5.396E-02    5.385E-02    5.374E-02    5.363E-02    5.352E-02    5.341E-02
     5.330E-02    5.319E-02    5.308E-02    5.297E-02    5.287E-02    5.276E-02    5.265E-02    5.254E-02    5.243E-02    5.232E-02
     5.221E-02    5.210E-02    5.199E-02    5.188E-02    5.177E-02    5.166E-02    5.155E-02    5.144E-02    5.133E-02    5.122E-02
     5.111E-02    5.100E-02    5.089E-02    5.078E-02    5.067E-02    5.056E-02    5.045E-02    5.034E-02    5.023E-02    5.012E-02
     5.001E-02    4.990E-02    4.979E-02    4.968E-02    4.957E-02    4.946E-02    4.935E-02    4.924E-02    4.913E-02    4.902E-02
