 LCModel (Version 6.3-1N) Copyright: S.W. Provencher.          Ref.: Magn. Reson. Med. 30:672-679 (1993).                
 Slice_N1@17_13  02-Jun-2023 14:36:43
 27 lines in following concentration table = NCONC+1
    Conc.  %SD /Cr+PCr  Metabolite                                         
 2.78E-06  11% 3.0E-04 Mac                                                 
 4.20E-02  15%   4.562 Cr                                                  
 3.16E-02  18%   3.438 PCr                                                 
 8.59E-02   9%   9.337 Ins                                                 
 6.92E-02   8%   7.514 NAA                                                 
 6.45E-02  10%   7.006 Tau                                                 
 9.53E-03  15%   1.036 PCho                                                
    0.000 999%   0.000 GPC                                                 
 6.37E-02  13%   6.917 Glu                                                 
 2.21E-02  26%   2.399 Gln                                                 
    0.000 999%   0.000 Ala                                                 
 4.22E-02  28%   4.586 Asc                                                 
 1.55E-02  42%   1.689 Asp                                                 
 1.05E-02  33%   1.143 GABA                                                
 1.08E-02  42%   1.174 Glc                                                 
 9.29E-03  36%   1.009 GSH                                                 
    0.000 999%   0.000 Lac                                                 
 1.33E-02  25%   1.447 NAAG                                                
    0.000 999%   0.000 PE                                                  
 9.53E-03  15%   1.036 GPC+PCho                                            
 8.25E-02   8%   8.961 NAA+NAAG                                            
 8.58E-02  12%   9.317 Glu+Gln                                             
 7.36E-02   8%   8.000 Cr+PCr                                              
 8.25E-02   8%   8.961 NAA+NAAG                                            
 7.36E-02   8%   8.000 Cr+PCr                                              
 8.58E-02  12%   9.317 Glu+Gln                                             
   6 lines in following misc. output table
  FWHM = 0.017 ppm    S/N =   7                                            
  Data shift = 0.017 ppm                                                   
  Ph: -68 deg     -11.8 deg/ppm                                            
  alphaB,S = 6.6E-01,   4.0E-01                                            
   18 spline knots.   Ns = 5(1)                                            
   3 inflections.     2 extrema                                            
  654 points on ppm-axis = NY
      4.000000     3.994181     3.988363     3.982544     3.976726     3.970907     3.965088     3.959270     3.953451     3.947633
      3.941814     3.935995     3.930177     3.924358     3.918540     3.912721     3.906902     3.901084     3.895265     3.889446
      3.883628     3.877809     3.871991     3.866172     3.860353     3.854535     3.848716     3.842898     3.837079     3.831260
      3.825442     3.819623     3.813805     3.807986     3.802167     3.796349     3.790530     3.784712     3.778893     3.773074
      3.767256     3.761437     3.755619     3.749800     3.743981     3.738163     3.732344     3.726526     3.720707     3.714888
      3.709070     3.703251     3.697433     3.691614     3.685795     3.679977     3.674158     3.668339     3.662521     3.656702
      3.650884     3.645065     3.639246     3.633428     3.627609     3.621791     3.615972     3.610153     3.604335     3.598516
      3.592698     3.586879     3.581060     3.575242     3.569423     3.563605     3.557786     3.551967     3.546149     3.540330
      3.534512     3.528693     3.522874     3.517056     3.511237     3.505419     3.499600     3.493781     3.487963     3.482144
      3.476326     3.470507     3.464688     3.458870     3.453051     3.447232     3.441414     3.435595     3.429777     3.423958
      3.418139     3.412321     3.406502     3.400684     3.394865     3.389046     3.383228     3.377409     3.371591     3.365772
      3.359953     3.354135     3.348316     3.342498     3.336679     3.330860     3.325042     3.319223     3.313405     3.307586
      3.301767     3.295949     3.290130     3.284312     3.278493     3.272674     3.266856     3.261037     3.255219     3.249400
      3.243581     3.237763     3.231944     3.226125     3.220307     3.214488     3.208670     3.202851     3.197032     3.191214
      3.185395     3.179577     3.173758     3.167939     3.162121     3.156302     3.150484     3.144665     3.138846     3.133028
      3.127209     3.121391     3.115572     3.109753     3.103935     3.098116     3.092298     3.086479     3.080660     3.074842
      3.069023     3.063205     3.057386     3.051567     3.045749     3.039930     3.034111     3.028293     3.022474     3.016656
      3.010837     3.005018     2.999200     2.993381     2.987563     2.981744     2.975925     2.970107     2.964288     2.958470
      2.952651     2.946832     2.941014     2.935195     2.929377     2.923558     2.917739     2.911921     2.906102     2.900284
      2.894465     2.888646     2.882828     2.877009     2.871191     2.865372     2.859553     2.853735     2.847916     2.842098
      2.836279     2.830460     2.824642     2.818823     2.813004     2.807186     2.801367     2.795549     2.789730     2.783911
      2.778093     2.772274     2.766456     2.760637     2.754818     2.749000     2.743181     2.737363     2.731544     2.725725
      2.719907     2.714088     2.708270     2.702451     2.696632     2.690814     2.684995     2.679177     2.673358     2.667539
      2.661721     2.655902     2.650084     2.644265     2.638446     2.632628     2.626809     2.620991     2.615172     2.609353
      2.603535     2.597716     2.591897     2.586079     2.580260     2.574442     2.568623     2.562804     2.556986     2.551167
      2.545349     2.539530     2.533711     2.527893     2.522074     2.516256     2.510437     2.504618     2.498800     2.492981
      2.487163     2.481344     2.475525     2.469707     2.463888     2.458070     2.452251     2.446432     2.440614     2.434795
      2.428977     2.423158     2.417339     2.411521     2.405702     2.399884     2.394065     2.388246     2.382428     2.376609
      2.370790     2.364972     2.359153     2.353335     2.347516     2.341697     2.335879     2.330060     2.324242     2.318423
      2.312604     2.306786     2.300967     2.295149     2.289330     2.283511     2.277693     2.271874     2.266056     2.260237
      2.254418     2.248600     2.242781     2.236963     2.231144     2.225325     2.219507     2.213688     2.207870     2.202051
      2.196232     2.190414     2.184595     2.178777     2.172958     2.167139     2.161321     2.155502     2.149683     2.143865
      2.138046     2.132228     2.126409     2.120590     2.114772     2.108953     2.103135     2.097316     2.091497     2.085679
      2.079860     2.074042     2.068223     2.062404     2.056586     2.050767     2.044949     2.039130     2.033311     2.027493
      2.021674     2.015856     2.010037     2.004218     1.998400     1.992581     1.986763     1.980944     1.975126     1.969307
      1.963489     1.957670     1.951852     1.946033     1.940215     1.934397     1.928578     1.922760     1.916941     1.911123
      1.905304     1.899486     1.893667     1.887849     1.882030     1.876212     1.870393     1.864575     1.858756     1.852938
      1.847119     1.841301     1.835482     1.829664     1.823845     1.818027     1.812208     1.806390     1.800571     1.794753
      1.788934     1.783116     1.777297     1.771479     1.765660     1.759842     1.754023     1.748205     1.742386     1.736568
      1.730749     1.724931     1.719113     1.713294     1.707476     1.701657     1.695839     1.690020     1.684202     1.678383
      1.672565     1.666746     1.660928     1.655109     1.649291     1.643472     1.637654     1.631835     1.626017     1.620198
      1.614380     1.608561     1.602743     1.596924     1.591106     1.585287     1.579469     1.573650     1.567832     1.562013
      1.556195     1.550376     1.544558     1.538739     1.532921     1.527102     1.521284     1.515465     1.509647     1.503829
      1.498010     1.492192     1.486373     1.480555     1.474736     1.468918     1.463099     1.457281     1.451462     1.445644
      1.439825     1.434007     1.428188     1.422370     1.416551     1.410733     1.404914     1.399096     1.393277     1.387459
      1.381640     1.375822     1.370003     1.364185     1.358366     1.352548     1.346729     1.340911     1.335092     1.329274
      1.323455     1.317637     1.311818     1.306000     1.300182     1.294363     1.288545     1.282726     1.276908     1.271089
      1.265271     1.259452     1.253634     1.247815     1.241997     1.236178     1.230360     1.224541     1.218723     1.212904
      1.207086     1.201267     1.195449     1.189630     1.183812     1.177993     1.172175     1.166356     1.160538     1.154719
      1.148901     1.143082     1.137264     1.131445     1.125627     1.119808     1.113990     1.108171     1.102353     1.096534
      1.090716     1.084898     1.079079     1.073261     1.067442     1.061624     1.055805     1.049987     1.044168     1.038350
      1.032531     1.026713     1.020894     1.015076     1.009257     1.003439     0.997620     0.991802     0.985983     0.980165
      0.974346     0.968528     0.962709     0.956891     0.951072     0.945254     0.939435     0.933617     0.927798     0.921980
      0.916161     0.910343     0.904524     0.898706     0.892887     0.887069     0.881251     0.875432     0.869614     0.863795
      0.857977     0.852158     0.846340     0.840521     0.834703     0.828884     0.823066     0.817247     0.811429     0.805610
      0.799792     0.793973     0.788155     0.782336     0.776518     0.770699     0.764881     0.759062     0.753244     0.747425
      0.741607     0.735788     0.729970     0.724151     0.718333     0.712514     0.706696     0.700877     0.695059     0.689240
      0.683422     0.677603     0.671785     0.665967     0.660148     0.654330     0.648511     0.642693     0.636874     0.631056
      0.625237     0.619419     0.613600     0.607782     0.601963     0.596145     0.590326     0.584508     0.578689     0.572871
      0.567052     0.561234     0.555415     0.549597     0.543778     0.537960     0.532141     0.526323     0.520504     0.514686
      0.508867     0.503049     0.497230     0.491412     0.485593     0.479775     0.473956     0.468138     0.462319     0.456501
      0.450682     0.444864     0.439045     0.433227     0.427408     0.421590     0.415771     0.409953     0.404134     0.398316
      0.392497     0.386679     0.380860     0.375042     0.369223     0.363405     0.357586     0.351767     0.345949     0.340130
      0.334312     0.328493     0.322675     0.316856     0.311038     0.305219     0.299401     0.293582     0.287764     0.281945
      0.276127     0.270308     0.264490     0.258671     0.252853     0.247034     0.241216     0.235397     0.229579     0.223760
      0.217942     0.212123     0.206305     0.200486
 NY phased data points follow
  -1.91134E-01 -3.71804E-01 -1.20385E-01 -2.60986E-01 -2.70668E-01 -3.37913E-02  6.64316E-02 -5.39094E-02 -1.84373E-01  6.18578E-02
   5.38175E-02  4.71034E-01  7.13489E-01  2.77387E-01  2.08754E-01  8.91334E-01  5.81313E-01  1.81134E-01  1.08359E-01 -3.78831E-02
  -2.49755E-02 -3.74674E-01  2.92038E-01 -1.65729E-01 -3.49973E-01  7.87308E-02 -2.09577E-01 -2.29389E-02 -9.20581E-02 -6.82764E-02
  -9.22798E-02  6.85185E-02 -1.29422E-01 -2.92911E-01 -2.00350E-01 -2.29345E-01 -3.99192E-01 -5.43256E-01 -1.38838E-01 -9.28430E-02
  -1.77285E-01  4.34613E-02  3.36189E-01  4.36920E-01  8.88262E-02  1.73123E-01  8.94466E-01  5.59357E-01  2.61705E-01  1.48114E-01
  -6.41467E-03  3.68926E-01  5.75229E-02  3.19310E-01  2.19899E-01 -1.16903E-01 -3.42863E-02 -3.59711E-01 -2.95709E-01 -4.68637E-01
  -3.53824E-01 -4.80967E-01 -4.80095E-01 -3.41161E-02 -2.04594E-01 -3.85393E-01 -6.16152E-02  1.61819E-01  1.52268E-01  6.76289E-01
   2.16454E-01  3.63338E-02  2.01017E-01  4.05213E-02  2.52510E-01 -2.52392E-01 -3.52964E-01 -1.52171E-01 -5.02916E-01 -1.00639E+00
  -8.53421E-01 -1.18217E-01  1.84751E-01 -1.05879E-01  6.08190E-01  6.85201E-01  2.82582E-01  3.09075E-01 -4.65850E-02  4.00033E-01
   1.32407E-01  3.72432E-01  1.99267E-01 -4.67463E-02  3.79565E-01  4.23085E-02 -1.16048E-01 -1.93050E-01 -2.06208E-01 -4.88120E-01
  -2.25902E-01 -4.87189E-01 -2.43358E-01  4.55658E-01  4.94498E-01  3.68309E-01  2.61716E-01  6.06951E-01  4.50558E-01  4.43635E-01
   3.57400E-01  2.36976E-01  3.41359E-01  4.06391E-01  3.11210E-01  3.46099E-01  4.08829E-01  2.63503E-01  3.36746E-01  4.32526E-01
   1.22707E-01 -4.39084E-02  4.93912E-02 -1.52027E-01 -1.32831E-01 -5.83622E-01 -1.75826E-01 -2.32957E-01 -9.61676E-01 -4.86478E-01
  -7.57899E-01 -5.84434E-01 -5.42557E-01 -7.59954E-01 -4.05555E-01 -7.37253E-01 -7.85599E-01 -6.93098E-01 -5.25859E-01 -1.81003E-01
  -2.33462E-03  6.93661E-02 -6.13127E-02  1.83523E-01  2.62826E-01  1.26731E-01  3.82321E-02 -4.02209E-02  1.50788E-01  2.05896E-01
   4.03399E-01  4.33031E-01  1.34720E-01  3.52329E-01  4.44249E-01  5.05978E-01  5.17548E-01  4.40836E-01  6.73325E-01  4.02613E-01
   6.15083E-01  6.48947E-01  6.87713E-01  7.94944E-01  6.92095E-01  1.18822E+00  1.07528E+00  2.28078E-01 -1.29326E+00 -1.49763E+00
  -9.91961E-01 -7.60107E-01 -2.92817E-01 -3.87762E-01 -4.67599E-01 -3.61841E-01 -2.65183E-01 -3.19307E-01 -2.20645E-01 -3.49283E-01
  -5.93038E-01 -1.17187E-01  2.84340E-02 -3.34800E-01 -1.04778E-01 -4.85726E-01 -3.99975E-01 -2.23495E-01 -2.72265E-01 -2.55962E-01
  -5.08265E-01  4.46743E-02 -2.37101E-01 -8.32421E-03 -1.36140E-01 -1.82180E-01  2.99823E-01  5.14218E-02 -7.97257E-02 -2.48797E-01
  -3.85325E-02 -2.62432E-01 -6.03304E-02  1.02085E-01  7.71259E-02  2.60215E-02  1.67110E-02  2.88805E-01  1.52240E-01 -1.80690E-02
  -1.04343E-01 -3.26542E-02  1.14522E-01  5.04432E-02  3.50658E-02  3.27679E-01 -2.75829E-02 -1.66802E-02  2.86287E-01  5.33736E-02
   5.91873E-02  1.89911E-01  1.10103E-01  1.22754E-01  2.67960E-01  4.72141E-01  4.71509E-01  3.78066E-01  4.31611E-01  1.79315E-01
   4.25741E-01  5.84882E-01  2.76205E-01  1.26443E-01  1.24190E-01 -2.22007E-01 -2.09863E-01  2.06558E-02 -1.63360E-01 -1.29257E-01
  -1.43392E-01 -1.40250E-01 -1.50948E-01 -3.54108E-01 -2.04389E-01  2.44695E-01 -1.76302E-01 -1.19764E-01 -9.57136E-02 -3.69511E-02
  -1.17643E-01 -3.88677E-01 -3.18346E-02 -1.33127E-02  1.45157E-01 -3.67217E-01  7.19097E-02  2.41226E-01 -1.24225E-01  5.85856E-02
   1.20236E-01  2.57987E-02 -2.36725E-01  1.81558E-01  1.28140E-01 -1.08771E-01  3.13670E-01  2.87068E-01 -1.91505E-01  2.61199E-01
   1.66524E-01  2.62267E-01  8.71543E-02  8.57482E-02  1.62357E-01 -4.86458E-01 -1.59271E-01 -2.03537E-01 -8.93570E-03 -2.74271E-01
  -4.77453E-01 -5.22926E-01 -1.82965E-01 -2.06931E-01 -2.67080E-01  3.87342E-01  3.12711E-01  5.20070E-01  3.69471E-01  2.09091E-01
   1.72417E-01  2.28670E-01  8.11757E-02  4.67370E-02 -1.14229E-01  4.81951E-02  1.37376E-01  1.01805E-01  4.04550E-01  2.23283E-01
   1.97010E-01  5.04695E-02  2.42935E-01  2.92357E-01  4.75138E-01  2.56215E-01  2.82476E-02  1.57760E-01  4.45538E-01  2.62404E-01
   3.28519E-02  2.77843E-01  2.10984E-01  3.43174E-01 -8.14907E-02 -3.04328E-02 -2.51671E-01 -1.27438E-01 -5.01952E-03 -2.21508E-01
  -3.76332E-01 -3.23368E-01  3.13469E-02 -2.70222E-01 -4.03926E-02 -1.58846E-01 -6.45212E-02  1.20361E-01  2.57313E-01  2.90885E-01
   2.51548E-01  2.62062E-01 -1.31210E-01 -2.68230E-01 -2.12941E-01 -5.05223E-01 -6.86644E-01 -6.10785E-01 -4.95357E-01 -2.89341E-01
  -3.37487E-01 -3.14757E-01 -2.09617E+00 -2.51589E+00 -1.02070E+00 -1.71559E-01  1.73458E-01 -2.33640E-02  2.13305E-01  2.21408E-01
   4.08477E-01  3.30482E-01  1.00884E-01 -1.21311E-01  3.20459E-01  5.85676E-02 -1.27803E-01  2.05457E-01  5.05062E-02  3.29175E-01
  -5.75321E-02 -5.89320E-02  6.16424E-03  1.34241E-01 -1.68821E-01  5.90467E-03  2.77044E-01  6.76860E-02  2.22177E-02  4.53703E-02
   3.63920E-01  1.33175E-01  6.06444E-02 -1.92976E-01  1.72603E-01  2.18939E-01  1.56030E-01  9.31575E-02  3.74686E-01  4.55534E-01
  -2.11678E-01  2.89365E-01  2.49154E-01  2.68476E-01  1.00852E-01  2.40308E-01  3.41784E-01  8.27037E-02  2.57155E-01  2.31261E-01
   3.93266E-01  3.13585E-01  2.92827E-01  7.51798E-03  1.36903E-01  2.82993E-01  1.89129E-01  1.85617E-01  8.50353E-02 -3.19041E-02
  -1.31649E-01  3.22652E-02 -1.75674E-01 -1.89603E-02  2.33334E-02 -2.74923E-02  2.18489E-02 -2.46455E-01 -1.92828E-01 -2.35307E-02
  -1.20672E-01 -2.36469E-01  1.18217E-01  1.11072E-01  3.92540E-03 -1.55718E-01 -1.98005E-01  2.39786E-01 -1.03049E-01 -1.80596E-01
  -1.48978E-01 -3.73266E-01  6.87380E-02 -8.84855E-02 -2.38224E-01 -1.45691E-01 -3.11365E-01 -1.27302E-01 -2.12045E-01 -2.62582E-02
  -1.32290E-01 -2.63773E-01  1.41329E-01  6.10388E-02  1.60801E-01 -5.37576E-02 -3.59595E-01 -4.78024E-02  2.16892E-01 -9.57298E-02
  -1.00371E-01  9.34106E-02 -1.56208E-03  3.16907E-01  2.76099E-01  3.43535E-01  4.41017E-01  3.75492E-01  3.41567E-01  6.14437E-02
   7.30928E-02  1.53148E-01  2.57912E-01  1.81949E-01  7.24061E-03  6.90487E-02  1.76488E-02  8.07092E-03 -1.23638E-01 -2.12132E-01
   9.61070E-02  1.37894E-01  1.48561E-01  9.41947E-02  2.94308E-02 -2.49502E-01 -3.04350E-01 -1.39465E-01 -5.91784E-01 -2.66823E-01
  -1.03365E-01 -2.73763E-01 -2.57229E-01 -4.38413E-01 -3.17898E-01 -3.32150E-01 -3.91439E-01 -2.06100E-01  3.55481E-02 -2.93785E-02
  -1.22259E-01 -2.32687E-01 -1.53785E-01  4.76601E-02 -1.12065E-02 -1.74468E-02  1.94573E-01  1.60353E-01  4.40113E-02  1.35527E-01
  -2.05241E-01 -9.58055E-02  1.15767E-01  1.73067E-01  2.46119E-01 -2.26967E-02  1.56616E-01  3.28198E-01  1.80018E-01  1.70626E-01
   1.51628E-01 -5.26038E-02  2.20781E-01  2.94715E-01  5.04989E-02  1.67682E-01  3.37885E-01  4.27865E-01  3.42337E-01  4.16686E-01
   1.03494E-01 -4.91207E-02 -1.21221E-02  2.32600E-02  1.57885E-01 -7.20000E-02 -4.52360E-02 -4.13730E-02 -8.69693E-02 -9.15813E-02
  -5.75461E-02 -2.16493E-01 -1.05280E-01 -1.71381E-01 -4.98318E-01 -3.49926E-01 -4.70013E-01 -3.56264E-01 -3.43357E-01 -4.48545E-01
  -5.67303E-01 -5.31276E-01 -1.51809E-01 -1.13156E-01 -1.82088E-01 -1.11800E-01 -1.52433E-01 -3.21960E-01 -1.70897E-01 -1.48863E-01
  -1.74687E-01 -1.30708E-01 -3.05844E-01 -1.68883E-01  7.15219E-02 -1.33215E-02  2.50417E-01  3.62395E-01  1.70186E-01  1.08059E-01
  -1.77774E-02  1.20010E-01  1.38900E-01  1.46199E-01  3.71581E-01  2.69106E-01  1.43701E-02  1.88489E-01  1.04319E-01  2.61720E-02
   4.34446E-02  7.12695E-02  5.29832E-02  8.06108E-02  2.13876E-01 -4.02311E-02  9.22897E-02 -1.27525E-01  1.16410E-01  7.03174E-02
  -2.82705E-02  2.06282E-01 -2.57186E-01  4.52364E-02  4.99274E-02  3.65772E-02  7.44134E-02 -9.81254E-02 -8.38728E-02  5.87115E-02
   1.60678E-01 -4.79221E-02  7.21366E-02  3.73823E-01  1.69091E-02 -1.19216E-01  4.49932E-02 -1.23165E-01  6.01044E-02  6.13660E-02
   2.20846E-01  1.96722E-02 -9.81380E-02 -1.34284E-01 -1.14849E-01  4.25775E-03 -1.84129E-01  2.29335E-01  1.38577E-01 -7.80351E-02
  -6.48203E-02  1.28085E-01 -7.88995E-02 -1.31012E-01  1.53410E-01 -1.22965E-01 -3.81871E-02  2.22127E-02 -9.74541E-02  1.36877E-01
   9.70211E-02 -2.06408E-01 -8.23244E-02  6.99797E-02  2.13210E-01 -2.35875E-01 -1.01323E-01  2.90460E-01  8.29505E-02  2.34183E-01
   5.50081E-02  9.20511E-03 -1.84992E-01 -1.97227E-01  1.78711E-01 -6.56348E-02 -1.68497E-01  1.16356E-01  7.80742E-02  6.41538E-02
   1.50511E-01  2.34165E-01  1.16734E-01 -7.15982E-02 -1.52200E-02  8.52651E-02  7.48628E-02 -1.31633E-01  4.73288E-03  7.00370E-02
   1.51207E-01  5.28536E-02 -5.89577E-02  1.45472E-01 -2.18663E-02 -1.79733E-01 -1.11449E-01  1.27171E-01  7.20474E-02 -2.63352E-01
   1.91446E-02  2.18037E-01  7.77948E-03  7.84560E-02
 NY points of the fit to the data follow
   1.18850E-01  7.20606E-02 -2.20534E-02 -3.61227E-02 -4.99091E-02 -3.06398E-02 -2.17266E-02  3.41684E-02  4.27063E-02  7.42809E-02
   7.70250E-02  5.60587E-01  6.83763E-01  3.99856E-01  2.20761E-01  7.83900E-01  8.22487E-01  2.84302E-01  1.68770E-01 -2.97956E-02
   4.66901E-03 -5.94522E-02 -4.46655E-02 -7.47255E-02 -1.12959E-01 -1.31299E-01 -1.50831E-01 -1.58480E-01 -1.59471E-01 -1.69040E-01
  -1.89048E-01 -1.88166E-01 -2.05228E-01 -2.48146E-01 -2.88552E-01 -3.26131E-01 -3.43877E-01 -3.71627E-01 -3.54167E-01 -2.41191E-01
  -4.60186E-02  1.16509E-01  1.02811E-01  2.75085E-01  3.09079E-01  4.32475E-01  5.45325E-01  3.18521E-01  2.84142E-01  2.63405E-01
   1.68703E-01  1.18238E-01  8.22032E-02  3.04966E-02 -2.33424E-02 -8.84964E-02 -1.39212E-01 -2.06788E-01 -2.76836E-01 -3.31157E-01
  -3.99107E-01 -4.22625E-01 -4.87706E-01 -2.64513E-01 -2.22118E-01 -3.47938E-01  2.16387E-01  2.76252E-01  3.25051E-01  5.77028E-01
   4.76237E-01  3.73361E-01  1.81861E-01  9.04253E-02 -1.25157E-02 -1.46652E-01 -2.27743E-01 -3.06210E-01 -4.46852E-01 -8.30223E-01
  -8.56085E-01 -1.26209E-01  5.25107E-02  9.14322E-02  5.16434E-01  6.53459E-01  6.03813E-01  4.46221E-01  3.46251E-01  2.88550E-01
   2.22008E-01  2.14713E-01  1.76473E-01  1.35685E-01  8.76640E-02 -1.33133E-03 -5.83909E-02 -2.40247E-01 -3.37798E-01 -5.17884E-01
  -4.58865E-01 -2.41739E-01  2.83253E-03  3.22645E-01  4.05353E-01  4.02175E-01  3.42008E-01  3.20394E-01  2.96190E-01  2.90750E-01
   2.92537E-01  2.94072E-01  2.89551E-01  2.86779E-01  2.84224E-01  2.85190E-01  2.88089E-01  2.88821E-01  2.57852E-01  2.60207E-01
   2.30761E-01  1.96086E-01 -3.17667E-02 -7.74800E-02 -6.15542E-03 -3.24096E-01 -3.14307E-01 -1.62445E-01 -5.76566E-01 -4.96774E-01
  -8.05975E-01 -8.02105E-01 -5.76915E-01 -5.03250E-01 -6.91580E-02 -5.92088E-01 -9.04599E-01 -6.40886E-01 -3.09361E-01 -6.71568E-02
   1.61274E-02  6.79455E-02  8.17011E-02  7.96385E-02  9.64226E-02  1.18089E-01  1.36909E-01  1.56303E-01  1.74021E-01  1.86168E-01
   2.04526E-01  2.20653E-01  2.38112E-01  2.55782E-01  2.78240E-01  3.03344E-01  3.31163E-01  3.67783E-01  4.04086E-01  4.46702E-01
   5.15379E-01  6.27331E-01  7.36557E-01  7.56054E-01  7.75758E-01  9.57897E-01  1.05189E+00  1.01311E-01 -1.26618E+00 -1.53265E+00
  -1.11181E+00 -7.41455E-01 -4.93883E-01 -3.84148E-01 -3.57490E-01 -3.52541E-01 -3.13689E-01 -2.83655E-01 -2.88625E-01 -2.82272E-01
  -2.72470E-01 -2.22619E-01 -2.26559E-01 -2.09827E-01 -2.08584E-01 -2.15872E-01 -2.00183E-01 -1.88412E-01 -1.70036E-01 -1.72208E-01
  -1.56053E-01 -1.45606E-01 -1.30925E-01 -1.20232E-01 -1.06751E-01 -9.84984E-02 -8.82530E-02 -7.50911E-02 -6.28675E-02 -5.17297E-02
  -4.49565E-02 -2.71076E-02 -3.15746E-04  1.11625E-02 -1.82282E-02 -4.20085E-02 -2.79333E-02  1.33461E-02  3.01644E-02 -2.24586E-02
  -5.95718E-02 -6.21663E-02 -4.83745E-02 -3.56639E-02 -2.32558E-02 -1.17518E-02  1.44225E-02  3.35763E-02  1.19032E-02 -1.02611E-02
   4.54487E-04  4.86398E-02  8.97321E-02  7.90563E-02  1.03853E-01  2.84387E-01  3.86808E-01  2.90996E-01  1.57982E-01  2.33955E-01
   3.98243E-01  3.16528E-01  1.51421E-01  2.81801E-02 -4.61544E-02 -6.56744E-02 -7.02263E-02 -6.21808E-02 -6.04478E-02 -6.84475E-02
  -7.65539E-02 -8.48727E-02 -8.57686E-02 -8.73708E-02 -8.83601E-02 -9.13334E-02 -1.01348E-01 -9.06340E-02 -1.04275E-01 -9.06670E-02
  -8.78024E-02 -8.20802E-02 -8.20357E-02 -1.08587E-01 -9.70519E-02 -1.08268E-01 -5.27167E-02  6.83351E-02  1.83095E-02  7.24405E-02
   9.75856E-02  1.40021E-01  1.65806E-01 -1.17908E-02  1.41144E-01  1.32125E-01  1.54640E-01  1.61318E-01  1.36158E-01  1.90122E-01
   1.19844E-01  1.17217E-01  4.53239E-02  1.52648E-02 -2.50680E-02 -5.88966E-02 -9.40695E-02 -1.49599E-01 -1.88277E-01 -2.50769E-01
  -2.84689E-01 -3.75269E-01 -3.57380E-01 -2.61157E-01 -1.33041E-01  2.04354E-01  3.34329E-01  4.49787E-01  5.07326E-01  3.67593E-01
   2.92242E-01  1.80402E-01  1.43065E-01  1.41746E-01  1.22983E-01  1.88362E-01  2.05900E-01  2.31605E-01  2.55975E-01  2.34028E-01
   2.33407E-01  2.12832E-01  2.04085E-01  1.96400E-01  1.87144E-01  1.71743E-01  1.54706E-01  1.32109E-01  9.88810E-02  4.83377E-02
   4.12994E-02 -1.75125E-02  3.07663E-04  7.14996E-03 -2.04172E-02 -1.55157E-03 -8.03249E-02 -1.37493E-01 -2.18843E-01 -2.54784E-01
  -2.74867E-01 -2.99403E-01 -2.45441E-01 -2.31498E-01 -1.48288E-01 -9.52024E-02 -1.16349E-02  7.36540E-02  1.03296E-01  1.30233E-01
   5.34385E-02  9.45877E-03 -1.23190E-01 -1.95172E-01 -2.16025E-01 -2.88559E-01 -5.75392E-01 -5.56332E-01 -4.55944E-01 -3.30333E-01
  -3.70451E-01 -3.53656E-01 -2.26886E+00 -2.39880E+00 -8.94043E-01 -3.81692E-01  2.00024E-01  6.90082E-02  1.78523E-01  5.21952E-02
   3.19807E-02  3.39514E-02  4.38581E-02  4.72288E-02  5.34221E-02  6.05052E-02  6.33534E-02  6.57229E-02  5.11802E-02  4.71576E-02
  -4.07974E-03 -7.96650E-03 -5.40231E-02 -7.50774E-02 -6.77990E-02 -7.47091E-02 -3.40209E-02 -2.31382E-02  3.72442E-03  1.51633E-02
   2.97491E-02  4.19644E-02  5.58750E-02  6.35996E-02  6.45203E-02  7.03709E-02  7.30107E-02  8.06074E-02  8.58894E-02  8.98095E-02
   9.11600E-02  9.50811E-02  9.99716E-02  1.03749E-01  1.10055E-01  1.09698E-01  1.11583E-01  1.10367E-01  1.18360E-01  1.21947E-01
   1.27771E-01  1.32971E-01  1.32022E-01  1.30249E-01  1.23505E-01  1.18687E-01  1.15031E-01  1.12265E-01  1.07764E-01  9.99545E-02
   9.07163E-02  8.21163E-02  7.47393E-02  6.20365E-02  5.17670E-02  4.60883E-02  4.03960E-02  3.34397E-02  2.35706E-02  1.98171E-02
   1.19406E-02  8.45248E-03  5.90487E-03  3.38158E-04 -2.83012E-03 -6.32164E-03 -1.11773E-02 -1.44355E-02 -1.69066E-02 -1.82002E-02
  -1.85020E-02 -2.24461E-02 -2.15419E-02 -1.68133E-02 -1.50740E-02 -1.03682E-02 -4.62050E-03  6.48146E-04  7.40224E-03  1.59358E-02
   2.15703E-02  1.93789E-02  2.01954E-02  2.69856E-02  3.75597E-02  5.04173E-02  6.07630E-02  6.89595E-02  7.77742E-02  8.86691E-02
   1.04783E-01  1.19836E-01  1.34300E-01  1.50559E-01  1.62738E-01  1.76735E-01  1.92151E-01  2.01230E-01  2.08466E-01  2.09908E-01
   2.09184E-01  2.07044E-01  2.04984E-01  2.00506E-01  1.95948E-01  1.88550E-01  1.77447E-01  1.60406E-01  1.42618E-01  1.29430E-01
   1.17787E-01  1.06908E-01  9.46286E-02  8.28107E-02  6.78126E-02  6.19478E-02  5.47705E-02  4.58183E-02  3.82503E-02  3.22827E-02
   2.85195E-02  2.42168E-02  2.05034E-02  1.68285E-02  1.89631E-02  2.57103E-02  2.84406E-02  3.22432E-02  3.99483E-02  4.46187E-02
   5.13237E-02  5.90074E-02  6.74406E-02  7.23267E-02  7.51606E-02  7.86221E-02  7.88825E-02  7.90565E-02  8.13620E-02  8.79078E-02
   9.03997E-02  8.69357E-02  8.52837E-02  7.87391E-02  7.77462E-02  7.32498E-02  6.45410E-02  6.14530E-02  5.72763E-02  5.54708E-02
   4.97189E-02  4.49162E-02  4.04436E-02  3.53582E-02  3.16864E-02  2.58338E-02  1.87727E-02  1.53485E-02  1.51110E-02  1.18791E-02
   6.06359E-03  2.95570E-04 -4.72183E-03 -1.33270E-02 -2.55502E-02 -3.67029E-02 -4.77142E-02 -5.88983E-02 -7.17572E-02 -9.23912E-02
  -1.14006E-01 -1.41094E-01 -1.62597E-01 -1.81821E-01 -2.03484E-01 -2.22832E-01 -2.38455E-01 -2.49554E-01 -2.62234E-01 -2.73624E-01
  -2.78733E-01 -2.72727E-01 -2.67831E-01 -2.65982E-01 -2.59311E-01 -2.46814E-01 -2.35720E-01 -2.24830E-01 -2.16210E-01 -2.09104E-01
  -2.02387E-01 -1.92071E-01 -1.77516E-01 -1.67150E-01 -1.53256E-01 -1.37689E-01 -1.24476E-01 -1.11096E-01 -9.91599E-02 -8.59416E-02
  -7.84694E-02 -6.68427E-02 -5.21132E-02 -4.48878E-02 -3.94895E-02 -3.36050E-02 -2.36202E-02 -1.21915E-02 -1.06268E-02 -1.11283E-02
  -1.93794E-03  1.07197E-03  4.02682E-03  7.92870E-03  6.45098E-03  9.24580E-03  1.18604E-02  1.32570E-02  1.17856E-02  1.11461E-02
   1.73919E-02  1.94746E-02  2.14115E-02  2.62015E-02  2.83062E-02  2.73924E-02  2.51443E-02  2.67400E-02  2.52880E-02  2.33188E-02
   2.59990E-02  2.44083E-02  2.21925E-02  2.42548E-02  2.46279E-02  2.39180E-02  2.40876E-02  2.55620E-02  2.95525E-02  2.66825E-02
   1.55183E-02  1.33636E-02  1.95635E-02  2.05238E-02  1.91994E-02  1.71973E-02  2.11654E-02  2.00445E-02  1.38036E-02  1.35015E-02
   1.62823E-02  2.12901E-02  2.12274E-02  2.15806E-02  2.22405E-02  2.38463E-02  2.67014E-02  2.74746E-02  2.55426E-02  2.82070E-02
   2.89743E-02  2.81968E-02  2.29284E-02  2.18950E-02  2.51197E-02  2.52946E-02  2.90004E-02  3.07835E-02  3.29659E-02  3.29861E-02
   3.15461E-02  3.38047E-02  3.97951E-02  4.23500E-02  4.41528E-02  4.06232E-02  3.52265E-02  3.47801E-02  3.63275E-02  4.13183E-02
   4.21016E-02  3.84749E-02  3.76096E-02  3.72826E-02  3.88218E-02  4.25749E-02  4.12908E-02  3.75819E-02  4.12999E-02  4.77060E-02
   4.70983E-02  4.54714E-02  4.76408E-02  4.86093E-02  5.23377E-02  5.25794E-02  5.41470E-02  6.18615E-02  6.90960E-02  7.27963E-02
   7.45415E-02  7.60747E-02  7.90863E-02  7.88937E-02
 NY background values follow
     1.272E-02    1.304E-02    1.336E-02    1.369E-02    1.401E-02    1.433E-02    1.465E-02    1.498E-02    1.530E-02    1.562E-02
     1.595E-02    1.627E-02    1.659E-02    1.691E-02    1.723E-02    1.756E-02    1.788E-02    1.820E-02    1.852E-02    1.884E-02
     1.916E-02    1.948E-02    1.980E-02    2.012E-02    2.044E-02    2.076E-02    2.108E-02    2.140E-02    2.172E-02    2.203E-02
     2.235E-02    2.267E-02    2.299E-02    2.330E-02    2.362E-02    2.393E-02    2.425E-02    2.456E-02    2.487E-02    2.519E-02
     2.550E-02    2.581E-02    2.612E-02    2.643E-02    2.674E-02    2.705E-02    2.736E-02    2.767E-02    2.798E-02    2.829E-02
     2.859E-02    2.890E-02    2.920E-02    2.951E-02    2.981E-02    3.011E-02    3.041E-02    3.072E-02    3.102E-02    3.132E-02
     3.161E-02    3.191E-02    3.221E-02    3.251E-02    3.280E-02    3.310E-02    3.339E-02    3.368E-02    3.398E-02    3.427E-02
