 
 $NMID
 ID=''
 FMTDAT='(2E13.5)'
 TRAMP=   1.00000E+0
 VOLUME=   1.00000E+0
 $END
   4.88652E+1  -3.45419E+2
  -8.61037E+2   9.88170E+2
   3.45250E+1  -2.58938E+3
  -1.85419E+3   2.23552E+3
  -1.03155E+3   2.68509E+3
   2.39582E+3   3.67359E+3
  -1.58239E+2   2.81201E+3
   1.69035E+3   3.65422E+3
   3.36222E+3  -1.62831E+2
   2.99600E+3  -1.78422E+3
   3.83270E+3  -7.48137E+2
   4.44019E+3  -1.12891E+2
   2.49167E+3   2.10138E+3
  -3.52327E+2   7.58384E+2
  -1.82907E+3  -5.05841E+2
   7.85460E+2  -1.76515E+3
   1.63057E+3  -3.11121E+3
   9.20810E+2  -1.22278E+3
  -1.47029E+2   1.35433E+3
  -2.40774E+2  -7.12170E+2
  -1.83063E+3  -6.77821E+2
   2.43688E+3   2.97523E+3
  -3.49279E+3   1.77524E+3
  -4.03292E+3  -3.54846E+2
  -4.15774E+2  -2.13794E+3
  -1.25608E+3   1.88866E+2
  -1.91557E+3   2.68802E+3
  -2.21415E+3  -1.20157E+3
  -1.01711E+3  -1.30326E+3
   3.82207E+3  -1.82471E+3
   4.15331E+3   4.01021E+3
  -2.81477E+3   4.16565E+3
  -6.45025E+3  -5.16922E+1
  -2.63483E+3  -3.13717E+3
  -7.23271E+2  -1.62214E+3
  -1.38748E+3  -3.61707E+3
   1.13037E+3  -3.02925E+3
   2.93490E+3   1.30649E+3
   1.33944E+3   6.28492E+2
  -1.06580E+3   1.95475E+3
  -2.29641E+3   4.68839E+3
  -5.43230E+3   8.18955E+1
  -1.54242E+3  -4.31675E+3
   2.87062E+3  -5.10349E+3
   4.86557E+3   1.63694E+3
   1.77094E+3   9.96130E+2
   2.93483E+3   2.64765E+2
  -1.89740E+2   2.03499E+3
   4.65327E+2   2.41276E+3
  -2.29941E+3  -3.08026E+2
  -9.69693E+2   3.00097E+2
  -2.00530E+3  -2.34700E+3
   4.24006E+2  -2.51546E+3
   1.49734E+3  -5.15599E+2
  -1.25855E+3  -5.72472E+2
  -1.71869E+3   5.99339E+2
  -3.25750E+3   2.22690E+3
  -2.19999E+3  -8.58859E+1
  -1.47214E+3  -4.32725E+3
   1.76736E+3  -3.72917E+3
   4.06775E+3  -3.09939E+3
   5.41127E+3  -1.25016E+3
   3.14138E+3   1.83265E+3
  -1.77695E+3  -2.37601E+3
   9.77103E+1  -1.77553E+3
   5.38547E+3  -3.44440E+2
  -1.81781E+3   2.06634E+3
  -5.08804E+2   5.02507E+2
  -6.76801E+2  -6.78592E+2
  -9.71165E+1  -2.56768E+3
  -2.62597E+2   7.84058E+2
   3.28869E+2  -8.81302E+2
  -3.21797E+2  -2.91905E+2
   2.52220E+3  -1.49709E+3
   1.86070E+3  -1.94705E+3
   2.05680E+3   1.93116E+3
   4.26035E+2  -1.69840E+3
   6.56677E+1  -6.87606E+2
   1.83929E+3  -9.20444E+2
   2.39155E+1   1.16953E+3
   9.82423E+2   4.97799E+2
  -1.26556E+3   4.93934E+2
   1.65650E+3   1.81609E+3
  -1.19003E+3   2.95296E+3
  -2.17837E+2   2.42043E+3
  -7.93304E+2   2.02193E+2
  -1.11293E+3  -5.45613E+2
   2.85745E+3  -7.10840E+2
   2.94831E+3   1.85357E+3
   1.77628E+3   4.22349E+3
   1.04143E+3   1.95184E+3
   2.11945E+3  -5.71243E+2
   5.60845E+2   2.55409E+3
  -2.33976E+3   2.98494E+3
  -2.32575E+3   1.45853E+3
  -1.41117E+3  -2.39939E+3
   9.10982E+2  -1.41162E+3
   2.39916E+2   1.97170E+3
  -1.76327E+3   2.20339E+3
  -2.02711E+3  -1.44218E+3
   2.83950E+3  -1.36742E+3
   3.07141E+3   4.38797E+2
   2.00264E+3   2.25446E+3
   2.20337E+3   2.06483E+3
  -1.08382E+3   2.48919E+2
  -1.36253E+3  -9.76536E+2
  -7.67356E+2  -5.23083E+2
   1.54910E+2  -7.87424E+2
  -2.01473E+3  -4.89560E+2
   1.79814E+3  -2.03921E+3
   3.07268E+3   5.22221E+2
   1.69677E+3   1.87149E+3
  -2.48873E+2   3.03340E+3
   1.06862E+3   2.95023E+3
  -1.05008E+3   8.84920E+2
  -1.88029E+3   7.01150E+2
  -2.41528E+2  -1.92323E+2
   1.22330E+3  -8.80975E+2
  -1.01525E+3  -1.70489E+3
   5.78901E+1   4.14793E+2
  -2.53819E+2   2.27548E+3
  -1.96425E+3  -1.18876E+3
  -1.40103E+3  -6.59536E+2
   4.30114E+2  -1.39952E+3
   1.10989E+3   5.86105E+2
  -1.04478E+3   9.09603E+2
   5.22175E+2  -3.14780E+2
  -6.05970E+2   7.58110E+2
   9.71854E+1   1.07206E+3
  -1.12785E+3  -1.03573E+3
  -2.07114E+3  -2.89449E+3
  -2.17048E+2   9.33960E+2
  -1.78763E+2   3.43566E+2
   1.72802E+3  -3.22584E+2
  -3.75396E+2   1.53527E+3
  -2.12196E+3  -2.81742E+2
   7.75200E+2  -6.89890E+2
  -2.23295E+3  -1.78830E+3
   2.85287E+3  -8.02313E+2
   4.94131E+2   1.32864E+3
   5.94386E+2  -3.56522E+3
   1.52155E+3   1.54651E+3
   1.67071E+3   8.29506E+2
  -3.57407E+2   7.74477E+2
  -7.05372E+2   1.12380E+3
   1.53777E+3  -1.46655E+3
  -2.24135E+3   5.98065E+2
  -1.73862E+3  -2.35029E+3
  -1.18086E+3   4.78984E+2
  -5.15668E+2   6.51443E+2
  -2.66841E+3   8.24922E+2
  -1.72166E+3  -2.58362E+2
  -1.15912E+3  -1.63726E+3
  -3.28261E+2  -1.38703E+3
   6.78993E+2  -2.84388E+1
   6.91816E+2   7.03038E+2
   1.86342E+2   1.00744E+3
   1.72723E+2  -8.37730E+2
  -1.49217E+3   1.03616E+3
   2.54937E+2   1.83716E+3
  -2.30702E+3  -9.70554E+2
  -9.55384E+2   4.66497E+2
  -2.08559E+3  -1.27380E+3
  -2.29896E+3  -8.23153E+2
   2.36167E+2  -1.09403E+2
  -1.50354E+3   1.86890E+2
   1.00176E+2  -1.38950E+3
   2.50442E+1  -5.44324E+0
  -8.34030E+2   9.11143E+2
  -9.47788E+1   1.28108E+3
  -1.87813E+2  -2.16161E+3
   4.56159E+2   9.55354E+2
  -8.25948E+2  -9.51579E+2
   1.97619E+3   1.26908E+3
  -1.62634E+3   1.18139E+3
  -4.83513E+2  -9.65399E+2
   2.95469E+3   1.40703E+3
   1.10495E+3   2.28795E+3
  -1.07841E+3   7.50694E+2
  -8.49403E+2  -2.81206E+2
   3.85765E+2  -2.53004E+3
   2.35439E+3  -1.94832E+2
  -6.98403E+2   5.54787E+2
  -1.45464E+3  -4.98243E+2
   1.31358E+2  -1.13324E+3
   1.33833E+3  -1.54068E+2
  -2.21118E+3  -5.73386E+2
  -3.16523E+3  -1.40919E+3
   1.44303E+2  -1.83690E+3
   3.82402E+2  -1.34489E+3
   1.24857E+3  -2.86813E+3
  -1.10029E+3  -4.02932E+1
   3.69864E+2   1.05024E+2
   1.85684E+3  -6.21619E+2
  -6.38695E+1  -9.31823E+2
   6.83958E+2  -1.37525E+2
   2.04102E+2  -1.05977E+3
   1.34889E+3   1.10043E+3
   5.98275E+2   3.09456E+2
  -1.34598E+3   1.95461E+3
  -1.30427E+3  -1.10041E+3
  -1.61440E+3  -1.57542E+3
  -1.26345E+3  -1.59789E+3
   1.44193E+3   3.71525E+2
   1.15541E+3   1.43681E+2
  -1.01115E+2   2.76306E+3
   1.49427E+3   8.08038E+2
   4.92456E+2   9.67712E+2
  -2.66691E+2  -1.58587E+2
  -5.38792E+2  -2.85539E+2
  -1.67177E+3  -5.72286E+2
   7.64673E+1  -3.40036E+2
   1.74090E+3  -1.02052E+3
   1.61275E+3  -1.15196E+2
   4.72891E+2  -5.05053E+1
  -5.40948E+2  -2.59788E+2
  -6.57151E+2  -1.83575E+3
  -7.24760E+2  -1.16087E+3
  -1.04204E+3   3.43718E+2
   2.11021E+2  -5.57961E+2
  -9.50669E+2  -5.86777E+2
  -1.01009E+3   9.52577E+2
   1.60073E+3  -5.98042E+2
  -3.78213E+2   6.54055E+2
  -1.08902E+2   1.47060E+3
  -1.53925E+3  -8.61412E+2
  -1.52642E+3   5.65134E+1
  -8.60291E+2   6.60098E+2
  -1.94778E+3  -2.40172E+3
   9.11197E+2  -1.05244E+3
   1.30274E+3  -7.55690E+2
   2.59141E+1   3.40819E+2
  -5.68439E+2   2.94848E+2
  -1.81498E+2   1.81050E+3
   2.84439E+3  -4.77368E-1
  -3.47982E+2   1.56211E+2
  -7.56584E+2   1.33499E+3
  -2.48682E+3  -1.08420E+3
   5.99047E+2   1.01555E+3
   1.05476E+3  -4.49791E+2
   9.05275E+2  -4.61516E+1
   1.64719E+1  -8.24980E+2
  -3.73135E+2  -6.36470E+2
   1.27493E+3  -8.89007E+2
   9.96480E+2   3.15765E+2
  -1.18538E+2   5.68376E+2
  -3.13136E+1  -8.27688E+2
  -8.67268E+2  -2.60761E+2
  -7.18974E+2   1.02465E+3
  -9.80009E+1   4.85229E+2
   9.18641E+2  -9.39671E+1
   8.21184E+1   1.54746E+3
  -1.73819E+3  -2.37791E+2
  -3.74623E+2   4.53308E+2
  -5.73455E+2  -4.02719E+2
  -3.07889E+2  -5.21178E+2
   1.08427E+3   8.36739E+2
   3.94106E+2  -6.23207E+2
   9.05559E+2   2.33700E+2
   1.35296E+2   3.79708E+2
   3.24979E+2   1.34492E+3
  -1.16697E+3  -3.01565E+1
  -8.65155E+2  -1.57466E+2
  -1.14204E+3   1.07892E+2
  -5.10043E+2   1.02170E+3
   1.89214E+2   3.67200E+2
  -1.34511E+3  -3.65995E+2
  -4.58805E+2   1.91001E+3
  -1.12130E+2  -6.02309E+2
   1.14354E+3  -5.26312E+2
   1.36273E+3   4.43490E+2
   1.21660E+3   1.15767E+3
  -5.51409E+2   1.89482E+3
   4.91780E+2   1.27010E+3
   4.97909E+2   1.05039E+3
   5.18036E+1  -1.00909E+3
  -2.11011E+3  -5.27131E+2
   2.49149E+2   1.77947E+3
  -6.00765E+1   9.55950E+2
  -9.92208E+2  -3.21007E+2
   5.89857E+2   1.17738E+3
  -1.62749E+3   2.38840E+2
  -7.47679E+2  -6.21516E+1
  -1.24737E+3   3.63925E+2
   6.12912E+2  -1.26591E+3
   5.71513E+2  -6.44688E+1
  -8.74074E+2   9.27519E+2
   7.07019E+2   7.11520E+2
   5.28320E+2   1.02409E+3
   1.02479E+3   3.14898E+2
  -1.63294E+3  -2.25299E+2
   1.09423E+3  -9.50756E+2
  -8.83296E+2   3.49929E+2
   6.33169E+2   1.31289E+3
   1.49905E+3   9.04312E+2
   3.55667E+2   1.32230E+3
   7.75137E+2  -1.12241E+3
   1.12555E+3   6.34865E+2
   7.55303E+2  -1.24191E+3
   2.92390E+3   4.25158E+1
  -2.06192E+1   3.85781E+2
  -8.34664E+1  -5.60554E+2
   1.28795E+2   2.18117E+3
  -5.51514E+2   2.93676E+2
  -1.40969E+3  -3.53912E+2
   1.34585E+3   9.46245E+1
   5.33700E+2  -7.89875E+2
   8.74103E+2   1.19348E+3
  -1.17351E+3   9.70160E+2
  -1.38151E+3  -9.68534E+2
   6.18675E+2  -2.99204E+1
   2.23537E+2   1.37692E+3
   3.81152E+2   1.05904E+3
   1.31659E+2  -7.29352E+2
  -1.50869E+3   5.20447E+2
   1.10214E+3  -2.48304E+2
  -8.40747E+2   1.07563E+2
  -9.17215E+2  -8.70831E+2
   1.58233E+3   4.16683E+2
  -1.83067E+2  -2.48195E+3
   1.54638E+3   9.07962E+2
   1.57324E+3  -3.50310E+2
  -1.95859E+3   1.91532E+2
   5.12425E+2   1.36800E+3
  -2.28249E+3   6.34123E+2
  -1.00264E+3   1.29523E+3
  -6.30056E+2  -5.25743E+2
   6.69137E+2  -3.11282E+2
   9.13743E+2  -7.13416E+2
   2.22084E+2   2.34186E+3
   3.03321E+2   3.59416E+2
   1.19060E+3  -9.41838E+2
   1.01553E+3   4.78713E+2
  -5.61758E+2  -2.13083E+2
   1.81199E+2   1.37159E+3
  -7.25558E+2  -1.49766E+3
  -1.96490E+3  -2.09312E+3
   2.93231E+3   8.50456E+2
   1.59502E+2   2.33911E+2
  -1.18146E+3  -1.09267E+3
  -3.84173E+2  -4.49680E+1
   1.36360E+3   7.17336E+2
  -1.47176E+3   1.02813E+3
   1.99263E+3  -1.05101E+3
   3.74198E+1  -1.95953E+1
  -1.44783E+3  -7.52473E+2
   1.40151E+3  -4.30006E+2
   3.58403E+2  -1.02879E+3
   7.24348E+1  -8.59457E+2
  -9.84243E+2   1.06362E+2
  -1.14838E+3   8.22672E+2
   1.88514E+1   4.88544E+2
   1.42063E+3   4.11157E+2
   1.00581E+3  -2.74035E+2
  -7.46696E+2   5.90208E+2
  -6.32790E+2  -6.50091E+2
   6.10391E+2   1.88310E+3
   1.98511E+3  -2.80216E+1
   4.07025E+2  -4.08238E+2
   3.33206E+2  -1.65437E+3
   1.56107E+3   1.09363E+3
   5.32458E+2  -9.46243E+2
  -1.41734E+3  -1.97719E+3
   3.42601E+3   5.47527E+2
   4.68879E+2  -4.48712E+2
   7.73580E+1  -1.80762E+2
   3.16154E+2   7.84843E+2
