 
 $NMID
 ID=''
 FMTDAT='(2E13.5)'
 TRAMP=   1.00000E+0
 VOLUME=   1.00000E+0
 $END
   1.10711E+3   3.33584E+2
  -1.01786E+3   1.45271E+3
   5.77490E+3  -1.84557E+3
  -8.93710E+2  -1.27694E+3
  -7.90303E+1  -1.80566E+3
   6.00913E+2  -1.16216E+3
  -2.06626E+3  -7.97113E+2
  -1.76406E+3  -1.58536E+3
   8.58778E+2  -2.13499E+3
   8.78405E+2  -2.32225E+3
   1.51187E+3  -3.69522E+2
   3.28160E+3   2.11992E+3
  -4.38291E+2   9.59549E+1
  -4.78180E+3  -7.43627E+2
  -2.80769E+3  -5.94866E+3
   1.92838E+3  -4.28071E+3
   4.12216E+3  -1.95613E+1
   8.91330E+2   1.53408E+3
  -4.39720E+3  -9.35155E+2
  -5.56368E+2  -4.26614E+3
   4.06879E+3  -3.40639E+3
  -2.76113E+2   4.64073E+3
  -4.25799E+3   5.23260E+2
  -2.21460E+3  -6.69007E+3
   3.43301E+3   4.63678E+2
  -7.53407E+2   5.06492E+3
  -3.70706E+3  -5.69810E+2
   2.26609E+3  -5.60753E+3
   4.51076E+3  -2.89930E+3
   6.06795E+3   5.57112E+2
   1.61294E+3   7.97618E+3
  -7.36392E+3   3.95800E+3
  -3.32725E+3  -2.09520E+3
   6.36630E+2  -1.03353E+3
   1.19009E+2   1.67347E+3
  -1.16781E+3  -4.05273E+3
   3.26871E+3  -7.34436E+2
   3.68967E+3   3.19791E+3
   9.26362E+2   3.45440E+3
   8.21173E+2   4.72833E+3
  -2.03675E+3   2.60445E+3
  -5.41775E+3  -1.93344E+2
   1.19553E+3  -3.76236E+3
   2.16297E+3  -3.08087E+3
   5.35685E+2   6.20060E+2
  -5.66342E+2   8.41904E+2
  -6.30572E+2   3.57075E+3
  -1.83415E+3   4.90092E+3
  -4.49375E+3   2.60711E+3
  -5.43494E+3   3.69741E+1
  -1.86035E+3  -4.93920E+3
   2.17733E+3  -4.49203E+3
   5.42464E+3   6.81020E+2
   2.86730E+3   3.78736E+3
  -2.78383E+3   6.38003E+2
  -2.27449E+3   6.32937E+2
  -4.33236E+3  -8.94234E+2
  -3.97624E+3  -4.12632E+3
   2.21032E+2  -6.75198E+3
   5.24328E+3  -3.08580E+3
   4.93063E+3   1.88285E+3
   1.44302E+3   4.38526E+3
  -1.50292E+3   4.17847E+3
  -3.06464E+3   3.70423E+2
   1.95335E+3  -2.43815E+3
   3.39031E+3   1.15116E+3
  -9.03106E+1   3.40752E+3
  -9.37270E+2   2.97121E+3
  -3.39617E+2  -3.14364E+2
  -2.03373E+3   1.29021E+3
  -6.92292E+2   1.65106E+3
  -3.45399E+2   1.09597E+3
  -9.17298E+2  -7.04510E+2
  -1.08770E+1  -1.99469E+3
   1.67076E+3   1.51443E+3
   8.08446E+2   1.45786E+3
  -3.16142E+3  -3.40609E+2
  -1.25109E+3   1.49420E+2
   4.33210E+2   3.25279E+2
   8.32725E+2   1.00064E+3
   5.25626E+1  -4.51842E+2
   7.16526E+2   2.98507E+2
   1.99163E+3   3.63173E+3
   6.85945E+2   3.16837E+3
  -2.44040E+3   1.72726E+3
  -3.31639E+3  -3.70920E+3
   5.39211E+2  -3.85897E+3
   3.14864E+3  -3.52443E+3
   3.55938E+3   2.39623E+2
   2.88521E+3   8.01677E+2
   1.32712E+3   5.76387E+2
  -6.81975E+2  -1.41811E+3
  -9.93921E+2   2.47562E+3
  -4.43133E+3  -1.38107E+3
  -2.87685E+3  -4.35893E+3
   1.66773E+3  -4.21412E+3
   6.03773E+3   4.44486E+2
   1.41722E+3   3.92411E+3
  -1.60529E+3   6.29242E+2
  -3.02965E+3  -1.14955E+3
  -8.82575E+2  -3.97601E+3
   2.39292E+3  -1.19189E+3
   3.71810E+2   2.59720E+3
   1.02521E+3   1.04850E+3
  -4.06878E+2  -2.03350E+3
   1.23289E+3  -1.20334E+3
  -9.49843E+2   2.57694E+3
  -2.96318E+3   8.20755E+2
  -3.09111E+3  -8.93216E+2
   5.09030E+2  -3.21485E+3
   3.59647E+3  -2.70525E+3
   7.55151E+2   9.25776E+2
   1.95913E+3   1.66166E+3
   3.33264E+3   7.35930E+2
   2.21204E+2   2.67541E+3
  -1.54547E+3   3.81874E+2
  -1.85350E+3  -7.29367E+2
  -1.84617E+3   3.98655E+2
   6.64869E+2  -1.51075E+3
   1.91022E+3  -1.73608E+3
   4.60772E+2  -1.70701E+3
  -5.37316E+1  -5.06369E+2
   1.22874E+3   1.83987E+3
   3.25371E+3   1.35304E+3
  -8.17779E+2   1.90873E+3
  -2.87260E+3   3.03547E+2
  -4.78281E+2   4.55699E+2
  -8.60077E+2  -4.98438E+2
  -6.36794E+2  -1.30036E+3
   1.11015E+3  -5.87212E+2
   2.67499E+3  -1.88055E+3
   2.69101E+3   2.93324E+2
   4.29147E+3   3.22274E+3
  -1.36011E+3   3.94106E+3
  -3.25554E+3   1.18053E+3
  -4.60255E+3  -5.98545E+2
  -2.17524E+3  -1.91119E+3
  -2.83136E+2  -2.75513E+3
   7.77197E+2  -1.13262E+3
   1.49885E+3  -1.69955E+3
   1.13865E+3  -6.51657E+2
  -1.64722E+2  -5.80765E+2
   5.96804E+2  -4.66438E+2
   4.54629E+1   6.53386E+2
  -6.51211E+2  -1.27019E+3
  -1.57790E+3  -1.18963E+3
  -1.15114E+3  -2.28256E+3
  -1.45764E+2  -1.15088E+3
   1.09777E+3  -2.29077E+3
  -1.36104E+3  -2.28317E+2
   9.59910E+2   4.54012E+2
  -7.73033E+1  -1.13423E+3
  -4.37374E+2  -8.10175E+2
  -2.65678E+3  -1.67617E+3
  -7.10771E+2   7.75373E+2
   3.00723E+2  -2.11478E+2
  -7.36310E+1  -2.96286E+3
   1.57543E+3  -3.23261E+3
  -1.03595E+1  -3.43884E+2
   1.04957E+3  -8.55573E+2
   3.43102E+2   1.66936E+3
  -9.37494E+2   1.64290E+3
  -2.14203E+2   9.89256E+2
  -8.29894E+2   1.29895E+3
  -6.10161E+2   1.46358E+3
  -2.27668E+3  -1.26694E+2
  -9.61074E+2  -2.13906E+3
   1.58446E+3  -8.30229E+2
   2.06912E+3  -8.67778E+2
   6.02353E+2   2.00614E+3
  -3.31581E+2   2.97278E+2
   2.49496E+1   1.70542E+3
   4.77669E+2   2.37169E+3
  -1.70029E+3   2.87924E+3
  -2.19174E+3  -1.01983E+3
  -9.85629E+2  -2.05573E+3
   6.70229E+2   3.40930E+2
  -8.10709E+2  -1.43932E+3
  -9.69526E+2   3.49671E+2
  -6.09843E+1   1.62232E+3
   2.07250E+3   1.83096E+3
   2.08438E+3  -1.15017E+3
  -1.48621E+3   1.52396E+3
  -1.60750E+3   1.93850E+2
  -1.99561E+3   5.94092E+2
  -1.89953E+3  -4.99811E+2
  -2.13362E+2  -1.68896E+3
   7.79466E+2  -1.05699E+3
  -1.04787E+3  -7.27118E+2
   1.09392E+3  -7.84041E+2
   2.44687E+3   3.30943E+2
   9.99066E+2   2.94231E+3
   9.71408E+1   2.29232E+3
   2.36957E+2   9.67379E+2
  -1.85550E+3   2.05736E+3
  -2.26080E+2   1.18342E+3
  -1.90621E+3  -1.07187E+3
  -4.79456E+2   3.33699E+2
   1.23592E+3  -1.01518E+3
   1.18802E+3  -1.33645E+3
   7.73219E+2  -6.68977E+1
   5.25548E+1  -2.16980E+3
   4.63725E+2  -4.30088E+2
  -2.36129E+2   1.13937E+3
   1.51733E+3   1.24277E+3
  -2.03789E+3   5.60197E+2
  -1.24007E+3  -1.25520E+3
  -4.58839E+1  -1.78835E+3
   2.86467E+2   6.77201E+2
  -6.18036E+2  -4.66982E+2
   1.82029E+2   4.14352E+2
   1.87883E+3   6.93248E+2
   2.31963E+3   5.03525E+2
   1.79608E+3   8.61772E+2
   3.56522E+2   9.24671E+2
  -1.10793E+3  -2.64252E+2
  -2.49287E+3  -4.20662E+2
  -1.93427E+3   5.79433E+2
  -1.04312E+3   9.10736E+2
  -9.96930E+2  -1.37554E+3
   7.92999E+2  -6.89726E+2
   6.27268E+1  -5.52987E+2
   2.26728E+3  -8.76824E+1
   2.69580E+3  -2.89684E+1
   1.98069E+3   1.45474E+3
  -8.47552E+2   1.01964E+3
   8.90376E+2   1.86877E+3
  -1.58097E+3   2.42063E+3
  -3.53910E+3   5.02620E+2
  -2.45020E+2   8.46773E+2
  -1.19346E+3  -2.47814E+3
   3.96213E+2   2.82321E+1
  -5.30542E+1  -1.43019E+3
   2.46330E+3  -2.58462E+3
   1.24781E+3   6.77231E+2
   1.36366E+3   1.79080E+3
  -8.78661E+2   2.11210E+3
  -4.23607E+2   2.39502E+3
  -9.90273E+2  -1.10895E+3
  -5.34624E+2   3.37107E+2
  -1.34697E+3   1.24633E+3
   6.77431E+2  -6.93659E+2
  -8.63553E+2  -3.03257E+3
   5.29816E+2  -1.40639E+3
   6.57386E+2  -1.05560E+3
   1.45761E+3  -5.82688E+2
   4.02548E+2  -1.63379E+2
   1.08688E+2  -1.66349E+2
   1.39679E+3   8.75213E+2
  -1.86143E+3   3.07537E+3
   1.26505E+3   1.58274E+3
  -4.73031E+2  -6.33890E+2
   1.57871E+2  -4.45038E+2
  -3.51115E+2  -1.90423E+3
  -1.14035E+3  -9.58023E+2
   9.32453E+2  -1.86984E+3
   1.11923E+3  -1.18519E+3
   4.02248E+2   2.93005E+2
   6.28826E+2   3.23142E+2
   2.88193E+3  -4.60597E+2
   8.88284E+2   1.91375E+3
   2.51188E+2  -1.25899E+3
   1.58120E+3   3.06511E+2
  -2.00326E+3  -4.75092E+2
  -5.50367E+2  -4.62690E+2
   3.91085E+2  -1.46222E+3
   5.76919E+2  -3.12448E+2
  -7.62224E+2  -1.65495E+2
  -1.12462E+3  -2.42376E+3
   4.74989E+2   2.09390E+2
   1.44022E+1  -1.14820E+3
  -4.85595E+2   4.31145E+2
   1.34068E+3  -1.34407E+3
   2.12423E+3  -7.51432E+2
  -4.04999E+2   8.08327E+2
  -1.48601E+3  -2.48782E+3
   4.77640E+2   2.76884E+2
  -7.98176E+2   1.83566E+3
  -1.06171E+3   2.76105E+2
  -1.04071E+3   2.81333E+2
  -1.25982E+3  -1.21770E+3
  -6.87543E+2  -2.70047E+3
  -9.76621E+1  -2.81478E+3
   4.53970E+2  -2.41140E+3
   2.04111E+3   1.64946E+2
   6.42028E+2  -6.37829E+2
   1.42436E+3   6.89614E+2
   1.65035E+2  -9.47808E+1
  -1.05988E+3   5.54537E+1
   8.72573E+2  -2.07827E+2
  -1.74518E+3   4.53142E+2
  -1.47398E+3   4.55034E+2
  -1.92248E+3   4.06530E+2
   2.72290E+1  -2.30558E+2
   5.84098E+2  -7.52466E+2
   8.83878E+2  -1.56125E+3
   2.23196E+3  -2.66582E+3
   1.05071E+2  -2.45009E+3
  -1.32769E+3   4.33121E+2
  -6.22509E+2   8.50998E+2
   1.12545E+3   1.57011E+3
   2.25672E+3   2.03075E+3
   1.98796E+3   2.67317E+3
  -3.32364E+2  -2.58386E+2
  -2.10278E+3  -1.40732E+3
  -2.77737E+3  -2.51006E+2
  -7.09161E+2  -9.47613E+2
  -3.10290E+2  -2.04937E+3
  -1.30150E+3  -1.20646E+3
   1.37038E+3  -1.31928E+2
   4.32605E+2  -8.87820E+2
  -3.20431E+2   5.48468E+2
   4.91435E+2   1.97393E+3
   1.14459E+3   1.99494E+3
   3.20955E+2   1.58189E+3
  -1.50814E+3   1.52611E+3
  -7.30951E+2   5.97226E+2
  -1.76903E+3  -1.27449E+2
  -2.14504E+3  -2.26313E+2
   1.02538E+3  -1.01387E+3
  -5.01576E+2  -1.79923E+2
   8.57149E+2  -1.57764E+3
  -1.36124E+3  -6.56749E+2
  -9.28546E+2  -6.03984E+2
   1.02755E+3  -5.09075E+2
  -7.51446E+2  -2.02871E+3
  -5.51654E+2   7.25538E+1
   7.72205E+2  -9.02282E+2
  -6.61849E+2  -3.09345E+2
  -6.59729E+2   2.20481E+3
   3.83011E+1  -1.14874E+3
  -1.53386E+3   2.89021E+2
  -1.65581E+3   1.48517E+3
  -1.08347E+3  -1.89016E+3
  -5.48828E+2  -3.70189E+2
  -6.36760E+2   9.61302E+2
   2.92873E+2   9.36356E+2
  -1.28944E+3   1.42545E+3
  -2.27343E+3   1.79070E+2
  -9.62593E+2  -9.94525E+2
   2.18754E+2   1.53380E+3
   1.83687E+2   2.61214E+2
   3.40863E+1  -1.17992E+3
  -2.39096E+2   9.45198E+2
  -8.39362E+1  -2.55041E+2
   6.22237E+1   1.04317E+3
  -7.36251E+2   5.57594E+2
  -2.69089E+3  -1.14423E+3
  -2.51684E+2  -1.44212E+2
  -1.09676E+3   2.55838E+2
   2.31448E+2   3.17483E+2
  -1.56440E+2  -1.37856E+3
  -1.80241E+2   7.57070E+2
   7.51897E+2  -5.69791E+2
   1.35883E+3  -1.55082E+3
   3.16977E+2   5.20839E+2
   2.00730E+3   1.06329E+3
  -9.49544E+2   1.38104E+3
  -4.83736E+2  -1.26512E+3
   2.17708E+1  -1.71785E+3
   2.83194E+2   8.59951E+2
   4.29171E+2   1.14695E+2
   8.76394E+1  -1.32770E+3
  -1.05841E+3   7.96267E+1
   6.14191E+2  -1.23154E+1
  -1.77577E+3  -9.86238E+2
  -1.00171E+3   1.67756E+2
