 
 $NMID
 ID=''
 FMTDAT='(2E13.5)'
 TRAMP=   1.00000E+0
 VOLUME=   1.00000E+0
 $END
  -1.82678E+4   3.81784E+3
  -4.81556E+4  -3.82057E+3
  -4.81973E+4   4.57699E+3
  -4.45782E+4   4.26470E+3
  -4.64708E+4   3.06164E+3
  -4.62896E+4   5.03714E+3
  -4.45517E+4   4.30118E+3
  -4.52199E+4   3.30560E+3
  -4.50086E+4   4.52578E+3
  -4.37618E+4   4.02873E+3
  -4.40422E+4   3.28302E+3
  -4.37583E+4   4.12570E+3
  -4.28991E+4   3.94531E+3
  -4.31807E+4   3.30117E+3
  -4.28277E+4   3.72886E+3
  -4.19722E+4   3.61738E+3
  -4.21491E+4   3.22155E+3
  -4.18394E+4   3.55621E+3
  -4.11621E+4   3.55411E+3
  -4.10686E+4   3.11960E+3
  -4.07996E+4   3.39793E+3
  -4.01237E+4   3.52294E+3
  -4.02089E+4   3.26717E+3
  -3.98497E+4   3.44917E+3
  -3.92758E+4   3.42336E+3
  -3.91194E+4   3.35848E+3
  -3.89056E+4   3.42391E+3
  -3.83812E+4   3.20529E+3
  -3.83054E+4   3.11697E+3
  -3.80692E+4   3.14751E+3
  -3.76552E+4   3.19914E+3
  -3.75228E+4   3.19545E+3
  -3.74155E+4   3.15084E+3
  -3.71084E+4   3.09826E+3
  -3.69611E+4   3.03055E+3
  -3.68228E+4   3.02753E+3
  -3.65204E+4   3.07123E+3
  -3.63186E+4   3.03086E+3
  -3.61648E+4   3.03131E+3
  -3.59139E+4   2.99090E+3
  -3.58108E+4   2.86737E+3
  -3.56227E+4   2.73025E+3
  -3.53288E+4   2.58814E+3
  -3.50728E+4   2.49613E+3
  -3.49445E+4   2.47678E+3
  -3.46848E+4   2.44831E+3
  -3.45333E+4   2.38762E+3
  -3.43825E+4   2.28175E+3
  -3.41158E+4   2.27234E+3
  -3.39345E+4   2.15172E+3
  -3.37694E+4   2.06111E+3
  -3.34543E+4   1.93867E+3
  -3.32278E+4   1.94550E+3
  -3.30799E+4   1.98937E+3
  -3.28341E+4   1.87431E+3
  -3.26776E+4   1.79093E+3
  -3.24745E+4   1.69561E+3
  -3.23677E+4   1.55274E+3
  -3.20495E+4   1.49371E+3
  -3.16866E+4   1.37221E+3
  -3.15271E+4   1.36467E+3
  -3.12610E+4   1.25917E+3
  -3.10779E+4   1.26016E+3
  -3.07993E+4   1.10397E+3
  -3.05773E+4   1.01229E+3
  -3.03422E+4   1.06041E+3
  -3.01642E+4   1.10644E+3
  -2.98660E+4   1.00818E+3
  -2.96423E+4   9.05048E+2
  -2.94285E+4   9.41881E+2
  -2.91708E+4   9.40506E+2
  -2.90167E+4   8.73983E+2
  -2.88489E+4   8.53911E+2
  -2.85755E+4   7.93794E+2
  -2.83541E+4   8.41742E+2
  -2.82046E+4   8.96159E+2
  -2.80044E+4   8.94199E+2
  -2.77793E+4   7.91410E+2
  -2.75187E+4   8.15436E+2
  -2.73039E+4   8.07846E+2
  -2.70640E+4   8.22778E+2
  -2.69695E+4   8.36873E+2
  -2.67567E+4   8.27241E+2
  -2.65319E+4   7.10060E+2
  -2.63463E+4   8.25625E+2
  -2.61515E+4   7.34840E+2
  -2.59048E+4   7.25064E+2
  -2.57129E+4   6.75972E+2
  -2.55352E+4   7.76956E+2
  -2.53912E+4   8.05473E+2
  -2.51761E+4   7.67710E+2
  -2.49977E+4   8.22453E+2
  -2.48281E+4   9.06358E+2
  -2.46241E+4   9.42992E+2
  -2.45258E+4   8.93488E+2
  -2.42728E+4   9.07616E+2
  -2.40890E+4   9.27114E+2
  -2.40127E+4   1.02705E+3
  -2.38043E+4   9.26180E+2
  -2.36258E+4   9.49583E+2
  -2.34062E+4   8.93430E+2
  -2.32237E+4   9.70340E+2
  -2.30579E+4   9.85080E+2
  -2.28902E+4   9.45408E+2
  -2.27326E+4   9.55646E+2
  -2.25978E+4   9.98723E+2
  -2.23988E+4   1.00040E+3
  -2.22109E+4   1.00643E+3
  -2.20408E+4   9.94001E+2
  -2.18280E+4   9.33598E+2
  -2.16413E+4   9.58622E+2
  -2.14459E+4   1.09150E+3
  -2.13360E+4   1.06230E+3
  -2.11868E+4   1.00417E+3
  -2.10711E+4   9.97612E+2
  -2.08958E+4   1.05118E+3
  -2.07614E+4   1.01853E+3
  -2.05242E+4   1.03817E+3
  -2.03653E+4   1.01110E+3
  -2.01903E+4   1.02119E+3
  -2.00867E+4   9.70832E+2
  -1.98828E+4   1.00984E+3
  -1.96902E+4   8.71214E+2
  -1.94621E+4   9.59731E+2
  -1.93780E+4   9.44771E+2
  -1.92287E+4   9.74946E+2
  -1.91061E+4   9.09261E+2
  -1.89452E+4   1.01147E+3
  -1.88721E+4   9.96107E+2
  -1.86180E+4   9.30038E+2
  -1.84759E+4   9.40922E+2
  -1.83681E+4   8.92419E+2
  -1.81811E+4   8.84816E+2
  -1.80081E+4   9.57080E+2
  -1.78914E+4   9.32358E+2
  -1.77069E+4   9.08234E+2
  -1.76703E+4   8.79981E+2
  -1.74957E+4   8.57923E+2
  -1.72998E+4   8.40547E+2
  -1.71671E+4   8.05100E+2
  -1.69964E+4   7.73716E+2
  -1.68900E+4   8.12008E+2
  -1.67261E+4   8.07626E+2
  -1.66149E+4   7.71399E+2
  -1.65271E+4   7.14128E+2
  -1.63469E+4   6.66317E+2
  -1.62683E+4   6.62010E+2
  -1.61029E+4   6.99049E+2
  -1.59166E+4   6.21179E+2
  -1.58559E+4   6.21821E+2
  -1.56910E+4   5.74363E+2
  -1.55904E+4   5.30675E+2
  -1.54448E+4   5.24547E+2
  -1.52251E+4   5.74606E+2
  -1.51307E+4   5.70353E+2
  -1.49683E+4   5.81803E+2
  -1.49338E+4   5.14220E+2
  -1.47809E+4   5.13961E+2
  -1.46844E+4   4.81827E+2
  -1.45709E+4   5.39132E+2
  -1.45114E+4   4.52125E+2
  -1.43268E+4   4.29834E+2
  -1.42092E+4   4.01240E+2
  -1.40857E+4   3.29446E+2
  -1.39717E+4   3.42021E+2
  -1.38953E+4   3.35877E+2
  -1.36926E+4   2.78976E+2
  -1.35416E+4   2.76186E+2
  -1.35189E+4   2.42234E+2
  -1.33856E+4   2.05348E+2
  -1.32504E+4   2.38372E+2
  -1.31291E+4   1.78805E+2
  -1.29890E+4   2.10183E+2
  -1.28830E+4   2.19968E+2
  -1.27825E+4   2.18786E+2
  -1.26673E+4   1.53861E+2
  -1.25029E+4   1.04908E+2
  -1.24296E+4   1.51645E+2
  -1.23294E+4   1.49410E+2
  -1.22834E+4   1.58574E+2
  -1.21379E+4   1.38168E+2
  -1.20293E+4   4.43216E+1
  -1.19544E+4   5.30595E+1
  -1.18455E+4   1.01999E+2
  -1.17238E+4   7.59578E+1
  -1.16306E+4   6.36691E+1
  -1.14767E+4   4.08364E+1
  -1.13807E+4   5.34867E+1
  -1.13680E+4   2.83775E+1
  -1.12047E+4  -3.35814E+1
  -1.10772E+4   6.50790E+1
  -1.09413E+4   7.96211E+1
  -1.08408E+4  -8.76076E+0
  -1.07938E+4  -1.60056E+1
  -1.07763E+4   1.14344E+1
  -1.06181E+4   3.11415E+1
  -1.05179E+4  -4.77866E+1
  -1.04081E+4  -3.10492E+1
  -1.03710E+4  -1.13987E+2
  -1.02734E+4  -6.35920E+1
  -1.01882E+4  -9.67287E+1
  -1.00555E+4   2.07266E+0
  -9.97550E+3  -3.37171E+1
  -9.92913E+3  -6.42178E+1
  -9.72503E+3  -8.69097E+1
  -9.71509E+3  -1.40740E+2
  -9.60097E+3  -1.27764E+2
  -9.50627E+3  -1.85276E+2
  -9.43622E+3  -1.81522E+2
  -9.37657E+3  -1.54008E+2
  -9.27463E+3  -1.46262E+2
  -9.24287E+3  -1.08192E+2
  -9.04174E+3  -2.09164E+2
  -8.94696E+3  -1.74285E+2
  -8.85448E+3  -1.90992E+2
  -8.82531E+3  -1.24327E+2
  -8.69781E+3  -2.12382E+2
  -8.66246E+3  -2.11178E+2
  -8.57249E+3  -2.13953E+2
  -8.49318E+3  -1.66967E+2
  -8.41545E+3  -1.63253E+2
  -8.24510E+3  -1.98486E+2
  -8.21304E+3  -1.96980E+2
  -8.10585E+3  -2.04310E+2
  -8.02044E+3  -2.33508E+2
  -7.92080E+3  -1.88451E+2
  -7.93706E+3  -1.78652E+2
  -7.80502E+3  -2.11637E+2
  -7.71469E+3  -2.57097E+2
  -7.66103E+3  -2.48537E+2
  -7.61190E+3  -2.06013E+2
  -7.52964E+3  -2.70258E+2
  -7.46563E+3  -2.78902E+2
  -7.33010E+3  -2.42514E+2
  -7.26681E+3  -2.91860E+2
  -7.18754E+3  -1.99665E+2
  -7.15542E+3  -3.02333E+2
  -7.07150E+3  -2.71652E+2
  -6.96009E+3  -2.77289E+2
  -7.00770E+3  -2.50053E+2
  -6.89000E+3  -2.85099E+2
  -6.80426E+3  -2.89428E+2
  -6.72766E+3  -1.94634E+2
  -6.61737E+3  -2.73906E+2
  -6.57655E+3  -1.84436E+2
  -6.42857E+3  -3.19296E+2
  -6.51795E+3  -2.24626E+2
  -6.40776E+3  -2.75398E+2
  -6.34471E+3  -3.18421E+2
  -6.23789E+3  -2.18119E+2
  -6.20958E+3  -2.76968E+2
  -6.13755E+3  -2.13765E+2
  -6.09670E+3  -2.71141E+2
  -5.99310E+3  -1.70191E+2
  -5.87037E+3  -2.66772E+2
  -5.87585E+3  -2.43624E+2
  -5.85386E+3  -2.45798E+2
  -5.80796E+3  -1.86389E+2
  -5.73108E+3  -2.04971E+2
  -5.72024E+3  -2.02752E+2
  -5.66031E+3  -2.29974E+2
  -5.52858E+3  -2.22476E+2
  -5.47975E+3  -2.63605E+2
  -5.46998E+3  -2.75277E+2
  -5.32702E+3  -2.37349E+2
  -5.33849E+3  -2.44360E+2
  -5.28402E+3  -1.94535E+2
  -5.17414E+3  -2.58299E+2
  -5.17267E+3  -1.94609E+2
  -5.11142E+3  -2.35259E+2
  -5.08524E+3  -1.98268E+2
  -4.95481E+3  -2.50501E+2
  -4.99643E+3  -1.67882E+2
  -4.94790E+3  -1.62340E+2
  -4.85858E+3  -1.70412E+2
  -4.83717E+3  -1.76514E+2
  -4.79094E+3  -2.41222E+2
  -4.73845E+3  -1.74104E+2
  -4.69791E+3  -1.75673E+2
  -4.64583E+3  -2.08703E+2
  -4.55967E+3  -1.49660E+2
  -4.54307E+3  -1.47950E+2
  -4.49848E+3  -2.31276E+2
  -4.47039E+3  -1.35742E+2
  -4.38171E+3  -1.43882E+2
  -4.32925E+3  -1.77155E+2
  -4.31554E+3  -1.49750E+2
  -4.21178E+3  -1.73142E+2
  -4.20680E+3  -1.10594E+2
  -4.25778E+3  -1.50188E+2
  -4.19704E+3  -1.54795E+2
  -4.06110E+3  -9.53676E+1
  -4.00199E+3  -1.03632E+2
  -4.00707E+3  -7.20161E+1
  -4.02873E+3  -5.05917E+1
  -3.90009E+3  -4.04225E+1
  -3.93667E+3  -1.24309E+2
  -3.91861E+3  -7.82141E+1
  -3.85466E+3  -1.94921E+2
  -3.82747E+3  -1.12371E+2
  -3.77156E+3  -6.47103E+1
  -3.71139E+3  -1.09784E+2
  -3.75429E+3  -6.75289E+1
  -3.68964E+3  -1.38919E+2
  -3.59444E+3  -2.53031E+1
  -3.58556E+3  -8.61208E+1
  -3.57655E+3  -4.59900E+1
  -3.58179E+3  -3.16028E+1
  -3.41610E+3  -3.77240E+1
  -3.50404E+3  -5.36647E+1
  -3.39813E+3  -4.84798E+1
  -3.34701E+3  -6.69550E+1
  -3.35527E+3  -4.44183E+1
  -3.32244E+3   2.10919E+1
  -3.29961E+3   2.33145E+1
  -3.27011E+3   4.44825E+0
  -3.28089E+3  -1.71251E+1
  -3.19041E+3  -4.91370E+1
  -3.16638E+3   4.97641E+1
  -3.09665E+3   2.14870E+1
  -3.12320E+3  -3.49529E+0
  -3.02589E+3  -2.95720E+1
  -2.99800E+3  -1.63232E+1
  -3.02558E+3  -6.39851E+0
  -2.98179E+3   2.36734E-1
  -2.90948E+3   3.29413E+1
  -2.88360E+3   3.20447E+1
  -2.84173E+3   1.91685E+1
  -2.84495E+3   1.85971E+1
  -2.77595E+3   2.47127E+1
  -2.83147E+3   1.92667E+1
  -2.79259E+3   7.24119E+1
  -2.72759E+3   4.44131E+1
  -2.65012E+3  -1.83715E+1
  -2.62396E+3   1.02353E+1
  -2.59238E+3   1.40269E+2
  -2.56838E+3   5.15598E+1
  -2.56597E+3   5.43214E+1
  -2.57708E+3   1.21644E+2
  -2.52652E+3   7.25474E+1
  -2.47186E+3   5.62469E+1
  -2.45716E+3   1.21642E+2
  -2.44347E+3   5.14092E+1
  -2.41888E+3   1.23118E+2
  -2.36701E+3   9.03786E+1
  -2.31385E+3   1.09479E+2
  -2.30805E+3   1.32994E+2
  -2.27686E+3   1.46553E+2
  -2.28673E+3   8.99505E+1
  -2.23396E+3   1.08117E+2
  -2.27999E+3   1.34920E+2
  -2.23707E+3   1.59152E+2
  -2.10892E+3   1.57864E+2
  -2.18771E+3   1.79692E+2
  -2.15936E+3   1.47034E+2
  -2.06121E+3   2.09587E+2
  -2.16547E+3   1.89671E+2
  -2.08274E+3   1.87626E+2
  -2.14223E+3   1.75222E+2
  -2.04787E+3   2.35901E+2
  -2.02802E+3   2.33782E+2
  -1.97467E+3   2.20643E+2
  -1.95526E+3   2.05928E+2
  -1.96116E+3   2.55031E+2
  -1.94607E+3   2.50742E+2
  -1.88661E+3   2.07507E+2
  -1.88825E+3   2.70551E+2
