 
 $NMID
 ID=''
 FMTDAT='(2E13.5)'
 TRAMP=   1.00000E+0
 VOLUME=   1.00000E+0
 $END
  -1.32912E+2  -8.91101E+1
  -3.86256E+2   2.54860E+3
   1.51149E+3  -1.64209E+3
   3.52351E+3   9.68974E+2
   2.42468E+3  -1.67591E+3
   2.79783E+3  -3.19573E+3
  -6.13735E+2  -1.00107E+3
  -3.88359E+3  -2.22103E+3
  -4.42470E+3  -2.56799E+3
  -2.91063E+3  -1.05326E+3
  -3.67334E+2  -4.95959E+2
   4.78481E+3   4.07250E+3
   3.42310E+3   6.89513E+3
  -1.10013E+3   2.01578E+3
  -2.20549E+3  -3.08620E+2
   2.91999E+3  -3.01650E+3
   2.28547E+3  -2.42330E+3
   9.45116E+2  -1.36532E+3
  -1.99556E+3  -4.11883E+2
  -2.31671E+3   1.20479E+3
   8.85527E+2  -1.31573E+3
   1.81659E+2   3.88275E+3
  -2.21950E+3   5.80451E+3
  -6.47020E+2  -7.10267E+2
   2.76649E+3  -7.90765E+2
   3.91675E+2   2.80880E+3
   8.82819E+2   7.63434E+2
  -3.25982E+3  -2.82545E+3
  -5.80666E+2  -7.80985E+3
   4.68915E+3  -4.28331E+3
   5.82286E+3   3.99348E+3
  -3.37017E+3   7.23792E+3
  -7.89546E+3   1.11988E+3
  -1.85877E+3  -3.53912E+3
  -1.18552E+3   1.20358E+3
  -4.24861E+3  -3.36557E+3
   2.39365E+3  -3.97025E+3
   7.15701E+3   1.73286E+3
   1.28956E+3   3.79650E+3
   5.51356E+2   1.15913E+3
  -1.60188E+3   6.19440E+3
  -4.33821E+3   3.14405E+3
   4.93457E+2  -6.57484E+3
   6.21036E+3  -5.39557E+3
   7.98585E+3  -3.10354E+3
   3.31017E+3  -3.61304E+2
   3.07604E+3   1.81273E+2
   1.35769E+3   2.18535E+3
   1.52826E+2   3.85214E+3
  -3.62283E+3   1.34095E+3
  -5.46409E+3  -2.04498E+2
  -7.45422E+2  -2.97440E+3
   1.90467E+3  -2.36709E+3
   5.98630E+2  -9.75513E+0
  -1.33066E+3   2.32208E+3
  -3.39604E+3   1.33269E+3
  -4.19878E+3   4.07000E+2
  -6.74033E+3  -2.81394E+3
  -4.40738E+3  -4.85447E+3
  -1.16576E+2  -5.08498E+3
   3.31709E+3  -2.51005E+3
   3.12197E+3  -4.64835E+2
   9.21552E+2   1.38855E+3
  -3.63644E+3   2.14278E+3
  -5.19369E+2  -7.92690E+2
   2.35904E+3   1.04771E+3
  -7.48976E+2   3.94301E+3
  -2.31561E+3   3.25222E+3
  -2.59041E+3  -9.72761E+2
   1.42331E+3  -4.05451E+2
   5.75748E+2   2.12868E+3
  -2.07179E+2   2.98978E+2
  -7.06952E+2  -5.69529E+1
  -1.90481E+2  -2.22367E+3
   2.47692E+3  -1.97093E+3
   1.73215E+3   1.33842E+3
   6.29961E+2  -1.00935E+3
  -1.86774E+2  -2.61309E+3
   3.25054E+3  -1.29360E+3
   2.48801E+3   1.47044E+3
  -1.16287E+2  -1.18474E+3
  -8.48429E+2  -7.45150E+2
   1.04004E+3   7.32106E+2
   1.48232E+3   3.29851E+3
  -3.82481E+3   2.22462E+3
  -6.86624E+2   1.11603E+2
  -2.05109E+3  -1.61532E+3
   3.09298E+3  -4.62310E+3
   4.17185E+3  -8.98286E+2
   2.28223E+3   3.48374E+3
   4.51702E+2   1.07935E+3
   1.23321E+3   2.32449E+2
   8.41149E+2   2.22715E+3
  -1.47448E+3   4.32724E+2
  -2.58548E+3   6.88745E+2
   9.81732E+2  -5.33356E+3
   4.08413E+3  -1.83215E+3
   1.87313E+3   3.36113E+3
  -1.90573E+3   2.94394E+3
  -9.75001E+2  -3.59606E+3
  -7.78396E+2  -3.06857E+3
   1.39832E+3   1.30381E+3
   2.17364E+3   2.18892E+3
  -3.50665E+2   5.40196E+3
  -1.85349E+3   7.95377E+2
  -1.15086E+2   8.78267E+2
   5.27288E+2   1.61689E+3
  -2.82862E+3   2.49676E+3
  -1.38694E+2  -3.80468E+3
   3.04583E+3  -3.04118E+3
   6.11601E+3  -1.00124E+3
   1.41117E+3   1.10447E+3
   2.59000E+3   4.02694E+3
   8.49409E+0   1.14495E+3
  -4.76889E+2   1.23109E+3
  -3.27369E+3   1.75885E+3
  -2.06447E+3  -6.92426E+2
   9.65222E+2  -1.10048E+3
  -1.51623E+2  -2.97501E+3
   2.67323E+3  -3.25273E+3
   4.90571E+2   1.30862E+3
  -1.02145E+2   5.86501E+2
  -4.42533E+3  -7.38419E+2
   2.15045E+3  -3.40466E+2
  -1.14730E+3   3.52281E+2
  -5.24129E+1   1.85232E+3
  -5.64445E+2  -1.99894E+3
   2.11959E+3   2.25465E+3
   5.16705E+2  -8.63400E+2
  -1.06222E+3  -6.51327E+2
   6.18810E+0  -5.16879E+2
   5.65302E+2  -5.85499E+2
   3.52311E+3   4.08114E+2
   2.85912E+3   2.10392E+3
  -5.19670E+3   2.31871E+2
  -2.78383E+3   1.85083E+2
  -4.22828E+2  -6.67168E+2
  -5.18963E+2  -3.07128E+3
  -2.02561E+3   8.65064E+2
   3.46783E+2  -1.28923E+1
  -1.05266E+3  -5.76586E+2
  -6.67628E+2  -3.80268E+2
   4.35135E+2   5.18480E+2
  -3.23821E+3   2.33281E+3
  -7.42666E+2   7.32840E+2
  -1.57083E+3  -1.50550E+3
   4.65510E+2  -7.00122E+2
  -5.21123E+1  -7.72384E+2
   1.40719E+2  -1.02542E+3
   1.82007E+1  -7.50126E+1
  -2.73494E+3   1.10890E+2
  -1.44049E+3  -3.78109E+2
   9.38113E+1  -1.55562E+3
   6.96622E+2  -4.06721E+3
   2.76738E+3   3.20178E+2
   7.33493E+2   1.96754E+2
  -1.51988E+3   1.63160E+3
  -1.42454E+3   1.15498E+3
  -1.66651E+3  -2.72502E+2
  -7.92192E+2   1.01974E+3
  -1.37605E+3   7.70464E+2
  -7.28246E+2  -2.88130E+3
   2.14085E+2  -1.31392E+3
   3.63077E+3  -3.59873E+2
   5.53371E+2   9.84366E+2
  -1.28023E+3   2.39100E+2
  -1.25814E+3  -1.69893E+3
   2.95095E+3  -1.62940E+3
   8.57647E+2   1.71849E+3
   4.07604E+2   1.78748E+2
  -1.22467E+3  -1.21170E+2
  -9.48140E+2  -8.15830E+1
   3.75634E+2  -1.38100E+3
   2.45559E+3  -9.18505E+2
   4.10944E+3   3.46654E+2
   6.34261E+2   4.56019E+2
   1.77255E+3   1.21727E+3
   1.81503E+3   1.66943E+3
  -1.73559E+3   7.21286E+2
  -3.67815E+3   2.73712E+3
  -2.28015E+3  -1.74650E+3
  -1.96367E+2   1.60222E+3
   4.09211E+2   7.10356E+2
   7.53060E+2  -1.73702E+3
  -4.82831E+2  -1.10305E+3
   1.23839E+3  -1.43701E+2
  -5.36451E+2   1.48163E+3
  -1.10279E+3   1.96028E+3
  -3.65765E+3  -6.85662E+2
  -1.20235E+3  -2.00890E+3
   1.12769E+3  -7.19488E+2
  -6.07194E+2   1.45447E+3
   1.36835E+3   2.26939E+3
  -2.66937E+3  -1.85961E+3
  -1.15687E+2  -8.42183E+2
   1.40148E+3   1.68590E+3
   1.26270E+3   1.16115E+3
  -1.08376E+3  -6.54958E+2
   1.11266E+3   5.90590E+2
   3.44615E+2   2.23829E+3
  -1.54529E+3   3.69572E+3
  -2.75794E+3  -1.15656E+3
  -1.64021E+3   3.26523E+2
   3.25198E+3  -2.60115E+3
   7.75731E+2  -1.26689E+2
   1.38187E+3   2.14877E+3
  -1.22759E+3   8.48671E+2
   2.51615E+2   5.05897E+2
  -9.52003E+2   4.43737E+2
  -1.84457E+3   1.26051E+3
  -2.55993E+3   4.45309E+2
  -9.33940E+2  -2.05898E+3
   1.54502E+3  -1.66491E+3
   1.95251E+3   1.14403E+3
   7.17876E+2  -1.23901E+2
  -6.94279E+2   9.64683E+2
  -3.43393E+3  -3.91196E+2
  -2.76258E+2  -6.08407E+2
   5.76151E+2   1.81546E+3
  -9.99352E+2  -1.04252E+3
  -1.43291E+3  -4.65923E+2
  -4.65921E+2   1.97838E+2
  -4.56682E+2   1.13636E+2
   4.74572E+2  -2.56782E+2
  -2.51943E+3  -6.48045E+2
   2.07738E+3  -7.63474E+2
   2.10459E+3   1.72918E+3
   1.26130E+3   1.00459E+3
  -3.99811E+3   1.08470E+3
  -6.09146E+2  -9.56322E+2
   5.75821E+2  -1.13777E+3
  -4.98580E+2   3.24614E+2
   5.21106E+2   8.10503E+2
   1.41707E+3  -2.59752E+2
   1.28313E+3   1.72187E+3
   2.20143E+3   2.60147E+3
   1.28736E+2   3.23671E+2
  -1.96532E+3  -1.41340E+3
  -7.17752E+2  -1.87566E+3
   6.70355E+2   1.58311E+3
   7.22715E+2   1.99524E+3
  -2.63733E+3  -3.47304E+1
  -1.66477E+3  -2.18623E+3
  -8.70581E+2  -3.40539E+2
  -2.52849E+2   1.92204E+2
   2.62992E+2  -1.73901E+2
   4.66467E+2  -1.26347E+3
   7.55304E+2  -1.19269E+3
   2.28546E+3   3.69137E+2
   5.00916E+2   1.14463E+3
  -1.35707E+3   1.97406E+2
   1.84100E+2  -1.40888E+3
   9.16575E+2  -9.50469E+2
   5.02352E+2  -3.21096E+3
  -8.18393E+2   2.02371E+2
   1.19275E+3  -7.49154E+2
   1.95556E+3  -1.37501E+3
   2.09939E+3   1.65320E+3
   3.97933E+2   8.02521E+2
  -1.30589E+3  -1.16334E+3
  -5.39305E+2   8.17797E+2
  -1.14092E+3  -1.65783E+3
   7.65543E+2  -2.07114E+2
   3.36422E+2   1.45503E+3
  -6.37978E+2   9.06084E+2
  -5.62441E+2  -3.01617E+2
   8.96327E+1  -6.36394E+2
  -1.32649E+3   1.13109E+3
  -1.67715E+3  -5.01036E+2
   8.70858E+2   6.70648E+2
   1.57278E+3  -5.50209E+2
   1.43183E+3  -5.74871E+2
  -6.00538E+2   7.26599E+2
  -8.87240E+2  -8.02424E+2
   4.01929E+2   6.96600E+2
   7.55358E+2  -1.50912E+3
   1.25458E+3  -2.77549E+2
  -6.29776E+2  -2.01162E+3
   1.18324E+2  -3.95354E+2
   1.09245E+3   6.95694E+2
   1.24952E+3   1.05458E+3
  -7.58038E+2  -7.73674E+2
  -1.14468E+3   7.15153E+1
  -1.43586E+3  -1.57114E+3
   5.77772E+2   3.75322E+2
  -6.86960E+2  -3.71780E+2
   3.60564E+2   1.31924E+3
  -7.04190E+2  -8.36027E+2
   7.63017E+2  -1.19628E+1
   1.38325E+3   2.15150E+2
   4.24451E+2   3.69042E+1
   5.42277E+2  -1.97644E+2
   1.97996E+3   5.08925E+2
   4.17510E+2   1.72177E+3
   5.34617E+2   1.35403E+3
  -1.10411E+3  -4.63020E+2
   4.17505E+2  -2.40443E+2
   2.49429E+3  -8.76029E+2
   1.85380E+3  -1.48678E+2
  -1.03506E+2   1.74905E+2
   1.38364E+3  -1.51627E+2
   2.27790E+3   1.29615E+3
   4.44050E+1   1.00737E+2
  -1.00973E+3   1.62341E+3
   1.32475E+3   1.52419E+3
   1.99186E+3  -1.07795E+3
   2.13447E+3  -8.69974E+2
   1.04327E+3  -2.42632E+2
  -1.83201E+3   7.97427E+2
  -1.90517E+2   1.46697E+2
   7.41737E+2  -1.95604E+3
   6.74505E+2   1.40267E+2
   5.84995E+2  -1.93117E+3
  -5.18703E+2  -5.44228E+2
   1.15407E+3  -1.30519E+2
   4.47857E+1  -3.52490E+2
   3.36597E+2   1.43799E+3
   3.55129E+1  -7.10045E+2
   4.82709E+2  -1.29380E+3
  -9.60413E+2  -2.81584E+3
   2.41765E+3  -5.77499E+2
   1.54832E+3  -3.82202E+2
  -1.75867E+3   1.41755E+3
  -1.10000E+3  -1.06896E+3
   1.65661E+3   5.66055E+0
   1.79865E+3  -7.11643E+2
  -6.46206E+1  -8.49206E+2
   1.21593E+3  -2.85181E+3
   2.05040E+3  -9.12380E+2
   1.66278E+3   6.53950E+2
   1.41968E+3   1.87887E+2
  -1.03131E+3  -7.36075E+2
  -1.83273E+3  -2.40397E+2
   1.22785E+3   2.10079E+1
   1.93179E+3  -1.36047E+3
  -1.00869E+3  -3.23432E+2
  -3.81604E+2   3.86828E+2
   1.93390E+3  -2.76341E+3
  -1.31111E+0  -2.58508E+2
  -1.38821E+3   1.17510E+3
   4.87820E+1  -1.65271E+2
   3.33347E+3  -1.93259E+3
   3.31603E+2   4.27188E+2
   1.65828E+3   2.15945E+2
  -3.90391E+2   2.49730E+2
   2.08193E+1  -1.62339E+3
   8.14937E+2  -1.44415E+3
   8.90423E+2   3.45735E+2
  -4.91073E+2   2.21914E+3
  -2.41037E+3  -2.84041E+2
  -6.13985E+2  -1.59961E+2
   2.29332E+2   8.92207E+2
  -1.54796E+3  -1.35858E+3
   7.01418E+2  -5.00335E+2
  -4.77269E+1  -1.41839E+3
   1.47194E+3  -1.79175E+3
   1.95044E+3  -1.36149E+3
   1.07692E+3   1.41415E+3
  -1.95693E+3   2.23881E+3
  -6.77465E+2  -1.11656E+3
   5.90071E+2   1.07514E+3
  -5.02182E+2  -2.14523E+0
   8.15662E+2   9.24251E+2
  -2.82566E+2  -4.05101E+2
   6.00751E+2  -8.98980E+2
  -4.06041E+2   2.15580E+3
  -2.28309E+3   5.86100E+2
