 
 $NMID
 ID=''
 FMTDAT='(2E13.5)'
 TRAMP=   1.00000E+0
 VOLUME=   1.00000E+0
 $END
   1.20434E+2  -3.25894E+2
   2.33598E+3   9.42747E+2
  -5.14869E+2  -2.77982E+3
   1.02435E+3  -2.44829E+3
  -1.02727E+3  -8.72751E+2
  -8.05178E+2  -3.23249E+3
  -8.92550E+2   8.38200E+1
  -7.99754E+2  -3.09591E+2
  -3.69567E+3   1.13666E+3
   7.97778E+2   1.00844E+3
   2.95223E+2  -1.52456E+3
   7.39626E+2  -2.73755E+3
   2.71096E+3  -8.88382E+2
   2.78746E+3   2.48518E+3
  -1.30077E+3   4.75923E+2
   7.04084E+2  -1.80144E+3
   7.58347E+2  -1.90291E+3
   2.35895E+3  -2.25237E+3
   1.08596E+2  -1.31892E+3
  -9.77840E+2   2.63106E+1
   2.37252E+2  -3.43571E+3
   2.45958E+3  -1.11620E+2
  -2.67749E+2   2.73500E+3
  -4.23498E+3   1.43640E+2
  -2.45614E+3  -2.24687E+3
   1.64481E+3   3.27694E+3
   8.95461E+2   4.58895E+3
  -3.34939E+3   2.50558E+3
  -3.32472E+3   3.08197E+3
  -3.32466E+2  -6.41679E+2
   4.55724E+3  -2.23714E+3
   3.00364E+3   4.83311E+3
  -2.29496E+3   4.86383E+3
  -1.65500E+3  -9.30402E+2
   1.39701E+3   1.45117E+2
  -1.95044E+3   1.84599E+3
  -1.81350E+3  -6.26369E+2
   3.15199E+3  -1.37669E+3
   1.15397E+3   1.10359E+2
   9.89169E+2   8.35420E+1
   2.13125E+3   2.37694E+2
   5.33318E+2   1.83123E+3
  -4.95557E+3  -1.07168E+3
  -2.83169E+3  -5.46202E+3
   2.45316E+3  -5.55078E+3
   1.01798E+3  -1.65571E+3
   1.10523E+3  -2.25377E+3
   5.13292E+2  -4.55593E+2
   2.83031E+3  -4.18655E+2
   2.74869E+3  -2.10182E+3
   1.75040E+2   1.76809E+3
  -7.34332E+1   2.53024E+2
   1.56343E+3  -1.56297E+3
   1.91995E+3  -8.94271E+2
   1.43808E+3   2.13061E+3
   1.38156E+3   2.53824E+3
   9.40670E+2   1.87049E+3
  -8.74939E+2   3.46393E+3
  -5.08576E+3   9.52441E+1
  -3.21563E+3  -8.15254E+2
  -8.73173E+2   8.38786E+2
  -1.33889E+3  -2.02860E+3
   7.63221E+2   1.21763E+2
  -8.65896E+2  -1.03119E+3
   2.88332E+2  -3.36889E+2
   4.74622E+2  -1.48824E+3
  -8.20203E+2  -2.99695E+1
  -9.22901E+1  -3.50196E+3
   1.36606E+3  -6.11558E+2
   1.12072E+3  -4.03934E+2
   1.93579E+2   4.07189E+2
   7.79691E+2  -1.66797E+2
  -5.07258E+2   1.49722E+3
   3.81495E+2   1.09547E+3
  -9.72963E+2   2.78740E+2
   2.42520E+2   4.96847E+2
   3.17524E+2  -1.24474E+2
  -1.51477E+3   7.70299E+2
   6.17951E+2  -1.02625E+3
  -4.96368E+1   1.05094E+3
   6.18604E+2   1.51580E+2
  -2.32752E+3   1.31807E+3
  -7.11182E+2  -4.87196E+2
  -9.56373E+2   6.69666E+2
  -6.11816E+1  -1.44397E+2
  -1.52831E+3   7.04498E+2
   5.92476E+1  -1.37755E+3
  -1.83431E+3  -1.30755E+3
   8.99420E+2  -2.48694E+3
  -1.15342E+3  -1.66002E+3
   2.92303E+3  -1.19288E+3
  -1.25402E+2   1.08672E+3
   1.22131E+3   1.46140E+3
   1.67234E+3   2.87546E+3
  -5.12866E+2   4.54931E+2
   3.54175E+1   7.53556E+2
  -7.75703E+2   1.65756E+3
  -1.51409E+3   1.78415E+3
   7.26054E+2  -3.87173E+2
  -1.90068E+3   1.25118E+3
  -1.34691E+3   1.42488E+3
  -3.49053E+2  -2.33400E+2
   1.41758E+3   1.32065E+3
  -5.15791E+2  -8.76658E+2
   2.24693E+2   1.00655E+3
  -6.08790E+1   1.76981E+2
   2.17745E+3  -7.97922E+2
  -1.28637E+3   6.72040E+2
  -1.27013E+3   3.37252E+2
   8.18169E+1   2.82052E+2
   1.50039E+3  -9.28475E+0
   1.57397E+2   8.01039E+2
  -9.41580E+2  -1.03763E+3
   7.05345E+2   2.97664E+3
  -1.61036E+3   9.95145E+2
   9.55573E+1  -1.48532E+2
  -6.29755E+2  -3.67056E+2
  -3.70096E+2  -1.16085E+3
   1.69951E+3   1.13728E+2
   4.19648E+2   3.02498E+3
  -7.35498E+2  -1.32327E+3
  -1.89187E+2  -5.95536E+2
   1.21386E+3   2.16135E+2
  -6.54856E+2  -2.02377E+3
  -1.71304E+3  -6.33828E+2
   3.77418E+2  -1.17248E+3
   9.60383E+2  -7.76838E+2
   5.16277E+2  -1.49766E+3
  -1.51130E+3  -1.23448E+3
  -1.40708E+3  -1.70821E+3
  -1.02825E+2  -1.94610E+3
   1.02395E+2  -1.19731E+3
   2.03349E+3  -2.25755E+3
   1.44771E+3  -1.98727E+3
  -9.27274E+2   5.55480E+2
  -1.17447E+2   8.19835E+1
  -9.14042E+2  -9.77904E+2
   8.21349E+2  -2.04433E+3
  -9.46648E+2   1.70159E+2
  -5.97177E+2  -1.03871E+3
  -6.13000E+2  -2.45685E+3
  -3.19032E+2  -1.97636E+3
   3.40303E+2  -4.29094E+1
  -1.29838E+3  -3.12691E+2
  -9.07664E+2   1.14881E+3
   3.39734E+2   4.86752E+2
   1.44855E+3   7.03418E+2
   1.40245E+3   5.05592E+2
  -6.44789E+2   5.45653E+2
   7.60548E+2   9.43690E+2
   4.62181E+2  -3.13313E+3
   6.04082E+2  -2.24876E+3
   1.44656E+3   1.26159E+3
  -4.34038E+1  -7.77860E+2
  -1.38055E+3   8.75340E+2
   1.01647E+3   1.41768E+3
   3.70451E+2   1.49686E+3
   3.93186E+2  -5.61840E+1
   7.04077E+2   3.18969E+2
  -6.73535E+2   3.49706E+2
   1.05975E+2  -4.90122E+0
  -3.38407E+2  -1.39709E+2
   3.54583E+2  -1.67276E+3
  -1.02002E+2   1.66021E+3
   3.22278E+2   2.24382E+3
  -9.83995E+2  -2.76818E+1
  -2.66354E+2  -1.37226E+2
  -9.49269E+1   9.42055E+2
   1.10150E+2   1.87962E+3
  -7.57701E+2  -6.88416E+0
  -6.88256E+1   5.71955E+2
   1.82231E+3   1.31254E+3
   2.10050E+2  -9.35407E+2
  -4.47907E+2  -1.14807E+2
   3.71884E+2   3.54551E+2
   1.05055E+3   3.35986E+1
  -8.89904E+2   1.24883E+3
  -2.06486E+3   1.31313E+3
  -1.36955E+3  -1.96166E+2
  -1.06267E+3   2.02783E+3
   1.15417E+3   1.95737E+3
   1.14040E+3   1.00061E+3
  -2.55762E+2   5.15431E+2
   2.01959E+3   1.76447E+3
  -5.14954E+2  -1.93301E+2
   1.28493E+2   6.90268E+2
  -1.66618E+2  -5.18784E+2
  -8.50202E+2   5.02845E+2
   1.04845E+3   7.80366E+2
   6.12166E+2   1.55577E+3
  -8.28319E+2   6.46819E+2
  -1.34834E+3   2.96128E+3
  -1.45144E+3   9.10470E+2
  -7.52609E+2   2.14962E+3
   6.82948E+2   1.00568E+3
  -1.27919E+3  -1.35924E+2
  -4.86014E+1  -3.76588E+2
  -1.26305E+3   6.90522E+2
  -2.00134E+3   2.15212E+3
  -3.28191E+2   2.20892E+3
  -5.54874E+2   1.68108E+2
  -1.10235E+3   3.18949E+1
   9.20267E+1   1.47949E+3
   1.58141E+3   6.42861E+2
   1.73334E+3   2.40751E+3
  -9.31783E+2  -4.57805E+2
  -7.00866E+2  -8.18294E+2
   3.23457E+2  -8.56301E+1
   1.10229E+3   5.68773E+2
   1.42745E+3  -6.47807E+2
  -1.28328E+3  -1.56800E+3
   1.29784E+3  -2.63154E+2
   1.48147E+2   4.26362E+2
  -3.32781E+2   2.45947E+3
  -5.74303E+1  -2.16552E+0
   1.93853E+3   1.35618E+3
  -5.41761E+2   6.93699E+2
  -4.32173E+2  -9.89481E+2
   1.27728E+3   1.94587E+3
   9.66022E+1   1.55662E+3
   8.69351E+2   1.52202E+3
  -1.81376E+3   1.33866E+3
   1.07623E+3  -1.62334E+3
   8.96922E+1   2.06753E+3
   6.70299E+1  -1.11976E+3
   1.26335E+3   1.21709E+3
   2.15062E+3   2.33238E+2
   1.69946E+3  -7.74471E+2
  -1.16482E+3  -7.53370E+1
   6.02003E+2   3.85950E+2
  -3.61155E+2   1.31334E+3
  -1.40085E+3   1.41327E+3
  -9.12686E+1  -2.39871E+2
  -1.25705E+2   4.27556E+2
   9.68112E+2   5.94552E+2
  -5.07140E+2   2.87198E+2
  -1.70461E+3   1.05171E+3
   3.71181E+2  -1.96910E+3
   1.03412E+3   2.72116E+2
  -5.29573E+1   1.96525E+1
   4.35050E+2  -2.40709E+2
  -1.96806E+3  -2.52879E+3
   1.10295E+3  -2.52919E+2
   5.88060E+2  -4.90513E+2
   1.69489E+3   7.04438E+2
  -1.34076E+3  -2.04821E+3
   3.24985E+2  -2.11593E+2
  -4.03291E+2   2.99179E+1
  -1.31070E+3  -1.20350E+3
  -5.57206E+2  -1.32757E+2
   1.37562E+3  -4.31466E+2
  -1.43066E+1   3.97181E+2
  -3.79964E+2  -8.39625E+0
  -5.88763E+2   1.75900E+3
   3.89454E+2   1.87926E+3
   1.25953E+3  -2.80109E+2
   1.02683E+3   5.72154E+2
   6.96255E+1   6.37028E+2
  -1.38632E+3  -1.38770E+2
   1.38981E+3  -1.24823E+3
  -5.95881E+2  -7.69580E+2
   1.08462E+3  -5.85353E+2
  -9.68349E+2   2.39826E+2
  -1.36079E+3  -5.37060E+1
   4.76067E+2   9.18408E+2
  -1.05101E+2   3.80533E+2
   3.02690E+2   1.65406E+3
  -1.78117E+3  -6.01767E+2
   6.26330E+2   2.79414E+2
   9.07083E+2  -5.93717E+0
   1.33334E+3   2.01145E+3
   1.94093E+2  -1.06077E+3
  -3.85349E+2   1.33806E+3
  -1.58002E+3  -7.79689E+2
  -6.88217E+1   3.29742E+2
  -1.66634E+3   1.24250E+3
  -9.23016E+2   3.88416E+2
  -1.51835E+3  -6.18135E+2
   6.81066E+1  -1.37739E+3
  -2.52700E+2   9.65243E+2
  -1.07697E+3   1.59713E+3
  -2.13763E+3  -9.82259E+2
  -9.18612E+2  -7.38679E+2
  -1.40379E+3   1.02123E+3
   1.68915E+3  -4.66221E+2
  -2.08415E+2  -9.93440E+2
   5.61403E+2   3.98846E+2
   8.69676E+2  -5.36729E+1
  -9.61670E+2   8.03339E+2
   1.49774E+3   1.95202E+3
   4.97750E+2   4.87200E+2
  -5.23977E+1  -3.73454E+2
   1.80825E+2  -1.44841E+2
  -4.71319E+2  -1.17779E+3
   6.43658E+2  -5.97864E+2
  -1.00805E+3  -5.06297E+2
   5.98959E+2  -8.46340E+2
  -4.20336E+2   1.20880E+3
   4.20280E+2  -6.52808E+2
  -1.90844E+3   3.65088E+2
  -1.17058E+3   1.51370E+2
  -7.34110E+1  -9.95950E+2
  -9.43368E+2   9.95982E+2
   4.79123E+2  -1.66912E+3
   1.41691E+2   8.83078E+1
  -1.03601E+3  -8.95122E+2
  -1.31045E+3   7.02126E+2
  -1.90218E+3   9.35996E+2
   7.42471E+2  -1.83181E+3
   3.55435E+2   1.34372E+3
  -1.97517E+3   8.00841E+2
   1.83935E+3  -3.88234E+2
   1.75869E+3  -7.94632E+2
  -2.42841E+2  -2.35716E+2
  -5.81623E+2   7.86019E+2
  -4.02790E+2   3.20821E+2
   1.98652E+3  -6.90898E+2
  -8.99231E+2  -2.14513E+2
  -8.11010E+1  -1.52670E+3
   1.30411E+3  -2.09450E+2
   8.35262E+2  -1.83413E+3
  -8.79325E+1   2.08298E+1
   1.39780E+3   1.19418E+2
   1.15441E+3  -4.95428E+1
   8.78309E+2   2.20277E+2
   2.04273E+3  -2.97716E+1
  -9.61797E+2  -2.45089E+2
  -8.01498E+2   1.49893E+3
  -8.34842E+2  -1.77279E+3
  -2.60057E+2  -1.80032E+2
   9.16615E+2  -2.40786E+2
   9.57775E+2  -4.00918E+2
   1.48503E+3  -9.60315E+2
   2.15075E+3  -1.35650E+3
   1.14282E+3   1.68865E+3
   2.39177E+2  -1.41027E+3
   2.09229E+2  -7.30136E+2
  -8.12595E+2   8.15239E+2
   1.64921E+2  -2.17997E+3
   2.37073E+3   8.08432E+2
  -6.67354E+2  -9.87008E+2
  -7.24888E+2   4.47919E+2
   5.48252E+2   5.22245E+1
   3.97141E+2   6.02284E+2
   8.68180E+2  -1.60685E+3
  -8.88239E+2   8.13644E+1
   1.71467E+3  -2.30511E+2
  -4.20189E+2  -6.65740E+2
  -2.22868E+2  -2.41136E+3
   1.39838E+2  -1.33256E+3
  -1.21834E+3  -7.89205E+2
  -4.49076E+2  -7.57628E+2
   2.19557E+3  -1.41701E+2
  -5.15085E+2  -8.83529E+2
  -4.47613E+2  -1.64568E+3
   2.69819E+2  -7.80791E+2
   8.92944E+2   3.05041E+2
   1.31282E+3  -6.64944E+2
  -7.02107E+2   1.07785E+3
  -1.35700E+3  -3.25423E+2
   5.52721E+1  -5.80172E+1
   5.99965E+2  -1.30945E+3
  -7.52527E+2  -1.58256E+3
  -1.56629E+3  -1.98485E+3
  -8.94095E+2  -4.43003E+2
  -8.86939E+2  -4.61137E+2
  -6.38672E+2   1.24765E+3
