 LCModel (Version 6.3-1N) Copyright: S.W. Provencher.          Ref.: Magn. Reson. Med. 30:672-679 (1993).                
 Slice_N1@14_10  02-Jun-2023 14:36:39
 27 lines in following concentration table = NCONC+1
    Conc.  %SD /Cr+PCr  Metabolite                                         
 2.46E-06  15% 4.1E-04 Mac                                                 
 4.80E-02  17%   8.000 Cr                                                  
    0.000 999%   0.000 PCr                                                 
    0.100  13%  16.711 Ins                                                 
    0.100  10%  16.625 NAA                                                 
 6.45E-02  18%  10.754 Tau                                                 
 1.62E-02  19%   2.704 PCho                                                
    0.000 999%   0.000 GPC                                                 
 7.02E-02  17%  11.705 Glu                                                 
 1.93E-02  45%   3.213 Gln                                                 
    0.000 999%   0.000 Ala                                                 
    0.000 999%   0.000 Asc                                                 
 5.45E-03 140%   0.908 Asp                                                 
 1.15E-02  38%   1.925 GABA                                                
 5.85E-03  84%   0.976 Glc                                                 
 1.33E-02  39%   2.214 GSH                                                 
    0.000 999%   0.000 Lac                                                 
    0.000 999%   0.000 NAAG                                                
    0.000 999%   0.000 PE                                                  
 1.62E-02  19%   2.704 GPC+PCho                                            
    0.100  10%  16.625 NAA+NAAG                                            
 8.94E-02  17%  14.918 Glu+Gln                                             
 4.80E-02  17%   8.000 Cr+PCr                                              
    0.100  10%  16.625 NAA+NAAG                                            
 4.80E-02  17%   8.000 Cr+PCr                                              
 8.94E-02  17%  14.918 Glu+Gln                                             
   6 lines in following misc. output table
  FWHM = 0.070 ppm    S/N =   2                                            
  Data shift = 0.017 ppm                                                   
  Ph: -41 deg      -5.3 deg/ppm                                            
  alphaB,S = 3.1E+01,   2.2E+01                                            
   18 spline knots.   Ns = 6(2)                                            
   1 inflections.     2 extrema                                            
  654 points on ppm-axis = NY
      4.000000     3.994181     3.988363     3.982544     3.976726     3.970907     3.965088     3.959270     3.953451     3.947633
      3.941814     3.935995     3.930177     3.924358     3.918540     3.912721     3.906902     3.901084     3.895265     3.889446
      3.883628     3.877809     3.871991     3.866172     3.860353     3.854535     3.848716     3.842898     3.837079     3.831260
      3.825442     3.819623     3.813805     3.807986     3.802167     3.796349     3.790530     3.784712     3.778893     3.773074
      3.767256     3.761437     3.755619     3.749800     3.743981     3.738163     3.732344     3.726526     3.720707     3.714888
      3.709070     3.703251     3.697433     3.691614     3.685795     3.679977     3.674158     3.668339     3.662521     3.656702
      3.650884     3.645065     3.639246     3.633428     3.627609     3.621791     3.615972     3.610153     3.604335     3.598516
      3.592698     3.586879     3.581060     3.575242     3.569423     3.563605     3.557786     3.551967     3.546149     3.540330
      3.534512     3.528693     3.522874     3.517056     3.511237     3.505419     3.499600     3.493781     3.487963     3.482144
      3.476326     3.470507     3.464688     3.458870     3.453051     3.447232     3.441414     3.435595     3.429777     3.423958
      3.418139     3.412321     3.406502     3.400684     3.394865     3.389046     3.383228     3.377409     3.371591     3.365772
      3.359953     3.354135     3.348316     3.342498     3.336679     3.330860     3.325042     3.319223     3.313405     3.307586
      3.301767     3.295949     3.290130     3.284312     3.278493     3.272674     3.266856     3.261037     3.255219     3.249400
      3.243581     3.237763     3.231944     3.226125     3.220307     3.214488     3.208670     3.202851     3.197032     3.191214
      3.185395     3.179577     3.173758     3.167939     3.162121     3.156302     3.150484     3.144665     3.138846     3.133028
      3.127209     3.121391     3.115572     3.109753     3.103935     3.098116     3.092298     3.086479     3.080660     3.074842
      3.069023     3.063205     3.057386     3.051567     3.045749     3.039930     3.034111     3.028293     3.022474     3.016656
      3.010837     3.005018     2.999200     2.993381     2.987563     2.981744     2.975925     2.970107     2.964288     2.958470
      2.952651     2.946832     2.941014     2.935195     2.929377     2.923558     2.917739     2.911921     2.906102     2.900284
      2.894465     2.888646     2.882828     2.877009     2.871191     2.865372     2.859553     2.853735     2.847916     2.842098
      2.836279     2.830460     2.824642     2.818823     2.813004     2.807186     2.801367     2.795549     2.789730     2.783911
      2.778093     2.772274     2.766456     2.760637     2.754818     2.749000     2.743181     2.737363     2.731544     2.725725
      2.719907     2.714088     2.708270     2.702451     2.696632     2.690814     2.684995     2.679177     2.673358     2.667539
      2.661721     2.655902     2.650084     2.644265     2.638446     2.632628     2.626809     2.620991     2.615172     2.609353
      2.603535     2.597716     2.591897     2.586079     2.580260     2.574442     2.568623     2.562804     2.556986     2.551167
      2.545349     2.539530     2.533711     2.527893     2.522074     2.516256     2.510437     2.504618     2.498800     2.492981
      2.487163     2.481344     2.475525     2.469707     2.463888     2.458070     2.452251     2.446432     2.440614     2.434795
      2.428977     2.423158     2.417339     2.411521     2.405702     2.399884     2.394065     2.388246     2.382428     2.376609
      2.370790     2.364972     2.359153     2.353335     2.347516     2.341697     2.335879     2.330060     2.324242     2.318423
      2.312604     2.306786     2.300967     2.295149     2.289330     2.283511     2.277693     2.271874     2.266056     2.260237
      2.254418     2.248600     2.242781     2.236963     2.231144     2.225325     2.219507     2.213688     2.207870     2.202051
      2.196232     2.190414     2.184595     2.178777     2.172958     2.167139     2.161321     2.155502     2.149683     2.143865
      2.138046     2.132228     2.126409     2.120590     2.114772     2.108953     2.103135     2.097316     2.091497     2.085679
      2.079860     2.074042     2.068223     2.062404     2.056586     2.050767     2.044949     2.039130     2.033311     2.027493
      2.021674     2.015856     2.010037     2.004218     1.998400     1.992581     1.986763     1.980944     1.975126     1.969307
      1.963489     1.957670     1.951852     1.946033     1.940215     1.934397     1.928578     1.922760     1.916941     1.911123
      1.905304     1.899486     1.893667     1.887849     1.882030     1.876212     1.870393     1.864575     1.858756     1.852938
      1.847119     1.841301     1.835482     1.829664     1.823845     1.818027     1.812208     1.806390     1.800571     1.794753
      1.788934     1.783116     1.777297     1.771479     1.765660     1.759842     1.754023     1.748205     1.742386     1.736568
      1.730749     1.724931     1.719113     1.713294     1.707476     1.701657     1.695839     1.690020     1.684202     1.678383
      1.672565     1.666746     1.660928     1.655109     1.649291     1.643472     1.637654     1.631835     1.626017     1.620198
      1.614380     1.608561     1.602743     1.596924     1.591106     1.585287     1.579469     1.573650     1.567832     1.562013
      1.556195     1.550376     1.544558     1.538739     1.532921     1.527102     1.521284     1.515465     1.509647     1.503829
      1.498010     1.492192     1.486373     1.480555     1.474736     1.468918     1.463099     1.457281     1.451462     1.445644
      1.439825     1.434007     1.428188     1.422370     1.416551     1.410733     1.404914     1.399096     1.393277     1.387459
      1.381640     1.375822     1.370003     1.364185     1.358366     1.352548     1.346729     1.340911     1.335092     1.329274
      1.323455     1.317637     1.311818     1.306000     1.300182     1.294363     1.288545     1.282726     1.276908     1.271089
      1.265271     1.259452     1.253634     1.247815     1.241997     1.236178     1.230360     1.224541     1.218723     1.212904
      1.207086     1.201267     1.195449     1.189630     1.183812     1.177993     1.172175     1.166356     1.160538     1.154719
      1.148901     1.143082     1.137264     1.131445     1.125627     1.119808     1.113990     1.108171     1.102353     1.096534
      1.090716     1.084898     1.079079     1.073261     1.067442     1.061624     1.055805     1.049987     1.044168     1.038350
      1.032531     1.026713     1.020894     1.015076     1.009257     1.003439     0.997620     0.991802     0.985983     0.980165
      0.974346     0.968528     0.962709     0.956891     0.951072     0.945254     0.939435     0.933617     0.927798     0.921980
      0.916161     0.910343     0.904524     0.898706     0.892887     0.887069     0.881251     0.875432     0.869614     0.863795
      0.857977     0.852158     0.846340     0.840521     0.834703     0.828884     0.823066     0.817247     0.811429     0.805610
      0.799792     0.793973     0.788155     0.782336     0.776518     0.770699     0.764881     0.759062     0.753244     0.747425
      0.741607     0.735788     0.729970     0.724151     0.718333     0.712514     0.706696     0.700877     0.695059     0.689240
      0.683422     0.677603     0.671785     0.665967     0.660148     0.654330     0.648511     0.642693     0.636874     0.631056
      0.625237     0.619419     0.613600     0.607782     0.601963     0.596145     0.590326     0.584508     0.578689     0.572871
      0.567052     0.561234     0.555415     0.549597     0.543778     0.537960     0.532141     0.526323     0.520504     0.514686
      0.508867     0.503049     0.497230     0.491412     0.485593     0.479775     0.473956     0.468138     0.462319     0.456501
      0.450682     0.444864     0.439045     0.433227     0.427408     0.421590     0.415771     0.409953     0.404134     0.398316
      0.392497     0.386679     0.380860     0.375042     0.369223     0.363405     0.357586     0.351767     0.345949     0.340130
      0.334312     0.328493     0.322675     0.316856     0.311038     0.305219     0.299401     0.293582     0.287764     0.281945
      0.276127     0.270308     0.264490     0.258671     0.252853     0.247034     0.241216     0.235397     0.229579     0.223760
      0.217942     0.212123     0.206305     0.200486
 NY phased data points follow
  -9.05964E-02 -9.49354E-03 -2.01233E-01 -5.32221E-02 -1.53511E-01 -1.99448E-01  3.09134E-02 -2.11039E-01 -2.03044E-01 -6.98247E-02
   6.79848E-03 -3.70779E-02  1.53088E-01 -3.25101E-02 -1.40488E-02  7.66694E-02  5.23446E-02  2.88747E-01  2.17254E-01  3.49270E-01
   3.45386E-01  1.75644E-01 -1.02956E-02  1.02073E-01 -3.50195E-01 -1.61109E-01  1.29818E-01  1.76176E-02 -3.16152E-02 -4.79291E-01
   5.79408E-02 -1.14917E-01 -8.39414E-02 -9.27596E-02 -2.21095E-01  9.62370E-02 -1.27568E-01  1.88066E-01  2.22213E-02 -4.22830E-01
  -2.08052E-01  2.40642E-01  2.91704E-01  4.08579E-01  2.79931E-01  2.83657E-01  4.21435E-01  1.99755E-01  4.25097E-01  1.21343E-01
  -9.47002E-02  1.65671E-01  5.23035E-02 -1.52127E-01 -2.66582E-01  1.07385E-01 -5.05991E-02 -2.85638E-01  1.04801E-01 -3.38574E-01
  -1.70276E-01 -1.92635E-01 -5.63358E-01 -2.21719E-01 -3.80688E-01 -4.06763E-01 -4.48321E-01 -2.32624E-01 -9.70545E-02  9.12062E-02
   8.68214E-02 -1.24373E-01  3.69421E-02  1.08320E-01  2.12435E-01  1.41088E-01  3.11468E-01  2.52942E-01  1.69712E-01  4.72851E-03
  -1.76432E-01  8.74593E-02 -5.46831E-02 -2.18381E-01  1.73720E-03 -4.78619E-02  2.03175E-01  4.24295E-01 -4.05579E-03  2.07114E-01
   2.13741E-01  2.54155E-01  4.10444E-01  7.99482E-02 -2.91578E-01 -2.78597E-01  1.87670E-01  2.36467E-01  3.60451E-01  6.28310E-02
  -1.34806E-01 -7.83419E-02 -3.65966E-01  8.91537E-02  4.11724E-01  1.84362E-01  1.39153E-01  1.82789E-01  6.84278E-03 -4.15244E-02
   2.77442E-01  5.55829E-01  6.23608E-01  4.20277E-01  2.82751E-01  2.89648E-01  3.63152E-01  5.18853E-01  4.10798E-01  3.48892E-01
   4.16314E-01  3.98955E-01  7.97174E-02 -2.59241E-02  6.02574E-02 -2.77789E-01 -1.48240E-01 -1.94929E-01 -1.49648E-01 -2.19668E-01
  -7.33115E-01 -3.51317E-01 -5.28955E-01 -4.64195E-01 -6.84673E-01 -9.04701E-01 -5.23065E-02 -6.02727E-01 -6.02715E-01 -2.57847E-01
  -5.95470E-01 -4.61755E-01 -4.96286E-01 -5.77879E-01 -1.94609E-01 -7.06425E-02 -2.09125E-01  6.50223E-02  8.37839E-02  1.56445E-01
   8.30073E-02  2.93222E-01  2.58612E-01  3.24105E-02  4.48357E-01  5.44981E-01  1.40269E-01  1.05337E-02  6.54084E-01  3.88998E-01
   6.49170E-02  4.84356E-01  6.24261E-01  4.81794E-01  4.43333E-01  2.30009E-01  3.05770E-01  5.10133E-01  1.30824E-01  6.79746E-02
  -1.76983E-01 -1.09622E-01 -2.44091E-01 -2.88530E-01 -2.01327E-02 -1.70574E-01 -3.81726E-01 -4.71500E-01 -2.04598E-01 -5.73376E-01
  -4.49153E-01 -1.85552E-01 -5.55792E-01 -3.86571E-01 -4.00244E-01 -3.51787E-01 -1.89898E-01 -2.26131E-01 -2.27904E-01 -3.60172E-01
  -1.15227E-01 -1.38594E-01 -3.18417E-02 -1.29769E-01 -1.89456E-01  1.67162E-01 -3.76901E-02 -1.58617E-01 -2.97313E-01  6.54153E-02
  -2.07056E-01 -3.12583E-01 -6.75732E-02 -2.26486E-02  5.58687E-02 -1.27757E-01  2.20805E-02 -3.36243E-02 -4.06077E-02 -2.60165E-01
   2.29875E-01 -1.00969E-01 -5.41638E-01 -3.00948E-01 -3.12510E-01 -8.56293E-02 -2.17746E-01 -5.72845E-02 -3.09511E-01 -3.92810E-02
   1.52719E-01 -1.14171E-01  1.20625E-01  1.98885E-02  9.71402E-02  3.96366E-01  1.89382E-01  3.74243E-01  4.30108E-01  1.29927E-01
   3.23862E-01  3.92514E-01  2.89249E-01  1.08713E-01  2.72370E-01 -4.88126E-02  1.02974E-01  3.64889E-01 -1.76928E-01 -1.38240E-02
   1.61708E-01 -2.69096E-01 -9.83629E-02  7.80559E-02 -9.50076E-02 -2.73509E-02 -4.11634E-01 -1.56687E-01 -2.34666E-01 -1.42678E-01
  -2.19609E-02 -9.16217E-02  4.29147E-01  4.78929E-02 -2.75584E-01 -2.19281E-01 -8.74020E-02 -4.73676E-02  9.53772E-02 -9.01324E-02
  -2.97218E-02  2.67501E-01  1.43439E-01  2.16389E-01 -2.02331E-01 -1.92734E-01  1.21668E-01 -2.23167E-01 -3.85815E-02 -3.45880E-02
   1.06094E-01  2.96359E-01  1.01403E-01  1.19436E-01  6.59465E-02  1.99954E-01 -4.09842E-01  3.67344E-02  1.09946E-01 -2.86649E-01
  -3.27383E-02 -7.42247E-02 -1.59156E-01 -1.17451E-01  4.02916E-01 -3.94219E-01  2.45981E-01  4.24671E-01  1.72901E-02  4.94968E-01
   3.73824E-01  9.74227E-02 -4.18522E-02  3.12682E-01 -1.30953E-01  3.97329E-01  1.70709E-01 -2.80615E-02  3.24053E-01  1.04772E-01
   1.06445E-01  2.70085E-01  6.16948E-01  2.67930E-01  4.28408E-01  5.53159E-01  6.79338E-01  5.92173E-01  4.02536E-01  4.03625E-01
   2.59561E-01  1.03683E-01  1.09697E-01  3.21282E-01  1.10728E-01  7.74656E-02  1.73736E-01  1.36762E-01  2.03685E-01 -1.20461E-01
  -2.41237E-01  2.09689E-02 -2.14781E-01 -2.52390E-01 -2.16858E-02  3.72453E-01 -1.37158E-01 -3.81462E-01  1.38014E-01  9.71083E-02
   1.31396E-01  1.60252E-01  3.64565E-01  2.63136E-01  1.36939E-02 -1.75971E-01 -5.20899E-01 -4.88765E-01 -3.05537E-01 -8.60374E-01
  -7.80337E-01 -7.48736E-01 -8.23309E-01 -8.74180E-01 -8.64201E-01 -4.20603E-01 -9.66954E-01 -6.30500E-01 -6.44189E-01 -5.69541E-01
  -4.40529E-01 -1.58869E-01  3.01718E-01 -2.66862E-01 -1.24425E-01 -1.11743E-01  5.93120E-02  4.17622E-02  1.69053E-01  1.70759E-01
  -1.94105E-01  1.46651E-01  2.82553E-01  3.29968E-02  1.49106E-01  2.17923E-02  3.31785E-02  2.96441E-01  7.06568E-02  1.00521E-01
  -1.69299E-02 -6.36717E-02  3.52365E-03  2.62926E-02  1.43702E-01  3.15227E-01 -1.34337E-01 -5.96292E-02  2.61365E-01  2.09090E-01
   2.20691E-01  1.20626E-02  1.95736E-01 -1.71728E-01  1.05118E-01  3.46364E-01  2.83238E-01  1.38180E-01 -1.22185E-02 -1.12915E-02
  -8.75815E-02  2.46454E-01  9.39085E-02  5.07356E-01  3.75968E-01  1.34149E-01  2.37040E-01  1.96597E-01  2.13964E-01 -2.40308E-02
   2.11399E-01  1.52300E-02 -1.07291E-01  2.36401E-01  2.45602E-01  8.60178E-02  8.23946E-02 -1.34073E-01 -3.41127E-01 -1.80459E-01
   3.50582E-01  5.46788E-01 -8.00367E-02 -6.60222E-02 -6.42826E-02 -2.88277E-01 -2.75156E-01 -5.62933E-01 -2.71785E-01 -1.01137E-01
  -2.63864E-01 -2.64487E-01 -1.90426E-01 -9.13665E-02  1.37194E-03 -3.18912E-02 -2.41896E-01 -1.58611E-01 -1.71494E-01 -7.69266E-02
  -3.40025E-01 -2.89530E-01 -1.61272E-01  9.28337E-02  3.82790E-01 -1.25023E-01  1.18371E-01 -1.92590E-01 -3.10665E-02  2.52573E-01
  -1.70772E-01  1.18952E-01  3.87603E-02  1.01553E-01  1.64838E-01 -1.06292E-01  6.78511E-02  1.86318E-01  2.37023E-01  1.91491E-01
   2.53343E-01  4.79472E-01  1.60393E-01  4.50968E-01  2.76404E-01  2.26874E-01  3.89395E-01 -1.81666E-03  2.18648E-01 -4.45269E-02
   7.33386E-02  2.60412E-01 -3.45572E-02 -3.20727E-01  3.14238E-02  2.02026E-01 -3.09092E-02 -1.15150E-02 -6.22448E-02  8.40148E-03
  -4.75114E-02 -2.51320E-01 -4.02743E-01 -8.25825E-02 -6.00384E-01 -2.70193E-01 -2.88616E-01 -4.68132E-01  1.52822E-01 -3.47331E-01
   3.72550E-02 -2.08932E-01  1.88611E-01  2.98706E-01 -1.76780E-01  6.63527E-02 -1.60637E-01  4.06380E-02 -3.42263E-01  3.11634E-02
   7.09921E-02 -8.40338E-02  1.10207E-01  1.46368E-01  4.74368E-01  6.39022E-02  1.32601E-02 -2.16800E-01 -8.70030E-02  7.05958E-02
  -1.67889E-01 -1.17515E-01 -4.32229E-02  2.66407E-01  5.21761E-03  2.38755E-02  3.45969E-01 -3.08285E-02 -1.34790E-01  2.86252E-01
  -1.72836E-01 -1.18307E-01  4.55723E-01  4.47224E-01  3.52328E-01  6.00423E-02  6.34711E-01  2.64192E-01 -1.01623E-01  1.76523E-01
   9.53098E-03  3.69738E-01  1.04171E-01 -1.05090E-01  1.73923E-01  2.16634E-01 -4.19349E-01 -4.39000E-01 -3.55649E-01 -4.19351E-01
  -3.29288E-01 -7.86509E-01 -2.33588E-01 -3.02211E-01 -2.33734E-01 -1.63887E-01 -4.11006E-01 -9.30777E-02 -2.43881E-01 -1.49441E-02
  -3.54330E-01 -2.69541E-01 -2.82777E-01 -4.25356E-01  5.64112E-02 -1.63176E-01 -7.05072E-02  2.57070E-02 -1.34744E-01 -8.05154E-02
   1.98555E-01  1.21177E-02 -7.28499E-02  1.51550E-01  1.54941E-01  2.70074E-01 -2.04418E-02 -1.55637E-01  1.66717E-01  1.18260E-01
  -9.11376E-02 -6.68256E-02 -1.73660E-02  4.19240E-01  3.81748E-01  5.65993E-02 -3.67168E-02 -1.95712E-01  2.66416E-01  1.97780E-01
  -9.49578E-02 -9.56639E-03 -1.12395E-01  1.11359E-01  1.35924E-02 -2.34072E-01  9.95991E-02  4.66405E-02 -7.97138E-02  2.01828E-01
   3.29086E-01  1.52917E-01 -1.84705E-02 -1.82339E-01 -3.00810E-01 -7.29921E-02 -8.81677E-02 -1.27283E-01 -1.95991E-01 -1.65486E-01
   1.74982E-01  2.47534E-01 -1.05458E-01 -3.59420E-01  2.78957E-02  9.77937E-02 -7.51605E-02  1.04688E-01  2.48250E-01  2.36960E-02
  -1.18300E-01 -9.99561E-02 -1.61047E-01 -2.07370E-03  2.04045E-01 -5.22836E-02 -2.61026E-01  7.57011E-02 -1.53999E-02 -1.20530E-02
  -1.33841E-01 -2.83017E-01  1.36016E-01 -4.93606E-02 -1.84934E-01  4.88463E-02  2.11423E-01  2.17817E-01 -1.62031E-01 -3.69495E-01
   2.41182E-01  3.96751E-02 -2.52495E-01  1.51531E-01 -3.78367E-01 -1.42361E-02  1.69406E-01 -3.37654E-02  9.99647E-02 -2.82969E-01
   3.11038E-02  2.78768E-01  1.83449E-01 -1.30681E-01  8.39263E-02  7.54051E-02 -1.30166E-01 -1.75854E-01 -2.30475E-01  9.90184E-02
  -2.42528E-01  3.36937E-01  3.43279E-01 -5.55838E-02  1.09587E-01 -1.14941E-01 -1.28715E-01 -7.73647E-02  3.12739E-01 -2.08729E-02
   2.27408E-01  4.15625E-01  1.25765E-01  1.44018E-01
 NY points of the fit to the data follow
   6.07055E-02  4.27016E-02  2.50366E-02 -1.70821E-02  6.99037E-03 -4.01744E-02  2.24581E-02  3.37722E-02  6.65385E-02  1.37272E-01
   1.12057E-01  2.26219E-01  1.48519E-01  2.92153E-01  1.73605E-01  3.35795E-01  1.87427E-01  3.65047E-01  1.82937E-01  3.44733E-01
   1.48565E-01  2.53893E-01  9.03664E-02  1.30410E-01  2.91948E-02  2.68110E-02 -1.91098E-02 -3.83440E-02 -7.55465E-02 -1.12033E-01
  -1.32756E-01 -1.61336E-01 -1.71002E-01 -1.87330E-01 -1.78255E-01 -1.67501E-01 -1.50326E-01 -1.06386E-01 -9.72149E-02 -2.73784E-02
  -3.22166E-02  5.57399E-02  4.06638E-02  1.33620E-01  1.08820E-01  1.91468E-01  1.51690E-01  2.12938E-01  1.57721E-01  1.83376E-01
   1.20073E-01  1.16460E-01  4.30023E-02  2.08038E-02 -2.92875E-02 -1.12561E-01 -1.25656E-01 -2.15606E-01 -2.67698E-01 -2.83701E-01
  -3.67319E-01 -3.11878E-01 -3.70062E-01 -2.81126E-01 -2.94924E-01 -1.95617E-01 -1.70647E-01 -7.00190E-02 -1.79397E-02  9.78635E-02
   1.12122E-01  1.85579E-01  1.95868E-01  1.41220E-01  1.82564E-01  3.19632E-02  8.59572E-02 -6.46852E-02 -3.02806E-02 -1.18474E-01
  -8.86908E-02 -1.42090E-01 -9.59857E-02 -1.04646E-01 -4.00184E-02  3.73869E-03  7.56768E-02  1.85084E-01  1.95150E-01  3.15797E-01
   2.54790E-01  2.97704E-01  2.38557E-01  1.67908E-01  1.92004E-01  3.87116E-02  1.36399E-01 -6.56288E-02  1.09271E-01 -1.28412E-01
   1.01063E-01 -1.44619E-01  1.29880E-01 -9.35292E-02  1.90125E-01  2.32447E-02  2.55960E-01  1.58203E-01  2.98642E-01  2.52367E-01
   3.12386E-01  2.98012E-01  3.23284E-01  3.15153E-01  3.44544E-01  3.28281E-01  3.48640E-01  3.49550E-01  3.24640E-01  3.25082E-01
   2.44085E-01  2.14367E-01  9.84011E-02  5.59815E-02 -1.81252E-02 -3.63859E-02 -1.26931E-01 -1.31441E-01 -2.85746E-01 -2.94253E-01
  -4.53271E-01 -4.68063E-01 -5.66941E-01 -5.72306E-01 -6.00264E-01 -5.82397E-01 -5.67675E-01 -5.28958E-01 -5.15406E-01 -4.83743E-01
  -4.47894E-01 -4.27365E-01 -3.45765E-01 -3.10591E-01 -2.02867E-01 -1.60080E-01 -6.69713E-02 -2.75476E-02  1.82612E-02  4.47560E-02
   8.40976E-02  1.05749E-01  1.20041E-01  1.28947E-01  1.27594E-01  1.76104E-01  2.23496E-01  2.75814E-01  3.53811E-01  3.61340E-01
   4.09080E-01  3.82701E-01  3.84994E-01  3.49821E-01  3.09117E-01  2.80622E-01  2.01743E-01  1.84519E-01  7.62363E-02  5.36983E-02
  -8.76271E-02 -1.02173E-01 -2.51983E-01 -2.30638E-01 -3.46978E-01 -2.91045E-01 -3.55104E-01 -2.88461E-01 -3.09503E-01 -2.65888E-01
  -2.83905E-01 -2.40756E-01 -2.43240E-01 -2.10252E-01 -2.21260E-01 -1.86924E-01 -2.04019E-01 -1.68636E-01 -1.85718E-01 -1.54156E-01
  -1.67473E-01 -1.41227E-01 -1.45790E-01 -1.25095E-01 -1.22918E-01 -1.08585E-01 -1.01771E-01 -9.08963E-02 -8.21882E-02 -7.27265E-02
  -6.50484E-02 -5.76716E-02 -5.15080E-02 -4.66169E-02 -4.16463E-02 -3.86880E-02 -3.52568E-02 -3.32859E-02 -3.19985E-02 -3.00088E-02
  -3.07903E-02 -2.94100E-02 -3.38418E-02 -4.76766E-02 -5.05311E-02 -5.71958E-02 -5.24655E-02 -4.25675E-02 -4.46662E-02 -2.41913E-02
  -1.56657E-02  1.64180E-02  4.33402E-02  8.65105E-02  1.12684E-01  1.59734E-01  1.71568E-01  2.19698E-01  2.14487E-01  2.51246E-01
   2.28456E-01  2.45940E-01  2.11257E-01  2.12353E-01  1.65219E-01  1.53620E-01  9.86899E-02  8.01686E-02  3.13542E-02  3.64553E-03
  -2.83449E-02 -4.27939E-02 -5.86888E-02 -6.04684E-02 -7.89672E-02 -9.23524E-02 -9.34489E-02 -1.14014E-01 -1.22151E-01 -1.24626E-01
  -1.49079E-01 -1.17286E-01 -1.58215E-01 -1.00920E-01 -1.37428E-01 -8.19148E-02 -9.06975E-02 -5.59041E-02 -3.54434E-02 -8.01815E-03
   2.29181E-02  5.44717E-02  8.64188E-02  1.12220E-01  1.42038E-01  1.49986E-01  1.72636E-01  1.69147E-01  1.70923E-01  1.83902E-01
   1.42599E-01  1.66264E-01  9.22345E-02  9.87437E-02  1.37900E-02 -1.63620E-02 -7.57564E-02 -1.11972E-01 -1.43006E-01 -1.58225E-01
  -1.59018E-01 -1.54744E-01 -1.31575E-01 -1.22104E-01 -8.26013E-02 -6.25349E-02 -2.02523E-02  3.01352E-02  5.81259E-02  1.37278E-01
   1.40160E-01  2.19713E-01  1.96396E-01  2.53385E-01  2.12785E-01  2.53165E-01  2.03395E-01  2.45448E-01  1.95207E-01  2.39355E-01
   1.99299E-01  2.34970E-01  2.08495E-01  2.29239E-01  2.16523E-01  2.20040E-01  2.14626E-01  2.05793E-01  1.96790E-01  1.83574E-01
   1.58017E-01  1.47086E-01  9.97317E-02  8.72104E-02  2.26482E-02  2.52874E-03 -6.59832E-02 -8.86763E-02 -1.44456E-01 -1.59720E-01
  -1.91957E-01 -1.92992E-01 -2.04639E-01 -1.91439E-01 -1.90747E-01 -1.71580E-01 -1.59988E-01 -1.45117E-01 -1.16608E-01 -1.02935E-01
   6.57681E-02  2.34571E-02  1.72780E-01  5.75148E-02  3.68521E-02 -9.13723E-02 -2.26687E-01 -3.12643E-01 -4.78966E-01 -5.02491E-01
  -6.76574E-01 -6.32513E-01 -8.18072E-01 -7.09923E-01 -9.31664E-01 -7.57457E-01 -9.33728E-01 -7.14457E-01 -7.51854E-01 -5.42417E-01
  -4.62631E-01 -3.09777E-01 -2.07219E-01 -1.21827E-01 -9.12971E-02 -3.93637E-02 -7.64118E-03  1.68277E-02  9.95838E-03  2.18896E-02
   9.81728E-03  1.65927E-02  4.47424E-03  8.03227E-03 -6.43081E-04  3.20352E-04 -1.50395E-03 -2.79031E-03  4.25996E-03  2.45040E-03
   1.53547E-02  1.53525E-02  2.88943E-02  3.11931E-02  4.27544E-02  4.60690E-02  5.55195E-02  5.83369E-02  6.62882E-02  6.77183E-02
   7.47286E-02  7.52625E-02  8.17607E-02  8.26166E-02  8.82994E-02  9.01311E-02  9.44094E-02  9.71253E-02  9.98608E-02  1.03469E-01
   1.04461E-01  1.08657E-01  1.08167E-01  1.12127E-01  1.10296E-01  1.12955E-01  1.09743E-01  1.10354E-01  1.05579E-01  1.04280E-01
   9.78416E-02  9.51296E-02  8.74549E-02  8.33921E-02  7.52426E-02  7.01462E-02  6.18320E-02  5.62697E-02  4.82769E-02  4.26082E-02
   3.57341E-02  2.97046E-02  2.42252E-02  1.80183E-02  1.37479E-02  7.80101E-03  4.34308E-03 -9.78153E-04 -3.72923E-03 -7.86091E-03
  -9.46816E-03 -1.22212E-02 -1.24338E-02 -1.41427E-02 -1.34986E-02 -1.39575E-02 -1.24804E-02 -1.15441E-02 -8.95618E-03 -7.08634E-03
  -3.34801E-03 -6.70893E-04  3.94234E-03  7.75128E-03  1.26519E-02  1.78184E-02  2.35511E-02  3.02051E-02  3.77561E-02  4.63024E-02
   5.58079E-02  6.59870E-02  7.68406E-02  8.79346E-02  9.91317E-02  1.10754E-01  1.21951E-01  1.33304E-01  1.43223E-01  1.53032E-01
   1.60089E-01  1.67408E-01  1.70618E-01  1.75021E-01  1.73573E-01  1.74862E-01  1.69271E-01  1.67397E-01  1.58801E-01  1.53972E-01
   1.43345E-01  1.35999E-01  1.24579E-01  1.15247E-01  1.03983E-01  9.38008E-02  8.33462E-02  7.31913E-02  6.44836E-02  5.48128E-02
   4.81490E-02  3.97141E-02  3.52844E-02  2.90059E-02  2.66459E-02  2.31507E-02  2.27141E-02  2.18559E-02  2.30283E-02  2.44604E-02
   2.69525E-02  3.01620E-02  3.40019E-02  3.80251E-02  4.27331E-02  4.70647E-02  5.14610E-02  5.57402E-02  5.88782E-02  6.24404E-02
   6.39766E-02  6.66304E-02  6.67696E-02  6.82230E-02  6.73029E-02  6.76122E-02  6.52489E-02  6.43902E-02  6.07280E-02  5.87549E-02
   5.45077E-02  5.16158E-02  4.78256E-02  4.42527E-02  4.10085E-02  3.71793E-02  3.40271E-02  3.02456E-02  2.70732E-02  2.33914E-02
   2.05564E-02  1.66695E-02  1.34984E-02  8.88685E-03  4.21108E-03 -1.73380E-03 -9.00974E-03 -1.68140E-02 -2.70997E-02 -3.72326E-02
  -5.08200E-02 -6.30237E-02 -7.95534E-02 -9.34807E-02 -1.11977E-01 -1.26518E-01 -1.45428E-01 -1.59107E-01 -1.76002E-01 -1.87319E-01
  -2.00543E-01 -2.08937E-01 -2.17636E-01 -2.22954E-01 -2.26867E-01 -2.28776E-01 -2.28334E-01 -2.26835E-01 -2.22897E-01 -2.18049E-01
  -2.11743E-01 -2.04618E-01 -1.96479E-01 -1.87918E-01 -1.78125E-01 -1.68897E-01 -1.58392E-01 -1.48045E-01 -1.37018E-01 -1.26361E-01
  -1.14753E-01 -1.04898E-01 -9.30352E-02 -8.41444E-02 -7.28775E-02 -6.47231E-02 -5.48799E-02 -4.72798E-02 -3.90820E-02 -3.24368E-02
  -2.57266E-02 -2.04666E-02 -1.51846E-02 -1.10323E-02 -7.00631E-03 -3.27876E-03 -5.10445E-04  2.91518E-03  5.00050E-03  7.81371E-03
   9.86929E-03  1.16795E-02  1.35714E-02  1.52653E-02  1.65983E-02  1.82007E-02  1.90809E-02  2.01726E-02  2.11384E-02  2.20625E-02
   2.28060E-02  2.32212E-02  2.36608E-02  2.36435E-02  2.37462E-02  2.32631E-02  2.35034E-02  2.29762E-02  2.30722E-02  2.26328E-02
   2.22904E-02  2.20639E-02  2.10174E-02  2.10266E-02  1.95213E-02  1.95384E-02  1.81945E-02  1.84253E-02  1.71690E-02  1.79303E-02
   1.69055E-02  1.81907E-02  1.74742E-02  1.85388E-02  1.87671E-02  1.91188E-02  2.02672E-02  1.96056E-02  2.16466E-02  2.06273E-02
   2.27859E-02  2.12395E-02  2.35162E-02  2.16000E-02  2.43218E-02  2.23740E-02  2.52763E-02  2.38106E-02  2.61404E-02  2.56702E-02
   2.73676E-02  2.78034E-02  2.91614E-02  2.99335E-02  3.07986E-02  3.18045E-02  3.24264E-02  3.33076E-02  3.34434E-02  3.40787E-02
   3.38305E-02  3.42455E-02  3.41082E-02  3.41478E-02  3.45498E-02  3.44388E-02  3.46783E-02  3.46264E-02  3.45684E-02  3.48734E-02
   3.49735E-02  3.60078E-02  3.65528E-02  3.77960E-02  3.86238E-02  4.02987E-02  4.10044E-02  4.37090E-02  4.41064E-02  4.77999E-02
   4.80056E-02  5.23483E-02  5.25766E-02  5.67479E-02
 NY background values follow
     1.022E-01    1.019E-01    1.017E-01    1.014E-01    1.011E-01    1.009E-01    1.006E-01    1.003E-01    1.001E-01    9.980E-02
     9.953E-02    9.926E-02    9.900E-02    9.873E-02    9.846E-02    9.820E-02    9.793E-02    9.766E-02    9.740E-02    9.713E-02
     9.686E-02    9.659E-02    9.633E-02    9.606E-02    9.579E-02    9.552E-02    9.526E-02    9.499E-02    9.472E-02    9.445E-02
     9.419E-02    9.392E-02    9.365E-02    9.338E-02    9.311E-02    9.284E-02    9.258E-02    9.231E-02    9.204E-02    9.177E-02
     9.150E-02    9.123E-02    9.097E-02    9.070E-02    9.043E-02    9.016E-02    8.989E-02    8.962E-02    8.935E-02    8.908E-02
     8.881E-02    8.854E-02    8.828E-02    8.801E-02    8.774E-02    8.747E-02    8.720E-02    8.693E-02    8.666E-02    8.639E-02
     8.612E-02    8.585E-02    8.558E-02    8.531E-02    8.504E-02    8.477E-02    8.450E-02    8.423E-02    8.396E-02    8.369E-02
