 
 $NMID
 ID=''
 FMTDAT='(2E13.5)'
 TRAMP=   1.00000E+0
 VOLUME=   1.00000E+0
 $END
   6.89762E+2   3.76622E+1
  -1.21931E+3   1.72772E+3
   4.95965E+3   2.69811E+2
   1.51753E+3  -1.36341E+3
   1.68315E+3  -1.52130E+3
  -4.38260E+2  -3.96804E+3
  -2.76612E+3  -2.01012E+2
  -1.46915E+3  -9.32997E+2
  -5.53546E+2  -1.14534E+3
   8.97976E+2   1.42035E+3
   4.83064E+3   1.11467E+3
   4.11062E+3   3.71099E+2
   1.37440E+3  -7.48348E+2
  -2.05641E+3  -2.82199E+3
  -3.16230E+3  -4.78793E+3
  -2.90117E+3  -3.67614E+3
   1.22328E+3   5.37654E+2
   1.13393E+3   2.80386E+3
   2.95376E+2   3.49367E+3
  -1.23180E+1   1.82593E+3
   4.15163E+3  -1.58886E+3
   2.74347E+3   1.58620E+3
  -2.28054E+3  -5.65931E+2
  -1.18392E+3  -5.16200E+3
   4.53372E+3  -2.19231E+3
   2.05646E+3   4.13783E+3
  -2.83355E+3   2.45909E+2
  -2.94007E+3  -3.34009E+3
   9.92750E+2  -6.19533E+3
   7.08126E+3  -8.63193E+2
   3.81826E+3   5.57037E+3
  -3.60622E+3   5.35463E+3
  -5.09458E+3  -1.95766E+3
   1.49933E+2  -1.06986E+3
  -6.32209E+2   7.40233E+2
  -3.54882E+3  -3.73609E+3
   4.66556E+3  -2.89165E+3
   4.24476E+3   2.66465E+3
   9.83438E+2   3.06534E+3
   1.56139E+3   4.60419E+3
  -4.08652E+2   4.30731E+3
  -7.40313E+3   2.54268E+3
  -8.96074E+2  -3.27711E+3
   1.67030E+3  -1.17095E+3
   2.60838E+3   2.50133E+3
   1.36642E+3   2.62914E+3
   2.06133E+3   2.18421E+3
   1.17860E+1   6.66122E+3
  -2.53832E+3   4.30897E+3
  -3.40947E+3   4.13326E+3
  -1.54320E+3  -4.35834E+2
  -1.16680E+1  -1.49835E+3
   2.92199E+3   2.90685E+2
   2.52775E+3   3.47986E+3
  -3.21449E+2   3.22184E+3
  -3.78161E+3   3.45104E+3
  -4.38765E+3   2.08236E+3
  -7.66037E+3  -1.11823E+3
  -3.58317E+3  -7.07465E+3
   4.78658E+2  -5.51654E+3
   2.30832E+3  -3.49762E+3
   6.39515E+3   4.67025E+2
   1.41546E+3   1.65449E+3
  -1.75291E+3  -4.88754E+2
  -1.49145E+2  -4.49413E+3
   3.96340E+3  -4.96497E+2
  -5.66347E+2   2.13361E+3
  -1.92591E+3   3.63101E+2
  -1.42723E+2  -1.33826E+3
   3.91101E+2  -3.01977E+3
  -1.31792E+3  -3.05236E+3
  -2.01761E+3  -4.12951E+2
  -1.20827E+3  -2.54316E+3
  -2.35089E+3  -3.84023E+3
  -1.67499E+3  -2.81932E+2
  -1.25697E+3   1.81158E+3
  -1.39376E+3   5.70746E+2
  -1.31193E+3  -2.85497E+3
   6.65803E+2   7.04739E+0
   1.96812E+3   3.21221E+3
  -1.93219E+3   2.27270E+3
   5.68428E+2  -5.60945E+2
   8.53691E+2  -7.91184E+2
   4.60725E+2   2.59763E+3
  -1.91298E+3   1.64339E+3
  -2.08848E+3  -1.27400E+3
  -1.86960E+3  -4.43628E+3
   1.74491E+3  -4.97439E+3
   3.71820E+3   3.15498E+2
   1.72453E+3  -1.69439E+2
  -3.89009E+2  -2.56011E+1
   1.47665E+1  -1.74899E+3
   2.52257E+3  -5.09427E+2
  -3.02946E+3   3.03221E+3
  -4.74684E+3  -1.33222E+3
  -3.11911E+2  -3.65884E+3
   1.11850E+3  -4.91455E+3
   2.21240E+3   1.29911E+3
   5.26628E+2   2.73811E+3
  -1.47983E+3  -2.00890E+3
   2.38473E+2  -6.30814E+3
   6.17153E+3  -4.44986E+3
   5.05550E+3   8.96237E+2
   3.33075E+3   4.55336E+3
  -5.97714E+2   1.92609E+2
   5.07693E+2   1.40631E+3
  -6.19600E+2   2.29615E+3
  -1.59263E+3   2.27633E+3
  -9.68226E+2  -1.23035E+1
   1.39581E+3  -3.94775E+3
   1.91772E+3  -3.10824E+3
   2.37810E+3  -5.63694E+2
   3.17117E+3   1.01406E+3
   2.75770E+2   1.60255E+3
   4.59093E+2   1.55924E+3
  -2.27066E+3   1.89160E+3
  -2.56772E+3   4.28818E+2
  -3.67800E+1   2.21426E+2
  -1.47743E+3  -1.96818E+3
   1.28972E+3  -9.60907E+2
   3.44112E+3   8.91010E+2
  -9.28365E+2   2.21945E+2
  -1.52591E+3   8.98343E+2
   1.26045E+3  -1.77380E+3
   1.93352E+3  -5.49776E+2
   1.00544E+3   2.01782E+3
   1.32495E+3  -1.27742E+3
   1.23471E+3  -1.00805E+3
   6.06343E+2   1.48241E+3
   9.14128E+2   7.32981E+2
   3.94302E+2  -7.90483E+1
  -5.66921E+2   9.91042E+1
   1.44215E+3   1.36391E+3
   2.27968E+3   2.44332E+3
   1.16335E+3   2.62237E+3
  -1.07441E+3   2.11594E+3
  -1.12242E+3   6.03084E+2
  -1.78839E+3  -1.85847E+1
   7.63299E+2   5.70912E+2
  -7.92407E+1   2.40425E+3
  -6.50359E+2  -5.23422E+2
  -1.52040E+2   5.14732E+2
   6.32720E+2   4.64546E+2
  -3.35903E+2   2.03550E+3
  -1.02211E+3  -1.05717E+2
   8.10747E+2  -6.10873E+1
   1.16631E+3   1.75510E+3
   8.78474E+2   7.75000E+1
  -2.61075E+3   9.96020E+2
  -7.98964E+1   1.87013E+3
   1.27400E+3   8.23616E+2
  -2.18699E+3   1.62066E+2
  -2.55253E+3  -1.02470E+3
  -8.18158E+2  -2.05497E+3
   1.63787E+3  -2.84851E+3
   1.82357E+3  -2.11544E+2
   5.71416E+2  -1.25831E+2
  -1.02546E+2   2.81416E+2
   1.20931E+3   1.76022E+3
   6.15191E+2   7.19782E+2
  -6.91110E+2  -5.33393E+2
   6.97303E+2   1.64537E+3
  -2.46718E+2   4.82724E+1
  -1.81951E+3  -1.15581E+3
   2.08047E+3   9.07298E+2
   4.72162E+2   1.68109E+3
  -3.09039E+3  -4.44327E+2
  -8.56444E+2  -2.14270E+3
   1.23861E+3   1.77449E+2
   4.66915E+1   7.35906E+2
  -2.02444E+3  -2.85540E+1
  -9.50897E+2   6.16267E+2
  -1.76462E+3   1.40496E+3
  -4.62258E+2  -7.64934E+2
  -6.98926E+1  -7.52614E+2
  -1.95395E+3  -4.56329E+2
   8.17889E+1  -9.54686E+2
   5.54816E+2  -2.63763E+3
   1.66702E+3   2.55390E+2
  -5.51883E+2   2.20685E+3
  -1.76204E+3   1.27380E+3
   5.75948E+2  -1.37641E+3
  -1.22709E+3  -6.32649E+2
  -4.26111E+2   4.82008E+2
   7.65942E+2   9.82856E+2
   5.30533E+2  -1.52548E+3
   3.11088E+3   1.59211E+3
  -2.19614E+1   2.49953E+3
  -2.14757E+3   2.30447E+2
   8.78641E+0  -7.83189E+2
  -2.34434E+3  -5.63821E+1
   5.32755E+2  -3.86629E+2
   8.71737E+2   9.07479E+2
  -5.17955E+2   3.88163E+2
  -1.44111E+3  -1.69011E+3
   1.05698E+3   4.56614E+2
  -1.34781E+3   7.26131E+2
  -1.04399E+3  -1.48557E+2
  -1.55711E+3  -7.62893E+2
   1.43721E+3  -6.50338E+2
   1.82767E+3   2.97688E+3
   7.40734E+1   1.70472E+3
  -1.83234E+3   1.61602E+3
  -1.85747E+3  -5.74027E+2
  -1.33940E+2  -5.36203E+2
   1.00319E+3  -7.31763E+1
  -5.45708E+2  -2.76869E+2
  -1.46971E+3  -2.16707E+2
  -1.29617E+3  -1.48838E+3
   1.85924E+3   3.76660E+2
   9.79588E+2   1.15100E+3
  -7.41381E+2   2.05537E+2
  -2.24674E+3  -1.56722E+3
  -2.78377E+2   3.10969E+2
   1.69520E+3  -1.74326E+2
   3.29308E+3   1.16495E+3
  -6.27186E+1  -1.28444E+3
   4.10383E+2   1.66733E+3
  -4.22980E+2  -3.48946E+1
  -1.02491E+3  -3.00184E+3
  -1.85998E+3  -9.23927E+2
   1.07359E+3  -1.52426E+3
   8.26963E+2   2.03060E+3
   3.49050E+2   2.35138E+2
  -9.01025E+2  -7.13326E+2
  -7.44471E+2  -7.57105E+2
   5.27030E+2  -9.71371E+2
   3.59709E+2  -8.24772E+2
  -4.18297E+2   4.30596E+2
  -4.30265E+2   2.26651E+3
   2.99490E+2   5.48639E+2
   8.75549E+2  -6.61154E+2
   1.05091E+3  -1.05920E+2
  -5.87225E+2   2.46541E+2
  -6.83020E+2  -1.28513E+3
   3.49978E+2  -2.16906E+3
   1.87525E+3  -1.51894E+3
   1.24858E+3   7.41079E+2
  -1.09227E+2  -6.52465E+1
   3.57951E+1   2.50971E+2
  -7.63744E+2  -2.15696E+3
   6.36746E+2  -5.06822E+2
   1.84668E+3   1.56888E+2
  -1.03274E+2  -2.62277E+2
   2.60139E+1   7.91010E+2
   7.29332E+2  -1.71166E+3
   1.20187E+3   2.52949E+3
  -1.07485E+3  -3.00554E+2
  -8.11413E+2  -7.70398E+2
  -1.06839E+3  -1.15328E+3
   1.83135E+3  -2.30197E+3
   2.12380E+3   2.16002E+3
  -1.84397E+3   1.03869E+3
  -2.35444E+3   4.52457E+2
  -1.71104E+3   6.67081E+2
   8.01494E+2   4.17622E+2
  -2.11544E+3  -7.69727E+2
  -1.80249E+3  -1.36003E+3
  -1.22541E+3   2.00815E+2
  -1.20229E+3  -1.40217E+2
  -2.00703E+2   1.65974E+3
  -3.45951E+2   1.82950E+3
  -3.51567E+2   1.25187E+3
   6.55762E+2  -2.52702E+2
   9.13713E+2  -2.25705E+2
   1.15313E+3  -2.78392E+2
  -2.08272E+2  -2.26609E+2
   4.19640E+2  -4.30504E+2
   1.37671E+3   7.36917E+2
  -9.70596E+2   6.66620E+2
  -1.42883E+2  -4.38780E+2
  -4.23942E+2  -2.31739E+3
   8.74530E+2   2.67852E+2
   2.25235E+3  -3.54788E+2
   6.46692E+0   1.25046E+3
  -7.26982E+2  -4.67269E+2
  -2.14312E+3  -7.34533E+2
   1.31666E+3   1.40325E+3
  -2.82815E+3   1.88396E+3
  -1.23011E+3  -3.07514E+2
   2.11139E+2  -1.57396E+3
   2.11500E+3  -1.70363E+3
   1.45317E+3   6.01508E+2
  -1.14036E+2   1.15915E+3
  -6.57846E+2   7.31811E+1
  -9.05722E+2  -6.90599E+2
   1.15138E+3   8.87560E+2
  -1.02481E+3   2.54020E+3
  -1.11098E+3  -1.54991E+2
  -3.31548E+2  -7.24311E+2
   7.68672E+2  -1.51425E+3
   1.35405E+3   1.28711E+3
   8.75597E+1   7.29343E+2
   9.19769E+2  -3.16380E+2
   1.05728E+3   2.03611E+2
   7.54819E+2   2.85604E+3
  -2.19811E+2  -2.38702E+2
   2.49636E+1  -7.69182E+2
  -1.36079E+3  -1.14404E+1
   8.04455E+2   7.64900E+2
  -1.63042E+3  -1.88208E+3
  -8.94342E+2   2.07775E+3
  -6.56063E+2   1.23108E+2
  -7.15638E+2   1.90974E+3
   1.35922E+3   1.80472E+3
  -7.09594E+2  -1.25652E+2
  -1.01689E+3  -1.83231E+3
   5.12702E+1   5.22819E+2
   2.30217E+2  -5.43382E+1
   1.97081E+3   5.24958E+2
  -4.47399E+1   9.01164E+2
  -1.00167E+3   1.06611E+3
  -1.18469E+3  -2.06654E+3
  -8.54367E+1  -5.75487E+1
  -1.15715E+3  -4.57193E+1
  -6.85334E+2  -5.39610E+2
  -5.85537E+1  -5.93416E+2
   5.80329E+2   1.92040E+3
  -4.91899E+2   1.59501E+3
  -2.28838E+2   1.61548E+3
  -1.08073E+3   1.32720E+3
  -8.99723E+2   1.75270E+3
   6.12472E+2   4.03877E+2
   1.76281E+2  -2.07679E+3
   2.12508E+2   3.73676E+2
  -4.98688E+2  -4.37198E+2
   3.62986E+2   1.07734E+3
   5.53365E+2   2.62202E+3
  -4.38763E+2  -3.99941E+2
  -4.07966E+2  -1.12741E+3
   5.27106E+2  -1.77232E+3
   2.66360E+3  -6.12216E+2
  -1.48530E+2   3.74608E+1
   1.10637E+3  -5.29707E+2
  -2.67604E+2   5.58901E+2
  -1.47000E+2  -1.80884E+3
  -4.13460E+2  -2.70098E+2
  -1.87610E+1   6.73055E+2
  -9.58024E+1  -5.98875E+2
   2.83025E+3   1.73630E+2
   2.32376E+2   2.15495E+2
  -9.51541E+2  -1.64353E+2
  -1.04592E+3   1.46195E+2
  -1.11380E+3   1.04016E+3
   2.16046E+3  -3.74492E+2
   7.99444E+2  -4.25881E+2
  -4.27386E+2  -1.96384E+2
   1.48827E+3  -8.75679E+2
   4.65514E+2  -7.99207E+2
   2.08789E+2  -6.47166E+2
  -1.85227E+3   3.91923E+2
  -7.19436E+2   2.72275E+2
   1.85847E+3   1.52201E+2
   1.49838E+3   3.48291E+2
  -4.17751E+2   1.86077E+3
  -8.10561E+1  -1.04824E+3
  -2.14633E+3  -1.53283E+2
  -2.47081E+2  -2.12877E+3
   2.08925E+3  -1.40304E+3
  -1.34280E+2  -4.54668E+2
   1.96895E+3  -7.69733E+2
  -1.73534E+2  -6.84167E+1
  -6.86560E+2   1.15616E+2
  -3.92887E+2  -7.84953E+2
  -8.50445E+2   6.64328E+2
  -1.62527E+3   1.05156E+3
   2.06324E+2  -3.61681E+2
