 
 $NMID
 ID=''
 FMTDAT='(2E13.5)'
 TRAMP=   1.00000E+0
 VOLUME=   1.00000E+0
 $END
  -1.99829E+4   3.81178E+3
  -5.21619E+4  -5.05575E+3
  -5.20762E+4   4.36882E+3
  -4.78530E+4   4.17221E+3
  -4.98150E+4   2.89215E+3
  -4.95532E+4   5.05745E+3
  -4.75968E+4   4.37963E+3
  -4.83617E+4   3.50957E+3
  -4.82621E+4   4.93481E+3
  -4.68132E+4   4.51049E+3
  -4.71554E+4   3.93337E+3
  -4.69370E+4   4.91230E+3
  -4.60641E+4   4.90174E+3
  -4.63728E+4   4.28967E+3
  -4.60848E+4   4.93729E+3
  -4.51672E+4   4.86003E+3
  -4.53961E+4   4.56241E+3
  -4.50840E+4   5.00977E+3
  -4.45096E+4   5.10229E+3
  -4.45426E+4   4.80657E+3
  -4.43167E+4   5.15174E+3
  -4.37425E+4   5.31507E+3
  -4.36926E+4   5.20778E+3
  -4.34964E+4   5.33675E+3
  -4.29093E+4   5.38314E+3
  -4.29025E+4   5.29034E+3
  -4.27106E+4   5.43730E+3
  -4.22207E+4   5.31378E+3
  -4.20567E+4   5.06552E+3
  -4.18266E+4   5.23970E+3
  -4.12912E+4   5.32628E+3
  -4.11831E+4   5.38373E+3
  -4.09684E+4   5.27417E+3
  -4.06002E+4   5.28269E+3
  -4.03444E+4   5.31688E+3
  -4.01335E+4   5.47456E+3
  -3.97305E+4   5.50437E+3
  -3.94683E+4   5.62900E+3
  -3.92170E+4   5.75549E+3
  -3.89838E+4   5.80461E+3
  -3.87829E+4   5.84118E+3
  -3.85423E+4   5.73513E+3
  -3.82441E+4   5.62468E+3
  -3.79414E+4   5.64332E+3
  -3.76227E+4   5.71875E+3
  -3.73883E+4   5.73757E+3
  -3.71503E+4   5.67544E+3
  -3.68358E+4   5.66675E+3
  -3.66605E+4   5.81778E+3
  -3.63969E+4   5.78863E+3
  -3.61105E+4   5.72526E+3
  -3.57514E+4   5.80786E+3
  -3.54818E+4   5.85411E+3
  -3.51749E+4   5.93106E+3
  -3.50248E+4   6.00495E+3
  -3.47818E+4   6.01340E+3
  -3.44964E+4   6.05294E+3
  -3.43771E+4   5.98890E+3
  -3.40110E+4   5.95339E+3
  -3.38349E+4   6.01034E+3
  -3.35906E+4   5.99498E+3
  -3.33776E+4   6.04147E+3
  -3.32217E+4   6.12802E+3
  -3.30472E+4   6.08322E+3
  -3.28645E+4   6.03562E+3
  -3.26356E+4   6.09854E+3
  -3.24980E+4   6.07523E+3
  -3.23259E+4   6.13940E+3
  -3.21777E+4   6.09925E+3
  -3.19762E+4   6.09576E+3
  -3.18281E+4   6.04249E+3
  -3.16678E+4   6.10451E+3
  -3.14150E+4   6.04131E+3
  -3.12860E+4   6.08441E+3
  -3.10201E+4   6.02889E+3
  -3.08442E+4   6.14608E+3
  -3.07300E+4   6.03592E+3
  -3.05256E+4   6.07359E+3
  -3.03008E+4   6.01351E+3
  -3.01456E+4   6.03113E+3
  -3.00506E+4   6.02643E+3
  -2.98858E+4   6.00281E+3
  -2.97052E+4   5.96720E+3
  -2.95191E+4   5.91615E+3
  -2.93535E+4   5.94775E+3
  -2.91800E+4   5.85715E+3
  -2.90048E+4   5.83415E+3
  -2.87218E+4   5.70178E+3
  -2.86092E+4   5.77460E+3
  -2.83832E+4   5.76484E+3
  -2.83332E+4   5.64026E+3
  -2.80253E+4   5.61531E+3
  -2.78444E+4   5.63554E+3
  -2.76540E+4   5.68628E+3
  -2.75158E+4   5.58798E+3
  -2.72146E+4   5.61868E+3
  -2.69910E+4   5.60061E+3
  -2.67874E+4   5.60697E+3
  -2.66303E+4   5.56556E+3
  -2.65393E+4   5.55498E+3
  -2.62733E+4   5.36719E+3
  -2.60780E+4   5.47763E+3
  -2.58630E+4   5.49848E+3
  -2.57529E+4   5.46297E+3
  -2.54994E+4   5.42257E+3
  -2.53996E+4   5.41179E+3
  -2.51458E+4   5.36687E+3
  -2.49407E+4   5.32446E+3
  -2.48242E+4   5.36646E+3
  -2.46106E+4   5.34373E+3
  -2.44561E+4   5.39410E+3
  -2.42606E+4   5.46250E+3
  -2.40735E+4   5.44170E+3
  -2.39252E+4   5.34454E+3
  -2.37756E+4   5.39861E+3
  -2.36530E+4   5.37037E+3
  -2.35046E+4   5.27148E+3
  -2.32345E+4   5.28703E+3
  -2.30832E+4   5.37068E+3
  -2.29927E+4   5.33746E+3
  -2.28099E+4   5.35923E+3
  -2.27008E+4   5.28877E+3
  -2.25106E+4   5.28885E+3
  -2.23624E+4   5.24839E+3
  -2.21822E+4   5.30133E+3
  -2.21190E+4   5.30364E+3
  -2.20105E+4   5.24977E+3
  -2.17981E+4   5.28005E+3
  -2.17316E+4   5.24379E+3
  -2.15983E+4   5.25933E+3
  -2.13792E+4   5.25573E+3
  -2.13216E+4   5.29189E+3
  -2.10997E+4   5.26002E+3
  -2.09427E+4   5.35645E+3
  -2.08806E+4   5.26397E+3
  -2.06729E+4   5.23000E+3
  -2.05439E+4   5.21856E+3
  -2.04228E+4   5.20509E+3
  -2.02563E+4   5.23367E+3
  -2.01541E+4   5.25323E+3
  -2.00366E+4   5.22318E+3
  -1.98267E+4   5.19174E+3
  -1.96548E+4   5.19351E+3
  -1.96134E+4   5.26857E+3
  -1.94359E+4   5.19714E+3
  -1.92466E+4   5.26684E+3
  -1.91108E+4   5.12836E+3
  -1.90081E+4   5.24608E+3
  -1.88444E+4   5.20883E+3
  -1.87218E+4   5.21042E+3
  -1.85584E+4   5.19116E+3
  -1.84059E+4   5.17583E+3
  -1.82521E+4   5.13580E+3
  -1.81036E+4   5.15079E+3
  -1.80171E+4   5.16815E+3
  -1.78474E+4   5.19550E+3
  -1.77360E+4   5.21980E+3
  -1.75286E+4   5.11940E+3
  -1.74121E+4   5.16793E+3
  -1.72997E+4   5.18099E+3
  -1.71568E+4   5.18454E+3
  -1.69835E+4   5.23867E+3
  -1.68624E+4   5.13555E+3
  -1.67191E+4   5.18499E+3
  -1.65641E+4   5.24659E+3
  -1.64638E+4   5.19279E+3
  -1.62982E+4   5.17655E+3
  -1.61900E+4   5.20603E+3
  -1.60190E+4   5.17910E+3
  -1.59812E+4   5.24395E+3
  -1.58400E+4   5.19030E+3
  -1.56361E+4   5.21051E+3
  -1.55623E+4   5.18847E+3
  -1.54087E+4   5.15336E+3
  -1.52602E+4   5.19487E+3
  -1.51207E+4   5.18297E+3
  -1.50791E+4   5.16799E+3
  -1.49147E+4   5.19531E+3
  -1.48260E+4   5.14488E+3
  -1.46865E+4   5.11102E+3
  -1.45675E+4   5.08732E+3
  -1.43781E+4   5.09016E+3
  -1.43252E+4   5.07025E+3
  -1.42163E+4   5.07937E+3
  -1.40993E+4   5.08641E+3
  -1.39635E+4   5.04335E+3
  -1.38916E+4   5.05438E+3
  -1.38317E+4   5.02953E+3
  -1.36716E+4   5.00119E+3
  -1.35593E+4   4.98295E+3
  -1.34251E+4   4.93241E+3
  -1.32990E+4   4.99931E+3
  -1.31994E+4   4.91517E+3
  -1.31651E+4   4.95357E+3
  -1.30241E+4   4.86320E+3
  -1.29149E+4   4.89578E+3
  -1.27793E+4   4.90916E+3
  -1.27046E+4   4.83262E+3
  -1.26343E+4   4.86054E+3
  -1.24986E+4   4.82101E+3
  -1.23992E+4   4.79661E+3
  -1.23779E+4   4.74302E+3
  -1.22823E+4   4.77682E+3
  -1.21117E+4   4.76002E+3
  -1.20165E+4   4.71983E+3
  -1.19448E+4   4.70570E+3
  -1.19004E+4   4.70214E+3
  -1.17495E+4   4.64226E+3
  -1.16974E+4   4.69400E+3
  -1.15676E+4   4.61760E+3
  -1.15212E+4   4.61194E+3
  -1.13894E+4   4.53549E+3
  -1.12855E+4   4.60186E+3
  -1.12991E+4   4.56484E+3
  -1.12139E+4   4.52508E+3
  -1.10746E+4   4.50590E+3
  -1.10190E+4   4.48225E+3
  -1.09211E+4   4.48989E+3
  -1.08098E+4   4.48370E+3
  -1.07393E+4   4.43230E+3
  -1.05935E+4   4.47028E+3
  -1.05715E+4   4.44253E+3
  -1.04890E+4   4.36258E+3
  -1.03766E+4   4.37962E+3
  -1.03520E+4   4.28452E+3
  -1.02790E+4   4.32248E+3
  -1.00964E+4   4.24480E+3
  -1.01303E+4   4.20624E+3
  -1.00536E+4   4.23679E+3
  -9.94117E+3   4.23832E+3
  -9.84083E+3   4.16887E+3
  -9.87140E+3   4.16795E+3
  -9.74778E+3   4.19851E+3
  -9.67266E+3   4.09520E+3
  -9.57961E+3   4.10987E+3
  -9.53360E+3   4.10681E+3
  -9.41720E+3   4.06054E+3
  -9.38628E+3   4.07307E+3
  -9.23827E+3   4.02769E+3
  -9.20060E+3   4.01429E+3
  -9.09150E+3   4.01449E+3
  -9.07546E+3   3.97338E+3
  -9.01275E+3   4.00169E+3
  -8.88528E+3   4.01482E+3
  -8.90344E+3   3.94914E+3
  -8.84078E+3   3.91278E+3
  -8.69609E+3   3.97530E+3
  -8.69991E+3   3.91625E+3
  -8.57339E+3   3.92895E+3
  -8.49177E+3   3.96078E+3
  -8.44759E+3   3.94061E+3
  -8.47553E+3   3.89310E+3
  -8.38483E+3   3.90000E+3
  -8.32813E+3   3.82892E+3
  -8.21841E+3   3.93443E+3
  -8.13157E+3   3.83952E+3
  -8.10615E+3   3.79808E+3
  -8.05316E+3   3.84958E+3
  -7.94833E+3   3.83804E+3
  -7.90989E+3   3.87704E+3
  -7.85058E+3   3.81629E+3
  -7.82268E+3   3.77095E+3
  -7.67999E+3   3.79911E+3
  -7.76011E+3   3.76507E+3
  -7.65737E+3   3.75394E+3
  -7.58414E+3   3.78181E+3
  -7.50313E+3   3.81843E+3
  -7.43594E+3   3.70857E+3
  -7.42298E+3   3.67741E+3
  -7.44159E+3   3.69350E+3
  -7.27599E+3   3.68074E+3
  -7.24927E+3   3.65502E+3
  -7.12046E+3   3.70255E+3
  -7.16044E+3   3.62994E+3
  -7.04328E+3   3.65361E+3
  -6.99337E+3   3.68530E+3
  -6.99162E+3   3.67109E+3
  -6.88094E+3   3.65228E+3
  -6.88188E+3   3.65390E+3
  -6.80936E+3   3.61810E+3
  -6.72468E+3   3.57973E+3
  -6.61345E+3   3.60665E+3
  -6.69681E+3   3.59198E+3
  -6.56669E+3   3.53154E+3
  -6.57227E+3   3.56242E+3
  -6.46571E+3   3.53853E+3
  -6.40993E+3   3.56391E+3
  -6.44508E+3   3.60682E+3
  -6.36973E+3   3.55706E+3
  -6.24775E+3   3.50455E+3
  -6.24800E+3   3.53721E+3
  -6.24857E+3   3.60134E+3
  -6.17636E+3   3.54590E+3
  -6.02932E+3   3.51056E+3
  -6.10476E+3   3.52476E+3
  -6.05853E+3   3.50749E+3
  -5.93065E+3   3.48583E+3
  -5.87764E+3   3.41540E+3
  -5.84504E+3   3.43087E+3
  -5.84917E+3   3.42327E+3
  -5.79505E+3   3.39927E+3
  -5.77128E+3   3.41200E+3
  -5.69408E+3   3.40482E+3
  -5.68082E+3   3.44174E+3
  -5.62676E+3   3.42734E+3
  -5.52655E+3   3.46014E+3
  -5.45831E+3   3.40549E+3
  -5.43147E+3   3.41265E+3
  -5.44135E+3   3.34217E+3
  -5.43140E+3   3.32746E+3
  -5.34502E+3   3.34989E+3
  -5.31598E+3   3.27953E+3
  -5.22540E+3   3.30555E+3
  -5.20037E+3   3.33604E+3
  -5.14191E+3   3.29384E+3
  -5.16328E+3   3.31395E+3
  -5.07664E+3   3.30751E+3
  -5.05916E+3   3.29277E+3
  -4.97149E+3   3.22785E+3
  -4.94635E+3   3.25224E+3
  -4.95677E+3   3.27410E+3
  -4.79045E+3   3.15688E+3
  -4.85921E+3   3.27619E+3
  -4.75120E+3   3.22889E+3
  -4.68396E+3   3.18135E+3
  -4.67883E+3   3.15248E+3
  -4.66154E+3   3.14296E+3
  -4.65934E+3   3.14911E+3
  -4.53713E+3   3.09252E+3
  -4.50007E+3   3.18113E+3
  -4.42000E+3   3.13684E+3
  -4.50450E+3   3.16155E+3
  -4.43381E+3   3.11710E+3
  -4.42853E+3   3.06474E+3
  -4.37598E+3   3.10266E+3
  -4.25257E+3   3.08594E+3
  -4.25053E+3   3.05365E+3
  -4.14225E+3   3.06392E+3
  -4.20495E+3   3.08136E+3
  -4.18367E+3   3.05159E+3
  -4.11907E+3   3.09599E+3
  -4.09055E+3   2.99071E+3
  -4.02730E+3   3.00320E+3
  -3.99600E+3   2.93425E+3
  -3.91892E+3   3.00497E+3
  -3.95587E+3   2.90157E+3
  -3.90638E+3   2.96291E+3
  -3.88367E+3   2.96067E+3
  -3.78616E+3   2.85060E+3
  -3.73905E+3   2.88169E+3
  -3.76856E+3   2.90930E+3
  -3.69186E+3   2.83864E+3
  -3.67009E+3   2.86250E+3
  -3.71499E+3   2.83760E+3
  -3.63715E+3   2.82293E+3
  -3.59672E+3   2.82381E+3
  -3.51566E+3   2.82387E+3
  -3.51149E+3   2.84169E+3
  -3.46734E+3   2.77034E+3
  -3.48375E+3   2.74589E+3
  -3.47541E+3   2.71780E+3
  -3.34084E+3   2.70604E+3
  -3.35149E+3   2.70852E+3
  -3.34151E+3   2.64995E+3
  -3.26703E+3   2.67969E+3
  -3.28336E+3   2.64929E+3
  -3.24408E+3   2.62461E+3
