 LCModel (Version 6.3-1N) Copyright: S.W. Provencher.          Ref.: Magn. Reson. Med. 30:672-679 (1993).                
 Slice_N1@12_23  02-Jun-2023 14:36:31
 27 lines in following concentration table = NCONC+1
    Conc.  %SD /Cr+PCr  Metabolite                                         
 2.02E-06  32% 1.7E-04 Mac                                                 
 5.88E-02  33%   4.938 Cr                                                  
 3.64E-02  54%   3.062 PCr                                                 
    0.105  14%   8.786 Ins                                                 
    0.132   9%  11.068 NAA                                                 
 8.31E-02  16%   6.983 Tau                                                 
 6.67E-03 147%   0.561 PCho                                                
 3.00E-03 339%   0.252 GPC                                                 
    0.135  12%  11.372 Glu                                                 
 4.53E-02  28%   3.810 Gln                                                 
    0.000 999%   0.000 Ala                                                 
    0.000 999%   0.000 Asc                                                 
 1.77E-02  63%   1.486 Asp                                                 
 8.82E-03  70%   0.741 GABA                                                
 1.39E-02  51%   1.171 Glc                                                 
 1.92E-02  37%   1.614 GSH                                                 
    0.000 999%   0.000 Lac                                                 
 1.46E-02  59%   1.229 NAAG                                                
 7.57E-03 261%   0.637 PE                                                  
 9.67E-03  51%   0.813 GPC+PCho                                            
    0.146  10%  12.297 NAA+NAAG                                            
    0.181  11%  15.183 Glu+Gln                                             
 9.52E-02  11%   8.000 Cr+PCr                                              
    0.146  10%  12.297 NAA+NAAG                                            
 9.52E-02  11%   8.000 Cr+PCr                                              
    0.181  11%  15.183 Glu+Gln                                             
   6 lines in following misc. output table
  FWHM = 0.023 ppm    S/N =   4                                            
  Data shift = 0.012 ppm                                                   
  Ph: -18 deg     -15.6 deg/ppm                                            
  alphaB,S = 3.1E+01,   9.8E+00                                            
   18 spline knots.   Ns = 5(1)                                            
   2 inflections.     1 extrema                                            
  654 points on ppm-axis = NY
      4.000000     3.994181     3.988363     3.982544     3.976726     3.970907     3.965088     3.959270     3.953451     3.947633
      3.941814     3.935995     3.930177     3.924358     3.918540     3.912721     3.906902     3.901084     3.895265     3.889446
      3.883628     3.877809     3.871991     3.866172     3.860353     3.854535     3.848716     3.842898     3.837079     3.831260
      3.825442     3.819623     3.813805     3.807986     3.802167     3.796349     3.790530     3.784712     3.778893     3.773074
      3.767256     3.761437     3.755619     3.749800     3.743981     3.738163     3.732344     3.726526     3.720707     3.714888
      3.709070     3.703251     3.697433     3.691614     3.685795     3.679977     3.674158     3.668339     3.662521     3.656702
      3.650884     3.645065     3.639246     3.633428     3.627609     3.621791     3.615972     3.610153     3.604335     3.598516
      3.592698     3.586879     3.581060     3.575242     3.569423     3.563605     3.557786     3.551967     3.546149     3.540330
      3.534512     3.528693     3.522874     3.517056     3.511237     3.505419     3.499600     3.493781     3.487963     3.482144
      3.476326     3.470507     3.464688     3.458870     3.453051     3.447232     3.441414     3.435595     3.429777     3.423958
      3.418139     3.412321     3.406502     3.400684     3.394865     3.389046     3.383228     3.377409     3.371591     3.365772
      3.359953     3.354135     3.348316     3.342498     3.336679     3.330860     3.325042     3.319223     3.313405     3.307586
      3.301767     3.295949     3.290130     3.284312     3.278493     3.272674     3.266856     3.261037     3.255219     3.249400
      3.243581     3.237763     3.231944     3.226125     3.220307     3.214488     3.208670     3.202851     3.197032     3.191214
      3.185395     3.179577     3.173758     3.167939     3.162121     3.156302     3.150484     3.144665     3.138846     3.133028
      3.127209     3.121391     3.115572     3.109753     3.103935     3.098116     3.092298     3.086479     3.080660     3.074842
      3.069023     3.063205     3.057386     3.051567     3.045749     3.039930     3.034111     3.028293     3.022474     3.016656
      3.010837     3.005018     2.999200     2.993381     2.987563     2.981744     2.975925     2.970107     2.964288     2.958470
      2.952651     2.946832     2.941014     2.935195     2.929377     2.923558     2.917739     2.911921     2.906102     2.900284
      2.894465     2.888646     2.882828     2.877009     2.871191     2.865372     2.859553     2.853735     2.847916     2.842098
      2.836279     2.830460     2.824642     2.818823     2.813004     2.807186     2.801367     2.795549     2.789730     2.783911
      2.778093     2.772274     2.766456     2.760637     2.754818     2.749000     2.743181     2.737363     2.731544     2.725725
      2.719907     2.714088     2.708270     2.702451     2.696632     2.690814     2.684995     2.679177     2.673358     2.667539
      2.661721     2.655902     2.650084     2.644265     2.638446     2.632628     2.626809     2.620991     2.615172     2.609353
      2.603535     2.597716     2.591897     2.586079     2.580260     2.574442     2.568623     2.562804     2.556986     2.551167
      2.545349     2.539530     2.533711     2.527893     2.522074     2.516256     2.510437     2.504618     2.498800     2.492981
      2.487163     2.481344     2.475525     2.469707     2.463888     2.458070     2.452251     2.446432     2.440614     2.434795
      2.428977     2.423158     2.417339     2.411521     2.405702     2.399884     2.394065     2.388246     2.382428     2.376609
      2.370790     2.364972     2.359153     2.353335     2.347516     2.341697     2.335879     2.330060     2.324242     2.318423
      2.312604     2.306786     2.300967     2.295149     2.289330     2.283511     2.277693     2.271874     2.266056     2.260237
      2.254418     2.248600     2.242781     2.236963     2.231144     2.225325     2.219507     2.213688     2.207870     2.202051
      2.196232     2.190414     2.184595     2.178777     2.172958     2.167139     2.161321     2.155502     2.149683     2.143865
      2.138046     2.132228     2.126409     2.120590     2.114772     2.108953     2.103135     2.097316     2.091497     2.085679
      2.079860     2.074042     2.068223     2.062404     2.056586     2.050767     2.044949     2.039130     2.033311     2.027493
      2.021674     2.015856     2.010037     2.004218     1.998400     1.992581     1.986763     1.980944     1.975126     1.969307
      1.963489     1.957670     1.951852     1.946033     1.940215     1.934397     1.928578     1.922760     1.916941     1.911123
      1.905304     1.899486     1.893667     1.887849     1.882030     1.876212     1.870393     1.864575     1.858756     1.852938
      1.847119     1.841301     1.835482     1.829664     1.823845     1.818027     1.812208     1.806390     1.800571     1.794753
      1.788934     1.783116     1.777297     1.771479     1.765660     1.759842     1.754023     1.748205     1.742386     1.736568
      1.730749     1.724931     1.719113     1.713294     1.707476     1.701657     1.695839     1.690020     1.684202     1.678383
      1.672565     1.666746     1.660928     1.655109     1.649291     1.643472     1.637654     1.631835     1.626017     1.620198
      1.614380     1.608561     1.602743     1.596924     1.591106     1.585287     1.579469     1.573650     1.567832     1.562013
      1.556195     1.550376     1.544558     1.538739     1.532921     1.527102     1.521284     1.515465     1.509647     1.503829
      1.498010     1.492192     1.486373     1.480555     1.474736     1.468918     1.463099     1.457281     1.451462     1.445644
      1.439825     1.434007     1.428188     1.422370     1.416551     1.410733     1.404914     1.399096     1.393277     1.387459
      1.381640     1.375822     1.370003     1.364185     1.358366     1.352548     1.346729     1.340911     1.335092     1.329274
      1.323455     1.317637     1.311818     1.306000     1.300182     1.294363     1.288545     1.282726     1.276908     1.271089
      1.265271     1.259452     1.253634     1.247815     1.241997     1.236178     1.230360     1.224541     1.218723     1.212904
      1.207086     1.201267     1.195449     1.189630     1.183812     1.177993     1.172175     1.166356     1.160538     1.154719
      1.148901     1.143082     1.137264     1.131445     1.125627     1.119808     1.113990     1.108171     1.102353     1.096534
      1.090716     1.084898     1.079079     1.073261     1.067442     1.061624     1.055805     1.049987     1.044168     1.038350
      1.032531     1.026713     1.020894     1.015076     1.009257     1.003439     0.997620     0.991802     0.985983     0.980165
      0.974346     0.968528     0.962709     0.956891     0.951072     0.945254     0.939435     0.933617     0.927798     0.921980
      0.916161     0.910343     0.904524     0.898706     0.892887     0.887069     0.881251     0.875432     0.869614     0.863795
      0.857977     0.852158     0.846340     0.840521     0.834703     0.828884     0.823066     0.817247     0.811429     0.805610
      0.799792     0.793973     0.788155     0.782336     0.776518     0.770699     0.764881     0.759062     0.753244     0.747425
      0.741607     0.735788     0.729970     0.724151     0.718333     0.712514     0.706696     0.700877     0.695059     0.689240
      0.683422     0.677603     0.671785     0.665967     0.660148     0.654330     0.648511     0.642693     0.636874     0.631056
      0.625237     0.619419     0.613600     0.607782     0.601963     0.596145     0.590326     0.584508     0.578689     0.572871
      0.567052     0.561234     0.555415     0.549597     0.543778     0.537960     0.532141     0.526323     0.520504     0.514686
      0.508867     0.503049     0.497230     0.491412     0.485593     0.479775     0.473956     0.468138     0.462319     0.456501
      0.450682     0.444864     0.439045     0.433227     0.427408     0.421590     0.415771     0.409953     0.404134     0.398316
      0.392497     0.386679     0.380860     0.375042     0.369223     0.363405     0.357586     0.351767     0.345949     0.340130
      0.334312     0.328493     0.322675     0.316856     0.311038     0.305219     0.299401     0.293582     0.287764     0.281945
      0.276127     0.270308     0.264490     0.258671     0.252853     0.247034     0.241216     0.235397     0.229579     0.223760
      0.217942     0.212123     0.206305     0.200486
 NY phased data points follow
  -1.54854E-01 -4.68503E-01 -8.54597E-01  5.79436E-01 -2.71812E-01  4.83596E-01  3.04958E-01  4.03567E-01  3.39394E-01 -1.43840E-01
  -1.74534E-02  3.38047E-01  6.45218E-01 -1.27046E-01  6.28196E-01  5.15345E-01  3.96039E-01  2.31822E-01  6.70928E-01  7.88478E-02
   7.52968E-02  1.82097E-01 -3.61713E-01 -5.51452E-02 -9.03171E-01 -4.51274E-01 -1.00748E+00 -1.47160E-01 -2.93156E-01 -6.43174E-01
  -4.07920E-01 -6.11095E-01  1.29665E-01 -3.47259E-01 -2.99658E-01 -3.73373E-01  1.12114E-01  3.03701E-01 -1.86269E-01 -3.23569E-01
   5.92144E-01  6.27837E-01  9.14706E-02  5.27020E-01  6.15916E-01  3.02134E-01  3.57294E-01 -1.10318E-01 -2.15200E-01  5.98078E-01
   2.31077E-01  6.10468E-01 -1.33443E-01 -1.14221E-01 -6.69574E-02  2.13179E-01  6.79458E-01 -3.84722E-01 -2.85048E-01  1.21538E-01
   2.51410E-01 -1.84245E-01 -5.50839E-01 -6.19568E-01  1.20526E-01 -2.64880E-01  3.39459E-01  4.96568E-02 -2.75026E-01  3.79593E-01
  -1.61286E-01  4.66342E-01 -2.64924E-01 -3.93852E-01  5.17107E-02  2.43958E-01 -5.73894E-01 -6.10234E-01 -9.45052E-01 -8.84033E-01
  -7.72303E-01 -6.36838E-01  6.57159E-01 -3.15552E-01  4.09986E-01  3.59704E-01  3.44675E-01  1.49397E-01 -1.43228E-01  1.73057E-01
  -3.54955E-01 -5.32479E-02  2.75549E-01  5.89103E-01  5.49655E-02  2.95407E-01  1.78599E-02  1.60452E-01 -1.17789E-01 -5.04733E-01
  -2.22332E-01 -4.39516E-01  1.34048E-01  3.84409E-01  1.29765E-01  5.07930E-01  4.96851E-01  2.42423E-01  1.14092E+00  8.40973E-01
   5.86686E-01  2.50391E-01  3.67622E-01  3.94035E-01  2.90512E-01  6.95069E-01  4.19531E-01  7.43162E-01  5.17155E-01  8.35467E-01
   3.46106E-01  1.05685E-01  1.94299E-01 -1.34021E-01 -2.91472E-01 -3.90432E-01 -3.16132E-01 -7.36762E-01 -8.70202E-01 -1.20746E+00
  -5.16142E-01 -5.80347E-01 -8.00948E-01 -4.92506E-01 -7.27953E-01 -5.41200E-01 -8.49583E-01 -6.02072E-01 -2.93456E-01 -5.07583E-01
  -2.20312E-01 -1.67661E-01 -3.87692E-01 -6.26805E-02  8.76047E-02  6.15403E-01  6.00564E-01  2.14596E-01  2.16788E-01 -2.73501E-01
  -1.63136E-01  5.06539E-02  4.25987E-01  4.82237E-01  9.55791E-02  4.32001E-01  6.74787E-01  7.93560E-01  9.28326E-01  1.15096E+00
   7.28791E-01  3.66113E-01  1.16440E+00  1.47298E+00  1.25948E+00  1.58352E+00  1.94149E+00  2.03635E-01 -1.52413E+00 -9.18262E-01
  -9.40810E-01 -8.18315E-01 -5.19059E-01 -5.73809E-01 -3.38804E-01 -2.83118E-01 -3.06586E-01 -5.12755E-01 -2.19702E-01 -6.19147E-01
  -3.37182E-01  7.59006E-02 -4.79450E-01 -3.05147E-01 -3.64744E-01 -1.53104E-01 -2.48382E-01 -1.88249E-01 -6.08479E-01 -8.62570E-02
   5.62679E-01 -2.43922E-01  2.94044E-01  3.00528E-01 -1.91659E-01 -5.51373E-01 -1.31263E-02 -4.93432E-01 -4.92845E-01  2.87157E-01
  -2.64153E-01  5.80148E-01  3.42745E-01  5.00543E-02 -1.13957E-01 -4.61880E-01 -2.35447E-01 -8.45765E-03  4.96055E-02 -2.27101E-01
  -3.04042E-01 -6.02177E-01 -2.22406E-01 -1.13940E-01 -6.04894E-01  1.37857E-01  3.29725E-01 -3.73693E-01  3.32494E-01 -2.06655E-01
  -2.28451E-03  4.38096E-01 -1.97137E-01  1.44933E-01  4.59949E-01  6.19348E-01  4.57747E-01  1.01136E+00  4.32953E-02  6.52812E-01
   8.00409E-01  2.50140E-01  3.74095E-01 -5.33076E-01  5.65964E-02 -7.54586E-01 -2.21150E-02  3.01092E-02 -6.51170E-01  1.98912E-01
  -2.28627E-01 -5.10009E-01 -4.00081E-01 -3.69349E-01  2.94049E-02  1.22250E-01 -5.47002E-01 -1.91287E-01 -2.25008E-01 -9.56895E-02
   8.77059E-03  1.58485E-01 -7.43421E-02 -1.32732E-01  9.81766E-02 -2.45228E-01  6.29781E-02 -2.28383E-01  4.55206E-02 -1.38792E-01
   4.26429E-01  4.80860E-01 -2.49027E-01  1.66162E-01 -2.07901E-02 -2.31188E-01 -2.58677E-01  2.87686E-01  2.70143E-01 -2.96621E-02
   2.95469E-01  2.91762E-01 -1.43682E-01  5.71703E-01  1.29037E-01 -5.86759E-01  4.07145E-02 -1.06515E-01 -5.23605E-01 -8.63629E-01
  -4.17390E-01 -6.73310E-01 -4.65260E-01  2.13463E-01  2.31221E-01  8.39213E-01  9.91122E-01  7.60014E-01  1.02003E+00  8.97516E-01
   7.47984E-01  3.54998E-01  1.38939E-01  6.03368E-01  7.97273E-04  3.77877E-01  6.92272E-01  6.49332E-01  2.84249E-01  2.82882E-01
   4.44757E-01  9.06816E-02  8.64974E-01  4.89948E-01  7.10354E-01  3.28343E-01  5.51559E-02  7.51475E-01  7.82713E-01  7.25255E-01
   5.30525E-01  3.69231E-01  1.43177E-01  6.81154E-01  1.00817E-01  1.75074E-01  2.99292E-02 -5.08624E-01 -3.12857E-01 -4.34274E-01
  -3.27063E-01 -6.35457E-01 -4.17357E-01 -1.73608E-01 -7.02551E-02 -7.36817E-01 -2.22720E-01  1.54783E-01 -4.56066E-01  4.36419E-01
   6.71406E-01  2.90470E-01 -1.28646E-01  2.12837E-01 -5.56997E-01 -1.03298E+00 -5.61954E-01 -8.77129E-01 -2.28289E-01 -7.69083E-01
  -8.64631E-01 -1.46796E+00 -3.08272E+00 -2.53612E+00 -1.28500E+00 -3.33360E-01 -8.18823E-01 -3.01462E-01  3.19704E-01  4.71842E-02
   4.45482E-01  2.94584E-01  1.57897E-01 -1.63419E-01 -1.11943E-01 -5.20232E-01 -6.20310E-01 -3.68707E-01 -6.96957E-01 -2.56879E-01
   1.93250E-01  2.37241E-01 -4.31282E-01 -2.99398E-01  3.29785E-01  2.53206E-01  5.39724E-01  3.13771E-01 -1.72273E-01  3.88499E-01
   6.69388E-02 -2.80679E-01  3.37380E-01  1.70141E-01  2.09622E-01  7.20776E-01  3.20486E-01 -4.11443E-01  8.83377E-02 -7.61152E-02
   2.33230E-01  4.97070E-01 -3.46211E-02  5.75270E-01  3.02633E-01  4.05091E-01  2.79089E-01 -1.40778E-01  3.85530E-01  8.22011E-01
   2.44048E-01 -1.12946E-02  7.43465E-01  6.79799E-01  8.92846E-01  8.04619E-01  4.63068E-01  6.45173E-01  6.04730E-01  7.61824E-02
   8.27103E-02  2.19630E-02  2.86704E-01  4.44005E-01 -7.28571E-02  7.27460E-01 -8.07183E-03 -1.39980E-02  5.68136E-01  2.99737E-02
   3.55160E-01  2.94798E-01  2.16726E-01 -6.28703E-02 -2.08724E-03  2.24303E-01  2.22903E-01 -5.32585E-02  4.02896E-01  6.09546E-01
   2.22116E-02  9.77678E-02 -2.75322E-01 -2.56095E-01 -1.65116E-01  7.49582E-02  1.33038E-01 -7.04495E-01 -7.58003E-01 -1.24034E-01
  -2.38266E-02 -2.16991E-01 -1.25476E-01  4.59132E-01  3.06284E-01 -1.35738E-01 -4.01126E-01 -6.17697E-01 -2.75388E-01 -5.88067E-01
   9.00575E-02 -4.88474E-01 -5.68140E-01 -4.42724E-01 -7.73558E-01  1.24100E-02 -1.08674E+00  3.21669E-01  6.64728E-02 -2.95982E-01
   6.98913E-01 -2.43872E-01 -6.55672E-01 -7.78867E-01  3.05011E-01 -5.87247E-02 -2.57758E-01 -3.17105E-01  3.63776E-01  1.08914E-01
  -4.79390E-01  5.24032E-01 -1.14410E-01  1.17651E-01  1.27205E-01 -4.00967E-02 -1.26890E-01 -6.96060E-02 -2.14807E-01 -4.10800E-01
  -2.14356E-01  3.17401E-02 -3.32002E-01 -5.10307E-01  3.30393E-01 -5.98629E-01 -1.32395E-01  1.53915E-01 -2.79144E-01 -6.08352E-02
   1.37968E-01  4.13057E-01  1.83593E-01  3.44857E-01  2.68522E-01  5.28707E-01  1.60072E-02  4.91026E-03  4.81737E-02  2.88119E-01
   5.04382E-02 -3.23812E-01  7.66374E-01  7.77601E-02  9.22041E-02 -3.79805E-01 -5.75614E-01  1.52225E-01 -3.04832E-01  5.38896E-01
   3.98972E-01 -5.33820E-02  5.37075E-01  3.08014E-01 -4.55583E-02 -6.29072E-01 -3.05028E-01  1.10864E-01  1.82019E-02  8.26932E-01
   9.12893E-02  2.38065E-01  5.29817E-01 -2.24397E-01  9.19700E-01  3.14801E-01 -1.46140E-01  6.71299E-01 -2.18107E-01 -2.89159E-01
   1.20612E-01 -5.09835E-01 -3.46716E-01  1.25128E-01 -2.19831E-01 -2.94532E-01 -6.16538E-01 -1.24498E+00 -6.41738E-01 -6.70230E-01
  -1.25894E+00 -5.08823E-01  2.72394E-01  7.19952E-02 -3.99721E-01  2.63515E-01 -5.40717E-02 -3.50028E-01  2.01134E-01 -5.80869E-01
  -1.94725E-01  3.80174E-01  1.58115E-01  9.68535E-03 -6.89562E-01 -1.10039E-01  4.90881E-01 -1.29897E-01  8.73530E-02 -3.08498E-02
   1.62552E-01  2.21378E-01 -1.81590E-01  2.58391E-01  4.35338E-01  4.48265E-01  2.70534E-01  7.73287E-01  2.06142E-01  2.84041E-01
   7.31383E-01 -1.58887E-01  2.37584E-01  1.34857E-03  4.66594E-02  2.79145E-01 -1.20247E-01  2.18625E-01  7.11177E-01  2.19869E-01
   5.99640E-02  3.74238E-01  1.31688E-01  3.79036E-01  1.50180E-01  2.02098E-01  6.17472E-01  3.22021E-01  5.38939E-01  5.08747E-01
   3.41000E-01  4.22268E-01 -2.97365E-01  4.34713E-01  2.87445E-01 -3.19033E-01  2.95133E-01 -4.33816E-02  3.63060E-01  1.72164E-01
   8.26956E-02 -7.69879E-02  5.25815E-02  6.23663E-02 -6.42946E-01 -3.20457E-01 -5.04812E-02  2.77118E-02 -1.00290E-01  5.29848E-01
   2.74516E-01 -7.52364E-02  2.06693E-01  1.76610E-01  1.07686E-01  1.65552E-01  7.06502E-02 -2.08661E-01  5.47676E-01  5.02169E-01
   3.47940E-02 -1.28299E-01 -9.70601E-02 -4.07324E-01 -9.15525E-03  5.50369E-01 -2.69707E-01 -5.85654E-01 -1.76589E-01  3.88764E-01
  -2.22583E-01 -9.01302E-02  3.91051E-01 -3.05916E-01  3.38908E-02  4.42271E-02 -9.90571E-02  5.44881E-01  6.68899E-02 -1.04923E-02
   2.71378E-01 -1.46349E-01  5.83004E-02  4.75176E-02  8.94184E-02 -7.54026E-02 -3.50631E-01  1.87269E-02  2.47548E-01  2.28101E-01
   2.83529E-01  5.48598E-01  1.69028E-01  1.92749E-01  3.64885E-01 -4.23693E-01 -8.06249E-02  8.18609E-02  1.57362E-01  8.66044E-02
  -5.10847E-01  3.93015E-02 -1.24332E-01  2.28227E-02
 NY points of the fit to the data follow
  -7.74271E-03  8.79054E-03  2.56241E-02  3.42514E-02  3.17898E-02  2.07076E-02  7.01600E-03  1.23795E-02  4.64166E-02  9.14098E-02
   2.10234E-01  4.45592E-01  6.24846E-01  6.61153E-01  7.78395E-01  8.35722E-01  6.15554E-01  3.38620E-01  2.10844E-01  1.52405E-01
   7.97172E-02  4.09162E-02  4.54063E-03 -3.74704E-02 -7.21157E-02 -9.95106E-02 -1.20811E-01 -1.35063E-01 -1.47730E-01 -1.65344E-01
  -1.83543E-01 -2.02462E-01 -2.34277E-01 -2.82766E-01 -3.36582E-01 -3.64730E-01 -3.69620E-01 -3.43982E-01 -2.37358E-01  9.92788E-03
   2.33335E-01  3.59922E-01  4.52667E-01  5.62155E-01  6.20253E-01  6.01063E-01  5.15897E-01  3.74417E-01  2.63410E-01  1.92511E-01
   1.43887E-01  9.70703E-02  6.43907E-02  2.49505E-02 -1.90891E-02 -6.98930E-02 -1.26492E-01 -1.82686E-01 -2.38475E-01 -2.88558E-01
  -3.52615E-01 -4.38319E-01 -4.57830E-01 -3.70957E-01 -3.20799E-01 -2.28687E-01  5.11154E-02  2.59233E-01  3.52483E-01  4.61322E-01
   5.00220E-01  3.96943E-01  2.73464E-01  1.92109E-01  8.45977E-02 -5.37619E-02 -2.02810E-01 -3.28681E-01 -4.98878E-01 -7.12085E-01
  -6.52516E-01 -2.72649E-01 -1.61065E-02  1.12192E-01  3.67917E-01  5.76475E-01  5.58328E-01  4.70341E-01  4.26315E-01  3.70432E-01
   3.20019E-01  2.84820E-01  2.35285E-01  1.67774E-01  8.52119E-02 -3.22896E-02 -1.88132E-01 -3.53743E-01 -4.55098E-01 -4.64892E-01
  -3.16332E-01 -7.70179E-02  1.44990E-01  2.93745E-01  3.55115E-01  3.69830E-01  3.65465E-01  3.71247E-01  3.69652E-01  3.72556E-01
   3.74201E-01  3.74663E-01  3.73843E-01  3.73297E-01  3.73498E-01  3.76033E-01  3.80245E-01  3.82976E-01  3.68000E-01  3.47292E-01
   3.26115E-01  2.46964E-01  1.09025E-01  2.55297E-02 -4.00657E-02 -2.23035E-01 -3.77341E-01 -5.19780E-01 -6.73177E-01 -8.32670E-01
  -7.99528E-01 -6.65711E-01 -5.49865E-01 -4.25643E-01 -4.56367E-01 -6.69461E-01 -7.47112E-01 -5.10475E-01 -2.71271E-01 -1.51349E-01
  -7.35868E-02  2.31215E-03  3.94888E-02  6.95679E-02  9.81932E-02  1.25283E-01  1.50509E-01  1.73495E-01  1.94983E-01  2.15292E-01
   2.35450E-01  2.56404E-01  2.78422E-01  3.02270E-01  3.29427E-01  3.60017E-01  3.95516E-01  4.38036E-01  4.88835E-01  5.51828E-01
   6.39718E-01  7.76217E-01  9.89244E-01  1.07906E+00  1.06515E+00  1.15919E+00  9.94937E-01 -2.35117E-01 -1.37782E+00 -1.36335E+00
  -9.40209E-01 -7.75290E-01 -6.81131E-01 -5.01619E-01 -4.65715E-01 -4.22379E-01 -3.69048E-01 -3.42775E-01 -3.51251E-01 -3.44624E-01
  -3.09329E-01 -2.75863E-01 -2.68355E-01 -2.67662E-01 -2.68094E-01 -2.68040E-01 -2.61360E-01 -2.50072E-01 -2.42347E-01 -2.37293E-01
  -2.25079E-01 -2.11160E-01 -1.98011E-01 -1.86484E-01 -1.73875E-01 -1.62721E-01 -1.52006E-01 -1.38665E-01 -1.23412E-01 -1.10503E-01
  -9.65250E-02 -7.68773E-02 -6.55345E-02 -7.43187E-02 -8.63959E-02 -8.02415E-02 -5.78199E-02 -5.21834E-02 -8.04883E-02 -1.12978E-01
  -1.24349E-01 -1.21704E-01 -1.16149E-01 -1.07549E-01 -9.75583E-02 -8.59997E-02 -7.02842E-02 -6.10780E-02 -6.90814E-02 -7.59807E-02
  -4.75211E-02  3.72475E-03  4.59205E-02  1.02062E-01  2.29936E-01  3.58318E-01  3.75841E-01  3.06347E-01  2.99356E-01  4.50939E-01
   5.62319E-01  4.27500E-01  1.94293E-01  5.78316E-02 -7.17956E-03 -6.26183E-02 -9.32358E-02 -1.05065E-01 -1.20884E-01 -1.35692E-01
  -1.50001E-01 -1.62153E-01 -1.69940E-01 -1.76202E-01 -1.80994E-01 -1.88102E-01 -1.92522E-01 -1.96515E-01 -2.02673E-01 -2.07780E-01
  -2.14630E-01 -2.33630E-01 -2.46939E-01 -2.45405E-01 -2.53163E-01 -2.17290E-01 -6.74038E-02  2.48559E-02 -6.89909E-04  6.30014E-02
   1.71962E-01  1.86595E-01  1.23709E-01  1.13553E-01  1.63666E-01  1.81883E-01  2.01450E-01  2.18845E-01  2.64797E-01  2.80301E-01
   2.49584E-01  1.95428E-01  1.21545E-01  5.42578E-02 -1.75372E-02 -8.18996E-02 -1.60615E-01 -2.55012E-01 -3.61924E-01 -4.76124E-01
  -5.99340E-01 -6.99300E-01 -6.86359E-01 -5.41492E-01 -2.51329E-01  1.42120E-01  4.56786E-01  6.59511E-01  7.47224E-01  6.99145E-01
   5.89351E-01  5.05165E-01  4.60731E-01  4.20307E-01  4.12347E-01  4.14536E-01  4.11758E-01  4.06538E-01  3.91354E-01  3.74098E-01
   3.56916E-01  3.44747E-01  3.29747E-01  3.15544E-01  2.99400E-01  2.79990E-01  2.56681E-01  2.24282E-01  1.85289E-01  1.50940E-01
   1.18137E-01  8.44691E-02  6.45299E-02  3.13143E-02 -1.40809E-02 -7.27047E-02 -1.59019E-01 -2.74311E-01 -3.76611E-01 -4.47468E-01
  -4.96132E-01 -5.11373E-01 -4.80918E-01 -4.16457E-01 -3.23311E-01 -2.09081E-01 -7.97741E-02  4.52145E-02  1.34221E-01  1.64510E-01
   1.25691E-01  4.54901E-02 -7.30016E-02 -1.75676E-01 -2.48337E-01 -3.50195E-01 -4.07161E-01 -3.96572E-01 -4.78924E-01 -6.50124E-01
  -9.39742E-01 -1.76416E+00 -2.77070E+00 -2.57423E+00 -1.47286E+00 -7.43036E-01 -5.07126E-01 -3.08817E-01 -1.49464E-01 -1.33378E-01
  -9.69175E-02 -6.44249E-02 -3.67505E-02 -1.47412E-02  3.75371E-03  1.87381E-02  2.89165E-02  3.22462E-02  2.87308E-02  1.51122E-02
  -1.69639E-03 -1.83194E-02 -3.27209E-02 -4.06116E-02 -4.26158E-02 -3.76720E-02 -2.75620E-02 -1.32337E-02  7.13784E-04  1.32860E-02
   2.51220E-02  3.66238E-02  4.74751E-02  5.62859E-02  6.25841E-02  6.78727E-02  7.31666E-02  7.86733E-02  8.41732E-02  8.90501E-02
   9.28904E-02  9.64203E-02  1.00435E-01  1.04744E-01  1.08738E-01  1.11739E-01  1.14127E-01  1.16386E-01  1.19796E-01  1.24089E-01
   1.28298E-01  1.31856E-01  1.34275E-01  1.35051E-01  1.34036E-01  1.32819E-01  1.31754E-01  1.30181E-01  1.27821E-01  1.24545E-01
   1.20033E-01  1.15065E-01  1.10247E-01  1.04367E-01  9.78260E-02  9.24673E-02  8.81277E-02  8.28528E-02  7.71497E-02  7.25523E-02
   6.83506E-02  6.42087E-02  6.10649E-02  5.83811E-02  5.52783E-02  5.22370E-02  4.93341E-02  4.62666E-02  4.35718E-02  4.17683E-02
   4.03755E-02  3.88513E-02  3.80792E-02  3.89507E-02  4.04313E-02  4.22898E-02  4.51842E-02  4.86203E-02  5.18740E-02  5.59842E-02
   5.98432E-02  6.17144E-02  6.30803E-02  6.62457E-02  7.20188E-02  7.87810E-02  8.55754E-02  9.16953E-02  9.81268E-02  1.05787E-01
   1.14824E-01  1.24960E-01  1.35700E-01  1.46567E-01  1.57143E-01  1.68088E-01  1.78782E-01  1.88446E-01  1.96207E-01  2.01845E-01
   2.05128E-01  2.07047E-01  2.08233E-01  2.08022E-01  2.06832E-01  2.04264E-01  1.99395E-01  1.92239E-01  1.83561E-01  1.74678E-01
   1.66105E-01  1.58025E-01  1.49737E-01  1.41236E-01  1.32615E-01  1.25274E-01  1.19036E-01  1.12570E-01  1.06298E-01  1.00927E-01
   9.65999E-02  9.25564E-02  8.90032E-02  8.61636E-02  8.48662E-02  8.55925E-02  8.74081E-02  8.94617E-02  9.21725E-02  9.57910E-02
   9.97340E-02  1.04599E-01  1.10301E-01  1.14968E-01  1.18343E-01  1.21311E-01  1.23899E-01  1.25595E-01  1.27855E-01  1.31112E-01
   1.33603E-01  1.34410E-01  1.33904E-01  1.32867E-01  1.31759E-01  1.30044E-01  1.26955E-01  1.23957E-01  1.21882E-01  1.19799E-01
   1.16981E-01  1.14016E-01  1.11356E-01  1.08479E-01  1.05262E-01  1.02008E-01  9.87062E-02  9.56423E-02  9.39467E-02  9.25030E-02
   8.96543E-02  8.61379E-02  8.30157E-02  7.91751E-02  7.34309E-02  6.66850E-02  5.99965E-02  5.27611E-02  4.41825E-02  3.36543E-02
   2.01865E-02  4.17315E-03 -1.18340E-02 -2.66567E-02 -4.15693E-02 -5.67853E-02 -7.10618E-02 -8.35130E-02 -9.46668E-02 -1.05265E-01
  -1.13646E-01 -1.17505E-01 -1.18440E-01 -1.19376E-01 -1.19133E-01 -1.15463E-01 -1.09852E-01 -1.04968E-01 -1.00348E-01 -9.54649E-02
  -9.08210E-02 -8.55312E-02 -7.82419E-02 -7.04417E-02 -6.28132E-02 -5.41289E-02 -4.46597E-02 -3.56628E-02 -2.72982E-02 -1.83456E-02
  -1.01191E-02 -2.55654E-03  5.65345E-03  1.38378E-02  2.01932E-02  2.54865E-02  3.16669E-02  3.85776E-02  4.37443E-02  4.66919E-02
   5.02977E-02  5.47386E-02  5.81049E-02  6.04692E-02  6.26106E-02  6.39975E-02  6.56420E-02  6.78277E-02  6.86483E-02  6.85034E-02
   6.99883E-02  7.25557E-02  7.42307E-02  7.61459E-02  7.85592E-02  7.96608E-02  7.95359E-02  7.98815E-02  8.02563E-02  7.99724E-02
   7.98706E-02  7.98042E-02  7.94467E-02  7.93104E-02  7.92107E-02  7.91699E-02  7.95568E-02  7.99850E-02  8.05171E-02  8.02191E-02
   7.74859E-02  7.45007E-02  7.47797E-02  7.63667E-02  7.59362E-02  7.45633E-02  7.40966E-02  7.36942E-02  7.19174E-02  7.02023E-02
   7.00504E-02  7.15121E-02  7.26245E-02  7.25302E-02  7.24209E-02  7.29274E-02  7.38113E-02  7.43543E-02  7.44237E-02  7.45077E-02
   7.49961E-02  7.47585E-02  7.27701E-02  7.09532E-02  7.08509E-02  7.12711E-02  7.12933E-02  7.15644E-02  7.22316E-02  7.23123E-02
   7.14127E-02  7.17261E-02  7.40314E-02  7.55927E-02  7.56777E-02  7.43987E-02  7.18127E-02  6.97649E-02  6.93916E-02  6.98608E-02
   6.95713E-02  6.82259E-02  6.64619E-02  6.51230E-02  6.43036E-02  6.37289E-02  6.28152E-02  6.08488E-02  5.98457E-02  6.03130E-02
   6.00170E-02  5.81791E-02  5.66476E-02  5.59020E-02  5.51269E-02  5.43381E-02  5.36611E-02  5.43002E-02  5.59280E-02  5.64460E-02
   5.56003E-02  5.43534E-02  5.33889E-02  5.22275E-02
 NY background values follow
     4.651E-02    4.649E-02    4.647E-02    4.645E-02    4.643E-02    4.641E-02    4.639E-02    4.637E-02    4.635E-02    4.633E-02
     4.631E-02    4.629E-02    4.627E-02    4.625E-02    4.623E-02    4.621E-02    4.619E-02    4.617E-02    4.615E-02    4.613E-02
     4.611E-02    4.609E-02    4.607E-02    4.605E-02    4.603E-02    4.601E-02    4.599E-02    4.597E-02    4.595E-02    4.593E-02
     4.591E-02    4.589E-02    4.587E-02    4.585E-02    4.583E-02    4.581E-02    4.579E-02    4.577E-02    4.575E-02    4.573E-02
     4.571E-02    4.569E-02    4.567E-02    4.565E-02    4.563E-02    4.561E-02    4.559E-02    4.557E-02    4.555E-02    4.553E-02
     4.551E-02    4.549E-02    4.547E-02    4.545E-02    4.543E-02    4.541E-02    4.539E-02    4.537E-02    4.535E-02    4.533E-02
     4.531E-02    4.528E-02    4.526E-02    4.524E-02    4.522E-02    4.520E-02    4.518E-02    4.516E-02    4.514E-02    4.512E-02
