 LCModel (Version 6.3-1N) Copyright: S.W. Provencher.          Ref.: Magn. Reson. Med. 30:672-679 (1993).                
 Slice_N1@22_14  02-Jun-2023 14:37:25
 27 lines in following concentration table = NCONC+1
    Conc.  %SD /Cr+PCr  Metabolite                                         
 1.41E-06  20% 2.0E-04 Mac                                                 
 2.26E-02  30%   3.167 Cr                                                  
 3.44E-02  19%   4.833 PCr                                                 
 6.11E-02  11%   8.571 Ins                                                 
 6.72E-02   8%   9.421 NAA                                                 
 6.34E-02  10%   8.900 Tau                                                 
 1.50E-02  11%   2.108 PCho                                                
    0.000 999%   0.000 GPC                                                 
 5.54E-02  13%   7.774 Glu                                                 
 7.34E-03  65%   1.029 Gln                                                 
 1.03E-02  49%   1.446 Ala                                                 
 3.93E-02  26%   5.514 Asc                                                 
 3.29E-03 177%   0.462 Asp                                                 
 1.63E-03 189%   0.229 GABA                                                
 6.32E-03  60%   0.886 Glc                                                 
 2.84E-03  77%   0.398 GSH                                                 
 1.11E-02  49%   1.551 Lac                                                 
 6.26E-03  58%   0.878 NAAG                                                
    0.000 999%   0.000 PE                                                  
 1.50E-02  11%   2.108 GPC+PCho                                            
 7.34E-02   8%  10.300 NAA+NAAG                                            
 6.28E-02  13%   8.803 Glu+Gln                                             
 5.70E-02   9%   8.000 Cr+PCr                                              
 7.34E-02   8%  10.300 NAA+NAAG                                            
 5.70E-02   9%   8.000 Cr+PCr                                              
 6.28E-02  13%   8.803 Glu+Gln                                             
   6 lines in following misc. output table
  FWHM = 0.023 ppm    S/N =   4                                            
  Data shift = 0.023 ppm                                                   
  Ph:  -9 deg      -4.2 deg/ppm                                            
  alphaB,S = 3.1E+01,   1.0E+00                                            
   18 spline knots.   Ns = 5(1)                                            
   2 inflections.     1 extrema                                            
  654 points on ppm-axis = NY
      4.000000     3.994181     3.988363     3.982544     3.976726     3.970907     3.965088     3.959270     3.953451     3.947633
      3.941814     3.935995     3.930177     3.924358     3.918540     3.912721     3.906902     3.901084     3.895265     3.889446
      3.883628     3.877809     3.871991     3.866172     3.860353     3.854535     3.848716     3.842898     3.837079     3.831260
      3.825442     3.819623     3.813805     3.807986     3.802167     3.796349     3.790530     3.784712     3.778893     3.773074
      3.767256     3.761437     3.755619     3.749800     3.743981     3.738163     3.732344     3.726526     3.720707     3.714888
      3.709070     3.703251     3.697433     3.691614     3.685795     3.679977     3.674158     3.668339     3.662521     3.656702
      3.650884     3.645065     3.639246     3.633428     3.627609     3.621791     3.615972     3.610153     3.604335     3.598516
      3.592698     3.586879     3.581060     3.575242     3.569423     3.563605     3.557786     3.551967     3.546149     3.540330
      3.534512     3.528693     3.522874     3.517056     3.511237     3.505419     3.499600     3.493781     3.487963     3.482144
      3.476326     3.470507     3.464688     3.458870     3.453051     3.447232     3.441414     3.435595     3.429777     3.423958
      3.418139     3.412321     3.406502     3.400684     3.394865     3.389046     3.383228     3.377409     3.371591     3.365772
      3.359953     3.354135     3.348316     3.342498     3.336679     3.330860     3.325042     3.319223     3.313405     3.307586
      3.301767     3.295949     3.290130     3.284312     3.278493     3.272674     3.266856     3.261037     3.255219     3.249400
      3.243581     3.237763     3.231944     3.226125     3.220307     3.214488     3.208670     3.202851     3.197032     3.191214
      3.185395     3.179577     3.173758     3.167939     3.162121     3.156302     3.150484     3.144665     3.138846     3.133028
      3.127209     3.121391     3.115572     3.109753     3.103935     3.098116     3.092298     3.086479     3.080660     3.074842
      3.069023     3.063205     3.057386     3.051567     3.045749     3.039930     3.034111     3.028293     3.022474     3.016656
      3.010837     3.005018     2.999200     2.993381     2.987563     2.981744     2.975925     2.970107     2.964288     2.958470
      2.952651     2.946832     2.941014     2.935195     2.929377     2.923558     2.917739     2.911921     2.906102     2.900284
      2.894465     2.888646     2.882828     2.877009     2.871191     2.865372     2.859553     2.853735     2.847916     2.842098
      2.836279     2.830460     2.824642     2.818823     2.813004     2.807186     2.801367     2.795549     2.789730     2.783911
      2.778093     2.772274     2.766456     2.760637     2.754818     2.749000     2.743181     2.737363     2.731544     2.725725
      2.719907     2.714088     2.708270     2.702451     2.696632     2.690814     2.684995     2.679177     2.673358     2.667539
      2.661721     2.655902     2.650084     2.644265     2.638446     2.632628     2.626809     2.620991     2.615172     2.609353
      2.603535     2.597716     2.591897     2.586079     2.580260     2.574442     2.568623     2.562804     2.556986     2.551167
      2.545349     2.539530     2.533711     2.527893     2.522074     2.516256     2.510437     2.504618     2.498800     2.492981
      2.487163     2.481344     2.475525     2.469707     2.463888     2.458070     2.452251     2.446432     2.440614     2.434795
      2.428977     2.423158     2.417339     2.411521     2.405702     2.399884     2.394065     2.388246     2.382428     2.376609
      2.370790     2.364972     2.359153     2.353335     2.347516     2.341697     2.335879     2.330060     2.324242     2.318423
      2.312604     2.306786     2.300967     2.295149     2.289330     2.283511     2.277693     2.271874     2.266056     2.260237
      2.254418     2.248600     2.242781     2.236963     2.231144     2.225325     2.219507     2.213688     2.207870     2.202051
      2.196232     2.190414     2.184595     2.178777     2.172958     2.167139     2.161321     2.155502     2.149683     2.143865
      2.138046     2.132228     2.126409     2.120590     2.114772     2.108953     2.103135     2.097316     2.091497     2.085679
      2.079860     2.074042     2.068223     2.062404     2.056586     2.050767     2.044949     2.039130     2.033311     2.027493
      2.021674     2.015856     2.010037     2.004218     1.998400     1.992581     1.986763     1.980944     1.975126     1.969307
      1.963489     1.957670     1.951852     1.946033     1.940215     1.934397     1.928578     1.922760     1.916941     1.911123
      1.905304     1.899486     1.893667     1.887849     1.882030     1.876212     1.870393     1.864575     1.858756     1.852938
      1.847119     1.841301     1.835482     1.829664     1.823845     1.818027     1.812208     1.806390     1.800571     1.794753
      1.788934     1.783116     1.777297     1.771479     1.765660     1.759842     1.754023     1.748205     1.742386     1.736568
      1.730749     1.724931     1.719113     1.713294     1.707476     1.701657     1.695839     1.690020     1.684202     1.678383
      1.672565     1.666746     1.660928     1.655109     1.649291     1.643472     1.637654     1.631835     1.626017     1.620198
      1.614380     1.608561     1.602743     1.596924     1.591106     1.585287     1.579469     1.573650     1.567832     1.562013
      1.556195     1.550376     1.544558     1.538739     1.532921     1.527102     1.521284     1.515465     1.509647     1.503829
      1.498010     1.492192     1.486373     1.480555     1.474736     1.468918     1.463099     1.457281     1.451462     1.445644
      1.439825     1.434007     1.428188     1.422370     1.416551     1.410733     1.404914     1.399096     1.393277     1.387459
      1.381640     1.375822     1.370003     1.364185     1.358366     1.352548     1.346729     1.340911     1.335092     1.329274
      1.323455     1.317637     1.311818     1.306000     1.300182     1.294363     1.288545     1.282726     1.276908     1.271089
      1.265271     1.259452     1.253634     1.247815     1.241997     1.236178     1.230360     1.224541     1.218723     1.212904
      1.207086     1.201267     1.195449     1.189630     1.183812     1.177993     1.172175     1.166356     1.160538     1.154719
      1.148901     1.143082     1.137264     1.131445     1.125627     1.119808     1.113990     1.108171     1.102353     1.096534
      1.090716     1.084898     1.079079     1.073261     1.067442     1.061624     1.055805     1.049987     1.044168     1.038350
      1.032531     1.026713     1.020894     1.015076     1.009257     1.003439     0.997620     0.991802     0.985983     0.980165
      0.974346     0.968528     0.962709     0.956891     0.951072     0.945254     0.939435     0.933617     0.927798     0.921980
      0.916161     0.910343     0.904524     0.898706     0.892887     0.887069     0.881251     0.875432     0.869614     0.863795
      0.857977     0.852158     0.846340     0.840521     0.834703     0.828884     0.823066     0.817247     0.811429     0.805610
      0.799792     0.793973     0.788155     0.782336     0.776518     0.770699     0.764881     0.759062     0.753244     0.747425
      0.741607     0.735788     0.729970     0.724151     0.718333     0.712514     0.706696     0.700877     0.695059     0.689240
      0.683422     0.677603     0.671785     0.665967     0.660148     0.654330     0.648511     0.642693     0.636874     0.631056
      0.625237     0.619419     0.613600     0.607782     0.601963     0.596145     0.590326     0.584508     0.578689     0.572871
      0.567052     0.561234     0.555415     0.549597     0.543778     0.537960     0.532141     0.526323     0.520504     0.514686
      0.508867     0.503049     0.497230     0.491412     0.485593     0.479775     0.473956     0.468138     0.462319     0.456501
      0.450682     0.444864     0.439045     0.433227     0.427408     0.421590     0.415771     0.409953     0.404134     0.398316
      0.392497     0.386679     0.380860     0.375042     0.369223     0.363405     0.357586     0.351767     0.345949     0.340130
      0.334312     0.328493     0.322675     0.316856     0.311038     0.305219     0.299401     0.293582     0.287764     0.281945
      0.276127     0.270308     0.264490     0.258671     0.252853     0.247034     0.241216     0.235397     0.229579     0.223760
      0.217942     0.212123     0.206305     0.200486
 NY phased data points follow
  -3.99316E-02  3.05285E-01 -1.25312E-01 -2.95738E-01 -9.77514E-02 -2.83467E-01 -1.98598E-02 -2.19939E-01 -1.09730E-01 -1.84431E-01
  -1.52631E-01  2.63810E-01  3.13884E-01  4.29525E-01  2.58925E-01  4.80630E-01  4.36917E-01  2.03391E-01  8.74850E-02 -5.11843E-02
   1.67802E-01  4.73036E-02 -2.56837E-01 -2.10389E-01 -6.05333E-03 -1.22070E-03  5.17395E-02 -5.45824E-02 -1.61357E-01 -1.27572E-02
  -3.17609E-02  4.04755E-02 -8.49404E-02 -1.81980E-01 -1.39401E-01 -1.17814E-01 -3.01282E-01 -4.53836E-01 -2.23415E-01 -3.00096E-01
  -1.25870E-01 -6.39273E-02  1.70485E-02  2.16019E-01  1.68432E-02  3.53737E-01  4.55768E-01  2.64189E-01  3.45187E-01  2.65296E-01
   2.14456E-01  2.60116E-01 -1.02165E-02 -2.69940E-03  1.03313E-01  1.17574E-01  1.63195E-01 -2.15102E-01 -1.87716E-01 -4.29637E-02
  -2.02654E-01 -1.86305E-01 -2.59036E-01 -2.47495E-01 -8.01455E-02 -2.40708E-01 -1.51137E-01 -2.69304E-02  4.12230E-02  3.23411E-01
   8.91109E-02  2.30583E-02  1.01586E-01  2.28828E-02  8.48854E-02  4.87543E-02 -1.73068E-02 -8.27134E-02 -1.75331E-01 -3.32845E-01
  -5.41141E-01 -1.91586E-01 -1.24858E-01 -7.85362E-03  2.93873E-01  2.10626E-02  3.20567E-01  3.11183E-01  1.25237E-01  4.56586E-02
   2.16855E-03  1.64007E-01  1.75530E-01  2.74269E-01  2.22141E-01  1.92670E-01 -1.01247E-01 -8.06430E-02 -1.23472E-01 -4.25735E-01
  -4.82597E-02 -1.76757E-01 -3.82914E-01 -6.16814E-02  3.93248E-02  5.07497E-01  3.23862E-01  3.23844E-01  4.17373E-01  1.69035E-01
   5.08976E-01  2.92098E-01  4.52678E-01  3.02481E-01  3.98167E-01  5.70434E-01  3.74201E-01  5.89942E-01  5.09108E-01  3.18849E-01
   1.61855E-01  4.17748E-01  8.96744E-02 -3.89077E-02  8.69148E-02  1.26494E-01 -1.02201E-01 -3.11661E-01 -3.31109E-02 -2.32611E-01
  -6.61409E-01 -6.90707E-01 -3.76688E-01 -4.29421E-01 -2.56532E-01 -4.60488E-01 -5.65046E-01 -6.14455E-01 -9.04947E-01 -8.11711E-01
  -6.32130E-01 -2.19016E-01 -1.92734E-01 -1.51154E-01  5.42379E-02  1.43313E-01  7.87368E-03 -9.12639E-02 -1.37394E-01 -2.32782E-01
  -1.88208E-01  1.53218E-01  7.74466E-02 -1.32090E-01  7.26461E-02  2.47172E-01  3.18442E-01  1.43067E-01  3.14513E-01  2.60052E-01
   1.35101E-01  9.89719E-02  3.18808E-01  6.35862E-01  6.75527E-01  7.98507E-01  7.63908E-01  3.76133E-01 -8.06188E-02 -2.88077E-01
  -8.48169E-01 -5.79224E-01 -4.77961E-01 -5.97294E-01 -2.57156E-01 -5.55425E-01 -4.68561E-01 -3.28669E-01 -4.16700E-01 -4.53841E-01
  -3.13053E-01 -1.86085E-01 -3.61000E-01 -2.59457E-01 -2.42718E-01 -1.97849E-01  6.71535E-02 -3.64646E-01 -2.64864E-01 -8.28064E-02
  -2.70356E-01  5.67257E-02 -9.04317E-02  1.68488E-02 -5.35968E-02 -3.72712E-01 -3.07187E-01 -6.86483E-02 -1.32782E-01 -2.72311E-01
   9.88659E-02 -2.04245E-01 -3.17655E-01 -2.14615E-02 -1.62655E-01 -2.59764E-01 -1.97861E-01 -1.62577E-02 -1.03125E-01 -8.89912E-02
   1.11179E-01 -1.42548E-01  6.20627E-02  2.26016E-01 -7.63170E-02  1.17937E-01 -7.64023E-02 -6.40009E-02  1.10339E-01  3.91603E-02
   2.40686E-01 -3.99876E-03  3.84066E-02  1.53666E-01  1.03201E-01  3.63696E-01  1.28923E-01  1.04377E-01  4.24195E-01  2.97230E-01
   5.41311E-01  5.44958E-01  1.89702E-01  3.46091E-01  1.69898E-01  1.54239E-01  8.46718E-02  1.50345E-02  1.44076E-01  7.31940E-02
   1.02305E-01 -2.65170E-01 -1.45833E-01  1.84909E-01  2.70338E-01  6.96512E-02 -1.91732E-02  1.77017E-01 -6.48749E-02  2.36519E-02
   7.78074E-02  1.43614E-01  7.89519E-02 -1.14960E-01 -1.30095E-01 -1.05505E-01 -1.86077E-01 -2.58158E-01  3.40808E-02  5.07199E-02
   7.32651E-02  6.90116E-02  1.29030E-01  2.61060E-01  2.05612E-01  1.63203E-01  2.52560E-01  2.65612E-01  2.92069E-02  9.93230E-02
   1.20638E-01  6.25356E-02  1.83808E-01  2.08892E-01  7.64822E-03 -4.06453E-02 -1.49258E-01 -1.29136E-01 -5.01933E-02 -3.30617E-01
   2.11235E-02 -1.84843E-01 -4.43090E-01 -9.53395E-02 -3.02476E-01  1.69429E-01  2.14035E-01  2.71364E-01  6.65871E-01  1.49843E-01
   3.67122E-01  3.62576E-01  1.08467E-01  1.12476E-01  1.73659E-01  1.90411E-01  1.95421E-01  2.22081E-01 -2.56799E-01  2.97856E-01
   1.27682E-01 -2.74439E-01  1.77826E-01  5.04974E-01  4.35395E-01 -1.10806E-02  3.24167E-01  1.31786E-01  2.50822E-01  2.91877E-01
   1.73465E-01  2.93091E-01  7.77036E-02  2.63522E-02 -8.35600E-02  4.20265E-03 -1.03087E-01  5.37955E-02 -1.04356E-01 -2.09044E-02
   3.29034E-02 -8.76569E-02  1.01594E-01 -2.15589E-01 -4.07266E-01 -2.99468E-01 -2.04381E-01 -2.11770E-01 -8.42251E-02 -1.28341E-01
   1.38048E-01  4.41794E-02  1.06854E-01  8.37019E-02 -2.58628E-01 -5.92991E-02 -4.37014E-01 -3.83721E-01 -9.21466E-02 -2.00342E-01
  -8.74278E-02 -4.00759E-01 -1.17831E+00 -9.37343E-01 -1.31679E+00 -1.09122E+00 -2.53390E-01 -4.45137E-01  1.01209E-01 -1.77767E-01
  -2.33128E-01 -1.53170E-02  8.28604E-03  2.02028E-02  3.03933E-02  5.22372E-02 -1.43984E-01  2.64543E-01 -1.11376E-02 -1.28122E-01
   1.44225E-01  2.39663E-01 -1.75923E-02 -1.26602E-01  3.37375E-01  1.77092E-01  9.37011E-02  2.90287E-01 -3.52990E-02  1.46101E-01
   3.47496E-01  3.63086E-02  1.49558E-01  1.20536E-01  1.19124E-01 -7.14236E-03  1.46014E-01  1.78547E-01  1.55303E-02  2.39644E-01
   5.35354E-02  2.21196E-01  1.85300E-01  2.47670E-01  3.35204E-01  8.03840E-02  1.35549E-01  1.91764E-02  6.21924E-01  4.16325E-01
  -3.01339E-02  3.81039E-01  1.11028E-01  7.51995E-02  8.56061E-03  1.98363E-01  1.10996E-01  1.54862E-01  3.66700E-01 -2.04875E-02
  -4.81476E-02 -9.96552E-02 -5.46254E-02 -1.81621E-01 -1.54487E-02 -1.23871E-01 -2.16319E-01 -1.77167E-01 -2.64082E-01 -2.14116E-01
  -2.33854E-01 -3.00896E-02 -1.87061E-01 -2.30455E-01 -2.10824E-01  3.24302E-02 -2.45289E-01 -1.75320E-01 -3.24764E-02 -2.15872E-01
   9.29665E-02 -1.53033E-01  4.73456E-02 -3.93055E-02 -3.41918E-01 -3.77182E-01 -1.32701E-01 -1.39795E-02 -3.45023E-01 -1.73336E-02
   4.89359E-02  4.74525E-02  1.08393E-01 -2.26826E-02  2.33646E-01  1.16774E-01  1.77490E-01  2.87311E-01 -5.83905E-02  2.97783E-02
   1.16502E-01 -6.52044E-03 -9.03308E-02  1.17723E-01 -2.98316E-02 -3.24914E-02 -7.77797E-02 -2.72442E-02  3.40756E-01  5.75797E-03
   3.19689E-01  7.56422E-02 -2.67514E-01  2.26117E-01  2.27666E-01  3.13299E-02 -1.34524E-02  1.28169E-01 -1.77072E-01 -2.65062E-01
  -1.86258E-02 -3.49074E-02  3.80567E-01  3.95732E-01 -6.42734E-03  2.43850E-01  1.17391E-01 -5.65370E-02 -2.98888E-02 -3.38619E-01
  -1.47429E-01  3.29780E-02 -9.88401E-02 -1.70797E-01 -3.13028E-01  1.03014E-01 -3.93420E-02 -1.74991E-01  7.61647E-02 -1.68499E-01
   2.28357E-01  3.57204E-02 -1.44263E-01 -1.64206E-01 -3.61286E-02  2.74873E-01 -1.29124E-02 -4.75712E-02 -9.64371E-02  1.50469E-01
   1.55310E-01  3.90126E-02 -2.14429E-02 -5.93055E-02 -1.43531E-01 -8.23562E-02  4.56923E-02 -6.28063E-03  1.13489E-01  1.73579E-01
   2.41653E-02 -2.19040E-01  3.50679E-01  2.40390E-01  1.12177E-01  1.47839E-01 -2.19904E-01  8.29966E-03 -5.59922E-02  2.25472E-02
  -3.79771E-02  1.11399E-02  9.12945E-02  4.42893E-02  8.35155E-02  1.57842E-02  1.30389E-01  4.94598E-03  1.28225E-01  2.56541E-01
   1.34281E-01 -4.94680E-02 -4.81412E-02 -2.17276E-02 -1.48935E-01 -8.30264E-02 -3.05531E-01 -3.48347E-01 -4.55126E-01 -3.52081E-01
  -3.13836E-01 -2.64990E-01  1.36652E-01 -3.18580E-02  3.63257E-02 -3.33966E-01 -1.43430E-01  3.33500E-02 -3.89817E-01  5.91869E-02
   9.71340E-02 -9.54935E-02 -2.86684E-02  5.10192E-02 -1.73241E-01  4.16763E-02  1.63062E-01  1.67674E-02  9.87174E-02 -8.68491E-03
   1.26636E-01 -8.12324E-02  4.85199E-02  2.22796E-01  2.89041E-02  1.31272E-01  2.76713E-02  2.52178E-01 -1.13213E-04 -2.92857E-01
   2.62458E-01  1.96870E-01  4.94243E-02  1.20646E-02  8.04486E-02  2.35002E-01  1.43384E-01 -1.18498E-01 -2.25775E-01  4.16586E-02
   1.31862E-01  8.27310E-02  7.37488E-02  2.10005E-01  2.70376E-02  4.26023E-02  6.83949E-02  9.17524E-02  8.02350E-02  1.06920E-01
   1.50416E-01 -1.51618E-01 -1.74522E-02 -2.14815E-01  2.17015E-02  1.32803E-01 -1.99119E-02  1.76504E-01 -5.57712E-02 -7.47195E-02
   1.97856E-02  3.79432E-02  4.23355E-02  1.19784E-01  1.77226E-01 -8.18353E-02 -2.00068E-01 -1.70542E-01 -2.07432E-01  6.09888E-02
  -1.80640E-02 -6.45021E-02 -8.55379E-02  1.87124E-02  6.10188E-02 -2.54769E-01 -1.74962E-01 -1.01615E-01  1.02553E-01  7.66812E-02
  -6.54849E-02  1.78952E-02  1.38870E-01 -3.35755E-02  2.58741E-02  1.52223E-01  4.65759E-02  1.93038E-02  1.82261E-01  1.30519E-01
   5.91604E-03  2.45540E-01 -1.70020E-02 -1.56605E-01 -2.48282E-01  1.50503E-01  1.28545E-01  2.20199E-02  2.40742E-01  2.91388E-01
   3.01625E-01 -2.04593E-01  3.65222E-02  1.20969E-01 -2.59369E-02 -1.66026E-01 -9.95818E-02  1.18081E-01  2.37261E-01  2.59431E-02
   2.25376E-02 -2.90983E-02 -7.23343E-02  2.77308E-01  8.46892E-02  2.16676E-01 -1.15422E-01 -1.75560E-01  1.43546E-01  3.50006E-01
  -1.45870E-01 -3.27462E-02  1.60159E-01 -2.02769E-01
 NY points of the fit to the data follow
   1.47734E-01  1.31210E-01  5.60970E-02  5.28675E-02 -2.09779E-03  2.74295E-03 -8.75562E-03 -1.92886E-02 -2.22004E-02  2.62658E-02
   6.29431E-02  2.12573E-01  3.26320E-01  3.62928E-01  4.09187E-01  4.40327E-01  3.22295E-01  3.04098E-01  2.71913E-01  6.49833E-02
   8.73927E-02 -1.14312E-03 -1.51894E-02 -3.27534E-02 -4.91783E-02 -6.76357E-02 -8.09412E-02 -8.95012E-02 -9.85815E-02 -1.05604E-01
  -1.07656E-01 -1.18703E-01 -1.25670E-01 -1.40727E-01 -1.61668E-01 -1.82703E-01 -2.13822E-01 -2.31371E-01 -2.38047E-01 -2.41004E-01
  -1.63375E-01 -1.32251E-01 -2.34897E-02  1.11208E-01  1.43835E-01  3.07333E-01  3.11768E-01  3.07620E-01  3.34515E-01  2.49756E-01
   2.24234E-01  2.01348E-01  1.46771E-01  1.07013E-01  8.35317E-02  2.37313E-02 -1.33215E-02 -6.60625E-02 -1.13869E-01 -1.84204E-01
  -2.18073E-01 -2.20749E-01 -2.87291E-01 -1.83304E-01 -1.82992E-01 -2.20527E-01  3.74112E-02 -2.92966E-02  1.22830E-01  3.28068E-01
   2.24498E-01  3.48220E-01  2.93924E-01  2.18218E-01  1.83910E-01  1.20000E-01  5.76042E-02 -4.90329E-02 -1.38590E-01 -2.88936E-01
  -3.80473E-01 -2.78165E-01 -2.85610E-01 -8.70667E-02  1.41219E-01  1.58345E-01  3.33804E-01  3.56080E-01  3.09712E-01  2.94660E-01
   2.48355E-01  2.14696E-01  1.85088E-01  1.72445E-01  1.33141E-01  8.94317E-02  3.15576E-02 -1.58056E-01 -1.91777E-01 -4.64006E-01
  -3.94095E-01 -3.71359E-01 -2.98783E-01  7.05449E-02  3.24875E-02  3.08891E-01  2.54023E-01  2.98444E-01  2.84800E-01  2.74403E-01
   2.68886E-01  2.66135E-01  2.59821E-01  2.57218E-01  2.52415E-01  2.50147E-01  2.48048E-01  2.47842E-01  2.52561E-01  2.51537E-01
   2.33270E-01  2.41349E-01  1.60358E-01  1.33235E-01  1.31451E-01 -2.90980E-02  3.79432E-02 -7.33219E-02 -2.79262E-01 -2.60924E-01
  -5.38164E-01 -5.09103E-01 -4.15503E-01 -4.08988E-01 -2.49733E-01 -4.34852E-01 -7.11077E-01 -7.52180E-01 -8.70193E-01 -7.35802E-01
  -3.62985E-01 -3.10966E-01 -1.18213E-01 -7.45106E-02 -3.57220E-02 -4.96630E-03  1.99392E-02  4.20359E-02  6.02651E-02  7.57532E-02
   9.14226E-02  1.03746E-01  1.17297E-01  1.30054E-01  1.43474E-01  1.58265E-01  1.73533E-01  1.91464E-01  2.08998E-01  2.29633E-01
   2.53480E-01  2.80858E-01  3.25794E-01  4.52829E-01  6.10943E-01  6.69161E-01  7.95215E-01  3.30548E-01 -4.47075E-02 -3.64606E-01
  -8.52607E-01 -6.57743E-01 -6.19480E-01 -4.91317E-01 -3.80552E-01 -3.27158E-01 -2.95808E-01 -2.63215E-01 -2.43657E-01 -2.25464E-01
  -2.09087E-01 -1.96824E-01 -1.82334E-01 -1.70686E-01 -1.61526E-01 -1.52781E-01 -1.43916E-01 -1.36699E-01 -1.28392E-01 -1.21824E-01
  -1.14227E-01 -1.08662E-01 -1.01566E-01 -9.53806E-02 -8.88575E-02 -8.34076E-02 -7.72649E-02 -7.21193E-02 -6.72630E-02 -6.11285E-02
  -5.66850E-02 -5.00113E-02 -4.63678E-02 -4.40501E-02 -4.16989E-02 -4.22742E-02 -3.85557E-02 -3.63794E-02 -3.54844E-02 -3.52999E-02
  -3.81682E-02 -3.97809E-02 -3.92777E-02 -3.75823E-02 -3.19426E-02 -2.74670E-02 -1.99882E-02 -1.43418E-02 -1.52140E-02 -1.30678E-02
  -1.79674E-02 -1.94217E-02  5.11530E-04  1.73003E-02  7.80983E-02  1.18983E-01  1.35221E-01  1.70831E-01  1.52516E-01  2.08444E-01
   2.57424E-01  2.41032E-01  2.47579E-01  1.52842E-01  5.58939E-02  2.79175E-02 -2.18457E-02 -2.83894E-02 -3.65637E-02 -4.41852E-02
  -5.02411E-02 -5.61398E-02 -6.14128E-02 -6.52456E-02 -6.84917E-02 -7.30421E-02 -7.50505E-02 -8.05267E-02 -8.23286E-02 -8.54082E-02
  -8.99227E-02 -8.88443E-02 -1.11096E-01 -1.19317E-01 -1.16155E-01 -1.49497E-01 -7.21886E-02 -5.69696E-02 -5.34807E-02  8.72013E-02
   2.00219E-02  1.09991E-01  1.35467E-01  8.40916E-02  1.63384E-01  8.46889E-02  1.30680E-01  1.00761E-01  7.54817E-02  8.18010E-02
   4.50060E-02  4.77702E-02  1.50387E-02  2.48844E-03 -2.29558E-02 -4.67704E-02 -6.53803E-02 -9.82779E-02 -1.38862E-01 -1.76789E-01
  -2.61958E-01 -2.79853E-01 -2.95491E-01 -2.75981E-01 -1.08622E-01 -3.66053E-02  1.39211E-01  2.55218E-01  2.62099E-01  3.22672E-01
   2.66041E-01  2.38512E-01  2.17415E-01  1.79030E-01  1.74392E-01  1.57764E-01  1.50665E-01  1.49943E-01  1.39888E-01  1.40323E-01
   1.33897E-01  1.31451E-01  1.27401E-01  1.25175E-01  1.20989E-01  1.17506E-01  1.11401E-01  1.04930E-01  9.05483E-02  7.60909E-02
   6.43346E-02  3.80017E-02  4.28004E-02  2.65500E-02  2.46683E-02  2.86830E-02 -4.73036E-03 -7.30852E-03 -5.81138E-02 -7.41006E-02
  -1.23308E-01 -1.42065E-01 -1.67313E-01 -1.86124E-01 -1.58660E-01 -1.47685E-01 -7.85570E-02 -4.09363E-02  2.17438E-02  2.57070E-02
   3.80502E-02  9.13357E-03 -3.43635E-02 -4.44272E-02 -1.38631E-01 -1.24812E-01 -2.29615E-01 -1.71879E-01 -8.28320E-02 -1.54514E-01
  -1.79144E-01 -4.84045E-01 -1.12366E+00 -1.13856E+00 -1.25985E+00 -1.14625E+00 -4.28163E-01 -4.52682E-01 -1.41113E-01 -1.16036E-01
  -8.28680E-02 -6.03024E-02 -4.21391E-02 -2.95844E-02 -1.89648E-02 -1.09915E-02 -4.17374E-03  4.85055E-04  4.90261E-03  5.12225E-03
   4.57009E-03  3.59349E-03 -1.84527E-03 -3.35792E-03 -6.77330E-03 -8.21510E-03 -7.20807E-03 -5.01216E-03 -2.74654E-03  2.32626E-03
   5.87051E-03  1.15311E-02  1.70798E-02  2.17731E-02  2.57094E-02  2.98787E-02  3.15149E-02  3.54428E-02  3.77591E-02  4.02228E-02
   4.25053E-02  4.44310E-02  4.66722E-02  4.85962E-02  5.14333E-02  5.20883E-02  5.42046E-02  5.40365E-02  5.65470E-02  5.74691E-02
   6.06565E-02  6.33709E-02  6.43074E-02  6.62403E-02  6.48155E-02  6.44091E-02  6.27703E-02  6.14480E-02  5.97863E-02  5.77783E-02
   5.48541E-02  5.14551E-02  4.75817E-02  4.27892E-02  3.86413E-02  3.43144E-02  3.00715E-02  2.67594E-02  2.23480E-02  1.96484E-02
   1.50622E-02  1.30076E-02  1.03513E-02  7.45787E-03  6.29516E-03  3.57775E-03  1.60284E-03  1.51258E-04 -1.86017E-03 -3.21835E-03
  -3.89976E-03 -5.64943E-03 -5.49163E-03 -5.55280E-03 -5.39059E-03 -3.30324E-03 -1.55296E-03  1.29669E-03  5.23642E-03  8.30907E-03
   8.98422E-03  1.68855E-02  3.53080E-02  5.24035E-02  1.34737E-01  1.32129E-01  1.97714E-01  1.85250E-01  1.17842E-01  1.35782E-01
   4.27848E-02  6.45941E-02  4.51773E-02  5.43906E-02  6.05372E-02  6.81146E-02  7.51781E-02  8.10208E-02  8.72910E-02  9.05354E-02
   9.27546E-02  9.36542E-02  9.31176E-02  9.20132E-02  8.98829E-02  8.54683E-02  7.34308E-02  6.33163E-02  6.31457E-02  5.08947E-02
   1.29223E-01  1.27928E-01  2.05815E-01  2.34572E-01  1.73951E-01  2.06851E-01  1.07225E-01  1.08550E-01  7.45067E-02  6.34425E-02
   5.55149E-02  4.84420E-02  4.31590E-02  3.82917E-02  3.54359E-02  3.38588E-02  3.27198E-02  3.33623E-02  3.43118E-02  3.50108E-02
   3.78476E-02  4.00804E-02  4.32432E-02  4.63295E-02  4.87845E-02  5.08987E-02  5.18714E-02  5.32596E-02  5.42386E-02  5.61812E-02
   5.73454E-02  5.83212E-02  5.92502E-02  5.74026E-02  5.74738E-02  5.52284E-02  5.28267E-02  5.17227E-02  4.82680E-02  4.72290E-02
   4.46355E-02  4.27943E-02  4.06538E-02  3.80061E-02  3.59445E-02  3.30044E-02  3.03386E-02  2.80855E-02  2.60403E-02  2.42538E-02
   2.28810E-02  2.08730E-02  1.86443E-02  1.55723E-02  1.18714E-02  8.01382E-03  3.30263E-03 -9.84018E-04 -6.05325E-03 -1.30657E-02
  -2.03372E-02 -3.08128E-02 -4.06967E-02 -5.14792E-02 -6.27148E-02 -7.22997E-02 -8.28229E-02 -9.18001E-02 -1.00638E-01 -1.07943E-01
  -1.14350E-01 -1.17950E-01 -1.20657E-01 -1.21237E-01 -1.20193E-01 -1.18185E-01 -1.14883E-01 -1.10258E-01 -1.06312E-01 -1.02185E-01
  -9.83734E-02 -9.43967E-02 -8.93565E-02 -8.48297E-02 -7.81714E-02 -7.21405E-02 -6.55945E-02 -5.83702E-02 -5.22732E-02 -4.52246E-02
  -3.97074E-02 -3.30117E-02 -2.69026E-02 -2.22423E-02 -1.60804E-02 -1.20563E-02 -7.58916E-03 -2.45863E-03  6.09603E-04  4.04946E-03
   7.91556E-03  8.93931E-03  1.26036E-02  1.48631E-02  1.55094E-02  1.83191E-02  1.86978E-02  1.98894E-02  2.06728E-02  2.07460E-02
   2.22183E-02  2.25907E-02  2.45837E-02  2.63863E-02  2.74068E-02  2.89384E-02  2.91816E-02  2.99234E-02  2.95746E-02  2.96462E-02
   3.02791E-02  2.93362E-02  2.96501E-02  2.98189E-02  2.89688E-02  2.96674E-02  3.02856E-02  3.04492E-02  3.15721E-02  3.12025E-02
   2.97096E-02  2.92996E-02  2.81034E-02  2.76336E-02  2.88283E-02  2.83079E-02  2.89434E-02  2.83554E-02  2.75725E-02  2.77039E-02
   2.67177E-02  2.78170E-02  2.80224E-02  2.90365E-02  2.95075E-02  2.99267E-02  3.10277E-02  3.15656E-02  3.23151E-02  3.34741E-02
   3.34463E-02  3.40186E-02  3.32808E-02  3.28265E-02  3.28118E-02  3.22146E-02  3.41071E-02  3.40608E-02  3.52879E-02  3.58137E-02
   3.59188E-02  3.70599E-02  3.85383E-02  3.96924E-02  4.17502E-02  4.16228E-02  4.12689E-02  4.13692E-02  4.05589E-02  4.18391E-02
   4.21645E-02  4.22273E-02  4.28283E-02  4.22646E-02  4.25023E-02  4.32395E-02  4.31318E-02  4.33851E-02  4.42984E-02  4.49466E-02
   4.55859E-02  4.70397E-02  4.75825E-02  4.75223E-02  4.90248E-02  4.91764E-02  5.03979E-02  5.27963E-02  5.46260E-02  5.77472E-02
   5.99574E-02  6.16549E-02  6.35217E-02  6.44197E-02
 NY background values follow
     4.091E-02    4.079E-02    4.066E-02    4.054E-02    4.041E-02    4.029E-02    4.016E-02    4.004E-02    3.991E-02    3.979E-02
     3.967E-02    3.954E-02    3.942E-02    3.929E-02    3.917E-02    3.904E-02    3.892E-02    3.879E-02    3.867E-02    3.854E-02
     3.842E-02    3.829E-02    3.817E-02    3.805E-02    3.792E-02    3.780E-02    3.767E-02    3.755E-02    3.742E-02    3.730E-02
     3.717E-02    3.705E-02    3.692E-02    3.680E-02    3.667E-02    3.655E-02    3.642E-02    3.630E-02    3.617E-02    3.605E-02
     3.592E-02    3.580E-02    3.567E-02    3.555E-02    3.542E-02    3.530E-02    3.517E-02    3.505E-02    3.492E-02    3.480E-02
     3.467E-02    3.455E-02    3.442E-02    3.430E-02    3.417E-02    3.405E-02    3.392E-02    3.380E-02    3.367E-02    3.355E-02
     3.342E-02    3.330E-02    3.317E-02    3.305E-02    3.292E-02    3.280E-02    3.267E-02    3.255E-02    3.242E-02    3.230E-02
