 
 $NMID
 ID=''
 FMTDAT='(2E13.5)'
 TRAMP=   1.00000E+0
 VOLUME=   1.00000E+0
 $END
   7.00918E+2  -1.93936E+2
   4.62820E+1   1.04176E+3
   3.58781E+3  -4.68460E+3
  -2.07705E+3  -2.74754E+3
  -3.59664E+3  -1.11188E+3
  -2.03426E+3  -1.90193E+1
  -4.79999E+3   6.32083E+2
  -3.82684E+3   2.23542E+2
  -3.11005E+3   1.54380E+3
   1.95529E+2   1.20532E+3
   7.69870E+2   3.79463E+3
   1.14048E+3   5.24431E+3
  -1.74124E+3   4.19162E+3
  -1.69197E+3  -7.36021E+1
   2.43771E+3  -4.86781E+2
   1.81167E+3   6.04932E+2
   1.79265E+3   2.22438E+3
   3.47110E+2   1.58197E+3
  -1.52664E+3   8.54970E+2
   8.30065E+2  -1.23361E+3
   3.49821E+3   1.11739E+3
  -3.11445E+2   1.79831E+3
  -1.92203E+3   2.24115E+3
  -2.88968E+3  -1.44068E+3
   5.08354E+3  -2.06564E+2
   1.42626E+3   3.73732E+3
  -2.31781E+3   2.09964E+3
  -2.99780E+3  -2.59032E+3
   3.52821E+3  -3.36206E+3
   7.51451E+3   9.22403E+2
   1.69325E+3   3.22419E+3
  -3.46884E+3   3.40658E+3
  -3.82551E+3  -1.73579E+3
   6.10950E+2  -2.32549E+3
  -3.91868E+2  -2.02212E+3
   5.85566E+2  -3.47038E+3
   4.60561E+3  -4.05706E+3
   2.80896E+3   1.74057E+3
   2.50935E+3   2.41970E+2
   1.58711E+3  -4.07811E+2
  -4.66491E+3   4.57705E+2
  -5.08092E+3  -5.45418E+3
   1.53778E+3  -5.85821E+3
   4.47531E+3  -9.97420E+2
   1.51617E+3   2.26746E+3
  -3.17442E+2  -7.63656E+2
   3.47586E+3   6.88539E+2
  -3.43722E+2   2.30420E+3
  -2.25827E+3  -1.02378E+3
  -5.95935E+2  -9.33570E+2
   2.84178E+2  -4.79972E+3
   3.22449E+3  -4.09621E+3
   3.71909E+3  -1.17314E+3
   1.52621E+3   3.32529E+3
  -4.12551E+2   3.12568E+3
  -7.17018E+2   2.43068E+3
  -2.61264E+3   2.61663E+3
  -5.68527E+3  -3.70014E+3
   9.57032E+2  -4.75451E+3
   1.40484E+3   1.09660E+3
   2.08437E+3   1.36848E+3
   2.06429E+3   3.62561E+3
  -2.06103E+3   2.75040E+3
  -1.25975E+3   8.38779E+2
   1.12991E+3  -1.27536E+3
   2.36833E+3   5.24347E+2
  -3.88699E+3   1.46125E+3
  -4.37522E+3  -6.49970E+2
  -1.74623E+3  -3.65358E+3
   2.26263E+3   6.55402E+2
  -2.97945E+3   8.47686E+2
  -7.11676E+2  -1.21435E+2
   1.40286E+2  -3.64892E+2
  -6.38896E+2  -8.17142E+2
  -1.96089E+3  -6.16429E+2
   1.00069E+3   7.21916E+2
  -7.90510E+1   1.20726E+3
   7.92192E+2  -1.03858E+3
   2.29291E+3   4.23456E+2
  -1.35283E+3   4.07760E+2
  -1.61643E+3   1.37357E+3
  -2.97370E+2  -2.00681E+2
  -1.58163E+3   1.62576E+3
  -9.98397E+2   2.98075E+0
  -3.31674E+3   2.64922E+3
  -1.50580E+3  -3.13303E+3
   5.06878E+2  -5.60749E+2
   1.72424E+3  -1.96968E+3
   2.02838E+3   1.49102E+3
  -3.77383E+2   2.11814E+2
  -1.00844E+3  -1.79775E+3
   1.25527E+3  -1.18025E+3
  -2.22667E+2   1.45822E+3
  -4.79506E+3   1.36142E+2
  -1.73733E+3  -2.16912E+3
  -2.33186E+2  -3.05875E+3
   2.20524E+3   4.46129E+2
   6.49772E+2   2.52901E+3
  -2.49191E+3  -3.42296E+1
  -1.56283E+3  -2.03441E+3
   1.36958E+3  -3.06806E+3
   1.99597E+3   2.45858E+3
   5.90983E+2   3.25065E+3
  -1.51695E+3   2.30582E+3
  -1.57949E+3  -3.20452E+2
   2.58241E+2  -4.09970E+2
   1.04060E+3   1.38454E+2
  -2.34481E+3  -3.07047E+3
   9.83760E+1  -3.05777E+3
   2.31287E+3  -2.22265E+3
   3.92079E+3  -8.88932E+2
  -7.03941E+2   1.58076E+3
  -2.83285E+3   8.52237E+2
  -2.51319E+3   1.33632E+3
  -2.31914E+2   2.31846E+3
  -1.86459E+3  -1.71134E+3
   6.99682E+2  -2.79072E+3
   8.34234E+2   1.50848E+3
   1.26942E+3  -9.56095E+2
   2.85142E+3  -4.25658E+2
  -8.49889E+2   1.21607E+3
  -1.11677E+3  -6.28203E+2
  -2.57955E+2  -4.66093E+2
   2.92014E+3   6.56631E+2
   5.94516E+2   5.50546E+2
   4.53272E+2   1.84763E+3
   5.39429E+2   1.40245E+3
   1.01276E+2   1.16747E+3
  -5.56263E+2   2.71968E+3
   1.19793E+2  -3.49772E+2
  -1.05814E+3  -1.48365E+3
  -3.88740E+2  -2.73522E+2
   2.68516E+3   2.01325E+3
   8.08122E+2   2.15252E+3
  -7.57008E+2   1.32001E+3
  -1.05277E+3   6.94537E+2
  -2.61425E+2   3.23720E+2
  -9.85069E+2   3.41442E+2
   8.16482E+2   1.28785E+3
  -5.07434E+2   6.98661E+2
   1.36223E+3   2.89585E+2
   2.06680E+3  -1.02796E+3
   2.16340E+3   4.25277E+3
  -2.68137E+3   1.22425E+3
  -9.95156E+2  -5.25462E+1
   1.65137E+3   2.22867E+3
  -3.52464E+2   5.14491E+2
   1.73066E+2  -9.95811E+2
   1.92719E+2  -6.28201E+2
  -6.37446E+2  -1.27238E+3
  -2.07084E+3  -4.52771E+2
   3.63026E+2  -9.94187E+2
   1.39012E+3  -3.87715E+2
   1.29465E+3  -2.18312E+3
  -5.78873E+2   6.61008E+2
   2.94287E+3   3.92899E+2
  -5.76187E+2   9.62600E+1
   1.76198E+2   1.19957E+3
   8.35244E+2  -1.15300E+3
  -3.35695E+2  -4.54897E+2
  -7.02919E+2   1.54518E+3
   5.12816E+2   1.85795E+3
   3.59143E+2  -3.87316E+2
  -3.77190E+1   1.75504E+3
   9.27836E+2   1.33052E+3
  -3.80126E+3  -5.01586E+2
  -1.06782E+3  -8.54268E+2
   2.26512E+0   4.51855E+1
   8.50506E+2   6.04465E+2
  -1.26601E+3   4.74348E+2
  -9.31429E+2   1.09497E+3
  -1.81663E+3  -2.00973E+3
  -1.94259E+3  -1.65994E+3
   1.68725E+3  -2.34667E+3
   1.82281E+3   1.18720E+2
   2.58529E+3  -1.84726E+3
   1.49941E+3  -7.84772E+2
   8.51332E+2   2.86347E+3
   9.18605E+2   1.67221E+3
   1.42658E+3  -5.24764E+2
  -1.30502E+3  -1.26265E+3
   5.59239E+2  -2.38118E+3
   8.71594E+2  -1.57615E+3
  -2.18278E+3   4.28274E+2
  -8.55175E+2  -9.62790E+2
  -3.84379E+2   2.29222E+3
   1.87415E+2   1.14700E+3
  -8.60610E+2  -4.53904E+2
   4.25668E+2  -1.88827E+3
   1.64805E+3  -3.27346E+2
   2.17190E+3  -5.13512E+2
   1.50807E+3   8.10366E+2
   3.42945E+2  -1.31981E+3
  -3.05490E+2  -5.42388E+2
  -1.09397E+3   2.06047E+3
  -1.87496E+2  -1.56748E+3
   3.58302E+1  -1.98172E+2
  -4.53341E+2  -1.10386E+3
   2.20072E+3  -9.91113E+2
   2.82832E+2   2.30317E+3
  -1.31840E+3  -1.17626E+1
  -1.74818E+3  -1.52748E+3
   2.61650E+2  -9.46171E+2
   1.43978E+2   1.13048E+1
   1.85693E+3  -2.42152E+2
  -4.83656E+2  -5.76949E+2
  -8.13863E+2   4.11296E+1
   1.56095E+3   2.55069E+3
  -1.09951E+3   7.12476E+2
  -1.76630E+2  -1.74299E+3
  -1.83375E+3   1.07574E+3
  -8.74836E+2  -1.48194E+3
   8.82716E+2  -9.63626E+2
   2.30939E+3   9.93898E+2
  -4.00012E+2  -2.95203E+2
  -1.13792E+3   7.60136E+2
  -2.83842E+2   1.20377E+2
   1.71911E+2  -1.86435E+2
  -1.30086E+3   6.74137E+2
   2.65055E+2  -2.05688E+3
  -1.69145E+2  -5.35280E+2
  -5.72114E+2  -2.38184E+2
  -2.63520E+3   9.24113E+2
  -2.37740E+2  -1.77584E+3
   5.05606E+2  -7.91224E+2
   1.96240E+2  -2.52269E+3
   1.68602E+3  -1.21324E+2
  -4.96860E+2   1.73616E+2
  -1.77657E+3   1.93796E+3
  -1.40652E+3   1.91200E+2
   2.73620E+2  -1.11464E+3
  -1.45121E+3  -4.93412E+2
  -1.70557E+2  -8.00298E+2
   5.87537E+2  -2.76507E+3
   6.94445E+2   7.03094E+2
  -2.89895E+2   1.08265E+3
   4.29434E+2   6.96175E+2
  -9.94435E+2  -2.56210E+3
   6.91764E+1   7.55983E+1
   6.11016E+2  -1.44032E+3
   1.51099E+3   8.77333E+2
  -7.64938E+2  -3.16202E+2
  -8.04327E+2  -1.39221E+3
   7.10678E+2   4.41535E+2
   2.21356E+2   1.62766E+3
   3.32707E+3  -7.46949E+2
  -1.48921E+3  -4.70362E+0
  -5.80813E+2  -1.05129E+3
   1.84052E+3  -1.01787E+3
   4.36662E+2   1.23769E+2
  -1.54366E+3  -5.22621E+2
  -1.34245E+3   2.02246E+2
   1.26562E+3  -5.75571E+1
   5.11586E+2   1.13196E+3
  -2.97077E+2  -9.17187E+2
   5.54947E+2  -5.40790E+2
   7.99596E+1  -3.78274E+2
   9.46666E+1   1.58010E+3
   3.60477E+2   9.60865E+2
  -3.49465E+2   4.27964E+2
   4.01826E+2   1.19361E+3
  -6.39758E+2  -1.74525E+2
   1.07193E+3   7.03741E+2
  -1.66286E+2  -2.40325E+2
  -2.81906E+2   2.07925E+1
   1.42938E+3   4.99901E+2
   1.10740E+3  -8.29305E+2
   2.72019E+2  -2.34268E+3
   9.65081E+2  -1.62306E+3
  -3.59765E+2  -1.19694E+3
   5.44552E+2  -1.44795E+3
   3.42226E+2   2.57926E+2
  -1.27461E+3  -3.58457E+2
  -1.99643E+3  -5.63224E+2
  -2.03151E+3  -1.19884E+3
   8.57770E+2   7.74728E+1
  -6.02462E+2  -7.69546E+1
   7.25355E+2  -1.31222E+3
   1.32334E+3  -6.49207E+2
   6.64149E+2   3.63660E+2
   7.21352E+2   1.53158E+2
   4.21522E+2  -9.80825E+2
  -1.22396E+3  -4.37748E+2
   4.25831E+1   1.24482E+3
   1.45864E+2  -6.47737E+2
   1.35306E+3   2.49762E+3
  -1.57315E+3   2.21944E+2
  -1.73305E+2  -1.13452E+3
   1.20576E+3   9.10686E+2
   1.43906E+3   7.36548E+2
   1.75765E+3   4.67873E+2
  -2.30613E+2   1.94288E+3
  -3.17685E+2   1.44401E+2
   8.41243E+2   2.34518E+2
  -9.26831E+2   7.02507E+2
   1.55686E+3  -1.42566E+3
  -2.48201E+3  -5.84330E+2
   7.00796E+1  -8.77053E+2
   9.93518E+0  -7.52528E+2
  -9.94226E+2  -4.54493E+2
  -7.76201E+2  -7.35891E+2
  -7.11671E+2  -4.02994E+1
   3.53995E+2   2.16905E+3
  -2.33178E+3   2.00876E+3
   8.44036E+2   3.57551E+2
  -3.22011E+2  -9.53879E+2
   1.52863E+3   1.31089E+2
   1.40284E+3   1.88923E+3
  -7.17844E+2   3.09415E+3
   1.55977E+3  -8.74275E+1
  -2.04024E+3  -1.94022E+3
   1.06627E+3   1.27135E+3
   1.09828E+3  -3.30673E+2
   5.41443E+1   1.15528E+3
   3.48975E+2   5.72053E+2
  -6.31185E+2   4.63175E+2
   1.17714E+3   6.72390E+2
  -1.40328E+3   6.99970E+2
  -1.08191E+3  -4.83282E+2
  -1.03897E+3  -7.00443E+2
   2.63491E+3   4.55070E+2
   9.00784E+2  -4.76987E+2
   1.16314E+3  -9.87811E+2
  -6.24548E+2  -2.40990E+2
   3.78525E+2   4.62291E+2
  -1.89914E+3  -1.19522E+2
   1.45375E+3  -1.12359E+3
  -9.29504E+2   5.23363E+2
  -2.52761E+2  -2.36312E+2
   3.05593E+3  -4.13382E+1
  -1.37336E+3   1.75263E+3
  -1.46321E+3  -9.02327E+1
  -9.61699E+2  -8.70153E+1
  -2.71980E+2  -5.87256E+2
  -8.19805E+2  -2.13979E+3
   1.83708E+1   4.04296E+2
  -1.95039E+3  -7.63986E+2
   1.28845E+3  -1.58553E+3
   2.31768E+2  -5.36258E+2
  -1.11158E+3   1.49936E+3
  -6.07822E+2  -3.93602E+2
   1.34876E+3   6.56148E+0
   1.17177E+3   3.47100E+1
   4.24721E+2   1.99174E+3
  -3.82546E+2   2.51082E+3
  -2.35290E+3  -2.04440E+2
   1.49979E+3   6.00338E+1
   5.71522E+2  -1.98113E+2
  -1.01107E+3  -2.87620E+2
   1.06671E+3  -4.30228E+2
   5.02592E+2   1.14726E+3
   1.39457E+3   9.78664E+2
  -4.61675E+2   8.51612E+2
  -1.43585E+3   1.16428E+3
   3.54501E+2  -1.24624E+3
   9.16890E+2   6.18074E+1
   8.07683E+2  -5.43207E+2
  -1.05498E+3   6.86676E+2
  -1.22565E+3  -1.25386E+3
   2.21213E+3  -1.93624E+2
   8.78696E+2   3.22911E+2
   1.10749E+3   8.79455E+1
  -9.51468E+2   7.38856E+2
   4.88038E+2  -1.04184E+0
  -8.48973E+2  -1.61968E+2
   4.08159E+2   8.91014E+2
  -1.01871E+3   2.43225E+3
