 LCModel (Version 6.3-1N) Copyright: S.W. Provencher.          Ref.: Magn. Reson. Med. 30:672-679 (1993).                
 Slice_N1@26_22  02-Jun-2023 14:38:06
 27 lines in following concentration table = NCONC+1
    Conc.  %SD /Cr+PCr  Metabolite                                         
 2.22E-06  22% 1.5E-03 Mac                                                 
    0.000 999%   0.000 Cr                                                  
 1.20E-02  60%   8.000 PCr                                                 
 4.40E-02  35%  29.354 Ins                                                 
 5.28E-02  25%  35.171 NAA                                                 
 4.05E-02  32%  26.969 Tau                                                 
    0.000 999%   0.000 PCho                                                
    0.000 999%   0.000 GPC                                                 
 6.34E-02  27%  42.229 Glu                                                 
 6.97E-03  91%   4.646 Gln                                                 
    0.000 999%   0.000 Ala                                                 
 3.39E-02  46%  22.628 Asc                                                 
 3.22E-03  37%   2.148 Asp                                                 
 1.91E-03  37%   1.276 GABA                                                
 1.97E-03  36%   1.310 Glc                                                 
 2.79E-03  96%   1.857 GSH                                                 
    0.000 999%   0.000 Lac                                                 
    0.000 999%   0.000 NAAG                                                
    0.000 999%   0.000 PE                                                  
    0.000 999%   0.000 GPC+PCho                                            
 5.28E-02  25%  35.171 NAA+NAAG                                            
 7.03E-02  27%  46.875 Glu+Gln                                             
 1.20E-02  60%   8.000 Cr+PCr                                              
 5.28E-02  25%  35.171 NAA+NAAG                                            
 1.20E-02  60%   8.000 Cr+PCr                                              
 7.03E-02  27%  46.875 Glu+Gln                                             
   6 lines in following misc. output table
  FWHM = 0.105 ppm    S/N =   1                                            
  Data shift = 0.186 ppm                                                   
  Ph:  71 deg     -18.2 deg/ppm                                            
  alphaB,S = 3.1E+01,   5.1E+01                                            
   14 spline knots.   Ns =11(2)                                            
   2 inflections.     2 extrema                                            
  654 points on ppm-axis = NY
      4.000000     3.994181     3.988363     3.982544     3.976726     3.970907     3.965088     3.959270     3.953451     3.947633
      3.941814     3.935995     3.930177     3.924358     3.918540     3.912721     3.906902     3.901084     3.895265     3.889446
      3.883628     3.877809     3.871991     3.866172     3.860353     3.854535     3.848716     3.842898     3.837079     3.831260
      3.825442     3.819623     3.813805     3.807986     3.802167     3.796349     3.790530     3.784712     3.778893     3.773074
      3.767256     3.761437     3.755619     3.749800     3.743981     3.738163     3.732344     3.726526     3.720707     3.714888
      3.709070     3.703251     3.697433     3.691614     3.685795     3.679977     3.674158     3.668339     3.662521     3.656702
      3.650884     3.645065     3.639246     3.633428     3.627609     3.621791     3.615972     3.610153     3.604335     3.598516
      3.592698     3.586879     3.581060     3.575242     3.569423     3.563605     3.557786     3.551967     3.546149     3.540330
      3.534512     3.528693     3.522874     3.517056     3.511237     3.505419     3.499600     3.493781     3.487963     3.482144
      3.476326     3.470507     3.464688     3.458870     3.453051     3.447232     3.441414     3.435595     3.429777     3.423958
      3.418139     3.412321     3.406502     3.400684     3.394865     3.389046     3.383228     3.377409     3.371591     3.365772
      3.359953     3.354135     3.348316     3.342498     3.336679     3.330860     3.325042     3.319223     3.313405     3.307586
      3.301767     3.295949     3.290130     3.284312     3.278493     3.272674     3.266856     3.261037     3.255219     3.249400
      3.243581     3.237763     3.231944     3.226125     3.220307     3.214488     3.208670     3.202851     3.197032     3.191214
      3.185395     3.179577     3.173758     3.167939     3.162121     3.156302     3.150484     3.144665     3.138846     3.133028
      3.127209     3.121391     3.115572     3.109753     3.103935     3.098116     3.092298     3.086479     3.080660     3.074842
      3.069023     3.063205     3.057386     3.051567     3.045749     3.039930     3.034111     3.028293     3.022474     3.016656
      3.010837     3.005018     2.999200     2.993381     2.987563     2.981744     2.975925     2.970107     2.964288     2.958470
      2.952651     2.946832     2.941014     2.935195     2.929377     2.923558     2.917739     2.911921     2.906102     2.900284
      2.894465     2.888646     2.882828     2.877009     2.871191     2.865372     2.859553     2.853735     2.847916     2.842098
      2.836279     2.830460     2.824642     2.818823     2.813004     2.807186     2.801367     2.795549     2.789730     2.783911
      2.778093     2.772274     2.766456     2.760637     2.754818     2.749000     2.743181     2.737363     2.731544     2.725725
      2.719907     2.714088     2.708270     2.702451     2.696632     2.690814     2.684995     2.679177     2.673358     2.667539
      2.661721     2.655902     2.650084     2.644265     2.638446     2.632628     2.626809     2.620991     2.615172     2.609353
      2.603535     2.597716     2.591897     2.586079     2.580260     2.574442     2.568623     2.562804     2.556986     2.551167
      2.545349     2.539530     2.533711     2.527893     2.522074     2.516256     2.510437     2.504618     2.498800     2.492981
      2.487163     2.481344     2.475525     2.469707     2.463888     2.458070     2.452251     2.446432     2.440614     2.434795
      2.428977     2.423158     2.417339     2.411521     2.405702     2.399884     2.394065     2.388246     2.382428     2.376609
      2.370790     2.364972     2.359153     2.353335     2.347516     2.341697     2.335879     2.330060     2.324242     2.318423
      2.312604     2.306786     2.300967     2.295149     2.289330     2.283511     2.277693     2.271874     2.266056     2.260237
      2.254418     2.248600     2.242781     2.236963     2.231144     2.225325     2.219507     2.213688     2.207870     2.202051
      2.196232     2.190414     2.184595     2.178777     2.172958     2.167139     2.161321     2.155502     2.149683     2.143865
      2.138046     2.132228     2.126409     2.120590     2.114772     2.108953     2.103135     2.097316     2.091497     2.085679
      2.079860     2.074042     2.068223     2.062404     2.056586     2.050767     2.044949     2.039130     2.033311     2.027493
      2.021674     2.015856     2.010037     2.004218     1.998400     1.992581     1.986763     1.980944     1.975126     1.969307
      1.963489     1.957670     1.951852     1.946033     1.940215     1.934397     1.928578     1.922760     1.916941     1.911123
      1.905304     1.899486     1.893667     1.887849     1.882030     1.876212     1.870393     1.864575     1.858756     1.852938
      1.847119     1.841301     1.835482     1.829664     1.823845     1.818027     1.812208     1.806390     1.800571     1.794753
      1.788934     1.783116     1.777297     1.771479     1.765660     1.759842     1.754023     1.748205     1.742386     1.736568
      1.730749     1.724931     1.719113     1.713294     1.707476     1.701657     1.695839     1.690020     1.684202     1.678383
      1.672565     1.666746     1.660928     1.655109     1.649291     1.643472     1.637654     1.631835     1.626017     1.620198
      1.614380     1.608561     1.602743     1.596924     1.591106     1.585287     1.579469     1.573650     1.567832     1.562013
      1.556195     1.550376     1.544558     1.538739     1.532921     1.527102     1.521284     1.515465     1.509647     1.503829
      1.498010     1.492192     1.486373     1.480555     1.474736     1.468918     1.463099     1.457281     1.451462     1.445644
      1.439825     1.434007     1.428188     1.422370     1.416551     1.410733     1.404914     1.399096     1.393277     1.387459
      1.381640     1.375822     1.370003     1.364185     1.358366     1.352548     1.346729     1.340911     1.335092     1.329274
      1.323455     1.317637     1.311818     1.306000     1.300182     1.294363     1.288545     1.282726     1.276908     1.271089
      1.265271     1.259452     1.253634     1.247815     1.241997     1.236178     1.230360     1.224541     1.218723     1.212904
      1.207086     1.201267     1.195449     1.189630     1.183812     1.177993     1.172175     1.166356     1.160538     1.154719
      1.148901     1.143082     1.137264     1.131445     1.125627     1.119808     1.113990     1.108171     1.102353     1.096534
      1.090716     1.084898     1.079079     1.073261     1.067442     1.061624     1.055805     1.049987     1.044168     1.038350
      1.032531     1.026713     1.020894     1.015076     1.009257     1.003439     0.997620     0.991802     0.985983     0.980165
      0.974346     0.968528     0.962709     0.956891     0.951072     0.945254     0.939435     0.933617     0.927798     0.921980
      0.916161     0.910343     0.904524     0.898706     0.892887     0.887069     0.881251     0.875432     0.869614     0.863795
      0.857977     0.852158     0.846340     0.840521     0.834703     0.828884     0.823066     0.817247     0.811429     0.805610
      0.799792     0.793973     0.788155     0.782336     0.776518     0.770699     0.764881     0.759062     0.753244     0.747425
      0.741607     0.735788     0.729970     0.724151     0.718333     0.712514     0.706696     0.700877     0.695059     0.689240
      0.683422     0.677603     0.671785     0.665967     0.660148     0.654330     0.648511     0.642693     0.636874     0.631056
      0.625237     0.619419     0.613600     0.607782     0.601963     0.596145     0.590326     0.584508     0.578689     0.572871
      0.567052     0.561234     0.555415     0.549597     0.543778     0.537960     0.532141     0.526323     0.520504     0.514686
      0.508867     0.503049     0.497230     0.491412     0.485593     0.479775     0.473956     0.468138     0.462319     0.456501
      0.450682     0.444864     0.439045     0.433227     0.427408     0.421590     0.415771     0.409953     0.404134     0.398316
      0.392497     0.386679     0.380860     0.375042     0.369223     0.363405     0.357586     0.351767     0.345949     0.340130
      0.334312     0.328493     0.322675     0.316856     0.311038     0.305219     0.299401     0.293582     0.287764     0.281945
      0.276127     0.270308     0.264490     0.258671     0.252853     0.247034     0.241216     0.235397     0.229579     0.223760
      0.217942     0.212123     0.206305     0.200486
 NY phased data points follow
  -5.15441E-01 -3.80942E-01 -3.56107E-01 -4.54695E-02  5.10799E-01  3.32052E-01  1.79707E-01  2.91931E-01 -1.07955E-01  3.61264E-01
   4.18390E-01 -1.18366E-02  3.76255E-01  1.61594E-01  5.03030E-01  4.86168E-01  3.70318E-01  9.62010E-01  1.67542E-01  1.82322E-01
   1.28931E-01  1.00948E-01  3.72167E-01 -6.92749E-01  1.24752E-02  3.11645E-01  5.21923E-02  8.24660E-03 -3.60949E-01  1.93725E-01
   3.67064E-01  1.18920E-01 -1.41572E-01 -3.37368E-02 -3.38422E-01 -5.52613E-01 -1.15545E-01 -5.99005E-01 -1.01769E+00 -1.96589E-01
  -1.59701E-01 -4.72434E-01 -6.08942E-01 -2.97710E-01 -4.57780E-02 -1.44964E-02  1.50965E-01 -3.40651E-01  2.66337E-01 -1.54681E-03
  -1.63076E-01  1.98709E-01  1.20814E-02  1.47272E-02  2.91984E-01  3.64385E-01  7.62203E-02  2.30691E-01 -3.14544E-01 -8.07001E-02
   5.84756E-02 -1.55632E-01 -2.84473E-01  5.72354E-01  6.88261E-01 -3.48347E-02  4.37785E-01  1.51261E-01  2.18419E-01  6.13219E-02
   2.40778E-01 -1.37341E-01 -4.45884E-01  1.12331E-02 -7.93926E-02  5.04265E-02 -1.75196E-01 -3.20509E-01 -1.52939E-01  3.61219E-01
   4.84602E-02 -4.24098E-02  2.73183E-01 -7.58928E-02  1.30643E-01 -5.21363E-02 -1.33070E-01 -6.78601E-02  1.00291E-02  3.90919E-01
   4.29437E-03  5.57826E-02 -5.06990E-01 -4.33858E-01 -1.03041E-01 -6.57237E-01 -1.16758E-01 -9.06204E-02 -2.33616E-02 -2.82112E-01
  -3.20212E-01 -1.34630E-01  2.84457E-02  1.90989E-01 -3.68465E-01 -2.14768E-01 -2.13042E-01 -1.45827E-01  2.71964E-01  4.88318E-01
   3.35603E-01  1.30283E-02  3.67186E-01  5.83224E-01  1.89979E-01  4.40939E-01  4.58203E-01  4.40414E-01  1.03503E+00  6.74013E-01
   2.03498E-01  6.30788E-01  1.89790E-01  4.20843E-02  5.15601E-01  1.56161E-01  1.03188E-01  1.02274E-01  6.66041E-01  6.50005E-02
   8.53970E-02  3.43139E-02 -6.31360E-01 -2.69068E-01 -5.72445E-01  8.07567E-02 -4.37831E-01 -2.29151E-01 -5.13117E-01 -8.97539E-01
  -1.62797E-01 -2.33898E-01  1.16109E-01 -5.52466E-01 -1.47423E-01 -7.41309E-02 -4.45854E-02 -8.73561E-02 -3.92237E-01  7.44162E-02
  -2.78034E-01  1.15724E-01  4.35116E-02 -1.43707E-01  8.93845E-02 -2.11105E-01  4.05193E-03  3.67605E-01  3.61061E-02 -1.62647E-01
   3.65173E-01  4.64118E-01  5.66404E-01  6.46678E-01  9.22543E-02  2.68084E-02  2.43746E-01  1.31578E-02  5.17056E-02  8.58376E-02
   1.14405E-02  5.60428E-01  9.62350E-02  1.23694E-01  3.80112E-01  2.19069E-03  2.03944E-01 -1.44574E-01  2.77283E-01  1.82876E-01
   1.91260E-01  2.34731E-01 -1.47244E-01  1.03284E-01 -1.60956E-01 -2.20131E-01 -2.77637E-01 -2.81273E-01 -2.55903E-01  2.37589E-01
  -1.06763E-01 -1.71907E-01  6.79945E-02 -4.19177E-01 -4.67698E-04 -4.13203E-01 -6.68843E-01 -4.31810E-01 -1.48707E-01 -1.80052E-01
  -1.24972E-01  1.07904E-01 -4.41568E-03  3.58127E-01 -1.73071E-01  3.45803E-01  2.67836E-02 -6.62727E-01  1.36451E-01 -5.00906E-01
  -2.90825E-02 -2.24301E-02 -5.37626E-01 -6.27339E-03  2.17293E-01  2.59543E-02 -3.74572E-01 -5.36977E-01 -2.15807E-01  2.63988E-01
  -1.44908E-01 -1.44590E-02 -3.03204E-01  2.57344E-02  2.84296E-02 -1.31908E-01  2.03340E-01 -4.08267E-01  4.10573E-02 -1.09437E-01
   2.21131E-01  4.62902E-01  5.54251E-02 -1.88752E-02  2.77866E-01  1.45330E-01  2.86569E-01  4.68558E-01 -3.99736E-01  2.47554E-01
   6.98419E-02 -9.28560E-02  1.40360E-01  1.39187E-01  9.22232E-02 -6.60623E-02  1.02149E-01 -1.47076E-01 -5.16202E-02 -2.50944E-01
   2.08491E-01  3.75886E-02  4.78873E-03  3.45479E-01 -7.92297E-02  4.42124E-01 -6.30559E-02  4.68356E-02  1.70340E-01 -6.06576E-01
   1.19305E-01 -3.85477E-02 -3.54335E-01  2.54120E-01  2.54502E-01 -2.58392E-01 -1.50926E-01 -3.49723E-01 -2.60023E-02  3.91225E-01
  -1.19110E-01  1.08086E-01 -1.93853E-01  1.82054E-01 -9.36682E-02 -1.53087E-01  6.94238E-02 -2.34086E-01  1.00809E-01 -4.35426E-01
  -3.94354E-01 -2.67901E-01 -2.62160E-01 -4.37605E-01 -3.66271E-01 -4.18251E-01 -4.99796E-01 -7.56949E-01 -2.64047E-01  7.89382E-02
  -3.14096E-01  2.36494E-01 -2.09221E-01  3.49351E-01  2.61724E-01  6.60214E-02  4.63791E-01 -1.03648E-01 -1.35992E-01  6.29885E-02
   2.58417E-01  3.32447E-01  3.22980E-01  2.02678E-01  5.10601E-01  3.86201E-01  2.80284E-01  3.97862E-01  3.98325E-01  3.97015E-01
   6.53863E-01  3.07590E-01 -2.81184E-01  6.49666E-01  9.27670E-01  3.02873E-01  4.74137E-01  4.91216E-01  3.05949E-01  5.82332E-01
   2.77294E-01  1.35231E-02  3.45800E-01  2.74738E-01 -3.46969E-01  3.84281E-01  5.56257E-01  2.58771E-01  6.34939E-01 -4.58070E-02
   4.07139E-01  6.01018E-01 -1.26679E-02  1.01779E-01  1.56458E-01 -6.43518E-02  3.39134E-01  3.79323E-01 -2.07463E-01 -2.17121E-01
  -2.75448E-01 -1.69249E-01 -3.17691E-01 -5.01719E-01 -3.42812E-01 -8.00979E-01 -7.82509E-01 -5.16357E-01 -6.16136E-01 -3.19176E-01
  -6.87913E-01 -4.94417E-01 -4.50025E-01 -4.83295E-01 -6.06165E-01 -9.68320E-01 -6.50072E-01 -2.58070E-01  1.97608E-03 -5.63034E-01
  -1.54709E-01 -4.35398E-01 -4.01142E-01 -3.23812E-01 -3.93587E-01 -1.49770E-01 -2.34295E-01  4.21406E-01 -3.90070E-02 -2.73431E-02
  -1.67742E-01 -3.96450E-01 -4.23105E-01  4.10392E-02 -1.80591E-02 -2.99571E-01  4.13526E-02 -7.15197E-02  1.46472E-01 -1.23423E-01
   1.99241E-02 -1.68817E-01  3.35214E-01  7.27091E-01  2.94501E-01  2.25314E-01  6.75205E-02  1.44325E-01 -1.74308E-01  1.34015E-02
   2.99848E-01 -1.79421E-01  1.01797E-02  2.90524E-01  3.08706E-01  7.19627E-01  4.01108E-01  5.23698E-01  6.80265E-01  6.21700E-01
   4.71782E-01  3.87186E-01  5.45911E-01  2.95095E-01  6.34109E-01  5.28730E-01  2.95542E-01  3.85465E-01  5.22669E-01  1.18971E-01
  -1.09918E-01  1.46302E-01  1.85514E-01  5.07219E-01 -3.56858E-02 -3.95943E-01 -5.40420E-02 -8.61543E-02  1.87819E-01  6.75884E-02
  -4.33494E-01 -1.81070E-01  8.14420E-02 -3.36154E-01 -6.45154E-02  2.61094E-01 -4.94378E-01 -1.85664E-01 -4.50489E-02 -1.44969E-01
  -1.29457E-01 -2.37568E-01 -2.35064E-01 -5.65173E-01 -1.45989E-01 -5.34158E-02 -5.56438E-02 -8.41109E-02 -2.07479E-01 -5.50946E-01
  -3.74589E-01 -1.34079E-01 -1.82356E-01  9.21730E-02 -1.16844E-01 -3.81255E-01 -3.34882E-01  1.27207E-01  2.46519E-01  4.84242E-01
  -2.63367E-02  1.91040E-01  3.19890E-01  5.39450E-02  1.76979E-01  3.55192E-02  5.53719E-01 -7.27977E-02 -1.87163E-01  1.07741E-01
   3.26498E-01  2.47116E-02  7.82631E-02  2.66664E-01 -3.49953E-02  3.76545E-02  1.56669E-01  4.25984E-01 -3.02803E-01  2.38464E-01
  -6.15819E-02 -3.39958E-01 -1.48034E-01 -4.16722E-01  1.45248E-01 -4.12389E-01 -1.68132E-01 -2.20414E-01 -6.34125E-01 -4.19407E-01
  -7.98464E-02 -1.16967E-01 -2.92165E-01  2.63457E-01 -1.02304E-01 -1.33625E-01  3.34402E-01 -2.79525E-02 -2.40912E-01  8.10768E-02
  -3.88157E-02 -9.23615E-02  3.48296E-01  7.40481E-02 -9.08037E-02 -3.65090E-02  6.04710E-02  1.09175E-01 -3.00293E-02  1.13782E-01
   2.76298E-01  2.39778E-01 -1.71407E-01  1.89089E-01  1.63077E-01 -2.16857E-02 -7.68524E-03  1.59322E-02  4.62843E-01  3.62691E-01
   6.22147E-01  3.38033E-02 -4.55902E-02  2.58583E-01  1.68526E-01 -2.27654E-03  6.51566E-02  6.40521E-01 -5.30566E-02  3.32857E-01
   3.51692E-01  7.02535E-02  3.83482E-01 -9.33260E-02 -2.30962E-01 -4.88358E-02  2.00045E-01  2.40858E-01  9.54168E-02 -9.56064E-02
  -1.45312E-02 -1.15800E-01 -2.17766E-01 -4.44798E-01 -3.22944E-01 -4.43189E-01 -4.52372E-01  4.11517E-02  9.60764E-03  1.67846E-02
  -3.26087E-01 -2.07045E-01 -4.14938E-01 -3.78664E-01 -1.95909E-01 -1.42721E-01 -3.65377E-01 -1.22941E+00 -3.01440E-01  4.87738E-02
  -5.74358E-01 -1.27097E-01  2.16706E-03 -3.48823E-01 -1.68079E-01 -4.73462E-01 -3.29174E-01  3.28214E-01 -3.82571E-01 -1.64364E-01
   1.58871E-01 -1.23884E-01  3.70917E-01 -2.21519E-01 -3.36192E-01  1.73894E-01  1.93643E-01  5.94768E-02 -3.87254E-01  1.94532E-01
   1.55615E-01  9.76127E-02  2.20046E-01  1.30957E-02 -7.86889E-02 -1.62903E-01  1.22652E-01 -1.66036E-01 -3.81294E-01 -5.56259E-01
  -1.08861E-01  1.24541E-01 -8.68021E-02 -2.28610E-01 -4.78499E-02 -1.26872E-01 -3.60242E-01 -3.40091E-01 -3.84919E-01  2.68302E-02
  -2.28664E-01  1.45327E-01 -1.85470E-02  3.78943E-02 -2.12912E-01 -3.38084E-01 -1.36295E-02 -5.04472E-01  9.10670E-02 -2.45047E-01
  -1.34737E-01  3.89864E-02 -2.62900E-01 -2.78022E-01  1.32223E-01  3.18100E-01  2.00909E-01  2.28565E-02 -6.60441E-02  2.31494E-01
  -2.39867E-02  4.57455E-01 -3.28074E-01 -1.47909E-02  6.25864E-01 -1.70242E-01  1.60971E-01 -1.61422E-01  1.00391E-01  1.55951E-01
  -4.80270E-01  3.20281E-01 -7.43373E-02 -3.83512E-01  1.68545E-01 -3.93622E-01 -2.55330E-01 -1.16487E-01 -1.23426E-01 -1.85522E-01
   1.90793E-01 -1.31968E-01 -4.50354E-03  2.44252E-01 -3.15892E-01  2.49295E-01 -3.02425E-01 -6.18074E-02  1.48371E-01 -7.89045E-02
  -2.41693E-01  1.99527E-01  4.69071E-01 -9.43625E-02  1.82050E-01 -3.11853E-01  1.25638E-02 -1.48672E-01 -3.28851E-01  2.65360E-01
   3.03082E-01  3.48550E-01 -1.67732E-01 -2.09354E-01
 NY points of the fit to the data follow
   2.01004E-01  2.40992E-01  2.18258E-01  2.50602E-01  2.38645E-01  2.58691E-01  2.59628E-01  2.65498E-01  2.79835E-01  2.70626E-01
   2.95624E-01  2.72914E-01  3.06920E-01  2.73536E-01  3.14812E-01  2.75213E-01  3.21249E-01  2.80065E-01  3.22587E-01  2.78907E-01
   3.09891E-01  2.67677E-01  2.78116E-01  2.38656E-01  2.22291E-01  1.81843E-01  1.44161E-01  9.61711E-02  4.60301E-02 -9.71706E-03
  -6.27138E-02 -1.22922E-01 -1.68810E-01 -2.28005E-01 -2.56926E-01 -3.08979E-01 -3.12129E-01 -3.52272E-01 -3.23806E-01 -3.50993E-01
  -2.95525E-01 -3.05210E-01 -2.28569E-01 -2.24278E-01 -1.29004E-01 -1.20999E-01 -2.11575E-02 -9.79533E-03  7.28117E-02  8.60911E-02
   1.39109E-01  1.53372E-01  1.73127E-01  1.87743E-01  1.76934E-01  1.93711E-01  1.59211E-01  1.81859E-01  1.36545E-01  1.74329E-01
   1.20213E-01  1.66395E-01  1.13602E-01  1.53732E-01  1.03884E-01  1.27818E-01  8.45131E-02  8.79234E-02  5.60835E-02  3.71639E-02
   2.35358E-02 -1.49140E-02 -9.66620E-03 -5.86088E-02 -4.11885E-02 -8.60117E-02 -6.06783E-02 -8.34583E-02 -6.47043E-02 -5.13097E-02
  -5.58096E-02 -7.68359E-03 -3.92297E-02  3.65491E-02 -2.08108E-02  7.10394E-02 -5.06721E-03  8.65548E-02  1.31576E-03  7.58023E-02
  -6.83275E-03  4.04786E-02 -2.64144E-02 -1.39148E-02 -4.41399E-02 -7.22796E-02 -5.47703E-02 -1.19143E-01 -5.54207E-02 -1.50516E-01
  -4.68374E-02 -1.63805E-01 -2.43913E-02 -1.58609E-01  9.19214E-03 -1.30582E-01  5.52218E-02 -7.93364E-02  1.22945E-01  1.33933E-03
   2.08454E-01  9.70526E-02  3.01808E-01  1.96611E-01  3.84084E-01  2.84918E-01  4.40812E-01  3.48767E-01  4.60464E-01  3.78501E-01
   4.34917E-01  3.66675E-01  3.63526E-01  3.07824E-01  2.51869E-01  2.08363E-01  1.15925E-01  8.92897E-02 -2.43548E-02 -3.05930E-02
  -1.55908E-01 -1.41134E-01 -2.68691E-01 -2.33484E-01 -3.54531E-01 -3.01869E-01 -4.10014E-01 -3.44787E-01 -4.35761E-01 -3.64937E-01
  -4.37275E-01 -3.66032E-01 -4.20459E-01 -3.52975E-01 -3.92480E-01 -3.22559E-01 -3.41608E-01 -2.69040E-01 -2.67704E-01 -1.94345E-01
  -1.76617E-01 -1.06435E-01 -7.57717E-02 -1.83206E-02  1.96699E-02  6.20883E-02  9.98171E-02  1.31034E-01  1.65637E-01  1.86555E-01
   2.16149E-01  2.26047E-01  2.47773E-01  2.46580E-01  2.57782E-01  2.47898E-01  2.48731E-01  2.31650E-01  2.22374E-01  1.99898E-01
   1.81618E-01  1.56362E-01  1.31573E-01  1.06038E-01  7.80095E-02  5.37238E-02  2.54425E-02  3.08074E-03 -2.31483E-02 -4.41330E-02
  -6.78881E-02 -8.62752E-02 -1.06234E-01 -1.21131E-01 -1.36674E-01 -1.47778E-01 -1.58625E-01 -1.64263E-01 -1.69100E-01 -1.68655E-01
  -1.66547E-01 -1.61970E-01 -1.53338E-01 -1.50720E-01 -1.41041E-01 -1.38265E-01 -1.27256E-01 -1.23797E-01 -1.12440E-01 -1.08107E-01
  -9.74674E-02 -9.24465E-02 -8.35535E-02 -8.31316E-02 -7.70641E-02 -8.11266E-02 -7.61850E-02 -8.44649E-02 -8.60192E-02 -9.88975E-02
  -1.02662E-01 -1.17641E-01 -1.19466E-01 -1.33131E-01 -1.30049E-01 -1.38760E-01 -1.29663E-01 -1.31197E-01 -1.15907E-01 -1.08777E-01
  -8.76436E-02 -7.14411E-02 -4.72747E-02 -2.38396E-02  3.91183E-04  2.93504E-02  5.13735E-02  8.30671E-02  9.94293E-02  1.30644E-01
   1.40370E-01  1.69313E-01  1.72376E-01  1.98350E-01  1.95589E-01  2.09987E-01  2.06317E-01  2.07670E-01  1.99684E-01  1.90133E-01
   1.74701E-01  1.60851E-01  1.34398E-01  1.20033E-01  8.26299E-02  6.93615E-02  2.43837E-02  1.34883E-02 -3.39237E-02 -4.08787E-02
  -8.45146E-02 -8.47439E-02 -1.19028E-01 -1.14344E-01 -1.34606E-01 -1.24966E-01 -1.25854E-01 -1.10055E-01 -9.67589E-02 -7.45474E-02
  -4.50715E-02 -2.00842E-02  2.42503E-02  4.33886E-02  8.84583E-02  9.74365E-02  1.25195E-01  1.22880E-01  1.25426E-01  1.13450E-01
   9.01091E-02  6.97017E-02  2.51022E-02 -1.22965E-03 -5.94435E-02 -8.83908E-02 -1.49592E-01 -1.77975E-01 -2.32778E-01 -2.56911E-01
  -2.99159E-01 -3.14289E-01 -3.41750E-01 -3.42083E-01 -3.55324E-01 -3.43113E-01 -3.38366E-01 -3.17183E-01 -2.94797E-01 -2.68905E-01
  -2.31967E-01 -2.02623E-01 -1.59063E-01 -1.26874E-01 -8.27088E-02 -4.69794E-02 -3.56673E-03  3.49168E-02  7.95940E-02  1.18404E-01
   1.66348E-01  2.01935E-01  2.53188E-01  2.80683E-01  3.32008E-01  3.44799E-01  3.87751E-01  3.81628E-01  4.06948E-01  3.86352E-01
   3.92351E-01  3.66087E-01  3.59296E-01  3.31375E-01  3.16810E-01  2.87634E-01  2.67034E-01  2.34559E-01  2.11418E-01  1.76268E-01
   1.87165E-01  1.69372E-01  1.96060E-01  1.97641E-01  2.20868E-01  2.39482E-01  2.42986E-01  2.74835E-01  2.48059E-01  2.89353E-01
   2.24969E-01  2.70537E-01  1.64599E-01  2.06889E-01  6.86714E-02  1.03302E-01 -5.37687E-02 -2.91998E-02 -1.90080E-01 -1.76198E-01
  -3.19830E-01 -3.13150E-01 -4.31877E-01 -4.33199E-01 -5.20068E-01 -5.28553E-01 -5.78388E-01 -5.90262E-01 -6.04526E-01 -6.14823E-01
  -6.00865E-01 -6.06106E-01 -5.72865E-01 -5.71596E-01 -5.27463E-01 -5.22278E-01 -4.67136E-01 -4.60436E-01 -3.97735E-01 -3.92253E-01
  -3.25633E-01 -3.19407E-01 -2.52154E-01 -2.39999E-01 -1.79901E-01 -1.60366E-01 -1.19471E-01 -9.90646E-02 -8.98523E-02 -8.03553E-02
  -7.49949E-02 -6.95956E-02 -6.45667E-02 -6.16654E-02 -5.55988E-02 -5.42417E-02 -4.66678E-02 -4.61205E-02 -3.68604E-02 -3.63180E-02
  -2.56163E-02 -2.43167E-02 -1.23467E-02 -9.73795E-03  2.96544E-03  7.23329E-03  2.01752E-02  2.61377E-02  3.87987E-02  4.62384E-02
   5.79600E-02  6.65296E-02  7.67709E-02  8.59096E-02  9.41655E-02  1.03243E-01  1.09123E-01  1.17601E-01  1.20724E-01  1.28218E-01
   1.28482E-01  1.34406E-01  1.31975E-01  1.35935E-01  1.31001E-01  1.32632E-01  1.25453E-01  1.24423E-01  1.15316E-01  1.11632E-01
   1.01215E-01  9.50479E-02  8.37493E-02  7.53330E-02  6.34967E-02  5.34238E-02  4.14148E-02  3.03155E-02  1.84729E-02  6.64365E-03
  -4.72285E-03 -1.71301E-02 -2.78475E-02 -4.04595E-02 -5.05228E-02 -6.30467E-02 -7.23818E-02 -8.44767E-02 -9.28136E-02 -1.03856E-01
  -1.10795E-01 -1.20019E-01 -1.24949E-01 -1.31661E-01 -1.33951E-01 -1.37434E-01 -1.36074E-01 -1.35652E-01 -1.29952E-01 -1.25147E-01
  -1.14891E-01 -1.05570E-01 -9.09302E-02 -7.73015E-02 -5.92072E-02 -4.18089E-02 -2.14958E-02 -1.25587E-03  1.97041E-02  4.15769E-02
   6.17078E-02  8.38064E-02  1.01826E-01  1.22623E-01  1.37332E-01  1.55476E-01  1.65977E-01  1.80173E-01  1.85806E-01  1.95129E-01
   1.95732E-01  1.99630E-01  1.95523E-01  1.93899E-01  1.85671E-01  1.79092E-01  1.67758E-01  1.57169E-01  1.43726E-01  1.30407E-01
   1.16102E-01  1.01462E-01  8.77301E-02  7.30768E-02  6.11799E-02  4.77547E-02  3.85325E-02  2.72762E-02  2.12663E-02  1.29866E-02
   1.02865E-02  5.40640E-03  5.74036E-03  4.23190E-03  7.02922E-03  8.66608E-03  1.32015E-02  1.74020E-02  2.29083E-02  2.89441E-02
   3.47373E-02  4.17553E-02  4.75206E-02  5.48639E-02  6.02845E-02  6.74718E-02  7.22820E-02  7.90123E-02  8.32790E-02  8.95448E-02
   9.37869E-02  9.97053E-02  1.04597E-01  1.10352E-01  1.16342E-01  1.22138E-01  1.29274E-01  1.35237E-01  1.43345E-01  1.49202E-01
   1.57295E-01  1.62436E-01  1.69345E-01  1.72790E-01  1.77060E-01  1.77763E-01  1.78099E-01  1.75138E-01  1.70461E-01  1.63393E-01
   1.52996E-01  1.41687E-01  1.25575E-01  1.10028E-01  8.88223E-02  6.95028E-02  4.42928E-02  2.20119E-02 -5.81128E-03 -2.98013E-02
  -5.89233E-02 -8.33420E-02 -1.12223E-01 -1.35742E-01 -1.62896E-01 -1.84318E-01 -2.08582E-01 -2.26680E-01 -2.47057E-01 -2.61134E-01
  -2.76764E-01 -2.86591E-01 -2.96815E-01 -3.02247E-01 -3.06886E-01 -3.08068E-01 -3.07471E-01 -3.04665E-01 -2.99513E-01 -2.93362E-01
  -2.84440E-01 -2.75845E-01 -2.64223E-01 -2.54015E-01 -2.40678E-01 -2.29657E-01 -2.15660E-01 -2.04231E-01 -1.90270E-01 -1.78956E-01
  -1.65505E-01 -1.54585E-01 -1.41965E-01 -1.31594E-01 -1.20076E-01 -1.10498E-01 -1.00354E-01 -9.18693E-02 -8.29779E-02 -7.53903E-02
  -6.78248E-02 -6.10913E-02 -5.47638E-02 -4.87938E-02 -4.35464E-02 -3.85013E-02 -3.39493E-02 -2.98290E-02 -2.57473E-02 -2.25181E-02
  -1.89794E-02 -1.65820E-02 -1.35987E-02 -1.18548E-02 -9.46307E-03 -8.39586E-03 -6.68954E-03 -6.00483E-03 -5.22135E-03 -4.69280E-03
  -4.85041E-03 -4.22922E-03 -5.30530E-03 -4.43508E-03 -6.33146E-03 -5.29233E-03 -7.76317E-03 -6.49970E-03 -9.25723E-03 -7.76418E-03
  -1.05521E-02 -9.13049E-03 -1.17182E-02 -1.07963E-02 -1.26778E-02 -1.24246E-02 -1.33880E-02 -1.38178E-02 -1.39658E-02 -1.49789E-02
  -1.42192E-02 -1.56977E-02 -1.40461E-02 -1.57790E-02 -1.34181E-02 -1.51232E-02 -1.22705E-02 -1.40958E-02 -1.08910E-02 -1.25103E-02
  -9.24513E-03 -1.06122E-02 -7.50878E-03 -8.60846E-03 -5.76886E-03 -6.77319E-03 -4.35513E-03 -5.41523E-03 -3.51340E-03 -4.72999E-03
  -3.34596E-03 -4.72875E-03 -3.70315E-03 -5.38114E-03 -4.61837E-03 -6.54435E-03 -5.99577E-03 -8.04892E-03 -7.71367E-03 -9.75137E-03
  -9.64348E-03 -1.14136E-02 -1.17114E-02 -1.30852E-02 -1.39559E-02 -1.49688E-02 -1.63349E-02 -1.71585E-02 -1.89108E-02 -1.96678E-02
  -2.19392E-02 -2.26981E-02 -2.55536E-02 -2.67743E-02
 NY background values follow
     7.423E-02    7.407E-02    7.390E-02    7.374E-02    7.358E-02    7.341E-02    7.325E-02    7.309E-02    7.293E-02    7.276E-02
     7.260E-02    7.244E-02    7.228E-02    7.211E-02    7.195E-02    7.179E-02    7.162E-02    7.146E-02    7.130E-02    7.114E-02
     7.097E-02    7.081E-02    7.065E-02    7.048E-02    7.032E-02    7.016E-02    7.000E-02    6.983E-02    6.967E-02    6.951E-02
     6.934E-02    6.918E-02    6.902E-02    6.886E-02    6.869E-02    6.853E-02    6.837E-02    6.820E-02    6.804E-02    6.788E-02
     6.772E-02    6.755E-02    6.739E-02    6.723E-02    6.706E-02    6.690E-02    6.674E-02    6.658E-02    6.641E-02    6.625E-02
     6.609E-02    6.592E-02    6.576E-02    6.560E-02    6.544E-02    6.527E-02    6.511E-02    6.495E-02    6.478E-02    6.462E-02
     6.446E-02    6.429E-02    6.413E-02    6.397E-02    6.381E-02    6.364E-02    6.348E-02    6.332E-02    6.315E-02    6.299E-02
