 
 $NMID
 ID=''
 FMTDAT='(2E13.5)'
 TRAMP=   1.00000E+0
 VOLUME=   1.00000E+0
 $END
   4.91460E+2   9.92129E+2
  -2.07534E+3   6.09386E+2
   4.95011E+3  -2.45768E+2
  -7.58627E+1  -3.85298E+2
  -2.43619E+2  -3.71779E+2
   3.43937E+3   1.40621E+3
  -8.28336E+2   3.86294E+2
  -9.87188E+2  -2.06510E+3
   2.48840E+3  -4.88717E+2
   9.05582E+1  -3.20890E+3
   1.94851E+3  -1.81943E+3
   2.26234E+3   4.17832E+3
  -4.00539E+3   3.42201E+3
  -4.08705E+3  -9.10750E+2
   6.72357E+1   6.63215E+1
   2.50106E+3   3.09468E+3
   3.27402E+3   2.72985E+3
   2.24541E+3   6.02419E+3
   1.37321E+3   2.38622E+3
   4.13878E+3  -6.79616E+2
   3.66911E+3   1.93773E+3
  -5.64237E+2   2.53985E+3
   1.15949E+3  -2.83963E+3
   4.04323E+3  -1.37982E+3
   1.85240E+3   3.63559E+3
  -3.55523E+3  -2.71160E+2
  -2.37867E+3  -1.43392E+3
   3.53367E+3  -1.89327E+3
   4.71208E+3  -1.64438E+3
   2.26136E+2   5.38980E+3
  -7.37335E+3   4.77405E+3
  -5.06588E+3  -4.93627E+3
   4.27613E+3  -6.48924E+3
   2.15642E+3  -3.90496E+0
  -6.06300E+3  -2.45335E+3
   3.10860E+3  -4.59585E+3
   3.31142E+2   4.51500E+3
  -8.05143E+3   2.90572E+3
  -5.47290E+3  -1.92125E+3
  -3.87382E+3  -1.52757E+3
  -3.45075E+3  -3.29434E+3
   3.61530E+3  -6.57606E+3
   8.41071E+3   5.86487E+2
   2.69044E+3   6.71312E+3
  -3.75442E+3   1.08944E+3
   2.21208E+3  -1.76268E+3
   1.07137E+3   2.30514E+3
   6.24720E+1  -2.22613E+3
   1.09670E+2  -3.19637E+3
   2.37353E+3   1.12363E+3
   3.66000E+3   1.41386E+3
   1.32023E+2   3.79012E+3
  -3.62729E+3   1.25476E+3
  -7.75546E+2  -3.91525E+3
   1.95688E+2  -3.81482E+3
   3.04924E+3  -2.45592E+3
   3.13502E+3  -3.45515E+3
   5.50485E+3   1.31515E+3
   1.80373E+3   6.01072E+3
  -3.33928E+3   4.78887E+3
  -2.95475E+3   4.72035E+3
  -3.08432E+3  -6.60492E+2
  -1.27664E+3  -1.53720E+3
   3.23280E+3   2.05144E+3
  -2.73767E+3   3.14637E+3
  -3.88500E+3  -9.18743E+2
   2.07655E+3  -2.89257E+3
   3.78730E+3   5.48503E+2
  -3.11508E+2   4.39518E+2
   5.23146E+2  -1.80940E+3
   1.96291E+3  -1.16593E+0
   5.46940E+2  -2.16948E+1
  -1.82207E+3   1.23571E+3
  -3.70239E+3   2.46509E+2
  -3.17099E+3  -1.28823E+3
  -2.85593E+3  -1.68697E+3
   1.71171E+2   2.78664E+2
  -1.32556E+3  -2.09814E+2
  -1.14425E+3  -1.00192E+3
   4.02376E+3  -4.49499E+2
   2.24531E+3   8.77555E+2
   2.87032E+3  -3.32489E+2
   1.68464E+3  -1.84479E+3
   3.77759E+3  -2.08449E+3
   4.17212E+3   1.69905E+3
  -5.91724E+2   2.16447E+3
   9.65391E+1  -4.12895E+2
  -1.68519E+3  -2.60985E+3
   2.32589E+2  -3.12093E+3
   1.29612E+3   1.73253E+3
  -6.17714E+2   1.62444E+3
  -1.66475E+2  -1.20664E+3
   3.79074E+3   8.04794E+1
   1.46730E+3   3.52867E+3
  -3.55967E+3   2.62972E+3
  -4.79962E+3  -2.88358E+3
   1.91436E+2  -1.70394E+3
   2.29919E+3   5.32591E+2
   1.58396E+3   1.19632E+3
  -1.97470E+3   5.93861E+2
  -5.56138E+2  -3.12699E+3
   1.45119E+3  -3.60316E+3
   2.48055E+3  -2.16935E+2
   7.74713E+2   1.17173E+3
   1.88404E+3   1.37992E+3
   1.71861E+3  -4.12143E+2
   1.08051E+3  -9.18182E+1
  -2.56839E+2   3.39387E+3
  -4.21864E+3  -6.22211E+2
  -6.96397E+2  -4.22735E+3
   1.83799E+3  -1.98587E+3
   4.39190E+2   8.07218E+2
   7.55017E+2   6.38790E+2
   5.94192E+2   2.34284E+3
   1.09209E+3   1.66780E+3
  -1.98642E+3   3.67637E+2
  -9.17690E+2  -1.15078E+3
   5.01340E+2  -1.18919E+3
  -7.30149E+2  -1.98687E+3
   2.53362E+1   7.35668E+2
  -1.51900E+3  -7.56990E+2
  -1.01797E+3  -1.06100E+3
  -5.51616E+2  -2.01163E+3
  -2.50567E+3  -2.17013E+3
  -8.73152E+2  -1.14245E+3
  -5.18958E+2   5.07387E+2
  -2.53632E+3  -1.15009E+2
  -7.25841E+2  -7.49434E+2
  -5.90969E+2   4.61793E+2
  -1.47992E+3   2.98980E+2
   5.03256E+2   1.30396E+3
  -6.80703E+2  -7.78919E+2
   2.96449E+2   2.42116E+3
   5.16841E+2   1.80906E+3
  -1.88886E+3  -3.19529E+2
  -3.03889E+2  -3.28188E+3
   1.43100E+3  -1.24553E+3
  -3.76067E+2  -1.74396E+3
   4.19679E+2  -4.77898E+2
   4.03594E+2  -2.71230E+1
  -4.30168E+2   3.11971E+2
  -4.19794E+0   5.50180E+1
  -6.95260E+2  -3.65351E+1
  -9.42381E+2   1.76756E+3
   6.37917E+2  -1.89184E-1
  -9.41230E+2   4.20247E+2
  -1.19978E+2   1.11633E+3
   8.30992E+2   1.32739E+3
   4.27644E+2   1.35025E+3
  -1.60681E+3  -3.22204E+2
  -1.34795E+3  -9.04484E+2
   1.06524E+3  -8.24874E+2
  -3.82940E+1   1.32365E+2
  -6.63227E+2   7.84673E+2
  -7.23856E+2   1.31250E+3
   1.90881E+2   3.16660E+2
  -7.21981E+2  -1.42784E+3
  -1.54319E+3   8.57963E+2
   1.04900E+3  -8.58680E+2
  -1.73485E+2   1.12914E+2
   4.17855E+1   8.39644E+2
  -2.34569E+2  -8.00772E+2
  -4.21476E+2   2.52917E+3
   1.98619E+2  -6.03665E+2
   4.50303E+1   5.06143E+2
  -2.12832E+3   1.01807E+3
  -7.43651E+1   3.54778E+2
   8.64305E+1   3.40885E+2
  -4.75651E+1   6.99714E+2
   2.34159E+2  -2.58216E+3
  -1.00552E+3   7.33690E+2
  -2.35410E+3   3.77508E+2
  -1.51606E+3   8.95552E+2
   5.81689E+2  -1.11875E+3
   1.99701E+3  -3.46476E+2
   3.05997E+2  -1.29733E+3
   3.02408E+2   5.46248E+2
   1.85040E+2   2.33892E+3
   4.64888E+2  -8.07745E+2
   1.42009E+1  -1.79511E+2
  -8.89169E+1  -1.80038E+3
   2.10266E+3   5.83122E+2
   4.15383E+2   5.73207E+2
   3.86419E+2   1.60865E+3
   5.90536E+2  -1.87404E+2
   1.49638E+3  -5.36955E+2
  -3.29075E+2   4.21264E+2
  -2.90233E+2  -1.37532E+3
   8.95764E+2  -1.60265E+3
  -7.74967E+2   1.48202E+3
   2.65235E+2   1.17123E+2
  -2.02282E+3   4.84066E+2
  -5.88636E+2  -3.84631E+2
  -2.52512E+3  -1.02882E+3
   1.13448E+3  -8.18590E+2
   2.75795E+2  -1.45111E+2
  -5.40335E+2  -2.00408E+2
   5.58281E+2  -8.60109E+2
  -1.31962E+3  -1.36517E+2
  -1.29613E+3  -4.52491E+2
  -1.97074E+2   1.84691E+2
  -2.24204E+3  -2.83957E+3
   1.71797E+3  -9.49181E+2
  -1.31644E+3  -3.77486E+2
   8.94613E+2  -2.20374E+2
   1.23088E+3  -1.99428E+3
   3.08367E+3  -2.13809E+3
   1.63323E+2  -6.05287E+2
  -2.48770E+2   1.13029E+3
  -1.77846E+3  -9.43752E+1
   1.65156E+3   1.10613E+3
   1.63665E+3  -7.92338E+2
   2.93118E+1   2.78949E+3
   1.35684E+3   1.07534E+3
   1.00425E+3   1.06547E+3
   1.59710E+3  -6.02682E+2
   1.69407E+2  -1.48879E+3
  -2.26216E+3   3.31256E+3
  -1.51930E+2  -7.40426E+2
   3.99666E+2  -3.36188E+2
   1.16370E+3  -1.67749E+3
   1.43522E+3  -4.43946E+2
  -1.51126E+2   8.58153E+1
  -1.62263E+3  -8.23370E+2
  -2.81128E+2  -1.04543E+3
  -3.48338E+2   1.78552E+3
   4.19778E+2  -4.09755E+1
   4.14127E+2  -7.64443E+2
   4.89887E+1  -7.82685E+2
  -8.86607E+2   2.19466E+3
   1.41044E+3   7.45342E+2
   1.47452E+3   1.78014E+2
  -8.67392E+1   7.10639E+2
   4.55058E+2   4.09216E+2
  -5.81780E+2   1.14609E+3
  -3.02842E+3   5.73992E+2
  -7.08309E+2  -6.80595E+2
   8.01442E+2  -1.82488E+3
   6.46670E+2   8.99730E+2
  -7.70682E+1   1.34034E+3
   1.47520E+3   8.78228E+2
   7.17707E+2  -1.75655E+3
   4.17301E+2  -2.46198E+2
  -1.83367E+3  -3.07451E+2
   1.32643E+3   1.10490E+3
  -1.89890E+3   7.11749E+2
   7.15176E+2   6.93129E+2
   7.62045E+2   6.11782E+2
  -8.88742E+2   2.09336E+3
  -1.57857E+3   8.54056E+2
   3.97819E+2  -2.49263E+3
   1.26146E+3   1.82231E+2
   4.68763E+2  -3.50889E+1
  -2.08050E+2  -2.31309E+2
  -9.05057E+2   5.10522E+2
  -3.17684E+2   6.11241E+2
  -1.04484E+3  -6.41618E+1
  -2.11915E+2   1.77134E+2
  -2.11656E+3   6.13935E+2
   1.24084E+3   1.86432E+3
  -9.40872E+2   1.38665E+3
   1.01042E+3   1.98497E+3
  -1.20969E+3   1.46742E+3
  -9.31214E+2   3.60666E+2
   4.80666E+2  -8.26236E+2
   5.67246E+2   1.10772E+2
  -1.18070E+3   1.19372E+3
  -9.33943E+2  -7.77524E+2
  -1.15975E+3   6.28411E+2
   2.02254E+3   1.36692E+3
  -2.37378E+2   2.85234E+2
  -1.27509E+3  -5.19580E+2
  -3.19973E+1   2.21117E+2
  -6.71837E+2  -8.59487E+2
  -4.68970E+2  -7.78548E+2
  -1.00601E+3   3.67248E+2
  -2.37382E+3  -1.69512E+3
   5.76962E+2   1.15787E+3
  -8.01601E+2  -1.81606E+3
   1.33958E+3  -6.74756E+2
  -1.67174E+3   5.06090E+2
  -9.19705E+2   6.01775E+2
   1.97566E+2  -8.20951E+2
  -7.13334E+2  -1.42174E+3
   1.01912E+3   5.07517E+2
  -5.12971E+2   5.28067E+2
  -9.16105E+2  -2.10405E+3
  -5.21112E+2   1.09114E+3
  -6.62092E+1   3.62815E+2
  -1.63161E+3   1.62514E+3
  -2.17662E+3  -2.14058E+1
   1.78892E+2   5.37367E+2
   2.27562E+3   7.26255E+1
   6.02889E+2  -2.15524E+0
  -5.20174E+2   5.34588E+2
  -2.17152E+2   7.35469E+2
   1.17737E+3  -5.48771E+1
  -6.56889E+2  -7.54789E+1
  -1.80794E+2  -3.45346E+2
   1.21866E+2  -3.25299E+2
  -1.58126E+3   2.63132E+2
  -2.77449E+2   7.79138E+2
   6.86546E+2  -1.79641E+3
   1.53872E+3  -1.65199E+2
  -7.22117E+2  -3.83356E+2
   1.14851E+1  -8.98606E+2
  -1.91523E+3  -5.89927E+2
  -5.92156E+2  -1.93095E+3
   6.37629E+2  -1.68724E+3
  -9.80700E+2   1.06174E+3
  -1.28371E+3  -1.10173E+3
  -2.04645E+3  -1.29296E+3
  -5.71279E+2   4.78768E+2
  -1.39159E+3   9.68703E+2
   3.51534E+2   2.91977E+2
  -7.81071E+2   3.87776E+1
   7.00618E+2   1.97154E+2
  -6.76405E+2   2.44987E+3
   8.74181E+2  -5.14721E+1
  -4.98343E+2  -5.32535E+2
   4.17931E+2  -2.91934E+3
  -2.14923E+3  -3.86837E+2
  -9.96765E+2  -1.21556E+3
   1.08912E+3   4.89793E+2
  -1.81089E+3  -3.01730E+2
  -3.92101E+2  -5.33584E+2
  -9.22502E+2   1.01293E+3
  -3.00061E+2  -3.93844E+2
  -2.33001E+2  -1.24554E+2
   8.41811E+2   2.09072E+1
  -1.31614E+2   3.17071E+2
   6.54814E+2  -1.31810E+3
   1.19606E+3  -5.06482E+2
  -8.57634E+2   1.26710E+3
  -1.33006E+1  -1.10894E+3
  -1.24328E+3  -1.88917E+2
  -5.50981E+2  -1.17279E+3
  -1.41184E+2  -4.38437E+2
  -8.30478E+1   1.25052E+3
   1.41692E+3   2.56937E+2
   3.46252E+2  -2.89507E+2
   2.15856E+2   1.49332E+3
   1.28465E+3  -7.79042E+2
  -7.36447E+2  -1.17543E+3
  -3.32775E+2  -1.03549E+3
  -1.11368E+3  -2.21803E+3
   4.00935E+2  -5.94740E+2
  -1.41928E+3   8.23936E+1
   1.61952E+3  -3.66334E+2
   7.37847E+2   4.01446E+2
  -5.46651E+2   9.78735E+2
   5.61544E+2  -2.36504E+2
   2.77319E+2   9.26623E+1
   1.53357E+3  -6.55124E+2
   3.68217E+2  -2.17558E+3
  -1.40249E+3   3.01915E+2
   1.05261E+3   7.53517E+0
  -5.29590E+2  -1.17978E+3
   1.08791E+3  -9.63965E+2
   1.70762E+3   1.07078E+3
  -2.54048E+2   5.61713E+2
   1.12263E+3  -5.00452E+2
   1.45349E+3  -1.84931E+2
   1.21621E+3  -2.83642E+2
  -6.58698E+2  -1.56516E+2
  -1.03605E+3  -2.32075E+3
  -1.40993E+2  -7.57468E+1
