 
 $NMID
 ID=''
 FMTDAT='(2E13.5)'
 TRAMP=   1.00000E+0
 VOLUME=   1.00000E+0
 $END
  -6.59679E+3   1.87095E+4
  -2.93329E+4   4.15991E+4
  -2.07293E+4   4.62981E+4
  -1.82213E+4   4.28609E+4
  -1.94020E+4   4.40582E+4
  -1.67334E+4   4.52308E+4
  -1.56096E+4   4.34442E+4
  -1.60955E+4   4.36464E+4
  -1.40699E+4   4.43595E+4
  -1.32976E+4   4.31126E+4
  -1.33486E+4   4.30638E+4
  -1.16554E+4   4.33532E+4
  -1.07189E+4   4.24917E+4
  -1.06386E+4   4.22966E+4
  -9.33248E+3   4.22311E+4
  -8.36394E+3   4.12708E+4
  -8.09441E+3   4.10148E+4
  -6.86930E+3   4.08127E+4
  -5.86515E+3   4.00275E+4
  -5.49852E+3   3.95717E+4
  -4.36460E+3   3.91912E+4
  -3.29690E+3   3.84424E+4
  -2.94620E+3   3.80897E+4
  -2.06538E+3   3.76912E+4
  -1.15931E+3   3.69033E+4
  -6.53079E+2   3.63358E+4
   6.83901E+1   3.59532E+4
   5.93867E+2   3.51418E+4
   9.03767E+2   3.45705E+4
   1.54915E+3   3.40228E+4
   2.30061E+3   3.32249E+4
   2.66663E+3   3.26461E+4
   3.07320E+3   3.20775E+4
   3.62290E+3   3.11285E+4
   4.07244E+3   3.05047E+4
   4.67970E+3   2.97789E+4
   5.12901E+3   2.89317E+4
   5.52653E+3   2.82557E+4
   6.02712E+3   2.75130E+4
   6.44557E+3   2.67464E+4
   6.85400E+3   2.60952E+4
   7.14043E+3   2.54897E+4
   7.39900E+3   2.47007E+4
   7.77247E+3   2.39026E+4
   8.09834E+3   2.32489E+4
   8.45895E+3   2.25778E+4
   8.59983E+3   2.19992E+4
   8.91021E+3   2.13339E+4
   9.18875E+3   2.07552E+4
   9.36134E+3   2.01016E+4
   9.47977E+3   1.95495E+4
   9.65843E+3   1.88786E+4
   9.85726E+3   1.83012E+4
   9.95214E+3   1.77272E+4
   1.00321E+4   1.72958E+4
   1.00746E+4   1.67980E+4
   1.01348E+4   1.62783E+4
   1.00831E+4   1.58802E+4
   1.00259E+4   1.53031E+4
   9.94787E+3   1.48040E+4
   9.95607E+3   1.43240E+4
   9.85034E+3   1.38237E+4
   9.73213E+3   1.34821E+4
   9.54788E+3   1.31353E+4
   9.34347E+3   1.26538E+4
   9.25695E+3   1.22201E+4
   9.02611E+3   1.18187E+4
   8.79993E+3   1.15039E+4
   8.47408E+3   1.11170E+4
   8.33020E+3   1.08166E+4
   7.96294E+3   1.03535E+4
   7.70831E+3   9.98862E+3
   7.30570E+3   9.69007E+3
   7.00535E+3   9.29185E+3
   6.72486E+3   8.96123E+3
   6.42664E+3   8.64274E+3
   6.09255E+3   8.31948E+3
   5.72984E+3   7.97781E+3
   5.43622E+3   7.53441E+3
   5.18342E+3   7.23516E+3
   4.77488E+3   6.95022E+3
   4.40040E+3   6.68241E+3
   4.08289E+3   6.33510E+3
   3.82162E+3   6.09183E+3
   3.44387E+3   5.83044E+3
   3.10320E+3   5.58616E+3
   2.74826E+3   5.25925E+3
   2.53474E+3   5.10421E+3
   2.19571E+3   4.89454E+3
   1.88207E+3   4.61622E+3
   1.54474E+3   4.40997E+3
   1.29040E+3   4.15379E+3
   9.88501E+2   4.00449E+3
   7.62207E+2   3.84324E+3
   4.69905E+2   3.64166E+3
   1.69666E+2   3.41797E+3
  -7.89768E+1   3.28263E+3
  -3.30908E+2   3.11418E+3
  -4.73037E+2   3.04553E+3
  -7.15291E+2   2.87748E+3
  -9.60034E+2   2.72325E+3
  -1.14424E+3   2.56424E+3
  -1.33028E+3   2.49781E+3
  -1.49345E+3   2.41534E+3
  -1.73623E+3   2.34360E+3
  -1.89169E+3   2.25029E+3
  -1.99428E+3   2.19157E+3
  -2.16572E+3   2.18376E+3
  -2.29567E+3   2.11451E+3
  -2.42808E+3   1.98187E+3
  -2.49249E+3   1.97048E+3
  -2.62936E+3   1.97700E+3
  -2.78742E+3   1.92203E+3
  -2.77808E+3   1.89412E+3
  -2.90952E+3   1.96780E+3
  -3.06068E+3   1.88730E+3
  -3.14353E+3   1.86435E+3
  -3.19741E+3   1.89263E+3
  -3.19938E+3   1.85047E+3
  -3.30207E+3   1.90171E+3
  -3.28578E+3   1.86000E+3
  -3.40766E+3   1.97082E+3
  -3.43551E+3   1.96997E+3
  -3.42575E+3   1.95666E+3
  -3.44544E+3   1.98556E+3
  -3.43831E+3   2.02724E+3
  -3.43543E+3   1.98965E+3
  -3.45055E+3   2.10855E+3
  -3.42235E+3   2.18623E+3
  -3.35809E+3   2.16749E+3
  -3.44542E+3   2.21523E+3
  -3.42626E+3   2.23033E+3
  -3.36793E+3   2.35003E+3
  -3.30947E+3   2.36799E+3
  -3.25030E+3   2.44063E+3
  -3.25356E+3   2.53604E+3
  -3.19811E+3   2.51515E+3
  -3.15138E+3   2.58058E+3
  -3.09240E+3   2.62315E+3
  -3.02023E+3   2.68010E+3
  -3.01855E+3   2.72890E+3
  -2.91470E+3   2.76429E+3
  -2.82806E+3   2.79304E+3
  -2.80170E+3   2.80844E+3
  -2.67896E+3   2.91501E+3
  -2.63788E+3   2.89731E+3
  -2.58312E+3   3.02708E+3
  -2.52069E+3   2.99697E+3
  -2.45657E+3   3.01336E+3
  -2.36646E+3   3.02529E+3
  -2.37151E+3   3.11205E+3
  -2.24126E+3   3.10821E+3
  -2.18221E+3   3.15969E+3
  -2.15498E+3   3.15629E+3
  -1.98777E+3   3.15764E+3
  -1.94617E+3   3.21671E+3
  -1.92851E+3   3.26392E+3
  -1.83960E+3   3.17868E+3
  -1.72617E+3   3.27337E+3
  -1.68351E+3   3.23666E+3
  -1.65953E+3   3.28145E+3
  -1.60950E+3   3.26456E+3
  -1.56235E+3   3.22756E+3
  -1.51113E+3   3.21860E+3
  -1.47381E+3   3.22268E+3
  -1.35617E+3   3.24310E+3
  -1.35235E+3   3.19734E+3
  -1.18640E+3   3.16973E+3
  -1.23415E+3   3.15802E+3
  -1.12080E+3   3.18876E+3
  -1.08973E+3   3.07978E+3
  -1.05514E+3   3.09169E+3
  -1.01311E+3   3.02948E+3
  -9.99147E+2   2.98293E+3
  -9.28058E+2   2.96697E+3
  -9.07226E+2   2.96242E+3
  -8.43542E+2   2.91076E+3
  -8.32236E+2   2.87017E+3
  -7.93723E+2   2.89196E+3
  -7.66336E+2   2.82151E+3
  -7.21110E+2   2.78731E+3
  -7.21502E+2   2.72077E+3
  -7.28971E+2   2.73216E+3
  -6.34908E+2   2.67270E+3
  -6.37981E+2   2.61034E+3
  -5.86834E+2   2.63332E+3
  -5.80764E+2   2.58051E+3
  -5.28091E+2   2.48595E+3
  -5.74822E+2   2.45407E+3
  -5.70616E+2   2.36485E+3
  -5.91307E+2   2.34521E+3
  -4.93145E+2   2.32218E+3
  -5.26091E+2   2.36230E+3
  -5.35117E+2   2.20482E+3
  -5.08080E+2   2.12571E+3
  -4.67691E+2   2.17441E+3
  -4.76541E+2   2.10145E+3
  -5.03396E+2   2.02276E+3
  -5.22201E+2   1.98778E+3
  -4.80798E+2   1.95681E+3
  -4.60176E+2   1.86503E+3
  -5.53063E+2   1.86091E+3
  -5.32209E+2   1.80517E+3
  -5.46039E+2   1.68675E+3
  -5.02420E+2   1.70108E+3
  -4.66781E+2   1.67215E+3
  -5.19608E+2   1.56341E+3
  -5.43548E+2   1.55110E+3
  -4.38640E+2   1.49368E+3
  -5.29425E+2   1.48680E+3
  -4.70993E+2   1.44787E+3
  -5.33088E+2   1.33919E+3
  -4.21658E+2   1.33175E+3
  -4.45009E+2   1.31009E+3
  -5.41158E+2   1.26881E+3
  -5.47852E+2   1.29525E+3
  -5.85514E+2   1.24504E+3
  -5.11026E+2   1.12867E+3
  -5.06280E+2   1.18223E+3
  -5.38656E+2   1.14495E+3
  -5.56734E+2   1.03678E+3
  -5.70950E+2   1.02975E+3
  -5.53116E+2   9.92753E+2
  -5.95453E+2   9.55713E+2
  -6.18451E+2   9.26961E+2
  -5.63574E+2   9.24941E+2
  -5.85719E+2   9.34560E+2
  -6.15223E+2   8.35850E+2
  -5.50681E+2   8.00960E+2
  -6.32513E+2   8.50465E+2
  -5.89142E+2   7.93529E+2
  -6.01654E+2   6.89701E+2
  -6.43321E+2   7.19814E+2
  -5.78575E+2   7.15412E+2
  -6.47029E+2   6.94334E+2
  -6.15015E+2   6.75343E+2
  -6.21068E+2   6.69592E+2
  -6.01288E+2   6.25570E+2
  -5.97690E+2   6.13652E+2
  -6.47070E+2   5.91309E+2
  -6.31934E+2   6.03020E+2
  -5.71663E+2   5.97119E+2
  -6.47650E+2   6.15333E+2
  -6.10439E+2   5.46753E+2
  -6.03276E+2   5.26432E+2
  -6.53712E+2   5.20359E+2
  -6.73243E+2   5.09872E+2
  -6.51786E+2   4.56822E+2
  -6.22992E+2   4.99797E+2
  -6.29263E+2   5.03533E+2
  -6.40090E+2   4.87828E+2
  -6.41265E+2   4.57059E+2
  -6.46464E+2   4.27108E+2
  -5.68576E+2   3.81650E+2
  -5.66397E+2   3.93107E+2
  -5.82951E+2   3.31830E+2
  -6.13994E+2   3.77062E+2
  -6.39650E+2   3.67557E+2
  -5.93971E+2   4.33159E+2
  -6.62047E+2   3.03629E+2
  -6.45455E+2   2.87431E+2
  -6.42270E+2   3.16750E+2
  -6.15039E+2   3.17828E+2
  -5.94089E+2   3.65081E+2
  -5.99944E+2   2.92744E+2
  -5.66184E+2   2.69548E+2
  -6.12095E+2   2.77434E+2
  -6.29041E+2   2.31621E+2
  -6.42965E+2   1.88900E+2
  -6.10659E+2   2.44887E+2
  -5.79863E+2   2.52689E+2
  -5.51714E+2   2.02317E+2
  -5.43349E+2   2.31253E+2
  -6.03807E+2   1.68064E+2
  -5.99888E+2   2.28813E+2
  -5.62915E+2   1.93873E+2
  -5.76788E+2   1.77346E+2
  -6.11261E+2   1.33088E+2
  -5.83369E+2   1.56525E+2
  -5.31884E+2   1.57602E+2
  -5.61899E+2   1.54355E+2
  -5.90313E+2   1.46404E+2
  -5.70059E+2   1.05249E+2
  -5.54971E+2   1.43517E+2
  -5.41244E+2   9.10743E+1
  -5.59412E+2   2.15872E+1
  -5.23195E+2   7.95622E+1
  -5.41065E+2   6.77308E+1
  -5.88979E+2   2.34415E+1
  -5.63449E+2   1.21156E+0
  -4.94749E+2   5.65830E+0
  -5.31830E+2  -8.87807E+0
  -5.40348E+2   2.39439E+1
  -5.54482E+2   2.32247E+1
  -5.17622E+2  -1.16649E+1
  -5.07447E+2   3.03391E+0
  -5.56701E+2  -3.45197E+1
  -5.14994E+2  -7.53731E+1
  -5.68359E+2  -5.36582E+1
  -5.34719E+2  -6.93983E+1
  -4.87236E+2  -6.01397E+1
  -5.39373E+2  -8.48901E+1
  -5.04990E+2  -8.74058E+1
  -5.76633E+2  -7.48131E+1
  -5.21938E+2  -5.41387E+1
  -5.52129E+2  -8.31456E+1
  -5.68131E+2  -9.07738E+1
  -5.05114E+2  -9.23675E+1
  -4.98473E+2  -1.75928E+2
  -5.72425E+2  -1.03873E+2
  -5.37217E+2  -1.93522E+2
  -5.10697E+2  -1.32122E+2
  -5.04683E+2  -1.49105E+2
  -4.93280E+2  -1.56463E+2
  -5.97909E+2  -2.11080E+2
  -5.47957E+2  -1.90317E+2
  -5.36288E+2  -2.29730E+2
  -5.52488E+2  -1.75037E+2
  -4.83831E+2  -1.82676E+2
  -5.29479E+2  -2.57515E+2
  -5.48135E+2  -2.19060E+2
  -5.72451E+2  -2.38035E+2
  -4.75491E+2  -1.79466E+2
  -5.13085E+2  -2.10253E+2
  -4.82366E+2  -2.63991E+2
  -4.70793E+2  -1.78883E+2
  -5.51570E+2  -2.58668E+2
  -4.94457E+2  -2.30498E+2
  -5.71749E+2  -1.78118E+2
  -6.06687E+2  -2.85494E+2
  -5.62000E+2  -2.01683E+2
  -5.48991E+2  -2.66145E+2
  -5.69984E+2  -2.80060E+2
  -5.60345E+2  -2.74379E+2
  -5.20959E+2  -2.56568E+2
  -5.54181E+2  -2.78240E+2
  -5.45166E+2  -2.92197E+2
  -5.65935E+2  -2.52586E+2
  -5.46805E+2  -2.41402E+2
  -5.48788E+2  -2.38524E+2
  -5.16091E+2  -2.75996E+2
  -6.00060E+2  -2.56897E+2
  -5.30386E+2  -2.47187E+2
  -5.90272E+2  -2.21112E+2
  -5.21786E+2  -2.07826E+2
  -5.49365E+2  -2.41774E+2
  -5.51774E+2  -2.96965E+2
  -5.48313E+2  -2.84938E+2
  -5.92909E+2  -2.68394E+2
  -5.69539E+2  -2.89742E+2
  -4.57849E+2  -1.82406E+2
  -5.54087E+2  -2.98755E+2
  -5.17502E+2  -2.31077E+2
  -5.51172E+2  -2.16962E+2
  -5.18192E+2  -2.26134E+2
  -5.64894E+2  -2.62709E+2
  -5.66308E+2  -2.71994E+2
  -5.86876E+2  -2.40757E+2
  -5.48942E+2  -2.93886E+2
  -5.57850E+2  -2.38641E+2
  -5.47298E+2  -1.81555E+2
  -6.09365E+2  -2.85906E+2
  -5.68929E+2  -2.41618E+2
  -5.31962E+2  -2.98554E+2
  -5.96975E+2  -2.10813E+2
  -4.88709E+2  -2.25673E+2
  -5.52290E+2  -2.67548E+2
