 
 $NMID
 ID=''
 FMTDAT='(2E13.5)'
 TRAMP=   1.00000E+0
 VOLUME=   1.00000E+0
 $END
  -1.44058E+4   1.58098E+4
  -4.72763E+4   2.86172E+4
  -4.13572E+4   3.64240E+4
  -3.79327E+4   3.36367E+4
  -4.02304E+4   3.36259E+4
  -3.87994E+4   3.53584E+4
  -3.76524E+4   3.34344E+4
  -3.90296E+4   3.29974E+4
  -3.81961E+4   3.40646E+4
  -3.75216E+4   3.30229E+4
  -3.83462E+4   3.27634E+4
  -3.75139E+4   3.36106E+4
  -3.68518E+4   3.32403E+4
  -3.74245E+4   3.30795E+4
  -3.66671E+4   3.35383E+4
  -3.59994E+4   3.30465E+4
  -3.61820E+4   3.30369E+4
  -3.56167E+4   3.33655E+4
  -3.49289E+4   3.30059E+4
  -3.51041E+4   3.28055E+4
  -3.45273E+4   3.29763E+4
  -3.38236E+4   3.27692E+4
  -3.39437E+4   3.27274E+4
  -3.34572E+4   3.26273E+4
  -3.28902E+4   3.23512E+4
  -3.27667E+4   3.22208E+4
  -3.24886E+4   3.23389E+4
  -3.20892E+4   3.18994E+4
  -3.20213E+4   3.16416E+4
  -3.16041E+4   3.16727E+4
  -3.10729E+4   3.14358E+4
  -3.09727E+4   3.15144E+4
  -3.08051E+4   3.15117E+4
  -3.04767E+4   3.12679E+4
  -3.02342E+4   3.13376E+4
  -2.99927E+4   3.14094E+4
  -2.95917E+4   3.12949E+4
  -2.92180E+4   3.13376E+4
  -2.89867E+4   3.14940E+4
  -2.86693E+4   3.15151E+4
  -2.84785E+4   3.14570E+4
  -2.82998E+4   3.13898E+4
  -2.80399E+4   3.12352E+4
  -2.77280E+4   3.11687E+4
  -2.74398E+4   3.11574E+4
  -2.71746E+4   3.10979E+4
  -2.68779E+4   3.10950E+4
  -2.65940E+4   3.10396E+4
  -2.63967E+4   3.09524E+4
  -2.61735E+4   3.09590E+4
  -2.59468E+4   3.08407E+4
  -2.56602E+4   3.07123E+4
  -2.53037E+4   3.06667E+4
  -2.50558E+4   3.07169E+4
  -2.48326E+4   3.05647E+4
  -2.45605E+4   3.04880E+4
  -2.43799E+4   3.03860E+4
  -2.41832E+4   3.02617E+4
  -2.39241E+4   3.01113E+4
  -2.36537E+4   2.99169E+4
  -2.33997E+4   2.98845E+4
  -2.31215E+4   2.96897E+4
  -2.29307E+4   2.97221E+4
  -2.26761E+4   2.96435E+4
  -2.24653E+4   2.94010E+4
  -2.21517E+4   2.93455E+4
  -2.18144E+4   2.93454E+4
  -2.15993E+4   2.92366E+4
  -2.14158E+4   2.90567E+4
  -2.11608E+4   2.89099E+4
  -2.09321E+4   2.88150E+4
  -2.06600E+4   2.87341E+4
  -2.04295E+4   2.86487E+4
  -2.01776E+4   2.84951E+4
  -1.98766E+4   2.83906E+4
  -1.96431E+4   2.83046E+4
  -1.93657E+4   2.82094E+4
  -1.91508E+4   2.81272E+4
  -1.88634E+4   2.80208E+4
  -1.85775E+4   2.79470E+4
  -1.83749E+4   2.79539E+4
  -1.80969E+4   2.78308E+4
  -1.78472E+4   2.77209E+4
  -1.75536E+4   2.76716E+4
  -1.73913E+4   2.74950E+4
  -1.71662E+4   2.74102E+4
  -1.68956E+4   2.72609E+4
  -1.66546E+4   2.71396E+4
  -1.63520E+4   2.71314E+4
  -1.61121E+4   2.70696E+4
  -1.58419E+4   2.70079E+4
  -1.56137E+4   2.69247E+4
  -1.53838E+4   2.68966E+4
  -1.50937E+4   2.68001E+4
  -1.48476E+4   2.67622E+4
  -1.46392E+4   2.66145E+4
  -1.43690E+4   2.64479E+4
  -1.40828E+4   2.64272E+4
  -1.39200E+4   2.64077E+4
  -1.37162E+4   2.62925E+4
  -1.34645E+4   2.61305E+4
  -1.32177E+4   2.60833E+4
  -1.29843E+4   2.60370E+4
  -1.27718E+4   2.60034E+4
  -1.25839E+4   2.58173E+4
  -1.24055E+4   2.57448E+4
  -1.21875E+4   2.56642E+4
  -1.20961E+4   2.55758E+4
  -1.17951E+4   2.54870E+4
  -1.17058E+4   2.53045E+4
  -1.14087E+4   2.51404E+4
  -1.12156E+4   2.50941E+4
  -1.09987E+4   2.50264E+4
  -1.08407E+4   2.49479E+4
  -1.07078E+4   2.48876E+4
  -1.06255E+4   2.47694E+4
  -1.04406E+4   2.45993E+4
  -1.02676E+4   2.44718E+4
  -1.01047E+4   2.43788E+4
  -9.94600E+3   2.42216E+4
  -9.78260E+3   2.41294E+4
  -9.65943E+3   2.40337E+4
  -9.58048E+3   2.39314E+4
  -9.38235E+3   2.37809E+4
  -9.19346E+3   2.37483E+4
  -9.09051E+3   2.35973E+4
  -9.04732E+3   2.34326E+4
  -8.85193E+3   2.33657E+4
  -8.79168E+3   2.32139E+4
  -8.56298E+3   2.31144E+4
  -8.56166E+3   2.30379E+4
  -8.41135E+3   2.29202E+4
  -8.18932E+3   2.27872E+4
  -8.14347E+3   2.26410E+4
  -7.99548E+3   2.25738E+4
  -7.95601E+3   2.24383E+4
  -7.94954E+3   2.23324E+4
  -7.70363E+3   2.22220E+4
  -7.65609E+3   2.20940E+4
  -7.53889E+3   2.19390E+4
  -7.44720E+3   2.18542E+4
  -7.39082E+3   2.16837E+4
  -7.23270E+3   2.16415E+4
  -7.19513E+3   2.15336E+4
  -7.15997E+3   2.13937E+4
  -7.04334E+3   2.13245E+4
  -6.97245E+3   2.11856E+4
  -6.83022E+3   2.10369E+4
  -6.76715E+3   2.09470E+4
  -6.74865E+3   2.08459E+4
  -6.61249E+3   2.06742E+4
  -6.55333E+3   2.06264E+4
  -6.48578E+3   2.04299E+4
  -6.41224E+3   2.03255E+4
  -6.29353E+3   2.02010E+4
  -6.18240E+3   2.01099E+4
  -6.14115E+3   1.99802E+4
  -6.11710E+3   1.98354E+4
  -6.02132E+3   1.97979E+4
  -5.95542E+3   1.96725E+4
  -5.92364E+3   1.95476E+4
  -5.87253E+3   1.93576E+4
  -5.72685E+3   1.92939E+4
  -5.64495E+3   1.92214E+4
  -5.58896E+3   1.90770E+4
  -5.57091E+3   1.90434E+4
  -5.47964E+3   1.88168E+4
  -5.43292E+3   1.87650E+4
  -5.30204E+3   1.87257E+4
  -5.29303E+3   1.86236E+4
  -5.18978E+3   1.85215E+4
  -5.11089E+3   1.84301E+4
  -5.11858E+3   1.83063E+4
  -4.97461E+3   1.82452E+4
  -4.93338E+3   1.80917E+4
  -4.87311E+3   1.80055E+4
  -4.68814E+3   1.78887E+4
  -4.64738E+3   1.78448E+4
  -4.61772E+3   1.78304E+4
  -4.58378E+3   1.76761E+4
  -4.48032E+3   1.75868E+4
  -4.45647E+3   1.75039E+4
  -4.38783E+3   1.74161E+4
  -4.25527E+3   1.73076E+4
  -4.30632E+3   1.71748E+4
  -4.20532E+3   1.71274E+4
  -4.14507E+3   1.70935E+4
  -4.12399E+3   1.70075E+4
  -4.08064E+3   1.69225E+4
  -4.07595E+3   1.68221E+4
  -3.90263E+3   1.67938E+4
  -3.88582E+3   1.66343E+4
  -3.77887E+3   1.65765E+4
  -3.66896E+3   1.65166E+4
  -3.68651E+3   1.64034E+4
  -3.61459E+3   1.62912E+4
  -3.65402E+3   1.62615E+4
  -3.57160E+3   1.61833E+4
  -3.49486E+3   1.60433E+4
  -3.43754E+3   1.60032E+4
  -3.40774E+3   1.59602E+4
  -3.34442E+3   1.59625E+4
  -3.30724E+3   1.57624E+4
  -3.18270E+3   1.56777E+4
  -3.19821E+3   1.55979E+4
  -3.11247E+3   1.55664E+4
  -3.06855E+3   1.55496E+4
  -3.07860E+3   1.53489E+4
  -2.93597E+3   1.52628E+4
  -2.94394E+3   1.53057E+4
  -2.78127E+3   1.51903E+4
  -2.83066E+3   1.51573E+4
  -2.72933E+3   1.49535E+4
  -2.65003E+3   1.49940E+4
  -2.56448E+3   1.48240E+4
  -2.50105E+3   1.48789E+4
  -2.51083E+3   1.47754E+4
  -2.43080E+3   1.46794E+4
  -2.38603E+3   1.45549E+4
  -2.33871E+3   1.45098E+4
  -2.27897E+3   1.43958E+4
  -2.15554E+3   1.43737E+4
  -2.10078E+3   1.42753E+4
  -2.04474E+3   1.41874E+4
  -2.02398E+3   1.41188E+4
  -1.96660E+3   1.40270E+4
  -1.96677E+3   1.40112E+4
  -1.80862E+3   1.39272E+4
  -1.73199E+3   1.39154E+4
  -1.76273E+3   1.38022E+4
  -1.71320E+3   1.36788E+4
  -1.66110E+3   1.36776E+4
  -1.57918E+3   1.36761E+4
  -1.53076E+3   1.35282E+4
  -1.46715E+3   1.34800E+4
  -1.42559E+3   1.33903E+4
  -1.39719E+3   1.32936E+4
  -1.28328E+3   1.33293E+4
  -1.29333E+3   1.31993E+4
  -1.23610E+3   1.31354E+4
  -1.14622E+3   1.30145E+4
  -1.05150E+3   1.30098E+4
  -1.03043E+3   1.29855E+4
  -1.02409E+3   1.28902E+4
  -1.01631E+3   1.28254E+4
  -9.23860E+2   1.27684E+4
  -8.75383E+2   1.27439E+4
  -7.88930E+2   1.26544E+4
  -7.00203E+2   1.26084E+4
  -6.56876E+2   1.24706E+4
  -6.52608E+2   1.24507E+4
  -6.28676E+2   1.24404E+4
  -5.64530E+2   1.23037E+4
  -4.70218E+2   1.22680E+4
  -4.89415E+2   1.22090E+4
  -3.59646E+2   1.20848E+4
  -3.36302E+2   1.20708E+4
  -2.58170E+2   1.19846E+4
  -2.58584E+2   1.19953E+4
  -1.97826E+2   1.19764E+4
  -2.08923E+2   1.18219E+4
  -1.48145E+2   1.18192E+4
  -7.21545E+1   1.16646E+4
   3.82862E+1   1.16548E+4
   5.99166E+1   1.16356E+4
   8.79042E-1   1.16285E+4
   1.33816E+2   1.14391E+4
   1.41223E+2   1.14670E+4
   2.04979E+2   1.13947E+4
   1.90145E+2   1.13389E+4
   2.08561E+2   1.11709E+4
   3.97121E+2   1.12154E+4
   3.57344E+2   1.12294E+4
   4.15346E+2   1.11191E+4
   4.38832E+2   1.10503E+4
   4.17625E+2   1.10780E+4
   4.84628E+2   1.09597E+4
   5.88767E+2   1.09170E+4
   5.94960E+2   1.08077E+4
   6.22094E+2   1.08260E+4
   7.52234E+2   1.08021E+4
   7.76445E+2   1.06667E+4
   7.73607E+2   1.06893E+4
   8.26259E+2   1.06347E+4
   8.07008E+2   1.04779E+4
   8.42513E+2   1.04850E+4
   8.98122E+2   1.04786E+4
   9.40010E+2   1.04401E+4
   9.28550E+2   1.03730E+4
   9.45909E+2   1.02552E+4
   9.76364E+2   1.02591E+4
   1.11121E+3   1.01365E+4
   1.06622E+3   1.01249E+4
   1.21940E+3   1.01090E+4
   1.21060E+3   1.00723E+4
   1.19634E+3   1.01073E+4
   1.22145E+3   9.99073E+3
   1.27169E+3   9.91307E+3
   1.34768E+3   9.89512E+3
   1.38136E+3   9.85045E+3
   1.34556E+3   9.77368E+3
   1.42632E+3   9.73667E+3
   1.47382E+3   9.69311E+3
   1.48543E+3   9.75008E+3
   1.44532E+3   9.56226E+3
   1.50838E+3   9.58586E+3
   1.53933E+3   9.45034E+3
   1.63562E+3   9.44977E+3
   1.60767E+3   9.46571E+3
   1.68406E+3   9.31436E+3
   1.67527E+3   9.33394E+3
   1.75294E+3   9.23545E+3
   1.72681E+3   9.24721E+3
   1.78185E+3   9.17078E+3
   1.84313E+3   9.16855E+3
   1.83604E+3   9.11262E+3
   1.87819E+3   9.06628E+3
   1.92124E+3   8.99758E+3
   1.89561E+3   8.95806E+3
   1.92621E+3   8.89135E+3
   1.96579E+3   8.92906E+3
   2.11061E+3   8.92057E+3
   2.09826E+3   8.79591E+3
   2.10461E+3   8.71550E+3
   2.14325E+3   8.68808E+3
   2.19609E+3   8.65260E+3
   2.21988E+3   8.60091E+3
   2.17264E+3   8.55112E+3
   2.27341E+3   8.45526E+3
   2.25349E+3   8.48517E+3
   2.34044E+3   8.44336E+3
   2.43679E+3   8.35597E+3
   2.33492E+3   8.42359E+3
   2.43379E+3   8.29470E+3
   2.42714E+3   8.21088E+3
   2.40282E+3   8.20651E+3
   2.47459E+3   8.16275E+3
   2.49865E+3   8.12796E+3
   2.47623E+3   8.04767E+3
   2.55382E+3   8.07232E+3
   2.56455E+3   8.02827E+3
   2.58193E+3   7.93247E+3
   2.61342E+3   7.86418E+3
   2.68253E+3   7.84609E+3
   2.72103E+3   7.83474E+3
   2.72936E+3   7.74848E+3
   2.81282E+3   7.76896E+3
   2.72781E+3   7.58798E+3
   2.82404E+3   7.58957E+3
   2.77902E+3   7.55855E+3
   2.86820E+3   7.49170E+3
   2.91740E+3   7.49014E+3
   2.93874E+3   7.39477E+3
   2.92814E+3   7.41345E+3
   2.96712E+3   7.31625E+3
   2.97157E+3   7.26879E+3
   3.02685E+3   7.20049E+3
   3.11423E+3   7.20350E+3
   3.05625E+3   7.13745E+3
   3.05805E+3   7.11264E+3
   3.10299E+3   7.01740E+3
   3.13247E+3   7.06755E+3
   3.15748E+3   6.98860E+3
   3.15025E+3   6.94064E+3
   3.13688E+3   6.82725E+3
   3.21061E+3   6.78679E+3
   3.22955E+3   6.78131E+3
