 
 $NMID
 ID=''
 FMTDAT='(2E13.5)'
 TRAMP=   1.00000E+0
 VOLUME=   1.00000E+0
 $END
  -2.17351E+4   4.33674E+3
  -5.71284E+4  -6.16479E+3
  -5.69363E+4   2.38323E+3
  -5.26394E+4   4.39030E+2
  -5.48193E+4  -2.66428E+3
  -5.46558E+4  -1.87734E+3
  -5.25545E+4  -4.31037E+3
  -5.31836E+4  -7.06152E+3
  -5.28070E+4  -7.19067E+3
  -5.11722E+4  -9.39504E+3
  -5.11342E+4  -1.16100E+4
  -5.04956E+4  -1.20599E+4
  -4.92684E+4  -1.37893E+4
  -4.90157E+4  -1.58689E+4
  -4.82211E+4  -1.67406E+4
  -4.67220E+4  -1.83635E+4
  -4.62123E+4  -2.01396E+4
  -4.53525E+4  -2.09058E+4
  -4.38751E+4  -2.22440E+4
  -4.31400E+4  -2.38432E+4
  -4.20320E+4  -2.45625E+4
  -4.08358E+4  -2.55704E+4
  -4.00725E+4  -2.69867E+4
  -3.89018E+4  -2.77802E+4
  -3.74606E+4  -2.86753E+4
  -3.65502E+4  -2.98110E+4
  -3.53970E+4  -3.05179E+4
  -3.39362E+4  -3.14337E+4
  -3.26749E+4  -3.24249E+4
  -3.14311E+4  -3.29776E+4
  -3.00588E+4  -3.36156E+4
  -2.90252E+4  -3.44395E+4
  -2.76792E+4  -3.50966E+4
  -2.61874E+4  -3.55265E+4
  -2.50931E+4  -3.60418E+4
  -2.38449E+4  -3.64908E+4
  -2.24465E+4  -3.68697E+4
  -2.12829E+4  -3.72348E+4
  -2.00526E+4  -3.76392E+4
  -1.86369E+4  -3.79186E+4
  -1.73991E+4  -3.82557E+4
  -1.60115E+4  -3.85860E+4
  -1.44812E+4  -3.87191E+4
  -1.31728E+4  -3.88222E+4
  -1.20028E+4  -3.88130E+4
  -1.06735E+4  -3.89516E+4
  -9.15178E+3  -3.89131E+4
  -8.01192E+3  -3.88829E+4
  -6.72345E+3  -3.88889E+4
  -5.40670E+3  -3.87106E+4
  -4.03343E+3  -3.85233E+4
  -2.78763E+3  -3.82242E+4
  -1.64640E+3  -3.79709E+4
  -4.76773E+2  -3.76990E+4
   6.53150E+2  -3.74011E+4
   1.89792E+3  -3.69653E+4
   3.07162E+3  -3.65753E+4
   4.32996E+3  -3.60315E+4
   5.37155E+3  -3.55570E+4
   6.42875E+3  -3.49419E+4
   7.42937E+3  -3.43551E+4
   8.38744E+3  -3.37248E+4
   9.30324E+3  -3.31586E+4
   1.03546E+4  -3.25293E+4
   1.12891E+4  -3.17977E+4
   1.21690E+4  -3.11105E+4
   1.30458E+4  -3.03488E+4
   1.39585E+4  -2.96992E+4
   1.47558E+4  -2.88333E+4
   1.55141E+4  -2.79766E+4
   1.62745E+4  -2.71451E+4
   1.69071E+4  -2.63814E+4
   1.76437E+4  -2.54629E+4
   1.81677E+4  -2.45626E+4
   1.87961E+4  -2.36381E+4
   1.94145E+4  -2.27670E+4
   1.99312E+4  -2.18325E+4
   2.03515E+4  -2.08239E+4
   2.07693E+4  -1.98816E+4
   2.12395E+4  -1.89415E+4
   2.15327E+4  -1.79402E+4
   2.19333E+4  -1.70216E+4
   2.22530E+4  -1.60406E+4
   2.24496E+4  -1.50649E+4
   2.27833E+4  -1.40865E+4
   2.30220E+4  -1.30369E+4
   2.31531E+4  -1.20457E+4
   2.32955E+4  -1.10350E+4
   2.33248E+4  -1.01758E+4
   2.34358E+4  -9.15624E+3
   2.34014E+4  -8.25793E+3
   2.34463E+4  -7.25278E+3
   2.34204E+4  -6.34625E+3
   2.33347E+4  -5.39657E+3
   2.31970E+4  -4.45591E+3
   2.30682E+4  -3.52209E+3
   2.28888E+4  -2.70087E+3
   2.27049E+4  -1.88211E+3
   2.25702E+4  -9.49924E+2
   2.22164E+4  -1.03793E+2
   2.19543E+4   6.95842E+2
   2.16482E+4   1.43627E+3
   2.13363E+4   2.18732E+3
   2.10114E+4   3.00252E+3
   2.06151E+4   3.73007E+3
   2.02057E+4   4.38821E+3
   1.98429E+4   5.03133E+3
   1.93632E+4   5.79271E+3
   1.89152E+4   6.43631E+3
   1.84116E+4   7.05639E+3
   1.78918E+4   7.48949E+3
   1.74475E+4   8.06947E+3
   1.69610E+4   8.62833E+3
   1.64009E+4   9.11112E+3
   1.59155E+4   9.59210E+3
   1.53945E+4   1.00172E+4
   1.47827E+4   1.04126E+4
   1.42367E+4   1.08453E+4
   1.37313E+4   1.11121E+4
   1.32834E+4   1.14712E+4
   1.26820E+4   1.17181E+4
   1.21511E+4   1.19922E+4
   1.15814E+4   1.21959E+4
   1.10337E+4   1.24029E+4
   1.04177E+4   1.26443E+4
   9.94418E+3   1.28043E+4
   9.43367E+3   1.29177E+4
   8.87744E+3   1.30665E+4
   8.43018E+3   1.31471E+4
   7.89450E+3   1.32383E+4
   7.41234E+3   1.33131E+4
   6.96971E+3   1.32716E+4
   6.48256E+3   1.32409E+4
   6.04484E+3   1.33210E+4
   5.58103E+3   1.33786E+4
   5.19556E+3   1.32340E+4
   4.76351E+3   1.32360E+4
   4.30101E+3   1.31777E+4
   3.95092E+3   1.30757E+4
   3.49444E+3   1.30497E+4
   3.17694E+3   1.29008E+4
   2.76070E+3   1.28121E+4
   2.42444E+3   1.26501E+4
   2.11381E+3   1.25610E+4
   1.73371E+3   1.23522E+4
   1.49477E+3   1.22736E+4
   1.15343E+3   1.21096E+4
   8.81950E+2   1.19738E+4
   6.26167E+2   1.17976E+4
   3.25053E+2   1.16428E+4
   1.29445E+2   1.14519E+4
  -1.48213E+2   1.12463E+4
  -3.76094E+2   1.10104E+4
  -5.86544E+2   1.08115E+4
  -7.66841E+2   1.05687E+4
  -1.02715E+3   1.04802E+4
  -1.25312E+3   1.02289E+4
  -1.43757E+3   1.00003E+4
  -1.58884E+3   9.86845E+3
  -1.72733E+3   9.61227E+3
  -1.90087E+3   9.43458E+3
  -2.01106E+3   9.17663E+3
  -2.18079E+3   8.94820E+3
  -2.31677E+3   8.73541E+3
  -2.37445E+3   8.59324E+3
  -2.55622E+3   8.31014E+3
  -2.60381E+3   8.11634E+3
  -2.71343E+3   7.83318E+3
  -2.86351E+3   7.69343E+3
  -2.93719E+3   7.46161E+3
  -3.01204E+3   7.29153E+3
  -3.07535E+3   7.07526E+3
  -3.13549E+3   6.88417E+3
  -3.21774E+3   6.64824E+3
  -3.27790E+3   6.42609E+3
  -3.31012E+3   6.21267E+3
  -3.27938E+3   6.01969E+3
  -3.37364E+3   5.90229E+3
  -3.42882E+3   5.71153E+3
  -3.42394E+3   5.47726E+3
  -3.44525E+3   5.29668E+3
  -3.49240E+3   5.08153E+3
  -3.46863E+3   4.89977E+3
  -3.44985E+3   4.70497E+3
  -3.46867E+3   4.50707E+3
  -3.52290E+3   4.36763E+3
  -3.51658E+3   4.21643E+3
  -3.49158E+3   4.02136E+3
  -3.47465E+3   3.88594E+3
  -3.45567E+3   3.71390E+3
  -3.49712E+3   3.49092E+3
  -3.44845E+3   3.38968E+3
  -3.36939E+3   3.16663E+3
  -3.31487E+3   3.14073E+3
  -3.29639E+3   2.94795E+3
  -3.27508E+3   2.85469E+3
  -3.19812E+3   2.75707E+3
  -3.24907E+3   2.54433E+3
  -3.13547E+3   2.40134E+3
  -3.06531E+3   2.37406E+3
  -2.96284E+3   2.23004E+3
  -2.98501E+3   2.11989E+3
  -2.92850E+3   1.85267E+3
  -2.86964E+3   1.83563E+3
  -2.80236E+3   1.76010E+3
  -2.76299E+3   1.69561E+3
  -2.72903E+3   1.53063E+3
  -2.65558E+3   1.54151E+3
  -2.64654E+3   1.36018E+3
  -2.65254E+3   1.31604E+3
  -2.50805E+3   1.24872E+3
  -2.42445E+3   1.20419E+3
  -2.38808E+3   1.13017E+3
  -2.30435E+3   1.06770E+3
  -2.33172E+3   9.88681E+2
  -2.24424E+3   8.40000E+2
  -2.23969E+3   8.26881E+2
  -2.10884E+3   7.28408E+2
  -2.06494E+3   7.28143E+2
  -2.04853E+3   6.45705E+2
  -1.99522E+3   5.64220E+2
  -1.92176E+3   5.88353E+2
  -1.85002E+3   5.19943E+2
  -1.77100E+3   4.97747E+2
  -1.75010E+3   4.36493E+2
  -1.77502E+3   3.74415E+2
  -1.73613E+3   3.34562E+2
  -1.66042E+3   2.28852E+2
  -1.64994E+3   2.56623E+2
  -1.59144E+3   2.71255E+2
  -1.47659E+3   1.97589E+2
  -1.53967E+3   2.08290E+2
  -1.45714E+3   1.41971E+2
  -1.39176E+3   8.16236E+1
  -1.43461E+3   1.80497E+1
  -1.31832E+3   1.17087E+2
  -1.30851E+3  -1.83489E+1
  -1.26619E+3   3.69450E+1
  -1.24532E+3   9.37631E+0
  -1.22713E+3  -9.25823E+1
  -1.19669E+3  -1.37295E+2
  -1.19616E+3  -1.41062E+2
  -1.14563E+3  -1.22313E+2
  -1.13826E+3  -2.01818E+2
  -1.02224E+3  -2.35593E+2
  -1.06573E+3  -2.61427E+2
  -9.99714E+2  -2.06151E+2
  -1.01019E+3  -2.92491E+2
  -9.21777E+2  -3.31880E+2
  -8.82804E+2  -3.35581E+2
  -8.93695E+2  -3.76762E+2
  -9.39990E+2  -3.53889E+2
  -8.05270E+2  -4.10356E+2
  -8.04854E+2  -4.10006E+2
  -7.53614E+2  -4.52895E+2
  -8.07145E+2  -4.39469E+2
  -7.02219E+2  -5.15479E+2
  -7.22645E+2  -4.64891E+2
  -6.99782E+2  -5.05087E+2
  -6.21749E+2  -5.97449E+2
  -6.82616E+2  -6.12496E+2
  -5.35817E+2  -5.93153E+2
  -5.65668E+2  -6.13721E+2
  -5.07440E+2  -5.64503E+2
  -4.70752E+2  -6.47598E+2
  -4.24142E+2  -6.63150E+2
  -3.57604E+2  -6.75583E+2
  -3.63323E+2  -6.90061E+2
  -3.50017E+2  -6.54540E+2
  -2.68693E+2  -6.97417E+2
  -2.93058E+2  -7.36038E+2
  -2.71353E+2  -7.45770E+2
  -2.35313E+2  -6.85262E+2
  -1.73826E+2  -7.09299E+2
  -1.54957E+2  -6.87657E+2
  -1.73040E+2  -7.81577E+2
  -1.13047E+2  -6.79880E+2
  -7.97301E+1  -6.53545E+2
  -2.48691E+1  -7.21322E+2
   3.92987E+1  -7.02420E+2
  -1.20910E+1  -7.03704E+2
  -1.49899E+1  -7.38620E+2
   1.31291E+1  -7.54862E+2
   8.83313E+1  -6.97316E+2
   5.68429E+1  -7.09583E+2
   1.02139E+2  -7.40203E+2
   1.94546E+2  -7.43725E+2
   2.11101E+2  -7.64337E+2
   1.91547E+2  -6.65818E+2
   1.88759E+2  -6.62654E+2
   1.82899E+2  -6.87889E+2
   2.24374E+2  -6.77817E+2
   2.90079E+2  -6.41468E+2
   2.65536E+2  -5.81718E+2
   2.29780E+2  -6.54979E+2
   2.78084E+2  -6.42793E+2
   2.92364E+2  -6.56766E+2
   3.09683E+2  -6.65127E+2
   2.16440E+2  -5.63088E+2
   2.84875E+2  -5.81891E+2
   3.74807E+2  -5.74849E+2
   3.42588E+2  -5.44411E+2
   3.73387E+2  -6.42726E+2
   3.89871E+2  -5.50676E+2
   4.06125E+2  -5.05771E+2
   4.85209E+2  -5.03453E+2
   3.60599E+2  -4.55521E+2
   4.28756E+2  -5.29204E+2
   4.71806E+2  -5.01586E+2
   4.23676E+2  -4.69679E+2
   4.43165E+2  -3.93544E+2
   4.59624E+2  -4.60952E+2
   4.83534E+2  -4.57690E+2
   4.43361E+2  -4.43037E+2
   5.15576E+2  -4.10798E+2
   4.45998E+2  -4.20465E+2
   5.05419E+2  -3.61365E+2
   4.88998E+2  -4.86295E+2
   5.38279E+2  -4.03011E+2
   5.04130E+2  -4.18582E+2
   5.52764E+2  -4.29935E+2
   4.34106E+2  -3.95071E+2
   4.97475E+2  -3.57340E+2
   5.35291E+2  -3.76892E+2
   4.62493E+2  -3.82644E+2
   4.98677E+2  -4.51172E+2
   4.61812E+2  -3.95336E+2
   5.44736E+2  -4.13775E+2
   5.15172E+2  -3.72877E+2
   5.48601E+2  -4.19648E+2
   5.10366E+2  -4.11686E+2
   5.30606E+2  -3.44082E+2
   5.54840E+2  -3.79651E+2
   6.23595E+2  -3.98186E+2
   5.59502E+2  -4.03478E+2
   5.61987E+2  -3.83092E+2
   5.47205E+2  -4.20569E+2
   5.95764E+2  -4.12033E+2
   6.12210E+2  -3.47238E+2
   5.39424E+2  -3.94739E+2
   5.83899E+2  -3.16585E+2
   6.70084E+2  -4.09578E+2
   6.55745E+2  -4.04162E+2
   6.52003E+2  -3.88283E+2
   5.48821E+2  -2.57352E+2
   6.49231E+2  -3.40174E+2
   6.68250E+2  -4.15207E+2
   6.20749E+2  -3.57365E+2
   6.39959E+2  -3.11799E+2
   7.09661E+2  -3.89098E+2
   6.47778E+2  -3.60738E+2
   6.78770E+2  -3.16359E+2
   6.74223E+2  -3.12134E+2
   6.82877E+2  -3.36043E+2
   6.88272E+2  -3.70670E+2
   6.81221E+2  -3.29401E+2
   6.89248E+2  -3.55272E+2
   7.09605E+2  -2.93081E+2
   6.62359E+2  -3.46550E+2
   7.95687E+2  -3.34014E+2
   6.68974E+2  -3.13296E+2
   7.20020E+2  -2.91097E+2
   7.32256E+2  -3.30452E+2
   7.46620E+2  -2.89469E+2
   7.84039E+2  -3.05404E+2
   7.55154E+2  -2.40990E+2
   7.13445E+2  -2.81852E+2
