 
 $NMID
 ID=''
 FMTDAT='(2E13.5)'
 TRAMP=   1.00000E+0
 VOLUME=   1.00000E+0
 $END
  -7.38911E+3   1.80406E+4
  -3.12164E+4   3.93938E+4
  -2.32964E+4   4.45065E+4
  -2.06316E+4   4.14957E+4
  -2.19587E+4   4.26638E+4
  -1.92651E+4   4.38716E+4
  -1.82138E+4   4.20876E+4
  -1.87640E+4   4.21141E+4
  -1.72023E+4   4.26184E+4
  -1.62681E+4   4.14222E+4
  -1.66748E+4   4.14066E+4
  -1.51489E+4   4.17725E+4
  -1.44537E+4   4.10785E+4
  -1.46946E+4   4.11817E+4
  -1.37046E+4   4.14801E+4
  -1.28089E+4   4.08965E+4
  -1.26493E+4   4.10045E+4
  -1.16718E+4   4.12771E+4
  -1.07422E+4   4.09898E+4
  -1.05697E+4   4.09627E+4
  -9.62722E+3   4.10458E+4
  -8.68792E+3   4.08075E+4
  -8.34871E+3   4.08684E+4
  -7.54423E+3   4.08742E+4
  -6.84673E+3   4.04945E+4
  -6.38137E+3   4.04031E+4
  -5.76740E+3   4.04876E+4
  -5.21355E+3   3.99991E+4
  -4.88798E+3   3.98171E+4
  -4.19028E+3   3.96443E+4
  -3.40461E+3   3.93315E+4
  -2.99543E+3   3.92192E+4
  -2.39061E+3   3.91295E+4
  -1.78556E+3   3.86740E+4
  -1.15087E+3   3.85218E+4
  -5.60903E+2   3.83493E+4
   1.16938E+2   3.79697E+4
   7.03048E+2   3.77291E+4
   1.43921E+3   3.77051E+4
   1.95899E+3   3.74897E+4
   2.40164E+3   3.72613E+4
   2.77750E+3   3.71365E+4
   3.14653E+3   3.68213E+4
   3.54293E+3   3.65885E+4
   4.05671E+3   3.64391E+4
   4.52704E+3   3.61805E+4
   4.87468E+3   3.59462E+4
   5.35493E+3   3.57334E+4
   5.77061E+3   3.55436E+4
   6.16793E+3   3.52680E+4
   6.53477E+3   3.50037E+4
   6.88000E+3   3.46714E+4
   7.36946E+3   3.44194E+4
   7.79428E+3   3.41325E+4
   8.17544E+3   3.39360E+4
   8.57123E+3   3.35961E+4
   8.95037E+3   3.33629E+4
   9.24202E+3   3.31010E+4
   9.60228E+3   3.28302E+4
   1.00033E+4   3.25261E+4
   1.03092E+4   3.22596E+4
   1.07368E+4   3.19833E+4
   1.11140E+4   3.17315E+4
   1.14167E+4   3.14926E+4
   1.16473E+4   3.11929E+4
   1.19059E+4   3.08950E+4
   1.22631E+4   3.06369E+4
   1.25730E+4   3.03869E+4
   1.27326E+4   2.99725E+4
   1.29517E+4   2.97512E+4
   1.32125E+4   2.94255E+4
   1.34524E+4   2.91725E+4
   1.37026E+4   2.88999E+4
   1.38827E+4   2.85423E+4
   1.41482E+4   2.81318E+4
   1.44369E+4   2.77988E+4
   1.45686E+4   2.74796E+4
   1.47651E+4   2.71488E+4
   1.50139E+4   2.67947E+4
   1.51815E+4   2.64551E+4
   1.54164E+4   2.61317E+4
   1.55130E+4   2.57153E+4
   1.56742E+4   2.53880E+4
   1.58620E+4   2.50513E+4
   1.59643E+4   2.47040E+4
   1.60702E+4   2.43576E+4
   1.61438E+4   2.39997E+4
   1.62857E+4   2.35942E+4
   1.63669E+4   2.32597E+4
   1.65451E+4   2.28838E+4
   1.66749E+4   2.25216E+4
   1.68448E+4   2.21421E+4
   1.70227E+4   2.16877E+4
   1.70478E+4   2.13647E+4
   1.72020E+4   2.09332E+4
   1.73009E+4   2.05710E+4
   1.73971E+4   2.01928E+4
   1.75632E+4   1.97949E+4
   1.77003E+4   1.94366E+4
   1.77494E+4   1.91459E+4
   1.77468E+4   1.87655E+4
   1.78886E+4   1.83001E+4
   1.80142E+4   1.79872E+4
   1.81249E+4   1.76040E+4
   1.82736E+4   1.72712E+4
   1.82728E+4   1.69325E+4
   1.83805E+4   1.64792E+4
   1.85031E+4   1.61897E+4
   1.85833E+4   1.58905E+4
   1.86547E+4   1.54897E+4
   1.87518E+4   1.51112E+4
   1.88496E+4   1.47311E+4
   1.90343E+4   1.44769E+4
   1.90798E+4   1.41447E+4
   1.91989E+4   1.37563E+4
   1.92590E+4   1.34911E+4
   1.92714E+4   1.31244E+4
   1.93684E+4   1.27661E+4
   1.93980E+4   1.25150E+4
   1.94980E+4   1.22053E+4
   1.96037E+4   1.19072E+4
   1.96610E+4   1.16922E+4
   1.96991E+4   1.13609E+4
   1.97093E+4   1.10821E+4
   1.97752E+4   1.07738E+4
   1.98415E+4   1.05320E+4
   1.98707E+4   1.02488E+4
   1.98998E+4   9.95779E+3
   1.99584E+4   9.69954E+3
   1.99159E+4   9.47580E+3
   1.99817E+4   9.14994E+3
   2.00187E+4   8.86962E+3
   2.00176E+4   8.60329E+3
   2.00441E+4   8.45362E+3
   2.00849E+4   8.14737E+3
   2.01001E+4   7.98835E+3
   2.01074E+4   7.65265E+3
   2.00886E+4   7.43379E+3
   2.00718E+4   7.22556E+3
   2.01029E+4   6.88981E+3
   2.00658E+4   6.67020E+3
   1.99600E+4   6.49002E+3
   2.00257E+4   6.28370E+3
   1.99590E+4   6.08358E+3
   1.99390E+4   5.83449E+3
   1.99106E+4   5.54168E+3
   1.99166E+4   5.30900E+3
   1.98690E+4   5.10207E+3
   1.98620E+4   4.87686E+3
   1.98315E+4   4.66141E+3
   1.97860E+4   4.50311E+3
   1.96327E+4   4.28334E+3
   1.96386E+4   4.01455E+3
   1.96224E+4   3.83574E+3
   1.95665E+4   3.64414E+3
   1.95552E+4   3.46574E+3
   1.94335E+4   3.19005E+3
   1.93845E+4   3.00410E+3
   1.93447E+4   2.83834E+3
   1.92471E+4   2.53472E+3
   1.91488E+4   2.32947E+3
   1.90940E+4   2.15351E+3
   1.90413E+4   1.94390E+3
   1.89480E+4   1.70962E+3
   1.88250E+4   1.47753E+3
   1.88049E+4   1.37392E+3
   1.86574E+4   1.11719E+3
   1.85628E+4   9.51612E+2
   1.85067E+4   6.86967E+2
   1.84242E+4   4.94388E+2
   1.82941E+4   3.61320E+2
   1.82206E+4   1.78647E+2
   1.80860E+4  -7.81179E+1
   1.80309E+4  -2.77854E+2
   1.78920E+4  -4.55276E+2
   1.78134E+4  -6.58180E+2
   1.76472E+4  -8.57628E+2
   1.75551E+4  -1.08799E+3
   1.74873E+4  -1.23597E+3
   1.74082E+4  -1.45813E+3
   1.72193E+4  -1.60881E+3
   1.71013E+4  -1.83485E+3
   1.68837E+4  -2.02128E+3
   1.68442E+4  -2.18401E+3
   1.66937E+4  -2.32857E+3
   1.66435E+4  -2.51923E+3
   1.63900E+4  -2.76145E+3
   1.62821E+4  -2.92586E+3
   1.61383E+4  -3.05730E+3
   1.59529E+4  -3.23075E+3
   1.58520E+4  -3.50013E+3
   1.57019E+4  -3.67018E+3
   1.55570E+4  -3.74371E+3
   1.54475E+4  -3.98382E+3
   1.52133E+4  -4.09714E+3
   1.50582E+4  -4.35639E+3
   1.49505E+4  -4.47612E+3
   1.48019E+4  -4.66306E+3
   1.45925E+4  -4.88335E+3
   1.43568E+4  -4.99135E+3
   1.43157E+4  -5.14272E+3
   1.41480E+4  -5.32316E+3
   1.39407E+4  -5.34887E+3
   1.37594E+4  -5.58473E+3
   1.35833E+4  -5.71768E+3
   1.33628E+4  -5.96074E+3
   1.32170E+4  -6.06435E+3
   1.30260E+4  -6.21893E+3
   1.27970E+4  -6.36200E+3
   1.26652E+4  -6.53919E+3
   1.24981E+4  -6.62141E+3
   1.22832E+4  -6.67366E+3
   1.21269E+4  -6.85913E+3
   1.19064E+4  -6.98821E+3
   1.16940E+4  -7.17850E+3
   1.15382E+4  -7.31988E+3
   1.13039E+4  -7.35286E+3
   1.11088E+4  -7.51186E+3
   1.08935E+4  -7.66239E+3
   1.07633E+4  -7.67702E+3
   1.05513E+4  -7.78935E+3
   1.02582E+4  -7.92543E+3
   1.01680E+4  -8.04040E+3
   9.94185E+3  -8.06086E+3
   9.70600E+3  -8.26094E+3
   9.52980E+3  -8.27198E+3
   9.30435E+3  -8.43682E+3
   9.06733E+3  -8.43684E+3
   8.86675E+3  -8.54138E+3
   8.76705E+3  -8.60977E+3
   8.50349E+3  -8.65015E+3
   8.28185E+3  -8.74135E+3
   8.04884E+3  -8.87756E+3
   7.89604E+3  -8.90031E+3
   7.68161E+3  -8.95486E+3
   7.44466E+3  -9.06415E+3
   7.27233E+3  -9.07642E+3
   7.04857E+3  -9.10920E+3
   6.89469E+3  -9.18796E+3
   6.63403E+3  -9.16875E+3
   6.43641E+3  -9.28729E+3
   6.22514E+3  -9.31696E+3
   6.03439E+3  -9.32040E+3
   5.87683E+3  -9.34825E+3
   5.58355E+3  -9.31065E+3
   5.51314E+3  -9.42243E+3
   5.25516E+3  -9.42962E+3
   5.04785E+3  -9.42145E+3
   4.84500E+3  -9.41941E+3
   4.60187E+3  -9.51173E+3
   4.45866E+3  -9.45979E+3
   4.32469E+3  -9.49126E+3
   4.10755E+3  -9.44937E+3
   3.94741E+3  -9.45690E+3
   3.80188E+3  -9.42466E+3
   3.50529E+3  -9.38667E+3
   3.30019E+3  -9.41708E+3
   3.09709E+3  -9.32078E+3
   2.91620E+3  -9.31686E+3
   2.77574E+3  -9.40016E+3
   2.55377E+3  -9.28751E+3
   2.37887E+3  -9.28829E+3
   2.18311E+3  -9.22544E+3
   2.03423E+3  -9.24088E+3
   1.84723E+3  -9.15645E+3
   1.63145E+3  -9.10835E+3
   1.53485E+3  -9.11829E+3
   1.34660E+3  -9.03796E+3
   1.17955E+3  -8.99523E+3
   1.02645E+3  -8.91682E+3
   8.50111E+2  -8.86921E+3
   6.83475E+2  -8.77217E+3
   4.76159E+2  -8.70734E+3
   3.67381E+2  -8.66100E+3
   2.44569E+2  -8.61317E+3
   2.54055E+1  -8.53096E+3
  -1.42411E+2  -8.46890E+3
  -2.88589E+2  -8.37429E+3
  -4.82576E+2  -8.24293E+3
  -6.17067E+2  -8.19075E+3
  -7.84135E+2  -8.18891E+3
  -8.47967E+2  -8.08935E+3
  -9.75990E+2  -7.95858E+3
  -1.10581E+3  -7.82578E+3
  -1.26267E+3  -7.73847E+3
  -1.40854E+3  -7.72431E+3
  -1.56464E+3  -7.63601E+3
  -1.64275E+3  -7.53719E+3
  -1.75204E+3  -7.36720E+3
  -1.87284E+3  -7.32802E+3
  -2.01702E+3  -7.24032E+3
  -2.11829E+3  -7.12492E+3
  -2.25913E+3  -7.06830E+3
  -2.30052E+3  -6.95840E+3
  -2.44922E+3  -6.87112E+3
  -2.55093E+3  -6.76988E+3
  -2.64858E+3  -6.70293E+3
  -2.72085E+3  -6.54754E+3
  -2.90597E+3  -6.40907E+3
  -2.94446E+3  -6.32866E+3
  -3.07327E+3  -6.27498E+3
  -3.06250E+3  -6.14819E+3
  -3.17884E+3  -5.92280E+3
  -3.24396E+3  -5.96624E+3
  -3.34791E+3  -5.82957E+3
  -3.42912E+3  -5.72276E+3
  -3.50414E+3  -5.63488E+3
  -3.56953E+3  -5.51967E+3
  -3.65197E+3  -5.39855E+3
  -3.67267E+3  -5.34978E+3
  -3.67664E+3  -5.18840E+3
  -3.83748E+3  -5.10867E+3
  -3.86185E+3  -4.98775E+3
  -3.97261E+3  -4.92649E+3
  -3.99535E+3  -4.76438E+3
  -3.99533E+3  -4.63691E+3
  -4.09191E+3  -4.53208E+3
  -4.15791E+3  -4.49428E+3
  -4.20953E+3  -4.30727E+3
  -4.22555E+3  -4.13590E+3
  -4.31047E+3  -4.12445E+3
  -4.33759E+3  -3.99175E+3
  -4.41177E+3  -3.88692E+3
  -4.36228E+3  -3.84829E+3
  -4.42287E+3  -3.70177E+3
  -4.39714E+3  -3.58996E+3
  -4.40081E+3  -3.47544E+3
  -4.49490E+3  -3.40503E+3
  -4.50892E+3  -3.25013E+3
  -4.58149E+3  -3.15327E+3
  -4.53853E+3  -3.14380E+3
  -4.56014E+3  -3.01111E+3
  -4.53133E+3  -2.84688E+3
  -4.53574E+3  -2.81258E+3
  -4.57139E+3  -2.68887E+3
  -4.62444E+3  -2.55128E+3
  -4.57961E+3  -2.54761E+3
  -4.60009E+3  -2.37707E+3
  -4.59161E+3  -2.31342E+3
  -4.61237E+3  -2.20214E+3
  -4.62494E+3  -2.12083E+3
  -4.63659E+3  -2.11677E+3
  -4.60644E+3  -1.99214E+3
  -4.57139E+3  -1.83607E+3
  -4.61519E+3  -1.78907E+3
  -4.59146E+3  -1.63448E+3
  -4.60191E+3  -1.69957E+3
  -4.57262E+3  -1.51329E+3
  -4.54532E+3  -1.43227E+3
  -4.60375E+3  -1.41526E+3
  -4.54201E+3  -1.25324E+3
  -4.51916E+3  -1.25822E+3
  -4.55560E+3  -1.10318E+3
  -4.53243E+3  -1.01673E+3
  -4.47492E+3  -1.02089E+3
  -4.42117E+3  -9.17651E+2
  -4.41945E+3  -8.20084E+2
  -4.46080E+3  -7.45811E+2
  -4.42686E+3  -6.86845E+2
  -4.38002E+3  -6.24596E+2
  -4.34099E+3  -5.71020E+2
  -4.33244E+3  -4.52748E+2
  -4.30049E+3  -4.55131E+2
  -4.25988E+3  -4.06971E+2
  -4.19289E+3  -2.99545E+2
  -4.21495E+3  -1.92155E+2
  -4.21042E+3  -1.85082E+2
