 
 $NMID
 ID=''
 FMTDAT='(2E13.5)'
 TRAMP=   1.00000E+0
 VOLUME=   1.00000E+0
 $END
   1.17275E+3   1.80654E+4
  -1.00627E+4   4.53795E+4
  -1.55721E+3   4.61427E+4
  -9.20099E+2   4.21952E+4
  -1.89369E+3   4.34402E+4
   5.18003E+2   4.35484E+4
   4.65029E+2   4.19131E+4
  -9.99689E+1   4.24323E+4
   1.56288E+3   4.24521E+4
   1.85257E+3   4.14368E+4
   1.87076E+3   4.16927E+4
   3.32172E+3   4.16491E+4
   3.93721E+3   4.07407E+4
   3.87080E+3   4.09619E+4
   5.01758E+3   4.08091E+4
   5.50515E+3   3.99535E+4
   5.67418E+3   4.00929E+4
   6.55587E+3   3.99922E+4
   6.98716E+3   3.93989E+4
   7.11607E+3   3.93466E+4
   7.81135E+3   3.92167E+4
   8.28879E+3   3.86960E+4
   8.50199E+3   3.86213E+4
   9.01455E+3   3.83493E+4
   9.32982E+3   3.78495E+4
   9.56274E+3   3.76536E+4
   9.98764E+3   3.74897E+4
   1.03166E+4   3.69375E+4
   1.04067E+4   3.68137E+4
   1.08347E+4   3.64913E+4
   1.13232E+4   3.60063E+4
   1.17055E+4   3.57740E+4
   1.20342E+4   3.55995E+4
   1.24129E+4   3.51618E+4
   1.27546E+4   3.48856E+4
   1.31834E+4   3.46466E+4
   1.35982E+4   3.42528E+4
   1.39117E+4   3.39359E+4
   1.43549E+4   3.37032E+4
   1.47626E+4   3.32909E+4
   1.49904E+4   3.29889E+4
   1.52052E+4   3.28361E+4
   1.53401E+4   3.23880E+4
   1.55859E+4   3.19703E+4
   1.57787E+4   3.15705E+4
   1.60444E+4   3.11372E+4
   1.60632E+4   3.07446E+4
   1.63757E+4   3.03030E+4
   1.65507E+4   2.99887E+4
   1.66135E+4   2.95274E+4
   1.67526E+4   2.91056E+4
   1.68623E+4   2.85262E+4
   1.70853E+4   2.80916E+4
   1.72675E+4   2.76587E+4
   1.73720E+4   2.70861E+4
   1.74905E+4   2.66427E+4
   1.77183E+4   2.61668E+4
   1.78449E+4   2.57496E+4
   1.79263E+4   2.51633E+4
   1.81301E+4   2.46545E+4
   1.83110E+4   2.40911E+4
   1.84405E+4   2.36797E+4
   1.86371E+4   2.31528E+4
   1.87697E+4   2.27842E+4
   1.89796E+4   2.23948E+4
   1.91163E+4   2.18089E+4
   1.93242E+4   2.14386E+4
   1.94589E+4   2.10767E+4
   1.96459E+4   2.05487E+4
   1.97823E+4   2.01929E+4
   1.99397E+4   1.97932E+4
   2.01368E+4   1.94012E+4
   2.01865E+4   1.89767E+4
   2.03541E+4   1.85327E+4
   2.05396E+4   1.82190E+4
   2.07416E+4   1.78359E+4
   2.08863E+4   1.74587E+4
   2.09364E+4   1.71369E+4
   2.10589E+4   1.68298E+4
   2.12172E+4   1.65021E+4
   2.12768E+4   1.61537E+4
   2.14089E+4   1.58169E+4
   2.14643E+4   1.55191E+4
   2.15793E+4   1.52157E+4
   2.16293E+4   1.49717E+4
   2.16111E+4   1.47160E+4
   2.16512E+4   1.44948E+4
   2.15892E+4   1.41081E+4
   2.16378E+4   1.38748E+4
   2.16680E+4   1.35173E+4
   2.17212E+4   1.33533E+4
   2.16731E+4   1.30288E+4
   2.16803E+4   1.27740E+4
   2.17252E+4   1.25779E+4
   2.16990E+4   1.22630E+4
   2.15538E+4   1.19793E+4
   2.15513E+4   1.16324E+4
   2.14904E+4   1.14372E+4
   2.14068E+4   1.12111E+4
   2.12860E+4   1.08986E+4
   2.12005E+4   1.06819E+4
   2.11563E+4   1.03382E+4
   2.10486E+4   1.00538E+4
   2.10350E+4   9.73145E+3
   2.08811E+4   9.49400E+3
   2.07181E+4   9.21597E+3
   2.06660E+4   8.96490E+3
   2.05482E+4   8.76797E+3
   2.04994E+4   8.41697E+3
   2.02762E+4   8.19171E+3
   2.02789E+4   7.90376E+3
   2.01395E+4   7.58893E+3
   2.00584E+4   7.39570E+3
   1.99185E+4   7.11534E+3
   1.98162E+4   6.91926E+3
   1.97014E+4   6.63382E+3
   1.95748E+4   6.40251E+3
   1.95335E+4   6.17348E+3
   1.92883E+4   6.05172E+3
   1.91860E+4   5.79109E+3
   1.90346E+4   5.60043E+3
   1.89726E+4   5.42312E+3
   1.87995E+4   5.25767E+3
   1.86114E+4   5.01942E+3
   1.86117E+4   4.85599E+3
   1.82770E+4   4.69099E+3
   1.81427E+4   4.49100E+3
   1.80952E+4   4.34971E+3
   1.79220E+4   4.08790E+3
   1.77085E+4   3.94214E+3
   1.75464E+4   3.86518E+3
   1.74054E+4   3.68686E+3
   1.71579E+4   3.46917E+3
   1.69833E+4   3.28799E+3
   1.67814E+4   3.16964E+3
   1.66056E+4   3.00450E+3
   1.63739E+4   2.90301E+3
   1.62201E+4   2.65463E+3
   1.59730E+4   2.57058E+3
   1.57470E+4   2.35492E+3
   1.54970E+4   2.19931E+3
   1.53925E+4   2.04776E+3
   1.50781E+4   1.83317E+3
   1.48686E+4   1.74434E+3
   1.46865E+4   1.51247E+3
   1.44401E+4   1.31546E+3
   1.41600E+4   1.23081E+3
   1.40356E+4   1.00759E+3
   1.37642E+4   8.82753E+2
   1.36518E+4   6.68613E+2
   1.33665E+4   4.93936E+2
   1.30787E+4   4.02361E+2
   1.29082E+4   2.29170E+2
   1.26996E+4   9.39283E+1
   1.25105E+4  -5.85552E+1
   1.22641E+4  -2.25491E+2
   1.20875E+4  -3.85638E+2
   1.19139E+4  -5.44030E+2
   1.17625E+4  -6.43206E+2
   1.14499E+4  -7.61659E+2
   1.13232E+4  -9.29442E+2
   1.11113E+4  -1.06625E+3
   1.08664E+4  -1.18014E+3
   1.06583E+4  -1.33196E+3
   1.05383E+4  -1.49067E+3
   1.03247E+4  -1.55622E+3
   1.01068E+4  -1.72083E+3
   9.87727E+3  -1.81103E+3
   9.71244E+3  -1.95552E+3
   9.57479E+3  -2.06717E+3
   9.33328E+3  -2.17726E+3
   9.09105E+3  -2.26063E+3
   8.99865E+3  -2.31739E+3
   8.76153E+3  -2.46835E+3
   8.63780E+3  -2.55218E+3
   8.40536E+3  -2.59122E+3
   8.19413E+3  -2.72069E+3
   8.04331E+3  -2.89644E+3
   7.82401E+3  -2.91462E+3
   7.65302E+3  -2.98786E+3
   7.55715E+3  -3.11006E+3
   7.28202E+3  -3.16917E+3
   7.05921E+3  -3.25930E+3
   6.95488E+3  -3.36692E+3
   6.67732E+3  -3.34705E+3
   6.58820E+3  -3.47796E+3
   6.33004E+3  -3.52122E+3
   6.19461E+3  -3.64312E+3
   6.03030E+3  -3.70574E+3
   5.79029E+3  -3.74520E+3
   5.62408E+3  -3.87567E+3
   5.44751E+3  -3.85193E+3
   5.29436E+3  -3.96886E+3
   5.05271E+3  -4.03191E+3
   4.99379E+3  -4.07811E+3
   4.89285E+3  -4.13450E+3
   4.73767E+3  -4.19333E+3
   4.51102E+3  -4.28115E+3
   4.42908E+3  -4.27462E+3
   4.23613E+3  -4.40590E+3
   4.15280E+3  -4.38390E+3
   3.96086E+3  -4.41285E+3
   3.88081E+3  -4.49357E+3
   3.72793E+3  -4.54908E+3
   3.60283E+3  -4.60401E+3
   3.53681E+3  -4.70850E+3
   3.41435E+3  -4.72452E+3
   3.29569E+3  -4.69870E+3
   3.13313E+3  -4.72737E+3
   3.02120E+3  -4.75377E+3
   2.91780E+3  -4.81970E+3
   2.80350E+3  -4.84907E+3
   2.67153E+3  -4.89785E+3
   2.58795E+3  -4.88752E+3
   2.51526E+3  -4.91784E+3
   2.34554E+3  -4.91080E+3
   2.26357E+3  -4.96960E+3
   2.22843E+3  -4.92226E+3
   2.12624E+3  -4.91339E+3
   2.02661E+3  -4.94854E+3
   1.91458E+3  -4.98732E+3
   1.82940E+3  -5.02464E+3
   1.74628E+3  -4.94363E+3
   1.67242E+3  -4.97340E+3
   1.61665E+3  -5.03553E+3
   1.48244E+3  -4.95368E+3
   1.38750E+3  -4.92858E+3
   1.29883E+3  -4.98159E+3
   1.30688E+3  -5.02544E+3
   1.22524E+3  -4.96393E+3
   1.08082E+3  -4.96019E+3
   1.02932E+3  -5.00070E+3
   9.43647E+2  -4.94262E+3
   8.68545E+2  -4.92155E+3
   7.92520E+2  -4.91627E+3
   6.67674E+2  -4.96268E+3
   6.61570E+2  -5.01357E+3
   6.06648E+2  -4.89584E+3
   5.45222E+2  -4.96964E+3
   4.58356E+2  -4.97068E+3
   4.15980E+2  -4.82075E+3
   3.82806E+2  -4.86573E+3
   3.76082E+2  -4.84151E+3
   2.63087E+2  -4.91937E+3
   1.91021E+2  -4.83911E+3
   1.93339E+2  -4.78843E+3
   8.99976E+1  -4.80165E+3
   4.11054E+1  -4.88116E+3
  -3.21157E+1  -4.80406E+3
  -2.64189E+1  -4.68135E+3
  -8.81070E+1  -4.75024E+3
  -1.47062E+2  -4.77266E+3
  -1.56590E+2  -4.70559E+3
  -2.48888E+2  -4.64993E+3
  -2.80706E+2  -4.63483E+3
  -2.88672E+2  -4.59861E+3
  -3.51250E+2  -4.57649E+3
  -3.56680E+2  -4.56342E+3
  -3.69450E+2  -4.54533E+3
  -4.47734E+2  -4.47158E+3
  -4.49328E+2  -4.42259E+3
  -4.96589E+2  -4.42812E+3
  -5.59723E+2  -4.38416E+3
  -5.79990E+2  -4.31147E+3
  -6.12875E+2  -4.34883E+3
  -5.79712E+2  -4.22889E+3
  -6.57903E+2  -4.20878E+3
  -6.77346E+2  -4.25347E+3
  -7.44830E+2  -4.17358E+3
  -7.23817E+2  -4.14276E+3
  -6.81514E+2  -4.11542E+3
  -7.91607E+2  -4.02137E+3
  -8.24267E+2  -4.03324E+3
  -8.07596E+2  -4.04257E+3
  -8.89451E+2  -3.91214E+3
  -8.84432E+2  -3.90508E+3
  -9.71309E+2  -3.83427E+3
  -9.33874E+2  -3.77513E+3
  -9.48817E+2  -3.74403E+3
  -1.06169E+3  -3.66762E+3
  -1.00138E+3  -3.63853E+3
  -1.00444E+3  -3.60562E+3
  -1.00247E+3  -3.58194E+3
  -1.08612E+3  -3.51775E+3
  -1.07516E+3  -3.54066E+3
  -1.08165E+3  -3.49127E+3
  -1.11740E+3  -3.41066E+3
  -1.14981E+3  -3.40691E+3
  -1.12720E+3  -3.34945E+3
  -1.12498E+3  -3.31683E+3
  -1.16767E+3  -3.24989E+3
  -1.15359E+3  -3.18218E+3
  -1.09829E+3  -3.23836E+3
  -1.21186E+3  -3.14785E+3
  -1.16695E+3  -3.12301E+3
  -1.16647E+3  -3.12628E+3
  -1.19206E+3  -3.04619E+3
  -1.18084E+3  -2.97764E+3
  -1.15353E+3  -2.98801E+3
  -1.18341E+3  -2.88090E+3
  -1.17814E+3  -2.87755E+3
  -1.15270E+3  -2.79279E+3
  -1.19026E+3  -2.70177E+3
  -1.20366E+3  -2.68976E+3
  -1.17418E+3  -2.68872E+3
  -1.18083E+3  -2.59350E+3
  -1.19530E+3  -2.60349E+3
  -1.16773E+3  -2.46598E+3
  -1.14869E+3  -2.50403E+3
  -1.16668E+3  -2.41434E+3
  -1.18756E+3  -2.36961E+3
  -1.15200E+3  -2.31499E+3
  -1.11549E+3  -2.30708E+3
  -1.15232E+3  -2.30080E+3
  -1.21181E+3  -2.16396E+3
  -1.09121E+3  -2.18824E+3
  -1.21816E+3  -2.13141E+3
  -1.13343E+3  -2.14672E+3
  -1.11264E+3  -1.98053E+3
  -1.19160E+3  -1.94064E+3
  -1.18250E+3  -1.97443E+3
  -1.19858E+3  -1.86015E+3
  -1.13901E+3  -1.84812E+3
  -1.11554E+3  -1.78475E+3
  -1.11326E+3  -1.80797E+3
  -1.11662E+3  -1.68937E+3
  -1.11182E+3  -1.66459E+3
  -1.14222E+3  -1.66018E+3
  -1.06549E+3  -1.68241E+3
  -1.15691E+3  -1.54929E+3
  -1.17617E+3  -1.53506E+3
  -1.16642E+3  -1.50228E+3
  -1.06513E+3  -1.48589E+3
  -1.12211E+3  -1.36105E+3
  -1.08082E+3  -1.38832E+3
  -1.09721E+3  -1.34796E+3
  -1.00867E+3  -1.29148E+3
  -1.00616E+3  -1.30338E+3
  -1.06156E+3  -1.24187E+3
  -1.00147E+3  -1.18230E+3
  -1.07969E+3  -1.15932E+3
  -1.04277E+3  -1.11628E+3
  -1.01981E+3  -1.09304E+3
  -1.03105E+3  -9.49627E+2
  -1.01429E+3  -1.02202E+3
  -9.70689E+2  -1.01613E+3
  -9.21061E+2  -9.30955E+2
  -9.55981E+2  -9.83936E+2
  -9.09129E+2  -8.99315E+2
  -9.01978E+2  -9.04171E+2
  -9.02977E+2  -8.34547E+2
  -8.95713E+2  -7.96261E+2
  -8.68486E+2  -7.45358E+2
  -8.99498E+2  -7.88091E+2
  -8.68298E+2  -7.24891E+2
  -8.85699E+2  -7.30727E+2
  -8.27361E+2  -6.87711E+2
  -8.22730E+2  -6.29111E+2
  -8.10364E+2  -6.83626E+2
  -7.80557E+2  -6.57028E+2
  -8.13598E+2  -6.78800E+2
  -8.23468E+2  -6.70393E+2
  -7.89540E+2  -6.08768E+2
  -6.99437E+2  -5.08010E+2
  -7.84181E+2  -5.54212E+2
  -7.35872E+2  -5.57137E+2
  -7.29763E+2  -5.18029E+2
