 
 $NMID
 ID=''
 FMTDAT='(2E13.5)'
 TRAMP=   1.00000E+0
 VOLUME=   1.00000E+0
 $END
  -5.52454E+2  -3.32155E+2
   7.49193E+1  -1.10821E+3
  -6.24538E+3   3.86904E+2
  -1.32255E+3   4.76237E+3
   3.40792E+3   3.61035E+3
   4.10039E+3   1.03821E+1
   1.09625E+3  -1.71511E+3
   1.09660E+3   1.38217E+3
  -1.08396E+3  -2.18795E+2
  -4.37203E+3  -1.50162E+3
  -3.62938E+3   3.34501E+2
  -3.46122E+2   1.40637E+3
   4.16894E+3   1.39123E+3
   1.85220E+3   3.04796E+3
  -6.86294E+2   6.86846E+2
  -3.17670E+2   1.88227E+3
  -2.27391E+3  -2.19001E+3
   1.52988E+3  -2.64514E+3
   3.79089E+2  -1.50778E+3
  -5.20256E+2   1.46873E+3
  -1.91123E+3  -3.17020E+1
  -2.63728E+3  -3.55796E+3
   1.84067E+3   2.83554E+2
   1.01060E+2   3.53135E+3
  -3.75177E+3  -8.15461E+2
   2.78050E+3  -4.67861E+3
   3.55187E+3  -1.48653E+3
  -4.48011E+2   1.26898E+3
  -4.45683E+3  -3.07602E+2
  -3.10640E+3  -3.07058E+3
  -6.43065E+2  -5.61658E+3
   3.07348E+3  -1.34477E+3
   1.18984E+3   5.95567E+2
   2.82491E+3  -6.04509E+2
   4.38022E+2  -2.59342E+3
  -2.02722E+3   3.04327E+2
  -3.90617E+3   4.90491E+2
  -3.65956E+3  -3.87821E+3
   1.05655E+3  -2.06995E+3
   5.17579E+2  -1.29843E+2
   1.94932E+3   4.52789E+2
   3.03413E+3   3.68322E+3
  -1.29349E+3   3.47349E+3
  -2.77614E+3   1.14443E+3
  -2.39736E+3  -2.07338E+3
  -2.65554E+2  -1.49177E+3
  -8.87653E+2  -1.64713E+3
   1.06645E+3  -2.32789E+2
   3.48269E+3   1.90561E+2
   2.20683E+3   1.21018E+3
   7.66750E+2   3.68733E+3
  -1.26932E+3   2.50172E+3
  -2.12296E+3  -7.78293E+2
  -4.85951E+2  -1.30767E+3
   3.42819E+3  -3.87377E+2
   2.80836E+3  -1.02970E+3
   5.26318E+3  -5.01376E+2
   4.31787E+3   1.38318E+3
   2.29480E+3   2.28653E+3
  -1.44666E+3   5.20449E+2
  -1.97453E+3  -3.60455E+3
  -2.67233E+3  -1.15395E+3
  -6.79274E+2  -2.83872E+3
   2.50887E+3   1.52300E+3
   9.56027E+2  -2.71248E+1
   9.72980E+0  -2.06528E+3
   4.15156E+3  -2.45890E+3
   4.20422E+3  -6.71224E+2
   2.44985E+3   9.50014E+2
   9.87900E+2   2.18752E+3
   7.60414E+2   1.53939E+2
   1.46694E+3   1.07980E+2
  -1.64354E+3   3.24854E+3
   2.86355E+2   2.31317E+3
  -7.93914E+2   1.49970E+3
  -1.63573E+3  -3.50058E+0
  -3.27982E+2   1.80509E+3
   1.37025E+2   3.57371E+3
  -1.06872E+3  -1.72693E+2
  -1.45265E+1   3.87458E+1
   2.23843E+3   6.50287E+2
   5.30898E+2  -9.08852E+2
   1.57496E+3  -2.41439E+3
   3.05170E+2  -1.71907E+3
   4.93978E+2  -3.71295E+1
  -2.81901E+2  -8.74860E+2
   1.24826E+3   2.72774E+3
  -1.53135E+3   4.65630E+3
  -3.19335E+3   2.40193E+3
   7.08599E+2   9.58178E+2
   9.52521E+2   1.36096E+3
  -1.56970E+3   1.44741E+3
  -1.36681E+3   2.29673E+1
  -1.06524E+3  -2.36892E+3
   2.60718E+3   1.54627E+2
   2.95058E+3   2.38738E+3
  -1.07906E+3   3.40918E+3
  -4.23117E+3  -3.47566E+3
   1.86522E+2  -2.88794E+3
   1.00416E+3   3.87549E+2
  -4.08666E+2   2.51259E+3
  -3.03941E+3   2.79427E+3
  -2.50475E+3  -9.56477E+1
  -8.92141E+2  -1.41225E+3
   1.13281E+3  -1.23044E+3
  -3.86244E+2   1.80439E+3
  -1.52634E+3  -1.29521E+3
   1.49133E+3  -1.96975E+3
   1.56893E+3   5.85492E+2
   4.32930E+2   2.23042E+3
  -1.69933E+3   3.50108E+3
  -4.92165E+2   1.10170E+3
  -8.02266E+2   1.10896E+3
  -2.28298E+3  -8.71813E+1
  -5.16186E+2  -1.66343E+3
  -3.34845E+3  -2.84313E+3
   1.06100E+2  -4.46712E+2
  -1.83960E+3   4.89781E+2
   2.01001E+3   5.54304E+1
  -1.41043E+3   2.69409E+3
  -4.88957E+3  -4.13997E+2
   2.19623E+2  -3.24957E+3
   3.13941E+3  -1.81092E+3
   1.81453E+3   1.27775E+3
   2.58476E+2   8.23624E+2
   1.93537E+3   1.41632E+2
   2.85460E+3   2.40765E+2
   1.46440E+2   1.14465E+3
  -1.71344E+3  -1.52984E+3
   3.88235E+1  -1.50294E+3
  -3.68803E+2  -2.30646E+3
  -1.56962E+3  -1.13053E+3
  -2.44334E+3   1.52072E+3
  -3.03058E+3   4.69697E+2
  -3.99010E+3  -2.92077E+3
  -1.94117E+2  -9.83138E+2
   1.00013E+3  -2.03551E+3
   1.72571E+3   3.63799E+2
   5.36943E+2  -2.68241E+3
  -5.75964E+2  -2.23139E+3
   1.04813E+3  -1.42431E+3
  -2.48151E+2   7.48575E+2
  -3.13461E+2   2.38853E+3
  -5.71347E+2   6.47665E+2
   7.02932E+2  -1.87685E+3
   1.08875E+3   2.97191E+2
   1.79490E+2  -1.83019E+2
  -3.30074E+2   4.86590E+2
  -8.24235E+2   3.26053E+2
  -6.77014E+2   1.11729E+3
  -6.49139E+2  -4.95974E+2
   6.38135E+2  -1.96101E+3
   1.63592E+3  -2.04085E+2
   1.36117E+2  -3.70881E+2
   1.21892E+3  -1.31787E+3
   1.01685E+3   8.57889E+2
  -5.72881E+2   4.98362E+2
  -6.35282E+2  -1.90620E+3
  -6.33715E+2   1.46025E+2
  -6.51291E+2   1.41010E+3
  -1.57583E+3   1.95357E+3
   4.89478E+1  -5.56430E+2
   1.32716E+3  -2.42909E+2
   1.55404E+3   2.35147E+3
  -2.72559E+2   1.38865E+3
  -6.60257E+2  -7.82372E+2
  -4.69903E+2  -2.50761E+3
   5.29855E+2  -8.45671E+2
   2.18640E+3   1.21229E+2
  -1.49024E+3   2.04975E+3
  -1.44688E+3   1.24293E+3
   4.51112E+2  -2.03858E+3
  -8.55390E+2   2.17539E+2
  -3.55595E+1   1.14240E+3
   6.56606E+2  -6.32657E+1
  -4.61169E+2   9.05457E+2
   5.43354E+2  -7.75037E+2
   6.38462E+2   1.18442E+3
  -1.10263E+3   4.01666E+3
  -1.00352E+3  -1.50635E+3
  -4.54651E+2   3.25166E+2
   7.05937E+2  -3.67118E+2
  -1.39555E+2  -2.39786E+2
   2.30117E+2   1.28056E+3
   1.60512E+3   1.20312E+2
   7.79604E+2   5.56949E+2
   7.03158E+2   1.35012E+3
  -1.69391E+3  -1.18330E+1
  -1.21614E+3  -1.11076E+3
  -7.36553E+2  -1.25931E+3
   3.28255E+1   4.91095E+2
   1.71675E+3   1.62194E+3
   5.90183E+2   2.37321E+2
   1.61265E+3  -1.97904E+3
   2.09650E+3  -1.16086E+3
  -3.12971E+2   2.45124E+2
  -1.29208E+2   1.13604E+3
  -2.51342E+2  -1.00731E+2
   1.48716E+3  -1.20466E+3
   8.68474E+2   9.01877E+2
  -3.21680E+2   2.20815E+2
  -5.63475E+2  -1.66741E+3
   8.81386E+1  -2.46631E+3
   4.96586E+2  -2.51343E+3
   1.12865E+3   1.57917E+3
  -4.56520E+2   7.55835E+2
   9.97648E+2  -5.75830E+2
   1.89260E+3  -5.52444E+2
   1.91153E+3  -1.01446E+3
   3.83776E+2   9.33556E+2
   4.76770E+1  -7.50648E+2
  -8.62245E+2  -1.78736E+3
   4.74567E+2  -2.36429E+2
   1.25261E+3  -8.82619E+2
  -9.29089E+2   2.81194E+3
  -9.69590E+2   6.95270E+2
  -2.49802E+2  -4.37316E+2
  -7.52136E+2  -5.14837E+2
  -9.41733E+2  -4.01751E+2
  -1.97279E+2   1.27659E+3
  -4.83961E+2  -1.61186E+3
  -6.90875E+2  -1.00499E+3
  -7.26792E+1  -4.56354E+2
   1.51994E+2   6.88646E+2
  -2.65599E+3   2.09943E+2
  -6.82240E+2  -1.61410E+3
  -1.93248E+2  -1.49754E+3
  -1.22810E+3  -1.80995E+3
  -2.55727E+3   1.21297E+3
  -1.77846E+3   2.29053E+3
  -5.72001E+2   1.65279E+3
  -4.60873E+2   1.32118E+3
  -2.78329E+3   4.45679E+2
   2.28211E+1  -2.25259E+2
  -1.18642E+3  -2.95671E+3
   1.11572E+3  -2.96236E+3
  -1.59712E+3   1.08965E+3
  -1.16064E+3  -2.80050E+2
  -3.51824E+2  -1.12104E+3
   8.97413E+2  -1.12222E+3
   2.26530E+2   1.07120E+3
  -2.81656E+2  -5.15122E+2
   1.78954E+3  -3.20771E+1
  -1.03083E+3   4.07504E+2
   7.35946E+2  -1.19618E+2
  -2.51673E+2  -3.97463E+2
   3.03148E+2   1.30330E+3
  -8.52516E+2  -1.09029E+3
   1.93620E+3   6.67250E+2
  -1.06528E+2  -8.70470E+2
   3.18303E+2   5.63123E+2
  -1.49209E+3   2.25614E+2
   3.96742E+2   2.54229E+3
  -1.64611E+2   1.38596E+3
   1.45875E+3   1.68629E+3
   1.61897E+2   2.03765E+3
  -1.35373E+3   5.64990E+2
   9.03916E+2  -1.28554E+3
  -1.02047E+3   3.54568E+2
   1.06809E+3   4.39721E+2
   3.65073E+1   8.01720E+2
  -8.31695E+2   1.23198E+3
  -1.23992E+2  -1.63734E+3
  -6.42472E+2   1.83572E+1
  -1.22132E+3  -1.59127E+1
   6.16395E+2   9.83656E+2
  -2.38171E+2  -2.35248E+1
  -1.79262E+3  -3.27333E+2
  -2.27144E+1   1.42425E+3
  -1.61823E+3   8.37668E+2
  -9.54135E+2  -9.72062E+2
   2.76978E+3  -2.63902E+3
   2.48819E+3   2.09634E+3
   3.28376E+2  -4.25773E+1
  -3.51811E+2   1.60833E+3
  -1.90212E+3  -4.89592E+2
  -3.21727E+2   1.19550E+3
   8.85456E+2   4.62452E+2
  -1.91435E+3  -9.12473E+2
   2.66894E+3   1.99695E+3
   1.00462E+3  -1.34741E+3
   1.11683E+2   1.97373E+3
   1.05349E+3   1.54148E+3
  -2.86425E+2   5.93408E+2
  -2.31122E+3   7.10280E+2
  -7.05358E+2   2.21112E+2
  -7.59833E+2  -2.10074E+1
   3.29151E+2  -3.43050E+2
  -2.16554E+3  -4.57040E+2
  -2.08455E+2  -9.80123E+2
   3.21862E+2   5.61811E+2
  -2.02018E+3  -1.36449E+3
  -2.51654E+2  -1.03599E+3
   7.37711E+2   3.61010E+2
  -3.22458E+2  -4.51877E+2
   5.04286E+2   1.05836E+3
   6.80659E+2   2.48567E+3
  -8.08804E+2  -5.43169E+2
  -5.56945E+2  -6.54373E+2
  -9.90788E+2  -8.31080E+2
   5.41473E+2  -1.09765E+3
  -1.08845E+2  -2.78594E+2
   1.54976E+3  -9.37877E+2
   1.07088E+3   3.54118E+2
   1.69328E+3   2.84988E+2
  -1.08796E+3   9.30547E+2
  -1.19525E+3  -4.71166E+2
  -2.17387E+3  -1.51726E+3
   6.85885E+2  -1.82395E+3
   1.00448E+3  -5.27673E+2
  -5.31149E+2  -4.33816E+2
  -1.00907E+2  -9.12778E+2
   1.19960E+3  -6.67911E+2
  -1.81893E+3  -9.45740E+2
  -1.04159E+3   8.92868E+2
   1.72028E+3  -1.79146E+3
  -1.80007E+3   1.67358E+2
  -1.35132E+3   1.74216E+3
  -9.04928E+1   7.91358E+2
  -2.66522E+3  -1.65768E+3
  -1.07553E+3   4.98537E+2
   3.67542E+2  -1.50366E+3
  -8.26521E+2  -3.68527E+2
  -4.56186E+2  -4.54084E+1
  -2.06430E+2  -6.70069E+2
   2.13818E+3  -1.44944E+2
  -9.10223E+1   7.94690E+2
   1.48167E+3   3.47822E+2
   1.40496E+3  -1.67818E+1
  -2.07782E+3  -1.61301E+3
  -9.17722E+2  -1.18328E+2
   6.48172E+2   5.35769E+2
   9.84231E+1   1.80111E+3
   2.11466E+2  -3.68515E+2
   1.03429E+3   1.59373E+3
   1.07056E+3  -1.23212E+2
  -1.92904E+3   1.44657E+2
  -5.23993E+2   1.85879E+3
  -8.02176E+2  -1.41157E+3
   1.77644E+3   6.01968E+2
   6.55947E+2   5.04296E+2
   1.39376E+3   2.00142E+3
  -1.95454E+3  -6.90102E+2
  -9.86521E+2  -1.84770E+3
   7.25763E+2  -1.24303E+3
   8.67165E+2   2.01761E+2
   2.82412E+2   2.54027E+3
  -2.40921E+3  -1.42918E+3
   9.94183E+2   1.02051E+3
  -5.32317E+2  -2.43191E+2
  -1.07125E+3   8.99098E+2
  -1.04240E+3  -8.63152E+2
  -9.53054E+2  -2.43410E+3
  -1.13983E+3   1.52227E+2
  -1.12592E+3  -2.80495E+2
   9.33263E+0   3.08299E+2
  -7.31251E+2  -2.72853E+2
  -6.88706E+2   2.20025E+2
  -3.46507E+2  -3.15746E+2
  -4.50544E+2   1.86258E+2
  -2.00571E+2   8.85462E+1
  -1.24835E+2   2.37584E+2
  -4.53857E+2  -2.99047E+2
  -3.58552E+2  -6.21643E+0
   4.84371E+2  -5.04551E+2
  -6.33473E+2   1.00209E+3
   6.28591E+2  -1.19685E+3
