 LCModel (Version 6.3-1N) Copyright: S.W. Provencher.          Ref.: Magn. Reson. Med. 30:672-679 (1993).                
 Slice_N1@20_15  02-Jun-2023 14:37:15
 27 lines in following concentration table = NCONC+1
    Conc.  %SD /Cr+PCr  Metabolite                                         
 2.75E-06  11% 3.3E-04 Mac                                                 
 3.30E-02  19%   3.912 Cr                                                  
 3.45E-02  16%   4.088 PCr                                                 
 7.31E-02  10%   8.667 Ins                                                 
 8.17E-02   7%   9.689 NAA                                                 
 7.07E-02   9%   8.384 Tau                                                 
 8.33E-03  67%   0.987 PCho                                                
 3.57E-03 147%   0.423 GPC                                                 
 6.47E-02  12%   7.677 Glu                                                 
 2.94E-02  22%   3.483 Gln                                                 
 1.67E-03 340%   0.198 Ala                                                 
 2.61E-02  45%   3.098 Asc                                                 
 1.35E-02  54%   1.606 Asp                                                 
 1.07E-02  35%   1.273 GABA                                                
 1.23E-02  42%   1.458 Glc                                                 
 1.31E-02  29%   1.552 GSH                                                 
    0.000 999%   0.000 Lac                                                 
 1.40E-02  26%   1.658 NAAG                                                
    0.000 999%   0.000 PE                                                  
 1.19E-02  16%   1.410 GPC+PCho                                            
 9.57E-02   8%  11.347 NAA+NAAG                                            
 9.41E-02  11%  11.160 Glu+Gln                                             
 6.75E-02   8%   8.000 Cr+PCr                                              
 9.57E-02   8%  11.347 NAA+NAAG                                            
 6.75E-02   8%   8.000 Cr+PCr                                              
 9.41E-02  11%  11.160 Glu+Gln                                             
   6 lines in following misc. output table
  FWHM = 0.017 ppm    S/N =   8                                            
  Data shift = 0.023 ppm                                                   
  Ph: -34 deg     -14.0 deg/ppm                                            
  alphaB,S = 5.7E-01,   3.9E-01                                            
   18 spline knots.   Ns = 5(1)                                            
   2 inflections.     1 extrema                                            
  654 points on ppm-axis = NY
      4.000000     3.994181     3.988363     3.982544     3.976726     3.970907     3.965088     3.959270     3.953451     3.947633
      3.941814     3.935995     3.930177     3.924358     3.918540     3.912721     3.906902     3.901084     3.895265     3.889446
      3.883628     3.877809     3.871991     3.866172     3.860353     3.854535     3.848716     3.842898     3.837079     3.831260
      3.825442     3.819623     3.813805     3.807986     3.802167     3.796349     3.790530     3.784712     3.778893     3.773074
      3.767256     3.761437     3.755619     3.749800     3.743981     3.738163     3.732344     3.726526     3.720707     3.714888
      3.709070     3.703251     3.697433     3.691614     3.685795     3.679977     3.674158     3.668339     3.662521     3.656702
      3.650884     3.645065     3.639246     3.633428     3.627609     3.621791     3.615972     3.610153     3.604335     3.598516
      3.592698     3.586879     3.581060     3.575242     3.569423     3.563605     3.557786     3.551967     3.546149     3.540330
      3.534512     3.528693     3.522874     3.517056     3.511237     3.505419     3.499600     3.493781     3.487963     3.482144
      3.476326     3.470507     3.464688     3.458870     3.453051     3.447232     3.441414     3.435595     3.429777     3.423958
      3.418139     3.412321     3.406502     3.400684     3.394865     3.389046     3.383228     3.377409     3.371591     3.365772
      3.359953     3.354135     3.348316     3.342498     3.336679     3.330860     3.325042     3.319223     3.313405     3.307586
      3.301767     3.295949     3.290130     3.284312     3.278493     3.272674     3.266856     3.261037     3.255219     3.249400
      3.243581     3.237763     3.231944     3.226125     3.220307     3.214488     3.208670     3.202851     3.197032     3.191214
      3.185395     3.179577     3.173758     3.167939     3.162121     3.156302     3.150484     3.144665     3.138846     3.133028
      3.127209     3.121391     3.115572     3.109753     3.103935     3.098116     3.092298     3.086479     3.080660     3.074842
      3.069023     3.063205     3.057386     3.051567     3.045749     3.039930     3.034111     3.028293     3.022474     3.016656
      3.010837     3.005018     2.999200     2.993381     2.987563     2.981744     2.975925     2.970107     2.964288     2.958470
      2.952651     2.946832     2.941014     2.935195     2.929377     2.923558     2.917739     2.911921     2.906102     2.900284
      2.894465     2.888646     2.882828     2.877009     2.871191     2.865372     2.859553     2.853735     2.847916     2.842098
      2.836279     2.830460     2.824642     2.818823     2.813004     2.807186     2.801367     2.795549     2.789730     2.783911
      2.778093     2.772274     2.766456     2.760637     2.754818     2.749000     2.743181     2.737363     2.731544     2.725725
      2.719907     2.714088     2.708270     2.702451     2.696632     2.690814     2.684995     2.679177     2.673358     2.667539
      2.661721     2.655902     2.650084     2.644265     2.638446     2.632628     2.626809     2.620991     2.615172     2.609353
      2.603535     2.597716     2.591897     2.586079     2.580260     2.574442     2.568623     2.562804     2.556986     2.551167
      2.545349     2.539530     2.533711     2.527893     2.522074     2.516256     2.510437     2.504618     2.498800     2.492981
      2.487163     2.481344     2.475525     2.469707     2.463888     2.458070     2.452251     2.446432     2.440614     2.434795
      2.428977     2.423158     2.417339     2.411521     2.405702     2.399884     2.394065     2.388246     2.382428     2.376609
      2.370790     2.364972     2.359153     2.353335     2.347516     2.341697     2.335879     2.330060     2.324242     2.318423
      2.312604     2.306786     2.300967     2.295149     2.289330     2.283511     2.277693     2.271874     2.266056     2.260237
      2.254418     2.248600     2.242781     2.236963     2.231144     2.225325     2.219507     2.213688     2.207870     2.202051
      2.196232     2.190414     2.184595     2.178777     2.172958     2.167139     2.161321     2.155502     2.149683     2.143865
      2.138046     2.132228     2.126409     2.120590     2.114772     2.108953     2.103135     2.097316     2.091497     2.085679
      2.079860     2.074042     2.068223     2.062404     2.056586     2.050767     2.044949     2.039130     2.033311     2.027493
      2.021674     2.015856     2.010037     2.004218     1.998400     1.992581     1.986763     1.980944     1.975126     1.969307
      1.963489     1.957670     1.951852     1.946033     1.940215     1.934397     1.928578     1.922760     1.916941     1.911123
      1.905304     1.899486     1.893667     1.887849     1.882030     1.876212     1.870393     1.864575     1.858756     1.852938
      1.847119     1.841301     1.835482     1.829664     1.823845     1.818027     1.812208     1.806390     1.800571     1.794753
      1.788934     1.783116     1.777297     1.771479     1.765660     1.759842     1.754023     1.748205     1.742386     1.736568
      1.730749     1.724931     1.719113     1.713294     1.707476     1.701657     1.695839     1.690020     1.684202     1.678383
      1.672565     1.666746     1.660928     1.655109     1.649291     1.643472     1.637654     1.631835     1.626017     1.620198
      1.614380     1.608561     1.602743     1.596924     1.591106     1.585287     1.579469     1.573650     1.567832     1.562013
      1.556195     1.550376     1.544558     1.538739     1.532921     1.527102     1.521284     1.515465     1.509647     1.503829
      1.498010     1.492192     1.486373     1.480555     1.474736     1.468918     1.463099     1.457281     1.451462     1.445644
      1.439825     1.434007     1.428188     1.422370     1.416551     1.410733     1.404914     1.399096     1.393277     1.387459
      1.381640     1.375822     1.370003     1.364185     1.358366     1.352548     1.346729     1.340911     1.335092     1.329274
      1.323455     1.317637     1.311818     1.306000     1.300182     1.294363     1.288545     1.282726     1.276908     1.271089
      1.265271     1.259452     1.253634     1.247815     1.241997     1.236178     1.230360     1.224541     1.218723     1.212904
      1.207086     1.201267     1.195449     1.189630     1.183812     1.177993     1.172175     1.166356     1.160538     1.154719
      1.148901     1.143082     1.137264     1.131445     1.125627     1.119808     1.113990     1.108171     1.102353     1.096534
      1.090716     1.084898     1.079079     1.073261     1.067442     1.061624     1.055805     1.049987     1.044168     1.038350
      1.032531     1.026713     1.020894     1.015076     1.009257     1.003439     0.997620     0.991802     0.985983     0.980165
      0.974346     0.968528     0.962709     0.956891     0.951072     0.945254     0.939435     0.933617     0.927798     0.921980
      0.916161     0.910343     0.904524     0.898706     0.892887     0.887069     0.881251     0.875432     0.869614     0.863795
      0.857977     0.852158     0.846340     0.840521     0.834703     0.828884     0.823066     0.817247     0.811429     0.805610
      0.799792     0.793973     0.788155     0.782336     0.776518     0.770699     0.764881     0.759062     0.753244     0.747425
      0.741607     0.735788     0.729970     0.724151     0.718333     0.712514     0.706696     0.700877     0.695059     0.689240
      0.683422     0.677603     0.671785     0.665967     0.660148     0.654330     0.648511     0.642693     0.636874     0.631056
      0.625237     0.619419     0.613600     0.607782     0.601963     0.596145     0.590326     0.584508     0.578689     0.572871
      0.567052     0.561234     0.555415     0.549597     0.543778     0.537960     0.532141     0.526323     0.520504     0.514686
      0.508867     0.503049     0.497230     0.491412     0.485593     0.479775     0.473956     0.468138     0.462319     0.456501
      0.450682     0.444864     0.439045     0.433227     0.427408     0.421590     0.415771     0.409953     0.404134     0.398316
      0.392497     0.386679     0.380860     0.375042     0.369223     0.363405     0.357586     0.351767     0.345949     0.340130
      0.334312     0.328493     0.322675     0.316856     0.311038     0.305219     0.299401     0.293582     0.287764     0.281945
      0.276127     0.270308     0.264490     0.258671     0.252853     0.247034     0.241216     0.235397     0.229579     0.223760
      0.217942     0.212123     0.206305     0.200486
 NY phased data points follow
  -1.14737E-01 -3.36361E-01 -3.96191E-01 -3.09459E-01 -3.05495E-01 -3.00809E-01  4.89480E-02  1.46391E-01  4.89970E-02  4.40220E-02
   7.28329E-02  4.33896E-01  6.40968E-01  1.76973E-01  2.89540E-01  6.48163E-01  5.70750E-01  2.14688E-01 -8.70469E-02  1.39007E-02
   1.56110E-01  1.25150E-01 -5.81214E-02 -1.42224E-01  2.73203E-02  1.01994E-01 -2.81353E-01 -1.33024E-01 -1.44577E-02 -3.33171E-02
  -3.98583E-02 -2.54106E-01 -5.32922E-02 -2.68583E-01 -2.07087E-01 -1.53612E-01 -5.40157E-01 -7.63637E-01 -5.15775E-01 -2.73235E-02
   2.78572E-02  4.44309E-01  4.36432E-01  4.40526E-02  2.24973E-01  3.25250E-01  3.84120E-01  2.38411E-01  1.48081E-01  2.75194E-01
   2.26903E-01  1.02586E-01 -4.50332E-04  1.13181E-01  2.85626E-01 -9.55807E-02 -4.01119E-01 -7.50866E-02 -2.33908E-01 -2.66232E-01
  -1.41070E-01 -4.40180E-01 -2.43164E-01 -2.22270E-02 -1.34165E-01 -8.21405E-02  8.43315E-02  6.18211E-02  5.34481E-01  5.64716E-01
   1.62409E-01  2.20878E-01 -1.27584E-01  1.04882E-02  9.11006E-02 -1.45259E-01 -1.39935E-01 -1.60493E-01 -2.74093E-01 -9.06966E-01
  -6.03657E-01 -7.44866E-02 -1.70603E-01  1.28954E-01  4.10137E-01  4.36056E-01  2.62450E-01  3.17322E-01  2.08070E-01  1.84669E-01
   2.42530E-01 -2.23268E-02  3.44625E-03 -6.61384E-02  7.48838E-02  5.09710E-03 -1.75988E-01 -4.53574E-02 -3.69725E-01 -4.18901E-01
  -4.57690E-01 -3.07740E-01  2.07343E-01  2.16966E-02  3.34752E-01  3.51891E-01  1.80971E-01  6.33345E-01  3.71644E-01  3.27665E-01
   3.22417E-01  2.45370E-01  3.53117E-01  3.24646E-01  3.03270E-01  2.92512E-01  3.59060E-01  3.65948E-01  5.41743E-01  3.08713E-01
  -6.46313E-02  1.66834E-01  2.21706E-01  1.33351E-01  3.51057E-02 -3.46669E-01 -1.30244E-01 -2.29305E-01 -6.29301E-01 -6.05390E-01
  -8.56499E-01 -9.09373E-01 -5.50724E-01 -1.07741E-01 -3.17004E-01 -9.28463E-01 -8.98174E-01 -6.21070E-01 -6.04780E-01 -2.55276E-01
  -1.83671E-01 -1.77283E-01 -8.56093E-02 -1.22948E-01  8.45296E-02 -8.43859E-02  1.44231E-01  2.91812E-01 -2.06189E-02 -2.38060E-02
   2.35361E-01  2.68090E-01  3.91254E-01  3.07586E-01  1.78005E-01  4.08965E-01  7.65861E-02  1.22240E-01  5.47777E-01  4.73592E-01
   3.01599E-01  8.06673E-01  7.77463E-01  5.58654E-01  8.63989E-01  1.04856E+00  1.14474E+00  1.14694E-02 -1.08213E+00 -1.10781E+00
  -6.63350E-01 -4.70012E-01 -5.88834E-01 -3.88802E-01 -3.34667E-01 -4.71476E-01 -4.97947E-01 -3.83011E-01 -3.40522E-01 -4.90343E-01
  -2.82223E-01 -1.55420E-01 -2.68802E-01 -2.27633E-02 -1.67859E-01 -5.29963E-01 -3.92859E-01 -1.57241E-01 -1.40326E-01 -2.73392E-01
  -4.24331E-01 -7.83207E-03 -8.28826E-03 -3.45022E-01 -1.20419E-01 -3.24766E-01 -3.44013E-01 -2.54686E-02 -1.95575E-01 -1.28442E-01
   2.31987E-01 -4.42900E-02 -1.61954E-01 -2.24621E-01  1.06402E-01  1.74005E-01 -7.87500E-02  1.87984E-01 -1.53357E-01 -1.17817E-01
   5.86134E-02  2.79519E-01  1.07360E-01  7.43449E-02  2.35002E-01  7.16753E-02  2.31064E-01 -1.00096E-03  2.42482E-01 -7.12074E-03
   1.03182E-02  3.06693E-01 -1.47516E-01  1.39229E-01  3.77741E-01  6.33297E-01  5.20034E-01  1.82980E-01  3.82333E-01  4.90604E-01
   4.82344E-01  1.76799E-01  2.28673E-01  1.22745E-01  9.28525E-02  1.57789E-01  6.43464E-02  9.49446E-02 -8.36779E-02  4.90837E-02
  -5.25780E-02  7.98070E-02  1.76260E-01  2.09412E-01 -1.50138E-01 -1.50028E-01 -8.17740E-02 -3.38177E-01  1.41281E-01  1.74260E-02
   2.47834E-01  4.76504E-02  1.44690E-01  3.25679E-02 -3.34787E-01  1.04276E-01 -7.38999E-03  1.24567E-01  9.46978E-02  9.17561E-03
   1.03619E-01  1.57305E-01  2.21066E-02  5.46697E-02  1.02972E-02 -1.35236E-01 -5.07097E-02  4.50869E-01  1.69683E-01  1.13994E-01
   4.35436E-01 -1.10409E-01  8.71193E-02 -1.18260E-02  1.70973E-01 -1.72920E-02 -1.53674E-01 -1.80874E-01 -2.09200E-01 -7.49378E-02
  -3.57769E-01  1.16721E-01 -2.60715E-01 -3.61882E-01  1.91771E-01  2.82586E-01  2.63234E-01  6.20461E-01  6.41858E-01  3.75634E-01
   2.47282E-01 -7.33950E-02 -1.14173E-01  7.95326E-02  7.00588E-02  4.91690E-02  2.58852E-01  3.28505E-02  2.01945E-01  1.55554E-01
   3.47857E-01  4.28550E-01  3.32149E-01  4.28348E-01  5.67300E-02  3.74170E-01  5.09641E-01  4.44382E-01  3.37141E-01  3.90951E-01
   1.50695E-01 -1.61804E-02  2.48041E-01  1.25787E-01  1.95808E-01  9.97560E-03 -1.87610E-01 -9.69429E-02 -3.16740E-01 -4.22574E-01
  -2.91619E-01 -3.54275E-01 -2.71846E-01 -3.13494E-01 -2.27430E-01 -2.50589E-01 -3.28946E-01  3.72394E-02 -1.85707E-01  6.89355E-02
   4.11516E-01 -1.71737E-01 -1.30039E-01 -1.17720E-01 -2.61324E-01 -4.15951E-01 -7.41775E-01 -4.52022E-01 -2.65274E-01 -3.62795E-01
  -7.08953E-02 -9.91075E-01 -2.80754E+00 -2.01524E+00 -8.17801E-01 -5.38722E-01 -2.64159E-01  2.14757E-02  1.71949E-01 -1.08484E-01
   1.46218E-01 -2.32865E-01  8.30841E-02  6.79490E-02 -1.89762E-01  3.31505E-01 -1.25703E-02  2.85642E-01  2.08399E-01 -1.23735E-01
   1.90196E-01  8.12529E-02  3.50277E-02  3.05801E-02 -9.50650E-02 -5.46344E-02  6.61040E-02  5.58961E-02 -7.53311E-03  4.13731E-02
   3.64206E-02  3.37300E-01  3.28930E-01  2.78452E-01  1.11319E-01 -9.65410E-02  6.19488E-02  2.29444E-01  3.56020E-01 -3.11915E-02
   1.01764E-01  7.50667E-02  2.90453E-01  2.65377E-01  1.34317E-01  1.68946E-01  2.78350E-01  5.48665E-01  2.65687E-01  7.16420E-01
   5.33431E-01  3.16802E-01  2.46464E-01  2.88021E-01  1.05470E-01  2.35616E-01  1.98486E-01  4.52209E-02  5.22522E-01  1.21659E-01
   2.93624E-01  1.02958E-01  2.26036E-01  1.23737E-01  1.13022E-02 -1.57963E-02 -1.74976E-01 -2.85787E-03 -1.93851E-01 -7.60114E-02
  -1.14368E-02  5.04935E-02 -2.71142E-01 -2.07054E-02 -2.12666E-01 -1.59483E-01  1.09923E-02  3.75960E-02  1.28719E-01 -3.02110E-01
  -8.84522E-02 -2.69814E-01 -1.59337E-01 -1.54709E-01 -3.44931E-01 -9.69325E-02  5.96563E-02 -1.47239E-01 -2.57233E-01 -4.60503E-02
  -5.99679E-02 -1.68146E-01 -9.16909E-02  1.79006E-01  2.26141E-01  1.79460E-03  7.86156E-02  2.83144E-02  5.29918E-02  1.91004E-01
  -9.99415E-02  5.77857E-02 -1.43419E-01  3.16760E-02  2.88634E-02  6.01247E-03  2.48463E-01  1.15602E-01  1.79447E-01  8.31465E-02
   3.67584E-01 -1.24834E-01 -6.54095E-02  2.36628E-01  9.45927E-02  9.11048E-02 -1.45372E-01 -1.18652E-01  2.99547E-02 -4.74711E-02
  -1.49779E-01  2.80538E-01 -1.75923E-02 -1.34511E-01  1.79141E-01 -1.25828E-02 -2.22912E-01 -1.98286E-01 -1.86831E-02 -9.93073E-02
  -3.21691E-02 -1.16590E-01 -4.14830E-01 -1.59676E-01 -3.34799E-01 -3.10238E-01 -1.40414E-01 -3.55891E-01 -1.38359E-01 -1.04836E-01
   7.79400E-03  1.58925E-02  2.50917E-01 -1.04263E-01 -2.44203E-01 -1.84543E-01 -1.71396E-01  2.67737E-01  1.69791E-01  2.66071E-01
   2.06383E-01  8.87467E-02 -1.28253E-01  2.34285E-01 -7.07100E-02  8.72335E-02  1.51971E-01 -1.79193E-01  3.33504E-01  2.67414E-03
   2.05353E-01 -4.13474E-02  3.08756E-02  1.39032E-01  1.93613E-01  4.65320E-01 -1.22813E-02  5.05065E-02  1.46789E-01 -1.67836E-01
   1.16523E-01  2.55592E-01 -2.57617E-01 -6.82351E-02  6.54705E-02  2.64688E-01  2.81793E-01  8.38802E-02  1.00671E-01  7.59018E-02
   4.96940E-02  1.22012E-02 -2.43155E-01 -2.46243E-01 -3.80141E-01 -6.07468E-01 -2.08928E-01 -3.68280E-01 -3.45171E-01 -3.01855E-01
  -3.17909E-01 -3.72060E-01 -2.46209E-01 -3.34413E-01 -2.15113E-01 -1.31528E-01 -4.36826E-01 -1.17931E-01 -4.05049E-01 -1.61207E-01
  -1.17760E-01 -1.70005E-01 -2.92504E-01 -3.79242E-01  1.30360E-01  2.35975E-01  1.32346E-01 -5.71675E-02  3.02378E-01  1.79220E-01
   1.38074E-01  2.51569E-01  6.60984E-03  8.50053E-02  1.16208E-01 -9.08229E-02 -3.43396E-02  1.91167E-01  5.35158E-02  1.61016E-01
   1.37292E-01  1.55263E-01  3.88363E-01  9.95083E-02  2.91150E-01  3.07886E-01 -2.57730E-02  1.92513E-01  1.79477E-01  1.82009E-02
  -2.13279E-01  3.35677E-02  1.78241E-01 -5.50166E-02 -4.59235E-02 -2.21306E-01 -1.73256E-01  2.88627E-01  6.05341E-03 -1.56641E-01
   1.20984E-01 -1.49200E-01 -3.18605E-02 -9.87519E-02 -3.37896E-02 -4.25694E-02  2.17222E-01  1.48180E-01 -2.28328E-01  6.40482E-02
  -6.95664E-02  1.72163E-01  4.07120E-03 -9.50784E-02  2.72125E-01  2.93205E-01 -4.56589E-02 -8.89545E-02  7.18029E-02  1.45118E-02
  -1.33186E-01 -2.24238E-01  2.82658E-04  1.12800E-01 -1.81164E-02 -2.12784E-01  1.62581E-01  1.97356E-01  4.18656E-02 -1.97591E-01
  -7.15466E-02  1.09068E-01 -3.11871E-02  2.86355E-02  1.89121E-02  3.07195E-01  3.30248E-01  1.16762E-01  1.56896E-01  3.87196E-01
  -1.15285E-01  7.35578E-02  2.14157E-01  1.64190E-02  8.08159E-02  1.72988E-01  2.07665E-01 -1.96586E-01  2.85361E-01  2.32839E-02
   1.62590E-01  2.91706E-01 -6.16010E-02 -6.35601E-02 -1.90120E-02  1.99207E-01 -3.03832E-02  1.74979E-01 -6.52371E-02  4.25080E-02
   3.41145E-01  1.23346E-01 -6.25829E-02 -6.87822E-02  7.02992E-02  1.90742E-02 -3.78989E-02 -7.57376E-02  7.89533E-02 -1.37708E-01
  -3.54475E-03  1.16049E-01 -9.89889E-02  9.52384E-02
 NY points of the fit to the data follow
   5.98966E-02  3.17089E-02 -5.37584E-03 -2.60768E-02 -2.75825E-02 -2.08487E-02 -1.34146E-02  1.59676E-02  4.10935E-02  1.30753E-03
   1.12195E-01  5.20956E-01  6.09008E-01  2.52612E-01  3.14604E-01  7.24953E-01  5.58941E-01  2.45425E-01  1.48699E-01  7.89627E-02
   3.40031E-02 -1.94615E-04 -3.62613E-02 -7.35684E-02 -9.97636E-02 -1.24575E-01 -1.38586E-01 -1.42345E-01 -1.59208E-01 -1.72633E-01
  -1.72876E-01 -1.83344E-01 -2.11377E-01 -2.51480E-01 -2.87611E-01 -3.14712E-01 -3.39599E-01 -3.63664E-01 -3.33624E-01 -1.49591E-01
   9.45044E-02  1.86361E-01  2.36181E-01  3.11741E-01  3.28460E-01  3.61216E-01  3.43960E-01  2.47297E-01  2.33013E-01  2.04727E-01
   1.26114E-01  1.00740E-01  7.25077E-02  2.24922E-02 -1.88953E-02 -7.61208E-02 -1.36472E-01 -1.67206E-01 -1.98210E-01 -2.23906E-01
  -2.68195E-01 -3.59596E-01 -2.94396E-01 -2.12568E-01 -3.34012E-01 -1.23416E-01  1.59949E-01  1.23996E-01  3.02383E-01  4.57976E-01
   3.67120E-01  2.65047E-01  1.89823E-01  1.16316E-01  3.38750E-02 -6.43569E-02 -1.37166E-01 -1.65318E-01 -4.25511E-01 -7.67637E-01
  -4.82502E-01 -6.36429E-02 -1.10137E-01  5.98144E-02  4.11919E-01  4.61761E-01  3.82349E-01  3.37290E-01  2.80299E-01  2.20469E-01
   2.05217E-01  1.78819E-01  1.41292E-01  1.05159E-01  5.60211E-02 -1.02010E-02 -1.26393E-01 -2.70084E-01 -4.47943E-01 -6.04766E-01
  -4.57781E-01 -2.71626E-01  7.18024E-03  2.57954E-01  3.08646E-01  3.21653E-01  3.13364E-01  2.96617E-01  2.87508E-01  2.87534E-01
   2.87277E-01  2.85897E-01  2.82684E-01  2.79256E-01  2.76510E-01  2.77193E-01  2.80442E-01  2.79098E-01  2.59229E-01  2.57832E-01
   2.75559E-01  1.60491E-01  2.42140E-02  8.22168E-02 -3.86616E-02 -1.88678E-01 -8.22924E-02 -2.14123E-01 -4.60958E-01 -5.86705E-01
  -7.77597E-01 -7.50504E-01 -5.99631E-01 -2.66453E-01 -2.97778E-01 -9.40695E-01 -1.04200E+00 -6.25460E-01 -3.55520E-01 -2.15223E-01
  -9.82271E-02 -2.41269E-02  3.74308E-03  2.53221E-02  5.28597E-02  7.92747E-02  1.02609E-01  1.25021E-01  1.43022E-01  1.58980E-01
   1.77365E-01  1.94260E-01  2.09615E-01  2.27750E-01  2.49195E-01  2.70262E-01  2.97356E-01  3.29359E-01  3.58551E-01  3.93454E-01
   4.49650E-01  5.35479E-01  6.38289E-01  6.56171E-01  6.94490E-01  1.07508E+00  1.12151E+00 -3.20140E-02 -1.09115E+00 -1.05777E+00
  -7.62706E-01 -6.24900E-01 -4.98385E-01 -4.00238E-01 -3.92616E-01 -3.68470E-01 -3.10023E-01 -2.97036E-01 -3.03757E-01 -2.98927E-01
  -2.58594E-01 -2.24568E-01 -2.26166E-01 -2.13359E-01 -2.19124E-01 -2.22608E-01 -2.07725E-01 -1.90480E-01 -1.85528E-01 -1.81281E-01
  -1.65548E-01 -1.51683E-01 -1.39669E-01 -1.26415E-01 -1.13270E-01 -1.03751E-01 -9.24504E-02 -7.83680E-02 -6.64093E-02 -6.06214E-02
  -4.42724E-02 -1.40171E-02 -7.71945E-03 -2.80575E-02 -4.59908E-02 -3.39539E-02  6.03832E-03  1.08189E-02 -2.67367E-02 -5.25376E-02
  -5.56553E-02 -4.91462E-02 -3.97508E-02 -3.15134E-02 -2.41516E-02 -7.94443E-03  2.41356E-02  3.05322E-02  2.40850E-03 -8.29820E-03
   2.05747E-02  6.22092E-02  6.52985E-02  6.63951E-02  1.77070E-01  3.32039E-01  3.57703E-01  2.03986E-01  1.67239E-01  3.99998E-01
   4.76356E-01  2.92835E-01  1.41413E-01  5.38336E-02 -8.64687E-03 -3.74529E-02 -4.66560E-02 -5.03912E-02 -5.73022E-02 -6.83972E-02
  -8.00158E-02 -8.70081E-02 -9.02891E-02 -9.09335E-02 -9.26373E-02 -1.01981E-01 -1.01531E-01 -1.01715E-01 -1.05931E-01 -8.93241E-02
  -8.02915E-02 -8.34267E-02 -9.50946E-02 -9.78083E-02 -1.26724E-01 -1.03848E-01  3.48964E-02  4.38382E-02  1.19986E-02  9.54871E-02
   1.46629E-01  1.89964E-01  9.85232E-02  6.29949E-02  1.73146E-01  1.63291E-01  1.72018E-01  1.79404E-01  2.01150E-01  2.28216E-01
   1.97666E-01  1.68908E-01  1.21163E-01  7.79613E-02  3.84165E-02  3.47574E-04 -4.06949E-02 -9.17478E-02 -1.38114E-01 -1.86054E-01
  -2.66454E-01 -3.22969E-01 -3.26410E-01 -2.83727E-01 -6.19946E-02  1.83140E-01  3.21700E-01  4.59839E-01  4.53844E-01  3.60080E-01
   2.95722E-01  2.23603E-01  1.82499E-01  1.56443E-01  1.43147E-01  1.96517E-01  2.22648E-01  2.49358E-01  2.67225E-01  2.54938E-01
   2.47480E-01  2.33902E-01  2.22545E-01  2.15220E-01  2.03227E-01  1.86757E-01  1.74876E-01  1.44800E-01  1.02393E-01  7.82422E-02
   3.47293E-02  2.22719E-03  1.64154E-02 -6.77498E-03 -1.29483E-02 -3.08477E-02 -1.05186E-01 -1.81496E-01 -2.49956E-01 -2.83207E-01
  -3.23258E-01 -3.20021E-01 -2.88069E-01 -2.46603E-01 -1.58118E-01 -8.24156E-02  6.57014E-03  7.38728E-02  1.16962E-01  1.09634E-01
   6.84718E-02  1.00444E-02 -1.01201E-01 -1.24792E-01 -1.34196E-01 -3.36757E-01 -5.38624E-01 -3.77952E-01 -3.54284E-01 -3.00130E-01
   2.05197E-02 -1.05837E+00 -2.78227E+00 -2.00739E+00 -7.62653E-01 -4.50414E-01 -1.96944E-01 -3.09503E-02  2.00220E-02 -8.41873E-03
   2.98516E-03  2.11590E-02  3.54618E-02  4.41166E-02  5.40268E-02  6.42939E-02  7.10255E-02  7.20373E-02  6.97460E-02  5.14625E-02
   2.08505E-02  5.77802E-03 -3.08881E-02 -4.85746E-02 -5.00767E-02 -5.16518E-02 -3.10497E-02 -1.39716E-02  1.56810E-03  1.76409E-02
   3.12853E-02  4.62733E-02  5.99765E-02  6.66725E-02  7.07944E-02  7.65162E-02  8.13004E-02  8.78915E-02  9.37384E-02  9.68401E-02
   9.94084E-02  1.03765E-01  1.07568E-01  1.12847E-01  1.17087E-01  1.17997E-01  1.18063E-01  1.20139E-01  1.25463E-01  1.29339E-01
   1.35118E-01  1.38894E-01  1.39465E-01  1.37011E-01  1.31749E-01  1.28132E-01  1.25944E-01  1.22757E-01  1.18026E-01  1.10587E-01
   1.01929E-01  9.52557E-02  8.69906E-02  7.46184E-02  6.54475E-02  6.03986E-02  5.43593E-02  4.47065E-02  3.73107E-02  3.19081E-02
   2.47644E-02  2.07261E-02  1.69298E-02  1.20627E-02  8.72728E-03  4.99543E-03  5.29862E-04 -3.05740E-03 -5.71493E-03 -6.50048E-03
  -8.94432E-03 -1.23927E-02 -1.04972E-02 -7.44162E-03 -6.23788E-03 -1.91286E-03  3.94771E-03  8.70160E-03  1.58239E-02  2.69781E-02
   3.15146E-02  3.02833E-02  4.00807E-02  5.79614E-02  6.85875E-02  7.90043E-02  8.32386E-02  7.78347E-02  7.92548E-02  8.97525E-02
   1.03143E-01  1.16349E-01  1.31933E-01  1.46184E-01  1.58399E-01  1.73762E-01  1.87651E-01  1.97565E-01  2.05061E-01  2.08511E-01
   2.08719E-01  2.08670E-01  2.07412E-01  2.03679E-01  2.00387E-01  1.94366E-01  1.83181E-01  1.67681E-01  1.52938E-01  1.40847E-01
   1.28969E-01  1.17205E-01  1.05536E-01  9.14587E-02  7.89486E-02  7.27096E-02  6.40885E-02  5.40562E-02  4.65545E-02  4.07982E-02
   3.59204E-02  3.12811E-02  2.59584E-02  2.25553E-02  2.50615E-02  2.85729E-02  2.99330E-02  3.44172E-02  4.03580E-02  4.45700E-02
   4.99373E-02  5.83737E-02  6.62447E-02  7.04999E-02  7.44700E-02  7.80871E-02  7.87437E-02  7.85358E-02  8.32939E-02  8.92401E-02
   8.97402E-02  8.84886E-02  8.55791E-02  8.22992E-02  8.16232E-02  7.58984E-02  6.87153E-02  6.55104E-02  6.29912E-02  5.90689E-02
   5.35995E-02  4.90576E-02  4.47269E-02  4.04361E-02  3.59096E-02  2.95194E-02  2.29526E-02  2.01398E-02  1.94468E-02  1.53627E-02
   9.20360E-03  4.75823E-03  9.73507E-05 -8.45429E-03 -1.91843E-02 -2.93735E-02 -3.88082E-02 -4.90190E-02 -6.23539E-02 -7.91733E-02
  -1.00700E-01 -1.24965E-01 -1.44470E-01 -1.63872E-01 -1.85271E-01 -2.04239E-01 -2.18991E-01 -2.31834E-01 -2.45642E-01 -2.58836E-01
  -2.63048E-01 -2.59020E-01 -2.57929E-01 -2.57992E-01 -2.51222E-01 -2.40041E-01 -2.29666E-01 -2.20379E-01 -2.11617E-01 -2.04469E-01
  -1.97527E-01 -1.85917E-01 -1.73284E-01 -1.62854E-01 -1.49135E-01 -1.34358E-01 -1.21132E-01 -1.08481E-01 -9.52804E-02 -8.34794E-02
  -7.46296E-02 -6.13945E-02 -4.83552E-02 -4.06672E-02 -3.48931E-02 -2.74278E-02 -1.55401E-02 -6.24078E-03 -5.83735E-03 -1.92764E-03
   6.20963E-03  9.54821E-03  1.32214E-02  1.62213E-02  1.69170E-02  1.90477E-02  2.24500E-02  2.37843E-02  2.17880E-02  2.33174E-02
   2.81930E-02  2.95129E-02  3.14514E-02  3.64903E-02  3.86177E-02  3.67980E-02  3.70383E-02  3.84888E-02  3.63272E-02  3.65183E-02
   3.82730E-02  3.57104E-02  3.52735E-02  3.74657E-02  3.65353E-02  3.57173E-02  3.64580E-02  3.92298E-02  4.27525E-02  3.76157E-02
   2.84692E-02  2.91607E-02  3.43433E-02  3.41386E-02  3.15897E-02  3.28781E-02  3.60484E-02  3.28373E-02  2.80436E-02  2.84316E-02
   3.16611E-02  3.45209E-02  3.49586E-02  3.53683E-02  3.63317E-02  3.86421E-02  4.10939E-02  4.08106E-02  4.06343E-02  4.33366E-02
   4.53168E-02  4.32660E-02  3.89587E-02  3.98313E-02  4.18015E-02  4.28034E-02  4.51399E-02  4.74959E-02  4.97848E-02  4.94491E-02
   4.75424E-02  5.15274E-02  5.74707E-02  6.02167E-02  6.18752E-02  5.87379E-02  5.46374E-02  5.46684E-02  5.77661E-02  6.15701E-02
   6.09459E-02  5.89092E-02  5.89110E-02  5.92039E-02  6.17181E-02  6.47820E-02  6.21414E-02  6.01674E-02  6.65419E-02  7.10732E-02
   6.96266E-02  6.99660E-02  7.24837E-02  7.49389E-02  7.74085E-02  7.77594E-02  8.08472E-02  8.93841E-02  9.65767E-02  9.95748E-02
   1.02580E-01  1.06203E-01  1.08155E-01  1.10869E-01
 NY background values follow
    -4.060E-03   -3.578E-03   -3.096E-03   -2.614E-03   -2.132E-03   -1.650E-03   -1.168E-03   -6.860E-04   -2.042E-04    2.775E-04
     7.590E-04    1.240E-03    1.722E-03    2.203E-03    2.683E-03    3.164E-03    3.644E-03    4.125E-03    4.604E-03    5.084E-03
     5.563E-03    6.042E-03    6.520E-03    6.998E-03    7.476E-03    7.953E-03    8.430E-03    8.907E-03    9.382E-03    9.858E-03
     1.033E-02    1.081E-02    1.128E-02    1.175E-02    1.223E-02    1.270E-02    1.317E-02    1.364E-02    1.411E-02    1.458E-02
     1.505E-02    1.552E-02    1.599E-02    1.645E-02    1.692E-02    1.738E-02    1.785E-02    1.831E-02    1.877E-02    1.923E-02
     1.970E-02    2.016E-02    2.061E-02    2.107E-02    2.153E-02    2.199E-02    2.244E-02    2.290E-02    2.335E-02    2.380E-02
     2.425E-02    2.470E-02    2.515E-02    2.560E-02    2.605E-02    2.649E-02    2.694E-02    2.738E-02    2.782E-02    2.827E-02
