 
 $NMID
 ID=''
 FMTDAT='(2E13.5)'
 TRAMP=   1.00000E+0
 VOLUME=   1.00000E+0
 $END
  -3.25150E+3   1.79830E+4
  -2.05817E+4   4.18512E+4
  -1.20404E+4   4.46244E+4
  -1.03795E+4   4.09516E+4
  -1.15783E+4   4.20956E+4
  -9.09768E+3   4.28441E+4
  -8.45048E+3   4.10898E+4
  -8.75794E+3   4.16763E+4
  -6.74913E+3   4.22177E+4
  -5.87022E+3   4.11384E+4
  -5.69212E+3   4.13234E+4
  -3.93203E+3   4.13678E+4
  -2.76106E+3   4.06365E+4
  -2.45735E+3   4.05847E+4
  -9.98299E+2   4.05126E+4
   1.39028E+2   3.96412E+4
   5.60982E+2   3.95601E+4
   1.85710E+3   3.93705E+4
   2.80880E+3   3.87177E+4
   3.22348E+3   3.85187E+4
   4.29635E+3   3.83232E+4
   5.33660E+3   3.78294E+4
   5.75514E+3   3.76729E+4
   6.49333E+3   3.74967E+4
   7.23706E+3   3.68011E+4
   7.79338E+3   3.66372E+4
   8.48822E+3   3.64112E+4
   9.09579E+3   3.58369E+4
   9.54961E+3   3.55162E+4
   1.02343E+4   3.51705E+4
   1.10483E+4   3.45401E+4
   1.15765E+4   3.42549E+4
   1.22268E+4   3.40014E+4
   1.27572E+4   3.33435E+4
   1.34370E+4   3.30081E+4
   1.40741E+4   3.26704E+4
   1.47206E+4   3.20924E+4
   1.53302E+4   3.17780E+4
   1.60415E+4   3.13224E+4
   1.66071E+4   3.09272E+4
   1.71403E+4   3.05447E+4
   1.76828E+4   3.02270E+4
   1.80798E+4   2.97066E+4
   1.85496E+4   2.91340E+4
   1.90716E+4   2.87317E+4
   1.95335E+4   2.82110E+4
   1.99153E+4   2.77134E+4
   2.03938E+4   2.72046E+4
   2.06978E+4   2.66635E+4
   2.10341E+4   2.61347E+4
   2.13630E+4   2.57141E+4
   2.17324E+4   2.50266E+4
   2.20517E+4   2.43884E+4
   2.24480E+4   2.37304E+4
   2.27647E+4   2.32844E+4
   2.30237E+4   2.26589E+4
   2.33102E+4   2.21078E+4
   2.36505E+4   2.14892E+4
   2.38866E+4   2.08906E+4
   2.41585E+4   2.02077E+4
   2.43811E+4   1.95219E+4
   2.45957E+4   1.88917E+4
   2.48682E+4   1.81786E+4
   2.50972E+4   1.77418E+4
   2.52658E+4   1.70904E+4
   2.54681E+4   1.63611E+4
   2.56515E+4   1.57880E+4
   2.58583E+4   1.53125E+4
   2.60636E+4   1.46117E+4
   2.62125E+4   1.40093E+4
   2.63597E+4   1.33298E+4
   2.65168E+4   1.26718E+4
   2.66392E+4   1.20771E+4
   2.67662E+4   1.14305E+4
   2.70092E+4   1.08596E+4
   2.71204E+4   1.01914E+4
   2.72788E+4   9.61498E+3
   2.73050E+4   9.05262E+3
   2.74072E+4   8.39878E+3
   2.75567E+4   7.83111E+3
   2.75494E+4   7.26062E+3
   2.76666E+4   6.70021E+3
   2.76928E+4   6.11574E+3
   2.77253E+4   5.64101E+3
   2.78973E+4   5.09648E+3
   2.78664E+4   4.64628E+3
   2.77968E+4   4.12857E+3
   2.78583E+4   3.62359E+3
   2.78158E+4   2.99240E+3
   2.78672E+4   2.56853E+3
   2.77620E+4   2.11274E+3
   2.77120E+4   1.59503E+3
   2.76277E+4   1.11300E+3
   2.75842E+4   6.52877E+2
   2.74866E+4   2.14743E+2
   2.73199E+4  -3.10877E+2
   2.71646E+4  -7.67838E+2
   2.71065E+4  -1.32498E+3
   2.69354E+4  -1.64394E+3
   2.67856E+4  -2.12788E+3
   2.66117E+4  -2.50429E+3
   2.64277E+4  -3.02235E+3
   2.62528E+4  -3.43732E+3
   2.60551E+4  -3.91631E+3
   2.58317E+4  -4.35055E+3
   2.56094E+4  -4.69042E+3
   2.54061E+4  -5.11186E+3
   2.51599E+4  -5.54422E+3
   2.49113E+4  -5.89969E+3
   2.46063E+4  -6.25692E+3
   2.42400E+4  -6.64630E+3
   2.40053E+4  -7.09193E+3
   2.37784E+4  -7.44978E+3
   2.34285E+4  -7.70747E+3
   2.31357E+4  -8.07396E+3
   2.29356E+4  -8.39643E+3
   2.25069E+4  -8.61041E+3
   2.21647E+4  -8.99657E+3
   2.18435E+4  -9.32290E+3
   2.14838E+4  -9.57956E+3
   2.10874E+4  -9.88787E+3
   2.07047E+4  -1.01390E+4
   2.03544E+4  -1.04332E+4
   1.99685E+4  -1.06327E+4
   1.95856E+4  -1.09791E+4
   1.92200E+4  -1.12032E+4
   1.88204E+4  -1.14864E+4
   1.84658E+4  -1.16672E+4
   1.80240E+4  -1.18609E+4
   1.76266E+4  -1.20713E+4
   1.73034E+4  -1.22980E+4
   1.68417E+4  -1.24889E+4
   1.63323E+4  -1.26373E+4
   1.59816E+4  -1.28581E+4
   1.55879E+4  -1.30294E+4
   1.50965E+4  -1.32087E+4
   1.46845E+4  -1.33679E+4
   1.42124E+4  -1.34409E+4
   1.37946E+4  -1.35787E+4
   1.33131E+4  -1.36810E+4
   1.28844E+4  -1.38143E+4
   1.24509E+4  -1.39996E+4
   1.19825E+4  -1.40494E+4
   1.14804E+4  -1.42012E+4
   1.11505E+4  -1.42729E+4
   1.06152E+4  -1.42863E+4
   1.02188E+4  -1.44655E+4
   9.76523E+3  -1.44922E+4
   9.31115E+3  -1.45742E+4
   8.85369E+3  -1.46173E+4
   8.40922E+3  -1.46790E+4
   7.99393E+3  -1.46566E+4
   7.48735E+3  -1.46652E+4
   6.97685E+3  -1.46923E+4
   6.51594E+3  -1.46943E+4
   6.15777E+3  -1.47168E+4
   5.66241E+3  -1.47751E+4
   5.21765E+3  -1.47766E+4
   4.80522E+3  -1.47390E+4
   4.36185E+3  -1.47665E+4
   3.93287E+3  -1.47211E+4
   3.51075E+3  -1.46909E+4
   3.06240E+3  -1.46475E+4
   2.57259E+3  -1.45797E+4
   2.17506E+3  -1.45106E+4
   1.73302E+3  -1.45195E+4
   1.41089E+3  -1.44118E+4
   9.23084E+2  -1.42429E+4
   5.29389E+2  -1.41692E+4
   2.06075E+2  -1.41640E+4
  -2.58329E+2  -1.40955E+4
  -6.43584E+2  -1.39294E+4
  -1.05447E+3  -1.37721E+4
  -1.46552E+3  -1.36502E+4
  -1.77970E+3  -1.35372E+4
  -2.13323E+3  -1.33703E+4
  -2.55535E+3  -1.32787E+4
  -2.90751E+3  -1.31482E+4
  -3.18391E+3  -1.29699E+4
  -3.55575E+3  -1.29459E+4
  -3.93058E+3  -1.27218E+4
  -4.25535E+3  -1.25570E+4
  -4.57685E+3  -1.23328E+4
  -4.80979E+3  -1.21782E+4
  -5.14623E+3  -1.19313E+4
  -5.47722E+3  -1.17223E+4
  -5.71127E+3  -1.15678E+4
  -6.05656E+3  -1.14295E+4
  -6.34829E+3  -1.12395E+4
  -6.55081E+3  -1.08996E+4
  -6.77324E+3  -1.06956E+4
  -7.05444E+3  -1.05340E+4
  -7.39147E+3  -1.03621E+4
  -7.57211E+3  -1.01593E+4
  -7.76129E+3  -9.91349E+3
  -8.00120E+3  -9.61307E+3
  -8.18267E+3  -9.40880E+3
  -8.50427E+3  -9.22678E+3
  -8.60260E+3  -8.95070E+3
  -8.84673E+3  -8.69714E+3
  -8.98182E+3  -8.51271E+3
  -9.25800E+3  -8.26282E+3
  -9.38332E+3  -7.98582E+3
  -9.52026E+3  -7.69156E+3
  -9.66195E+3  -7.50179E+3
  -9.83700E+3  -7.27999E+3
  -1.00104E+4  -6.94912E+3
  -1.00850E+4  -6.77312E+3
  -1.02373E+4  -6.43897E+3
  -1.03604E+4  -6.20930E+3
  -1.04933E+4  -5.97949E+3
  -1.05183E+4  -5.73687E+3
  -1.06045E+4  -5.48223E+3
  -1.07228E+4  -5.24343E+3
  -1.08875E+4  -5.02407E+3
  -1.09132E+4  -4.74183E+3
  -1.10055E+4  -4.47323E+3
  -1.09754E+4  -4.15289E+3
  -1.11297E+4  -3.96746E+3
  -1.10757E+4  -3.76059E+3
  -1.10644E+4  -3.51185E+3
  -1.11225E+4  -3.32155E+3
  -1.11426E+4  -3.06774E+3
  -1.11970E+4  -2.80428E+3
  -1.11460E+4  -2.54516E+3
  -1.11497E+4  -2.26501E+3
  -1.11327E+4  -2.06920E+3
  -1.11794E+4  -1.81524E+3
  -1.11204E+4  -1.59959E+3
  -1.10579E+4  -1.39359E+3
  -1.10058E+4  -1.16006E+3
  -1.10364E+4  -9.47622E+2
  -1.10316E+4  -7.34821E+2
  -1.08541E+4  -4.96268E+2
  -1.08470E+4  -2.97510E+2
  -1.07217E+4  -6.45477E+1
  -1.06420E+4   1.44569E+2
  -1.07097E+4   3.34408E+2
  -1.05916E+4   4.88003E+2
  -1.04417E+4   6.71217E+2
  -1.03423E+4   9.90884E+2
  -1.02457E+4   1.12363E+3
  -1.02144E+4   1.31333E+3
  -1.01135E+4   1.46705E+3
  -9.95747E+3   1.71058E+3
  -9.87181E+3   1.85553E+3
  -9.76832E+3   2.07909E+3
  -9.62037E+3   2.20712E+3
  -9.47886E+3   2.38188E+3
  -9.39971E+3   2.61401E+3
  -9.23720E+3   2.73768E+3
  -9.17110E+3   2.81535E+3
  -9.02308E+3   2.94871E+3
  -8.84854E+3   3.16803E+3
  -8.74122E+3   3.31973E+3
  -8.62609E+3   3.42066E+3
  -8.50960E+3   3.53469E+3
  -8.39957E+3   3.72671E+3
  -8.21127E+3   3.77582E+3
  -8.06566E+3   3.99252E+3
  -7.88837E+3   3.98790E+3
  -7.72272E+3   4.11367E+3
  -7.55339E+3   4.31932E+3
  -7.39601E+3   4.42695E+3
  -7.25533E+3   4.47062E+3
  -7.15599E+3   4.47411E+3
  -6.98633E+3   4.63451E+3
  -6.82247E+3   4.66481E+3
  -6.62254E+3   4.73184E+3
  -6.50583E+3   4.81906E+3
  -6.24421E+3   4.86352E+3
  -6.14267E+3   4.98140E+3
  -5.95344E+3   5.05583E+3
  -5.84670E+3   5.10517E+3
  -5.67901E+3   5.20662E+3
  -5.44405E+3   5.15581E+3
  -5.30108E+3   5.25456E+3
  -5.17071E+3   5.28527E+3
  -5.03818E+3   5.26576E+3
  -4.84114E+3   5.27111E+3
  -4.66465E+3   5.36099E+3
  -4.50582E+3   5.40772E+3
  -4.32855E+3   5.41411E+3
  -4.15396E+3   5.40264E+3
  -4.02004E+3   5.45676E+3
  -3.86500E+3   5.44096E+3
  -3.65640E+3   5.48824E+3
  -3.59080E+3   5.44746E+3
  -3.42691E+3   5.51545E+3
  -3.23727E+3   5.42613E+3
  -3.09497E+3   5.44649E+3
  -2.91433E+3   5.43592E+3
  -2.80246E+3   5.45334E+3
  -2.61945E+3   5.39486E+3
  -2.45966E+3   5.41685E+3
  -2.37690E+3   5.32811E+3
  -2.24942E+3   5.32281E+3
  -2.01123E+3   5.35294E+3
  -1.89965E+3   5.28256E+3
  -1.84332E+3   5.29971E+3
  -1.66837E+3   5.22310E+3
  -1.55164E+3   5.20274E+3
  -1.38671E+3   5.19328E+3
  -1.24327E+3   5.11240E+3
  -1.16975E+3   5.04857E+3
  -1.01457E+3   4.97279E+3
  -9.05002E+2   4.96674E+3
  -8.12583E+2   4.90042E+3
  -7.26043E+2   4.90682E+3
  -5.84068E+2   4.86489E+3
  -4.54987E+2   4.70643E+3
  -3.92580E+2   4.75416E+3
  -2.35606E+2   4.65789E+3
  -1.32380E+2   4.60205E+3
  -7.08966E+1   4.57614E+3
   1.17215E+1   4.46338E+3
   1.60322E+2   4.40632E+3
   2.33172E+2   4.36162E+3
   2.79062E+2   4.22020E+3
   4.10258E+2   4.15995E+3
   4.67968E+2   4.14660E+3
   5.81461E+2   4.04111E+3
   6.31463E+2   4.07852E+3
   7.37545E+2   3.92824E+3
   8.43494E+2   3.86435E+3
   8.42472E+2   3.80496E+3
   9.50227E+2   3.71123E+3
   1.09141E+3   3.64475E+3
   1.06187E+3   3.59918E+3
   1.19211E+3   3.48555E+3
   1.28088E+3   3.38684E+3
   1.32573E+3   3.37593E+3
   1.36343E+3   3.28988E+3
   1.40341E+3   3.18461E+3
   1.49852E+3   3.13767E+3
   1.56118E+3   3.00637E+3
   1.59272E+3   3.00996E+3
   1.59555E+3   2.86715E+3
   1.75419E+3   2.84797E+3
   1.74723E+3   2.79429E+3
   1.75945E+3   2.68969E+3
   1.81822E+3   2.58150E+3
   1.82175E+3   2.54914E+3
   1.87325E+3   2.46287E+3
   1.82922E+3   2.42180E+3
   1.90676E+3   2.29495E+3
   1.88156E+3   2.26802E+3
   1.96756E+3   2.14608E+3
   1.97845E+3   2.17749E+3
   2.04024E+3   2.06994E+3
   2.07651E+3   1.90128E+3
   2.08822E+3   1.85683E+3
   2.09599E+3   1.81778E+3
   2.15142E+3   1.67946E+3
   2.14155E+3   1.63444E+3
   2.17007E+3   1.57871E+3
   2.03444E+3   1.54068E+3
   2.16500E+3   1.50342E+3
   2.17113E+3   1.48903E+3
   2.18471E+3   1.36557E+3
   2.16902E+3   1.28074E+3
   2.21681E+3   1.22620E+3
   2.17986E+3   1.18032E+3
   2.19779E+3   1.09443E+3
   2.22448E+3   1.02497E+3
   2.22348E+3   1.04572E+3
   2.11726E+3   9.25810E+2
