 
 $NMID
 ID=''
 FMTDAT='(2E13.5)'
 TRAMP=   1.00000E+0
 VOLUME=   1.00000E+0
 $END
  -1.78088E+4   1.30191E+4
  -5.34382E+4   1.90990E+4
  -4.92507E+4   2.77701E+4
  -4.54232E+4   2.53355E+4
  -4.78794E+4   2.47954E+4
  -4.68197E+4   2.67247E+4
  -4.52207E+4   2.49494E+4
  -4.65679E+4   2.41167E+4
  -4.58474E+4   2.51232E+4
  -4.49828E+4   2.39039E+4
  -4.57304E+4   2.32506E+4
  -4.51832E+4   2.39380E+4
  -4.45279E+4   2.32148E+4
  -4.52537E+4   2.26191E+4
  -4.49093E+4   2.28341E+4
  -4.42863E+4   2.22007E+4
  -4.47648E+4   2.17594E+4
  -4.43733E+4   2.19939E+4
  -4.38895E+4   2.15346E+4
  -4.41731E+4   2.11325E+4
  -4.38373E+4   2.12077E+4
  -4.32460E+4   2.10195E+4
  -4.34482E+4   2.07879E+4
  -4.32842E+4   2.07988E+4
  -4.27893E+4   2.03733E+4
  -4.27724E+4   2.01288E+4
  -4.26504E+4   2.01464E+4
  -4.23051E+4   1.95798E+4
  -4.23467E+4   1.92167E+4
  -4.20368E+4   1.91795E+4
  -4.17063E+4   1.88274E+4
  -4.17472E+4   1.85191E+4
  -4.15518E+4   1.83656E+4
  -4.12626E+4   1.80455E+4
  -4.11261E+4   1.77828E+4
  -4.08996E+4   1.78126E+4
  -4.05469E+4   1.74982E+4
  -4.03995E+4   1.72707E+4
  -4.01144E+4   1.71515E+4
  -3.99231E+4   1.69872E+4
  -3.97970E+4   1.68024E+4
  -3.96424E+4   1.65683E+4
  -3.94039E+4   1.61736E+4
  -3.91227E+4   1.59820E+4
  -3.88530E+4   1.58475E+4
  -3.86141E+4   1.56178E+4
  -3.84533E+4   1.53630E+4
  -3.81978E+4   1.52598E+4
  -3.80242E+4   1.50416E+4
  -3.78503E+4   1.48150E+4
  -3.75860E+4   1.45714E+4
  -3.73673E+4   1.43262E+4
  -3.71491E+4   1.42366E+4
  -3.68691E+4   1.40858E+4
  -3.66885E+4   1.39082E+4
  -3.64647E+4   1.36441E+4
  -3.62833E+4   1.34837E+4
  -3.60759E+4   1.32979E+4
  -3.58477E+4   1.30117E+4
  -3.55083E+4   1.28637E+4
  -3.51579E+4   1.27152E+4
  -3.49414E+4   1.25709E+4
  -3.47665E+4   1.25062E+4
  -3.45443E+4   1.22650E+4
  -3.42682E+4   1.21085E+4
  -3.40042E+4   1.20105E+4
  -3.38519E+4   1.18984E+4
  -3.35960E+4   1.16196E+4
  -3.33700E+4   1.15074E+4
  -3.31634E+4   1.14038E+4
  -3.28914E+4   1.12708E+4
  -3.26510E+4   1.10851E+4
  -3.24646E+4   1.09685E+4
  -3.21902E+4   1.08284E+4
  -3.19755E+4   1.07100E+4
  -3.17691E+4   1.05947E+4
  -3.15409E+4   1.04101E+4
  -3.12614E+4   1.03377E+4
  -3.10051E+4   1.02974E+4
  -3.08695E+4   1.01114E+4
  -3.06144E+4   1.00464E+4
  -3.04566E+4   9.86056E+3
  -3.02331E+4   9.81979E+3
  -3.00846E+4   9.66235E+3
  -2.98911E+4   9.54958E+3
  -2.96763E+4   9.33516E+3
  -2.95334E+4   9.24453E+3
  -2.92470E+4   9.12120E+3
  -2.90770E+4   8.99443E+3
  -2.89369E+4   8.87672E+3
  -2.86845E+4   8.77197E+3
  -2.84850E+4   8.56102E+3
  -2.82370E+4   8.51150E+3
  -2.81438E+4   8.40743E+3
  -2.79641E+4   8.28113E+3
  -2.76940E+4   8.08848E+3
  -2.74742E+4   7.96081E+3
  -2.73201E+4   7.89204E+3
  -2.71437E+4   7.75101E+3
  -2.69033E+4   7.56800E+3
  -2.67333E+4   7.42042E+3
  -2.65125E+4   7.31437E+3
  -2.64124E+4   7.26707E+3
  -2.62248E+4   7.13459E+3
  -2.59308E+4   6.96707E+3
  -2.57207E+4   6.79664E+3
  -2.54799E+4   6.71735E+3
  -2.54027E+4   6.54696E+3
  -2.50664E+4   6.41764E+3
  -2.49001E+4   6.33710E+3
  -2.46697E+4   6.22873E+3
  -2.44231E+4   6.19264E+3
  -2.42382E+4   6.08493E+3
  -2.40479E+4   5.89224E+3
  -2.38395E+4   5.82833E+3
  -2.36162E+4   5.64433E+3
  -2.33864E+4   5.51493E+3
  -2.31539E+4   5.46445E+3
  -2.29819E+4   5.30383E+3
  -2.27821E+4   5.20857E+3
  -2.25734E+4   5.15618E+3
  -2.23958E+4   5.03723E+3
  -2.21584E+4   4.95304E+3
  -2.19398E+4   4.85505E+3
  -2.18156E+4   4.78027E+3
  -2.15296E+4   4.59659E+3
  -2.14190E+4   4.53907E+3
  -2.11274E+4   4.46358E+3
  -2.09464E+4   4.42973E+3
  -2.07549E+4   4.31433E+3
  -2.05681E+4   4.26999E+3
  -2.03421E+4   4.14258E+3
  -2.01119E+4   4.12694E+3
  -1.98893E+4   4.07253E+3
  -1.97773E+4   4.03317E+3
  -1.95639E+4   3.98121E+3
  -1.93554E+4   3.93144E+3
  -1.91591E+4   3.82508E+3
  -1.89437E+4   3.80042E+3
  -1.87721E+4   3.74427E+3
  -1.85535E+4   3.67469E+3
  -1.83516E+4   3.59954E+3
  -1.81998E+4   3.55693E+3
  -1.80253E+4   3.53600E+3
  -1.78481E+4   3.50466E+3
  -1.76704E+4   3.40770E+3
  -1.75349E+4   3.39895E+3
  -1.73402E+4   3.39774E+3
  -1.71117E+4   3.38778E+3
  -1.69523E+4   3.39189E+3
  -1.68960E+4   3.20931E+3
  -1.66885E+4   3.17631E+3
  -1.64918E+4   3.18055E+3
  -1.62587E+4   3.11119E+3
  -1.61018E+4   3.07837E+3
  -1.59379E+4   3.04738E+3
  -1.57764E+4   3.00111E+3
  -1.55734E+4   3.00936E+3
  -1.54278E+4   2.93046E+3
  -1.52670E+4   2.93710E+3
  -1.50981E+4   2.85480E+3
  -1.49577E+4   2.82677E+3
  -1.47852E+4   2.75968E+3
  -1.46250E+4   2.73592E+3
  -1.44506E+4   2.63090E+3
  -1.43511E+4   2.64449E+3
  -1.41881E+4   2.68662E+3
  -1.39729E+4   2.60501E+3
  -1.38547E+4   2.60765E+3
  -1.37017E+4   2.51610E+3
  -1.35409E+4   2.44163E+3
  -1.33713E+4   2.41310E+3
  -1.32631E+4   2.36406E+3
  -1.31021E+4   2.37181E+3
  -1.29357E+4   2.31097E+3
  -1.27221E+4   2.30384E+3
  -1.26191E+4   2.19695E+3
  -1.24180E+4   2.21714E+3
  -1.23408E+4   2.17618E+3
  -1.21544E+4   2.14414E+3
  -1.19720E+4   2.06745E+3
  -1.18355E+4   2.06825E+3
  -1.16772E+4   2.05279E+3
  -1.15389E+4   1.99828E+3
  -1.14105E+4   1.99811E+3
  -1.13062E+4   1.95259E+3
  -1.11019E+4   1.98780E+3
  -1.09975E+4   1.89973E+3
  -1.08535E+4   1.88785E+3
  -1.06489E+4   1.79872E+3
  -1.05138E+4   1.71848E+3
  -1.03363E+4   1.74308E+3
  -1.02328E+4   1.73775E+3
  -1.01020E+4   1.70681E+3
  -9.91497E+3   1.68877E+3
  -9.79768E+3   1.66835E+3
  -9.70627E+3   1.60740E+3
  -9.55834E+3   1.52545E+3
  -9.35796E+3   1.47926E+3
  -9.24214E+3   1.49661E+3
  -9.07089E+3   1.49452E+3
  -8.99160E+3   1.47538E+3
  -8.89378E+3   1.48733E+3
  -8.78290E+3   1.39304E+3
  -8.67335E+3   1.41326E+3
  -8.51800E+3   1.32312E+3
  -8.39833E+3   1.32086E+3
  -8.27974E+3   1.31449E+3
  -8.12376E+3   1.25571E+3
  -8.04723E+3   1.24990E+3
  -7.91226E+3   1.20834E+3
  -7.75601E+3   1.17634E+3
  -7.71613E+3   1.07869E+3
  -7.56254E+3   1.07760E+3
  -7.38234E+3   1.12129E+3
  -7.30922E+3   1.11360E+3
  -7.21564E+3   1.00194E+3
  -7.10964E+3   1.01390E+3
  -6.97870E+3   9.15446E+2
  -6.89581E+3   8.58327E+2
  -6.76115E+3   9.71501E+2
  -6.69358E+3   9.95499E+2
  -6.56428E+3   9.11276E+2
  -6.51882E+3   8.40046E+2
  -6.42044E+3   8.40060E+2
  -6.26939E+3   8.85586E+2
  -6.28135E+3   7.67996E+2
  -6.07213E+3   8.36594E+2
  -6.05413E+3   8.03623E+2
  -5.96953E+3   7.17888E+2
  -5.86223E+3   6.55280E+2
  -5.73853E+3   7.14123E+2
  -5.68671E+3   6.84222E+2
  -5.56003E+3   5.60265E+2
  -5.48284E+3   5.60937E+2
  -5.41794E+3   6.16157E+2
  -5.30787E+3   6.24471E+2
  -5.28824E+3   5.70991E+2
  -5.16066E+3   5.25308E+2
  -5.06972E+3   5.12008E+2
  -4.99127E+3   5.49120E+2
  -4.92573E+3   4.87841E+2
  -4.87850E+3   4.44754E+2
  -4.74416E+3   4.64503E+2
  -4.70065E+3   4.01697E+2
  -4.63311E+3   4.27138E+2
  -4.59095E+3   3.56142E+2
  -4.51891E+3   3.72954E+2
  -4.44853E+3   3.26181E+2
  -4.36005E+3   3.66608E+2
  -4.33704E+3   2.70435E+2
  -4.22086E+3   3.25545E+2
  -4.10797E+3   2.11510E+2
  -4.09836E+3   3.20261E+2
  -4.01588E+3   1.95220E+2
  -3.97694E+3   1.58438E+2
  -3.90959E+3   1.52835E+2
  -3.89267E+3   1.65187E+2
  -3.79046E+3   1.57676E+2
  -3.73385E+3   1.44735E+2
  -3.78527E+3   9.98683E+1
  -3.60033E+3   1.10352E+2
  -3.57915E+3   3.55766E+1
  -3.49314E+3   6.65523E+1
  -3.44952E+3   3.16781E+1
  -3.38249E+3   4.87216E+1
  -3.36232E+3   1.26625E+1
  -3.24857E+3  -5.33741E+0
  -3.24593E+3  -6.61351E+1
  -3.17039E+3  -4.29170E+1
  -3.10729E+3  -9.07981E+1
  -3.03795E+3  -1.19372E+2
  -3.05758E+3  -1.04887E+2
  -3.03702E+3  -1.29316E+2
  -2.89534E+3  -1.57240E+2
  -2.90060E+3  -9.36122E+1
  -2.84844E+3  -2.20470E+2
  -2.86029E+3  -2.00456E+2
  -2.79759E+3  -2.08051E+2
  -2.66144E+3  -2.41762E+2
  -2.60515E+3  -2.50807E+2
  -2.63383E+3  -2.66152E+2
  -2.64927E+3  -3.48589E+2
  -2.58034E+3  -3.53228E+2
  -2.49057E+3  -2.79033E+2
  -2.47268E+3  -3.66704E+2
  -2.42942E+3  -3.98647E+2
  -2.40986E+3  -3.71646E+2
  -2.33387E+3  -4.18652E+2
  -2.25249E+3  -4.68982E+2
  -2.30080E+3  -3.99634E+2
  -2.25135E+3  -4.52219E+2
  -2.18919E+3  -4.89391E+2
  -2.12057E+3  -4.80958E+2
  -2.17495E+3  -5.36707E+2
  -2.07910E+3  -4.62559E+2
  -2.01853E+3  -4.71629E+2
  -2.00278E+3  -5.26097E+2
  -1.88880E+3  -5.75149E+2
  -1.86762E+3  -5.62672E+2
  -1.87026E+3  -5.55869E+2
  -1.85801E+3  -5.35042E+2
  -1.84309E+3  -5.79807E+2
  -1.77193E+3  -6.48577E+2
  -1.76921E+3  -6.43565E+2
  -1.72248E+3  -6.93108E+2
  -1.71391E+3  -6.30502E+2
  -1.68687E+3  -7.10174E+2
  -1.66216E+3  -6.93600E+2
  -1.63531E+3  -6.99173E+2
  -1.57985E+3  -6.45329E+2
  -1.57031E+3  -6.83873E+2
  -1.52450E+3  -7.37805E+2
  -1.49582E+3  -7.36367E+2
  -1.48446E+3  -7.33096E+2
  -1.37405E+3  -7.46276E+2
  -1.41967E+3  -7.76037E+2
  -1.42401E+3  -7.51866E+2
  -1.42146E+3  -7.68986E+2
  -1.30952E+3  -8.04115E+2
  -1.30893E+3  -8.54683E+2
  -1.24502E+3  -7.85533E+2
  -1.20174E+3  -7.85217E+2
  -1.22434E+3  -7.83241E+2
  -1.16971E+3  -8.83627E+2
  -1.08402E+3  -8.80048E+2
  -1.11551E+3  -8.51743E+2
  -1.12163E+3  -8.28766E+2
  -1.10086E+3  -8.93087E+2
  -1.07082E+3  -9.33923E+2
  -9.96578E+2  -9.51846E+2
  -1.00568E+3  -8.93452E+2
  -9.62839E+2  -9.65646E+2
  -9.73798E+2  -9.42757E+2
  -8.65372E+2  -9.59012E+2
  -8.91469E+2  -1.05175E+3
  -8.59438E+2  -1.06157E+3
  -7.45487E+2  -9.85804E+2
  -7.72878E+2  -9.81346E+2
  -7.73461E+2  -1.03022E+3
  -8.51485E+2  -1.09531E+3
  -7.02117E+2  -1.08259E+3
  -7.00458E+2  -1.11714E+3
  -6.45203E+2  -1.05657E+3
  -6.45405E+2  -1.11238E+3
  -6.12191E+2  -1.11446E+3
  -6.13097E+2  -1.12359E+3
  -5.51731E+2  -1.12325E+3
  -5.84594E+2  -1.12222E+3
  -5.83724E+2  -1.14930E+3
  -4.44065E+2  -1.11302E+3
  -4.56657E+2  -1.11909E+3
  -4.25381E+2  -1.17290E+3
  -4.46027E+2  -1.18928E+3
  -4.71240E+2  -1.24287E+3
  -4.37421E+2  -1.20408E+3
  -3.04429E+2  -1.13588E+3
  -3.59698E+2  -1.22866E+3
  -3.47609E+2  -1.19903E+3
  -2.93813E+2  -1.23276E+3
  -3.29204E+2  -1.21506E+3
  -3.16624E+2  -1.25202E+3
  -2.10642E+2  -1.21517E+3
  -2.31422E+2  -1.16952E+3
  -2.20232E+2  -1.24085E+3
  -2.18596E+2  -1.21146E+3
  -1.69711E+2  -1.28200E+3
