 
 $NMID
 ID=''
 FMTDAT='(2E13.5)'
 TRAMP=   1.00000E+0
 VOLUME=   1.00000E+0
 $END
  -1.53793E+4   1.49429E+4
  -4.90467E+4   2.59015E+4
  -4.38297E+4   3.39922E+4
  -4.04599E+4   3.14304E+4
  -4.30485E+4   3.15421E+4
  -4.17081E+4   3.34236E+4
  -4.04006E+4   3.19000E+4
  -4.17066E+4   3.14275E+4
  -4.07960E+4   3.25853E+4
  -4.00263E+4   3.15681E+4
  -4.05937E+4   3.11024E+4
  -3.97384E+4   3.20411E+4
  -3.89720E+4   3.14507E+4
  -3.96440E+4   3.10389E+4
  -3.90008E+4   3.13476E+4
  -3.83176E+4   3.08062E+4
  -3.86060E+4   3.06066E+4
  -3.81718E+4   3.09314E+4
  -3.75603E+4   3.04870E+4
  -3.77741E+4   3.02601E+4
  -3.72426E+4   3.03354E+4
  -3.65610E+4   3.01618E+4
  -3.66770E+4   3.00371E+4
  -3.63626E+4   3.00636E+4
  -3.57258E+4   2.97002E+4
  -3.56698E+4   2.95106E+4
  -3.52958E+4   2.95835E+4
  -3.48778E+4   2.91170E+4
  -3.48439E+4   2.88554E+4
  -3.45551E+4   2.88544E+4
  -3.39945E+4   2.86453E+4
  -3.39458E+4   2.84882E+4
  -3.36550E+4   2.84813E+4
  -3.32727E+4   2.81692E+4
  -3.30230E+4   2.81067E+4
  -3.26821E+4   2.80807E+4
  -3.22871E+4   2.78362E+4
  -3.19812E+4   2.76030E+4
  -3.16446E+4   2.76033E+4
  -3.13225E+4   2.74036E+4
  -3.10733E+4   2.72350E+4
  -3.08935E+4   2.69655E+4
  -3.06494E+4   2.66592E+4
  -3.01743E+4   2.63824E+4
  -2.98834E+4   2.62774E+4
  -2.95804E+4   2.60926E+4
  -2.94271E+4   2.58871E+4
  -2.89702E+4   2.57153E+4
  -2.87263E+4   2.56003E+4
  -2.84693E+4   2.54524E+4
  -2.81601E+4   2.52328E+4
  -2.77769E+4   2.50692E+4
  -2.74220E+4   2.49441E+4
  -2.70996E+4   2.48721E+4
  -2.68562E+4   2.47077E+4
  -2.66484E+4   2.44802E+4
  -2.64297E+4   2.43849E+4
  -2.61426E+4   2.41584E+4
  -2.58441E+4   2.40127E+4
  -2.55788E+4   2.37566E+4
  -2.52674E+4   2.37166E+4
  -2.50475E+4   2.35267E+4
  -2.48118E+4   2.33754E+4
  -2.45250E+4   2.33012E+4
  -2.42960E+4   2.31070E+4
  -2.40390E+4   2.29306E+4
  -2.37528E+4   2.28506E+4
  -2.35307E+4   2.26713E+4
  -2.33190E+4   2.25976E+4
  -2.30708E+4   2.24214E+4
  -2.28132E+4   2.23088E+4
  -2.26016E+4   2.21312E+4
  -2.23339E+4   2.20538E+4
  -2.22097E+4   2.18519E+4
  -2.19292E+4   2.16481E+4
  -2.16843E+4   2.15411E+4
  -2.15126E+4   2.14390E+4
  -2.12322E+4   2.12991E+4
  -2.10266E+4   2.10571E+4
  -2.08007E+4   2.09155E+4
  -2.06365E+4   2.08564E+4
  -2.04293E+4   2.06712E+4
  -2.01799E+4   2.05177E+4
  -1.99882E+4   2.03297E+4
  -1.98602E+4   2.01186E+4
  -1.96664E+4   1.99625E+4
  -1.93910E+4   1.98251E+4
  -1.91309E+4   1.96204E+4
  -1.89953E+4   1.94289E+4
  -1.87390E+4   1.92952E+4
  -1.86465E+4   1.91193E+4
  -1.82949E+4   1.89573E+4
  -1.80416E+4   1.88394E+4
  -1.79194E+4   1.86927E+4
  -1.76349E+4   1.85357E+4
  -1.74475E+4   1.83421E+4
  -1.70524E+4   1.82417E+4
  -1.69477E+4   1.80568E+4
  -1.67097E+4   1.80529E+4
  -1.65510E+4   1.77725E+4
  -1.63268E+4   1.76653E+4
  -1.60486E+4   1.75372E+4
  -1.58673E+4   1.73735E+4
  -1.56478E+4   1.72824E+4
  -1.54860E+4   1.71737E+4
  -1.53858E+4   1.70348E+4
  -1.50753E+4   1.68758E+4
  -1.49411E+4   1.67924E+4
  -1.46491E+4   1.66225E+4
  -1.43466E+4   1.64953E+4
  -1.41659E+4   1.63736E+4
  -1.39359E+4   1.62675E+4
  -1.38090E+4   1.61934E+4
  -1.35531E+4   1.60641E+4
  -1.34290E+4   1.59370E+4
  -1.32526E+4   1.57913E+4
  -1.30360E+4   1.57152E+4
  -1.28996E+4   1.55972E+4
  -1.27192E+4   1.54856E+4
  -1.25149E+4   1.53654E+4
  -1.23375E+4   1.52447E+4
  -1.22240E+4   1.51845E+4
  -1.20554E+4   1.49043E+4
  -1.19094E+4   1.49034E+4
  -1.16881E+4   1.47868E+4
  -1.16101E+4   1.46368E+4
  -1.14045E+4   1.45116E+4
  -1.12490E+4   1.44379E+4
  -1.11347E+4   1.43567E+4
  -1.10277E+4   1.41576E+4
  -1.08753E+4   1.40168E+4
  -1.06957E+4   1.39361E+4
  -1.06071E+4   1.37896E+4
  -1.04858E+4   1.36781E+4
  -1.02904E+4   1.36351E+4
  -1.01986E+4   1.34691E+4
  -1.00644E+4   1.32837E+4
  -9.94657E+3   1.32280E+4
  -9.77242E+3   1.31160E+4
  -9.62466E+3   1.29446E+4
  -9.59105E+3   1.28020E+4
  -9.37569E+3   1.26566E+4
  -9.17075E+3   1.25280E+4
  -9.18031E+3   1.23969E+4
  -9.01806E+3   1.22408E+4
  -8.85181E+3   1.21597E+4
  -8.78601E+3   1.20276E+4
  -8.71778E+3   1.19024E+4
  -8.52621E+3   1.17537E+4
  -8.44726E+3   1.16244E+4
  -8.31679E+3   1.15232E+4
  -8.18142E+3   1.14024E+4
  -8.02173E+3   1.12528E+4
  -7.88001E+3   1.11137E+4
  -7.74178E+3   1.09943E+4
  -7.59200E+3   1.08261E+4
  -7.56539E+3   1.07540E+4
  -7.42501E+3   1.06257E+4
  -7.33609E+3   1.04416E+4
  -7.19418E+3   1.03796E+4
  -7.14754E+3   1.02911E+4
  -6.96116E+3   1.01426E+4
  -6.82536E+3   1.00038E+4
  -6.66613E+3   9.92403E+3
  -6.60352E+3   9.78738E+3
  -6.46519E+3   9.73398E+3
  -6.30799E+3   9.55344E+3
  -6.17498E+3   9.46119E+3
  -6.17817E+3   9.35296E+3
  -6.06379E+3   9.26898E+3
  -5.91623E+3   9.15512E+3
  -5.82189E+3   9.05322E+3
  -5.72451E+3   8.97424E+3
  -5.67240E+3   8.88938E+3
  -5.50748E+3   8.70081E+3
  -5.44532E+3   8.65340E+3
  -5.35758E+3   8.50539E+3
  -5.27881E+3   8.41005E+3
  -5.12356E+3   8.33682E+3
  -5.06488E+3   8.21898E+3
  -4.94899E+3   8.18831E+3
  -4.88106E+3   8.01583E+3
  -4.75290E+3   7.93010E+3
  -4.68025E+3   7.85915E+3
  -4.67784E+3   7.74465E+3
  -4.58261E+3   7.68962E+3
  -4.47092E+3   7.54170E+3
  -4.37032E+3   7.44288E+3
  -4.27082E+3   7.36831E+3
  -4.30813E+3   7.24993E+3
  -4.15750E+3   7.16926E+3
  -4.09584E+3   6.97280E+3
  -4.01724E+3   6.95973E+3
  -3.94982E+3   6.83086E+3
  -3.86403E+3   6.72128E+3
  -3.78104E+3   6.66203E+3
  -3.75976E+3   6.54793E+3
  -3.64282E+3   6.41110E+3
  -3.62504E+3   6.37350E+3
  -3.59460E+3   6.24241E+3
  -3.50885E+3   6.12165E+3
  -3.46635E+3   6.03086E+3
  -3.43818E+3   5.90051E+3
  -3.40029E+3   5.92161E+3
  -3.29138E+3   5.78559E+3
  -3.15618E+3   5.63385E+3
  -3.21265E+3   5.53748E+3
  -3.07867E+3   5.50879E+3
  -3.03373E+3   5.30247E+3
  -3.00045E+3   5.23025E+3
  -2.93365E+3   5.19843E+3
  -2.84683E+3   5.04029E+3
  -2.89620E+3   4.94810E+3
  -2.80591E+3   4.85353E+3
  -2.80182E+3   4.81985E+3
  -2.69851E+3   4.76532E+3
  -2.66544E+3   4.62612E+3
  -2.68693E+3   4.45991E+3
  -2.59543E+3   4.42775E+3
  -2.53016E+3   4.37789E+3
  -2.54404E+3   4.28963E+3
  -2.48660E+3   4.24007E+3
  -2.51037E+3   4.12192E+3
  -2.44079E+3   4.06787E+3
  -2.42020E+3   3.97903E+3
  -2.34229E+3   3.80549E+3
  -2.24280E+3   3.80571E+3
  -2.25465E+3   3.67651E+3
  -2.27541E+3   3.65638E+3
  -2.24274E+3   3.51546E+3
  -2.21954E+3   3.41330E+3
  -2.13021E+3   3.33349E+3
  -2.17623E+3   3.20368E+3
  -2.06548E+3   3.12825E+3
  -2.07512E+3   3.12114E+3
  -2.04779E+3   2.99327E+3
  -2.03355E+3   2.93673E+3
  -2.04711E+3   2.88203E+3
  -1.96740E+3   2.77445E+3
  -1.90895E+3   2.68083E+3
  -1.91802E+3   2.58899E+3
  -1.90956E+3   2.55278E+3
  -1.86922E+3   2.42009E+3
  -1.82056E+3   2.34785E+3
  -1.84042E+3   2.33095E+3
  -1.76289E+3   2.27175E+3
  -1.80342E+3   2.17696E+3
  -1.80001E+3   2.10006E+3
  -1.73086E+3   2.02860E+3
  -1.66425E+3   1.90537E+3
  -1.64223E+3   1.82484E+3
  -1.72291E+3   1.83533E+3
  -1.66032E+3   1.70769E+3
  -1.53691E+3   1.67005E+3
  -1.53973E+3   1.56041E+3
  -1.52234E+3   1.55966E+3
  -1.43681E+3   1.44634E+3
  -1.48077E+3   1.38634E+3
  -1.49966E+3   1.37612E+3
  -1.43271E+3   1.26078E+3
  -1.43444E+3   1.24969E+3
  -1.40953E+3   1.20597E+3
  -1.38473E+3   1.06481E+3
  -1.37454E+3   1.05303E+3
  -1.32461E+3   9.75887E+2
  -1.31787E+3   8.86800E+2
  -1.27847E+3   9.35787E+2
  -1.30413E+3   7.92102E+2
  -1.26506E+3   7.82416E+2
  -1.19639E+3   7.01436E+2
  -1.17777E+3   6.29894E+2
  -1.10128E+3   6.50388E+2
  -1.17555E+3   6.04164E+2
  -1.11000E+3   5.50720E+2
  -1.13373E+3   5.34865E+2
  -1.12900E+3   3.99040E+2
  -1.13243E+3   3.89884E+2
  -1.15788E+3   3.04677E+2
  -1.08354E+3   3.12182E+2
  -1.06475E+3   2.70598E+2
  -1.04496E+3   2.05519E+2
  -1.00155E+3   1.69975E+2
  -1.04055E+3   5.82741E+1
  -1.00023E+3   1.08623E+2
  -9.70795E+2   8.06433E+0
  -9.19143E+2  -7.25442E+1
  -9.59680E+2  -7.96394E+0
  -9.37350E+2  -1.47669E+2
  -9.59940E+2  -1.03753E+2
  -9.60077E+2  -1.82386E+2
  -8.73766E+2  -2.13733E+2
  -9.45616E+2  -2.32601E+2
  -8.81894E+2  -2.47201E+2
  -9.00682E+2  -3.19502E+2
  -8.50036E+2  -3.74108E+2
  -8.66607E+2  -3.58016E+2
  -8.36963E+2  -4.03975E+2
  -7.94643E+2  -4.00767E+2
  -8.76620E+2  -4.61268E+2
  -7.46041E+2  -5.43018E+2
  -8.71774E+2  -5.54501E+2
  -7.86419E+2  -5.93300E+2
  -8.10896E+2  -5.63064E+2
  -7.38006E+2  -6.20489E+2
  -7.55762E+2  -6.33548E+2
  -7.25219E+2  -6.23220E+2
  -7.39220E+2  -7.88911E+2
  -6.68933E+2  -8.30095E+2
  -7.62725E+2  -8.17168E+2
  -6.75477E+2  -8.01240E+2
  -6.78627E+2  -8.04195E+2
  -6.77186E+2  -8.67766E+2
  -6.43326E+2  -8.58089E+2
  -6.58463E+2  -9.44663E+2
  -6.81295E+2  -9.21077E+2
  -6.01510E+2  -9.65450E+2
  -5.94082E+2  -9.64587E+2
  -5.42662E+2  -1.03873E+3
  -6.02770E+2  -1.01848E+3
  -5.91878E+2  -1.06966E+3
  -5.78817E+2  -1.07189E+3
  -5.33124E+2  -1.10050E+3
  -5.76319E+2  -1.11335E+3
  -5.44274E+2  -1.13863E+3
  -5.43100E+2  -1.13104E+3
  -5.00483E+2  -1.19908E+3
  -5.80179E+2  -1.16258E+3
  -4.85800E+2  -1.24561E+3
  -5.14006E+2  -1.27255E+3
  -5.42992E+2  -1.25194E+3
  -4.90653E+2  -1.24423E+3
  -4.41478E+2  -1.25707E+3
  -5.07519E+2  -1.29705E+3
  -4.95766E+2  -1.27319E+3
  -5.01470E+2  -1.27701E+3
  -4.81656E+2  -1.29223E+3
  -4.50529E+2  -1.33866E+3
  -4.37218E+2  -1.35607E+3
  -5.03671E+2  -1.39237E+3
  -4.60844E+2  -1.35098E+3
  -4.53505E+2  -1.37909E+3
  -4.40456E+2  -1.31702E+3
  -4.32661E+2  -1.45222E+3
  -4.30083E+2  -1.40707E+3
  -4.03814E+2  -1.41862E+3
  -4.35315E+2  -1.40870E+3
  -4.51532E+2  -1.49247E+3
  -4.97481E+2  -1.48155E+3
  -4.94989E+2  -1.45097E+3
  -4.15836E+2  -1.52602E+3
  -4.55824E+2  -1.47744E+3
  -3.98213E+2  -1.46498E+3
  -4.34503E+2  -1.44242E+3
  -3.93109E+2  -1.55923E+3
  -4.59802E+2  -1.50091E+3
  -3.97599E+2  -1.51128E+3
  -3.77632E+2  -1.50832E+3
  -4.14841E+2  -1.56196E+3
  -4.17487E+2  -1.50771E+3
  -3.94141E+2  -1.53603E+3
  -3.80920E+2  -1.54998E+3
  -3.75377E+2  -1.55386E+3
  -3.96216E+2  -1.58931E+3
  -3.47614E+2  -1.53222E+3
  -3.67994E+2  -1.56599E+3
  -4.21401E+2  -1.59019E+3
  -4.13551E+2  -1.62403E+3
