 LCModel (Version 6.3-1N) Copyright: S.W. Provencher.          Ref.: Magn. Reson. Med. 30:672-679 (1993).                
 Slice_N1@23_15  02-Jun-2023 14:37:46
 27 lines in following concentration table = NCONC+1
    Conc.  %SD /Cr+PCr  Metabolite                                         
 1.42E-06  24% 2.0E-04 Mac                                                 
 2.75E-02  91%   3.899 Cr                                                  
 2.89E-02  88%   4.101 PCr                                                 
 7.78E-02  13%  11.022 Ins                                                 
 7.69E-02  10%  10.891 NAA                                                 
 8.41E-02  12%  11.915 Tau                                                 
 1.50E-02  18%   2.119 PCho                                                
    0.000 999%   0.000 GPC                                                 
 7.76E-02  14%  10.997 Glu                                                 
 1.43E-02  50%   2.027 Gln                                                 
 1.11E-02  77%   1.572 Ala                                                 
 4.18E-02  35%   5.927 Asc                                                 
 4.63E-03 134%   0.656 Asp                                                 
 3.88E-03  90%   0.550 GABA                                                
 4.46E-03  87%   0.631 Glc                                                 
 6.03E-03  62%   0.854 GSH                                                 
    0.000 999%   0.000 Lac                                                 
    0.000 999%   0.000 NAAG                                                
    0.000 999%   0.000 PE                                                  
 1.50E-02  18%   2.119 GPC+PCho                                            
 7.69E-02  10%  10.891 NAA+NAAG                                            
 9.19E-02  14%  13.024 Glu+Gln                                             
 5.65E-02  12%   8.000 Cr+PCr                                              
 7.69E-02  10%  10.891 NAA+NAAG                                            
 5.65E-02  12%   8.000 Cr+PCr                                              
 9.19E-02  14%  13.024 Glu+Gln                                             
   6 lines in following misc. output table
  FWHM = 0.047 ppm    S/N =   2                                            
  Data shift = 0.012 ppm                                                   
  Ph:   6 deg      -5.5 deg/ppm                                            
  alphaB,S = 3.1E+01,   1.3E+02                                            
   18 spline knots.   Ns = 9(1)                                            
   2 inflections.     1 extrema                                            
  654 points on ppm-axis = NY
      4.000000     3.994181     3.988363     3.982544     3.976726     3.970907     3.965088     3.959270     3.953451     3.947633
      3.941814     3.935995     3.930177     3.924358     3.918540     3.912721     3.906902     3.901084     3.895265     3.889446
      3.883628     3.877809     3.871991     3.866172     3.860353     3.854535     3.848716     3.842898     3.837079     3.831260
      3.825442     3.819623     3.813805     3.807986     3.802167     3.796349     3.790530     3.784712     3.778893     3.773074
      3.767256     3.761437     3.755619     3.749800     3.743981     3.738163     3.732344     3.726526     3.720707     3.714888
      3.709070     3.703251     3.697433     3.691614     3.685795     3.679977     3.674158     3.668339     3.662521     3.656702
      3.650884     3.645065     3.639246     3.633428     3.627609     3.621791     3.615972     3.610153     3.604335     3.598516
      3.592698     3.586879     3.581060     3.575242     3.569423     3.563605     3.557786     3.551967     3.546149     3.540330
      3.534512     3.528693     3.522874     3.517056     3.511237     3.505419     3.499600     3.493781     3.487963     3.482144
      3.476326     3.470507     3.464688     3.458870     3.453051     3.447232     3.441414     3.435595     3.429777     3.423958
      3.418139     3.412321     3.406502     3.400684     3.394865     3.389046     3.383228     3.377409     3.371591     3.365772
      3.359953     3.354135     3.348316     3.342498     3.336679     3.330860     3.325042     3.319223     3.313405     3.307586
      3.301767     3.295949     3.290130     3.284312     3.278493     3.272674     3.266856     3.261037     3.255219     3.249400
      3.243581     3.237763     3.231944     3.226125     3.220307     3.214488     3.208670     3.202851     3.197032     3.191214
      3.185395     3.179577     3.173758     3.167939     3.162121     3.156302     3.150484     3.144665     3.138846     3.133028
      3.127209     3.121391     3.115572     3.109753     3.103935     3.098116     3.092298     3.086479     3.080660     3.074842
      3.069023     3.063205     3.057386     3.051567     3.045749     3.039930     3.034111     3.028293     3.022474     3.016656
      3.010837     3.005018     2.999200     2.993381     2.987563     2.981744     2.975925     2.970107     2.964288     2.958470
      2.952651     2.946832     2.941014     2.935195     2.929377     2.923558     2.917739     2.911921     2.906102     2.900284
      2.894465     2.888646     2.882828     2.877009     2.871191     2.865372     2.859553     2.853735     2.847916     2.842098
      2.836279     2.830460     2.824642     2.818823     2.813004     2.807186     2.801367     2.795549     2.789730     2.783911
      2.778093     2.772274     2.766456     2.760637     2.754818     2.749000     2.743181     2.737363     2.731544     2.725725
      2.719907     2.714088     2.708270     2.702451     2.696632     2.690814     2.684995     2.679177     2.673358     2.667539
      2.661721     2.655902     2.650084     2.644265     2.638446     2.632628     2.626809     2.620991     2.615172     2.609353
      2.603535     2.597716     2.591897     2.586079     2.580260     2.574442     2.568623     2.562804     2.556986     2.551167
      2.545349     2.539530     2.533711     2.527893     2.522074     2.516256     2.510437     2.504618     2.498800     2.492981
      2.487163     2.481344     2.475525     2.469707     2.463888     2.458070     2.452251     2.446432     2.440614     2.434795
      2.428977     2.423158     2.417339     2.411521     2.405702     2.399884     2.394065     2.388246     2.382428     2.376609
      2.370790     2.364972     2.359153     2.353335     2.347516     2.341697     2.335879     2.330060     2.324242     2.318423
      2.312604     2.306786     2.300967     2.295149     2.289330     2.283511     2.277693     2.271874     2.266056     2.260237
      2.254418     2.248600     2.242781     2.236963     2.231144     2.225325     2.219507     2.213688     2.207870     2.202051
      2.196232     2.190414     2.184595     2.178777     2.172958     2.167139     2.161321     2.155502     2.149683     2.143865
      2.138046     2.132228     2.126409     2.120590     2.114772     2.108953     2.103135     2.097316     2.091497     2.085679
      2.079860     2.074042     2.068223     2.062404     2.056586     2.050767     2.044949     2.039130     2.033311     2.027493
      2.021674     2.015856     2.010037     2.004218     1.998400     1.992581     1.986763     1.980944     1.975126     1.969307
      1.963489     1.957670     1.951852     1.946033     1.940215     1.934397     1.928578     1.922760     1.916941     1.911123
      1.905304     1.899486     1.893667     1.887849     1.882030     1.876212     1.870393     1.864575     1.858756     1.852938
      1.847119     1.841301     1.835482     1.829664     1.823845     1.818027     1.812208     1.806390     1.800571     1.794753
      1.788934     1.783116     1.777297     1.771479     1.765660     1.759842     1.754023     1.748205     1.742386     1.736568
      1.730749     1.724931     1.719113     1.713294     1.707476     1.701657     1.695839     1.690020     1.684202     1.678383
      1.672565     1.666746     1.660928     1.655109     1.649291     1.643472     1.637654     1.631835     1.626017     1.620198
      1.614380     1.608561     1.602743     1.596924     1.591106     1.585287     1.579469     1.573650     1.567832     1.562013
      1.556195     1.550376     1.544558     1.538739     1.532921     1.527102     1.521284     1.515465     1.509647     1.503829
      1.498010     1.492192     1.486373     1.480555     1.474736     1.468918     1.463099     1.457281     1.451462     1.445644
      1.439825     1.434007     1.428188     1.422370     1.416551     1.410733     1.404914     1.399096     1.393277     1.387459
      1.381640     1.375822     1.370003     1.364185     1.358366     1.352548     1.346729     1.340911     1.335092     1.329274
      1.323455     1.317637     1.311818     1.306000     1.300182     1.294363     1.288545     1.282726     1.276908     1.271089
      1.265271     1.259452     1.253634     1.247815     1.241997     1.236178     1.230360     1.224541     1.218723     1.212904
      1.207086     1.201267     1.195449     1.189630     1.183812     1.177993     1.172175     1.166356     1.160538     1.154719
      1.148901     1.143082     1.137264     1.131445     1.125627     1.119808     1.113990     1.108171     1.102353     1.096534
      1.090716     1.084898     1.079079     1.073261     1.067442     1.061624     1.055805     1.049987     1.044168     1.038350
      1.032531     1.026713     1.020894     1.015076     1.009257     1.003439     0.997620     0.991802     0.985983     0.980165
      0.974346     0.968528     0.962709     0.956891     0.951072     0.945254     0.939435     0.933617     0.927798     0.921980
      0.916161     0.910343     0.904524     0.898706     0.892887     0.887069     0.881251     0.875432     0.869614     0.863795
      0.857977     0.852158     0.846340     0.840521     0.834703     0.828884     0.823066     0.817247     0.811429     0.805610
      0.799792     0.793973     0.788155     0.782336     0.776518     0.770699     0.764881     0.759062     0.753244     0.747425
      0.741607     0.735788     0.729970     0.724151     0.718333     0.712514     0.706696     0.700877     0.695059     0.689240
      0.683422     0.677603     0.671785     0.665967     0.660148     0.654330     0.648511     0.642693     0.636874     0.631056
      0.625237     0.619419     0.613600     0.607782     0.601963     0.596145     0.590326     0.584508     0.578689     0.572871
      0.567052     0.561234     0.555415     0.549597     0.543778     0.537960     0.532141     0.526323     0.520504     0.514686
      0.508867     0.503049     0.497230     0.491412     0.485593     0.479775     0.473956     0.468138     0.462319     0.456501
      0.450682     0.444864     0.439045     0.433227     0.427408     0.421590     0.415771     0.409953     0.404134     0.398316
      0.392497     0.386679     0.380860     0.375042     0.369223     0.363405     0.357586     0.351767     0.345949     0.340130
      0.334312     0.328493     0.322675     0.316856     0.311038     0.305219     0.299401     0.293582     0.287764     0.281945
      0.276127     0.270308     0.264490     0.258671     0.252853     0.247034     0.241216     0.235397     0.229579     0.223760
      0.217942     0.212123     0.206305     0.200486
 NY phased data points follow
   7.59479E-02  3.61490E-01 -8.42153E-02  1.01294E-01 -1.79099E-02 -6.21631E-02 -4.19869E-02 -7.82131E-02 -1.26757E-01 -7.30563E-02
  -9.13049E-02 -8.07354E-02  5.89568E-01  3.81461E-01  1.76561E-01  4.35291E-01  4.00264E-01 -1.22280E-01 -5.30494E-02  1.68942E-01
  -1.64075E-02 -5.16909E-02  2.01875E-01  1.05027E-01 -3.97623E-02  1.75487E-01 -2.22315E-01 -1.68242E-01 -2.11145E-01 -1.71902E-01
  -3.23302E-01 -1.78618E-01  3.93007E-02 -5.05788E-01 -2.77105E-01 -3.65761E-01 -2.01546E-01  2.61777E-02 -1.44732E-01 -1.30029E-01
  -2.39844E-01 -7.53270E-02  3.49456E-01  4.95887E-01  2.64179E-01  1.56364E-01  8.93816E-02  1.11754E-01  2.26736E-01  2.32689E-01
   2.89826E-01  4.21633E-01  3.47178E-01  1.00802E-01 -3.87543E-02  1.22456E-02  1.68077E-02 -1.00576E-01 -2.91119E-01 -3.94541E-01
  -1.43461E-01 -2.60525E-01 -2.02492E-01  3.55102E-02 -1.92525E-01  4.89134E-02  3.60447E-02 -1.56534E-01 -1.78751E-01 -2.31950E-02
   2.75087E-01  2.15956E-01  4.45040E-01  9.40058E-02 -8.72239E-02  1.33731E-01 -1.31576E-01  1.79545E-01  2.44977E-01 -2.37054E-01
  -3.03393E-01 -4.22972E-01 -2.16999E-01  1.52241E-01 -5.23780E-02  1.11650E-01  2.03195E-01  1.63239E-01  1.85534E-01  2.82095E-01
   3.94623E-01  2.60091E-01 -2.06014E-02 -7.37131E-02  2.27391E-02 -2.59798E-01  7.60310E-02 -6.66423E-02 -1.54546E-01 -1.63783E-01
  -3.63921E-01 -1.90032E-01 -4.02844E-01 -3.96456E-02  6.57952E-02  5.97869E-03  2.76668E-01  5.94982E-01  3.85350E-01  1.40020E-01
   1.61700E-01  2.24656E-01  2.50731E-01  1.13305E-01  4.29434E-01  2.54724E-01  3.72623E-01  2.70079E-01  2.02242E-01  3.95804E-01
   1.33601E-01  1.00757E-01  1.97562E-01  1.89400E-01 -3.12341E-01 -6.62492E-02  1.75131E-01 -1.45586E-01 -4.17877E-01 -5.41720E-01
  -4.94891E-01 -4.01697E-01 -5.70657E-01 -7.14983E-01 -3.04247E-01 -5.59073E-01 -5.62196E-01 -4.84904E-01 -5.41859E-01 -2.17547E-01
  -5.71820E-01 -3.99483E-01 -1.23922E-02 -3.31048E-01 -1.09503E-01 -2.28759E-01 -2.27900E-01  7.35498E-02 -2.94411E-02  3.47438E-01
  -4.96466E-02 -2.12977E-01  3.41088E-01  3.15915E-01  1.52268E-01  1.35719E-01  1.60482E-01  2.78814E-01  1.97639E-01  1.23604E-01
   2.38583E-01  6.45423E-02  2.96341E-01  4.69690E-01  5.54441E-01  5.94414E-01  5.32741E-01  5.70009E-03 -1.70238E-01 -1.49050E-01
  -4.63207E-01 -1.61673E-01 -6.21944E-01 -4.23756E-01 -3.01136E-01 -4.94093E-01 -2.60729E-01 -6.82359E-01 -5.98096E-01 -2.62776E-01
  -2.40365E-01 -1.86541E-01 -1.31026E-01 -2.37905E-01 -4.65487E-02  3.41022E-02 -6.22497E-02 -2.64188E-01 -9.33798E-03 -1.27823E-01
  -4.88454E-01 -1.82408E-01 -1.23561E-02  7.26951E-02 -3.38413E-01 -2.92670E-01 -4.06453E-01 -2.66629E-01  1.32431E-01 -2.38703E-01
  -1.21158E-01 -2.86628E-02 -9.45021E-02  3.07037E-02 -2.68892E-01 -3.60868E-01  1.92052E-02 -5.10129E-02 -1.19095E-01 -2.11754E-01
  -1.91219E-01 -8.55086E-02 -1.11303E-01 -4.78393E-02  8.53506E-02  1.43357E-01  1.23340E-01  1.67768E-01  3.94038E-02  2.17620E-01
   1.98767E-01 -1.95331E-01  9.68668E-02  4.92510E-01  7.83713E-02  1.39457E-01  5.37735E-01  5.13913E-01  4.33824E-01  3.21298E-01
   2.12861E-01  9.94079E-02 -1.30766E-02 -5.12061E-02  2.28584E-01  1.23866E-01  1.10678E-01  1.19862E-01 -3.18268E-01 -1.28067E-01
   5.63044E-02 -2.96724E-01 -8.05302E-02  1.12097E-02 -3.95364E-03 -8.52332E-02 -1.87710E-01  1.23682E-01  3.47724E-02  2.53373E-01
  -5.59511E-02  4.57016E-02  1.53826E-01  7.14235E-02  2.79704E-01 -1.05596E-01  3.74747E-01  3.33124E-01  4.58996E-02 -2.21918E-02
  -4.91417E-02  1.46186E-01 -4.27811E-02  1.23167E-01  2.58882E-01  4.06778E-02  2.09957E-01  7.93270E-03 -1.12071E-01  1.37059E-01
   3.30615E-01  4.10252E-01 -9.72783E-03  2.24311E-01  1.90195E-02 -2.71832E-03 -1.81537E-01 -4.92389E-01 -1.28195E-01 -2.56001E-01
  -2.48203E-02 -9.98081E-03 -2.64456E-01 -2.98456E-01 -2.16369E-02  2.65248E-01  4.05175E-01 -1.51877E-01  1.50107E-01  8.23786E-01
   4.16713E-01  5.29790E-01  5.01429E-01  3.44801E-01  2.70701E-01  2.24200E-01  2.70124E-01  2.61856E-01  4.43306E-02  1.71181E-01
   1.44372E-01  1.22797E-01  1.90913E-01 -3.11952E-02  1.83519E-01  1.78142E-01  4.10288E-01  2.47945E-01  2.83689E-01  4.12827E-01
   5.05103E-02  3.63893E-01  3.79322E-01  4.27884E-01  3.69583E-01  1.44811E-01  1.95558E-01  1.50684E-02 -3.20357E-02 -2.80445E-01
  -2.50259E-01 -1.26711E-01 -3.17654E-01 -2.89503E-01 -2.57413E-01 -1.03151E-01 -1.65710E-01 -2.76227E-01 -4.94779E-02  9.29440E-03
  -1.57167E-02  2.46768E-01  5.92349E-02 -9.64060E-02 -3.75980E-01 -3.81189E-01 -2.25715E-01 -4.47173E-01 -1.69461E-01 -2.01695E-01
  -2.93280E-01 -7.02150E-01 -9.80167E-01 -9.76339E-01 -3.99774E-01 -7.11971E-01 -8.43933E-01 -2.98857E-01 -4.40405E-01  2.60105E-01
  -1.25767E-01  1.51426E-01  2.07465E-01 -5.49407E-02  1.22309E-01 -1.62976E-01  5.62436E-02  6.58343E-02  1.88098E-01  3.15308E-01
   3.23401E-01  1.63587E-01  3.51934E-01 -3.98726E-02  1.78468E-01  2.72197E-01 -1.96290E-01  1.47864E-02  1.45670E-02  1.98871E-01
   1.84728E-01 -7.40879E-02 -1.22597E-01 -5.55683E-02  6.91174E-03  1.01361E-01 -1.30127E-01  2.92893E-01  1.06448E-01 -1.08963E-01
  -3.10597E-01 -2.31655E-01  3.96752E-01 -2.64020E-02  2.08961E-01  1.79966E-02 -1.30362E-01 -4.03129E-02 -8.08761E-02 -3.75062E-02
   6.06116E-02  1.85236E-01  2.23119E-01  6.20507E-02  1.41414E-01  1.39712E-01 -2.36974E-01  4.03406E-01  9.94473E-02  9.81206E-02
   4.05501E-01  3.74853E-02 -5.26077E-03 -2.77760E-01 -2.82356E-01 -9.47154E-02 -3.31931E-01 -1.13471E-01 -9.04763E-03 -2.80997E-01
   1.05187E-01 -1.29502E-01 -3.48262E-01  3.85885E-02  4.05492E-01 -5.40444E-02 -2.35407E-01 -1.02484E-01 -2.09366E-01 -2.01872E-01
  -1.90062E-01 -5.97740E-02 -2.24328E-01 -2.61884E-01 -3.00691E-01  4.16088E-02 -1.36064E-01 -3.74278E-02  2.84007E-02  5.33963E-02
   3.56646E-02 -4.83581E-01  4.55903E-02  2.22029E-01  2.86323E-01  1.25582E-01  6.40046E-02  2.82290E-01  1.08132E-01  1.70721E-01
   2.87388E-02  4.54652E-02  2.68221E-01  1.17220E-01  1.73448E-01  9.87304E-02  5.39340E-02  2.17212E-01  3.51465E-01  2.59987E-01
   1.25168E-01  4.67563E-01  2.82133E-01  8.64807E-02  1.83839E-01  1.71307E-01 -6.27805E-02  2.27606E-01  8.70072E-02 -3.67292E-02
  -2.88153E-02  1.90074E-03  5.73296E-01 -1.54800E-01 -1.22247E-02  3.02503E-01  1.68683E-01  2.40409E-01  1.21583E-01 -1.26299E-01
  -1.70441E-01 -8.74771E-02 -9.11273E-02 -1.77302E-01 -3.17592E-01  4.26759E-02 -3.36706E-01 -1.92173E-01 -2.06771E-01 -8.34031E-02
   5.97007E-02 -3.76145E-02 -2.50881E-02 -3.16920E-01  2.39727E-02 -9.07444E-02 -4.19246E-02  7.05233E-02  1.66919E-02 -4.46853E-02
   1.89183E-01  2.08224E-01  1.32518E-01  3.72341E-02 -9.02509E-02  7.25127E-02  2.35974E-02 -2.38110E-01 -2.03640E-02  2.89688E-01
  -1.08950E-01  3.09822E-01 -2.38914E-02 -1.27726E-01  1.64344E-01  4.39290E-02  1.99204E-01  1.90757E-03  4.69440E-02  2.16074E-01
   9.39891E-02 -2.29954E-01  2.05198E-01  9.25420E-02 -8.16964E-02 -5.83017E-03 -1.93297E-03  3.37355E-02 -5.34861E-02  2.94843E-01
  -2.68309E-02 -2.27463E-01  1.86087E-01 -5.97735E-02 -1.95661E-01  1.46892E-01 -1.23500E-01 -3.23418E-01 -2.88691E-01 -3.06544E-01
  -3.93536E-01 -8.15121E-02 -1.89814E-03 -2.34732E-01 -1.22996E-01 -2.57601E-01 -1.50919E-01  9.54589E-02  1.08345E-01 -6.90491E-02
  -1.59542E-01  1.77771E-02  8.97231E-02 -2.67547E-01  1.35824E-01 -9.95664E-02 -1.33192E-01  6.28418E-01 -1.17398E-01  1.45635E-01
   2.16976E-01 -1.23160E-01  2.98817E-01  8.39073E-02  2.44583E-01  2.13755E-01 -6.92453E-02 -2.34459E-01 -1.84226E-01  2.31851E-01
   5.01601E-03  1.80844E-01  1.87230E-01  4.52671E-02  1.78648E-01 -3.03390E-01 -1.81586E-01  4.54607E-02  7.94785E-02  8.93622E-02
  -5.49291E-02  1.99729E-01  2.08461E-01 -2.12332E-01  9.49084E-02  1.26999E-01 -2.09241E-01 -2.18130E-01  1.56618E-01  2.65029E-01
   5.07032E-02  1.87743E-01 -1.81945E-01  6.05179E-02  6.20031E-03  2.67064E-01  8.98265E-02 -3.64024E-01  8.93026E-02 -1.90723E-02
   2.38820E-01  7.54448E-02 -1.34828E-02 -1.38946E-01 -5.61529E-02  1.25576E-01 -3.38599E-02  3.42750E-03  1.19070E-01 -1.56540E-01
  -1.20330E-01  1.77744E-01  6.27151E-03  1.43662E-01 -1.99201E-01 -1.19661E-01  8.49962E-02  5.47999E-02 -1.98975E-01  1.53870E-01
   8.29359E-02 -2.24467E-01  3.53762E-01 -1.20989E-01  1.11665E-01  7.79872E-02 -3.74922E-01 -1.96994E-01 -7.35844E-02 -2.22060E-03
  -1.48392E-01 -1.46495E-01  1.90968E-01  2.44157E-01 -1.25926E-01  1.68870E-01  1.70716E-01 -2.32221E-01  7.54126E-02  5.98646E-02
   7.39289E-02  2.38589E-01  1.35733E-01  2.85902E-01  4.90148E-02  5.38217E-02 -1.48899E-02  1.33416E-01  5.45043E-02 -1.50010E-01
   1.51032E-01  1.72847E-01  1.21576E-01 -1.19029E-01 -1.30304E-01 -2.56710E-01  1.28812E-01 -1.68714E-01  9.58444E-02  4.64597E-01
  -1.98943E-01 -3.34594E-02  1.09325E-01  3.03710E-01
 NY points of the fit to the data follow
   8.90683E-02  8.29554E-02  7.27746E-02  6.08033E-02  5.03244E-02  4.22794E-02  4.07602E-02  4.75850E-02  6.35009E-02  8.93187E-02
   1.25846E-01  1.69868E-01  2.14926E-01  2.52997E-01  2.76473E-01  2.80009E-01  2.61726E-01  2.24252E-01  1.74218E-01  1.18885E-01
   6.40135E-02  1.50781E-02 -2.51177E-02 -5.59028E-02 -7.90741E-02 -9.71460E-02 -1.11778E-01 -1.24872E-01 -1.37327E-01 -1.49356E-01
  -1.61407E-01 -1.72880E-01 -1.83040E-01 -1.92152E-01 -1.98929E-01 -2.02212E-01 -1.98773E-01 -1.86107E-01 -1.60558E-01 -1.21624E-01
  -6.94957E-02 -7.11811E-03  6.07131E-02  1.28211E-01  1.89584E-01  2.39007E-01  2.72557E-01  2.88780E-01  2.88048E-01  2.72321E-01
   2.43826E-01  2.05749E-01  1.61419E-01  1.13823E-01  6.41364E-02  1.53053E-02 -3.18602E-02 -7.94764E-02 -1.21559E-01 -1.55220E-01
  -1.81093E-01 -1.95775E-01 -1.96215E-01 -1.82329E-01 -1.54060E-01 -1.10047E-01 -5.16185E-02  1.64755E-02  8.65924E-02  1.50661E-01
   2.01622E-01  2.31109E-01  2.33468E-01  2.14093E-01  1.77421E-01  1.25313E-01  6.29340E-02 -3.11234E-03 -6.53540E-02 -1.16242E-01
  -1.45507E-01 -1.45431E-01 -1.15151E-01 -5.88355E-02  1.57388E-02  9.77371E-02  1.73784E-01  2.32080E-01  2.66831E-01  2.75071E-01
   2.59940E-01  2.23161E-01  1.74064E-01  1.16880E-01  5.45392E-02 -1.37549E-02 -8.63573E-02 -1.59026E-01 -2.20894E-01 -2.58710E-01
  -2.61849E-01 -2.26660E-01 -1.57788E-01 -6.63160E-02  3.37828E-02  1.29526E-01  2.09305E-01  2.67855E-01  3.03290E-01  3.19480E-01
   3.22485E-01  3.17920E-01  3.11070E-01  3.03627E-01  2.96176E-01  2.88232E-01  2.80200E-01  2.69619E-01  2.56306E-01  2.38443E-01
   2.12790E-01  1.75079E-01  1.26398E-01  6.76805E-02  2.31273E-04 -7.53646E-02 -1.58515E-01 -2.50264E-01 -3.50964E-01 -4.44693E-01
  -5.13345E-01 -5.49314E-01 -5.59202E-01 -5.54629E-01 -5.48852E-01 -5.47866E-01 -5.47356E-01 -5.36752E-01 -5.08665E-01 -4.63047E-01
  -4.01918E-01 -3.26083E-01 -2.39692E-01 -1.53927E-01 -7.81037E-02 -1.77005E-02  2.73872E-02  5.98434E-02  8.35495E-02  1.03277E-01
   1.20737E-01  1.36869E-01  1.52411E-01  1.68053E-01  1.84503E-01  2.02569E-01  2.23423E-01  2.49152E-01  2.81829E-01  3.06700E-01
   3.23142E-01  3.39042E-01  3.59030E-01  3.75104E-01  3.73956E-01  3.37340E-01  2.52257E-01  1.22836E-01 -2.85169E-02 -1.74347E-01
  -2.96447E-01 -3.86287E-01 -4.36927E-01 -4.44481E-01 -4.18984E-01 -3.74990E-01 -3.27537E-01 -2.85224E-01 -2.51570E-01 -2.27332E-01
  -2.08164E-01 -1.92288E-01 -1.78907E-01 -1.67454E-01 -1.57410E-01 -1.48469E-01 -1.40391E-01 -1.32979E-01 -1.26006E-01 -1.19284E-01
  -1.12598E-01 -1.05876E-01 -9.91217E-02 -9.23594E-02 -8.56648E-02 -7.91598E-02 -7.29455E-02 -6.69851E-02 -6.11679E-02 -5.55183E-02
  -5.02789E-02 -4.56782E-02 -4.18233E-02 -3.86831E-02 -3.61260E-02 -3.40673E-02 -3.25595E-02 -3.17565E-02 -3.16654E-02 -3.20569E-02
  -3.26039E-02 -3.30723E-02 -3.33529E-02 -3.32997E-02 -3.27726E-02 -3.14609E-02 -2.79158E-02 -2.18491E-02 -1.48520E-02 -7.26324E-03
   3.44125E-03  2.03002E-02  4.41841E-02  7.30290E-02  1.03582E-01  1.32310E-01  1.56889E-01  1.76641E-01  1.90961E-01  1.97147E-01
   1.91825E-01  1.74595E-01  1.48331E-01  1.16718E-01  8.26037E-02  4.84005E-02  1.69470E-02 -9.60533E-03 -3.03576E-02 -4.54709E-02
  -5.60354E-02 -6.34914E-02 -6.92422E-02 -7.42100E-02 -7.87688E-02 -8.32520E-02 -8.78744E-02 -9.26736E-02 -9.63430E-02 -9.98550E-02
  -1.03961E-01 -1.07888E-01 -1.09700E-01 -1.08462E-01 -1.03263E-01 -9.15168E-02 -7.27649E-02 -4.88543E-02 -2.13844E-02  7.69431E-03
   3.60055E-02  6.02855E-02  7.88204E-02  9.15782E-02  9.84677E-02  9.95189E-02  9.57225E-02  8.88171E-02  7.96534E-02  6.73898E-02
   5.17874E-02  3.24906E-02  8.61553E-03 -1.92333E-02 -5.05024E-02 -8.35605E-02 -1.16509E-01 -1.48742E-01 -1.78616E-01 -2.03411E-01
  -2.18591E-01 -2.18172E-01 -1.96071E-01 -1.49507E-01 -8.07044E-02  3.15891E-03  9.17285E-02  1.73779E-01  2.40181E-01  2.85155E-01
   3.07646E-01  3.10623E-01  2.99219E-01  2.80177E-01  2.59147E-01  2.40119E-01  2.24866E-01  2.13145E-01  2.04347E-01  1.97356E-01
   1.91216E-01  1.85419E-01  1.79612E-01  1.73669E-01  1.67506E-01  1.60972E-01  1.53922E-01  1.45975E-01  1.36525E-01  1.25181E-01
   1.11370E-01  9.48331E-02  7.46734E-02  5.08280E-02  2.27425E-02 -9.14961E-03 -4.41131E-02 -8.01977E-02 -1.15368E-01 -1.47307E-01
  -1.73804E-01 -1.92829E-01 -2.02149E-01 -2.00497E-01 -1.87550E-01 -1.64424E-01 -1.34715E-01 -1.02832E-01 -7.42452E-02 -5.29239E-02
  -4.18136E-02 -4.11257E-02 -5.07503E-02 -8.24827E-02 -1.28209E-01 -1.73365E-01 -2.14589E-01 -2.63326E-01 -3.32515E-01 -4.31639E-01
  -5.56685E-01 -6.84207E-01 -7.80023E-01 -8.19529E-01 -7.98579E-01 -7.27067E-01 -6.15827E-01 -4.78162E-01 -3.38113E-01 -2.16042E-01
  -1.23967E-01 -6.20177E-02 -2.43649E-02 -4.02630E-03  8.43089E-03  1.69434E-02  2.27970E-02  2.66896E-02  2.90037E-02  3.00631E-02
   3.01097E-02  2.94648E-02  2.84905E-02  2.76091E-02  2.72282E-02  2.76436E-02  2.89618E-02  3.11560E-02  3.40952E-02  3.75611E-02
   4.13383E-02  4.51638E-02  4.88413E-02  5.22501E-02  5.53365E-02  5.81477E-02  6.07209E-02  6.30975E-02  6.52867E-02  6.73111E-02
   6.92266E-02  7.10661E-02  7.28563E-02  7.45777E-02  7.62069E-02  7.77174E-02  7.91185E-02  8.04484E-02  8.17517E-02  8.30273E-02
   8.42247E-02  8.52512E-02  8.59919E-02  8.63506E-02  8.62617E-02  8.56834E-02  8.46019E-02  8.30376E-02  8.10268E-02  7.85885E-02
   7.57548E-02  7.25660E-02  6.90653E-02  6.53175E-02  6.14198E-02  5.74686E-02  5.35373E-02  4.96853E-02  4.59647E-02  4.24310E-02
   3.91193E-02  3.60510E-02  3.32314E-02  3.06519E-02  2.83034E-02  2.61840E-02  2.42858E-02  2.26056E-02  2.11612E-02  1.99816E-02
   1.91059E-02  1.86192E-02  1.85953E-02  1.91041E-02  2.02848E-02  2.26839E-02  2.67277E-02  3.21208E-02  3.90674E-02  4.72784E-02
   5.70135E-02  6.89518E-02  8.35958E-02  1.00058E-01  1.16236E-01  1.29386E-01  1.37220E-01  1.38771E-01  1.34531E-01  1.26109E-01
   1.15745E-01  1.05648E-01  9.76131E-02  9.30129E-02  9.20757E-02  9.42432E-02  9.83638E-02  1.03274E-01  1.08162E-01  1.12354E-01
   1.15637E-01  1.17928E-01  1.19206E-01  1.19473E-01  1.18736E-01  1.17007E-01  1.14302E-01  1.10715E-01  1.06363E-01  1.01389E-01
   9.59361E-02  9.01725E-02  8.42597E-02  7.83586E-02  7.25979E-02  6.70693E-02  6.18450E-02  5.69812E-02  5.25161E-02  4.84861E-02
   4.49194E-02  4.18330E-02  3.92632E-02  3.72736E-02  3.59290E-02  3.52429E-02  3.51968E-02  3.57603E-02  3.68842E-02  3.84955E-02
   4.05200E-02  4.28764E-02  4.54359E-02  4.80429E-02  5.05651E-02  5.29030E-02  5.50191E-02  5.68850E-02  5.84762E-02  5.97800E-02
   6.07719E-02  6.14187E-02  6.16851E-02  6.15546E-02  6.10099E-02  6.00591E-02  5.87490E-02  5.71532E-02  5.53459E-02  5.33859E-02
   5.13308E-02  4.92206E-02  4.70597E-02  4.48447E-02  4.25831E-02  4.02858E-02  3.79756E-02  3.56692E-02  3.33748E-02  3.10692E-02
   2.86971E-02  2.61768E-02  2.34045E-02  2.02516E-02  1.66378E-02  1.25205E-02  7.85561E-03  2.57016E-03 -3.40925E-03 -1.01423E-02
  -1.76436E-02 -2.58765E-02 -3.47166E-02 -4.39556E-02 -5.33669E-02 -6.27290E-02 -7.17920E-02 -8.02937E-02 -8.80071E-02 -9.47370E-02
  -1.00318E-01 -1.04639E-01 -1.07660E-01 -1.09377E-01 -1.09796E-01 -1.09008E-01 -1.07184E-01 -1.04536E-01 -1.01252E-01 -9.74780E-02
  -9.33176E-02 -8.88212E-02 -8.40245E-02 -7.89241E-02 -7.35145E-02 -6.78117E-02 -6.18795E-02 -5.57985E-02 -4.96501E-02 -4.34948E-02
  -3.74309E-02 -3.15436E-02 -2.58782E-02 -2.04701E-02 -1.53454E-02 -1.05181E-02 -5.99541E-03 -1.81560E-03  2.00543E-03  5.48193E-03
   8.62654E-03  1.14401E-02  1.39302E-02  1.61145E-02  1.80222E-02  1.96901E-02  2.11481E-02  2.24121E-02  2.35089E-02  2.45104E-02
   2.54706E-02  2.64258E-02  2.73934E-02  2.83513E-02  2.92617E-02  3.00879E-02  3.07848E-02  3.13276E-02  3.17176E-02  3.19696E-02
   3.21164E-02  3.21835E-02  3.21687E-02  3.20970E-02  3.20364E-02  3.20180E-02  3.20253E-02  3.20167E-02  3.19472E-02  3.17674E-02
   3.14652E-02  3.10959E-02  3.07261E-02  3.03920E-02  3.00907E-02  2.98281E-02  2.95981E-02  2.93856E-02  2.91862E-02  2.90275E-02
   2.89457E-02  2.89694E-02  2.91030E-02  2.93558E-02  2.96984E-02  3.01078E-02  3.05545E-02  3.10044E-02  3.14315E-02  3.18120E-02
   3.21129E-02  3.23109E-02  3.23955E-02  3.24264E-02  3.24919E-02  3.26335E-02  3.28682E-02  3.31858E-02  3.35651E-02  3.40008E-02
   3.45171E-02  3.51362E-02  3.58196E-02  3.64796E-02  3.70262E-02  3.74297E-02  3.77038E-02  3.78806E-02  3.79792E-02  3.79951E-02
   3.79593E-02  3.79302E-02  3.79331E-02  3.79686E-02  3.80336E-02  3.81129E-02  3.82226E-02  3.83865E-02  3.86277E-02  3.89630E-02
   3.93851E-02  3.98688E-02  4.04128E-02  4.10228E-02  4.17166E-02  4.25221E-02  4.35082E-02  4.47103E-02  4.61046E-02  4.76288E-02
   4.92258E-02  5.08546E-02  5.25027E-02  5.41877E-02
 NY background values follow
     5.010E-02    4.997E-02    4.983E-02    4.969E-02    4.955E-02    4.941E-02    4.927E-02    4.913E-02    4.899E-02    4.885E-02
     4.871E-02    4.858E-02    4.844E-02    4.830E-02    4.816E-02    4.802E-02    4.788E-02    4.774E-02    4.760E-02    4.746E-02
     4.732E-02    4.718E-02    4.704E-02    4.690E-02    4.676E-02    4.662E-02    4.648E-02    4.634E-02    4.620E-02    4.606E-02
     4.592E-02    4.578E-02    4.564E-02    4.550E-02    4.536E-02    4.522E-02    4.508E-02    4.494E-02    4.480E-02    4.466E-02
     4.452E-02    4.438E-02    4.424E-02    4.410E-02    4.396E-02    4.382E-02    4.368E-02    4.354E-02    4.340E-02    4.326E-02
     4.312E-02    4.298E-02    4.284E-02    4.270E-02    4.256E-02    4.242E-02    4.228E-02    4.214E-02    4.200E-02    4.186E-02
     4.172E-02    4.157E-02    4.143E-02    4.129E-02    4.115E-02    4.101E-02    4.087E-02    4.073E-02    4.059E-02    4.045E-02
