 
 $NMID
 ID=''
 FMTDAT='(2E13.5)'
 TRAMP=   1.00000E+0
 VOLUME=   1.00000E+0
 $END
  -2.05648E+4   6.37579E+2
  -5.17884E+4  -1.33173E+4
  -5.35524E+4  -3.94737E+3
  -4.95988E+4  -3.16761E+3
  -5.14532E+4  -4.56148E+3
  -5.17495E+4  -2.20831E+3
  -4.97422E+4  -2.41041E+3
  -5.02195E+4  -3.50377E+3
  -5.02917E+4  -2.04125E+3
  -4.90707E+4  -2.37078E+3
  -4.93735E+4  -3.17698E+3
  -4.93265E+4  -2.04711E+3
  -4.84822E+4  -1.93748E+3
  -4.89332E+4  -2.59046E+3
  -4.89021E+4  -2.02015E+3
  -4.81496E+4  -2.00248E+3
  -4.83405E+4  -2.36182E+3
  -4.83176E+4  -1.81947E+3
  -4.76383E+4  -1.68133E+3
  -4.76850E+4  -2.02331E+3
  -4.74608E+4  -1.57719E+3
  -4.69091E+4  -1.21340E+3
  -4.68702E+4  -1.46416E+3
  -4.66629E+4  -1.25050E+3
  -4.59301E+4  -1.10355E+3
  -4.58524E+4  -1.09403E+3
  -4.56221E+4  -8.93626E+2
  -4.50408E+4  -9.14145E+2
  -4.47747E+4  -1.08776E+3
  -4.44073E+4  -8.32893E+2
  -4.39254E+4  -6.22988E+2
  -4.38270E+4  -6.05155E+2
  -4.36251E+4  -5.73993E+2
  -4.30567E+4  -4.98304E+2
  -4.28554E+4  -3.22212E+2
  -4.26756E+4  -1.12084E+2
  -4.21513E+4   1.98112E+1
  -4.19518E+4   2.22186E+2
  -4.17943E+4   3.53196E+2
  -4.15436E+4   5.40504E+2
  -4.12480E+4   6.97686E+2
  -4.11300E+4   8.26438E+2
  -4.07078E+4   8.85216E+2
  -4.03998E+4   1.06203E+3
  -4.00881E+4   1.27338E+3
  -3.99503E+4   1.45245E+3
  -3.96872E+4   1.57370E+3
  -3.94705E+4   1.77818E+3
  -3.92475E+4   2.03368E+3
  -3.90163E+4   2.19714E+3
  -3.87494E+4   2.37917E+3
  -3.84379E+4   2.58315E+3
  -3.82243E+4   2.79593E+3
  -3.79892E+4   3.14512E+3
  -3.78383E+4   3.29801E+3
  -3.76857E+4   3.46408E+3
  -3.74626E+4   3.65533E+3
  -3.73627E+4   3.82277E+3
  -3.71130E+4   3.98179E+3
  -3.68359E+4   4.10041E+3
  -3.66043E+4   4.30328E+3
  -3.64565E+4   4.59717E+3
  -3.63221E+4   4.72358E+3
  -3.61824E+4   4.86196E+3
  -3.59056E+4   4.83146E+3
  -3.57901E+4   5.11953E+3
  -3.56207E+4   5.33906E+3
  -3.54171E+4   5.34070E+3
  -3.51823E+4   5.50647E+3
  -3.49330E+4   5.57584E+3
  -3.47547E+4   5.75050E+3
  -3.45939E+4   5.79251E+3
  -3.43353E+4   5.94903E+3
  -3.41011E+4   6.00274E+3
  -3.38388E+4   6.19276E+3
  -3.36456E+4   6.27839E+3
  -3.33760E+4   6.40862E+3
  -3.31788E+4   6.44878E+3
  -3.29106E+4   6.62345E+3
  -3.27337E+4   6.78215E+3
  -3.26246E+4   6.87319E+3
  -3.23622E+4   6.94409E+3
  -3.22000E+4   7.00509E+3
  -3.20247E+4   7.11552E+3
  -3.19152E+4   7.15143E+3
  -3.17696E+4   7.08366E+3
  -3.15993E+4   7.05161E+3
  -3.13186E+4   7.12503E+3
  -3.12061E+4   7.18864E+3
  -3.10514E+4   7.26623E+3
  -3.09215E+4   7.23693E+3
  -3.07619E+4   7.24450E+3
  -3.07060E+4   7.28950E+3
  -3.05527E+4   7.26816E+3
  -3.04123E+4   7.20536E+3
  -3.01848E+4   7.15372E+3
  -3.00541E+4   7.13568E+3
  -2.98407E+4   7.16249E+3
  -2.97944E+4   7.06539E+3
  -2.96030E+4   6.91687E+3
  -2.94017E+4   6.70983E+3
  -2.91566E+4   6.66162E+3
  -2.90016E+4   6.65214E+3
  -2.89001E+4   6.51789E+3
  -2.86542E+4   6.35791E+3
  -2.85083E+4   6.18764E+3
  -2.82688E+4   5.97212E+3
  -2.80138E+4   5.84922E+3
  -2.78187E+4   5.73195E+3
  -2.75100E+4   5.49843E+3
  -2.72664E+4   5.39992E+3
  -2.70091E+4   5.37633E+3
  -2.67159E+4   5.19403E+3
  -2.64776E+4   4.95035E+3
  -2.61788E+4   4.82310E+3
  -2.59069E+4   4.66376E+3
  -2.55001E+4   4.48738E+3
  -2.52305E+4   4.29000E+3
  -2.48915E+4   4.17778E+3
  -2.45428E+4   4.01985E+3
  -2.41811E+4   3.92107E+3
  -2.39187E+4   3.75664E+3
  -2.35569E+4   3.53650E+3
  -2.32087E+4   3.42880E+3
  -2.28042E+4   3.33338E+3
  -2.25174E+4   3.21482E+3
  -2.21397E+4   3.13636E+3
  -2.18155E+4   2.94876E+3
  -2.14536E+4   2.85188E+3
  -2.11344E+4   2.76060E+3
  -2.07901E+4   2.68984E+3
  -2.03431E+4   2.53491E+3
  -1.99939E+4   2.46048E+3
  -1.97207E+4   2.42365E+3
  -1.94101E+4   2.33903E+3
  -1.90934E+4   2.16456E+3
  -1.85907E+4   2.15844E+3
  -1.83400E+4   2.12703E+3
  -1.79222E+4   2.03478E+3
  -1.76332E+4   2.04933E+3
  -1.73111E+4   1.97432E+3
  -1.69762E+4   1.92269E+3
  -1.67509E+4   1.88818E+3
  -1.64184E+4   1.87001E+3
  -1.60236E+4   1.70546E+3
  -1.57521E+4   1.72193E+3
  -1.54422E+4   1.66126E+3
  -1.52000E+4   1.56326E+3
  -1.49166E+4   1.59877E+3
  -1.46639E+4   1.53789E+3
  -1.43249E+4   1.47341E+3
  -1.40493E+4   1.40097E+3
  -1.37424E+4   1.42729E+3
  -1.35395E+4   1.37397E+3
  -1.31472E+4   1.30303E+3
  -1.30648E+4   1.28694E+3
  -1.27266E+4   1.19064E+3
  -1.24807E+4   1.11410E+3
  -1.22179E+4   1.11133E+3
  -1.19294E+4   1.13287E+3
  -1.17705E+4   1.01410E+3
  -1.14877E+4   9.57102E+2
  -1.12278E+4   8.93781E+2
  -1.09815E+4   8.72820E+2
  -1.07046E+4   8.79972E+2
  -1.04679E+4   8.20579E+2
  -1.01775E+4   7.48564E+2
  -9.98962E+3   7.62699E+2
  -9.71534E+3   6.77931E+2
  -9.49672E+3   7.18522E+2
  -9.25053E+3   6.38948E+2
  -9.07797E+3   5.62144E+2
  -8.82975E+3   6.27033E+2
  -8.57400E+3   5.75379E+2
  -8.44046E+3   4.96509E+2
  -8.12021E+3   5.03156E+2
  -7.95472E+3   4.36872E+2
  -7.69491E+3   4.69047E+2
  -7.48848E+3   5.02872E+2
  -7.31860E+3   4.95719E+2
  -7.09179E+3   4.02001E+2
  -6.90227E+3   4.51192E+2
  -6.66587E+3   3.57040E+2
  -6.55729E+3   4.24894E+2
  -6.31090E+3   3.94702E+2
  -6.13684E+3   3.63789E+2
  -5.91898E+3   3.98570E+2
  -5.71393E+3   3.50383E+2
  -5.56192E+3   3.69513E+2
  -5.43724E+3   3.83709E+2
  -5.24214E+3   3.73980E+2
  -5.07597E+3   3.41413E+2
  -4.97974E+3   3.55432E+2
  -4.77601E+3   2.61669E+2
  -4.58056E+3   3.41623E+2
  -4.48572E+3   3.22273E+2
  -4.36004E+3   2.88550E+2
  -4.13488E+3   2.75410E+2
  -3.99351E+3   2.94279E+2
  -3.91865E+3   3.53908E+2
  -3.77124E+3   2.70727E+2
  -3.55753E+3   2.03064E+2
  -3.48640E+3   2.71748E+2
  -3.38654E+3   2.67906E+2
  -3.30051E+3   2.93380E+2
  -3.01955E+3   2.19576E+2
  -2.99065E+3   2.42211E+2
  -2.85514E+3   1.83073E+2
  -2.76240E+3   2.08036E+2
  -2.63398E+3   2.19145E+2
  -2.57971E+3   1.78155E+2
  -2.39836E+3   9.76177E+1
  -2.30403E+3   1.73188E+2
  -2.20909E+3   1.97504E+2
  -2.02614E+3   1.92545E+2
  -1.97290E+3   2.03727E+2
  -1.89656E+3   1.81488E+2
  -1.77541E+3   1.70860E+2
  -1.71575E+3   1.70156E+2
  -1.66576E+3   1.16614E+2
  -1.56220E+3   9.18317E+1
  -1.37266E+3   1.17293E+2
  -1.34843E+3   1.21549E+2
  -1.25877E+3   1.85058E+2
  -1.22076E+3   9.73057E+1
  -1.13071E+3   1.64457E+2
  -1.04756E+3   9.32943E+1
  -9.69997E+2   1.17980E+2
  -8.79327E+2   1.37410E+2
  -8.40243E+2   1.23835E+2
  -7.38050E+2   5.88132E+1
  -7.01122E+2   1.62089E+2
  -6.06542E+2   1.14553E+2
  -5.86623E+2   1.62215E+2
  -5.33978E+2   2.07933E+2
  -4.67269E+2   1.92342E+2
  -3.74396E+2   2.01243E+2
  -3.34573E+2   1.44756E+2
  -2.92307E+2   1.06548E+2
  -2.75250E+2   2.18103E+2
  -2.22662E+2   2.07175E+2
  -1.39459E+2   1.76634E+2
  -9.79125E+1   1.38816E+2
  -1.22211E+2   2.51280E+2
  -9.72284E+1   1.88562E+2
  -9.23574E+0   2.14156E+2
  -2.42874E+1   2.04921E+2
   3.84746E+1   1.84379E+2
   1.05826E+2   2.17937E+2
   1.18965E+2   2.15333E+2
   1.22555E+2   2.64423E+2
   1.36517E+2   2.58719E+2
   1.30028E+2   1.91481E+2
   2.54732E+2   2.90420E+2
   2.36339E+2   2.30631E+2
   2.72938E+2   2.51697E+2
   2.84014E+2   2.97374E+2
   3.08539E+2   2.04430E+2
   3.76864E+2   2.75238E+2
   3.64730E+2   3.12602E+2
   3.65906E+2   2.87115E+2
   3.90724E+2   2.38211E+2
   4.43062E+2   2.94166E+2
   4.01528E+2   2.80649E+2
   4.04469E+2   3.49809E+2
   4.37019E+2   2.10009E+2
   4.43266E+2   2.46657E+2
   5.11910E+2   2.46802E+2
   4.93765E+2   2.99891E+2
   5.37608E+2   2.61934E+2
   4.99610E+2   2.68538E+2
   5.54344E+2   2.72869E+2
   5.21709E+2   2.20046E+2
   4.93731E+2   2.67775E+2
   6.20097E+2   2.73839E+2
   6.02798E+2   3.06177E+2
   6.08246E+2   2.85405E+2
   6.00952E+2   2.50980E+2
   6.38682E+2   3.00122E+2
   5.96287E+2   3.28018E+2
   5.91340E+2   3.17846E+2
   5.94756E+2   2.98101E+2
   6.28752E+2   2.97764E+2
   5.76671E+2   3.50165E+2
   6.73475E+2   3.08374E+2
   6.30375E+2   3.21358E+2
   6.39100E+2   3.50087E+2
   5.95164E+2   3.53637E+2
   6.03559E+2   2.99812E+2
   5.92065E+2   3.69498E+2
   5.82738E+2   3.75308E+2
   6.84677E+2   3.21747E+2
   6.57912E+2   4.00770E+2
   6.52902E+2   3.76273E+2
   6.25661E+2   3.78717E+2
   6.01893E+2   3.48296E+2
   6.60517E+2   3.51845E+2
   6.73837E+2   3.30682E+2
   6.09737E+2   3.61628E+2
   5.80836E+2   3.61128E+2
   5.75449E+2   4.36446E+2
   5.90714E+2   3.76195E+2
   5.43551E+2   3.90070E+2
   5.75095E+2   4.21244E+2
   5.99167E+2   4.14010E+2
   5.77714E+2   3.09200E+2
   5.90725E+2   4.15115E+2
   4.87213E+2   3.75489E+2
   5.18945E+2   3.49016E+2
   4.89361E+2   3.07132E+2
   5.45172E+2   3.28382E+2
   5.64102E+2   3.92865E+2
   4.66588E+2   3.43043E+2
   4.83486E+2   3.55212E+2
   4.95949E+2   3.65362E+2
   4.79531E+2   3.69119E+2
   4.57321E+2   3.86715E+2
   4.77681E+2   4.11158E+2
   4.62343E+2   3.91212E+2
   4.28504E+2   3.33188E+2
   3.91481E+2   3.29769E+2
   4.13313E+2   2.84246E+2
   4.19249E+2   3.60996E+2
   4.67263E+2   3.96420E+2
   4.32948E+2   3.77692E+2
   4.35686E+2   2.85331E+2
   3.61572E+2   3.53302E+2
   3.55786E+2   3.26573E+2
   3.40421E+2   2.98208E+2
   3.78195E+2   2.66535E+2
   4.40725E+2   3.19463E+2
   3.57319E+2   3.66851E+2
   3.18530E+2   2.65441E+2
   3.43144E+2   3.05154E+2
   3.14113E+2   2.87405E+2
   2.97017E+2   3.08621E+2
   2.65400E+2   2.74498E+2
   3.12085E+2   2.83507E+2
   3.23792E+2   2.63144E+2
   2.63540E+2   3.03446E+2
   3.03699E+2   2.73665E+2
   2.72581E+2   2.59350E+2
   2.80802E+2   2.81780E+2
   2.83785E+2   2.33481E+2
   2.29754E+2   2.72036E+2
   2.50191E+2   2.38797E+2
   1.93550E+2   2.30747E+2
   1.83133E+2   1.86347E+2
   2.66962E+2   2.38521E+2
   1.93297E+2   2.48744E+2
   2.96257E+2   2.52700E+2
   2.35482E+2   2.25451E+2
   1.36697E+2   2.17860E+2
   1.17544E+2   1.96763E+2
   1.84298E+2   1.90755E+2
   1.10016E+2   2.43856E+2
   1.75388E+2   1.86019E+2
   1.54130E+2   1.42808E+2
   1.28602E+2   1.94688E+2
   1.78068E+2   1.83342E+2
   1.05806E+2   1.51055E+2
   9.94005E+1   1.78664E+2
   9.25272E+1   1.80793E+2
   1.28386E+2   1.63218E+2
   5.09619E+1   1.75463E+2
   1.57021E+2   1.27874E+2
   1.26074E+1   1.38516E+2
