 
 $NMID
 ID=''
 FMTDAT='(2E13.5)'
 TRAMP=   1.00000E+0
 VOLUME=   1.00000E+0
 $END
   7.12118E+2  -5.36186E+2
   1.50297E+3   1.99023E+3
   1.81149E+3  -7.06189E+3
  -1.68164E+3  -2.23514E+3
  -3.05260E+3  -7.58021E+1
  -1.38771E+3  -1.29520E+3
  -4.48250E+1   2.38237E+3
  -3.79008E+3   2.09165E+1
  -4.86725E+2  -2.00607E+3
  -2.01326E+3  -3.42271E+2
  -6.61761E+2  -2.41317E+3
   1.98709E+3  -4.36095E+2
   1.80485E+3   1.15470E+3
  -2.77546E+3   2.52382E+3
  -2.84743E+3   2.05475E+3
  -1.73609E+3  -8.45479E+2
  -3.93133E+2  -1.83092E+2
   2.46784E+3   1.77548E+2
  -9.16912E+2   3.32677E+3
   1.02055E+2  -9.19891E+1
   2.39584E+3  -2.64176E+3
   4.52702E+3   4.65996E+3
  -1.16137E+3   5.78586E+3
  -1.30073E+3   8.92881E+2
   1.71381E+2  -2.98036E+3
   4.31345E+3   3.22214E+3
  -1.46834E+2   2.35628E+3
  -9.68840E+2   5.12548E+2
  -3.98105E+2  -3.14976E+3
   3.46787E+3  -4.12461E+3
   7.04907E+3   3.92084E+2
   2.59855E+3   6.03210E+3
  -4.48243E+3   7.79954E+2
  -2.54318E+3  -1.18374E+3
  -1.12401E+3   1.08499E+3
  -5.20028E+3  -1.94483E+3
  -3.37542E+3  -2.90868E+3
   1.05828E+3  -2.34188E+3
   1.56917E+2   7.31229E+1
   9.03141E+2  -8.38704E+2
   1.88070E+3   2.23498E+3
  -2.49000E+3   3.12162E+2
  -4.49199E+3  -4.09999E+3
   1.58694E+3  -2.83590E+3
   2.86270E+3  -1.17480E+3
   2.09259E+3   8.17439E+2
   2.65890E+3  -1.68799E+3
   2.01870E+3   6.38145E+2
   1.06739E+3   5.01804E+1
  -6.95285E+2   3.17592E+2
  -2.84895E+3  -6.21031E+2
  -6.74736E+2  -2.66345E+3
   2.64930E+3  -2.52932E+3
   2.37517E+3  -1.64689E+3
   2.03620E+3   8.72073E+2
   1.68983E+3   8.18821E+2
   9.23700E+2   3.50489E+3
  -8.09958E+2   1.52819E+3
  -3.98584E+3  -1.88742E+3
  -6.07161E+2  -1.18122E+3
   2.60395E+3  -1.56081E+3
   2.98685E+3  -1.48365E+2
   2.42895E+3   3.77256E+2
  -1.71503E+3   2.32119E+3
   1.42193E+3  -6.55213E+0
   4.91275E+2   5.40591E+1
   2.04688E+1   3.53504E+3
  -2.63070E+3   1.28805E+3
  -3.01475E+3  -1.00161E+3
   2.56571E+1  -8.00550E+2
  -3.35644E+2  -5.83645E+2
  -5.55594E+2  -4.56254E+2
   2.55066E+2  -1.98414E+3
  -8.21123E+2  -2.27945E+3
   1.93224E+3  -4.97577E+2
   7.02075E+1  -6.71358E+2
   9.51148E+2  -2.07300E+2
  -1.13956E+2  -1.43838E+3
   1.23880E+3  -1.44159E+3
   6.22285E+2   6.12053E+2
  -5.56718E+2   7.40984E+2
  -1.29480E+3   2.22416E+2
   1.46106E+3   1.09447E+3
   8.65882E+2   7.57720E+1
  -2.29633E+1   2.39826E+3
  -2.62152E+3   9.02268E+2
  -2.34918E+3  -2.04747E+3
   1.01312E+3  -2.75573E+3
   2.37997E+3  -2.38420E+3
   1.81040E+3   5.95578E+1
   2.00984E+2   1.72665E+3
   3.72249E+2   5.65879E+2
   2.21608E+3   2.83292E+3
  -1.22317E+3   3.66287E+3
  -1.49744E+3   3.09117E+3
  -2.84821E+3  -2.85386E+3
   2.79557E+3   9.82024E+2
   1.24794E+3   6.66451E+2
   1.29189E+3   9.70720E+2
  -2.17157E+3   6.87679E+2
  -2.10803E+3  -3.89239E+3
   1.67726E+3  -1.51980E+3
   4.24889E+3   6.43363E+2
  -2.35685E+2   1.97072E+3
  -1.32511E+3   2.62536E+3
  -1.18024E+3  -4.49280E+2
  -1.56804E+2   1.83648E+3
  -4.53647E+2   1.75303E+3
  -2.12421E+3   1.77409E+3
  -1.71594E+3  -2.67553E+3
   1.04967E+3  -2.75015E+3
   1.52218E+2  -2.95839E+3
   1.07785E+3   1.80522E+3
   6.89429E+2   1.33791E+3
  -2.94285E+3   1.74179E+3
  -1.11124E+3   3.21611E+3
  -1.78381E+3  -4.04256E+2
  -4.22361E+2  -1.14440E+3
  -6.67582E+2   1.51498E+3
   1.08302E+1   8.06712E+2
   1.78066E+3   1.53769E+3
  -8.50078E+2  -5.50403E+2
  -6.84798E+2  -1.67662E+3
  -8.30738E+2  -1.18903E+3
   1.65870E+2  -9.58832E+2
  -1.68103E+3  -1.63443E+3
  -1.39365E+3  -1.53729E+3
   5.18720E+2  -8.18892E+2
   3.26697E+2  -5.65157E+2
  -1.50016E+1   5.78260E+2
  -9.00373E+2   6.82402E+2
  -1.66578E+3  -1.03415E+2
   2.31107E+3  -1.00334E+3
   1.19180E+3   6.76784E+2
   2.07950E+2   9.43560E+2
  -1.49370E+3   1.67926E+3
  -1.86464E+3   1.75628E+3
  -1.29861E+3  -7.25896E+2
   9.62347E+1   8.07072E+2
  -7.53885E+2   2.05131E+2
   2.91561E+2  -1.26067E+3
   1.27486E+3  -3.25536E+2
   8.44185E+2  -1.02093E+3
   8.22808E+2   1.26824E+3
   5.52512E+2  -5.10379E+1
   4.24253E+2  -3.06787E+2
   2.86331E+3   5.05922E+2
  -8.52466E+2  -9.67994E+2
   6.58412E+2   1.38254E+3
   3.89417E+2   2.52183E+3
   1.85885E+3   2.50179E+3
  -2.46498E+3   1.20910E+3
  -7.15051E+2  -1.04603E+3
  -8.90980E+2   3.91902E+1
   1.33861E+3  -9.94039E+1
   9.75433E+2   1.43822E+3
   4.18180E+2   9.10435E+2
   9.25472E+2   1.28539E+3
  -2.54941E+2   1.22059E+3
  -4.69598E+2   1.91363E+3
   7.25377E+2   5.61330E+2
  -5.69750E+2   2.46155E+3
   2.32875E+2  -3.39932E+2
   3.39238E+2   1.66130E+3
   2.85025E+2   8.81131E+2
  -6.89043E+2   1.61453E+3
  -2.79681E+3  -1.14847E+3
   4.28485E+2  -4.14009E+2
   1.28958E+3   4.78902E+2
   9.39764E+2  -4.56716E+2
  -2.76582E+2  -1.05165E+3
   3.50819E+2   2.98040E+3
   8.24255E+1   8.90571E+2
  -2.30028E+3   5.61133E+2
   4.53875E+1   6.74533E+2
   1.03218E+2  -1.76066E+3
   8.58110E+1  -2.06719E+3
  -1.14965E+3  -1.94866E+2
   3.24963E+3  -1.28077E+3
  -2.11939E+2   1.68409E+3
  -1.44308E+3   1.95082E+3
  -2.05849E+3  -1.77109E+2
  -8.58169E+2  -1.87911E+3
   1.73984E+3  -1.34278E+3
  -7.82108E+2   3.76494E+2
   9.53872E+2  -1.45026E+3
   7.09129E+2   8.04427E+2
   7.06537E+2   1.59722E+3
  -4.68680E+2  -1.05327E+3
   1.07108E+3  -1.50172E+3
  -4.57209E+2  -1.22035E+2
   1.44022E+3   4.01051E+2
  -8.66304E+1  -1.44082E+2
   1.82886E+3   4.55745E+2
  -9.51158E+2   7.46378E+2
   2.96146E+2  -2.04836E+3
   2.42001E+3   1.56065E+3
  -1.28515E+3   6.57510E+2
   1.57183E+3  -9.97796E+2
  -4.94066E+2  -9.88662E+2
   1.68088E+3   2.20129E+3
  -9.75133E+2   1.04683E+3
  -1.73118E+3   5.78505E+2
  -8.17127E+2  -1.75082E+3
   8.99931E+2  -1.91669E+3
   8.06973E+2  -4.47534E+2
   1.52032E+3  -1.87017E+3
   2.48942E+3  -6.16488E+2
   6.87714E+2  -9.90997E+2
   8.80495E+2  -4.34495E+1
   5.93892E+2   2.33288E+3
  -7.08695E+2   1.96551E+3
  -1.86981E+3  -1.66437E+3
   6.59809E+2  -2.35539E+3
   3.30326E+3  -1.07354E+3
  -5.24803E+2   1.23837E+3
  -1.35380E+3   1.33864E+3
   6.98190E+2   1.20312E+2
  -7.52660E+2  -8.00309E+2
  -2.37503E+2   1.69434E+3
  -4.27330E+2  -1.02651E+3
   3.83381E+2  -2.90995E+2
   9.88382E+1   1.28701E+3
  -3.95715E+2   1.45481E+3
  -1.23006E+3  -8.70576E+2
  -3.80858E+3  -1.98526E+2
  -1.64587E+3  -2.17966E+3
   1.21475E+3  -6.05619E+2
   2.23460E+2  -2.29553E+3
   1.91647E+2   1.00135E+1
  -1.51189E+3  -1.72240E+3
   1.43335E+3   5.22402E+2
   7.14908E+2   4.40765E+2
  -3.20909E+1   5.54497E+2
  -1.33005E+2  -1.13130E+2
  -9.65829E+2  -9.38504E+2
   1.44732E+3   1.19829E+3
  -7.04526E+2   2.59891E+3
  -2.43070E+3  -1.78904E+2
  -1.11796E+3   9.34378E+2
  -1.83287E+3  -9.98352E+2
  -1.82496E+3   6.44447E+2
   8.50190E+1   8.77201E+2
  -9.80196E+2  -1.72503E+3
   3.10796E+2   9.08661E+1
  -1.66278E+3  -4.73506E+1
   5.13615E+2   6.62374E+1
  -1.70545E+3  -3.12213E+2
  -2.06846E+3  -1.07130E+3
  -2.67997E+2  -1.91697E+3
   1.86262E+3   1.05546E+3
   2.78308E+2   2.19645E+2
  -5.59744E+2  -6.98551E+2
  -3.22348E+2  -8.12304E+2
  -2.49572E+2  -4.18352E+2
   4.63115E+2  -5.30591E+2
  -4.75304E+2  -9.36642E+2
  -1.03230E+3  -1.49503E+3
  -2.39129E+0  -2.78835E+2
   1.52434E+3  -6.11931E+2
  -1.93107E+3  -7.80209E+2
  -1.58831E+3   9.43303E+2
   8.58529E+2  -1.19985E+3
   8.23236E+2   2.84906E+2
  -5.18000E+2  -4.86937E+2
  -1.71543E+3  -1.59023E+2
  -9.82916E+2   4.11623E+2
  -8.77266E+2   2.40708E+2
  -1.65644E+3   2.96696E+2
  -1.05520E+3  -1.50535E+2
  -1.01380E+3   2.93387E+2
   4.73271E+2  -2.04359E+3
  -5.82856E+2   6.08017E+2
  -1.40312E+3   2.58592E+2
  -8.98716E+2   1.06257E+3
  -2.42104E+3  -1.22995E+3
  -5.94771E+2  -1.22329E+3
  -9.72914E+2   4.41525E+2
   5.49814E+2  -6.57108E+0
  -2.70990E+2  -1.06525E+3
  -1.78057E+3  -7.79915E+2
   1.40331E+3   3.40877E+2
   5.20207E+2   2.00801E+2
  -2.76807E+3  -2.79074E+2
  -1.51510E+3  -1.32063E+3
   5.82117E+2  -8.22777E+2
   9.71888E+2  -8.92837E+2
  -1.01629E+3  -3.92925E+1
  -5.87504E+2   3.71905E+2
  -5.21060E+2  -3.16074E+2
  -1.21151E+3   8.39456E+2
  -1.09863E+2  -4.05995E+2
  -8.92326E+2  -4.28720E+2
   1.42425E+2  -2.24581E+2
   1.11114E+3   9.91774E+2
   1.37991E+3   1.84357E+3
  -3.02396E+2   5.03657E+3
  -4.95130E+2   2.16654E+2
   6.62216E+2   1.50668E+2
  -3.94175E+2  -6.82575E+2
   1.88609E+3   4.13024E+2
   3.81560E+2   5.95841E+1
  -1.52165E+3  -7.13311E+2
   2.50185E+3   9.79175E+2
   1.07326E+2   7.24517E+2
  -1.34183E+3   2.63721E+2
   2.96240E+2  -1.07236E+3
   1.42657E+3  -8.41549E+2
   1.42761E+3  -1.22309E+3
   3.51923E+2   7.04489E+2
   4.98702E+2   8.02010E+2
  -1.95286E+3  -6.36681E+2
   5.78445E+1  -6.61580E+2
   9.47052E+2   7.40631E+2
  -6.44281E+2  -2.92009E+1
   6.66864E+2  -1.14623E+3
   1.40472E+2  -2.83607E+2
   7.48162E+2   6.03387E+2
   4.71733E+2   4.88155E+2
  -1.41833E+3  -2.36263E+3
  -3.80208E+2  -3.23351E+3
   2.11814E+3  -9.75409E+2
   6.33863E+2  -4.15399E+2
   1.54791E+3   3.02761E+2
  -3.91194E+2   8.35153E+2
   3.50883E+2   8.20154E+2
  -1.98926E+3  -1.29047E+3
   4.47699E+2   1.94567E+3
  -1.83340E+3   4.92973E+2
   2.55567E+2  -1.97599E+3
   5.12518E+2   1.28121E+2
   1.35275E+3   2.07013E+3
   1.59110E+2   7.08300E+2
   6.03110E+2  -1.25024E+3
   1.31885E+2   1.29691E+3
  -3.96927E+2   5.77544E+2
  -2.93849E+2  -1.48160E+3
   5.16176E+2  -1.51319E+3
   5.46993E+2  -9.63408E+2
   5.30568E+2  -1.15564E+3
   7.54751E+2   1.67867E+2
   9.96854E+2   3.12163E+2
  -1.08347E+3  -1.54206E+3
   1.31478E+3  -1.04105E+3
  -1.33753E+2  -6.09608E+2
   4.06121E+2  -2.15638E+3
  -7.22982E+2   2.17992E+2
   2.84286E+1   4.39951E+2
  -1.05838E+3   2.72548E+2
  -5.60751E+2   6.25814E+2
  -2.54479E+3  -1.62730E+1
  -3.62910E+2  -2.94068E+2
   1.31093E+3  -6.15060E+2
  -9.06812E+2   1.11486E+3
   1.08685E+3  -9.32868E+1
  -9.19253E+2  -6.23414E+2
  -9.59940E+1  -1.37626E+3
   1.08262E+3  -3.12164E+2
   6.79067E+2  -1.06602E+3
   9.93839E+2   1.42600E+3
   1.30911E+3  -2.41938E+2
  -7.37459E+2   9.12160E+2
   2.34335E+2   4.49631E+2
  -1.19957E+3   1.15555E+3
  -2.07338E+3   1.66623E+3
   2.48096E+2  -3.22865E+2
   7.98221E+2  -7.94155E+2
