 LCModel (Version 6.3-1N) Copyright: S.W. Provencher.          Ref.: Magn. Reson. Med. 30:672-679 (1993).                
 Slice_N1@21_12  02-Jun-2023 14:37:30
 27 lines in following concentration table = NCONC+1
    Conc.  %SD /Cr+PCr  Metabolite                                         
 2.11E-06  15% 2.7E-04 Mac                                                 
 2.77E-02  33%   3.563 Cr                                                  
 3.45E-02  26%   4.437 PCr                                                 
 6.39E-02  11%   8.217 Ins                                                 
 7.15E-02   8%   9.204 NAA                                                 
 6.29E-02  11%   8.087 Tau                                                 
 4.59E-03 106%   0.591 PCho                                                
 4.74E-03 111%   0.609 GPC                                                 
 6.36E-02  13%   8.187 Glu                                                 
 1.79E-02  34%   2.299 Gln                                                 
 3.93E-03 153%   0.505 Ala                                                 
 2.02E-02  57%   2.600 Asc                                                 
 1.45E-02  45%   1.872 Asp                                                 
 9.10E-03  38%   1.171 GABA                                                
 8.28E-03  52%   1.065 Glc                                                 
 1.54E-02  23%   1.986 GSH                                                 
    0.000 999%   0.000 Lac                                                 
 6.39E-03  64%   0.823 NAAG                                                
    0.000 999%   0.000 PE                                                  
 9.33E-03  22%   1.200 GPC+PCho                                            
 7.79E-02   9%  10.027 NAA+NAAG                                            
 8.15E-02  12%  10.486 Glu+Gln                                             
 6.22E-02  10%   8.000 Cr+PCr                                              
 7.79E-02   9%  10.027 NAA+NAAG                                            
 6.22E-02  10%   8.000 Cr+PCr                                              
 8.15E-02  12%  10.486 Glu+Gln                                             
   6 lines in following misc. output table
  FWHM = 0.023 ppm    S/N =   4                                            
  Data shift = 0.029 ppm                                                   
  Ph: -36 deg      -9.2 deg/ppm                                            
  alphaB,S = 1.4E+00,   1.0E+01                                            
   18 spline knots.   Ns = 5(1)                                            
  ( 4) 2 infls.   ( 4) 1 extrs.                                            
  654 points on ppm-axis = NY
      4.000000     3.994181     3.988363     3.982544     3.976726     3.970907     3.965088     3.959270     3.953451     3.947633
      3.941814     3.935995     3.930177     3.924358     3.918540     3.912721     3.906902     3.901084     3.895265     3.889446
      3.883628     3.877809     3.871991     3.866172     3.860353     3.854535     3.848716     3.842898     3.837079     3.831260
      3.825442     3.819623     3.813805     3.807986     3.802167     3.796349     3.790530     3.784712     3.778893     3.773074
      3.767256     3.761437     3.755619     3.749800     3.743981     3.738163     3.732344     3.726526     3.720707     3.714888
      3.709070     3.703251     3.697433     3.691614     3.685795     3.679977     3.674158     3.668339     3.662521     3.656702
      3.650884     3.645065     3.639246     3.633428     3.627609     3.621791     3.615972     3.610153     3.604335     3.598516
      3.592698     3.586879     3.581060     3.575242     3.569423     3.563605     3.557786     3.551967     3.546149     3.540330
      3.534512     3.528693     3.522874     3.517056     3.511237     3.505419     3.499600     3.493781     3.487963     3.482144
      3.476326     3.470507     3.464688     3.458870     3.453051     3.447232     3.441414     3.435595     3.429777     3.423958
      3.418139     3.412321     3.406502     3.400684     3.394865     3.389046     3.383228     3.377409     3.371591     3.365772
      3.359953     3.354135     3.348316     3.342498     3.336679     3.330860     3.325042     3.319223     3.313405     3.307586
      3.301767     3.295949     3.290130     3.284312     3.278493     3.272674     3.266856     3.261037     3.255219     3.249400
      3.243581     3.237763     3.231944     3.226125     3.220307     3.214488     3.208670     3.202851     3.197032     3.191214
      3.185395     3.179577     3.173758     3.167939     3.162121     3.156302     3.150484     3.144665     3.138846     3.133028
      3.127209     3.121391     3.115572     3.109753     3.103935     3.098116     3.092298     3.086479     3.080660     3.074842
      3.069023     3.063205     3.057386     3.051567     3.045749     3.039930     3.034111     3.028293     3.022474     3.016656
      3.010837     3.005018     2.999200     2.993381     2.987563     2.981744     2.975925     2.970107     2.964288     2.958470
      2.952651     2.946832     2.941014     2.935195     2.929377     2.923558     2.917739     2.911921     2.906102     2.900284
      2.894465     2.888646     2.882828     2.877009     2.871191     2.865372     2.859553     2.853735     2.847916     2.842098
      2.836279     2.830460     2.824642     2.818823     2.813004     2.807186     2.801367     2.795549     2.789730     2.783911
      2.778093     2.772274     2.766456     2.760637     2.754818     2.749000     2.743181     2.737363     2.731544     2.725725
      2.719907     2.714088     2.708270     2.702451     2.696632     2.690814     2.684995     2.679177     2.673358     2.667539
      2.661721     2.655902     2.650084     2.644265     2.638446     2.632628     2.626809     2.620991     2.615172     2.609353
      2.603535     2.597716     2.591897     2.586079     2.580260     2.574442     2.568623     2.562804     2.556986     2.551167
      2.545349     2.539530     2.533711     2.527893     2.522074     2.516256     2.510437     2.504618     2.498800     2.492981
      2.487163     2.481344     2.475525     2.469707     2.463888     2.458070     2.452251     2.446432     2.440614     2.434795
      2.428977     2.423158     2.417339     2.411521     2.405702     2.399884     2.394065     2.388246     2.382428     2.376609
      2.370790     2.364972     2.359153     2.353335     2.347516     2.341697     2.335879     2.330060     2.324242     2.318423
      2.312604     2.306786     2.300967     2.295149     2.289330     2.283511     2.277693     2.271874     2.266056     2.260237
      2.254418     2.248600     2.242781     2.236963     2.231144     2.225325     2.219507     2.213688     2.207870     2.202051
      2.196232     2.190414     2.184595     2.178777     2.172958     2.167139     2.161321     2.155502     2.149683     2.143865
      2.138046     2.132228     2.126409     2.120590     2.114772     2.108953     2.103135     2.097316     2.091497     2.085679
      2.079860     2.074042     2.068223     2.062404     2.056586     2.050767     2.044949     2.039130     2.033311     2.027493
      2.021674     2.015856     2.010037     2.004218     1.998400     1.992581     1.986763     1.980944     1.975126     1.969307
      1.963489     1.957670     1.951852     1.946033     1.940215     1.934397     1.928578     1.922760     1.916941     1.911123
      1.905304     1.899486     1.893667     1.887849     1.882030     1.876212     1.870393     1.864575     1.858756     1.852938
      1.847119     1.841301     1.835482     1.829664     1.823845     1.818027     1.812208     1.806390     1.800571     1.794753
      1.788934     1.783116     1.777297     1.771479     1.765660     1.759842     1.754023     1.748205     1.742386     1.736568
      1.730749     1.724931     1.719113     1.713294     1.707476     1.701657     1.695839     1.690020     1.684202     1.678383
      1.672565     1.666746     1.660928     1.655109     1.649291     1.643472     1.637654     1.631835     1.626017     1.620198
      1.614380     1.608561     1.602743     1.596924     1.591106     1.585287     1.579469     1.573650     1.567832     1.562013
      1.556195     1.550376     1.544558     1.538739     1.532921     1.527102     1.521284     1.515465     1.509647     1.503829
      1.498010     1.492192     1.486373     1.480555     1.474736     1.468918     1.463099     1.457281     1.451462     1.445644
      1.439825     1.434007     1.428188     1.422370     1.416551     1.410733     1.404914     1.399096     1.393277     1.387459
      1.381640     1.375822     1.370003     1.364185     1.358366     1.352548     1.346729     1.340911     1.335092     1.329274
      1.323455     1.317637     1.311818     1.306000     1.300182     1.294363     1.288545     1.282726     1.276908     1.271089
      1.265271     1.259452     1.253634     1.247815     1.241997     1.236178     1.230360     1.224541     1.218723     1.212904
      1.207086     1.201267     1.195449     1.189630     1.183812     1.177993     1.172175     1.166356     1.160538     1.154719
      1.148901     1.143082     1.137264     1.131445     1.125627     1.119808     1.113990     1.108171     1.102353     1.096534
      1.090716     1.084898     1.079079     1.073261     1.067442     1.061624     1.055805     1.049987     1.044168     1.038350
      1.032531     1.026713     1.020894     1.015076     1.009257     1.003439     0.997620     0.991802     0.985983     0.980165
      0.974346     0.968528     0.962709     0.956891     0.951072     0.945254     0.939435     0.933617     0.927798     0.921980
      0.916161     0.910343     0.904524     0.898706     0.892887     0.887069     0.881251     0.875432     0.869614     0.863795
      0.857977     0.852158     0.846340     0.840521     0.834703     0.828884     0.823066     0.817247     0.811429     0.805610
      0.799792     0.793973     0.788155     0.782336     0.776518     0.770699     0.764881     0.759062     0.753244     0.747425
      0.741607     0.735788     0.729970     0.724151     0.718333     0.712514     0.706696     0.700877     0.695059     0.689240
      0.683422     0.677603     0.671785     0.665967     0.660148     0.654330     0.648511     0.642693     0.636874     0.631056
      0.625237     0.619419     0.613600     0.607782     0.601963     0.596145     0.590326     0.584508     0.578689     0.572871
      0.567052     0.561234     0.555415     0.549597     0.543778     0.537960     0.532141     0.526323     0.520504     0.514686
      0.508867     0.503049     0.497230     0.491412     0.485593     0.479775     0.473956     0.468138     0.462319     0.456501
      0.450682     0.444864     0.439045     0.433227     0.427408     0.421590     0.415771     0.409953     0.404134     0.398316
      0.392497     0.386679     0.380860     0.375042     0.369223     0.363405     0.357586     0.351767     0.345949     0.340130
      0.334312     0.328493     0.322675     0.316856     0.311038     0.305219     0.299401     0.293582     0.287764     0.281945
      0.276127     0.270308     0.264490     0.258671     0.252853     0.247034     0.241216     0.235397     0.229579     0.223760
      0.217942     0.212123     0.206305     0.200486
 NY phased data points follow
  -3.67811E-02  2.49799E-02 -1.76017E-01 -2.26690E-01 -2.87371E-01  2.94671E-02 -2.88188E-02 -8.03716E-02  5.27505E-02 -3.68755E-02
   1.16571E-01  1.91337E-01  4.58313E-01  3.25998E-01  3.99556E-01  5.44020E-01  2.76468E-01  9.56499E-02 -7.09420E-02  3.66048E-01
   1.60400E-01  1.21510E-01  2.21114E-01 -4.61768E-01 -1.93274E-01  7.07392E-02 -2.24380E-01 -1.84789E-01 -4.36197E-01 -3.14239E-01
   4.72974E-02 -1.03962E-01 -2.36032E-01 -2.47759E-01 -9.84758E-02 -6.63187E-01 -5.55420E-01 -8.62691E-02 -3.32362E-01 -3.91960E-02
   1.48110E-01  3.91728E-01  5.32065E-01  5.31212E-01  2.58964E-01  7.70913E-02  3.76685E-01  2.91400E-01  3.09544E-01  4.47436E-02
  -4.98238E-03  1.20738E-01  1.04326E-02  4.11256E-01 -1.16474E-01 -2.50464E-01  1.88112E-01 -2.35475E-01 -2.24137E-01 -3.57477E-01
  -1.67878E-01  1.09182E-01 -1.41571E-01 -2.46150E-01 -2.38270E-01 -1.62965E-01  2.92625E-03  2.87573E-01  1.02602E-01  1.79630E-01
   2.37047E-01  2.68913E-02  7.82980E-02 -1.84162E-01 -1.08767E-01  2.55489E-01  3.09477E-02 -3.12613E-01 -3.72376E-01 -5.22889E-01
  -3.87791E-01 -5.10294E-02  9.02904E-02  3.57068E-01  3.56105E-01  4.54946E-01  3.84572E-01  2.06894E-01  1.06797E-01 -2.03989E-01
   2.19094E-01  2.34059E-01  2.05927E-01  2.91783E-01  1.54088E-01  7.72874E-02 -6.69202E-02 -1.30850E-01 -4.24602E-01 -3.19568E-01
  -3.36547E-01 -2.03905E-01 -3.28845E-01 -7.41082E-02  3.77809E-01  1.12691E-01  1.11119E-01  2.55515E-01  4.30374E-01  4.38907E-01
   4.80412E-01  2.00153E-01  1.90508E-01  1.41549E-01  2.54674E-01  9.81001E-02  1.31082E-01  4.13945E-01  1.99812E-01  3.56858E-01
  -1.14091E-01  1.74330E-01  2.03332E-01 -9.10510E-02 -1.04066E-02 -3.27750E-01 -1.35782E-01 -2.53929E-01 -6.98677E-01 -5.57837E-01
  -5.78471E-01 -7.94345E-01 -5.58158E-01 -4.11163E-01 -3.45284E-01 -7.34305E-01 -5.74369E-01 -5.04373E-01 -4.83691E-01 -1.06792E-01
  -1.18624E-01  3.72530E-02  6.95992E-02  2.20993E-01 -3.96769E-02  4.37675E-02  1.53215E-01  9.48019E-02  2.38982E-01 -1.00195E-01
  -1.40491E-01  2.72596E-01  3.89165E-01  1.04412E-01  9.76369E-02  2.38029E-01  2.74443E-01  4.82843E-01  5.66061E-01  4.66260E-01
   6.63102E-01  6.79904E-01  6.06297E-01  3.30411E-01  6.69856E-01  1.32110E+00  1.04550E+00  6.85554E-02 -8.45068E-01 -7.47203E-01
  -7.29063E-01 -6.56194E-01 -5.59175E-01 -3.00405E-01 -3.75493E-01 -5.42070E-01 -3.56545E-01 -3.98416E-01 -4.20842E-01 -6.80782E-01
  -2.57085E-01 -3.51866E-01 -1.51790E-01  5.30055E-02 -2.16999E-01 -1.34791E-01 -5.52407E-01 -4.60551E-01 -4.88971E-01 -2.96192E-01
  -2.79762E-01 -2.53896E-01 -1.03103E-01 -3.61678E-01 -3.83853E-01 -2.38530E-01 -7.32177E-02 -3.94712E-01  6.61866E-02 -1.13434E-01
  -1.37707E-01  2.63462E-01 -1.02236E-01  1.86147E-01 -2.31052E-01 -7.84824E-02  2.61885E-01 -2.32390E-02  7.88753E-02 -3.18121E-02
  -8.57292E-02  6.80327E-02 -7.69959E-02 -2.02900E-01  8.83953E-02 -9.06182E-02 -2.65778E-01 -9.56917E-02  2.18296E-01  3.39711E-02
  -1.37304E-01  2.36970E-01  8.43835E-02 -5.96372E-02  2.74482E-01  2.94400E-01  3.18338E-01  3.88792E-01  2.91048E-01  5.97468E-01
   2.01463E-01  7.76124E-02  1.81939E-01  9.52976E-02  3.14059E-02 -9.12941E-02  2.67540E-01 -1.17068E-01 -5.46434E-03  3.32401E-01
  -5.89413E-02 -2.92544E-01 -4.15601E-02  7.25861E-02  2.72132E-01  3.52288E-01 -7.99965E-02  1.30616E-01  4.12112E-03 -2.85911E-02
   1.07176E-01 -8.61968E-03 -6.03037E-03 -2.39370E-02  1.78754E-01  1.43602E-01  5.70351E-02  1.25457E-01 -1.67121E-02 -1.66493E-02
   1.33606E-01 -4.27433E-03  1.45347E-01  3.06372E-01  3.54333E-01  2.83460E-01  5.91393E-02  1.75839E-01  1.50877E-01  1.57930E-01
   2.35929E-01  2.11436E-01  1.02789E-02 -3.21801E-01 -1.30877E-01 -1.29752E-01 -3.55273E-01 -5.10958E-02 -1.14701E-01 -3.49604E-01
  -1.80739E-01 -1.83628E-01 -2.66522E-01 -2.82372E-01  8.04360E-02  2.80576E-01  2.08186E-01  7.45049E-01  5.58992E-01  1.54731E-01
   2.44990E-01  9.05733E-02  2.14286E-01  1.61052E-01  3.65573E-02  3.44006E-02 -5.80607E-02  1.54496E-01  2.68787E-01  1.66140E-02
   4.93250E-02  1.96785E-02  1.08608E-01  3.67943E-01  1.72810E-01  1.78155E-01  2.88225E-01  3.47752E-01  2.84193E-01  1.77488E-01
   3.35580E-01  2.06753E-01  6.18047E-02  2.92265E-01 -1.65923E-02  1.17451E-01  2.28555E-01 -2.56750E-01 -1.65143E-01 -2.86893E-01
  -1.54710E-01 -3.24685E-01 -3.98491E-01 -2.56993E-01 -3.43082E-01  7.30003E-02  1.45380E-01  6.23071E-02  1.30186E-01  2.50304E-01
   2.41691E-01  2.59032E-01 -8.02722E-04 -2.92887E-01 -4.08169E-01 -3.08113E-01 -3.02851E-01 -5.24728E-01 -2.03907E-01 -2.23974E-01
  -2.22958E-01 -7.80670E-01 -1.68590E+00 -1.42205E+00 -9.91982E-01 -4.99571E-01 -1.31940E-01  2.29609E-02  2.35350E-01  1.53312E-01
   6.23033E-02 -1.07085E-01 -2.98464E-02  9.93531E-02  1.54578E-01  1.38421E-01 -9.88411E-02  6.47759E-02  3.13862E-02  7.36155E-02
   1.28949E-01  2.25958E-01  7.70492E-03 -2.64993E-01  2.28775E-01  2.69207E-02 -8.74524E-02 -1.38196E-03  1.37018E-01  1.50664E-01
   7.31403E-02  2.69222E-01 -3.94041E-04  1.38580E-01  1.45601E-01  4.05620E-02  1.28121E-01  1.45708E-01  9.15861E-02  1.72732E-01
   3.78300E-01  2.10718E-01  1.05132E-01 -1.11041E-01  1.76523E-01  2.41722E-01  2.00224E-01  3.08015E-01 -1.61641E-02  7.67086E-02
  -2.26772E-02  7.47319E-02  3.72868E-02 -1.20519E-02  2.16146E-01  2.03712E-01  3.61944E-01  4.64792E-01  4.23360E-01  1.02636E-01
   7.63801E-02 -6.02863E-03 -2.10024E-01  5.39156E-02  8.01984E-03 -4.13423E-02 -1.68779E-01 -3.28294E-01  1.28784E-01 -2.50210E-03
  -9.85669E-02 -5.67402E-02 -2.97317E-01 -8.59685E-02 -3.12636E-01 -3.61632E-01 -7.99390E-02 -1.34726E-01 -1.32432E-01  3.92687E-04
  -3.08916E-01 -1.78462E-01  2.54025E-02 -1.65874E-01 -5.20806E-02 -3.14638E-01 -5.64392E-02 -1.40244E-02 -1.79071E-01 -7.47015E-02
   2.51038E-02  4.77992E-02 -1.55712E-01 -2.55231E-01 -8.41200E-02  3.95449E-01  1.02884E-01  1.40514E-01 -1.70031E-02 -1.66444E-02
   1.01962E-01 -3.61810E-01  1.39332E-01  3.46602E-01  2.52832E-01  9.27344E-02  1.06709E-01  1.33581E-01  2.71878E-01  5.07453E-01
   2.86625E-01  2.52400E-01  8.46869E-02  8.42570E-02  4.08640E-02  1.44504E-01  2.24845E-01 -1.62170E-01 -8.75823E-02  1.21934E-01
  -3.67789E-01 -1.03313E-01  3.53634E-01  2.10380E-02  1.07752E-01 -3.06857E-01 -1.40476E-01 -6.33034E-02 -3.39422E-01 -1.43618E-01
  -4.79075E-01 -3.30396E-01 -2.88670E-01 -1.19091E-02  2.05427E-01 -2.84003E-01 -4.07072E-01 -2.54499E-01 -1.56545E-01 -7.96080E-04
  -1.39070E-02  1.69679E-01  2.52847E-01  1.97033E-01  3.80899E-01  1.12359E-01  4.57293E-01  3.77002E-01  1.04771E-01 -1.09593E-01
  -5.10849E-02  1.69957E-01 -2.75805E-01  1.27628E-01 -2.38454E-03  5.08862E-02 -1.06694E-01 -5.76201E-02  2.77776E-01 -1.20159E-01
   1.50386E-01 -3.92754E-02 -2.07309E-01  6.34774E-02  2.68147E-01  1.40676E-01  2.68101E-01  9.60694E-02 -6.87670E-02  2.16663E-01
  -5.89058E-02  8.65490E-02 -6.11762E-02 -4.40414E-02  4.78444E-02 -2.11114E-01  1.96977E-01 -1.74303E-02 -2.26121E-01  2.21101E-02
  -1.18911E-01 -4.48859E-02 -1.34416E-01 -9.42114E-02 -1.48274E-01 -5.23508E-01 -3.76781E-01 -3.36046E-01 -3.27923E-01 -2.20775E-01
  -2.19392E-01 -2.56482E-01 -2.89524E-01  1.14078E-02  1.31483E-02 -1.42773E-01 -1.72720E-02 -2.32666E-01 -2.63279E-01 -6.16518E-02
  -1.58483E-01 -3.02609E-02  2.33264E-01 -9.40636E-02 -6.87120E-02  1.83205E-01 -9.10291E-02  2.42133E-02  1.28509E-01  1.30582E-01
   2.08801E-01  2.91228E-01  1.38484E-01  2.40070E-01  5.06790E-01  3.82446E-02  3.96686E-02  4.01820E-01  9.97811E-02 -4.10540E-02
   2.12685E-01  1.21540E-01 -9.79329E-03 -2.19961E-02  1.80044E-01 -2.71601E-02 -3.95451E-02  2.09280E-01 -1.90723E-01 -4.17678E-02
   2.28513E-02  6.22446E-03  3.19379E-01  1.58081E-01 -1.27134E-01 -8.50275E-02  1.05315E-01  8.18594E-02 -1.41233E-01  8.56437E-02
   4.74105E-02 -1.38292E-01  1.83540E-01  1.35249E-01  2.16343E-02 -2.31766E-01 -1.10677E-01  1.89051E-01  1.04503E-01  1.63549E-02
  -2.22228E-01 -9.38792E-02  1.97977E-01  1.23265E-01 -8.32490E-02 -7.68981E-02  9.11063E-02  9.56599E-02  2.40344E-02 -1.28959E-01
  -5.11919E-02 -2.36043E-02 -6.31392E-02  1.26987E-01 -1.88907E-02  2.80009E-01 -2.21913E-01 -2.84085E-01  1.10527E-01 -2.26548E-01
   1.33895E-01 -1.13253E-01  6.43573E-02 -1.98262E-02  1.31961E-01  4.12503E-01  1.11440E-01  9.37320E-02 -1.08043E-01  2.41019E-01
   1.47580E-01  7.37205E-02  1.48883E-01  1.17686E-01  1.67852E-01  1.03164E-01  2.24352E-02  9.15069E-02 -2.95489E-02  2.51498E-01
   3.33857E-01 -1.26542E-01 -1.57194E-01 -1.67558E-01  2.86585E-01  1.39457E-01  1.37367E-01 -4.96657E-02  3.54688E-03  1.08780E-01
   2.71768E-02  2.43345E-01 -1.97643E-01  1.11164E-01 -1.28115E-01 -1.61305E-02  1.35697E-01  4.41296E-02  3.84220E-01  3.28989E-01
   2.15782E-01  7.31416E-02 -1.86080E-02 -1.08107E-01
 NY points of the fit to the data follow
   8.15557E-02  6.13624E-02  3.54839E-02  1.34260E-02  4.73533E-03  7.99982E-03  1.35096E-02  3.63055E-02  4.97107E-02  3.23474E-02
   1.45186E-01  3.26770E-01  4.66309E-01  5.33705E-01  5.48154E-01  5.24874E-01  3.90562E-01  2.30398E-01  1.44643E-01  9.30174E-02
   4.91392E-02  3.13259E-02  1.27723E-03 -3.26708E-02 -6.22995E-02 -8.77516E-02 -1.04550E-01 -1.16595E-01 -1.27552E-01 -1.38948E-01
  -1.47317E-01 -1.57562E-01 -1.77481E-01 -2.02868E-01 -2.35069E-01 -2.40830E-01 -2.77502E-01 -3.15245E-01 -2.38559E-01 -6.84049E-02
   1.29254E-01  2.37070E-01  3.02687E-01  3.45967E-01  3.48870E-01  3.26908E-01  2.89154E-01  2.46027E-01  2.04777E-01  1.67448E-01
   1.24345E-01  8.72431E-02  5.50420E-02  2.34271E-02 -1.83642E-02 -6.45263E-02 -1.11527E-01 -1.46873E-01 -1.37089E-01 -1.78431E-01
  -2.58803E-01 -2.24157E-01 -2.24893E-01 -2.62230E-01 -2.09338E-01 -5.67351E-02  1.09193E-01  1.86054E-01  2.76128E-01  3.65099E-01
   3.20776E-01  2.35543E-01  1.85287E-01  1.04895E-01  1.44602E-02 -3.52149E-02 -7.45966E-02 -2.32978E-01 -4.03861E-01 -4.05878E-01
  -2.80777E-01 -1.38777E-01  1.55008E-04  2.01970E-01  3.69531E-01  3.90610E-01  3.59806E-01  3.27056E-01  2.62492E-01  2.09384E-01
   1.84380E-01  1.62063E-01  1.32272E-01  8.63806E-02  6.31525E-02 -2.30667E-02 -1.02670E-01 -2.52585E-01 -4.02491E-01 -4.75751E-01
  -4.34857E-01 -2.47971E-01 -3.32001E-02  1.51619E-01  2.59152E-01  2.88445E-01  2.73090E-01  2.61924E-01  2.41062E-01  2.39647E-01
   2.38874E-01  2.36421E-01  2.32925E-01  2.29226E-01  2.26075E-01  2.24369E-01  2.21949E-01  2.07468E-01  2.13822E-01  2.09538E-01
   1.36711E-01  9.75710E-02  6.34539E-02 -3.52364E-02 -1.02889E-01 -1.67287E-01 -1.56126E-01 -2.58783E-01 -4.37624E-01 -5.63259E-01
  -6.69751E-01 -6.55725E-01 -4.56008E-01 -3.07927E-01 -3.94466E-01 -5.89529E-01 -6.50972E-01 -4.98977E-01 -3.31084E-01 -1.79398E-01
  -4.51359E-02  2.01816E-02  2.99580E-02  4.78164E-02  6.87308E-02  8.87516E-02  1.07306E-01  1.23697E-01  1.38541E-01  1.52030E-01
   1.65444E-01  1.79217E-01  1.92984E-01  2.07960E-01  2.24617E-01  2.44052E-01  2.66786E-01  2.91528E-01  3.18290E-01  3.52090E-01
   4.00316E-01  4.72662E-01  5.67544E-01  4.58863E-01  7.01557E-01  1.05231E+00  8.60157E-01  4.50940E-02 -7.73974E-01 -9.73775E-01
  -8.92522E-01 -7.68178E-01 -5.32509E-01 -3.49869E-01 -3.59834E-01 -3.33303E-01 -2.91148E-01 -2.70938E-01 -2.79995E-01 -2.72960E-01
  -2.51692E-01 -2.26905E-01 -2.10461E-01 -2.01558E-01 -2.02531E-01 -2.07802E-01 -2.03080E-01 -1.94037E-01 -1.87481E-01 -1.82301E-01
  -1.71818E-01 -1.60889E-01 -1.48865E-01 -1.36715E-01 -1.24985E-01 -1.15618E-01 -1.05840E-01 -9.47699E-02 -8.62143E-02 -7.87132E-02
  -6.56299E-02 -4.65769E-02 -3.16931E-02 -3.39370E-02 -4.71156E-02 -5.02982E-02 -3.53082E-02 -2.05416E-02 -2.48267E-02 -4.40626E-02
  -6.15039E-02 -7.00558E-02 -7.08246E-02 -6.59283E-02 -5.79351E-02 -4.78028E-02 -3.74180E-02 -3.31909E-02 -3.58022E-02 -3.63324E-02
  -1.63644E-02 -8.29265E-03 -1.02618E-02  3.67970E-02  1.35230E-01  2.29492E-01  2.27718E-01  1.59127E-01  1.67388E-01  2.49770E-01
   3.06187E-01  2.67064E-01  1.63932E-01  7.05007E-02 -8.91747E-03 -6.40244E-02 -7.60437E-02 -7.52665E-02 -8.21410E-02 -9.00849E-02
  -9.76727E-02 -1.04570E-01 -1.05684E-01 -1.05759E-01 -1.05306E-01 -1.03442E-01 -1.03762E-01 -1.01710E-01 -9.93299E-02 -9.48780E-02
  -9.13809E-02 -1.01106E-01 -9.40139E-02 -1.21539E-01 -1.43430E-01 -8.71141E-02 -2.24020E-02  1.82440E-02  2.26879E-02  7.27499E-02
   1.35386E-01  1.19765E-01  1.02858E-01  1.04924E-01  1.12072E-01  1.01837E-01  9.49825E-02  1.02536E-01  1.08782E-01  1.07615E-01
   9.50552E-02  6.99145E-02  3.40805E-02 -3.91011E-03 -4.21920E-02 -7.59097E-02 -1.18479E-01 -1.47563E-01 -1.94969E-01 -2.56789E-01
  -3.07217E-01 -3.46191E-01 -3.04996E-01 -1.88572E-01 -1.93125E-02  1.65498E-01  3.01656E-01  3.74052E-01  3.71362E-01  3.09486E-01
   2.48407E-01  1.96796E-01  1.50562E-01  1.33992E-01  1.33381E-01  1.46400E-01  1.66663E-01  1.81545E-01  1.91918E-01  1.92277E-01
   1.83678E-01  1.74584E-01  1.65715E-01  1.57309E-01  1.49123E-01  1.41222E-01  1.29706E-01  1.12188E-01  9.44989E-02  6.81158E-02
   4.41972E-02  1.78081E-02 -8.27634E-03 -2.95174E-02 -6.46618E-02 -1.04280E-01 -1.63568E-01 -2.10544E-01 -2.49275E-01 -2.70564E-01
  -2.80546E-01 -2.77107E-01 -2.60670E-01 -2.34147E-01 -1.82574E-01 -1.14543E-01 -3.15764E-02  2.99275E-02  6.36466E-02  6.13775E-02
   2.11877E-02 -3.11411E-02 -9.31103E-02 -1.19069E-01 -1.62322E-01 -2.23153E-01 -2.61282E-01 -3.17101E-01 -2.78473E-01 -1.16536E-01
  -3.19186E-01 -9.71058E-01 -1.53356E+00 -1.49295E+00 -1.00722E+00 -5.79288E-01 -2.50470E-01 -1.34541E-02  3.11419E-02 -9.92087E-03
  -2.03756E-03  1.04877E-02  2.13447E-02  2.91155E-02  3.66427E-02  4.32871E-02  4.64529E-02  5.04160E-02  4.52877E-02  3.92153E-02
   2.46180E-02  5.88612E-03 -1.35261E-02 -3.11902E-02 -3.74665E-02 -3.54191E-02 -2.52632E-02 -1.04980E-02  4.62138E-03  1.62028E-02
   2.75163E-02  3.68102E-02  4.51958E-02  5.09802E-02  5.46266E-02  5.83450E-02  6.24307E-02  6.69520E-02  7.10726E-02  7.39889E-02
   7.61186E-02  7.88274E-02  8.20835E-02  8.55409E-02  8.86778E-02  8.99237E-02  9.07247E-02  9.19681E-02  9.45904E-02  9.79295E-02
   1.01615E-01  1.04670E-01  1.05588E-01  1.04213E-01  1.01711E-01  9.87272E-02  9.58947E-02  9.32509E-02  8.96491E-02  8.47262E-02
   7.94578E-02  7.38124E-02  6.68068E-02  5.90872E-02  5.24584E-02  4.71237E-02  4.13982E-02  3.59862E-02  3.06834E-02  2.55835E-02
   2.11983E-02  1.78112E-02  1.50153E-02  1.22049E-02  9.26678E-03  6.54761E-03  3.49310E-03  8.06895E-04 -3.73946E-04 -1.48262E-03
  -2.84429E-03 -3.38351E-03 -2.73179E-03 -1.16065E-03  1.25550E-03  4.20438E-03  7.98003E-03  1.26450E-02  1.92084E-02  2.77918E-02
   3.35172E-02  3.57818E-02  4.82266E-02  6.69441E-02  8.94291E-02  1.07095E-01  1.11687E-01  1.03545E-01  8.79763E-02  8.04255E-02
   8.37454E-02  9.18239E-02  1.03018E-01  1.15968E-01  1.26939E-01  1.37376E-01  1.47723E-01  1.56405E-01  1.62145E-01  1.65347E-01
   1.66317E-01  1.65715E-01  1.64489E-01  1.62368E-01  1.59680E-01  1.55131E-01  1.47562E-01  1.37155E-01  1.25950E-01  1.15374E-01
   1.06029E-01  9.72036E-02  8.78185E-02  7.84858E-02  6.97866E-02  6.26716E-02  5.59799E-02  4.95413E-02  4.39825E-02  3.94927E-02
   3.56481E-02  3.20108E-02  2.83987E-02  2.65025E-02  2.71479E-02  2.90434E-02  3.16225E-02  3.46142E-02  3.83336E-02  4.23786E-02
   4.71877E-02  5.31770E-02  5.85090E-02  6.27928E-02  6.62616E-02  6.84999E-02  6.93348E-02  7.04868E-02  7.30589E-02  7.56610E-02
   7.72557E-02  7.67985E-02  7.56088E-02  7.39137E-02  7.12776E-02  6.77738E-02  6.37827E-02  6.05642E-02  5.76672E-02  5.44838E-02
   5.13456E-02  4.80992E-02  4.45123E-02  4.12374E-02  3.74747E-02  3.30768E-02  2.90536E-02  2.64077E-02  2.43840E-02  2.13082E-02
   1.79742E-02  1.50588E-02  1.08105E-02  4.61874E-03 -2.86027E-03 -1.07366E-02 -1.81732E-02 -2.61001E-02 -3.54763E-02 -4.83983E-02
  -6.41828E-02 -8.05099E-02 -9.61347E-02 -1.11523E-01 -1.26901E-01 -1.40868E-01 -1.52566E-01 -1.63262E-01 -1.73915E-01 -1.81930E-01
  -1.85194E-01 -1.85262E-01 -1.84765E-01 -1.82457E-01 -1.77239E-01 -1.70035E-01 -1.62459E-01 -1.54427E-01 -1.47184E-01 -1.41162E-01
  -1.34538E-01 -1.26431E-01 -1.17734E-01 -1.08895E-01 -9.85052E-02 -8.76404E-02 -7.74377E-02 -6.70073E-02 -5.68670E-02 -4.82261E-02
  -3.97721E-02 -3.04195E-02 -2.10265E-02 -1.41790E-02 -9.11447E-03 -2.32935E-03  5.23309E-03  1.05175E-02  1.42606E-02  1.79193E-02
   2.19117E-02  2.56502E-02  2.81848E-02  3.03109E-02  3.18553E-02  3.37527E-02  3.59976E-02  3.63371E-02  3.61722E-02  3.73582E-02
   3.91910E-02  4.09451E-02  4.35421E-02  4.66491E-02  4.81112E-02  4.83786E-02  4.88035E-02  4.87759E-02  4.83603E-02  4.82768E-02
   4.84974E-02  4.83506E-02  4.77649E-02  4.78418E-02  4.81816E-02  4.79650E-02  4.87186E-02  5.11071E-02  5.19085E-02  4.93048E-02
   4.59892E-02  4.53664E-02  4.67593E-02  4.65339E-02  4.62408E-02  4.71648E-02  4.77508E-02  4.63597E-02  4.44523E-02  4.47061E-02
   4.65624E-02  4.83291E-02  4.93148E-02  5.01455E-02  5.11956E-02  5.26900E-02  5.39107E-02  5.48886E-02  5.59200E-02  5.76803E-02
   5.83868E-02  5.73004E-02  5.61523E-02  5.58700E-02  5.65127E-02  5.74117E-02  5.95038E-02  6.19500E-02  6.27703E-02  6.29677E-02
   6.40587E-02  6.63883E-02  6.98035E-02  7.24032E-02  7.32841E-02  7.22753E-02  7.05646E-02  7.05631E-02  7.24703E-02  7.43884E-02
   7.54813E-02  7.55348E-02  7.51527E-02  7.59431E-02  7.75459E-02  7.87774E-02  7.88594E-02  7.97151E-02  8.22616E-02  8.47113E-02
   8.61867E-02  8.72436E-02  8.93950E-02  9.14783E-02  9.30511E-02  9.52252E-02  9.85644E-02  1.03600E-01  1.08658E-01  1.12504E-01
   1.16372E-01  1.19451E-01  1.21921E-01  1.25598E-01
 NY background values follow
     2.780E-02    2.781E-02    2.783E-02    2.785E-02    2.786E-02    2.788E-02    2.790E-02    2.791E-02    2.793E-02    2.794E-02
     2.796E-02    2.798E-02    2.799E-02    2.801E-02    2.803E-02    2.804E-02    2.806E-02    2.807E-02    2.809E-02    2.811E-02
     2.812E-02    2.814E-02    2.815E-02    2.817E-02    2.819E-02    2.820E-02    2.822E-02    2.823E-02    2.825E-02    2.826E-02
     2.828E-02    2.830E-02    2.831E-02    2.833E-02    2.834E-02    2.836E-02    2.837E-02    2.839E-02    2.840E-02    2.842E-02
     2.843E-02    2.845E-02    2.846E-02    2.847E-02    2.849E-02    2.850E-02    2.852E-02    2.853E-02    2.854E-02    2.856E-02
     2.857E-02    2.859E-02    2.860E-02    2.861E-02    2.863E-02    2.864E-02    2.865E-02    2.866E-02    2.868E-02    2.869E-02
     2.870E-02    2.871E-02    2.872E-02    2.874E-02    2.875E-02    2.876E-02    2.877E-02    2.878E-02    2.879E-02    2.880E-02
