 
 $NMID
 ID=''
 FMTDAT='(2E13.5)'
 TRAMP=   1.00000E+0
 VOLUME=   1.00000E+0
 $END
   1.29349E+3   1.25560E+4
  -5.35237E+3   3.28851E+4
   1.00452E+3   3.43903E+4
   1.86041E+3   3.23553E+4
   1.79970E+3   3.37822E+4
   3.92274E+3   3.39296E+4
   4.32989E+3   3.26942E+4
   4.44850E+3   3.29320E+4
   5.89673E+3   3.28420E+4
   6.34692E+3   3.16622E+4
   6.58135E+3   3.14892E+4
   7.98008E+3   3.10396E+4
   8.57888E+3   2.99833E+4
   8.75543E+3   2.97443E+4
   9.76079E+3   2.92547E+4
   1.03954E+4   2.84075E+4
   1.07094E+4   2.79348E+4
   1.15154E+4   2.73192E+4
   1.19985E+4   2.65788E+4
   1.23968E+4   2.59739E+4
   1.29252E+4   2.54182E+4
   1.33975E+4   2.46571E+4
   1.36157E+4   2.40874E+4
   1.39683E+4   2.34027E+4
   1.42555E+4   2.25227E+4
   1.43889E+4   2.18528E+4
   1.46167E+4   2.11552E+4
   1.46874E+4   2.02215E+4
   1.47014E+4   1.94992E+4
   1.49096E+4   1.87132E+4
   1.50274E+4   1.78811E+4
   1.51727E+4   1.71419E+4
   1.52532E+4   1.63975E+4
   1.53049E+4   1.54249E+4
   1.53619E+4   1.45809E+4
   1.55133E+4   1.37853E+4
   1.55819E+4   1.29572E+4
   1.57044E+4   1.22024E+4
   1.58961E+4   1.14780E+4
   1.58820E+4   1.06359E+4
   1.58850E+4   9.91405E+3
   1.59448E+4   9.29586E+3
   1.58590E+4   8.72033E+3
   1.58720E+4   8.06421E+3
   1.58046E+4   7.53808E+3
   1.57539E+4   6.92794E+3
   1.56453E+4   6.49297E+3
   1.55768E+4   5.98165E+3
   1.54154E+4   5.37166E+3
   1.52510E+4   4.87067E+3
   1.50663E+4   4.45362E+3
   1.48698E+4   3.95265E+3
   1.47191E+4   3.46144E+3
   1.44602E+4   2.99902E+3
   1.42833E+4   2.65089E+3
   1.40865E+4   2.18293E+3
   1.38794E+4   1.84927E+3
   1.36584E+4   1.52874E+3
   1.34135E+4   1.13843E+3
   1.31613E+4   9.04628E+2
   1.29056E+4   4.64458E+2
   1.26637E+4   2.54881E+2
   1.25010E+4  -9.81223E+1
   1.21425E+4  -3.08220E+2
   1.19428E+4  -5.42712E+2
   1.16457E+4  -8.01506E+2
   1.13542E+4  -1.06921E+3
   1.10977E+4  -1.28444E+3
   1.08479E+4  -1.45818E+3
   1.05189E+4  -1.65442E+3
   1.03498E+4  -1.79916E+3
   1.00138E+4  -2.04698E+3
   9.77320E+3  -2.17061E+3
   9.50668E+3  -2.32720E+3
   9.25464E+3  -2.48889E+3
   8.93400E+3  -2.65664E+3
   8.65741E+3  -2.78796E+3
   8.42768E+3  -2.89795E+3
   8.20159E+3  -3.02021E+3
   7.99957E+3  -3.08662E+3
   7.60417E+3  -3.28293E+3
   7.38310E+3  -3.31230E+3
   7.18274E+3  -3.43020E+3
   6.87390E+3  -3.49635E+3
   6.71993E+3  -3.57550E+3
   6.51042E+3  -3.66298E+3
   6.29670E+3  -3.70739E+3
   6.04382E+3  -3.79556E+3
   5.87619E+3  -3.82692E+3
   5.61760E+3  -3.93877E+3
   5.48989E+3  -3.95826E+3
   5.22980E+3  -4.02598E+3
   4.96191E+3  -4.11734E+3
   4.82873E+3  -4.16514E+3
   4.64926E+3  -4.23293E+3
   4.48157E+3  -4.24196E+3
   4.22808E+3  -4.36953E+3
   4.08723E+3  -4.42031E+3
   3.90772E+3  -4.46905E+3
   3.80472E+3  -4.52922E+3
   3.52455E+3  -4.59672E+3
   3.41352E+3  -4.64403E+3
   3.24820E+3  -4.67605E+3
   3.12817E+3  -4.80252E+3
   2.98849E+3  -4.92135E+3
   2.91022E+3  -4.94493E+3
   2.75052E+3  -5.02931E+3
   2.61513E+3  -5.12074E+3
   2.53375E+3  -5.10662E+3
   2.47908E+3  -5.16552E+3
   2.34665E+3  -5.19355E+3
   2.26161E+3  -5.26921E+3
   2.17610E+3  -5.26537E+3
   2.11475E+3  -5.39494E+3
   2.06942E+3  -5.44983E+3
   2.00802E+3  -5.50631E+3
   2.04964E+3  -5.50688E+3
   2.00073E+3  -5.58612E+3
   1.94166E+3  -5.59010E+3
   1.92785E+3  -5.58523E+3
   1.95351E+3  -5.58580E+3
   1.90038E+3  -5.58372E+3
   1.96856E+3  -5.56114E+3
   1.91999E+3  -5.57250E+3
   1.90149E+3  -5.55463E+3
   1.91576E+3  -5.58066E+3
   1.93764E+3  -5.51479E+3
   1.97771E+3  -5.40983E+3
   2.01896E+3  -5.31361E+3
   2.00705E+3  -5.33460E+3
   2.03696E+3  -5.17162E+3
   1.99360E+3  -5.05392E+3
   2.05067E+3  -5.04197E+3
   2.03892E+3  -4.92754E+3
   2.10728E+3  -4.78155E+3
   2.12051E+3  -4.71639E+3
   2.06685E+3  -4.57872E+3
   2.09388E+3  -4.47271E+3
   2.10691E+3  -4.27735E+3
   2.02315E+3  -4.22125E+3
   2.05764E+3  -4.13854E+3
   2.09344E+3  -3.90916E+3
   2.10065E+3  -3.83670E+3
   2.00430E+3  -3.66739E+3
   2.05186E+3  -3.54350E+3
   1.94566E+3  -3.41465E+3
   1.98270E+3  -3.32432E+3
   1.93397E+3  -3.11491E+3
   1.90426E+3  -3.13258E+3
   1.89737E+3  -2.98413E+3
   1.87308E+3  -2.86494E+3
   1.86523E+3  -2.75623E+3
   1.78226E+3  -2.58657E+3
   1.73399E+3  -2.53281E+3
   1.68317E+3  -2.43601E+3
   1.64240E+3  -2.33397E+3
   1.66187E+3  -2.29667E+3
   1.69015E+3  -2.25050E+3
   1.58052E+3  -2.21381E+3
   1.55374E+3  -2.11208E+3
   1.56698E+3  -2.10143E+3
   1.57824E+3  -2.04416E+3
   1.59004E+3  -1.97897E+3
   1.46673E+3  -1.94542E+3
   1.51432E+3  -1.80885E+3
   1.51084E+3  -1.86174E+3
   1.47751E+3  -1.86743E+3
   1.49729E+3  -1.74238E+3
   1.43415E+3  -1.76574E+3
   1.49018E+3  -1.73101E+3
   1.48237E+3  -1.74074E+3
   1.48198E+3  -1.65331E+3
   1.48250E+3  -1.63799E+3
   1.49471E+3  -1.72372E+3
   1.51538E+3  -1.62236E+3
   1.45825E+3  -1.65253E+3
   1.51374E+3  -1.65683E+3
   1.56923E+3  -1.67290E+3
   1.50427E+3  -1.70062E+3
   1.55681E+3  -1.67562E+3
   1.52626E+3  -1.66041E+3
   1.52831E+3  -1.63488E+3
   1.56636E+3  -1.71948E+3
   1.50115E+3  -1.61087E+3
   1.50263E+3  -1.65981E+3
   1.53780E+3  -1.68249E+3
   1.55214E+3  -1.63792E+3
   1.57956E+3  -1.67577E+3
   1.61061E+3  -1.72863E+3
   1.56643E+3  -1.71814E+3
   1.59777E+3  -1.69800E+3
   1.61588E+3  -1.68535E+3
   1.57513E+3  -1.70800E+3
   1.51799E+3  -1.66027E+3
   1.56660E+3  -1.65016E+3
   1.54156E+3  -1.68871E+3
   1.55925E+3  -1.69988E+3
   1.59935E+3  -1.72848E+3
   1.58983E+3  -1.71747E+3
   1.56844E+3  -1.73016E+3
   1.59851E+3  -1.70130E+3
   1.54248E+3  -1.75266E+3
   1.53734E+3  -1.66628E+3
   1.49137E+3  -1.77679E+3
   1.52585E+3  -1.65837E+3
   1.49956E+3  -1.75083E+3
   1.55151E+3  -1.70648E+3
   1.51508E+3  -1.67793E+3
   1.42002E+3  -1.69780E+3
   1.41632E+3  -1.70883E+3
   1.44128E+3  -1.65249E+3
   1.38239E+3  -1.68725E+3
   1.40343E+3  -1.72161E+3
   1.31319E+3  -1.74543E+3
   1.29032E+3  -1.74144E+3
   1.31460E+3  -1.60634E+3
   1.19086E+3  -1.61507E+3
   1.21505E+3  -1.68186E+3
   1.22698E+3  -1.77032E+3
   1.18106E+3  -1.68833E+3
   1.18357E+3  -1.65557E+3
   1.17324E+3  -1.65986E+3
   1.13404E+3  -1.70406E+3
   1.05649E+3  -1.66790E+3
   1.03106E+3  -1.62855E+3
   1.01859E+3  -1.64003E+3
   9.66504E+2  -1.61556E+3
   9.54360E+2  -1.65108E+3
   9.37236E+2  -1.60051E+3
   9.27065E+2  -1.64815E+3
   8.77970E+2  -1.60876E+3
   8.32029E+2  -1.54959E+3
   7.68604E+2  -1.63288E+3
   7.77342E+2  -1.54909E+3
   7.32676E+2  -1.57359E+3
   6.44605E+2  -1.61864E+3
   7.08772E+2  -1.59606E+3
   6.35203E+2  -1.56529E+3
   6.39645E+2  -1.56200E+3
   5.86957E+2  -1.50284E+3
   5.54687E+2  -1.53406E+3
   5.52075E+2  -1.59297E+3
   4.78651E+2  -1.53282E+3
   4.94691E+2  -1.52316E+3
   4.40950E+2  -1.50388E+3
   4.55727E+2  -1.49074E+3
   3.97059E+2  -1.45760E+3
   3.79598E+2  -1.48965E+3
   3.77630E+2  -1.50622E+3
   3.95816E+2  -1.38440E+3
   3.89909E+2  -1.40952E+3
   2.85667E+2  -1.36138E+3
   3.06301E+2  -1.40656E+3
   2.98588E+2  -1.40437E+3
   2.80656E+2  -1.38716E+3
   1.74686E+2  -1.34411E+3
   1.64294E+2  -1.35859E+3
   1.66785E+2  -1.32921E+3
   1.26865E+2  -1.25868E+3
   1.38872E+2  -1.28463E+3
   1.45083E+2  -1.29023E+3
   7.18376E+1  -1.19847E+3
   8.27684E+1  -1.26731E+3
   3.89113E+1  -1.21324E+3
   3.75752E+1  -1.13042E+3
  -2.16866E+1  -1.19320E+3
  -7.28214E+1  -1.15533E+3
  -4.92647E+1  -1.14354E+3
  -6.78889E+1  -1.11232E+3
  -6.03779E+1  -1.11994E+3
  -7.86953E+1  -9.88655E+2
  -1.50992E+2  -1.03716E+3
  -1.81659E+2  -1.04015E+3
  -1.62898E+2  -1.06610E+3
  -1.95461E+2  -1.01990E+3
  -2.17710E+2  -9.90818E+2
  -1.72473E+2  -9.67271E+2
  -2.25575E+2  -9.44747E+2
  -2.79162E+2  -9.21051E+2
  -2.91093E+2  -8.65474E+2
  -3.30816E+2  -8.67807E+2
  -2.67962E+2  -8.27804E+2
  -3.44457E+2  -8.66631E+2
  -3.39460E+2  -8.15316E+2
  -3.44426E+2  -7.91914E+2
  -3.28836E+2  -7.87209E+2
  -3.48760E+2  -8.26032E+2
  -3.30898E+2  -7.52240E+2
  -3.56377E+2  -6.77519E+2
  -3.27707E+2  -7.10192E+2
  -3.24329E+2  -6.70863E+2
  -4.01475E+2  -6.52245E+2
  -3.84528E+2  -6.03903E+2
  -3.86802E+2  -6.60613E+2
  -3.98487E+2  -5.95037E+2
  -3.35517E+2  -5.35804E+2
  -3.92733E+2  -5.01055E+2
  -4.63284E+2  -5.80696E+2
  -4.01946E+2  -4.60109E+2
  -3.66722E+2  -4.42955E+2
  -5.06962E+2  -4.86223E+2
  -4.14173E+2  -4.17911E+2
  -4.81356E+2  -4.82337E+2
  -4.71556E+2  -4.35649E+2
  -4.38584E+2  -3.93208E+2
  -4.65880E+2  -3.66160E+2
  -4.37102E+2  -3.39255E+2
  -4.87588E+2  -3.12391E+2
  -4.03764E+2  -3.44853E+2
  -4.01884E+2  -2.86928E+2
  -4.19746E+2  -2.96219E+2
  -4.06376E+2  -2.91796E+2
  -3.83058E+2  -2.93716E+2
  -4.17499E+2  -2.34111E+2
  -3.84082E+2  -2.42325E+2
  -4.26287E+2  -2.31052E+2
  -3.95621E+2  -2.20789E+2
  -4.38228E+2  -2.36623E+2
  -3.62806E+2  -2.31012E+2
  -3.66240E+2  -1.84691E+2
  -4.12031E+2  -1.85592E+2
  -4.25154E+2  -2.61207E+2
  -3.64859E+2  -1.87178E+2
  -3.92268E+2  -1.82629E+2
  -3.76482E+2  -1.46891E+2
  -3.66555E+2  -1.64800E+2
  -3.39876E+2  -1.48414E+2
  -3.23989E+2  -1.38727E+2
  -3.20118E+2  -1.49843E+2
  -4.19054E+2  -1.37758E+2
  -3.17504E+2  -1.06199E+2
  -3.20679E+2  -1.27712E+2
  -3.51308E+2  -1.46998E+2
  -3.23843E+2  -3.07949E+1
  -2.82904E+2  -9.51078E+1
  -3.25107E+2  -8.78870E+1
  -2.78038E+2  -6.86182E+1
  -3.79456E+2  -6.32034E+1
  -4.03302E+2  -5.97309E+1
  -3.12973E+2  -1.04806E+2
  -2.76499E+2  -6.98982E+1
  -2.69101E+2  -3.93248E+1
  -3.45070E+2  -3.70239E+1
  -3.11059E+2  -3.81159E+1
  -2.77903E+2   1.55669E+1
  -2.73763E+2  -3.37566E+1
  -2.78545E+2  -3.19393E+1
  -2.62563E+2  -8.12171E+1
  -2.54190E+2   7.60972E+1
  -2.82332E+2   2.63349E+1
  -2.84076E+2  -1.24956E+1
  -3.21943E+2  -1.90724E+1
  -2.72544E+2  -6.38145E+1
  -2.67805E+2  -2.24017E+1
  -2.28936E+2  -2.84649E+0
  -2.74881E+2  -4.87390E+1
  -2.63373E+2  -1.59231E+1
  -2.51664E+2  -3.23421E+1
  -3.28417E+2  -7.00629E+1
  -2.72900E+2  -6.51115E+1
  -2.30839E+2  -6.63561E+1
  -2.51836E+2  -4.80115E+1
  -2.80478E+2  -1.05485E+2
  -2.61079E+2  -8.29814E+1
  -2.72596E+2  -7.61327E+0
  -2.50677E+2  -3.67736E+1
  -2.18729E+2  -4.60434E+1
