 
 $NMID
 ID=''
 FMTDAT='(2E13.5)'
 TRAMP=   1.00000E+0
 VOLUME=   1.00000E+0
 $END
   7.89861E+2   1.18521E+4
  -5.92367E+3   2.97637E+4
   5.61300E+2   3.03724E+4
   1.82097E+3   2.76363E+4
   2.14501E+3   2.84429E+4
   4.70147E+3   2.82449E+4
   5.53278E+3   2.67532E+4
   5.99995E+3   2.67890E+4
   7.80220E+3   2.64248E+4
   8.70612E+3   2.52086E+4
   9.28649E+3   2.49395E+4
   1.06676E+4   2.44222E+4
   1.15647E+4   2.34366E+4
   1.21429E+4   2.30005E+4
   1.33159E+4   2.24613E+4
   1.41507E+4   2.13905E+4
   1.47114E+4   2.06810E+4
   1.56091E+4   2.00991E+4
   1.63615E+4   1.89311E+4
   1.68905E+4   1.82416E+4
   1.76792E+4   1.74150E+4
   1.84250E+4   1.62432E+4
   1.88974E+4   1.54350E+4
   1.95443E+4   1.46446E+4
   2.01242E+4   1.34318E+4
   2.05072E+4   1.26976E+4
   2.09817E+4   1.18788E+4
   2.12496E+4   1.09283E+4
   2.14403E+4   1.01904E+4
   2.17411E+4   9.26418E+3
   2.18322E+4   8.24583E+3
   2.19646E+4   7.31992E+3
   2.19651E+4   6.49360E+3
   2.19546E+4   5.49790E+3
   2.17576E+4   4.54185E+3
   2.17572E+4   3.49404E+3
   2.14908E+4   2.49805E+3
   2.12976E+4   1.38786E+3
   2.10226E+4   2.80827E+2
   2.08713E+4  -8.07772E+2
   2.05461E+4  -1.80876E+3
   2.03314E+4  -2.80130E+3
   1.99994E+4  -3.78912E+3
   1.96333E+4  -4.82656E+3
   1.93190E+4  -5.76304E+3
   1.89675E+4  -6.74799E+3
   1.86043E+4  -7.69952E+3
   1.83206E+4  -8.56383E+3
   1.78772E+4  -9.41917E+3
   1.75994E+4  -1.02424E+4
   1.71287E+4  -1.10350E+4
   1.67462E+4  -1.17415E+4
   1.62673E+4  -1.25075E+4
   1.58075E+4  -1.31904E+4
   1.53262E+4  -1.37851E+4
   1.47638E+4  -1.43799E+4
   1.43856E+4  -1.49627E+4
   1.39099E+4  -1.54505E+4
   1.33832E+4  -1.58327E+4
   1.28033E+4  -1.61381E+4
   1.22423E+4  -1.65875E+4
   1.16576E+4  -1.69352E+4
   1.10957E+4  -1.72966E+4
   1.04832E+4  -1.75272E+4
   9.89903E+3  -1.77688E+4
   9.30895E+3  -1.79603E+4
   8.63627E+3  -1.81446E+4
   8.02969E+3  -1.82646E+4
   7.40829E+3  -1.84024E+4
   6.70376E+3  -1.85103E+4
   6.11173E+3  -1.85942E+4
   5.48574E+3  -1.84965E+4
   4.69584E+3  -1.84962E+4
   4.13210E+3  -1.84469E+4
   3.45543E+3  -1.84669E+4
   2.80733E+3  -1.83294E+4
   2.10369E+3  -1.82033E+4
   1.37572E+3  -1.80631E+4
   7.06041E+2  -1.79337E+4
   1.58611E+2  -1.77679E+4
  -5.09876E+2  -1.75838E+4
  -1.14364E+3  -1.73953E+4
  -1.76133E+3  -1.71793E+4
  -2.32883E+3  -1.69489E+4
  -2.85966E+3  -1.66733E+4
  -3.45507E+3  -1.63679E+4
  -3.87353E+3  -1.61020E+4
  -4.38884E+3  -1.57437E+4
  -4.88265E+3  -1.53669E+4
  -5.35354E+3  -1.50849E+4
  -5.86134E+3  -1.47313E+4
  -6.27264E+3  -1.43575E+4
  -6.64376E+3  -1.39768E+4
  -7.02197E+3  -1.35812E+4
  -7.33726E+3  -1.31805E+4
  -7.68956E+3  -1.27086E+4
  -7.94976E+3  -1.22765E+4
  -8.21815E+3  -1.18001E+4
  -8.44493E+3  -1.14472E+4
  -8.61936E+3  -1.09333E+4
  -8.78555E+3  -1.04584E+4
  -8.88544E+3  -1.00238E+4
  -9.06856E+3  -9.52520E+3
  -9.14646E+3  -9.13102E+3
  -9.34409E+3  -8.61730E+3
  -9.33780E+3  -8.18497E+3
  -9.34965E+3  -7.71141E+3
  -9.28090E+3  -7.24238E+3
  -9.28064E+3  -6.75499E+3
  -9.23583E+3  -6.34158E+3
  -9.20851E+3  -5.80622E+3
  -9.16442E+3  -5.41970E+3
  -9.10725E+3  -4.99182E+3
  -8.90501E+3  -4.52233E+3
  -8.88488E+3  -4.09360E+3
  -8.71902E+3  -3.61377E+3
  -8.50037E+3  -3.24772E+3
  -8.35653E+3  -2.85713E+3
  -8.15743E+3  -2.44898E+3
  -7.98137E+3  -2.05987E+3
  -7.75498E+3  -1.76468E+3
  -7.47104E+3  -1.41730E+3
  -7.27326E+3  -1.01909E+3
  -7.04585E+3  -6.74818E+2
  -6.74691E+3  -3.85722E+2
  -6.52427E+3  -4.56785E+1
  -6.28488E+3   2.45748E+2
  -5.92093E+3   5.63772E+2
  -5.69883E+3   8.29279E+2
  -5.43815E+3   1.05428E+3
  -5.12130E+3   1.29355E+3
  -4.90515E+3   1.52260E+3
  -4.55807E+3   1.74009E+3
  -4.35111E+3   1.92210E+3
  -4.06440E+3   2.16580E+3
  -3.72102E+3   2.25038E+3
  -3.37163E+3   2.47146E+3
  -3.08418E+3   2.66207E+3
  -2.82299E+3   2.73008E+3
  -2.51079E+3   2.86143E+3
  -2.13708E+3   2.91537E+3
  -1.86428E+3   3.08883E+3
  -1.58149E+3   3.09720E+3
  -1.30339E+3   3.21074E+3
  -1.05017E+3   3.24230E+3
  -7.21606E+2   3.25038E+3
  -4.55846E+2   3.25240E+3
  -1.84610E+2   3.36839E+3
   7.20715E+1   3.30269E+3
   3.69664E+2   3.31987E+3
   6.88536E+2   3.32989E+3
   8.89482E+2   3.23648E+3
   1.14893E+3   3.16377E+3
   1.48479E+3   3.11783E+3
   1.64594E+3   3.03919E+3
   1.85036E+3   3.01432E+3
   2.12854E+3   2.90029E+3
   2.37643E+3   2.85104E+3
   2.61923E+3   2.72346E+3
   2.71840E+3   2.64467E+3
   2.96973E+3   2.51357E+3
   3.11974E+3   2.34606E+3
   3.35193E+3   2.23495E+3
   3.47564E+3   2.04779E+3
   3.61076E+3   1.97470E+3
   3.80549E+3   1.78346E+3
   3.93299E+3   1.61873E+3
   4.05255E+3   1.41872E+3
   4.25448E+3   1.31725E+3
   4.34121E+3   1.16605E+3
   4.48801E+3   9.57994E+2
   4.56373E+3   7.69827E+2
   4.63384E+3   6.69975E+2
   4.75317E+3   4.32988E+2
   4.82098E+3   2.32477E+2
   4.88038E+3   6.45848E+1
   4.97512E+3  -1.73303E+2
   4.94961E+3  -2.91923E+2
   5.10154E+3  -4.72171E+2
   5.08535E+3  -6.86526E+2
   5.06923E+3  -8.65161E+2
   5.14586E+3  -1.06237E+3
   5.11335E+3  -1.25835E+3
   5.15463E+3  -1.47895E+3
   5.08900E+3  -1.64788E+3
   5.04812E+3  -1.84824E+3
   5.09021E+3  -2.02251E+3
   5.04186E+3  -2.23336E+3
   4.97802E+3  -2.37310E+3
   4.92638E+3  -2.55738E+3
   4.88617E+3  -2.74222E+3
   4.86966E+3  -2.94889E+3
   4.71975E+3  -3.11166E+3
   4.67462E+3  -3.23089E+3
   4.60084E+3  -3.43839E+3
   4.48271E+3  -3.53636E+3
   4.40160E+3  -3.73096E+3
   4.26700E+3  -3.86034E+3
   4.21774E+3  -4.01669E+3
   4.07481E+3  -4.17578E+3
   3.97910E+3  -4.32122E+3
   3.85559E+3  -4.40055E+3
   3.76607E+3  -4.53034E+3
   3.62047E+3  -4.71001E+3
   3.52728E+3  -4.72178E+3
   3.35022E+3  -4.80036E+3
   3.24235E+3  -4.94235E+3
   3.11242E+3  -5.01283E+3
   2.98674E+3  -5.16267E+3
   2.88681E+3  -5.19069E+3
   2.73912E+3  -5.26931E+3
   2.60813E+3  -5.31619E+3
   2.51234E+3  -5.37311E+3
   2.35239E+3  -5.38217E+3
   2.22666E+3  -5.46883E+3
   2.02225E+3  -5.51305E+3
   1.89519E+3  -5.62566E+3
   1.75993E+3  -5.58970E+3
   1.61022E+3  -5.63548E+3
   1.48507E+3  -5.65269E+3
   1.34870E+3  -5.64131E+3
   1.25323E+3  -5.62298E+3
   1.07340E+3  -5.66001E+3
   9.11486E+2  -5.66389E+3
   7.89822E+2  -5.64125E+3
   7.59940E+2  -5.65227E+3
   5.78289E+2  -5.59989E+3
   4.25929E+2  -5.59313E+3
   2.72767E+2  -5.61501E+3
   2.04094E+2  -5.53136E+3
   4.27395E+1  -5.46035E+3
  -2.71692E+1  -5.48871E+3
  -1.96425E+2  -5.41802E+3
  -2.73971E+2  -5.44479E+3
  -4.15908E+2  -5.30698E+3
  -5.22967E+2  -5.30196E+3
  -5.74703E+2  -5.22862E+3
  -7.74270E+2  -5.26278E+3
  -7.54705E+2  -5.19284E+3
  -8.96624E+2  -5.01283E+3
  -1.02642E+3  -5.07637E+3
  -1.11518E+3  -4.99278E+3
  -1.23084E+3  -4.92882E+3
  -1.26970E+3  -4.88917E+3
  -1.28695E+3  -4.88190E+3
  -1.45030E+3  -4.81371E+3
  -1.45523E+3  -4.66323E+3
  -1.47333E+3  -4.59402E+3
  -1.61152E+3  -4.53807E+3
  -1.73098E+3  -4.44832E+3
  -1.74594E+3  -4.33498E+3
  -1.82410E+3  -4.34709E+3
  -1.88561E+3  -4.22789E+3
  -1.88599E+3  -4.19157E+3
  -1.93287E+3  -4.07934E+3
  -1.96312E+3  -4.03079E+3
  -1.99309E+3  -3.94450E+3
  -2.09486E+3  -3.91153E+3
  -2.10107E+3  -3.84363E+3
  -2.17059E+3  -3.75886E+3
  -2.20563E+3  -3.69044E+3
  -2.21290E+3  -3.57774E+3
  -2.24340E+3  -3.44512E+3
  -2.23481E+3  -3.50132E+3
  -2.28281E+3  -3.43557E+3
  -2.24047E+3  -3.24365E+3
  -2.31473E+3  -3.17537E+3
  -2.34872E+3  -3.15762E+3
  -2.29312E+3  -3.02087E+3
  -2.29043E+3  -3.02328E+3
  -2.35759E+3  -2.91834E+3
  -2.33653E+3  -2.81527E+3
  -2.32975E+3  -2.73798E+3
  -2.26693E+3  -2.65517E+3
  -2.28541E+3  -2.63094E+3
  -2.30078E+3  -2.54687E+3
  -2.28046E+3  -2.50490E+3
  -2.37568E+3  -2.46893E+3
  -2.23299E+3  -2.41550E+3
  -2.29306E+3  -2.22921E+3
  -2.24936E+3  -2.21819E+3
  -2.28588E+3  -2.15804E+3
  -2.19351E+3  -2.10091E+3
  -2.17732E+3  -2.00239E+3
  -2.15181E+3  -1.94213E+3
  -2.05785E+3  -1.93330E+3
  -2.10252E+3  -1.84961E+3
  -2.02049E+3  -1.79675E+3
  -2.09404E+3  -1.76450E+3
  -2.08251E+3  -1.67130E+3
  -2.03318E+3  -1.66734E+3
  -2.00705E+3  -1.64697E+3
  -1.95547E+3  -1.55446E+3
  -1.89401E+3  -1.59892E+3
  -1.86469E+3  -1.56727E+3
  -1.79324E+3  -1.55477E+3
  -1.78195E+3  -1.43258E+3
  -1.68593E+3  -1.38375E+3
  -1.73584E+3  -1.37360E+3
  -1.74245E+3  -1.38503E+3
  -1.61503E+3  -1.43566E+3
  -1.67340E+3  -1.32575E+3
  -1.55196E+3  -1.31004E+3
  -1.42407E+3  -1.30629E+3
  -1.46724E+3  -1.36203E+3
  -1.47005E+3  -1.23847E+3
  -1.41545E+3  -1.20209E+3
  -1.39655E+3  -1.17890E+3
  -1.31577E+3  -1.23665E+3
  -1.29678E+3  -1.23605E+3
  -1.26745E+3  -1.19062E+3
  -1.17724E+3  -1.18737E+3
  -1.17399E+3  -1.15507E+3
  -1.16362E+3  -1.17605E+3
  -1.14270E+3  -1.20595E+3
  -1.06437E+3  -1.15808E+3
  -1.02543E+3  -1.14979E+3
  -1.01020E+3  -1.25563E+3
  -9.63473E+2  -1.17914E+3
  -8.93770E+2  -1.19707E+3
  -9.52260E+2  -1.15051E+3
  -9.45671E+2  -1.19923E+3
  -8.72246E+2  -1.19512E+3
  -9.16764E+2  -1.22427E+3
  -8.51595E+2  -1.14635E+3
  -7.74047E+2  -1.13543E+3
  -7.95347E+2  -1.22262E+3
  -7.25074E+2  -1.16732E+3
  -7.24311E+2  -1.17872E+3
  -6.76169E+2  -1.21439E+3
  -6.93531E+2  -1.20732E+3
  -6.53106E+2  -1.23809E+3
  -5.83495E+2  -1.18154E+3
  -6.85708E+2  -1.26151E+3
  -5.64789E+2  -1.30421E+3
  -6.10527E+2  -1.25577E+3
  -5.68660E+2  -1.24589E+3
  -5.25948E+2  -1.21947E+3
  -6.05468E+2  -1.34747E+3
  -5.73860E+2  -1.32671E+3
  -5.93603E+2  -1.30944E+3
  -5.56107E+2  -1.33851E+3
  -5.16879E+2  -1.30473E+3
  -5.05328E+2  -1.32153E+3
  -5.22834E+2  -1.37379E+3
  -5.71556E+2  -1.39525E+3
  -5.66611E+2  -1.37392E+3
  -5.60721E+2  -1.33415E+3
  -5.65828E+2  -1.39539E+3
  -5.90476E+2  -1.44213E+3
  -5.38373E+2  -1.40327E+3
  -5.12040E+2  -1.43866E+3
  -5.23077E+2  -1.44504E+3
  -5.19983E+2  -1.47085E+3
  -4.99243E+2  -1.43315E+3
  -5.30720E+2  -1.38992E+3
  -6.15824E+2  -1.48313E+3
  -5.91832E+2  -1.42626E+3
  -5.46911E+2  -1.50256E+3
  -5.26097E+2  -1.44286E+3
  -6.01609E+2  -1.47411E+3
  -5.45876E+2  -1.42415E+3
  -5.82604E+2  -1.46145E+3
  -5.86404E+2  -1.45510E+3
  -5.94714E+2  -1.47386E+3
  -6.03646E+2  -1.50243E+3
  -6.55499E+2  -1.47671E+3
