 LCModel (Version 6.3-1N) Copyright: S.W. Provencher.          Ref.: Magn. Reson. Med. 30:672-679 (1993).                
 Slice_N1@18_14  02-Jun-2023 14:36:55
 27 lines in following concentration table = NCONC+1
    Conc.  %SD /Cr+PCr  Metabolite                                         
 2.24E-06  15% 2.3E-04 Mac                                                 
 3.84E-02  14%   3.934 Cr                                                  
 3.97E-02  14%   4.066 PCr                                                 
 8.35E-02   9%   8.561 Ins                                                 
 7.74E-02   7%   7.935 NAA                                                 
 6.08E-02  10%   6.231 Tau                                                 
 6.90E-03  53%   0.707 PCho                                                
 6.68E-03  56%   0.685 GPC                                                 
 6.52E-02  13%   6.683 Glu                                                 
 1.52E-02  37%   1.557 Gln                                                 
 1.23E-02  47%   1.259 Ala                                                 
 4.77E-02  24%   4.891 Asc                                                 
 1.34E-02  56%   1.378 Asp                                                 
 1.36E-02  29%   1.399 GABA                                                
 1.24E-02  43%   1.268 Glc                                                 
 1.08E-02  28%   1.108 GSH                                                 
    0.000 999%   0.000 Lac                                                 
 1.18E-02  30%   1.210 NAAG                                                
    0.000 999%   0.000 PE                                                  
 1.36E-02  12%   1.392 GPC+PCho                                            
 8.92E-02   8%   9.145 NAA+NAAG                                            
 8.04E-02  12%   8.240 Glu+Gln                                             
 7.80E-02   8%   8.000 Cr+PCr                                              
 8.92E-02   8%   9.145 NAA+NAAG                                            
 7.80E-02   8%   8.000 Cr+PCr                                              
 8.04E-02  12%   8.240 Glu+Gln                                             
   6 lines in following misc. output table
  FWHM = 0.017 ppm    S/N =   6                                            
  Data shift = 0.023 ppm                                                   
  Ph: -39 deg      -5.6 deg/ppm                                            
  alphaB,S = 2.8E-01,   3.0E-01                                            
   18 spline knots.   Ns = 5(1)                                            
   2 inflections.     1 extrema                                            
  654 points on ppm-axis = NY
      4.000000     3.994181     3.988363     3.982544     3.976726     3.970907     3.965088     3.959270     3.953451     3.947633
      3.941814     3.935995     3.930177     3.924358     3.918540     3.912721     3.906902     3.901084     3.895265     3.889446
      3.883628     3.877809     3.871991     3.866172     3.860353     3.854535     3.848716     3.842898     3.837079     3.831260
      3.825442     3.819623     3.813805     3.807986     3.802167     3.796349     3.790530     3.784712     3.778893     3.773074
      3.767256     3.761437     3.755619     3.749800     3.743981     3.738163     3.732344     3.726526     3.720707     3.714888
      3.709070     3.703251     3.697433     3.691614     3.685795     3.679977     3.674158     3.668339     3.662521     3.656702
      3.650884     3.645065     3.639246     3.633428     3.627609     3.621791     3.615972     3.610153     3.604335     3.598516
      3.592698     3.586879     3.581060     3.575242     3.569423     3.563605     3.557786     3.551967     3.546149     3.540330
      3.534512     3.528693     3.522874     3.517056     3.511237     3.505419     3.499600     3.493781     3.487963     3.482144
      3.476326     3.470507     3.464688     3.458870     3.453051     3.447232     3.441414     3.435595     3.429777     3.423958
      3.418139     3.412321     3.406502     3.400684     3.394865     3.389046     3.383228     3.377409     3.371591     3.365772
      3.359953     3.354135     3.348316     3.342498     3.336679     3.330860     3.325042     3.319223     3.313405     3.307586
      3.301767     3.295949     3.290130     3.284312     3.278493     3.272674     3.266856     3.261037     3.255219     3.249400
      3.243581     3.237763     3.231944     3.226125     3.220307     3.214488     3.208670     3.202851     3.197032     3.191214
      3.185395     3.179577     3.173758     3.167939     3.162121     3.156302     3.150484     3.144665     3.138846     3.133028
      3.127209     3.121391     3.115572     3.109753     3.103935     3.098116     3.092298     3.086479     3.080660     3.074842
      3.069023     3.063205     3.057386     3.051567     3.045749     3.039930     3.034111     3.028293     3.022474     3.016656
      3.010837     3.005018     2.999200     2.993381     2.987563     2.981744     2.975925     2.970107     2.964288     2.958470
      2.952651     2.946832     2.941014     2.935195     2.929377     2.923558     2.917739     2.911921     2.906102     2.900284
      2.894465     2.888646     2.882828     2.877009     2.871191     2.865372     2.859553     2.853735     2.847916     2.842098
      2.836279     2.830460     2.824642     2.818823     2.813004     2.807186     2.801367     2.795549     2.789730     2.783911
      2.778093     2.772274     2.766456     2.760637     2.754818     2.749000     2.743181     2.737363     2.731544     2.725725
      2.719907     2.714088     2.708270     2.702451     2.696632     2.690814     2.684995     2.679177     2.673358     2.667539
      2.661721     2.655902     2.650084     2.644265     2.638446     2.632628     2.626809     2.620991     2.615172     2.609353
      2.603535     2.597716     2.591897     2.586079     2.580260     2.574442     2.568623     2.562804     2.556986     2.551167
      2.545349     2.539530     2.533711     2.527893     2.522074     2.516256     2.510437     2.504618     2.498800     2.492981
      2.487163     2.481344     2.475525     2.469707     2.463888     2.458070     2.452251     2.446432     2.440614     2.434795
      2.428977     2.423158     2.417339     2.411521     2.405702     2.399884     2.394065     2.388246     2.382428     2.376609
      2.370790     2.364972     2.359153     2.353335     2.347516     2.341697     2.335879     2.330060     2.324242     2.318423
      2.312604     2.306786     2.300967     2.295149     2.289330     2.283511     2.277693     2.271874     2.266056     2.260237
      2.254418     2.248600     2.242781     2.236963     2.231144     2.225325     2.219507     2.213688     2.207870     2.202051
      2.196232     2.190414     2.184595     2.178777     2.172958     2.167139     2.161321     2.155502     2.149683     2.143865
      2.138046     2.132228     2.126409     2.120590     2.114772     2.108953     2.103135     2.097316     2.091497     2.085679
      2.079860     2.074042     2.068223     2.062404     2.056586     2.050767     2.044949     2.039130     2.033311     2.027493
      2.021674     2.015856     2.010037     2.004218     1.998400     1.992581     1.986763     1.980944     1.975126     1.969307
      1.963489     1.957670     1.951852     1.946033     1.940215     1.934397     1.928578     1.922760     1.916941     1.911123
      1.905304     1.899486     1.893667     1.887849     1.882030     1.876212     1.870393     1.864575     1.858756     1.852938
      1.847119     1.841301     1.835482     1.829664     1.823845     1.818027     1.812208     1.806390     1.800571     1.794753
      1.788934     1.783116     1.777297     1.771479     1.765660     1.759842     1.754023     1.748205     1.742386     1.736568
      1.730749     1.724931     1.719113     1.713294     1.707476     1.701657     1.695839     1.690020     1.684202     1.678383
      1.672565     1.666746     1.660928     1.655109     1.649291     1.643472     1.637654     1.631835     1.626017     1.620198
      1.614380     1.608561     1.602743     1.596924     1.591106     1.585287     1.579469     1.573650     1.567832     1.562013
      1.556195     1.550376     1.544558     1.538739     1.532921     1.527102     1.521284     1.515465     1.509647     1.503829
      1.498010     1.492192     1.486373     1.480555     1.474736     1.468918     1.463099     1.457281     1.451462     1.445644
      1.439825     1.434007     1.428188     1.422370     1.416551     1.410733     1.404914     1.399096     1.393277     1.387459
      1.381640     1.375822     1.370003     1.364185     1.358366     1.352548     1.346729     1.340911     1.335092     1.329274
      1.323455     1.317637     1.311818     1.306000     1.300182     1.294363     1.288545     1.282726     1.276908     1.271089
      1.265271     1.259452     1.253634     1.247815     1.241997     1.236178     1.230360     1.224541     1.218723     1.212904
      1.207086     1.201267     1.195449     1.189630     1.183812     1.177993     1.172175     1.166356     1.160538     1.154719
      1.148901     1.143082     1.137264     1.131445     1.125627     1.119808     1.113990     1.108171     1.102353     1.096534
      1.090716     1.084898     1.079079     1.073261     1.067442     1.061624     1.055805     1.049987     1.044168     1.038350
      1.032531     1.026713     1.020894     1.015076     1.009257     1.003439     0.997620     0.991802     0.985983     0.980165
      0.974346     0.968528     0.962709     0.956891     0.951072     0.945254     0.939435     0.933617     0.927798     0.921980
      0.916161     0.910343     0.904524     0.898706     0.892887     0.887069     0.881251     0.875432     0.869614     0.863795
      0.857977     0.852158     0.846340     0.840521     0.834703     0.828884     0.823066     0.817247     0.811429     0.805610
      0.799792     0.793973     0.788155     0.782336     0.776518     0.770699     0.764881     0.759062     0.753244     0.747425
      0.741607     0.735788     0.729970     0.724151     0.718333     0.712514     0.706696     0.700877     0.695059     0.689240
      0.683422     0.677603     0.671785     0.665967     0.660148     0.654330     0.648511     0.642693     0.636874     0.631056
      0.625237     0.619419     0.613600     0.607782     0.601963     0.596145     0.590326     0.584508     0.578689     0.572871
      0.567052     0.561234     0.555415     0.549597     0.543778     0.537960     0.532141     0.526323     0.520504     0.514686
      0.508867     0.503049     0.497230     0.491412     0.485593     0.479775     0.473956     0.468138     0.462319     0.456501
      0.450682     0.444864     0.439045     0.433227     0.427408     0.421590     0.415771     0.409953     0.404134     0.398316
      0.392497     0.386679     0.380860     0.375042     0.369223     0.363405     0.357586     0.351767     0.345949     0.340130
      0.334312     0.328493     0.322675     0.316856     0.311038     0.305219     0.299401     0.293582     0.287764     0.281945
      0.276127     0.270308     0.264490     0.258671     0.252853     0.247034     0.241216     0.235397     0.229579     0.223760
      0.217942     0.212123     0.206305     0.200486
 NY phased data points follow
  -2.68397E-01  1.30081E-02 -2.65667E-01 -1.60079E-01 -9.98445E-02 -3.12655E-01 -3.32148E-01 -4.22649E-01 -3.04530E-01 -2.31128E-01
   1.27461E-01  5.16373E-01  7.82962E-01  5.17379E-01  1.85295E-01  6.94729E-01  6.60807E-01  5.17011E-01  1.93261E-01 -9.91706E-02
  -5.54631E-02 -3.84468E-02  1.47572E-01 -2.09616E-01 -2.07679E-01 -2.02930E-01 -2.29243E-01 -6.93003E-02 -1.05704E-01  3.34914E-02
  -2.17860E-01 -2.53724E-01  1.51882E-01 -2.44493E-01 -2.31294E-01 -1.21913E-01 -7.17039E-01 -3.33321E-01 -3.06872E-01 -3.81833E-01
   8.99373E-02  1.44210E-01  2.03142E-01  2.21401E-01  3.42652E-01  4.84034E-01  6.76246E-01  6.84042E-01  3.21285E-01  2.54306E-01
   3.20791E-01  8.03217E-02  1.28673E-01  1.87089E-01 -1.16848E-01 -2.13213E-01 -1.23388E-01 -2.90268E-01 -1.48689E-01 -2.22905E-01
  -3.67918E-01 -3.72792E-01 -5.86198E-01 -2.33153E-01 -4.25727E-01 -5.63097E-01 -2.35305E-02  4.34571E-01  3.30667E-01  5.06185E-01
   7.16981E-01  2.12050E-01  1.40290E-01  2.38101E-02 -1.44254E-01 -2.47813E-01 -5.85649E-02 -3.65925E-01 -5.07619E-01 -5.13016E-01
  -6.63558E-01 -8.63274E-02  4.64661E-02  3.04176E-01  6.85402E-01  6.50614E-01  4.40864E-01  2.91717E-01 -1.60182E-02  1.20915E-01
   3.49846E-01  2.79190E-02  9.16411E-02  3.38258E-01  1.47918E-01 -8.70183E-02  2.30672E-01  2.38915E-02 -1.17261E-01  3.72646E-02
  -1.40106E-01 -3.41156E-01 -2.85846E-01  1.36020E-01  9.37071E-02  3.73429E-01  7.67359E-01  2.44284E-01  2.53741E-01  5.10212E-01
   4.01841E-01  3.13538E-01  3.61777E-02  2.68079E-01  4.58362E-01  2.53743E-01  1.87522E-01  3.61128E-01  3.53111E-01  2.80414E-02
   6.87998E-02 -4.73489E-02 -1.05469E-01  1.95686E-01  3.28029E-02 -1.36983E-01 -5.35132E-02 -5.08249E-01 -8.59200E-01 -7.01148E-01
  -7.67966E-01 -9.12462E-01 -5.27530E-01 -6.02293E-01 -7.04746E-01 -6.12916E-01 -1.09544E+00 -9.25913E-01 -7.17873E-01 -4.83655E-01
  -2.08196E-01 -2.09668E-01 -1.42241E-01 -8.52025E-02 -5.85344E-02  1.09454E-01  2.88943E-01 -1.08749E-01  7.92857E-02  1.60586E-01
   6.35056E-02  5.20136E-02  7.62699E-02  3.53057E-01  5.66094E-02  2.30912E-01  1.73201E-01  3.90561E-02  2.94275E-01  2.94962E-01
   7.27836E-01  6.09001E-01  5.58318E-01  8.91329E-01  1.03794E+00  1.59725E+00  1.12274E+00  1.34993E-01 -8.35932E-01 -1.34662E+00
  -8.55716E-01 -6.01642E-01 -4.31054E-01 -6.03635E-01 -5.58102E-01 -4.55493E-01 -4.64903E-01 -5.26397E-01 -3.80724E-01 -3.39988E-01
  -4.62381E-01 -1.37232E-01 -4.44318E-01 -2.47440E-01 -2.72827E-01 -3.60127E-01 -2.15387E-01 -2.93669E-01 -8.98052E-02 -2.27409E-01
  -4.16041E-01 -3.73561E-01 -1.17319E-01 -2.70335E-01 -1.56354E-01 -3.02632E-01  9.51525E-02  1.70584E-01 -2.80681E-01 -8.44039E-02
  -6.84652E-02  2.80929E-01 -2.66638E-01 -1.62483E-01 -2.29131E-02  1.75708E-02  2.46839E-01 -1.57702E-01 -2.15825E-02 -2.00430E-02
   8.80291E-02 -2.75904E-02 -7.00364E-02 -1.25934E-01 -9.18445E-02  4.26630E-03  5.88901E-02  4.20992E-02 -1.11867E-01 -1.01523E-01
  -2.31626E-01 -1.48941E-02 -2.89105E-02  2.00506E-01  5.14263E-01  2.22634E-01  3.52706E-01  4.39222E-01 -1.41621E-02  2.33535E-01
   6.66656E-01  7.41720E-01  3.25477E-01 -1.61895E-01  1.61851E-01  1.10175E-02 -5.66627E-02 -1.43859E-02 -6.07602E-02 -7.82224E-02
  -1.31320E-01  5.14407E-02  7.35831E-02  1.01972E-01 -1.87943E-01 -2.95511E-02 -1.34513E-01 -5.33884E-02  3.08160E-01 -5.77570E-02
   3.37145E-01  4.84750E-02  1.46199E-01  4.31280E-01 -1.05704E-01  7.15925E-02  8.09518E-02  1.34334E-01 -1.58264E-02  1.20429E-01
   1.99558E-01  2.67214E-01  2.40706E-01  2.31735E-01  1.93782E-01 -1.14655E-01  1.93889E-01 -1.51625E-01  1.14018E-01  1.38869E-01
   1.21970E-01  1.00965E-01 -5.33081E-03  2.48983E-01 -6.15706E-03  3.15773E-01  3.23367E-02  1.54717E-03 -2.11985E-01 -4.13902E-01
  -3.80458E-01 -4.86086E-01 -3.17934E-01 -3.45844E-01  1.73523E-02  2.99320E-01  4.03465E-01  4.72734E-01  8.15138E-01  5.20917E-01
   1.30509E-01  9.61733E-02  4.64019E-02 -1.25838E-01 -1.16769E-01  1.13533E-02 -2.42905E-01 -4.12783E-02  4.06668E-02  2.45910E-01
   2.45584E-01  2.36337E-01  3.44323E-01  2.19364E-01  2.91668E-01  1.78799E-01  1.53791E-01  2.08239E-01  2.58606E-01  1.66116E-01
   1.61704E-01  7.97456E-02  7.52096E-02  5.33210E-01  3.27488E-01  2.34350E-02 -5.18310E-03 -1.06075E-01 -9.57777E-02 -2.61617E-01
  -4.08797E-02 -2.44310E-02 -2.86078E-01 -2.27350E-01 -5.35242E-02 -1.28266E-01  6.55857E-02  4.02205E-01  1.56117E-01  2.72256E-01
   3.85006E-01  1.66686E-01  5.63441E-02  1.64963E-01 -3.12616E-01 -3.23879E-01 -3.18611E-01 -6.08773E-01 -1.15019E-01 -3.62958E-01
  -2.43844E-01 -8.60747E-01 -2.25184E+00 -2.07297E+00 -1.00153E+00 -1.40980E-01  1.45880E-01 -6.51793E-02 -2.27413E-01  6.53863E-02
   9.44120E-02  1.91350E-01  2.87312E-02  4.26492E-02  3.57136E-01 -7.90561E-02  1.52625E-01  9.44733E-02 -2.38621E-01  3.46266E-01
   2.31835E-01  1.25756E-01  7.55503E-02  2.60675E-01  1.71019E-02 -2.79600E-01  1.83290E-01  5.14869E-02  2.17347E-01  8.22831E-02
   4.52365E-02 -5.66157E-02  2.98690E-02 -8.15653E-02 -1.02898E-01  1.71732E-01 -8.16764E-02  3.80428E-01  9.07526E-02  2.42639E-01
   2.61257E-01 -6.22437E-02  1.27879E-01  1.86017E-01  2.60294E-01  1.10398E-01  3.03386E-01  2.15724E-01  2.48165E-01  1.37352E-01
  -1.76907E-02  1.98370E-02 -3.48500E-02  2.03034E-01  2.95117E-01  6.89953E-02  1.13929E-01  1.71078E-01  6.15714E-02  8.09452E-02
   1.86566E-01  3.72659E-02 -1.59757E-01  2.21701E-01 -3.37933E-02 -1.28722E-01 -2.94611E-01 -2.07283E-01  1.46879E-01 -4.19581E-01
  -1.74271E-01 -1.04984E-01 -2.41931E-02 -1.21830E-01 -3.32575E-01  1.19957E-01 -1.75959E-01 -1.35000E-01 -1.46320E-01 -2.88557E-01
  -3.30966E-01 -5.35296E-01 -1.10723E-01 -3.35915E-01 -2.92648E-01 -1.03553E-01 -2.05002E-01 -4.05883E-02 -2.73822E-01 -1.36138E-01
  -1.85421E-01 -9.54111E-02  7.64902E-03  2.10006E-01  3.39861E-01  3.63651E-02  1.92206E-01  2.84624E-01  3.12653E-01  1.38376E-02
  -3.07356E-02  6.41360E-02  1.36667E-01  1.80620E-01  3.05129E-01  3.85945E-01  1.63286E-01  4.53160E-01  3.26998E-01  2.61242E-01
   1.65607E-01  1.36400E-01  1.77548E-01  1.09932E-01  3.41884E-01 -1.95416E-01 -1.48709E-01  1.71569E-01 -1.73235E-01 -2.16833E-01
  -1.80896E-01 -1.67831E-01  1.80154E-01  2.72354E-01 -1.88075E-01 -3.24399E-01 -4.72658E-02  1.12799E-01  2.39051E-02 -1.28694E-01
  -1.65448E-01  1.14378E-02 -1.66667E-01 -2.95482E-01 -1.62124E-01  1.12050E-01  1.30382E-02 -2.30459E-01  2.74559E-01  1.11357E-01
  -2.07710E-01 -1.64679E-01  1.24816E-01  2.20926E-01  6.70644E-02  9.07429E-02 -7.33034E-02  2.84088E-02 -1.14245E-01  3.49130E-02
   6.85094E-02 -2.25545E-01  5.66452E-02  1.11786E-01 -6.66412E-02  1.01986E-01  1.25765E-01 -2.31561E-02  1.77236E-01  1.64394E-01
   1.59018E-01  2.79891E-01  3.22644E-02  1.70745E-01  1.39531E-01 -5.18529E-02  3.44473E-01  7.93176E-02  2.69683E-02  1.93999E-01
   3.46324E-02  1.12814E-01  7.68474E-02  1.98536E-01  1.47442E-01 -2.56722E-01 -3.71370E-01 -1.84616E-02 -1.10484E-01 -1.68481E-01
  -8.51529E-02 -5.97853E-02 -1.90129E-01 -1.91231E-01 -1.38166E-01 -6.48846E-01 -2.58212E-01 -3.18496E-01 -7.14401E-01 -2.95488E-01
  -1.45407E-01 -2.13476E-01 -5.07002E-01 -2.97047E-01  8.37474E-02 -1.38366E-01 -1.57369E-02  7.27215E-02 -3.11536E-02  2.99035E-02
  -1.39150E-01 -3.06090E-01 -9.05162E-02  1.88824E-01  7.14414E-02  3.28714E-01  2.24369E-01  1.82795E-01  1.31353E-01  6.57183E-03
   4.27402E-01  2.81202E-01  2.60700E-01  1.55982E-01  3.61360E-01  3.03641E-01  3.02524E-01  5.75479E-01  2.51762E-01  2.64222E-01
   1.64643E-01  1.71860E-01  1.72107E-01  2.82370E-01  2.40843E-01  2.17580E-02  1.40649E-02 -1.59225E-02  2.05092E-01 -3.08652E-02
  -8.82729E-02  7.29412E-02 -1.03064E-01  5.17922E-02 -3.05208E-01 -2.01674E-01  1.90025E-01 -1.44437E-01 -2.17883E-04 -3.65853E-02
  -5.73256E-02  1.67003E-01  1.40382E-01 -7.05937E-02 -7.94702E-02  3.02543E-01  4.08583E-02 -1.67171E-01  2.90731E-01  1.26250E-01
   1.07636E-01  4.92391E-02 -2.06562E-01 -2.12638E-02  3.85541E-02  9.23291E-02 -2.48225E-02  2.74917E-01 -1.44760E-01 -1.08124E-01
   5.47987E-02 -1.53127E-01  2.12132E-01 -1.86038E-02  8.03626E-02 -1.30768E-01  2.94831E-01  7.12671E-02 -7.36572E-02  3.28658E-01
  -1.37361E-01 -3.22929E-02 -1.68417E-02  6.09204E-02 -8.53904E-02  1.22827E-01 -1.13670E-01 -1.74700E-01  1.36457E-01 -1.17510E-01
  -3.59032E-02 -3.91744E-02 -5.38326E-02  4.45080E-02  1.66672E-03 -2.95318E-01 -1.31652E-01 -1.13544E-01  1.36305E-01  1.86368E-01
  -1.23168E-01  2.51820E-01  1.06242E-01 -8.96699E-03  1.71486E-01  7.62731E-02 -6.33638E-03 -4.84749E-04 -2.13761E-02  3.34562E-02
   1.45977E-01  1.07633E-02 -1.92582E-02  2.58437E-01  5.64964E-02 -1.20436E-01  1.67550E-01 -2.68430E-02 -5.63842E-02  1.00370E-01
  -1.34658E-01  7.17152E-02  6.10970E-02 -1.59304E-01
 NY points of the fit to the data follow
   7.25636E-02 -5.07068E-03 -8.03135E-02 -1.20114E-01 -1.24758E-01 -1.10594E-01 -1.04942E-01 -1.04837E-01 -1.68135E-01  2.22199E-03
   4.44561E-02  4.41545E-01  6.81468E-01  5.39308E-01  1.59406E-01  4.22646E-01  7.70748E-01  5.39631E-01  1.92217E-01  5.13287E-02
   2.47470E-02 -3.16114E-02 -4.65689E-02 -8.50862E-02 -1.21719E-01 -1.44748E-01 -1.70033E-01 -1.88307E-01 -1.93376E-01 -2.08221E-01
  -2.17806E-01 -2.25513E-01 -2.47359E-01 -2.85019E-01 -3.43455E-01 -3.76510E-01 -4.61442E-01 -4.45369E-01 -4.52590E-01 -3.36020E-01
  -9.99042E-02  3.92862E-02  4.12641E-02  1.88897E-01  2.93097E-01  4.13808E-01  4.60437E-01  3.68579E-01  2.73770E-01  2.39127E-01
   1.72284E-01  9.23437E-02  7.91763E-02  3.66962E-02 -2.89239E-02 -1.00568E-01 -1.57551E-01 -2.04453E-01 -2.02641E-01 -2.73669E-01
  -2.91517E-01 -4.10752E-01 -5.40025E-01 -2.77150E-01 -4.04797E-01 -3.55893E-01  1.79480E-01  3.14912E-01  2.81954E-01  4.44954E-01
   5.08914E-01  3.37628E-01  2.15658E-01  1.45565E-01  6.09023E-02  1.14498E-03 -1.26537E-01 -3.29313E-01 -4.94705E-01 -7.77083E-01
  -6.56598E-01 -1.79917E-01 -5.78923E-03  1.43708E-01  4.51930E-01  5.96458E-01  4.89318E-01  3.72083E-01  3.20176E-01  2.59222E-01
   2.29998E-01  2.19788E-01  1.98753E-01  1.68774E-01  1.43035E-01  6.25853E-02 -8.77459E-03 -2.45360E-01 -3.73803E-01 -5.17075E-01
  -4.56158E-01 -2.23523E-01  3.41672E-02  2.32886E-01  3.02772E-01  3.01496E-01  2.73717E-01  2.71795E-01  2.66342E-01  2.72352E-01
   2.79017E-01  2.80205E-01  2.77542E-01  2.75798E-01  2.76421E-01  2.80340E-01  2.84727E-01  2.86851E-01  3.04606E-01  2.70657E-01
   2.59091E-01  2.14390E-01  8.79411E-03  4.58417E-02 -1.89251E-02 -2.80024E-01 -8.59324E-02 -2.48673E-01 -3.91250E-01 -6.60650E-01
  -7.16630E-01 -5.39466E-01 -4.27945E-01 -1.66122E-01 -3.54181E-01 -7.02647E-01 -1.02426E+00 -9.50696E-01 -5.79466E-01 -2.51297E-01
  -8.91809E-02 -5.16492E-02 -9.21332E-03  7.12432E-03  3.26608E-02  6.02138E-02  8.48074E-02  1.06515E-01  1.26692E-01  1.44268E-01
   1.61945E-01  1.80811E-01  1.98716E-01  2.18953E-01  2.41689E-01  2.67603E-01  2.96195E-01  3.28656E-01  3.61477E-01  4.00073E-01
   4.53441E-01  5.30098E-01  6.02505E-01  9.11933E-01  9.93157E-01  1.34365E+00  1.04421E+00  5.32715E-02 -9.57195E-01 -1.35741E+00
  -1.10344E+00 -7.17988E-01 -5.03641E-01 -4.63350E-01 -4.31639E-01 -4.23836E-01 -3.86785E-01 -3.32521E-01 -3.17969E-01 -3.26860E-01
  -3.04576E-01 -2.59108E-01 -2.41069E-01 -2.32735E-01 -2.31341E-01 -2.27732E-01 -2.21601E-01 -2.05573E-01 -1.92268E-01 -1.88993E-01
  -1.80715E-01 -1.66905E-01 -1.53538E-01 -1.41658E-01 -1.29485E-01 -1.19639E-01 -1.10600E-01 -9.96058E-02 -8.93237E-02 -7.59915E-02
  -5.95320E-02 -3.86699E-02 -2.07484E-02 -3.39274E-02 -5.23520E-02 -4.88742E-02 -2.03489E-02  8.94461E-03 -1.01410E-02 -5.45539E-02
  -7.68319E-02 -6.90079E-02 -5.76397E-02 -5.23815E-02 -3.92566E-02 -2.97194E-02 -1.26819E-02  4.66680E-03  2.10308E-03 -1.96289E-02
  -2.02162E-02 -1.61143E-02  4.62277E-02  8.24624E-02  1.85133E-01  3.24901E-01  3.18674E-01  2.02259E-01  1.38285E-01  2.38666E-01
   4.31342E-01  4.27229E-01  2.20355E-01  4.83233E-02 -1.16657E-02 -2.68126E-02 -3.20814E-02 -3.11556E-02 -3.81080E-02 -4.84182E-02
  -5.77984E-02 -6.74069E-02 -6.82089E-02 -7.27401E-02 -7.08923E-02 -7.81247E-02 -7.65954E-02 -7.82128E-02 -7.96960E-02 -7.40693E-02
  -8.34863E-02 -8.10692E-02 -8.90914E-02 -1.43872E-01 -1.06674E-01 -1.34365E-01 -4.74788E-02  1.09620E-01  7.50363E-02  8.76043E-02
   1.68270E-01  2.46251E-01  1.68848E-01  1.21198E-01  1.87283E-01  1.76371E-01  1.61332E-01  1.21839E-01  1.40658E-01  1.46323E-01
   1.34336E-01  1.08297E-01  6.81915E-02  3.39941E-02 -1.78720E-03 -3.06204E-02 -6.95331E-02 -1.00891E-01 -1.74705E-01 -2.24283E-01
  -3.27065E-01 -4.02108E-01 -3.39032E-01 -2.60029E-01 -3.90855E-02  1.96367E-01  3.41697E-01  4.38558E-01  4.39308E-01  3.57162E-01
   2.59896E-01  2.08143E-01  1.30019E-01  1.24958E-01  9.44119E-02  1.29768E-01  1.93424E-01  2.40589E-01  2.76962E-01  2.82485E-01
   2.69773E-01  2.45478E-01  2.35411E-01  2.26069E-01  2.19468E-01  2.12229E-01  1.97675E-01  1.78771E-01  1.55135E-01  1.01221E-01
   8.54750E-02  3.94107E-02  3.18041E-02  3.45849E-02  2.94932E-02  1.27243E-02 -3.24864E-02 -8.00192E-02 -1.47331E-01 -1.64311E-01
  -2.03984E-01 -2.09875E-01 -2.14995E-01 -1.93411E-01 -1.47513E-01 -6.98085E-02  3.46886E-02  1.05468E-01  1.58455E-01  1.42104E-01
   8.83751E-02  4.66708E-02 -5.06879E-02 -5.23980E-02 -1.91758E-01 -1.95941E-01 -3.89617E-01 -4.82341E-01 -1.61091E-01 -1.78327E-01
  -2.96784E-01 -1.01984E+00 -2.14985E+00 -2.12836E+00 -1.02770E+00 -2.17950E-01 -3.72982E-02  6.70303E-03  1.13720E-02 -5.69070E-03
   5.11394E-03  2.02040E-02  3.29006E-02  4.29564E-02  5.35222E-02  6.49510E-02  7.27429E-02  8.78392E-02  7.54545E-02  8.20313E-02
   3.72442E-02  8.56950E-03 -3.36142E-02 -7.49854E-02 -8.76249E-02 -8.79879E-02 -6.75331E-02 -4.62079E-02 -2.10878E-02 -4.72817E-03
   1.19553E-02  2.57144E-02  3.88931E-02  4.73756E-02  5.05690E-02  5.48708E-02  6.00272E-02  6.58936E-02  7.16902E-02  7.49093E-02
   7.69290E-02  7.99586E-02  8.41033E-02  8.95716E-02  9.19440E-02  9.37407E-02  9.36435E-02  9.49184E-02  9.91290E-02  1.04340E-01
   1.09343E-01  1.12124E-01  1.13256E-01  1.10781E-01  1.07211E-01  1.04870E-01  1.03251E-01  1.00139E-01  9.63974E-02  9.13801E-02
   8.43291E-02  7.80899E-02  7.11711E-02  6.27244E-02  5.45008E-02  4.93875E-02  4.45844E-02  3.72237E-02  3.01417E-02  2.55606E-02
   2.01347E-02  1.58857E-02  1.37040E-02  1.05424E-02  6.61734E-03  3.25413E-03 -7.09199E-04 -4.04464E-03 -6.55018E-03 -8.07999E-03
  -9.36961E-03 -1.13744E-02 -1.11127E-02 -8.61283E-03 -5.97114E-03 -3.83504E-03  1.84941E-03  6.74707E-03  1.34681E-02  2.24734E-02
   2.49864E-02  3.84000E-02  6.88423E-02  1.13459E-01  2.25263E-01  2.55265E-01  2.48661E-01  2.04941E-01  1.16937E-01  5.73996E-02
   5.64762E-02  8.05047E-02  9.40287E-02  1.10503E-01  1.23311E-01  1.35179E-01  1.47866E-01  1.56955E-01  1.63728E-01  1.66923E-01
   1.66569E-01  1.67128E-01  1.66414E-01  1.64827E-01  1.63187E-01  1.57996E-01  1.49684E-01  1.37813E-01  1.25966E-01  1.14285E-01
   1.06037E-01  9.57491E-02  8.67231E-02  7.59177E-02  6.62811E-02  5.95379E-02  5.27510E-02  4.56669E-02  3.89160E-02  3.44156E-02
   3.02072E-02  2.57790E-02  2.18704E-02  1.93843E-02  1.97757E-02  2.29373E-02  2.66677E-02  2.86090E-02  3.25519E-02  3.71626E-02
   4.22109E-02  4.98738E-02  5.68016E-02  6.15746E-02  6.36530E-02  6.61685E-02  6.73525E-02  6.84593E-02  7.23478E-02  7.68181E-02
   7.83826E-02  7.75059E-02  7.58986E-02  7.34355E-02  7.21722E-02  6.82852E-02  6.34725E-02  6.03312E-02  5.83206E-02  5.55355E-02
   5.18135E-02  4.83322E-02  4.55732E-02  4.19777E-02  3.71229E-02  3.34268E-02  2.89667E-02  2.63052E-02  2.58338E-02  2.37544E-02
   1.95568E-02  1.58800E-02  1.24393E-02  6.70619E-03 -2.28076E-03 -1.05312E-02 -1.73642E-02 -2.48347E-02 -3.49288E-02 -4.89930E-02
  -6.77656E-02 -8.81253E-02 -1.05127E-01 -1.20757E-01 -1.37187E-01 -1.52938E-01 -1.67021E-01 -1.79128E-01 -1.90273E-01 -2.00496E-01
  -2.05357E-01 -2.03723E-01 -2.01887E-01 -2.01329E-01 -1.97616E-01 -1.87899E-01 -1.78606E-01 -1.71888E-01 -1.66220E-01 -1.59584E-01
  -1.54807E-01 -1.46163E-01 -1.35703E-01 -1.26254E-01 -1.16062E-01 -1.05070E-01 -9.22766E-02 -8.30015E-02 -7.30804E-02 -6.27323E-02
  -5.39738E-02 -4.53252E-02 -3.45348E-02 -2.71794E-02 -2.15388E-02 -1.56940E-02 -7.83917E-03  3.34218E-04  3.42932E-03  4.83798E-03
   1.00153E-02  1.54629E-02  1.73640E-02  1.95090E-02  2.10528E-02  2.21243E-02  2.45510E-02  2.66967E-02  2.53550E-02  2.42605E-02
   2.79235E-02  3.09328E-02  3.28597E-02  3.58713E-02  3.85615E-02  3.78734E-02  3.68077E-02  3.76881E-02  3.74035E-02  3.65405E-02
   3.71720E-02  3.64979E-02  3.58770E-02  3.58636E-02  3.48029E-02  3.54494E-02  3.76119E-02  3.87559E-02  3.91649E-02  3.67966E-02
   3.02569E-02  2.83875E-02  3.24224E-02  3.45846E-02  3.34185E-02  3.15842E-02  3.23445E-02  3.00181E-02  2.74933E-02  2.60434E-02
   2.85148E-02  3.22439E-02  3.29122E-02  3.22619E-02  3.26014E-02  3.40519E-02  3.54676E-02  3.62390E-02  3.71084E-02  3.79733E-02
   3.93218E-02  3.77972E-02  3.39541E-02  3.30818E-02  3.51270E-02  3.62269E-02  3.83642E-02  3.91575E-02  4.01058E-02  3.97312E-02
   3.78375E-02  4.26236E-02  4.82269E-02  4.98789E-02  4.98841E-02  4.59206E-02  4.23944E-02  4.24427E-02  4.55657E-02  4.78030E-02
   4.83207E-02  4.62222E-02  4.52894E-02  4.65053E-02  4.69392E-02  4.85095E-02  4.77515E-02  4.71358E-02  4.94157E-02  5.33763E-02
   5.35829E-02  5.26490E-02  5.44293E-02  5.51869E-02  5.70231E-02  5.85820E-02  6.10380E-02  6.75971E-02  7.27846E-02  7.61330E-02
   7.69083E-02  7.86054E-02  8.10639E-02  8.37801E-02
 NY background values follow
    -4.978E-02   -4.925E-02   -4.873E-02   -4.820E-02   -4.767E-02   -4.714E-02   -4.661E-02   -4.608E-02   -4.556E-02   -4.503E-02
    -4.450E-02   -4.398E-02   -4.345E-02   -4.292E-02   -4.240E-02   -4.187E-02   -4.135E-02   -4.083E-02   -4.031E-02   -3.979E-02
    -3.926E-02   -3.875E-02   -3.823E-02   -3.771E-02   -3.719E-02   -3.668E-02   -3.616E-02   -3.565E-02   -3.514E-02   -3.463E-02
    -3.412E-02   -3.361E-02   -3.310E-02   -3.260E-02   -3.210E-02   -3.159E-02   -3.109E-02   -3.060E-02   -3.010E-02   -2.960E-02
    -2.911E-02   -2.862E-02   -2.813E-02   -2.764E-02   -2.715E-02   -2.667E-02   -2.619E-02   -2.571E-02   -2.523E-02   -2.475E-02
    -2.428E-02   -2.380E-02   -2.333E-02   -2.286E-02   -2.240E-02   -2.193E-02   -2.147E-02   -2.100E-02   -2.054E-02   -2.008E-02
    -1.962E-02   -1.917E-02   -1.871E-02   -1.826E-02   -1.781E-02   -1.735E-02   -1.690E-02   -1.646E-02   -1.601E-02   -1.556E-02
