 LCModel (Version 6.3-1N) Copyright: S.W. Provencher.          Ref.: Magn. Reson. Med. 30:672-679 (1993).                
 Slice_N1@16_25  02-Jun-2023 14:36:56
 27 lines in following concentration table = NCONC+1
    Conc.  %SD /Cr+PCr  Metabolite                                         
    0.000 999%   0.000 Mac                                                 
    0.000 999%   0.000 Cr                                                  
 3.73E-02  28%   8.000 PCr                                                 
 1.87E-02  76%   4.007 Ins                                                 
 5.54E-02  21%  11.879 NAA                                                 
 6.00E-02  25%  12.874 Tau                                                 
 8.66E-03 174%   1.857 PCho                                                
 3.86E-03 398%   0.827 GPC                                                 
 6.72E-02  24%  14.404 Glu                                                 
 7.16E-04 999%   0.154 Gln                                                 
 2.88E-02  44%   6.175 Ala                                                 
    0.000 999%   0.000 Asc                                                 
 5.81E-03  64%   1.245 Asp                                                 
 3.26E-03  69%   0.700 GABA                                                
 3.11E-03  74%   0.667 Glc                                                 
 2.73E-04 999% 5.9E-02 GSH                                                 
 1.21E-02 110%   2.602 Lac                                                 
    0.000 999%   0.000 NAAG                                                
    0.000 999%   0.000 PE                                                  
 1.25E-02  32%   2.684 GPC+PCho                                            
 5.54E-02  21%  11.879 NAA+NAAG                                            
 6.79E-02  27%  14.558 Glu+Gln                                             
 3.73E-02  28%   8.000 Cr+PCr                                              
 5.54E-02  21%  11.879 NAA+NAAG                                            
 3.73E-02  28%   8.000 Cr+PCr                                              
 6.79E-02  27%  14.558 Glu+Gln                                             
   6 lines in following misc. output table
  FWHM = 0.058 ppm    S/N =   1                                            
  Data shift =-0.058 ppm                                                   
  Ph: 129 deg      15.4 deg/ppm                                            
  alphaB,S = 3.1E+01,   1.0E+02                                            
   18 spline knots.   Ns =11(1)                                            
   2 inflections.     2 extrema                                            
  654 points on ppm-axis = NY
      4.000000     3.994181     3.988363     3.982544     3.976726     3.970907     3.965088     3.959270     3.953451     3.947633
      3.941814     3.935995     3.930177     3.924358     3.918540     3.912721     3.906902     3.901084     3.895265     3.889446
      3.883628     3.877809     3.871991     3.866172     3.860353     3.854535     3.848716     3.842898     3.837079     3.831260
      3.825442     3.819623     3.813805     3.807986     3.802167     3.796349     3.790530     3.784712     3.778893     3.773074
      3.767256     3.761437     3.755619     3.749800     3.743981     3.738163     3.732344     3.726526     3.720707     3.714888
      3.709070     3.703251     3.697433     3.691614     3.685795     3.679977     3.674158     3.668339     3.662521     3.656702
      3.650884     3.645065     3.639246     3.633428     3.627609     3.621791     3.615972     3.610153     3.604335     3.598516
      3.592698     3.586879     3.581060     3.575242     3.569423     3.563605     3.557786     3.551967     3.546149     3.540330
      3.534512     3.528693     3.522874     3.517056     3.511237     3.505419     3.499600     3.493781     3.487963     3.482144
      3.476326     3.470507     3.464688     3.458870     3.453051     3.447232     3.441414     3.435595     3.429777     3.423958
      3.418139     3.412321     3.406502     3.400684     3.394865     3.389046     3.383228     3.377409     3.371591     3.365772
      3.359953     3.354135     3.348316     3.342498     3.336679     3.330860     3.325042     3.319223     3.313405     3.307586
      3.301767     3.295949     3.290130     3.284312     3.278493     3.272674     3.266856     3.261037     3.255219     3.249400
      3.243581     3.237763     3.231944     3.226125     3.220307     3.214488     3.208670     3.202851     3.197032     3.191214
      3.185395     3.179577     3.173758     3.167939     3.162121     3.156302     3.150484     3.144665     3.138846     3.133028
      3.127209     3.121391     3.115572     3.109753     3.103935     3.098116     3.092298     3.086479     3.080660     3.074842
      3.069023     3.063205     3.057386     3.051567     3.045749     3.039930     3.034111     3.028293     3.022474     3.016656
      3.010837     3.005018     2.999200     2.993381     2.987563     2.981744     2.975925     2.970107     2.964288     2.958470
      2.952651     2.946832     2.941014     2.935195     2.929377     2.923558     2.917739     2.911921     2.906102     2.900284
      2.894465     2.888646     2.882828     2.877009     2.871191     2.865372     2.859553     2.853735     2.847916     2.842098
      2.836279     2.830460     2.824642     2.818823     2.813004     2.807186     2.801367     2.795549     2.789730     2.783911
      2.778093     2.772274     2.766456     2.760637     2.754818     2.749000     2.743181     2.737363     2.731544     2.725725
      2.719907     2.714088     2.708270     2.702451     2.696632     2.690814     2.684995     2.679177     2.673358     2.667539
      2.661721     2.655902     2.650084     2.644265     2.638446     2.632628     2.626809     2.620991     2.615172     2.609353
      2.603535     2.597716     2.591897     2.586079     2.580260     2.574442     2.568623     2.562804     2.556986     2.551167
      2.545349     2.539530     2.533711     2.527893     2.522074     2.516256     2.510437     2.504618     2.498800     2.492981
      2.487163     2.481344     2.475525     2.469707     2.463888     2.458070     2.452251     2.446432     2.440614     2.434795
      2.428977     2.423158     2.417339     2.411521     2.405702     2.399884     2.394065     2.388246     2.382428     2.376609
      2.370790     2.364972     2.359153     2.353335     2.347516     2.341697     2.335879     2.330060     2.324242     2.318423
      2.312604     2.306786     2.300967     2.295149     2.289330     2.283511     2.277693     2.271874     2.266056     2.260237
      2.254418     2.248600     2.242781     2.236963     2.231144     2.225325     2.219507     2.213688     2.207870     2.202051
      2.196232     2.190414     2.184595     2.178777     2.172958     2.167139     2.161321     2.155502     2.149683     2.143865
      2.138046     2.132228     2.126409     2.120590     2.114772     2.108953     2.103135     2.097316     2.091497     2.085679
      2.079860     2.074042     2.068223     2.062404     2.056586     2.050767     2.044949     2.039130     2.033311     2.027493
      2.021674     2.015856     2.010037     2.004218     1.998400     1.992581     1.986763     1.980944     1.975126     1.969307
      1.963489     1.957670     1.951852     1.946033     1.940215     1.934397     1.928578     1.922760     1.916941     1.911123
      1.905304     1.899486     1.893667     1.887849     1.882030     1.876212     1.870393     1.864575     1.858756     1.852938
      1.847119     1.841301     1.835482     1.829664     1.823845     1.818027     1.812208     1.806390     1.800571     1.794753
      1.788934     1.783116     1.777297     1.771479     1.765660     1.759842     1.754023     1.748205     1.742386     1.736568
      1.730749     1.724931     1.719113     1.713294     1.707476     1.701657     1.695839     1.690020     1.684202     1.678383
      1.672565     1.666746     1.660928     1.655109     1.649291     1.643472     1.637654     1.631835     1.626017     1.620198
      1.614380     1.608561     1.602743     1.596924     1.591106     1.585287     1.579469     1.573650     1.567832     1.562013
      1.556195     1.550376     1.544558     1.538739     1.532921     1.527102     1.521284     1.515465     1.509647     1.503829
      1.498010     1.492192     1.486373     1.480555     1.474736     1.468918     1.463099     1.457281     1.451462     1.445644
      1.439825     1.434007     1.428188     1.422370     1.416551     1.410733     1.404914     1.399096     1.393277     1.387459
      1.381640     1.375822     1.370003     1.364185     1.358366     1.352548     1.346729     1.340911     1.335092     1.329274
      1.323455     1.317637     1.311818     1.306000     1.300182     1.294363     1.288545     1.282726     1.276908     1.271089
      1.265271     1.259452     1.253634     1.247815     1.241997     1.236178     1.230360     1.224541     1.218723     1.212904
      1.207086     1.201267     1.195449     1.189630     1.183812     1.177993     1.172175     1.166356     1.160538     1.154719
      1.148901     1.143082     1.137264     1.131445     1.125627     1.119808     1.113990     1.108171     1.102353     1.096534
      1.090716     1.084898     1.079079     1.073261     1.067442     1.061624     1.055805     1.049987     1.044168     1.038350
      1.032531     1.026713     1.020894     1.015076     1.009257     1.003439     0.997620     0.991802     0.985983     0.980165
      0.974346     0.968528     0.962709     0.956891     0.951072     0.945254     0.939435     0.933617     0.927798     0.921980
      0.916161     0.910343     0.904524     0.898706     0.892887     0.887069     0.881251     0.875432     0.869614     0.863795
      0.857977     0.852158     0.846340     0.840521     0.834703     0.828884     0.823066     0.817247     0.811429     0.805610
      0.799792     0.793973     0.788155     0.782336     0.776518     0.770699     0.764881     0.759062     0.753244     0.747425
      0.741607     0.735788     0.729970     0.724151     0.718333     0.712514     0.706696     0.700877     0.695059     0.689240
      0.683422     0.677603     0.671785     0.665967     0.660148     0.654330     0.648511     0.642693     0.636874     0.631056
      0.625237     0.619419     0.613600     0.607782     0.601963     0.596145     0.590326     0.584508     0.578689     0.572871
      0.567052     0.561234     0.555415     0.549597     0.543778     0.537960     0.532141     0.526323     0.520504     0.514686
      0.508867     0.503049     0.497230     0.491412     0.485593     0.479775     0.473956     0.468138     0.462319     0.456501
      0.450682     0.444864     0.439045     0.433227     0.427408     0.421590     0.415771     0.409953     0.404134     0.398316
      0.392497     0.386679     0.380860     0.375042     0.369223     0.363405     0.357586     0.351767     0.345949     0.340130
      0.334312     0.328493     0.322675     0.316856     0.311038     0.305219     0.299401     0.293582     0.287764     0.281945
      0.276127     0.270308     0.264490     0.258671     0.252853     0.247034     0.241216     0.235397     0.229579     0.223760
      0.217942     0.212123     0.206305     0.200486
 NY phased data points follow
  -4.75198E-01  1.48244E-01 -3.44010E-01 -4.20260E-01 -4.63205E-01 -2.00838E-02  3.03061E-01 -4.75291E-04  2.22737E-01 -3.15757E-01
   5.61280E-01  3.82656E-01  9.41550E-02  3.77566E-01  3.77627E-01  3.74488E-01  1.11593E-01  3.53067E-02  3.74730E-01  4.97446E-01
  -5.00149E-01 -1.04923E-01  3.05416E-01 -4.60377E-03 -7.61893E-02  8.74299E-02  2.07449E-01  1.59588E-01 -2.01626E-01 -5.19758E-01
  -2.90829E-01 -5.45011E-01 -1.80976E-01  1.33098E-01 -1.26952E-01 -2.27735E-01  1.50425E-01 -1.57546E-01 -5.27053E-01 -1.76072E-01
  -2.52539E-01 -2.35325E-02  3.24870E-02  1.28556E-01 -2.96249E-01 -1.78437E-01  3.90463E-01  1.75030E-01  1.78768E-01 -1.66514E-03
   5.10414E-01  3.12538E-01  1.63796E-01  2.06811E-01 -4.61599E-01  9.67244E-02  1.57819E-01  1.97422E-01  4.29896E-01 -1.89865E-01
  -2.06293E-01  1.48276E-03 -3.83372E-01 -4.89818E-01  2.80804E-02  2.86447E-01 -6.42633E-03 -1.36989E-01  1.29886E-01  4.90975E-01
   4.29498E-01 -1.83367E-01 -1.00828E-01  1.25830E-01 -3.89302E-01 -4.22967E-01  1.75124E-01 -2.59279E-01 -2.90552E-01  1.15282E-01
  -1.42921E-01  4.59706E-01  4.26595E-01  1.23977E-01  5.48853E-02  3.16950E-02  2.90614E-02  9.69201E-02  7.98602E-01  1.85617E-01
  -2.62628E-01  1.63216E-01 -7.42243E-02 -1.35109E-01  2.16778E-01  2.66795E-01 -2.66798E-01 -5.56113E-01  4.04069E-02  2.24492E-01
  -6.54060E-01 -3.93638E-01  6.45556E-02 -2.97406E-01 -1.25737E-01 -2.95605E-01  2.55725E-01  5.83941E-02 -1.06045E-01  5.90768E-01
  -7.28526E-02 -2.58171E-01 -2.59630E-01 -1.24759E-01 -4.67159E-01 -1.44428E-01  3.38149E-01  3.36203E-01  6.47026E-01  9.66448E-02
  -1.95614E-02  2.91301E-01  5.51454E-01 -1.34619E-01  1.41535E-01  7.53043E-01  6.84766E-01  1.43222E-01 -3.69831E-01 -1.06629E-01
  -6.62487E-02  3.18636E-01 -6.15036E-01 -4.19152E-01  3.08119E-02 -6.92313E-01 -4.08617E-01 -7.27619E-01 -7.82268E-01 -4.15838E-01
  -6.60419E-01 -2.99971E-01 -1.51213E-01 -2.98820E-01 -4.72601E-02 -4.17386E-01  1.82685E-01  1.99431E-01 -3.33446E-01 -3.61879E-01
  -6.36477E-01 -4.43894E-02 -2.19430E-01 -6.94200E-02  2.02639E-01 -1.56150E-01  2.37427E-01  6.26285E-02  1.25289E-01  2.40579E-01
   2.19668E-01  3.31349E-01  1.26667E-01  2.74147E-01  2.39105E-01  6.72391E-01  4.92258E-01  5.26083E-01  7.05534E-01 -1.43525E-01
   2.09621E-02  3.41983E-01  1.79003E-01 -3.08515E-01 -1.06497E-01 -7.57775E-02 -7.02367E-04  4.71972E-02 -4.59522E-01  1.99854E-04
  -1.97830E-01 -1.64090E-01 -3.59700E-01 -7.10909E-01 -1.44517E-01 -3.96721E-01 -1.97651E-01  4.21640E-02 -3.57114E-02 -1.40667E-02
  -9.61989E-02 -1.25051E-02  5.70568E-02  8.07261E-02  1.50559E-01  5.35314E-01 -4.88004E-01 -2.96817E-01  1.09576E-02 -7.76272E-01
   1.56659E-01  1.30720E-01  3.94040E-01  5.56046E-01  3.76569E-01  2.22324E-01 -3.47771E-01 -1.07646E-01  4.30743E-02 -1.27412E-02
  -6.18520E-02 -3.47305E-02 -1.95335E-01 -4.44930E-02 -1.57666E-01 -3.49899E-01  6.75629E-02  2.08767E-02 -7.28712E-01 -1.48448E-01
   8.20569E-02 -2.36209E-01  3.23910E-01  3.51046E-02 -1.94396E-01 -3.57368E-01  1.55484E-01  1.35101E-01  5.10842E-01  5.21793E-01
  -1.90599E-01  5.28328E-01  1.42158E-01  5.59023E-01  9.41582E-01  2.78076E-01  4.71311E-01  4.10688E-01  1.65247E-02  3.02131E-01
   4.97917E-02 -3.48978E-01  5.98596E-02 -2.94678E-01 -6.48402E-02 -2.51707E-02 -3.24359E-01 -4.60808E-02  9.54711E-03 -8.68973E-03
  -2.05529E-01  2.07159E-01  1.19196E-01 -9.30826E-02  8.09286E-02 -1.08020E-01 -3.90194E-03  2.44262E-03  2.36038E-02  3.55375E-01
   6.88372E-01  2.18795E-01  5.43745E-03  1.18318E-01 -2.16370E-01 -1.97439E-01 -1.63303E-01  7.88393E-02  2.35710E-01 -7.49317E-02
   3.00838E-01  2.92156E-01 -1.43020E-01  5.75078E-01  1.30283E-01 -3.24721E-01  2.15139E-01 -3.24305E-01 -3.74361E-01  1.36030E-01
  -2.96608E-01 -3.92841E-01 -2.52219E-01 -1.66909E-01  1.38124E-01 -3.41238E-01 -1.84309E-01  1.01546E-01  5.85522E-02 -1.16175E-01
  -7.99925E-02  1.00321E-01  5.53427E-01  4.76370E-01  6.92886E-01  9.00339E-01 -5.02073E-01  2.25968E-01 -1.51881E-01 -3.90442E-02
   4.09264E-02 -2.63495E-01  5.11999E-01 -8.84212E-02  4.84161E-01  2.11854E-01  3.83592E-01 -6.22492E-02 -4.49345E-02  3.79672E-01
   2.04378E-01  5.73772E-01  3.98866E-01  3.92990E-01 -6.30767E-02  1.90123E-01 -1.47626E-01  2.94655E-02  3.27068E-01 -1.70174E-02
   9.80673E-02  1.37938E-01 -3.35965E-01 -4.86407E-01 -2.35371E-01  1.02247E-01  9.78101E-02 -2.90967E-01  1.48678E-01 -4.63982E-01
  -3.00721E-01  4.45692E-02  4.95595E-02 -3.88933E-01 -1.26041E-01  2.69306E-01 -1.48570E-01  1.39034E-01 -5.96668E-01  3.29202E-02
  -4.15892E-01 -3.64783E-01 -6.41261E-02 -8.12991E-01 -3.92508E-03 -4.78813E-01 -6.48667E-01 -1.61927E-01 -6.35643E-01 -8.65586E-01
  -1.76434E-02  3.37107E-02  1.82061E-01  2.26261E-01 -2.69150E-01 -1.75425E-01 -9.53043E-02  3.12822E-01 -2.03405E-02 -3.43146E-01
  -1.12818E-01  4.64629E-01  4.34643E-01  4.22247E-02  9.26041E-02 -4.73085E-01 -1.56232E-02  4.71218E-01  1.58279E-01  3.78244E-01
  -1.48148E-01 -6.17791E-01  2.27343E-01  4.14420E-01 -1.83965E-01 -1.97967E-01 -3.52404E-01  1.72206E-01  3.63815E-01 -4.00467E-01
  -3.49954E-01 -3.58068E-01 -7.94455E-02 -4.77304E-03  3.36602E-03 -1.97183E-01 -1.78823E-01  2.97715E-01 -1.98830E-01 -2.34669E-02
   4.31895E-03  1.86174E-01  7.17904E-01  3.10659E-01  2.74193E-01  1.16009E-01 -3.47017E-01  3.02131E-02  1.93626E-01  1.96027E-01
  -1.09422E-01 -1.88533E-01  1.76419E-01 -1.02353E-01  3.11348E-01  2.48603E-01  5.04218E-01  4.03692E-03  4.94332E-02  4.62430E-01
  -3.25600E-01 -8.96762E-02 -7.77579E-01  2.43858E-01  4.50398E-01  1.00781E-02  7.55591E-02 -5.59406E-01 -2.15187E-01  2.51529E-02
   1.40107E-01 -2.80256E-01  2.10898E-01  4.83516E-01  7.76244E-01  1.00803E-02  1.58640E-01  9.84342E-02 -5.58211E-01  5.75377E-01
   1.50282E-01  7.99929E-01  2.03676E-01 -6.85985E-02  4.34566E-01  1.49923E-01  5.43603E-01  2.53554E-01  1.74735E-01 -1.14390E-01
  -1.61895E-01 -2.09783E-01  3.07787E-01  2.03717E-01  1.61297E-01  3.26821E-01 -5.68662E-01 -9.05227E-03  2.82016E-01 -1.67203E-01
  -1.19271E-01 -4.23217E-01 -3.98197E-01 -5.12288E-01  1.52068E-01  2.06638E-01 -4.40757E-01  1.84140E-01 -4.78258E-01 -4.96077E-01
  -8.46102E-02 -2.62558E-01 -2.12296E-01  6.71723E-02 -2.18885E-01 -2.03786E-01  1.95048E-01  7.89309E-02  6.48451E-01  2.99368E-01
   5.25357E-01 -1.92045E-01 -1.58383E-01  1.54145E-01 -5.25748E-01 -8.55405E-02 -4.29646E-01  1.62819E-02  1.99118E-01 -2.34941E-01
  -1.52658E-01  3.21606E-01 -1.23752E-01 -2.09112E-01 -5.65927E-02 -1.02979E-01 -8.15556E-02 -1.17847E-01 -5.29117E-02 -5.39601E-01
   1.39650E-01 -3.61958E-01 -3.01391E-02  7.34365E-01  6.53690E-02 -5.90284E-02  2.69870E-03 -3.06344E-01  3.48549E-02  7.32780E-01
  -5.04297E-01  2.97845E-02  4.35998E-01 -2.34748E-01  1.22803E-01 -1.37206E-02  2.39453E-01  7.58110E-02 -1.55576E-01 -4.25801E-02
   2.22199E-02 -2.43430E-02  6.86608E-02  6.17698E-02 -1.03112E-01  3.89033E-01  1.31185E-02  1.77351E-01  1.89075E-02 -6.44556E-01
   3.28614E-01  1.21230E-01 -5.22274E-03 -3.11457E-02  2.53609E-01  4.32804E-01 -7.06326E-02 -1.51717E-01 -3.42815E-01  8.07114E-02
  -7.22617E-02 -2.22639E-01 -7.34282E-01  8.88727E-02  1.04044E-01 -3.54723E-01  2.36860E-01 -2.83190E-01 -1.91123E-01 -4.27082E-01
   3.64659E-01 -9.63473E-02 -2.38108E-01  5.02416E-02 -2.01730E-01 -7.39741E-02 -6.28647E-01  1.60429E-01 -9.45957E-02  2.32827E-01
   3.37092E-01 -1.96974E-01  5.51806E-02  1.45171E-01 -1.47202E-01  2.70625E-01  5.14008E-01 -4.90411E-01  2.49853E-01  3.47684E-01
   3.49259E-01  1.77619E-01 -1.10215E-01  2.44749E-01  9.92228E-02  7.18210E-02 -2.07230E-01 -4.62606E-03 -8.52165E-02 -1.28382E-01
   6.04281E-02  3.07711E-01  1.97180E-01  2.25355E-01 -6.50309E-02 -7.02191E-01 -3.04859E-01 -7.99183E-02  3.84494E-01  2.41476E-01
  -2.04109E-01  3.53474E-01  1.78192E-01 -1.46742E-01 -1.42018E-01 -1.16450E-01  1.47528E-01 -1.79295E-01  1.40068E-01 -6.71207E-03
   2.67913E-02 -1.54490E-01 -5.52670E-01  5.98100E-01 -2.73391E-02 -3.49575E-01  2.17060E-01  4.42160E-02 -3.76485E-01  3.64102E-04
  -9.49607E-02 -5.12450E-01  6.60136E-02 -3.49544E-01 -5.93054E-02  1.15494E-01 -4.08336E-02 -4.07922E-02 -1.85103E-01  6.97028E-02
  -3.18136E-02  5.75604E-02  2.22612E-01 -5.53011E-01 -2.33631E-01  4.62820E-01 -1.32096E-01 -9.41272E-02 -4.38962E-01 -2.69146E-01
   4.78727E-02 -3.50558E-01  9.38770E-03  7.32802E-01  5.50640E-02 -3.83045E-01  1.03113E-01 -1.76029E-01  1.63474E-01  3.39368E-01
   3.06616E-01 -2.17881E-01 -4.37243E-02  3.07882E-01  1.83789E-01  5.11568E-02 -4.25852E-01 -2.56324E-02 -2.54802E-01  1.87518E-01
   2.79517E-01 -8.61903E-02  4.51197E-01  2.44914E-01 -3.72614E-02  2.03832E-01  5.48899E-01  1.43109E-01  1.15622E-01  1.70955E-01
  -1.12310E-01  1.25777E-02  1.34745E-01  2.91305E-01
 NY points of the fit to the data follow
   1.05662E-03 -1.21499E-02 -2.69991E-02 -3.77298E-02 -4.17105E-02 -3.77082E-02 -2.53218E-02 -5.00280E-03  2.20627E-02  5.37105E-02
   8.79565E-02  1.22733E-01  1.55920E-01  1.84860E-01  2.06977E-01  2.20520E-01  2.24795E-01  2.19756E-01  2.05229E-01  1.81668E-01
   1.51788E-01  1.19955E-01  9.00349E-02  6.49237E-02  4.63062E-02  3.45798E-02  2.55876E-02  1.57857E-02  5.57757E-03 -5.52461E-03
  -1.65519E-02 -2.83690E-02 -4.18433E-02 -5.67017E-02 -7.23547E-02 -8.58187E-02 -9.39376E-02 -9.44453E-02 -8.59526E-02 -6.82643E-02
  -4.19485E-02 -8.48907E-03  3.00156E-02  7.10839E-02  1.11796E-01  1.49341E-01  1.81086E-01  2.04719E-01  2.18508E-01  2.21652E-01
   2.13916E-01  1.96493E-01  1.71121E-01  1.40765E-01  1.09570E-01  8.16507E-02  5.70467E-02  3.70311E-02  2.17498E-02  9.64710E-03
   8.66042E-04 -4.09782E-03 -4.74907E-03 -7.94315E-04  7.57672E-03  1.98375E-02  3.50949E-02  5.24155E-02  7.08626E-02  8.99188E-02
   1.07673E-01  1.21135E-01  1.29877E-01  1.32870E-01  1.28539E-01  1.17418E-01  1.01112E-01  8.16070E-02  6.07512E-02  4.12343E-02
   2.57229E-02  1.50878E-02  1.04319E-02  1.20747E-02  1.93250E-02  3.15558E-02  4.89324E-02  7.04672E-02  9.44448E-02  1.15822E-01
   1.29050E-01  1.28703E-01  1.11288E-01  7.74899E-02  3.12873E-02 -2.21795E-02 -7.82040E-02 -1.31405E-01 -1.76941E-01 -2.11331E-01
  -2.31668E-01 -2.35981E-01 -2.23586E-01 -1.95147E-01 -1.52584E-01 -9.90597E-02 -3.89449E-02  2.23528E-02  7.89617E-02  1.25772E-01
   1.59488E-01  1.80023E-01  1.90012E-01  1.93137E-01  1.92821E-01  1.92712E-01  1.93519E-01  1.99151E-01  2.07410E-01  2.22080E-01
   2.36199E-01  2.46140E-01  2.46077E-01  2.31944E-01  2.05993E-01  1.79668E-01  1.48046E-01  1.05899E-01  5.12401E-02 -1.56145E-02
  -9.23318E-02 -1.74674E-01 -2.57274E-01 -3.34339E-01 -4.00986E-01 -4.53366E-01 -4.88699E-01 -5.04805E-01 -5.01919E-01 -4.83040E-01
  -4.51810E-01 -4.12766E-01 -3.64895E-01 -3.09602E-01 -2.47151E-01 -1.84231E-01 -1.25192E-01 -7.52106E-02 -3.86126E-02 -1.65463E-02
  -1.13018E-03  1.09235E-02  2.07824E-02  2.88575E-02  3.49574E-02  3.78512E-02  4.21780E-02  6.14630E-02  9.38258E-02  1.34117E-01
   1.76961E-01  2.16773E-01  2.48268E-01  2.67418E-01  2.71604E-01  2.59743E-01  2.31572E-01  1.87854E-01  1.30485E-01  6.34360E-02
  -8.01141E-03 -7.85603E-02 -1.43857E-01 -1.99743E-01 -2.40563E-01 -2.61459E-01 -2.62201E-01 -2.46700E-01 -2.20221E-01 -1.89142E-01
  -1.61276E-01 -1.41759E-01 -1.26565E-01 -1.14132E-01 -1.03722E-01 -9.50327E-02 -8.76796E-02 -8.14970E-02 -7.62121E-02 -7.16397E-02
  -6.76731E-02 -6.43202E-02 -6.14130E-02 -5.86386E-02 -5.58521E-02 -5.30491E-02 -5.04197E-02 -4.79059E-02 -4.52264E-02 -4.22831E-02
  -3.91174E-02 -3.58363E-02 -3.26052E-02 -2.96217E-02 -2.70885E-02 -2.51555E-02 -2.39084E-02 -2.33927E-02 -2.36470E-02 -2.46714E-02
  -2.63499E-02 -2.84803E-02 -3.09095E-02 -3.37366E-02 -3.83911E-02 -4.45475E-02 -5.03716E-02 -5.41759E-02 -5.52434E-02 -5.49962E-02
  -5.33996E-02 -4.79219E-02 -3.75588E-02 -2.19639E-02 -1.47129E-03  2.28326E-02  4.92155E-02  7.54987E-02  9.95969E-02  1.19824E-01
   1.34811E-01  1.43212E-01  1.43893E-01  1.36829E-01  1.23284E-01  1.05036E-01  8.36094E-02  6.03222E-02  3.70087E-02  1.49668E-02
  -4.71422E-03 -2.09491E-02 -3.28139E-02 -4.00490E-02 -4.42146E-02 -4.72914E-02 -5.23178E-02 -5.87594E-02 -6.55698E-02 -7.42802E-02
  -8.39930E-02 -9.38713E-02 -1.01927E-01 -1.07690E-01 -1.10521E-01 -1.09052E-01 -1.02516E-01 -9.06767E-02 -7.39896E-02 -5.34184E-02
  -3.01746E-02 -5.77703E-03  1.81063E-02  3.94639E-02  5.64943E-02  6.82899E-02  7.44244E-02  7.44837E-02  6.90795E-02  5.94286E-02
   4.80547E-02  3.40348E-02  1.73812E-02 -1.09370E-03 -2.49186E-02 -5.49634E-02 -9.15772E-02 -1.33390E-01 -1.76194E-01 -2.15758E-01
  -2.47631E-01 -2.68004E-01 -2.74345E-01 -2.64895E-01 -2.39800E-01 -2.00098E-01 -1.48134E-01 -8.72348E-02 -2.14388E-02  4.45633E-02
   1.06065E-01  1.58712E-01  1.98754E-01  2.24140E-01  2.34543E-01  2.32249E-01  2.20808E-01  2.04538E-01  1.87847E-01  1.72700E-01
   1.60251E-01  1.50397E-01  1.41857E-01  1.34084E-01  1.26721E-01  1.19714E-01  1.13328E-01  1.07635E-01  1.02988E-01  9.91260E-02
   9.58253E-02  9.26093E-02  8.86687E-02  8.34522E-02  7.56369E-02  6.42697E-02  4.84119E-02  2.81942E-02  4.23852E-03 -2.18049E-02
  -4.75815E-02 -7.11770E-02 -8.96072E-02 -1.02787E-01 -1.08861E-01 -1.09377E-01 -1.04466E-01 -9.63165E-02 -8.63515E-02 -7.63489E-02
  -6.68676E-02 -4.86668E-02 -1.92709E-02  5.84243E-03  1.68400E-02  8.63797E-03 -2.05376E-02 -6.91275E-02 -1.32775E-01 -2.05625E-01
  -2.81669E-01 -3.55966E-01 -4.23907E-01 -4.80901E-01 -5.22018E-01 -5.43351E-01 -5.43672E-01 -5.22543E-01 -4.80741E-01 -4.17664E-01
  -3.38684E-01 -2.53486E-01 -1.72968E-01 -1.05050E-01 -5.54442E-02 -2.73862E-02 -1.46439E-02 -7.23014E-03 -2.81732E-03 -4.44851E-04
   4.39084E-04  2.43647E-04 -6.79879E-04 -2.01751E-03 -3.47059E-03 -4.77931E-03 -5.71895E-03 -6.12329E-03 -5.90023E-03 -5.03945E-03
  -3.61457E-03 -1.78371E-03  2.81638E-04  2.35032E-03  4.28833E-03  5.95894E-03  7.31589E-03  8.39273E-03  9.19917E-03  9.82967E-03
   1.03173E-02  1.07121E-02  1.10392E-02  1.13138E-02  1.15465E-02  1.17453E-02  1.19162E-02  1.20642E-02  1.21932E-02  1.23064E-02
   1.24066E-02  1.24959E-02  1.25762E-02  1.26490E-02  1.27156E-02  1.27774E-02  1.28353E-02  1.28905E-02  1.29441E-02  1.29972E-02
   1.30510E-02  1.31068E-02  1.31659E-02  1.32295E-02  1.32988E-02  1.33753E-02  1.34602E-02  1.35550E-02  1.36609E-02  1.37791E-02
   1.39107E-02  1.40570E-02  1.42190E-02  1.43978E-02  1.45937E-02  1.48060E-02  1.50319E-02  1.52648E-02  1.54898E-02  1.56741E-02
   1.57412E-02  1.54860E-02  1.41647E-02  8.11799E-03  1.56121E-03 -5.58322E-03 -8.13636E-03 -2.24313E-03  1.30183E-02  3.72336E-02
   6.86390E-02  1.04595E-01  1.42249E-01  1.78467E-01  2.10471E-01  2.35398E-01  2.50938E-01  2.55465E-01  2.48420E-01  2.30285E-01
   2.02030E-01  1.65679E-01  1.24537E-01  8.27616E-02  4.46880E-02  1.42080E-02 -6.69785E-03 -1.77434E-02 -2.27417E-02 -2.33180E-02
  -2.51626E-02 -2.82335E-02 -3.33224E-02 -3.84006E-02 -4.15572E-02 -4.16507E-02 -3.79321E-02 -3.02342E-02 -1.88777E-02 -4.46550E-03
   1.20715E-02  2.97421E-02  4.72863E-02  6.34186E-02  7.68827E-02  8.66922E-02  9.22078E-02  9.29403E-02  8.87978E-02  8.02878E-02
   6.85572E-02  5.52676E-02  4.23655E-02  3.14183E-02  2.35542E-02  1.80861E-02  1.49983E-02  1.28723E-02  1.12687E-02  9.99971E-03
   8.96408E-03  8.10000E-03  7.36658E-03  6.73542E-03  6.18603E-03  5.70326E-03  5.27549E-03  4.89375E-03  4.55094E-03  4.24116E-03
   3.95964E-03  3.70262E-03  3.46713E-03  3.25080E-03  3.05166E-03  2.86809E-03  2.69867E-03  2.54205E-03  2.39700E-03  2.26225E-03
   2.13693E-03  2.02038E-03  1.91189E-03  1.81086E-03  1.71671E-03  1.62891E-03  1.54710E-03  1.47102E-03  1.40033E-03  1.33469E-03
   1.27402E-03  1.21826E-03  1.16721E-03  1.12089E-03  1.07932E-03  1.04233E-03  1.00977E-03  9.81398E-04  9.56982E-04  9.36418E-04
   9.19581E-04  9.06326E-04  8.96524E-04  8.90154E-04  8.86825E-04  8.86495E-04  8.89333E-04  8.95447E-04  9.04857E-04  9.17549E-04
   9.33454E-04  9.52731E-04  9.75716E-04  1.00256E-03  1.03314E-03  1.06747E-03  1.10550E-03  1.14713E-03  1.19237E-03  1.24116E-03
   1.29348E-03  1.34939E-03  1.40888E-03  1.47188E-03  1.53844E-03  1.60869E-03  1.68282E-03  1.76099E-03  1.84333E-03  1.93003E-03
   2.02125E-03  2.11722E-03  2.21800E-03  2.32356E-03  2.43389E-03  2.54895E-03  2.66866E-03  2.79299E-03  2.92206E-03  3.05591E-03
   3.19451E-03  3.33786E-03  3.48600E-03  3.63919E-03  3.79768E-03  3.96169E-03  4.13147E-03  4.30712E-03  4.48903E-03  4.67749E-03
   4.87273E-03  5.07509E-03  5.28490E-03  5.50216E-03  5.72669E-03  5.95839E-03  6.19730E-03  6.44338E-03  6.69661E-03  6.95709E-03
   7.22505E-03  7.50073E-03  7.78449E-03  8.07685E-03  8.37843E-03  8.68978E-03  9.01128E-03  9.34319E-03  9.68586E-03  1.00396E-02
   1.04046E-02  1.07809E-02  1.11687E-02  1.15683E-02  1.19797E-02  1.24032E-02  1.28391E-02  1.32880E-02  1.37503E-02  1.42265E-02
   1.47170E-02  1.52224E-02  1.57434E-02  1.62806E-02  1.68347E-02  1.74062E-02  1.79956E-02  1.86033E-02  1.92297E-02  1.98756E-02
   2.05422E-02  2.12300E-02  2.19403E-02  2.26739E-02  2.34321E-02  2.42157E-02  2.50256E-02  2.58630E-02  2.67289E-02  2.76242E-02
   2.85506E-02  2.95095E-02  3.05024E-02  3.15309E-02  3.25966E-02  3.37011E-02  3.48458E-02  3.60327E-02  3.72639E-02  3.85417E-02
   3.98684E-02  4.12466E-02  4.26790E-02  4.41684E-02  4.57179E-02  4.73306E-02  4.90102E-02  5.07602E-02  5.25851E-02  5.44894E-02
   5.64781E-02  5.85566E-02  6.07304E-02  6.30051E-02  6.53869E-02  6.78824E-02  7.04993E-02  7.32460E-02  7.61316E-02  7.91658E-02
   8.23599E-02  8.57257E-02  8.92764E-02  9.30265E-02
 NY background values follow
     2.764E-02    2.748E-02    2.732E-02    2.716E-02    2.700E-02    2.684E-02    2.667E-02    2.651E-02    2.635E-02    2.619E-02
     2.603E-02    2.587E-02    2.571E-02    2.555E-02    2.539E-02    2.523E-02    2.507E-02    2.491E-02    2.475E-02    2.459E-02
     2.443E-02    2.427E-02    2.411E-02    2.395E-02    2.379E-02    2.363E-02    2.347E-02    2.331E-02    2.315E-02    2.299E-02
     2.283E-02    2.267E-02    2.251E-02    2.235E-02    2.219E-02    2.203E-02    2.187E-02    2.171E-02    2.155E-02    2.139E-02
     2.122E-02    2.106E-02    2.090E-02    2.074E-02    2.058E-02    2.042E-02    2.026E-02    2.010E-02    1.994E-02    1.978E-02
     1.962E-02    1.946E-02    1.930E-02    1.914E-02    1.898E-02    1.882E-02    1.866E-02    1.850E-02    1.834E-02    1.818E-02
     1.802E-02    1.786E-02    1.770E-02    1.754E-02    1.738E-02    1.722E-02    1.706E-02    1.690E-02    1.674E-02    1.658E-02
