 
 $NMID
 ID=''
 FMTDAT='(2E13.5)'
 TRAMP=   1.00000E+0
 VOLUME=   1.00000E+0
 $END
  -1.03312E+4   1.36146E+4
  -3.51232E+4   2.62636E+4
  -2.94865E+4   3.24050E+4
  -2.65296E+4   3.03135E+4
  -2.80607E+4   3.09108E+4
  -2.61751E+4   3.25052E+4
  -2.48386E+4   3.13906E+4
  -2.53640E+4   3.14353E+4
  -2.40454E+4   3.24142E+4
  -2.30806E+4   3.17707E+4
  -2.32260E+4   3.16174E+4
  -2.20507E+4   3.21806E+4
  -2.10057E+4   3.18794E+4
  -2.10923E+4   3.18680E+4
  -2.02016E+4   3.22224E+4
  -1.91796E+4   3.18825E+4
  -1.90582E+4   3.19385E+4
  -1.81483E+4   3.22777E+4
  -1.72207E+4   3.21237E+4
  -1.69021E+4   3.21701E+4
  -1.61253E+4   3.23444E+4
  -1.52675E+4   3.23117E+4
  -1.49140E+4   3.24408E+4
  -1.43158E+4   3.24452E+4
  -1.34503E+4   3.21660E+4
  -1.30835E+4   3.22306E+4
  -1.24840E+4   3.22805E+4
  -1.18391E+4   3.19717E+4
  -1.15011E+4   3.18229E+4
  -1.07917E+4   3.18176E+4
  -9.99843E+3   3.15133E+4
  -9.39156E+3   3.15121E+4
  -8.89833E+3   3.14959E+4
  -8.04949E+3   3.12191E+4
  -7.52226E+3   3.11822E+4
  -6.81557E+3   3.12388E+4
  -6.09330E+3   3.10202E+4
  -5.34707E+3   3.09768E+4
  -4.77999E+3   3.10180E+4
  -4.12220E+3   3.08830E+4
  -3.49805E+3   3.08126E+4
  -3.07558E+3   3.07496E+4
  -2.62157E+3   3.05136E+4
  -2.07752E+3   3.03770E+4
  -1.45614E+3   3.02098E+4
  -9.90773E+2   3.00355E+4
  -4.87130E+2   2.98698E+4
   1.53999E+1   2.97258E+4
   5.45174E+2   2.95797E+4
   9.92677E+2   2.93929E+4
   1.41579E+3   2.91631E+4
   2.03286E+3   2.88579E+4
   2.52329E+3   2.86053E+4
   3.07661E+3   2.83526E+4
   3.62149E+3   2.82082E+4
   4.00210E+3   2.79381E+4
   4.40280E+3   2.76824E+4
   4.72643E+3   2.73016E+4
   5.22605E+3   2.70600E+4
   5.61629E+3   2.66628E+4
   6.08730E+3   2.62986E+4
   6.51640E+3   2.59834E+4
   6.94811E+3   2.56555E+4
   7.39651E+3   2.53619E+4
   7.74340E+3   2.50134E+4
   8.14469E+3   2.46154E+4
   8.61615E+3   2.43313E+4
   9.07630E+3   2.39297E+4
   9.38310E+3   2.35663E+4
   9.78697E+3   2.32821E+4
   1.01023E+4   2.28642E+4
   1.05015E+4   2.24606E+4
   1.08157E+4   2.20533E+4
   1.12245E+4   2.15949E+4
   1.15566E+4   2.12743E+4
   1.19243E+4   2.08898E+4
   1.23088E+4   2.05319E+4
   1.24999E+4   2.01599E+4
   1.29016E+4   1.97509E+4
   1.32156E+4   1.92916E+4
   1.35115E+4   1.89653E+4
   1.37506E+4   1.86432E+4
   1.41123E+4   1.82705E+4
   1.44025E+4   1.78018E+4
   1.45904E+4   1.74859E+4
   1.47856E+4   1.71194E+4
   1.50272E+4   1.66692E+4
   1.52833E+4   1.62816E+4
   1.55301E+4   1.58207E+4
   1.57480E+4   1.55507E+4
   1.59326E+4   1.52008E+4
   1.61648E+4   1.48090E+4
   1.63673E+4   1.44227E+4
   1.65092E+4   1.40509E+4
   1.66797E+4   1.37332E+4
   1.69178E+4   1.32761E+4
   1.70523E+4   1.28945E+4
   1.72125E+4   1.25629E+4
   1.73489E+4   1.23093E+4
   1.74581E+4   1.19330E+4
   1.74985E+4   1.15848E+4
   1.76797E+4   1.12120E+4
   1.78071E+4   1.08596E+4
   1.79232E+4   1.05736E+4
   1.79393E+4   1.02191E+4
   1.81143E+4   9.83786E+3
   1.81122E+4   9.50621E+3
   1.82089E+4   9.22287E+3
   1.82671E+4   8.83619E+3
   1.82687E+4   8.56698E+3
   1.82941E+4   8.24826E+3
   1.84619E+4   7.87333E+3
   1.84316E+4   7.60108E+3
   1.84796E+4   7.32243E+3
   1.85098E+4   7.04438E+3
   1.84801E+4   6.84970E+3
   1.85547E+4   6.49020E+3
   1.84499E+4   6.19402E+3
   1.84872E+4   5.84225E+3
   1.84236E+4   5.53639E+3
   1.84652E+4   5.29921E+3
   1.83692E+4   5.04301E+3
   1.82656E+4   4.73581E+3
   1.81728E+4   4.44800E+3
   1.81427E+4   4.14627E+3
   1.81130E+4   3.88265E+3
   1.80603E+4   3.64593E+3
   1.80026E+4   3.31764E+3
   1.79656E+4   3.07793E+3
   1.78167E+4   2.85505E+3
   1.77473E+4   2.62187E+3
   1.76604E+4   2.33551E+3
   1.75608E+4   2.05619E+3
   1.74432E+4   1.75898E+3
   1.72908E+4   1.58992E+3
   1.71551E+4   1.35341E+3
   1.70699E+4   1.03535E+3
   1.68568E+4   8.79406E+2
   1.66954E+4   5.75330E+2
   1.65937E+4   4.18969E+2
   1.64356E+4   8.18663E+1
   1.63447E+4  -1.59706E+2
   1.61908E+4  -4.24916E+2
   1.61274E+4  -5.89279E+2
   1.58951E+4  -7.58892E+2
   1.57432E+4  -1.09271E+3
   1.55419E+4  -1.36429E+3
   1.54692E+4  -1.56535E+3
   1.52555E+4  -1.71545E+3
   1.51029E+4  -1.98957E+3
   1.49378E+4  -2.12354E+3
   1.48022E+4  -2.36778E+3
   1.45948E+4  -2.55900E+3
   1.43699E+4  -2.71610E+3
   1.42677E+4  -2.88330E+3
   1.41128E+4  -3.14919E+3
   1.38694E+4  -3.25819E+3
   1.38046E+4  -3.41903E+3
   1.35243E+4  -3.56169E+3
   1.34257E+4  -3.79280E+3
   1.32168E+4  -3.97835E+3
   1.31295E+4  -4.10686E+3
   1.28749E+4  -4.31436E+3
   1.27330E+4  -4.37617E+3
   1.25572E+4  -4.60079E+3
   1.23735E+4  -4.69599E+3
   1.21221E+4  -4.86066E+3
   1.19697E+4  -4.97585E+3
   1.18248E+4  -5.14751E+3
   1.16691E+4  -5.29899E+3
   1.14575E+4  -5.43499E+3
   1.13149E+4  -5.49830E+3
   1.10489E+4  -5.54652E+3
   1.09385E+4  -5.74768E+3
   1.06873E+4  -5.78191E+3
   1.05618E+4  -5.96715E+3
   1.04367E+4  -6.09287E+3
   1.02238E+4  -6.11732E+3
   1.00165E+4  -6.24562E+3
   9.85328E+3  -6.37242E+3
   9.64540E+3  -6.41084E+3
   9.47742E+3  -6.52079E+3
   9.29580E+3  -6.58102E+3
   9.09885E+3  -6.69393E+3
   8.93628E+3  -6.73583E+3
   8.86700E+3  -6.78955E+3
   8.57096E+3  -6.82948E+3
   8.44511E+3  -6.91602E+3
   8.30094E+3  -6.95572E+3
   8.10812E+3  -7.10145E+3
   7.97167E+3  -7.14515E+3
   7.72452E+3  -7.16436E+3
   7.63450E+3  -7.27471E+3
   7.42345E+3  -7.25537E+3
   7.30603E+3  -7.26818E+3
   7.13694E+3  -7.35364E+3
   6.99651E+3  -7.39018E+3
   6.83170E+3  -7.38255E+3
   6.70374E+3  -7.43188E+3
   6.53067E+3  -7.40691E+3
   6.38500E+3  -7.55212E+3
   6.26112E+3  -7.46685E+3
   6.13511E+3  -7.49714E+3
   6.01942E+3  -7.50868E+3
   5.80955E+3  -7.54075E+3
   5.65635E+3  -7.49956E+3
   5.53003E+3  -7.53986E+3
   5.39949E+3  -7.53855E+3
   5.24060E+3  -7.51580E+3
   5.03573E+3  -7.59697E+3
   5.01799E+3  -7.53472E+3
   4.83573E+3  -7.56709E+3
   4.75904E+3  -7.50379E+3
   4.55491E+3  -7.55571E+3
   4.46706E+3  -7.49904E+3
   4.34197E+3  -7.52977E+3
   4.26986E+3  -7.48515E+3
   4.12094E+3  -7.41122E+3
   3.91352E+3  -7.45960E+3
   3.82901E+3  -7.45004E+3
   3.69550E+3  -7.40413E+3
   3.61034E+3  -7.45468E+3
   3.54421E+3  -7.38386E+3
   3.39736E+3  -7.41325E+3
   3.30337E+3  -7.42962E+3
   3.23163E+3  -7.32509E+3
   3.13865E+3  -7.33881E+3
   3.01742E+3  -7.31060E+3
   2.87253E+3  -7.27152E+3
   2.79406E+3  -7.24661E+3
   2.67472E+3  -7.23188E+3
   2.55488E+3  -7.18791E+3
   2.48269E+3  -7.12338E+3
   2.35745E+3  -7.09618E+3
   2.27962E+3  -7.08978E+3
   2.23758E+3  -6.98421E+3
   2.11300E+3  -7.01992E+3
   2.03554E+3  -6.99291E+3
   2.03132E+3  -6.99668E+3
   1.85158E+3  -6.85455E+3
   1.81024E+3  -6.91281E+3
   1.73792E+3  -6.80811E+3
   1.62759E+3  -6.79176E+3
   1.52164E+3  -6.69516E+3
   1.49744E+3  -6.74573E+3
   1.39135E+3  -6.71895E+3
   1.35131E+3  -6.64533E+3
   1.26202E+3  -6.59256E+3
   1.15841E+3  -6.58234E+3
   1.10072E+3  -6.48559E+3
   1.05169E+3  -6.43918E+3
   9.61189E+2  -6.40383E+3
   8.84263E+2  -6.36480E+3
   8.38132E+2  -6.24467E+3
   7.88060E+2  -6.21839E+3
   7.16049E+2  -6.21350E+3
   6.28882E+2  -6.17078E+3
   5.75932E+2  -6.06904E+3
   4.91601E+2  -6.08681E+3
   4.55655E+2  -6.02169E+3
   4.21576E+2  -5.94992E+3
   3.74493E+2  -5.89599E+3
   3.23557E+2  -5.84582E+3
   3.07618E+2  -5.76525E+3
   2.48721E+2  -5.77075E+3
   2.17002E+2  -5.73385E+3
   1.24771E+2  -5.63391E+3
   4.48230E+1  -5.63891E+3
   8.64359E+1  -5.59095E+3
  -3.21682E+1  -5.56741E+3
  -6.92465E+1  -5.43947E+3
  -7.38647E+1  -5.41262E+3
  -1.09908E+2  -5.36370E+3
  -1.22058E+2  -5.32298E+3
  -2.68003E+2  -5.26706E+3
  -2.22274E+2  -5.27191E+3
  -2.81209E+2  -5.18612E+3
  -2.52027E+2  -5.10623E+3
  -3.37115E+2  -5.04191E+3
  -3.12697E+2  -5.00088E+3
  -4.64249E+2  -4.94262E+3
  -3.71991E+2  -4.88416E+3
  -4.96836E+2  -4.86793E+3
  -5.30126E+2  -4.84612E+3
  -5.01277E+2  -4.78156E+3
  -5.52812E+2  -4.68491E+3
  -5.24438E+2  -4.72999E+3
  -5.70690E+2  -4.64888E+3
  -6.41923E+2  -4.55764E+3
  -5.79389E+2  -4.56892E+3
  -6.84935E+2  -4.53581E+3
  -6.82697E+2  -4.48997E+3
  -7.17137E+2  -4.39362E+3
  -7.50541E+2  -4.34034E+3
  -7.32337E+2  -4.33614E+3
  -7.73649E+2  -4.27506E+3
  -7.72447E+2  -4.22948E+3
  -7.99359E+2  -4.18147E+3
  -8.13320E+2  -4.14725E+3
  -8.53917E+2  -4.02453E+3
  -8.44782E+2  -4.06541E+3
  -8.77603E+2  -3.97931E+3
  -8.86371E+2  -3.99589E+3
  -9.29378E+2  -3.92180E+3
  -9.70413E+2  -3.82907E+3
  -9.34236E+2  -3.80808E+3
  -9.72805E+2  -3.82179E+3
  -9.72387E+2  -3.75805E+3
  -9.86976E+2  -3.74965E+3
  -9.82236E+2  -3.67268E+3
  -9.68669E+2  -3.65573E+3
  -1.04754E+3  -3.56475E+3
  -9.93918E+2  -3.57012E+3
  -1.02357E+3  -3.55657E+3
  -1.04351E+3  -3.47590E+3
  -1.02587E+3  -3.47791E+3
  -1.04281E+3  -3.41048E+3
  -1.07627E+3  -3.41559E+3
  -1.12549E+3  -3.34826E+3
  -1.11443E+3  -3.26910E+3
  -1.10873E+3  -3.28066E+3
  -1.13213E+3  -3.23072E+3
  -1.16959E+3  -3.18857E+3
  -1.08699E+3  -3.12450E+3
  -1.10007E+3  -3.19562E+3
  -1.11086E+3  -3.02856E+3
  -1.13718E+3  -3.06967E+3
  -1.13232E+3  -3.06911E+3
  -1.12909E+3  -2.95163E+3
  -1.18534E+3  -2.92902E+3
  -1.19323E+3  -2.96505E+3
  -1.18734E+3  -2.88357E+3
  -1.13282E+3  -2.89676E+3
  -1.21249E+3  -2.83653E+3
  -1.13438E+3  -2.80140E+3
  -1.16898E+3  -2.73701E+3
  -1.19058E+3  -2.70447E+3
  -1.17719E+3  -2.68448E+3
  -1.19489E+3  -2.69351E+3
  -1.15792E+3  -2.64868E+3
  -1.20658E+3  -2.56466E+3
  -1.18465E+3  -2.57965E+3
  -1.16763E+3  -2.55910E+3
  -1.19343E+3  -2.51879E+3
  -1.18101E+3  -2.47150E+3
  -1.18697E+3  -2.48885E+3
  -1.17853E+3  -2.43780E+3
  -1.23231E+3  -2.37244E+3
  -1.20256E+3  -2.36988E+3
  -1.21663E+3  -2.39773E+3
  -1.13216E+3  -2.36176E+3
  -1.16660E+3  -2.27798E+3
  -1.18637E+3  -2.30248E+3
  -1.10844E+3  -2.25995E+3
  -1.19120E+3  -2.28155E+3
  -1.22193E+3  -2.18588E+3
  -1.19749E+3  -2.21157E+3
  -1.23120E+3  -2.15389E+3
  -1.23610E+3  -2.15078E+3
  -1.17729E+3  -2.20797E+3
  -1.18513E+3  -2.10416E+3
  -1.19110E+3  -2.06499E+3
  -1.24133E+3  -2.07040E+3
  -1.15583E+3  -2.07754E+3
  -1.17149E+3  -1.97996E+3
  -1.20050E+3  -2.02060E+3
  -1.24105E+3  -1.99981E+3
