 
 $NMID
 ID=''
 FMTDAT='(2E13.5)'
 TRAMP=   1.00000E+0
 VOLUME=   1.00000E+0
 $END
  -1.24115E+4   1.68618E+4
  -4.29909E+4   3.25834E+4
  -3.64645E+4   3.95217E+4
  -3.35995E+4   3.66987E+4
  -3.59715E+4   3.72542E+4
  -3.42817E+4   3.89350E+4
  -3.30851E+4   3.71220E+4
  -3.41717E+4   3.68993E+4
  -3.30936E+4   3.78317E+4
  -3.23883E+4   3.66059E+4
  -3.30384E+4   3.62061E+4
  -3.21672E+4   3.67048E+4
  -3.15204E+4   3.60885E+4
  -3.23053E+4   3.58595E+4
  -3.16035E+4   3.62521E+4
  -3.09421E+4   3.57059E+4
  -3.13543E+4   3.56345E+4
  -3.07236E+4   3.59411E+4
  -3.01591E+4   3.55980E+4
  -3.04512E+4   3.55083E+4
  -2.98501E+4   3.56684E+4
  -2.91858E+4   3.54705E+4
  -2.94378E+4   3.55417E+4
  -2.90812E+4   3.56261E+4
  -2.86216E+4   3.53444E+4
  -2.84564E+4   3.53307E+4
  -2.81969E+4   3.54403E+4
  -2.79222E+4   3.50738E+4
  -2.78328E+4   3.48402E+4
  -2.75590E+4   3.48320E+4
  -2.70236E+4   3.45351E+4
  -2.69003E+4   3.44923E+4
  -2.67214E+4   3.43939E+4
  -2.63699E+4   3.40423E+4
  -2.61574E+4   3.40015E+4
  -2.57729E+4   3.39148E+4
  -2.54414E+4   3.36288E+4
  -2.50399E+4   3.35858E+4
  -2.46587E+4   3.35478E+4
  -2.43435E+4   3.34967E+4
  -2.41603E+4   3.33949E+4
  -2.39972E+4   3.33140E+4
  -2.37160E+4   3.30012E+4
  -2.34262E+4   3.28776E+4
  -2.30837E+4   3.28291E+4
  -2.27562E+4   3.27449E+4
  -2.25974E+4   3.26594E+4
  -2.22859E+4   3.25753E+4
  -2.20146E+4   3.25085E+4
  -2.18302E+4   3.23733E+4
  -2.15425E+4   3.21955E+4
  -2.11363E+4   3.21630E+4
  -2.08240E+4   3.19491E+4
  -2.04376E+4   3.19604E+4
  -2.01907E+4   3.18040E+4
  -1.98959E+4   3.18653E+4
  -1.96583E+4   3.17029E+4
  -1.94079E+4   3.16622E+4
  -1.91098E+4   3.15338E+4
  -1.87906E+4   3.14293E+4
  -1.84217E+4   3.13398E+4
  -1.81804E+4   3.12314E+4
  -1.78843E+4   3.12014E+4
  -1.76870E+4   3.10641E+4
  -1.74538E+4   3.09506E+4
  -1.71422E+4   3.08860E+4
  -1.68817E+4   3.08618E+4
  -1.66456E+4   3.07944E+4
  -1.63827E+4   3.06120E+4
  -1.61865E+4   3.04546E+4
  -1.59651E+4   3.03730E+4
  -1.57550E+4   3.01949E+4
  -1.55017E+4   3.01753E+4
  -1.52967E+4   2.99861E+4
  -1.49989E+4   2.99351E+4
  -1.47725E+4   2.98462E+4
  -1.45471E+4   2.97911E+4
  -1.43827E+4   2.96890E+4
  -1.41247E+4   2.95199E+4
  -1.39181E+4   2.94792E+4
  -1.36722E+4   2.93948E+4
  -1.35515E+4   2.92932E+4
  -1.33256E+4   2.91453E+4
  -1.32226E+4   2.90535E+4
  -1.31136E+4   2.89616E+4
  -1.30889E+4   2.87728E+4
  -1.28075E+4   2.85848E+4
  -1.26484E+4   2.84910E+4
  -1.24329E+4   2.83681E+4
  -1.23050E+4   2.83715E+4
  -1.22099E+4   2.81586E+4
  -1.19829E+4   2.79928E+4
  -1.18643E+4   2.79386E+4
  -1.17193E+4   2.78901E+4
  -1.15511E+4   2.77022E+4
  -1.14077E+4   2.75313E+4
  -1.12627E+4   2.73638E+4
  -1.10528E+4   2.73262E+4
  -1.09002E+4   2.71842E+4
  -1.07774E+4   2.70778E+4
  -1.06197E+4   2.69182E+4
  -1.05051E+4   2.67266E+4
  -1.03157E+4   2.66448E+4
  -1.02079E+4   2.66306E+4
  -1.00827E+4   2.64267E+4
  -9.98199E+3   2.62774E+4
  -9.88823E+3   2.62217E+4
  -9.75359E+3   2.61166E+4
  -9.60149E+3   2.58839E+4
  -9.42902E+3   2.57413E+4
  -9.28071E+3   2.55940E+4
  -9.13279E+3   2.55479E+4
  -9.01575E+3   2.54191E+4
  -8.92422E+3   2.52888E+4
  -8.75161E+3   2.51460E+4
  -8.72592E+3   2.50162E+4
  -8.53352E+3   2.48942E+4
  -8.41702E+3   2.47290E+4
  -8.30710E+3   2.46291E+4
  -8.16834E+3   2.44489E+4
  -8.08205E+3   2.43338E+4
  -7.99839E+3   2.42106E+4
  -7.90212E+3   2.40909E+4
  -7.81386E+3   2.39284E+4
  -7.65843E+3   2.38135E+4
  -7.63575E+3   2.37247E+4
  -7.51056E+3   2.35512E+4
  -7.33165E+3   2.34062E+4
  -7.34374E+3   2.33102E+4
  -7.17778E+3   2.32133E+4
  -7.16218E+3   2.30534E+4
  -7.03191E+3   2.29119E+4
  -6.86733E+3   2.27914E+4
  -6.81099E+3   2.27075E+4
  -6.76930E+3   2.26603E+4
  -6.72682E+3   2.24986E+4
  -6.57149E+3   2.23347E+4
  -6.46412E+3   2.22465E+4
  -6.34394E+3   2.20903E+4
  -6.24974E+3   2.19470E+4
  -6.23325E+3   2.18110E+4
  -6.08275E+3   2.16335E+4
  -5.95539E+3   2.15918E+4
  -5.95318E+3   2.15004E+4
  -5.84079E+3   2.13336E+4
  -5.76714E+3   2.12399E+4
  -5.63303E+3   2.10356E+4
  -5.54511E+3   2.09779E+4
  -5.46922E+3   2.08777E+4
  -5.38815E+3   2.07705E+4
  -5.32291E+3   2.06733E+4
  -5.25133E+3   2.05172E+4
  -5.10874E+3   2.03743E+4
  -5.03962E+3   2.02227E+4
  -4.96804E+3   2.01008E+4
  -4.82127E+3   2.00273E+4
  -4.77100E+3   1.99530E+4
  -4.67070E+3   1.98255E+4
  -4.56904E+3   1.97198E+4
  -4.55241E+3   1.95690E+4
  -4.43102E+3   1.94326E+4
  -4.31344E+3   1.93930E+4
  -4.24253E+3   1.92349E+4
  -4.17864E+3   1.91053E+4
  -4.10420E+3   1.89846E+4
  -3.98603E+3   1.89501E+4
  -3.91398E+3   1.87928E+4
  -3.77319E+3   1.85722E+4
  -3.62345E+3   1.85589E+4
  -3.62475E+3   1.84100E+4
  -3.52223E+3   1.82954E+4
  -3.47983E+3   1.82362E+4
  -3.36962E+3   1.81127E+4
  -3.23334E+3   1.80075E+4
  -3.12178E+3   1.78325E+4
  -2.99741E+3   1.78056E+4
  -2.95393E+3   1.76915E+4
  -2.88385E+3   1.75236E+4
  -2.77844E+3   1.75157E+4
  -2.74802E+3   1.73602E+4
  -2.60096E+3   1.72403E+4
  -2.57826E+3   1.71301E+4
  -2.46906E+3   1.69986E+4
  -2.39976E+3   1.69518E+4
  -2.30053E+3   1.68112E+4
  -2.20458E+3   1.67887E+4
  -2.08202E+3   1.66389E+4
  -2.05166E+3   1.65240E+4
  -1.97220E+3   1.64049E+4
  -1.90476E+3   1.63431E+4
  -1.86057E+3   1.62531E+4
  -1.77043E+3   1.60500E+4
  -1.67156E+3   1.60385E+4
  -1.63205E+3   1.59066E+4
  -1.52964E+3   1.57906E+4
  -1.44574E+3   1.56829E+4
  -1.34835E+3   1.55847E+4
  -1.32483E+3   1.55037E+4
  -1.20205E+3   1.54430E+4
  -1.13643E+3   1.53365E+4
  -1.12821E+3   1.53559E+4
  -1.02313E+3   1.51586E+4
  -1.03207E+3   1.50097E+4
  -9.59001E+2   1.49047E+4
  -8.99364E+2   1.48599E+4
  -8.27081E+2   1.47433E+4
  -7.56130E+2   1.45942E+4
  -7.06648E+2   1.45402E+4
  -6.00072E+2   1.44797E+4
  -5.20707E+2   1.44069E+4
  -4.95836E+2   1.43155E+4
  -4.92097E+2   1.41672E+4
  -3.86252E+2   1.40201E+4
  -3.40160E+2   1.39884E+4
  -3.22275E+2   1.38805E+4
  -2.22801E+2   1.38262E+4
  -1.62360E+2   1.36812E+4
  -1.32490E+2   1.36691E+4
  -1.03884E+2   1.35342E+4
  -4.23054E+1   1.34275E+4
  -1.79238E+1   1.33556E+4
   3.66984E+1   1.32158E+4
   1.29450E+2   1.32098E+4
   1.46858E+2   1.31851E+4
   2.23908E+2   1.30182E+4
   2.15368E+2   1.28724E+4
   2.35682E+2   1.28455E+4
   2.67976E+2   1.27795E+4
   3.46962E+2   1.26155E+4
   3.52031E+2   1.25952E+4
   4.15812E+2   1.24754E+4
   4.36263E+2   1.24479E+4
   5.45242E+2   1.23057E+4
   4.99721E+2   1.22519E+4
   5.33881E+2   1.21151E+4
   6.52819E+2   1.20362E+4
   6.62782E+2   1.19649E+4
   6.94963E+2   1.19343E+4
   6.98597E+2   1.17803E+4
   7.16282E+2   1.17433E+4
   7.71639E+2   1.16443E+4
   8.06776E+2   1.15779E+4
   7.75807E+2   1.14369E+4
   8.44861E+2   1.13399E+4
   8.97994E+2   1.13071E+4
   9.58379E+2   1.12039E+4
   9.30440E+2   1.11694E+4
   9.59631E+2   1.10719E+4
   1.07247E+3   1.10401E+4
   1.04921E+3   1.08607E+4
   1.04344E+3   1.08169E+4
   1.07722E+3   1.06931E+4
   1.08903E+3   1.06984E+4
   1.11138E+3   1.05315E+4
   1.12094E+3   1.04223E+4
   1.18934E+3   1.03879E+4
   1.10786E+3   1.02980E+4
   1.24665E+3   1.02503E+4
   1.29505E+3   1.01884E+4
   1.27488E+3   1.01680E+4
   1.31947E+3   1.00698E+4
   1.29329E+3   9.98394E+3
   1.32933E+3   9.90260E+3
   1.37772E+3   9.81990E+3
   1.38955E+3   9.80198E+3
   1.38447E+3   9.68546E+3
   1.38929E+3   9.65838E+3
   1.44444E+3   9.59973E+3
   1.42916E+3   9.46423E+3
   1.36652E+3   9.47107E+3
   1.47451E+3   9.24785E+3
   1.45951E+3   9.25697E+3
   1.53369E+3   9.20394E+3
   1.49016E+3   9.16442E+3
   1.54381E+3   9.08407E+3
   1.51212E+3   8.99592E+3
   1.52618E+3   8.95675E+3
   1.54172E+3   8.86888E+3
   1.59219E+3   8.73865E+3
   1.63862E+3   8.72517E+3
   1.68255E+3   8.65744E+3
   1.67425E+3   8.64409E+3
   1.64055E+3   8.63574E+3
   1.60811E+3   8.47527E+3
   1.71678E+3   8.41814E+3
   1.70751E+3   8.35976E+3
   1.69833E+3   8.31616E+3
   1.64739E+3   8.24512E+3
   1.66862E+3   8.15352E+3
   1.74725E+3   8.05872E+3
   1.69495E+3   8.00136E+3
   1.75520E+3   7.98510E+3
   1.77877E+3   7.91353E+3
   1.81115E+3   7.90639E+3
   1.75264E+3   7.80596E+3
   1.75350E+3   7.70144E+3
   1.73125E+3   7.65136E+3
   1.75141E+3   7.64593E+3
   1.80279E+3   7.58494E+3
   1.83978E+3   7.53114E+3
   1.80588E+3   7.51624E+3
   1.84515E+3   7.45637E+3
   1.87915E+3   7.40088E+3
   1.84737E+3   7.37915E+3
   1.87133E+3   7.28524E+3
   1.76639E+3   7.21148E+3
   1.89303E+3   7.16717E+3
   1.88407E+3   7.14371E+3
   1.83413E+3   7.05880E+3
   1.87956E+3   7.02833E+3
   1.86596E+3   7.05305E+3
   1.87691E+3   6.87833E+3
   1.87991E+3   6.88396E+3
   1.91793E+3   6.87698E+3
   1.91778E+3   6.82645E+3
   1.90973E+3   6.68386E+3
   1.91739E+3   6.64859E+3
   1.96595E+3   6.66796E+3
   1.95674E+3   6.57798E+3
   1.94848E+3   6.56977E+3
   1.95565E+3   6.44959E+3
   1.93346E+3   6.51044E+3
   2.06026E+3   6.41270E+3
   1.99925E+3   6.41872E+3
   1.91238E+3   6.36686E+3
   1.98563E+3   6.33173E+3
   1.99127E+3   6.23932E+3
   2.01711E+3   6.18466E+3
   2.01293E+3   6.13502E+3
   2.03472E+3   6.09848E+3
   2.09094E+3   6.07655E+3
   2.07400E+3   6.06999E+3
   1.98980E+3   6.05717E+3
   2.01515E+3   5.97282E+3
   2.09305E+3   5.89269E+3
   2.01807E+3   5.92428E+3
   2.02510E+3   5.87926E+3
   2.01178E+3   5.84661E+3
   1.98054E+3   5.78711E+3
   2.12034E+3   5.70923E+3
   2.06781E+3   5.77771E+3
   2.01941E+3   5.68251E+3
   2.07485E+3   5.63165E+3
   2.10434E+3   5.54061E+3
   2.09302E+3   5.53827E+3
   2.06003E+3   5.55388E+3
   2.03270E+3   5.51318E+3
   2.08146E+3   5.43177E+3
   2.07862E+3   5.40842E+3
   2.05878E+3   5.36275E+3
   2.05151E+3   5.40780E+3
   2.10747E+3   5.27260E+3
   2.04399E+3   5.28874E+3
   2.08261E+3   5.20812E+3
   2.06068E+3   5.19518E+3
   2.03217E+3   5.12600E+3
   2.06380E+3   5.10833E+3
   2.10363E+3   5.05075E+3
   2.06467E+3   5.00470E+3
   2.07847E+3   4.97924E+3
   2.11477E+3   4.91602E+3
   2.10637E+3   4.93496E+3
   2.07845E+3   4.92214E+3
   2.13814E+3   4.87767E+3
   2.09479E+3   4.81550E+3
   2.10161E+3   4.77880E+3
   2.10806E+3   4.80561E+3
