 LCModel (Version 6.3-1N) Copyright: S.W. Provencher.          Ref.: Magn. Reson. Med. 30:672-679 (1993).                
 Slice_N1@22_15  02-Jun-2023 14:37:21
 27 lines in following concentration table = NCONC+1
    Conc.  %SD /Cr+PCr  Metabolite                                         
 1.29E-06  25% 2.1E-04 Mac                                                 
 4.93E-02  13%   8.000 Cr                                                  
    0.000 999%   0.000 PCr                                                 
 8.00E-02  13%  12.992 Ins                                                 
 6.56E-02  12%  10.647 NAA                                                 
 6.27E-02  15%  10.177 Tau                                                 
 1.77E-02  21%   2.873 PCho                                                
    0.000 999%   0.000 GPC                                                 
 6.30E-02  16%  10.221 Glu                                                 
 1.24E-02  56%   2.014 Gln                                                 
    0.000 999%   0.000 Ala                                                 
 2.83E-02  49%   4.592 Asc                                                 
 5.15E-03 102%   0.836 Asp                                                 
 5.41E-03  56%   0.878 GABA                                                
 5.00E-03  66%   0.812 Glc                                                 
 7.73E-03  48%   1.254 GSH                                                 
 4.29E-03 191%   0.697 Lac                                                 
    0.000 999%   0.000 NAAG                                                
    0.000 999%   0.000 PE                                                  
 1.77E-02  21%   2.873 GPC+PCho                                            
 6.56E-02  12%  10.647 NAA+NAAG                                            
 7.54E-02  16%  12.235 Glu+Gln                                             
 4.93E-02  13%   8.000 Cr+PCr                                              
 6.56E-02  12%  10.647 NAA+NAAG                                            
 4.93E-02  13%   8.000 Cr+PCr                                              
 7.54E-02  16%  12.235 Glu+Gln                                             
   6 lines in following misc. output table
  FWHM = 0.041 ppm    S/N =   2                                            
  Data shift = 0.012 ppm                                                   
  Ph: -25 deg     -12.7 deg/ppm                                            
  alphaB,S = 3.1E+01,   1.0E+02                                            
   18 spline knots.   Ns = 8(1)                                            
   2 inflections.     1 extrema                                            
  654 points on ppm-axis = NY
      4.000000     3.994181     3.988363     3.982544     3.976726     3.970907     3.965088     3.959270     3.953451     3.947633
      3.941814     3.935995     3.930177     3.924358     3.918540     3.912721     3.906902     3.901084     3.895265     3.889446
      3.883628     3.877809     3.871991     3.866172     3.860353     3.854535     3.848716     3.842898     3.837079     3.831260
      3.825442     3.819623     3.813805     3.807986     3.802167     3.796349     3.790530     3.784712     3.778893     3.773074
      3.767256     3.761437     3.755619     3.749800     3.743981     3.738163     3.732344     3.726526     3.720707     3.714888
      3.709070     3.703251     3.697433     3.691614     3.685795     3.679977     3.674158     3.668339     3.662521     3.656702
      3.650884     3.645065     3.639246     3.633428     3.627609     3.621791     3.615972     3.610153     3.604335     3.598516
      3.592698     3.586879     3.581060     3.575242     3.569423     3.563605     3.557786     3.551967     3.546149     3.540330
      3.534512     3.528693     3.522874     3.517056     3.511237     3.505419     3.499600     3.493781     3.487963     3.482144
      3.476326     3.470507     3.464688     3.458870     3.453051     3.447232     3.441414     3.435595     3.429777     3.423958
      3.418139     3.412321     3.406502     3.400684     3.394865     3.389046     3.383228     3.377409     3.371591     3.365772
      3.359953     3.354135     3.348316     3.342498     3.336679     3.330860     3.325042     3.319223     3.313405     3.307586
      3.301767     3.295949     3.290130     3.284312     3.278493     3.272674     3.266856     3.261037     3.255219     3.249400
      3.243581     3.237763     3.231944     3.226125     3.220307     3.214488     3.208670     3.202851     3.197032     3.191214
      3.185395     3.179577     3.173758     3.167939     3.162121     3.156302     3.150484     3.144665     3.138846     3.133028
      3.127209     3.121391     3.115572     3.109753     3.103935     3.098116     3.092298     3.086479     3.080660     3.074842
      3.069023     3.063205     3.057386     3.051567     3.045749     3.039930     3.034111     3.028293     3.022474     3.016656
      3.010837     3.005018     2.999200     2.993381     2.987563     2.981744     2.975925     2.970107     2.964288     2.958470
      2.952651     2.946832     2.941014     2.935195     2.929377     2.923558     2.917739     2.911921     2.906102     2.900284
      2.894465     2.888646     2.882828     2.877009     2.871191     2.865372     2.859553     2.853735     2.847916     2.842098
      2.836279     2.830460     2.824642     2.818823     2.813004     2.807186     2.801367     2.795549     2.789730     2.783911
      2.778093     2.772274     2.766456     2.760637     2.754818     2.749000     2.743181     2.737363     2.731544     2.725725
      2.719907     2.714088     2.708270     2.702451     2.696632     2.690814     2.684995     2.679177     2.673358     2.667539
      2.661721     2.655902     2.650084     2.644265     2.638446     2.632628     2.626809     2.620991     2.615172     2.609353
      2.603535     2.597716     2.591897     2.586079     2.580260     2.574442     2.568623     2.562804     2.556986     2.551167
      2.545349     2.539530     2.533711     2.527893     2.522074     2.516256     2.510437     2.504618     2.498800     2.492981
      2.487163     2.481344     2.475525     2.469707     2.463888     2.458070     2.452251     2.446432     2.440614     2.434795
      2.428977     2.423158     2.417339     2.411521     2.405702     2.399884     2.394065     2.388246     2.382428     2.376609
      2.370790     2.364972     2.359153     2.353335     2.347516     2.341697     2.335879     2.330060     2.324242     2.318423
      2.312604     2.306786     2.300967     2.295149     2.289330     2.283511     2.277693     2.271874     2.266056     2.260237
      2.254418     2.248600     2.242781     2.236963     2.231144     2.225325     2.219507     2.213688     2.207870     2.202051
      2.196232     2.190414     2.184595     2.178777     2.172958     2.167139     2.161321     2.155502     2.149683     2.143865
      2.138046     2.132228     2.126409     2.120590     2.114772     2.108953     2.103135     2.097316     2.091497     2.085679
      2.079860     2.074042     2.068223     2.062404     2.056586     2.050767     2.044949     2.039130     2.033311     2.027493
      2.021674     2.015856     2.010037     2.004218     1.998400     1.992581     1.986763     1.980944     1.975126     1.969307
      1.963489     1.957670     1.951852     1.946033     1.940215     1.934397     1.928578     1.922760     1.916941     1.911123
      1.905304     1.899486     1.893667     1.887849     1.882030     1.876212     1.870393     1.864575     1.858756     1.852938
      1.847119     1.841301     1.835482     1.829664     1.823845     1.818027     1.812208     1.806390     1.800571     1.794753
      1.788934     1.783116     1.777297     1.771479     1.765660     1.759842     1.754023     1.748205     1.742386     1.736568
      1.730749     1.724931     1.719113     1.713294     1.707476     1.701657     1.695839     1.690020     1.684202     1.678383
      1.672565     1.666746     1.660928     1.655109     1.649291     1.643472     1.637654     1.631835     1.626017     1.620198
      1.614380     1.608561     1.602743     1.596924     1.591106     1.585287     1.579469     1.573650     1.567832     1.562013
      1.556195     1.550376     1.544558     1.538739     1.532921     1.527102     1.521284     1.515465     1.509647     1.503829
      1.498010     1.492192     1.486373     1.480555     1.474736     1.468918     1.463099     1.457281     1.451462     1.445644
      1.439825     1.434007     1.428188     1.422370     1.416551     1.410733     1.404914     1.399096     1.393277     1.387459
      1.381640     1.375822     1.370003     1.364185     1.358366     1.352548     1.346729     1.340911     1.335092     1.329274
      1.323455     1.317637     1.311818     1.306000     1.300182     1.294363     1.288545     1.282726     1.276908     1.271089
      1.265271     1.259452     1.253634     1.247815     1.241997     1.236178     1.230360     1.224541     1.218723     1.212904
      1.207086     1.201267     1.195449     1.189630     1.183812     1.177993     1.172175     1.166356     1.160538     1.154719
      1.148901     1.143082     1.137264     1.131445     1.125627     1.119808     1.113990     1.108171     1.102353     1.096534
      1.090716     1.084898     1.079079     1.073261     1.067442     1.061624     1.055805     1.049987     1.044168     1.038350
      1.032531     1.026713     1.020894     1.015076     1.009257     1.003439     0.997620     0.991802     0.985983     0.980165
      0.974346     0.968528     0.962709     0.956891     0.951072     0.945254     0.939435     0.933617     0.927798     0.921980
      0.916161     0.910343     0.904524     0.898706     0.892887     0.887069     0.881251     0.875432     0.869614     0.863795
      0.857977     0.852158     0.846340     0.840521     0.834703     0.828884     0.823066     0.817247     0.811429     0.805610
      0.799792     0.793973     0.788155     0.782336     0.776518     0.770699     0.764881     0.759062     0.753244     0.747425
      0.741607     0.735788     0.729970     0.724151     0.718333     0.712514     0.706696     0.700877     0.695059     0.689240
      0.683422     0.677603     0.671785     0.665967     0.660148     0.654330     0.648511     0.642693     0.636874     0.631056
      0.625237     0.619419     0.613600     0.607782     0.601963     0.596145     0.590326     0.584508     0.578689     0.572871
      0.567052     0.561234     0.555415     0.549597     0.543778     0.537960     0.532141     0.526323     0.520504     0.514686
      0.508867     0.503049     0.497230     0.491412     0.485593     0.479775     0.473956     0.468138     0.462319     0.456501
      0.450682     0.444864     0.439045     0.433227     0.427408     0.421590     0.415771     0.409953     0.404134     0.398316
      0.392497     0.386679     0.380860     0.375042     0.369223     0.363405     0.357586     0.351767     0.345949     0.340130
      0.334312     0.328493     0.322675     0.316856     0.311038     0.305219     0.299401     0.293582     0.287764     0.281945
      0.276127     0.270308     0.264490     0.258671     0.252853     0.247034     0.241216     0.235397     0.229579     0.223760
      0.217942     0.212123     0.206305     0.200486
 NY phased data points follow
  -7.18255E-02 -1.24962E-02  1.06360E-01 -2.14693E-01  1.28925E-01 -2.93241E-02 -2.30044E-01 -6.04603E-02 -7.09348E-02 -9.43414E-02
  -3.27898E-01 -4.98111E-02  1.18037E-01  2.34781E-01  1.97446E-02  3.02759E-01  5.07844E-01  7.85234E-02  3.46792E-01  1.08243E-01
   2.68548E-01  2.00682E-01 -2.20320E-02  2.20513E-01 -3.19469E-01 -9.86288E-02  1.70322E-01  5.61234E-03  4.47382E-02 -1.09449E-02
   5.98894E-02 -1.33879E-01 -1.82858E-01 -7.92576E-02 -1.55672E-01 -4.63405E-02 -1.73406E-01 -2.55756E-01 -1.62794E-01 -3.23842E-01
  -4.13308E-01 -3.54482E-01  2.56936E-02  1.54735E-01  2.38544E-01  6.34844E-01  3.09838E-01  5.80641E-02  1.73417E-01 -1.80257E-02
   1.38969E-01  8.71115E-02  1.82704E-02  3.43925E-01  1.18065E-01  1.84271E-01 -8.55687E-02 -2.81349E-01  9.09453E-02 -2.31059E-01
  -2.06036E-01 -2.11793E-01 -3.36482E-01 -1.15752E-01 -2.17895E-01 -2.05160E-01  1.83392E-01  6.23484E-02 -5.37532E-02  1.37282E-01
   1.82219E-01  2.41711E-01  8.45286E-02  2.15676E-01  1.44870E-02 -3.26722E-01 -9.81984E-02  8.57495E-02 -1.23431E-01 -2.47439E-01
  -2.46742E-01 -4.17726E-01 -1.97995E-01 -8.17525E-02 -5.46344E-02  1.04772E-01  2.12859E-01  2.34587E-01  5.55425E-02  1.09870E-01
   4.13819E-01  1.47334E-01  1.69803E-02  1.69758E-03 -1.30263E-01  5.20051E-02  3.29765E-02  1.72998E-01  8.07909E-02  2.37532E-01
  -1.32699E-01 -2.28634E-01 -8.60475E-02 -2.35545E-01  4.17799E-01  9.61928E-02  4.27459E-01  6.84424E-01  2.94066E-01  6.43175E-01
   7.56504E-01  1.56561E-01  1.31479E-01  5.82351E-01  1.22235E-01  5.04686E-01  5.59915E-01  2.74839E-01  3.57025E-01  2.10652E-02
  -3.02213E-02  1.26351E-01  4.17006E-02  1.06848E-01  4.21177E-02 -3.72615E-01 -5.90481E-03 -1.52264E-01 -3.56165E-01 -3.73440E-01
  -4.18729E-01 -3.35154E-01 -6.05471E-01 -2.98819E-01 -2.52378E-01 -3.94088E-01 -2.69935E-01 -4.31189E-01 -7.78671E-01 -6.39826E-01
  -5.00482E-01 -4.91706E-01 -5.17712E-01 -2.78206E-01 -3.74766E-02 -6.92489E-02  2.46947E-01 -1.05994E-01  1.63041E-01  2.12818E-01
  -2.43771E-01 -5.05695E-02  3.54336E-02  1.04926E-01 -6.73963E-02 -5.36994E-02  3.52021E-02  2.82769E-01  1.35730E-01  1.86253E-01
   3.15187E-01  2.27006E-01  3.25602E-01  3.23390E-01  6.23904E-01  3.91583E-01  4.44843E-01  7.65626E-01  1.44371E-01 -3.19151E-01
  -2.57649E-01 -4.19090E-01 -1.70888E-01 -3.19574E-01 -4.36787E-01 -3.37693E-01 -3.26566E-01 -2.40407E-01 -5.03159E-01 -5.11830E-02
  -4.06414E-02 -4.05704E-03 -4.53363E-01 -3.84869E-01 -1.65498E-01 -4.02876E-01 -6.87615E-02 -8.68862E-02  1.17140E-01 -2.32043E-01
   2.03047E-02 -4.05473E-01 -4.14787E-01 -1.78527E-01 -1.44934E-01 -1.77233E-02 -3.77911E-01  1.46319E-01 -1.46178E-01 -1.14050E-01
  -2.77535E-01  4.59327E-02 -9.16383E-02 -3.95371E-01 -1.92754E-01 -8.09634E-02  2.04939E-01 -3.04236E-01  2.99279E-02 -1.08546E-01
   1.25472E-02 -2.34106E-02 -2.12583E-01 -9.88845E-02  2.87298E-01  5.74889E-02 -4.27189E-01  3.63111E-01  6.54465E-02  3.23776E-02
   1.39827E-01  1.49868E-01 -1.09334E-02  1.69234E-01  2.12053E-01 -1.77733E-01  2.35926E-01  1.92742E-01  3.42913E-01  1.89247E-01
   1.87816E-01  3.97800E-01  8.67371E-02  1.63191E-02  2.77947E-01  3.14072E-01 -8.98214E-02 -7.28467E-02 -1.02361E-02 -1.90247E-01
  -9.48352E-02 -1.33849E-01 -6.85316E-02  9.54348E-02 -1.58770E-01 -1.10148E-01  3.96550E-02 -1.12149E-01 -5.50504E-02  7.80057E-02
  -4.97536E-02 -4.83438E-02  7.17544E-02  6.61514E-03 -2.82411E-01  1.49094E-02  2.81694E-01 -1.31052E-02  2.79719E-02  4.30374E-02
   1.68396E-01  1.77745E-01  2.71397E-01  1.45431E-01  5.19978E-02  1.29731E-01 -1.48678E-01  1.17158E-01  1.04538E-01  2.31025E-01
   4.57771E-01 -2.44711E-02  1.66347E-01  1.67573E-01 -5.56482E-02  2.63511E-03 -4.61427E-01 -3.25153E-01 -2.98403E-01 -3.19568E-01
  -3.92389E-02 -7.33215E-02  1.25765E-02 -2.05949E-01 -2.35550E-01 -2.05187E-01 -6.05358E-03  2.82029E-01  1.02194E-01  3.93217E-01
   2.10258E-01 -5.49064E-02  3.95729E-01  1.41466E-01  1.17520E-01  5.76210E-02  2.05107E-01  1.57179E-01 -4.60464E-02  3.44359E-01
  -8.40251E-02  2.38214E-01  3.70161E-01 -9.12178E-02  7.72346E-02  6.31690E-01  2.63178E-01  5.28810E-02  3.15117E-01 -2.23905E-02
   2.96446E-01  1.27338E-01  3.43316E-01  2.88859E-02  8.13568E-04  3.17896E-01 -5.06638E-02  1.77877E-01 -6.35359E-02 -1.53240E-01
  -2.19290E-01 -1.49537E-01 -1.25948E-01 -2.04706E-01 -4.18673E-01 -3.30695E-01  8.31673E-02  3.79967E-02 -1.41122E-01  1.59182E-01
   3.84495E-01 -4.95084E-02  5.76284E-02 -5.75280E-02 -1.96010E-01 -1.40617E-01 -2.13283E-01 -4.04366E-01 -2.24751E-01 -1.13911E-01
  -6.87803E-01 -2.77791E-01 -1.13449E-01 -8.61142E-01 -9.02710E-01 -8.53225E-01 -7.75830E-01 -2.76056E-01 -2.96348E-01 -3.27733E-02
   2.37925E-01  4.61867E-02  6.92720E-02  3.12041E-01  3.23436E-01  2.66965E-01  1.80203E-01 -8.24215E-02  2.26557E-02  9.53758E-02
   3.48995E-01  1.94958E-01  1.25747E-01  5.65210E-02  1.17465E-01  2.89614E-01 -1.26910E-01  1.97365E-01  1.86152E-01 -8.85498E-02
   4.41735E-02 -9.05587E-02 -1.02354E-01  2.34810E-01  2.50893E-01  2.71203E-01  1.85491E-01  1.34388E-01 -4.06383E-02 -1.93935E-01
   1.65921E-01 -6.24793E-02  5.38779E-02  6.12263E-02  8.78020E-02  3.09248E-01  1.54991E-01  1.94336E-01  5.44114E-02 -1.91556E-01
  -5.78683E-02  2.05418E-02  9.10519E-02  2.21559E-01  6.20541E-02  3.14664E-01 -6.16845E-04  1.83185E-01  2.92074E-01 -1.55672E-01
   1.24181E-01 -5.22975E-02 -1.02402E-01 -3.26365E-02 -3.57832E-02 -1.70745E-01 -4.98867E-02  9.38725E-02 -1.71672E-01 -1.08415E-01
   2.20743E-01 -3.85105E-02 -2.73290E-01 -3.10439E-01 -3.32576E-01  3.78178E-02 -1.77566E-01 -6.05577E-02  1.39036E-01 -4.30305E-02
  -3.21008E-02  3.96480E-01  1.06164E-01 -2.56612E-01  2.88498E-02 -2.17802E-01 -2.27189E-02 -1.69497E-01  4.58603E-03 -1.04281E-01
  -4.64384E-01 -2.78626E-02 -1.43987E-01 -1.84764E-01 -5.08433E-03  3.31383E-02 -1.73581E-01 -1.24066E-01 -8.48707E-02  2.55479E-02
   1.38029E-01 -1.69527E-02  1.82964E-01 -1.21846E-01 -1.54537E-01  1.15516E-01 -2.10078E-01  1.24018E-01  1.13007E-01  1.49705E-02
   2.69688E-01 -5.88783E-02  1.33756E-01  3.20161E-01  1.02489E-01 -1.06098E-01  2.20432E-01  2.87012E-01 -7.70580E-02 -1.46432E-01
  -1.88733E-01  6.17349E-02  1.61929E-01  2.92233E-01  1.30616E-03  1.63086E-01  3.31457E-01 -1.02800E-01  2.42404E-01  1.60037E-01
  -8.89978E-02 -3.61776E-01 -1.72686E-01  8.31099E-02 -4.15007E-01 -2.00179E-01 -1.90206E-01 -1.55831E-01 -2.17530E-02 -2.56168E-01
  -1.71164E-01 -4.69842E-02 -5.73194E-02  3.66256E-02  1.89039E-01 -4.07294E-02  8.26077E-02  5.54326E-02 -4.25231E-02 -1.28023E-02
  -4.49980E-02 -7.47638E-02 -1.06176E-02  9.35530E-02 -1.88287E-01  2.95404E-01 -8.74190E-03 -1.61696E-01  1.83795E-01  3.28934E-02
   1.77985E-01  1.93952E-01  2.54989E-01 -7.78132E-02  2.87160E-03 -1.20274E-01  7.66024E-03  2.02951E-01 -1.90305E-02  3.47538E-02
  -1.84156E-02  2.01945E-01  7.71417E-02  1.60770E-01  9.90213E-02 -1.60572E-01 -2.98164E-02  1.24286E-01  1.37962E-01  9.86387E-02
   1.37044E-01  2.16869E-02  1.30900E-01  2.54253E-02 -7.48157E-02  1.59274E-01 -6.65617E-03 -1.93061E-01 -3.93730E-01 -5.10977E-01
  -9.90084E-02  4.48059E-02 -4.39055E-01 -6.08011E-01 -1.48907E-01 -2.42721E-01 -2.31170E-01  2.71027E-02 -2.34444E-01 -1.28776E-01
  -5.60679E-02 -4.28195E-02  1.12156E-01 -8.81676E-02 -2.36103E-01 -4.38818E-01 -7.07814E-02  2.62805E-01 -1.40399E-01  1.60049E-01
   9.87110E-02  1.87378E-02  4.13792E-02  2.00727E-01  1.95446E-01 -3.24145E-01  3.45878E-02  9.47645E-02  1.77145E-01  1.62990E-01
   7.85382E-02  1.13173E-01  2.92281E-01  1.58308E-01  1.07374E-01  4.49610E-02 -1.02410E-01  3.40938E-01 -1.67546E-01 -3.05613E-03
  -2.84106E-01 -2.93714E-01  1.10022E-01 -7.03235E-02  1.52304E-01 -6.35962E-02  1.84136E-01 -5.96946E-02 -1.11100E-01  1.65325E-01
  -7.27505E-02 -5.58570E-02  5.15461E-02 -7.99254E-02  3.66110E-01  4.35866E-01 -2.67377E-03  8.44225E-02 -1.04207E-01  6.92467E-02
  -4.55605E-02 -1.70085E-02  3.11571E-01 -6.39226E-02 -2.76341E-01  5.41725E-02  1.37071E-01  5.57045E-02  8.93730E-02  5.07089E-03
  -1.13296E-02 -2.02203E-01 -1.48524E-02 -8.91714E-02 -2.98903E-01  5.60762E-02 -1.57918E-01 -1.39857E-01  1.38003E-02  1.65009E-02
   2.26572E-01 -4.74799E-02  6.16319E-02  2.31536E-02 -1.08593E-01  2.15079E-02 -1.40325E-01 -1.66013E-01 -1.38783E-01  1.48805E-02
   1.27222E-01  9.39312E-02  4.35738E-02  2.00975E-02 -1.55518E-01  3.22928E-02  1.49750E-01  1.22101E-01  2.09933E-02  2.26007E-03
   5.09709E-02 -1.46067E-01  1.94187E-01  1.39815E-01 -1.04349E-02  9.98975E-02 -1.33709E-01 -3.86279E-01  7.36513E-02  9.30950E-02
  -1.44982E-01  1.84087E-01  2.17430E-01 -1.02416E-01 -1.38358E-01  9.17255E-03  6.56500E-02  2.83549E-01 -3.18850E-01  2.26792E-01
   8.77355E-02 -5.31422E-01  1.04970E-01  1.02867E-01
 NY points of the fit to the data follow
   6.24870E-02  6.43435E-02  5.88292E-02  4.74236E-02  3.30433E-02  1.90828E-02  8.76977E-03  9.51720E-03  1.88856E-02  3.38063E-02
   5.29218E-02  7.74224E-02  1.12212E-01  1.58623E-01  2.14304E-01  2.71837E-01  3.13126E-01  3.20418E-01  2.90922E-01  2.33233E-01
   1.60992E-01  8.81427E-02  2.63843E-02 -1.65744E-02 -4.23391E-02 -6.00514E-02 -7.46557E-02 -8.75124E-02 -9.91361E-02 -1.09990E-01
  -1.20558E-01 -1.31376E-01 -1.42154E-01 -1.52597E-01 -1.62563E-01 -1.70866E-01 -1.76334E-01 -1.75781E-01 -1.66770E-01 -1.45768E-01
  -1.10991E-01 -6.22768E-02 -3.01665E-03  6.06598E-02  1.21926E-01  1.73514E-01  2.09443E-01  2.26514E-01  2.24991E-01  2.08046E-01
   1.79650E-01  1.43166E-01  1.01667E-01  5.80769E-02  1.34820E-02 -3.18506E-02 -7.58874E-02 -1.20434E-01 -1.62986E-01 -1.99934E-01
  -2.30465E-01 -2.47669E-01 -2.48115E-01 -2.29412E-01 -1.89943E-01 -1.33424E-01 -6.25590E-02  1.92291E-02  1.02203E-01  1.76755E-01
   2.34214E-01  2.64641E-01  2.61413E-01  2.27754E-01  1.72779E-01  1.04424E-01  2.98714E-02 -4.53619E-02 -1.14587E-01 -1.71722E-01
  -2.09777E-01 -2.15460E-01 -1.78749E-01 -1.04229E-01 -4.12844E-03  1.06691E-01  2.08847E-01  2.84318E-01  3.23440E-01  3.27277E-01
   3.06419E-01  2.66426E-01  2.16346E-01  1.62436E-01  1.08818E-01  5.44756E-02 -2.41491E-03 -5.88787E-02 -1.07829E-01 -1.38490E-01
  -1.39261E-01 -1.04566E-01 -3.82890E-02  4.79738E-02  1.37017E-01  2.13307E-01  2.67754E-01  2.98369E-01  3.09554E-01  3.09360E-01
   3.04094E-01  2.98593E-01  2.94042E-01  2.90260E-01  2.86715E-01  2.81591E-01  2.75736E-01  2.68328E-01  2.57421E-01  2.42720E-01
   2.19600E-01  1.86978E-01  1.41686E-01  8.48191E-02  1.97724E-02 -5.02406E-02 -1.23248E-01 -1.95953E-01 -2.66817E-01 -3.38798E-01
  -3.97119E-01 -4.30021E-01 -4.32922E-01 -4.15249E-01 -4.00023E-01 -4.06299E-01 -4.45748E-01 -5.13221E-01 -5.75086E-01 -5.94879E-01
  -5.59023E-01 -4.74462E-01 -3.59598E-01 -2.37718E-01 -1.31632E-01 -5.70790E-02 -1.14840E-02  1.99339E-02  4.46392E-02  6.53646E-02
   8.35171E-02  9.99962E-02  1.15466E-01  1.30531E-01  1.45816E-01  1.62020E-01  1.79936E-01  2.00725E-01  2.26472E-01  2.59757E-01
   2.86475E-01  3.06902E-01  3.23302E-01  3.38177E-01  3.49727E-01  3.44369E-01  3.07992E-01  2.26863E-01  9.19930E-02 -7.66031E-02
  -2.37019E-01 -3.57469E-01 -4.23227E-01 -4.34582E-01 -4.02669E-01 -3.47152E-01 -2.93136E-01 -2.55539E-01 -2.29347E-01 -2.09402E-01
  -1.93320E-01 -1.79768E-01 -1.68050E-01 -1.58131E-01 -1.49770E-01 -1.42638E-01 -1.36557E-01 -1.31248E-01 -1.26271E-01 -1.21165E-01
  -1.15621E-01 -1.09612E-01 -1.03281E-01 -9.67446E-02 -9.01276E-02 -8.34922E-02 -7.70071E-02 -7.08110E-02 -6.49590E-02 -5.92869E-02
  -5.37678E-02 -4.85983E-02 -4.39969E-02 -4.02050E-02 -3.73677E-02 -3.53918E-02 -3.40514E-02 -3.31424E-02 -3.27413E-02 -3.30669E-02
  -3.40385E-02 -3.53216E-02 -3.65301E-02 -3.73322E-02 -3.74531E-02 -3.67466E-02 -3.51320E-02 -3.15221E-02 -2.58148E-02 -1.89436E-02
  -1.09523E-02 -4.96754E-04  1.51704E-02  3.74524E-02  6.48718E-02  9.51916E-02  1.24038E-01  1.46486E-01  1.60673E-01  1.67574E-01
   1.68231E-01  1.61383E-01  1.44893E-01  1.19566E-01  8.85179E-02  5.45225E-02  2.10109E-02 -7.68579E-03 -2.87067E-02 -4.21743E-02
  -5.08009E-02 -5.72760E-02 -6.24403E-02 -6.68196E-02 -7.05691E-02 -7.38520E-02 -7.70629E-02 -8.02701E-02 -8.37309E-02 -8.59479E-02
  -8.77942E-02 -8.99110E-02 -9.15643E-02 -9.19178E-02 -8.94447E-02 -8.33558E-02 -7.11035E-02 -5.13337E-02 -2.61350E-02  1.29106E-03
   2.83891E-02  5.35483E-02  7.33040E-02  8.58519E-02  9.23771E-02  9.45566E-02  9.27113E-02  8.68386E-02  7.87204E-02  6.97463E-02
   5.91967E-02  4.55027E-02  2.84661E-02  7.66267E-03 -1.69396E-02 -4.48071E-02 -7.48683E-02 -1.04584E-01 -1.32834E-01 -1.58039E-01
  -1.78033E-01 -1.90740E-01 -1.91429E-01 -1.75292E-01 -1.38972E-01 -8.15618E-02 -8.31582E-03  7.11430E-02  1.45030E-01  2.02171E-01
   2.36248E-01  2.47364E-01  2.40440E-01  2.23503E-01  2.04302E-01  1.88014E-01  1.77235E-01  1.71329E-01  1.68160E-01  1.65878E-01
   1.63193E-01  1.59585E-01  1.55007E-01  1.49745E-01  1.44258E-01  1.38676E-01  1.32925E-01  1.26688E-01  1.19560E-01  1.10846E-01
   1.00181E-01  8.68443E-02  7.05523E-02  5.07365E-02  2.71719E-02 -2.50866E-04 -3.12322E-02 -6.45880E-02 -9.84437E-02 -1.30129E-01
  -1.57084E-01 -1.76825E-01 -1.87473E-01 -1.87833E-01 -1.77342E-01 -1.57156E-01 -1.28619E-01 -9.61614E-02 -6.39472E-02 -3.76468E-02
  -2.11431E-02 -1.66297E-02 -2.37118E-02 -4.01464E-02 -7.37484E-02 -1.17761E-01 -1.63071E-01 -2.06049E-01 -2.50440E-01 -3.09720E-01
  -3.92836E-01 -5.00475E-01 -6.22423E-01 -7.23830E-01 -7.62869E-01 -7.24240E-01 -6.20403E-01 -4.77973E-01 -3.27472E-01 -1.96367E-01
  -1.05295E-01 -5.57312E-02 -2.97381E-02 -1.36491E-02 -2.53156E-03  5.27890E-03  1.06971E-02  1.40410E-02  1.56271E-02  1.56123E-02
   1.41781E-02  1.16729E-02  8.56033E-03  5.42055E-03  2.94428E-03  1.71851E-03  2.11170E-03  4.18991E-03  7.65615E-03  1.20218E-02
   1.67943E-02  2.15159E-02  2.58905E-02  2.97918E-02  3.31890E-02  3.61596E-02  3.87797E-02  4.11481E-02  4.33308E-02  4.53828E-02
   4.73054E-02  4.91226E-02  5.08552E-02  5.25175E-02  5.41175E-02  5.56472E-02  5.70844E-02  5.84101E-02  5.96393E-02  6.08094E-02
   6.19544E-02  6.30628E-02  6.40616E-02  6.48166E-02  6.51815E-02  6.50488E-02  6.43754E-02  6.31949E-02  6.15740E-02  5.95757E-02
   5.72289E-02  5.45366E-02  5.15150E-02  4.81934E-02  4.46244E-02  4.09097E-02  3.71598E-02  3.34701E-02  2.98894E-02  2.64380E-02
   2.31526E-02  2.00684E-02  1.71994E-02  1.45631E-02  1.21536E-02  9.94912E-03  7.92460E-03  6.04448E-03  4.30758E-03  2.74074E-03
   1.38412E-03  2.85993E-04 -4.85574E-04 -8.96517E-04 -9.15346E-04 -5.42013E-04  2.05567E-04  1.34208E-03  2.84201E-03  4.64845E-03
   6.65983E-03  8.77281E-03  1.09145E-02  1.31052E-02  1.54472E-02  1.80880E-02  2.11242E-02  2.45784E-02  2.84407E-02  3.26806E-02
   3.72695E-02  4.21764E-02  4.73911E-02  5.28713E-02  5.85424E-02  6.42788E-02  6.99140E-02  7.52743E-02  8.01583E-02  8.43510E-02
   8.76547E-02  8.98970E-02  9.10575E-02  9.16038E-02  9.14963E-02  9.11632E-02  9.04996E-02  8.95522E-02  8.87739E-02  8.86104E-02
   8.96825E-02  9.21179E-02  9.49830E-02  9.68263E-02  9.61418E-02  9.18984E-02  8.43071E-02  7.44432E-02  6.38069E-02  5.39282E-02
   4.57235E-02  3.93977E-02  3.47711E-02  3.12667E-02  2.86144E-02  2.67609E-02  2.56799E-02  2.53340E-02  2.56441E-02  2.65297E-02
   2.78899E-02  2.96294E-02  3.16640E-02  3.38928E-02  3.61817E-02  3.83822E-02  4.03704E-02  4.20833E-02  4.35068E-02  4.46562E-02
   4.55774E-02  4.62720E-02  4.66913E-02  4.67654E-02  4.64434E-02  4.57195E-02  4.46126E-02  4.31677E-02  4.14841E-02  3.96522E-02
   3.77239E-02  3.57456E-02  3.37351E-02  3.17014E-02  2.96391E-02  2.75319E-02  2.53898E-02  2.32351E-02  2.10853E-02  1.89677E-02
   1.68665E-02  1.47236E-02  1.24507E-02  9.92935E-03  7.02592E-03  3.63216E-03 -3.05141E-04 -4.79380E-03 -9.85093E-03 -1.55414E-02
  -2.19333E-02 -2.90697E-02 -3.69435E-02 -4.54327E-02 -5.42983E-02 -6.32648E-02 -7.20742E-02 -8.04879E-02 -8.82850E-02 -9.52833E-02
  -1.01351E-01 -1.06338E-01 -1.10098E-01 -1.12571E-01 -1.13801E-01 -1.13850E-01 -1.12819E-01 -1.10856E-01 -1.08186E-01 -1.05014E-01
  -1.01475E-01 -9.76706E-02 -9.36319E-02 -8.93548E-02 -8.47969E-02 -7.99210E-02 -7.47388E-02 -6.93217E-02 -6.37695E-02 -5.81991E-02
  -5.26688E-02 -4.72446E-02 -4.20017E-02 -3.69707E-02 -3.21738E-02 -2.76471E-02 -2.34097E-02 -1.94700E-02 -1.58285E-02 -1.24959E-02
  -9.50166E-03 -6.82385E-03 -4.43693E-03 -2.33960E-03 -5.21772E-04  1.04428E-03  2.40426E-03  3.59218E-03  4.61735E-03  5.49109E-03
   6.26593E-03  7.01436E-03  7.78929E-03  8.60897E-03  9.45747E-03  1.02976E-02  1.10688E-02  1.16830E-02  1.21009E-02  1.23405E-02
   1.24362E-02  1.24409E-02  1.23944E-02  1.23009E-02  1.21669E-02  1.20247E-02  1.19113E-02  1.18474E-02  1.17982E-02  1.17147E-02
   1.15458E-02  1.12177E-02  1.07517E-02  1.02458E-02  9.80145E-03  9.44056E-03  9.14164E-03  8.88080E-03  8.62341E-03  8.33213E-03
   8.02546E-03  7.79989E-03  7.74890E-03  7.87869E-03  8.13842E-03  8.46816E-03  8.82929E-03  9.18804E-03  9.51516E-03  9.80553E-03
   1.00611E-02  1.02625E-02  1.03671E-02  1.03217E-02  1.01715E-02  1.00318E-02  9.97533E-03  1.00562E-02  1.02672E-02  1.05674E-02
   1.09276E-02  1.13037E-02  1.17205E-02  1.22134E-02  1.27270E-02  1.31602E-02  1.34300E-02  1.34886E-02  1.33797E-02  1.31825E-02
   1.29588E-02  1.27833E-02  1.26622E-02  1.25705E-02  1.24811E-02  1.23733E-02  1.22587E-02  1.21715E-02  1.21363E-02  1.21672E-02
   1.22919E-02  1.24959E-02  1.27454E-02  1.30415E-02  1.33806E-02  1.37880E-02  1.42835E-02  1.49118E-02  1.57445E-02  1.67853E-02
   1.79545E-02  1.91583E-02  2.03279E-02  2.14445E-02
 NY background values follow
     5.483E-02    5.467E-02    5.452E-02    5.436E-02    5.420E-02    5.404E-02    5.389E-02    5.373E-02    5.357E-02    5.342E-02
     5.326E-02    5.310E-02    5.295E-02    5.279E-02    5.263E-02    5.247E-02    5.232E-02    5.216E-02    5.200E-02    5.184E-02
     5.169E-02    5.153E-02    5.137E-02    5.121E-02    5.106E-02    5.090E-02    5.074E-02    5.058E-02    5.043E-02    5.027E-02
     5.011E-02    4.995E-02    4.980E-02    4.964E-02    4.948E-02    4.932E-02    4.916E-02    4.901E-02    4.885E-02    4.869E-02
     4.853E-02    4.837E-02    4.822E-02    4.806E-02    4.790E-02    4.774E-02    4.758E-02    4.743E-02    4.727E-02    4.711E-02
     4.695E-02    4.679E-02    4.664E-02    4.648E-02    4.632E-02    4.616E-02    4.600E-02    4.584E-02    4.568E-02    4.553E-02
     4.537E-02    4.521E-02    4.505E-02    4.489E-02    4.473E-02    4.457E-02    4.442E-02    4.426E-02    4.410E-02    4.394E-02
