 
 $NMID
 ID=''
 FMTDAT='(2E13.5)'
 TRAMP=   1.00000E+0
 VOLUME=   1.00000E+0
 $END
  -1.20988E+3   1.77097E+4
  -1.59159E+4   4.28328E+4
  -7.98127E+3   4.46988E+4
  -7.06751E+3   4.09909E+4
  -8.35773E+3   4.21085E+4
  -6.18547E+3   4.23727E+4
  -6.03179E+3   4.03559E+4
  -6.65301E+3   4.05438E+4
  -5.20398E+3   4.04868E+4
  -4.86902E+3   3.90701E+4
  -5.20613E+3   3.89656E+4
  -3.97664E+3   3.87444E+4
  -3.44903E+3   3.76763E+4
  -3.73597E+3   3.75378E+4
  -2.80048E+3   3.71994E+4
  -2.33507E+3   3.62910E+4
  -2.36014E+3   3.60675E+4
  -1.59830E+3   3.56879E+4
  -1.16426E+3   3.49098E+4
  -1.08178E+3   3.45713E+4
  -4.71230E+2   3.40729E+4
  -7.55085E+1   3.33607E+4
   4.20890E+1   3.30024E+4
   4.82964E+2   3.25489E+4
   8.67655E+2   3.16832E+4
   1.08161E+3   3.12656E+4
   1.41952E+3   3.07961E+4
   1.60881E+3   3.01132E+4
   1.62455E+3   2.95752E+4
   2.02202E+3   2.91185E+4
   2.26241E+3   2.83727E+4
   2.46526E+3   2.79544E+4
   2.61666E+3   2.74926E+4
   2.82221E+3   2.68249E+4
   3.00677E+3   2.63203E+4
   3.21309E+3   2.58360E+4
   3.51365E+3   2.51652E+4
   3.50523E+3   2.45729E+4
   3.70995E+3   2.41129E+4
   3.81837E+3   2.34989E+4
   3.95650E+3   2.29740E+4
   4.00225E+3   2.23670E+4
   3.95115E+3   2.17579E+4
   4.03315E+3   2.12298E+4
   4.13445E+3   2.06920E+4
   4.20633E+3   2.00913E+4
   4.29539E+3   1.95412E+4
   4.30181E+3   1.90192E+4
   4.30461E+3   1.85187E+4
   4.40656E+3   1.78680E+4
   4.37506E+3   1.73960E+4
   4.40543E+3   1.68431E+4
   4.45111E+3   1.62218E+4
   4.51256E+3   1.57858E+4
   4.47267E+3   1.53020E+4
   4.52035E+3   1.47805E+4
   4.48018E+3   1.43229E+4
   4.50721E+3   1.38451E+4
   4.50505E+3   1.32652E+4
   4.53542E+3   1.27906E+4
   4.54155E+3   1.22618E+4
   4.52549E+3   1.18300E+4
   4.67598E+3   1.13885E+4
   4.62829E+3   1.10054E+4
   4.66638E+3   1.05830E+4
   4.76458E+3   1.01841E+4
   4.76975E+3   9.81788E+3
   4.88606E+3   9.49593E+3
   4.84994E+3   9.08491E+3
   4.94746E+3   8.82854E+3
   4.98227E+3   8.54678E+3
   4.97679E+3   8.30889E+3
   4.90610E+3   8.04434E+3
   4.88992E+3   7.80079E+3
   4.90735E+3   7.63678E+3
   4.89921E+3   7.42895E+3
   4.85013E+3   7.26893E+3
   4.77319E+3   7.08490E+3
   4.69008E+3   6.94845E+3
   4.63996E+3   6.76091E+3
   4.58185E+3   6.63287E+3
   4.49609E+3   6.53667E+3
   4.37386E+3   6.40102E+3
   4.23392E+3   6.26853E+3
   4.17622E+3   6.14388E+3
   3.92936E+3   6.03339E+3
   3.80298E+3   5.92334E+3
   3.64910E+3   5.79363E+3
   3.57934E+3   5.63434E+3
   3.34173E+3   5.60836E+3
   3.18354E+3   5.50898E+3
   3.11104E+3   5.42497E+3
   2.83717E+3   5.21059E+3
   2.68814E+3   5.22208E+3
   2.54518E+3   5.02750E+3
   2.32179E+3   4.95252E+3
   2.23047E+3   4.90331E+3
   2.02344E+3   4.78734E+3
   1.75973E+3   4.67942E+3
   1.64570E+3   4.61500E+3
   1.46908E+3   4.45526E+3
   1.23718E+3   4.32595E+3
   1.13180E+3   4.25536E+3
   1.00354E+3   4.09989E+3
   8.22931E+2   4.04091E+3
   6.59673E+2   3.89696E+3
   5.56920E+2   3.84235E+3
   3.44718E+2   3.75705E+3
   1.52195E+2   3.62382E+3
   4.70178E+1   3.55261E+3
  -3.80338E+1   3.41267E+3
  -2.11585E+2   3.35062E+3
  -3.27005E+2   3.34969E+3
  -4.85197E+2   3.26273E+3
  -5.64834E+2   3.10369E+3
  -6.98637E+2   2.97367E+3
  -7.85509E+2   2.95339E+3
  -9.22012E+2   2.82991E+3
  -9.99369E+2   2.83668E+3
  -1.11124E+3   2.70727E+3
  -1.14519E+3   2.54190E+3
  -1.22443E+3   2.59766E+3
  -1.35978E+3   2.50470E+3
  -1.40892E+3   2.44196E+3
  -1.46591E+3   2.37978E+3
  -1.57586E+3   2.34680E+3
  -1.62282E+3   2.28089E+3
  -1.65113E+3   2.20675E+3
  -1.74448E+3   2.21935E+3
  -1.78739E+3   2.14026E+3
  -1.89992E+3   2.07205E+3
  -1.95987E+3   2.01368E+3
  -1.95186E+3   1.99659E+3
  -2.10306E+3   1.92280E+3
  -2.09984E+3   1.90750E+3
  -2.13240E+3   1.79114E+3
  -2.20937E+3   1.79426E+3
  -2.24423E+3   1.69999E+3
  -2.26852E+3   1.74325E+3
  -2.28593E+3   1.62956E+3
  -2.30929E+3   1.60143E+3
  -2.26560E+3   1.61488E+3
  -2.37681E+3   1.51761E+3
  -2.31447E+3   1.43887E+3
  -2.35597E+3   1.43827E+3
  -2.33248E+3   1.38910E+3
  -2.29779E+3   1.36322E+3
  -2.34973E+3   1.34666E+3
  -2.30258E+3   1.26366E+3
  -2.32413E+3   1.18928E+3
  -2.27565E+3   1.17868E+3
  -2.36557E+3   1.14972E+3
  -2.27727E+3   1.05945E+3
  -2.33544E+3   1.13383E+3
  -2.32282E+3   1.06176E+3
  -2.22730E+3   1.03286E+3
  -2.27786E+3   9.61693E+2
  -2.20330E+3   9.56708E+2
  -2.10966E+3   8.88987E+2
  -2.14292E+3   9.03333E+2
  -2.12127E+3   8.43586E+2
  -2.03563E+3   8.11027E+2
  -1.99981E+3   7.21107E+2
  -1.91689E+3   8.27537E+2
  -1.98153E+3   7.15640E+2
  -1.85325E+3   7.24269E+2
  -1.84642E+3   7.60314E+2
  -1.79912E+3   7.12050E+2
  -1.72869E+3   6.75234E+2
  -1.68910E+3   6.16305E+2
  -1.56723E+3   6.19895E+2
  -1.58944E+3   6.88664E+2
  -1.54779E+3   6.38822E+2
  -1.45852E+3   7.03043E+2
  -1.37687E+3   6.02331E+2
  -1.34056E+3   6.67856E+2
  -1.30043E+3   6.32397E+2
  -1.23708E+3   6.56976E+2
  -1.19552E+3   6.56327E+2
  -1.17620E+3   6.25773E+2
  -1.17582E+3   6.53842E+2
  -1.12286E+3   6.01972E+2
  -1.08033E+3   6.31732E+2
  -9.76167E+2   6.02447E+2
  -9.46314E+2   6.31632E+2
  -1.00171E+3   5.08747E+2
  -8.37742E+2   5.49576E+2
  -8.72400E+2   6.40378E+2
  -7.76777E+2   5.56882E+2
  -7.62615E+2   5.35392E+2
  -6.93753E+2   6.00968E+2
  -6.93672E+2   5.05127E+2
  -6.11218E+2   5.18170E+2
  -5.38483E+2   6.00463E+2
  -5.92750E+2   4.67348E+2
  -4.89930E+2   5.45069E+2
  -4.15579E+2   5.79385E+2
  -4.59168E+2   5.95266E+2
  -3.58959E+2   5.57740E+2
  -3.18331E+2   5.54698E+2
  -2.21513E+2   5.58471E+2
  -3.01797E+2   5.37756E+2
  -1.57212E+2   5.04635E+2
  -1.21246E+2   5.11237E+2
  -1.34226E+2   6.05379E+2
  -1.15040E+2   4.88929E+2
   9.97514E+0   6.08855E+2
  -4.11293E+1   4.99936E+2
   1.01396E+1   4.54008E+2
   8.27851E+1   4.97102E+2
   6.61247E+1   4.83119E+2
   1.21202E+2   4.58730E+2
   2.23102E+2   5.15407E+2
   2.43215E+2   4.97536E+2
   2.37587E+2   5.26557E+2
   2.98590E+2   5.26392E+2
   3.04927E+2   5.48080E+2
   3.60789E+2   5.51095E+2
   3.04091E+2   5.06391E+2
   3.58391E+2   5.94681E+2
   4.08099E+2   5.39467E+2
   4.08809E+2   6.15113E+2
   4.52992E+2   5.66314E+2
   4.03185E+2   5.71243E+2
   4.69579E+2   5.71913E+2
   5.16771E+2   5.71666E+2
   5.08765E+2   5.48286E+2
   5.17564E+2   5.49500E+2
   5.76587E+2   5.38009E+2
   5.85812E+2   5.18252E+2
   5.66912E+2   5.33831E+2
   5.68286E+2   4.77916E+2
   5.45903E+2   5.32825E+2
   5.66333E+2   4.63166E+2
   5.38675E+2   5.54110E+2
   6.51832E+2   5.44075E+2
   5.67724E+2   4.64618E+2
   6.04185E+2   4.53767E+2
   6.38580E+2   5.39657E+2
   6.59717E+2   5.01712E+2
   6.65655E+2   4.58729E+2
   6.02330E+2   4.40663E+2
   5.84445E+2   4.17295E+2
   6.07103E+2   4.47861E+2
   5.47961E+2   4.34908E+2
   6.80913E+2   4.07197E+2
   6.23882E+2   4.21492E+2
   6.51217E+2   4.56485E+2
   6.98157E+2   4.43518E+2
   6.38828E+2   4.39650E+2
   6.76517E+2   4.32665E+2
   7.04249E+2   3.58207E+2
   6.71000E+2   4.34131E+2
   6.46153E+2   3.49873E+2
   7.00979E+2   4.17258E+2
   6.97632E+2   3.77382E+2
   7.11210E+2   3.12970E+2
   6.68064E+2   3.72233E+2
   7.31503E+2   3.14635E+2
   6.88270E+2   3.13402E+2
   6.88057E+2   3.69801E+2
   7.29139E+2   3.43369E+2
   7.16293E+2   2.72517E+2
   7.46253E+2   2.78609E+2
   7.43625E+2   2.80038E+2
   7.64728E+2   3.25831E+2
   7.44033E+2   3.06335E+2
   7.78194E+2   2.21615E+2
   7.97982E+2   2.31597E+2
   8.36153E+2   2.06782E+2
   7.95187E+2   2.84053E+2
   7.19687E+2   1.50772E+2
   7.72749E+2   2.57861E+2
   7.54775E+2   2.59052E+2
   7.39232E+2   2.09414E+2
   7.74328E+2   2.41887E+2
   8.17337E+2   2.21498E+2
   7.92053E+2   1.90481E+2
   8.22964E+2   2.39637E+2
   7.77123E+2   2.01777E+2
   7.25350E+2   2.22253E+2
   7.55919E+2   2.28441E+2
   7.53891E+2   2.03999E+2
   8.04667E+2   2.03543E+2
   8.38409E+2   1.78408E+2
   7.74032E+2   1.90768E+2
   7.37868E+2   2.10097E+2
   8.00900E+2   1.98853E+2
   7.88924E+2   2.39147E+2
   7.96261E+2   2.39576E+2
   7.73406E+2   1.72556E+2
   7.65086E+2   2.37551E+2
   7.92998E+2   2.42957E+2
   7.65661E+2   1.97313E+2
   7.53278E+2   1.94637E+2
   8.07412E+2   1.76388E+2
   8.36526E+2   3.01657E+2
   7.62173E+2   1.78173E+2
   7.77847E+2   2.02272E+2
   7.39042E+2   1.93438E+2
   7.61275E+2   1.92220E+2
   7.25389E+2   1.80752E+2
   8.57441E+2   2.07262E+2
   7.65282E+2   1.64377E+2
   7.41190E+2   1.44957E+2
   8.02340E+2   1.80026E+2
   7.83191E+2   1.78849E+2
   7.03663E+2   1.56028E+2
   7.75115E+2   1.75023E+2
   6.83617E+2   1.81763E+2
   7.47595E+2   1.97641E+2
   6.67682E+2   2.21436E+2
   6.75056E+2   1.83273E+2
   7.03659E+2   1.85398E+2
   6.56186E+2   2.02962E+2
   6.70234E+2   2.00803E+2
   6.62640E+2   1.74847E+2
   6.96796E+2   2.18197E+2
   6.30446E+2   2.69886E+2
   7.03999E+2   2.02274E+2
   6.32910E+2   2.26830E+2
   6.34842E+2   2.43687E+2
   6.94871E+2   1.95804E+2
   6.55818E+2   1.59781E+2
   6.52458E+2   1.35773E+2
   6.63618E+2   2.06331E+2
   6.87858E+2   1.65423E+2
   6.42448E+2   1.83413E+2
   6.25832E+2   1.86014E+2
   5.66106E+2   1.32615E+2
   5.71292E+2   1.33592E+2
   6.09492E+2   1.96512E+2
   5.66260E+2   1.66426E+2
   5.99831E+2   1.16551E+2
   6.11910E+2   1.72872E+2
   5.89275E+2   1.26276E+2
   5.51057E+2   1.20542E+2
   5.75071E+2   9.30404E+1
   5.59926E+2   1.10110E+2
   5.83486E+2   8.84101E+1
   5.56153E+2   8.95351E+1
   5.29508E+2   3.61125E+1
   5.47122E+2   9.16746E+1
   5.50391E+2   6.12770E+1
   5.20018E+2   1.10875E+2
   4.91135E+2   5.29465E+1
   5.94136E+2   6.70042E+1
   5.19354E+2   1.34204E+2
   5.54469E+2   6.14710E+1
   5.49757E+2   9.53177E+1
   5.62200E+2   1.25516E+2
   5.14787E+2   8.90888E+1
   5.08554E+2   7.34550E+1
   4.66976E+2   8.47095E+1
   5.01673E+2   7.80571E+1
   4.84369E+2   6.04371E+1
   5.08679E+2   8.90147E+1
   4.76893E+2   1.38241E+2
   4.99022E+2   9.75753E+1
   4.68716E+2   1.28230E+2
   5.17368E+2   9.91101E+1
   4.85536E+2   2.86486E+1
   5.59361E+2   9.84229E+1
   4.33669E+2   1.03136E+2
   5.19103E+2   8.72327E+1
   4.75621E+2   6.57993E+1
   5.18308E+2   1.30339E+2
