 
 $NMID
 ID=''
 FMTDAT='(2E13.5)'
 TRAMP=   1.00000E+0
 VOLUME=   1.00000E+0
 $END
   5.02847E+1  -2.90946E+2
   6.89600E+2   2.31086E+0
  -1.71879E+3  -9.67466E+2
  -9.45855E+2   4.19656E+2
  -3.84766E+2   6.46178E+2
  -8.50658E+2  -7.66142E+2
  -2.60829E+2   1.14986E+3
  -1.67697E+3   7.31066E+2
  -7.94644E+2   2.27249E+3
  -1.73123E+3   1.73450E+3
   6.61710E+2   9.67346E+1
  -1.53945E+2  -8.21463E+2
   2.31092E+3   2.73652E+3
  -4.58650E+2   3.97652E+3
  -2.54757E+3   3.80839E+2
   8.50182E+1  -1.18198E+3
  -1.27226E+2  -1.29868E+3
   1.98673E+3   9.36529E+2
  -1.52959E+2   4.19404E+3
  -1.55230E+3   5.23622E+2
   3.40980E+1   2.53902E+2
   1.41570E+3   6.58426E+2
   2.41165E+3   1.02974E+3
  -1.22804E+3   1.06247E+3
  -5.35502E+2  -2.99643E+3
   1.41165E+3  -2.33561E+3
   3.28966E+3  -3.92567E+2
  -9.00279E+2   1.96649E+3
  -1.12404E+3  -7.32635E+2
  -1.54049E+3  -5.72774E+3
   2.51896E+3  -4.28124E+3
   1.98463E+3   2.58855E+3
  -2.16913E+2   8.98296E+1
  -2.25534E+3  -3.38748E+3
  -1.80392E+3  -1.88296E+3
  -2.54258E+3   1.55967E+3
   7.67775E+1  -2.57843E+3
  -2.05396E+2  -1.80208E+3
   2.31351E+3   3.07713E+1
   1.61172E+3  -1.21742E+3
   2.40854E+3   8.90318E+2
   1.85004E+3   1.66799E+3
  -1.08569E+3   2.12647E+3
  -2.90847E+3  -2.04985E+3
  -2.05861E+3  -2.18396E+3
  -1.77643E+1  -6.57191E+2
   5.28172E+2   1.25457E+2
  -4.62318E+2  -6.55981E+0
  -3.39589E+2   3.25325E+2
  -3.18716E+1   2.21312E+3
  -1.16620E+3   3.44556E+3
  -2.08781E+3   1.23130E+3
   1.10049E+3  -2.00833E+3
   5.47615E+2  -4.33357E+2
   1.46518E+3   1.20550E+3
  -2.40836E+2   2.28017E+3
   9.80549E+2   4.02319E+2
  -2.29044E+3   4.25788E+3
  -2.85972E+3  -9.20982E+1
  -3.43648E+3   6.15749E+2
  -1.12508E+3  -2.42405E+3
  -1.52383E+2  -3.57160E+3
   1.60327E+3   6.75344E+1
   1.76769E+3   7.94430E+2
  -1.31615E+3  -4.44318E+2
   4.96962E+2   1.19108E+1
   2.47870E+3   1.08818E+2
   8.87092E+2   3.12239E+3
   5.66088E+2   8.70248E+2
  -9.88488E+2   1.91658E+2
   1.51845E+3   9.27057E+2
  -7.61534E+2  -6.87265E+2
   1.41079E+3   1.43235E+3
  -5.00583E+2   7.07381E+2
   2.39622E+3  -5.69411E+2
  -2.23050E+2  -1.89445E+2
   1.10861E+3   7.00818E+2
   1.62789E+3   1.71282E+3
   2.32530E+3   1.07834E+3
   1.08795E+3   9.71994E+2
   5.82293E+2   1.35529E+3
  -1.27922E+3   1.44775E+3
   9.23761E+2   1.34059E+2
  -1.21274E+3   1.00567E+3
   9.44065E+2   1.55085E+3
  -4.45839E+2   1.62450E+3
  -1.83881E+3   2.80927E+2
  -1.18396E+3  -1.12404E+3
   1.19166E+3   2.32102E+2
   5.41714E+2   7.03401E+2
  -8.60368E+2   6.60558E+1
  -1.60169E+3  -1.24341E+3
   1.59798E+3   6.48795E+2
   1.33536E+3   9.34830E+2
   1.23036E+2  -8.45014E+2
  -8.30628E+2   2.44727E+3
   3.29612E+2   1.55839E+2
  -5.31929E+2  -9.67835E+2
   2.16874E+3   3.60827E+2
   7.19242E+2   2.62916E+3
  -1.05514E+2   1.51448E+3
   8.37342E+2   1.69574E+3
   3.54140E+2   1.09721E+3
   1.14791E+3   2.70638E+3
  -8.39050E+2   1.82388E+2
  -6.64625E+2  -6.82818E+2
   2.21696E+3   1.82033E+3
   1.91627E+3  -6.30812E+2
  -1.19261E+3  -9.35363E+1
  -8.62844E+2   1.13003E+2
   1.26581E+3   2.59815E+2
  -9.64745E+2   1.42488E+3
  -8.08674E+2   6.17414E+2
  -2.47200E+2  -5.23828E+2
   2.20077E+3  -1.07726E+3
  -4.64268E+2  -4.78036E+2
   1.00893E+3  -1.22329E+3
   1.34278E+3  -5.28285E+1
  -7.10761E+2   5.12593E+2
  -1.74241E+2  -5.66520E+2
  -1.13935E+3  -6.88949E+2
   3.63477E+2  -1.26884E+3
   6.81445E+2  -1.69479E+3
  -2.85884E+3  -2.68590E+2
  -2.45526E+3   1.29068E+2
   1.12327E+3  -5.86790E+2
   3.09811E+3  -2.44277E+2
  -1.55907E+3   1.76900E+2
   6.69626E+2  -5.84525E+2
   6.25054E+2  -9.54829E+2
   1.22446E+3   1.74294E+3
   1.26936E+2  -1.62562E+2
  -8.25570E+2  -2.77929E+2
   1.67197E+3  -4.08941E+2
  -9.06335E+1   7.77487E+2
  -1.58260E+2   8.78247E+2
  -1.46201E+3  -1.41221E+3
   7.34101E+2   1.76760E+3
  -3.92183E+2   9.99258E+1
   3.11723E+3   6.57594E+2
  -2.92047E+3  -3.77603E+2
   1.44916E+3  -2.61264E+1
   4.11813E+2   4.49099E+2
   9.30071E+2   8.74367E+2
  -6.05690E+2  -2.92858E+2
   1.23552E+3   3.74453E+2
   1.05767E+3   1.83682E+3
   5.47373E+2  -1.38246E+2
   8.34792E+2  -1.41160E+3
  -1.15203E+2  -1.87953E+2
   9.53288E+2   1.81298E+3
  -7.33997E+2  -5.29102E+2
  -3.15597E+3  -1.00702E+3
  -6.76941E+2  -2.21339E+3
  -3.89406E+2  -1.11126E+3
  -4.02406E+2   2.66565E+2
  -2.10313E+3  -2.10698E+3
  -2.06846E+3   4.66800E+2
   2.38850E+2  -8.33226E+2
  -5.79545E+2  -2.07234E+2
   3.33615E+2  -1.33562E+3
   4.26662E+2  -9.70151E+2
   1.41215E+3   2.58655E+2
   9.88099E+2  -2.13329E+3
   4.11952E+2  -1.95366E+2
   8.06632E+2  -1.36645E+3
  -3.58012E+2  -2.38938E+3
   1.74474E+3  -3.16891E+3
   2.86486E+2  -5.67680E+2
  -1.59840E+3   1.90104E+2
   5.70578E+2  -1.19745E+3
   2.07528E+2  -1.48693E+3
  -1.03026E+3  -6.67427E+2
  -6.42588E+2  -1.52787E+3
   1.32473E+3  -2.81616E+2
   3.07546E+3   1.47719E+3
   1.05031E+3   8.08450E+0
   7.44459E+2  -6.98207E+2
   1.00761E+3  -3.50799E+2
  -9.41090E+1   7.61690E+2
   8.62600E+1   8.29643E+2
   2.50027E+2  -4.16008E+2
  -6.45298E+1  -1.10540E+3
  -6.67134E+1   2.87021E+2
   1.87877E+3  -1.77383E+2
   1.22394E+3   5.47718E+2
   1.27367E+3  -1.05942E+2
   6.41434E+2   1.29501E+3
  -5.69142E+2   1.75082E+2
   5.96712E+2  -2.55394E+3
   4.50545E+2  -2.17952E+3
   3.64371E+3  -1.46690E+3
  -8.65574E+2   3.02842E+2
   6.42965E+2   6.94231E+2
  -1.14651E+2  -1.46723E+2
  -9.73981E+1   9.37690E+1
  -7.54733E+2  -1.98693E+3
  -8.39332E+2  -1.38895E+3
   1.09936E+3  -2.48595E+3
   7.92386E+2  -5.56138E+2
   1.47445E+3   1.36048E+3
   1.21070E+2  -1.76083E+2
   2.02150E+3   7.03287E+2
   9.37378E+2  -8.23712E+2
  -1.08134E+3  -9.95857E+1
   7.51380E+2  -1.92180E+3
   3.10461E+2   1.87116E+3
   2.77889E+2  -2.69767E+3
  -9.43337E+2   6.21175E+2
  -5.83703E+2   4.19034E+1
   9.97485E+1   2.65489E+2
   1.93665E+2   1.78013E+2
  -7.43918E+2  -6.82837E+2
   1.17718E+3  -1.53473E+3
   2.45641E+3  -3.98432E+2
  -3.40357E+2  -1.33277E+3
   7.19763E+1   8.55747E+2
   1.82879E+3  -1.64496E+2
   2.22624E+2  -2.60891E+2
   4.94215E+2   3.37909E+2
  -3.07413E+2   1.07359E+3
  -1.91209E+3  -8.81472E+1
  -1.00310E+3   7.26823E+2
   7.21125E+2  -2.03909E+2
  -2.24784E+3   3.35655E+2
  -1.43438E+3   5.47494E+2
  -4.89887E+2  -1.33396E+3
   6.89908E+2   8.34038E+2
  -2.11183E+3   6.59155E+1
   8.73668E+2  -8.51749E+2
  -7.05483E+2   2.61444E+3
  -2.69078E+2   6.84048E+1
  -3.44940E+3  -1.26675E+2
  -1.06594E+3  -5.83863E+2
   8.86311E+2  -9.07592E+2
  -2.74244E+2   2.68735E+2
  -3.01273E+2  -2.06919E+3
  -3.42476E+2  -6.30565E+2
   8.16079E+2   4.14180E+2
   1.68909E+3  -1.05314E+3
  -1.12874E+3  -2.63072E+3
   1.05170E+3   1.92534E+2
  -4.88130E+2   2.53159E+2
  -2.38841E+3  -8.60951E+1
   9.41330E+2  -1.86035E+3
   1.99235E+2  -1.46840E+3
   3.75354E+2  -1.51475E+3
   4.03954E+2   3.24413E+2
  -1.45895E+3  -8.10222E+2
   8.59376E+1  -9.33343E+2
  -1.34665E+2  -2.24281E+3
   9.40590E+2   1.43887E+3
   1.92442E+3   9.69522E+2
   5.77879E+2   1.00519E+3
  -7.36962E+2   1.38540E+3
   8.50946E+2   1.08759E+2
   9.72810E+1   1.29708E+3
  -3.61066E+2   3.78740E+2
   8.74983E+2   8.22792E+2
  -5.56317E+2   5.53743E+2
   9.73089E+2   2.23722E+2
  -1.45751E+3   1.19608E+3
  -1.57867E+3   1.93648E+2
  -4.90536E+2   1.51342E+3
   7.47486E+0  -1.25727E+3
  -7.29189E+2   6.18698E+2
  -2.06965E+3   1.73349E+3
   6.56430E+2  -1.43818E+3
   5.87853E+2  -4.27029E+0
  -6.02164E+2   4.02660E+2
  -8.86281E+0  -5.59873E+2
  -9.43682E+1  -1.68553E+2
   2.14430E+3   2.55725E+2
  -8.12765E+2  -5.41008E+2
  -1.78936E+2  -8.20757E+2
  -1.16111E+3  -6.44001E+2
  -4.35991E+2   5.39498E+2
   7.62981E+2   1.06077E+2
   9.09254E+2   8.11426E+2
  -1.71900E+2  -1.36202E+3
   1.03398E+1  -1.76193E+3
  -4.01559E+2  -1.00703E+3
   3.33579E+2  -1.28846E+3
   2.12023E+3  -1.13252E+2
   7.23301E+2  -1.03541E+3
  -2.70964E+2   5.46659E+2
   8.38952E+2  -9.95943E+2
   1.22029E+3   1.47194E+3
   7.99157E+2   1.27468E+3
   3.32284E+2  -2.31268E+2
   9.13805E+2  -1.50963E+3
  -2.60304E+2   9.49987E+2
   2.19175E+3  -7.01813E+2
   4.30607E+2   5.57772E+2
   1.06773E+3   1.57797E+3
   6.96487E+1  -1.66116E+3
   1.36497E+3   4.69329E+2
   5.74282E+1  -1.70384E+3
   2.21742E+2   1.73458E+2
   1.08162E+3   1.25880E+3
  -1.03626E+3  -1.16978E+3
  -1.14611E+3  -4.92973E+2
  -3.28104E+1  -5.09171E+2
  -1.76442E+3   1.37563E+2
  -8.51027E+2   1.08765E+3
   9.21892E+2  -5.93924E+2
  -1.78567E+3  -6.39868E+2
   1.35350E+3  -7.72429E+2
   8.31101E+2  -7.81539E+2
   6.95973E+0  -2.35858E+2
  -5.70979E+2  -9.17236E+1
  -1.22737E+3   3.15532E+2
   8.62798E+2  -1.52394E+3
   7.39040E+2  -6.89829E+2
   3.47269E+2  -1.18898E+3
  -7.06669E+1  -1.69816E+2
   1.62447E+3  -1.16734E+3
   8.04943E+2  -3.35400E+1
   1.20904E+3  -1.60350E+3
   1.05376E+3   2.25538E+2
  -9.21636E+2  -1.16507E+3
   3.53374E+1  -4.71687E+1
  -1.09045E+3  -5.78377E+2
  -1.61765E+3  -2.25063E+3
   3.63536E+2  -4.61650E+2
   2.55870E+3  -1.22332E+3
   9.59945E+2   4.92568E+2
  -7.64170E+2   7.06403E+2
  -1.42355E+3  -7.92558E+2
  -1.20279E+3  -3.74332E+2
  -1.44803E+3  -1.63456E+2
   1.57695E+3   2.57221E+2
   1.99125E+3  -1.84755E+3
   4.36681E+2  -2.12482E+3
   8.77411E+2  -6.92898E+2
   1.02375E+3  -1.43515E+3
   7.51272E+2   6.48693E+2
   1.10504E+2   2.97630E+2
   9.60447E+2   6.70758E+2
  -1.36902E+3   1.92187E+3
  -1.05983E+2   1.40949E+3
   4.59214E+1   1.02037E+3
  -2.32832E+1  -8.58251E+2
  -4.78710E+2   3.00611E+3
   2.68462E+2  -1.13716E+3
   2.83747E+2   1.58950E+2
  -3.54837E+2  -2.64653E+3
  -3.14477E+2  -7.22498E+2
  -4.50716E+2  -3.25072E+2
  -1.32879E+3   1.14042E+3
  -6.83627E+2   1.68266E+3
   1.00330E+1  -4.67394E+2
   1.75480E+2   1.50441E+3
  -2.10953E+3  -2.03842E+3
  -5.93355E+2  -1.65762E+3
   1.34055E+2  -4.97615E+2
  -2.50573E+3   3.52861E+2
  -1.40496E+3   1.12239E+3
  -1.03189E+3  -1.14926E+3
  -3.08595E+2  -1.39101E+2
   4.49836E+2  -6.88422E+2
  -1.78575E+3  -1.71702E+3
   2.25836E+2  -2.52220E+2
  -1.89689E+2  -9.28778E+2
   6.61796E+2  -9.00990E+2
  -2.03839E+2  -8.87174E+2
  -5.89641E+2   1.79753E+3
