 
 $NMID
 ID=''
 FMTDAT='(2E13.5)'
 TRAMP=   1.00000E+0
 VOLUME=   1.00000E+0
 $END
   2.76434E+2   3.67858E+2
   1.29310E+2   3.05329E+3
   5.79715E+3  -9.84157E+2
   5.18780E+3  -3.39138E+3
   7.29555E+2  -6.72425E+3
  -2.60491E+3  -5.47554E+3
  -5.05798E+3  -2.86893E+2
  -5.36536E+3   1.73004E+3
  -2.03169E+2   1.22573E+3
   8.94415E+2   1.13749E+3
   4.42007E+3  -1.35661E+3
   5.87207E+3  -5.16516E+1
   2.50648E+3   1.39995E+3
  -2.07709E+3   1.63048E+3
  -8.51536E+2  -2.48649E+3
   2.62233E+3  -1.19251E+3
   4.55914E+3  -2.62908E+3
   2.27715E+3  -5.82703E+0
  -2.46411E+3   1.28661E+3
   7.17294E+2  -2.77035E+3
   5.16593E+3   6.52255E+2
   2.63359E+3   2.84280E+3
  -1.24390E+3   7.25010E+3
  -1.96956E+2  -1.30249E+3
   3.24423E+3  -6.77192E+3
   1.90038E+3   1.12560E+3
   3.94012E+2   2.44698E+3
  -3.06194E+3   3.23376E+2
  -3.77019E+3  -4.82424E+3
   1.58454E+3  -4.53750E+3
   4.00149E+3   3.79602E+3
  -2.17958E+3   7.89454E+3
  -9.08632E+3   3.55793E+3
  -4.23293E+3   2.68233E+1
  -4.97996E+3   4.06363E+3
  -6.52373E+3   1.01982E+3
  -2.93971E+3  -2.06546E+3
   2.41171E+3   1.59847E+3
   1.07777E+3   6.16533E+3
  -1.66796E+3   5.70793E+3
   1.22490E+3   7.45801E+3
  -4.64342E+3   3.92459E+3
  -3.24655E+3  -1.85238E+3
   3.28160E+3  -4.23200E+3
   6.62155E+3  -7.37906E+2
   1.62569E+3  -8.44691E+2
   1.88891E+3  -1.86979E+3
   2.02204E+3   1.80078E+3
  -1.26118E+3   2.27468E+3
  -2.79394E+3  -9.79500E+2
  -5.92703E+3  -9.81209E+2
  -3.30851E+3  -4.81553E+3
   1.59763E+3  -2.20462E+3
   8.78574E+2   1.01189E+3
  -4.78505E+2   3.69797E+3
  -2.59439E+3   2.85547E+3
  -3.85604E+3   3.58349E+3
  -7.02461E+3   1.77314E+3
  -5.37806E+3  -4.97820E+3
   7.84349E+2  -6.08910E+3
   2.02486E+3  -6.35458E+3
   8.00332E+3  -1.68114E+3
   3.85902E+3   1.01507E+3
  -2.41533E+3   1.59679E+3
   2.45819E+3  -1.05866E+3
   4.79714E+3   1.52831E+1
   9.40587E+2   4.84351E+3
  -2.92519E+3   2.72456E+3
  -2.45871E+3   2.77452E+2
   3.60316E+2   2.23404E+2
   3.37613E+2   1.20057E+3
  -6.08641E+2   1.12418E+3
  -1.32154E+3  -4.02354E+2
   1.90277E+3  -3.57547E+3
   1.40240E+3  -1.66472E+3
   2.41190E+3  -2.94554E+2
   2.42533E+2  -1.77647E+3
  -6.30718E+2  -1.60738E+3
   2.76980E+3  -1.67458E+3
   2.42973E+3   1.01907E+2
   1.85714E+3   2.70045E+3
  -1.33421E+3   7.57209E+2
   8.13198E+2   1.86052E+2
   4.09138E+2   3.87002E+3
  -1.69236E+3   4.20844E+3
  -3.21975E+3   1.82983E+3
  -2.69961E+3  -3.14910E+3
   5.55417E+2  -4.52835E+3
   1.93189E+3  -3.79723E+3
   1.06848E+3   1.06301E+3
   2.11898E+3  -3.73982E+2
   1.35667E+3  -9.42245E+2
   1.99299E+3   2.10049E+3
  -2.64934E+3   1.82184E+3
  -2.26095E+3   5.66344E+2
  -1.18469E+3  -3.88496E+3
   2.06467E+3  -2.27158E+3
   3.14247E+3   1.11322E+2
  -7.36015E+2   1.02248E+3
  -3.36048E+3  -1.70617E+3
  -1.63243E+3  -3.63001E+3
   3.46985E+3  -1.76416E+3
   2.86238E+3   1.40334E+3
  -6.99842E+2   1.70748E+3
  -2.13678E+3   3.02276E+3
  -1.11223E+3   1.17177E+3
  -2.37169E+3   2.24708E+3
  -3.79755E+3  -3.84457E+2
  -3.41673E+3  -3.08933E+3
   1.20379E+3  -5.32132E+3
   1.44615E+3  -4.58667E+3
   4.75785E+3  -1.55335E+3
   2.16073E+3   2.81832E+3
   1.27721E+3   5.55959E+2
   1.40997E+3   6.42187E+2
  -1.33098E+3   1.47529E+3
  -1.35505E+3  -5.50432E+2
  -2.71715E+2  -2.05974E+3
  -7.95526E+2   3.39259E+2
   2.43412E+3  -1.01670E+3
   6.16085E+2   1.44002E+3
  -1.65362E+3   3.12565E+3
  -3.67599E+3  -1.24592E+3
   1.03002E+3  -1.01824E+3
   1.29316E+3   3.49738E+2
  -2.21843E+3   5.63800E+1
   1.12448E+3  -1.25716E+3
   1.25743E+3  -3.16012E+3
   2.57906E+1  -2.42089E+2
  -1.09051E+3   2.05140E+2
   6.00739E+2  -4.06188E+2
  -2.00166E+2  -2.67650E+3
   3.16155E+3  -2.15450E+3
   3.40004E+3   8.13815E+2
  -8.53568E+1   2.44845E+3
  -2.13609E+3  -7.42752E-1
  -2.12824E+3  -3.09685E+3
   8.02116E+2  -1.40525E+3
  -2.81156E+2  -2.85912E+3
   2.96828E+2   5.34285E+2
   1.75999E+3  -1.91434E+3
  -3.65766E+2  -1.76236E+3
   4.41748E+3  -9.69626E+1
   2.36817E+3   2.25186E+3
  -2.36136E+3   1.35114E+2
   1.20312E+3  -2.63282E+3
   2.79109E+2   6.89815E+2
   3.43743E+2   7.46616E+2
  -9.57653E+2   1.20394E+2
   1.71214E+3   2.72311E+3
  -5.28137E+2   1.03656E+3
  -1.18908E+2  -6.23551E+2
  -1.38580E+3  -3.52570E+3
  -1.41814E+3  -3.70035E+3
   2.19266E+3  -1.03442E+3
   2.08906E+3   8.78574E+2
   3.51008E+2   1.67059E+3
   1.23373E+3   1.18004E+3
   8.19314E+1   1.14066E+3
  -1.76138E+3  -1.15738E+3
  -9.11884E+2  -4.30405E+2
  -1.25665E+3   1.09908E+3
  -1.16416E+2  -1.41423E+3
   6.28608E+2  -8.79541E+2
  -9.65602E+2   1.00452E+3
   9.83178E+1   2.58046E+1
  -3.29534E+3  -3.27020E+3
   1.38444E+3  -2.25555E+3
   2.76409E+3   2.60612E+2
   3.27350E+2   3.52328E+3
  -2.60986E+2   4.66599E+2
  -1.95028E+2  -8.70849E+2
  -1.62018E+3  -9.27499E+2
   6.94155E+2  -1.10230E+3
  -7.30567E+2   7.67029E+2
   6.67397E+2  -2.64368E+3
  -1.56442E+2  -1.54357E+3
   1.63610E+3   1.84210E+3
   1.37049E+3   9.63967E+2
   1.34288E+3   3.57514E+3
  -1.49606E+3  -7.89767E+1
  -2.14581E+2  -2.03724E+2
   6.07911E+2  -2.85418E+2
   7.60078E+2  -3.56719E+1
   2.23222E+3   9.86250E+2
   2.22341E+3   1.54696E+2
  -3.90707E+2   1.37859E+3
  -2.05045E+3  -7.39042E+2
  -2.03342E+3  -2.88093E+2
   1.05688E+3  -1.25168E+3
   1.81232E+3  -1.18660E+3
   2.04882E+3   1.03267E+3
   2.51948E+3   1.15986E+3
   6.36423E+2   9.85687E+2
   2.54455E+2  -6.13774E+2
   1.08833E+3   9.26422E+2
   1.89319E+3   1.73313E+2
   3.17117E+2   8.13847E+2
  -1.50103E+3  -5.33308E+2
   2.93412E+3   2.74058E+3
   4.42635E+1   3.36771E+3
  -3.77016E+3   1.82273E+3
  -1.68811E+3  -6.40849E+2
  -3.78548E+2  -2.32857E+3
   2.17474E+3   9.76722E+1
  -3.56836E+2   1.45874E+3
  -1.24497E+3   7.50415E+2
   1.81130E+2  -1.09243E+3
   2.53850E+3   1.61933E+2
   1.29720E+3  -3.94392E+2
  -1.76210E+3   1.47154E+3
  -5.38154E+2  -6.45807E+2
  -5.67362E+2  -1.42287E+3
   1.39776E+3  -8.97538E+2
   4.34503E+2  -8.26132E+1
  -6.06272E+2   4.99897E+2
  -1.40169E+3  -5.44061E+2
   1.77253E+3   6.63694E+2
  -2.43024E+3  -1.05863E+3
   5.61788E+2   1.12001E+3
  -4.51122E+2  -1.64160E+3
   7.04476E+2  -2.22792E+3
  -2.22896E+3  -6.96624E+2
  -1.73768E+2  -5.98839E+2
   3.46159E+3  -1.66315E+3
   2.31154E+2   8.57311E+2
   1.90135E+3   2.74833E+1
  -1.18509E+3   1.06553E+3
   3.09935E+2   2.99593E+2
  -9.23069E+2   1.38138E+3
  -9.46840E+2  -1.82759E+3
  -8.18951E+2  -3.19890E+3
  -8.14618E+2  -1.31742E+1
  -2.38429E+3   1.11850E+3
   1.25523E+3  -1.10690E+3
   7.41482E+2  -1.55177E+3
   1.10414E+3   2.38668E+3
  -1.13633E+2   1.64843E+3
  -8.60984E+2  -1.38968E+3
   2.93526E+2  -1.85731E+3
   2.81837E+3   1.18652E+3
  -4.51027E+2   1.24979E+3
  -2.77485E+2   4.08206E+2
  -1.63490E+3  -1.05095E+3
   1.66923E+2   1.31796E+2
  -7.47215E+2  -1.23350E+3
  -1.48528E+3  -1.00594E+3
  -1.64574E+3  -1.10370E+3
   1.99678E+3  -6.75985E+2
   3.08094E+3   1.28148E+3
   2.16966E+1   2.95364E+3
  -2.53541E+2   6.12980E+2
  -1.36207E+2  -7.17411E+2
   1.94687E+2  -2.06467E+3
   9.28216E+1  -1.39250E+3
   1.88466E+3  -1.01840E+3
  -4.11297E+2  -8.60392E+2
   1.23859E+3  -1.48197E+3
   1.77328E+3   1.01990E+3
  -1.03430E+3  -4.56918E+2
  -1.87151E+3  -2.04147E+3
   4.29162E+1  -2.06355E+3
   1.61794E+3  -3.03813E+2
   5.87911E+2   1.58406E+2
   4.88294E+1   9.47231E+2
  -1.26664E+3   1.24330E+2
   1.67422E+3  -2.07734E+3
  -1.58322E+3   1.29654E+3
  -9.89240E+2  -1.09120E+3
  -1.22211E+3  -1.01899E+2
  -2.78533E+2  -3.79904E+3
   1.67061E+3   8.93386E+2
   9.81029E+2   1.25900E+3
  -1.27477E+3  -4.43243E+2
  -7.28779E+2   4.07396E+1
  -1.56356E+3  -7.80255E+2
   4.81786E+1  -1.81891E+3
   8.35838E+1   1.34024E+3
   9.72306E+2   9.61071E+2
   1.44029E+3  -4.91460E+2
   2.19271E+3  -7.04551E+2
  -9.47011E+2   3.12999E+3
  -1.65910E+3   4.87132E+2
   9.51140E+1   5.59892E+2
  -5.84079E+2  -2.47597E+3
  -1.36328E+3   3.67858E+2
  -2.08959E+3  -1.46885E+3
  -3.99752E+2  -6.05474E+2
  -1.99766E+1  -1.88313E+3
   4.60754E+2   3.40585E+2
   8.33948E+2  -9.84253E+2
  -1.53451E+2   2.10342E+2
   1.14955E+3  -2.42371E+2
   2.80018E+2   9.21422E+2
   7.82751E+2   7.32504E+2
  -9.33047E+1   7.81057E+2
  -1.31149E+3   3.27532E+2
  -1.77234E+2  -2.68409E+3
   2.03002E+3  -3.83572E+2
   4.26474E+1   1.56443E+3
  -1.81013E+3  -1.42079E+3
   3.15451E+2   8.52588E+2
   9.89537E+2  -2.98095E+2
   1.53775E+2   1.13841E+2
  -1.59966E+3   2.21564E+2
  -1.71378E+3  -2.72383E+3
   2.02934E+2  -1.23589E+3
   3.48051E+3   1.25861E+3
  -5.57474E+2   1.11719E+3
  -1.39198E+3   1.74548E+1
  -1.34484E+3  -1.51272E+3
   3.45523E+2   1.44907E+3
  -3.78429E+2  -7.46563E+1
   3.30982E+1  -6.04755E+2
   7.92621E+2   7.59944E+2
   1.27999E+3  -1.18104E+3
   9.96006E+2   2.38898E+2
  -1.12001E+3   2.36296E+3
  -1.64830E+3   8.30027E+2
  -7.21898E+2  -2.62475E+3
   7.81166E+2  -1.86800E+3
   1.86193E+3   9.63144E+2
   1.52747E+3  -3.92304E+2
  -1.27823E+3  -1.49572E+3
  -5.77056E+2  -1.26848E+2
  -1.14308E+3  -2.07777E+2
  -2.02504E+3   7.50050E+2
  -9.87850E+2   1.01509E+3
   2.96124E+2  -8.99567E+2
   1.66737E+3  -2.09531E+2
   2.61198E+3   3.53897E+3
   7.07506E+2   2.48787E+3
  -9.72042E+2   4.45744E+2
  -2.93129E+2  -1.12832E+2
  -6.96537E+2   1.44209E+3
  -3.72277E+2  -1.47252E+2
  -5.56725E+2  -1.71615E+3
   1.30765E+3  -1.12276E+3
  -5.54257E+2   1.84392E+3
   2.90146E+2   1.21507E+2
  -7.30026E+1  -7.77254E+2
   2.30424E+3  -6.71895E+2
   1.73379E+3   7.16580E+1
   7.69222E+2  -9.84335E+1
   1.52905E+3  -1.39623E+2
  -1.76991E+2  -1.59116E+3
  -3.84697E+2  -2.75625E+2
   4.36361E+2   4.00731E+2
   4.55615E+2  -3.85689E+2
  -1.61458E+3   1.45246E+3
  -1.13295E+3  -2.23356E+3
   6.27123E+2  -7.67764E+2
  -1.35282E+2   2.55632E+2
  -7.51567E+2  -3.67168E+2
  -7.54511E+2   3.50022E+1
   8.19495E+2  -6.11628E+2
   1.51225E+3   2.42745E+2
   1.61072E+3   8.82930E+2
   4.46111E+2   2.02047E+3
  -3.36886E+2   1.32696E+2
   2.33208E+3   1.19834E+3
  -1.64446E+3   8.12697E+1
  -5.18390E+2  -1.71693E+3
  -1.09842E+3  -5.53097E+2
  -2.51925E+2  -9.43940E+2
   4.27119E+2  -4.99092E+2
  -3.05159E+0   1.30975E+3
