 
 $NMID
 ID=''
 FMTDAT='(2E13.5)'
 TRAMP=   1.00000E+0
 VOLUME=   1.00000E+0
 $END
   4.72721E+2   4.83850E+2
  -2.86262E+2   1.74636E+3
   4.27207E+3  -1.78108E+3
   9.60859E+2  -2.11263E+3
  -2.87234E+3  -2.95824E+2
   2.98323E+3   4.80421E+2
  -1.67572E+3  -3.18050E+2
  -2.03641E+3  -1.42411E+3
   1.24610E+3  -1.22637E+3
   1.56950E+3  -2.28751E+3
   1.21113E+3  -7.53328E+2
   3.17782E+3   3.04811E+3
  -8.89894E+2   3.75766E+3
  -4.05623E+3   3.59168E+2
   4.91654E+2  -3.52940E+3
   4.59908E+3  -2.52890E+3
   5.70475E+3   7.74293E+2
   1.58856E+3  -1.66856E+2
  -4.08711E+3  -2.50980E+3
   1.54977E+2  -6.78997E+3
   2.54386E+3  -2.10844E+3
   5.62288E+1   3.92523E+3
  -7.40370E+3   9.00831E+2
  -3.81236E+3  -4.35914E+3
   6.61385E+2  -7.04259E+1
  -2.01953E+3   3.61917E+3
  -3.87619E+3   7.02978E+2
  -2.15138E+3  -3.22096E+3
   1.36995E+3  -3.35322E+3
   4.94455E+3   1.75622E+2
   1.73782E+3   7.48334E+3
  -7.14009E+3   6.72604E+3
  -6.68078E+3  -1.03529E+3
  -4.41208E+2  -6.88977E+2
  -2.51765E+3   1.06112E+3
  -2.03269E+3  -5.39687E+3
   3.07641E+3  -4.44823E+3
   4.14134E+3   1.88586E+3
   2.30875E+2   4.69623E+3
   1.44942E+2   1.50459E+3
  -3.38579E+3   4.42272E+3
  -5.59981E+3  -3.10354E+2
   1.00802E+3  -8.32203E+3
   5.66197E+3  -3.98286E+3
   3.97078E+3   5.80914E+2
   2.05669E+3  -6.15162E+2
   1.37801E+3   2.14329E+3
  -1.52274E+2   1.73369E+3
  -1.98213E+3   9.19678E+1
  -1.98825E+3   1.03904E+2
  -3.95594E+3  -2.09722E+3
   9.71759E+2  -2.49044E+3
   5.05517E+3  -1.08359E+3
   2.08670E+3   2.69343E+3
   2.04083E+3   3.99016E+3
   8.01741E+1   2.96942E+3
  -4.52542E+1   2.35519E+3
  -3.21274E+3  -4.51647E+1
  -1.05235E+3  -4.82911E+3
   3.69473E+3  -4.19233E+3
   6.78593E+3   1.56533E+2
   7.12196E+3   2.25418E+3
   4.69881E+3   3.01005E+3
   1.85539E+3   1.46818E+3
   1.39599E+3  -5.77977E+2
   8.18118E+2   3.34231E+3
  -2.25647E+3   5.56479E+3
  -3.84700E+3   4.00812E+3
  -1.23443E+3  -6.52830E+2
  -1.47089E+3   4.30788E+2
  -1.32187E+3   2.99520E+3
  -2.94130E+3   2.11112E+2
  -2.33608E+3   1.15067E+2
  -3.05795E+3  -4.65338E+2
   7.48428E+1  -3.70606E+2
   1.18605E+3   6.86398E+2
   1.09616E+3   2.38565E+2
   1.06103E+3  -4.75570E+3
   4.00758E+3  -1.11633E+3
   1.82586E+3   1.64360E+3
   9.81498E+2   1.03062E+3
   4.13750E+2  -1.92805E+2
   3.38579E+2   2.05235E+3
   1.22956E+2   2.39625E+3
  -1.53976E+3   1.06488E+3
  -2.69407E+3  -2.02863E+3
  -7.78962E+2  -5.04586E+3
   3.92895E+3  -1.42822E+3
   3.52679E+3   2.79794E+2
   4.51689E+2  -3.66277E+2
  -1.15203E+3   3.35138E+2
   1.99630E+3  -1.28328E+2
   6.03973E+2   2.46524E+3
  -1.88757E+3   3.38329E+3
  -5.93299E+3  -1.97149E+3
  -2.80070E+3  -9.87265E+2
   1.18091E+2  -3.81384E+2
   1.02815E+3   3.22263E+3
  -1.62505E+3   1.15615E+3
  -2.76201E+3  -3.01720E+3
  -4.34056E+2  -5.93641E+3
   3.87748E+3  -3.30293E+2
   1.12337E+3   2.07064E+3
  -3.01099E+3   2.00758E+3
  -1.93881E+3   2.31962E+3
  -1.17987E+3   1.43539E+3
  -4.37780E+2   1.99081E+3
  -1.79882E+3   8.81292E+2
  -1.50895E+3  -2.51394E+3
  -6.94654E+2  -5.17602E+3
   1.28619E+3  -3.44397E+3
   7.60956E+1   6.47313E+2
  -2.22268E+3   7.57837E+2
   3.57196E+2   5.37290E+1
  -1.15458E+3   3.02589E+3
  -3.45391E+3  -1.28643E+3
   3.58224E+1  -2.46398E+3
   9.66525E+2  -4.70322E+2
   2.96595E+1  -3.28417E+3
   2.85952E+3  -7.86993E+1
   6.74142E+2   1.92414E+3
  -3.33925E+3   1.18946E+3
  -1.99462E+3  -4.42471E+3
   1.02717E+3  -1.30085E+3
   1.03702E+3  -1.57606E+3
  -1.51805E+3  -7.05586E+2
  -2.50857E+2   9.86613E+2
  -4.36901E+2   4.79602E+2
   5.33032E+1   1.13466E+3
  -7.40003E+2  -8.58901E+2
   3.33745E+2   1.98192E+2
   1.57921E+3  -1.51548E+2
   2.43281E+3   2.56415E+3
   1.69994E+3   2.10991E+3
  -2.67277E+2   1.86925E+3
  -1.13992E+3   6.87402E+2
  -2.56328E+3  -2.59429E+2
  -8.21990E+2  -8.95492E+2
  -8.63324E+2  -1.02741E+3
  -1.11717E+3   1.55133E+1
   1.40500E+3  -1.03297E+3
   9.20836E+2  -1.50787E+3
   1.50162E+3  -1.24523E+2
  -1.40527E+3   7.83996E+2
  -2.61486E+3  -1.89792E+3
  -8.03511E+2  -1.63536E+3
   1.02429E+3  -5.97457E+2
  -1.03821E+2   4.33826E+2
  -2.46245E+2  -3.08610E+2
  -8.81151E+2   2.86963E+2
  -1.16165E+3   1.58927E+3
  -1.85702E+3  -1.58938E+3
  -1.18540E+3  -1.73565E+3
   1.04342E+3  -2.97788E+3
   3.57294E+2  -5.97774E+0
  -1.40753E+3   1.62886E+2
   1.28605E+3   3.10093E+2
  -1.84780E+3   1.91520E+3
  -1.59828E+3  -8.99186E+2
  -5.25418E+2   3.80836E+2
  -4.04966E+2   3.28826E+2
  -5.37221E+2  -4.81310E+2
  -1.08891E+3  -1.07640E+3
   8.93364E+2  -1.23542E+3
   5.41193E+2   5.72398E+2
   3.89918E+2   1.76057E+2
  -2.55351E+1  -9.55193E+2
  -7.42952E+2  -7.16043E+2
  -7.25981E+1  -2.60257E+3
   1.10192E+2   4.93771E+1
  -5.11000E+2  -4.74432E+2
  -1.08779E+3   1.68201E+3
  -2.49148E+3  -3.96478E+2
  -5.98358E+2  -7.93307E+2
   2.23875E+2   5.09139E+2
   1.39563E+3  -2.32700E+2
   1.35807E+3  -1.26477E+3
   3.64557E+3  -2.25735E+2
   2.45650E+3   2.02921E+3
   1.06252E+3  -6.37539E+2
   3.01889E+1  -3.90280E+2
  -6.10375E+2  -1.40212E+3
   4.06166E+2   9.94801E+2
  -5.94422E+2   3.56919E+2
   2.28453E+2   1.18045E+3
   7.32310E+1  -2.89327E+2
   1.12603E+3  -6.74990E+1
   1.47094E+3   1.01761E+3
  -2.78517E+2   1.18991E+0
  -1.91037E+2  -1.41292E+3
   1.13827E+3   8.78802E+2
   2.14721E+3  -9.75668E+2
  -1.51903E+3  -1.46367E+3
  -2.35506E+3   3.54969E+2
   1.44460E+3  -2.72190E+2
   1.02242E+3   1.40011E+3
   9.75898E+2   7.63797E+2
  -2.03162E+2   9.54988E+2
   8.25145E+2  -1.16028E+2
   1.11460E+2   9.49056E+2
   1.42470E+2  -1.41560E+3
   1.13385E+3   8.19585E+2
  -7.64722E+2  -5.81374E+2
   7.72068E+1  -4.52398E+2
   1.16705E+3  -7.12681E+2
  -2.27608E+3   8.74522E+2
   6.79032E+2  -2.22319E+1
   1.43346E+3   1.12303E+3
   1.02758E+3  -4.05888E+2
   9.65379E+2   7.47709E+2
   3.30607E+3   5.31360E+2
   5.97093E+1  -9.29223E+2
   1.94018E+2  -1.74638E+3
   3.31555E+2  -5.51913E+2
  -1.85294E+2   8.61117E+2
  -5.69375E+2   1.64934E+3
  -1.83198E+3  -6.20310E+2
   1.83945E+2   4.60636E+2
   6.76525E+2  -3.43598E+2
  -8.69137E+2   5.78950E+1
  -4.41599E+2   1.14699E+3
  -9.12236E+2  -4.64785E+2
   1.16846E+2  -7.27191E+2
   4.96519E+2  -7.42567E+2
  -2.44379E+2  -8.91809E+2
  -5.14389E+2  -7.68864E+2
  -8.26982E+2  -7.35602E+1
   1.46375E+2   4.32138E+2
   3.05397E+3   1.89335E+3
   2.37771E+2   3.33342E+2
   6.19201E+2  -2.53711E+3
   1.43336E+3  -3.64137E+2
  -7.47766E+1  -8.90646E+2
   1.20828E+3  -1.28583E+3
  -5.97176E+2  -3.30035E+1
   1.63055E+3   1.05059E+3
   2.27422E+2  -4.34460E+2
  -8.35763E+2   1.11084E+3
  -4.04033E+2   1.58745E+3
  -1.18426E+2  -9.32775E+2
  -5.03788E+1   4.59465E+1
   1.38612E+3  -1.26147E+3
  -7.68872E+2  -1.26953E+3
   3.65410E+2  -1.22022E+2
   6.56970E+2   3.04047E+2
   1.08231E+2   1.25856E+3
  -9.53662E+2  -1.12303E+3
  -1.08805E+3  -2.66271E+2
   7.63163E+2  -9.77911E+2
  -1.30687E+1  -5.84788E+2
   5.32492E+1   5.99881E+2
   1.62742E+3  -1.91647E+3
   7.95276E+2  -1.52810E+3
   1.61899E+3   3.89259E+2
   2.73523E+2  -9.66445E+2
   6.98241E+1   7.77562E+2
   4.75537E+2  -8.32289E+1
   1.36472E+2   5.49592E+2
  -1.65505E+3  -7.15261E+2
  -2.01300E+2  -5.87733E+2
  -1.39509E+3  -9.80538E+2
   2.81767E+2   1.75475E+1
   1.13071E+3  -2.74143E+3
   7.14242E+2   1.13776E+3
   1.32875E+3   3.02022E+2
  -5.09362E+2  -1.30227E+3
   1.57750E+2   5.98769E+2
  -8.79859E+2  -9.76401E+2
  -3.24435E+3  -1.09553E+3
  -5.01497E+2   1.01129E+3
   4.10885E+2   1.48032E+2
  -5.43733E+2   5.04348E+2
  -1.63889E+2  -3.00535E+2
  -1.39166E+3  -2.71119E+2
   7.34860E+2  -6.53664E+2
   7.42148E+2   9.88380E+2
   9.73584E+2   8.24944E+1
   9.49162E+2  -4.96677E+2
   8.57742E+2   1.58199E+3
  -2.28928E+2   1.12689E+3
   5.82845E+2   1.24971E+3
   6.40234E+2   5.16851E+2
   1.17178E+3   1.75051E+3
   4.11122E+2  -9.45767E+1
  -1.48131E+3  -5.14768E+2
  -1.04745E+3   1.13630E+2
  -9.76932E+1  -3.85668E+1
  -1.34684E+3  -7.00798E+2
   1.59522E+3   9.64583E+2
  -3.00559E+2  -4.95356E+2
  -1.18580E+3   9.32281E+2
   1.19544E+3   1.76785E+3
   9.05135E+2   2.01929E+3
  -2.81758E+3   4.67438E+2
  -2.19552E+3   2.69759E+2
  -5.61748E+2   1.14317E+3
  -4.26404E+2  -2.33879E+2
  -1.89015E+3   1.25432E+3
  -1.29400E+3  -2.85535E+3
  -5.51139E+2   2.23661E+2
   3.24189E+2  -1.01706E+3
   2.73847E+2   1.34742E+2
   2.43010E+2  -7.52708E+2
  -8.15105E+2  -4.66876E+2
  -1.20247E+3   7.44796E+2
  -7.39902E+2  -2.44283E+2
   1.74700E+3   1.67695E+3
  -7.16309E+2   7.15684E+2
  -1.54551E+3   6.05905E+2
  -7.52222E+2  -7.99682E+2
   3.28075E+2   1.19871E+3
   1.31778E+3   7.40599E+2
   1.71664E+3  -8.21972E+2
  -1.02345E+3  -2.37095E+2
   1.12927E+1  -1.96284E+2
  -1.03436E+3  -2.53466E+2
   5.57672E+2  -2.00245E+3
   1.25864E+3   8.28225E+2
   2.31010E+2  -7.13962E+2
  -1.00662E+3   1.46152E+3
   5.72000E+2   3.49981E+2
   1.79324E+2  -5.40587E+2
   8.80438E+2   9.39722E+2
  -1.69724E+3  -2.13958E+3
   9.34870E+2   1.13076E+2
   1.90856E+3   1.51051E+3
   1.06057E+3  -7.15677E+2
   2.20983E+2  -1.11186E+3
  -1.21218E+2   3.00419E+2
  -1.86795E+3   1.98085E+3
  -1.70901E+3   6.86961E+2
   1.40399E+3  -9.58661E+2
   1.18050E+3   1.55577E+3
   1.21273E+3  -1.56260E+3
   1.14879E+3  -3.60748E+2
  -4.19067E+2   1.06246E+3
   7.59196E+2  -9.27685E+2
   1.27885E+3   2.75237E+2
  -6.73975E+2   5.16631E+2
   8.65216E+1  -4.58803E+2
  -2.04819E+3   1.44807E+3
   2.06718E+3  -1.52352E+2
  -1.45002E+2   7.25522E+2
   6.05966E+2  -1.18917E+3
  -2.27627E+2  -2.40289E+1
  -4.04463E+2   8.85185E+2
   1.16556E+3  -6.45894E+2
   1.08493E+3   2.23343E+3
  -2.96081E+2  -2.27683E+3
  -2.89667E+2  -3.70598E+2
   2.38252E+2  -1.76739E+3
   1.03129E+3   4.23953E+2
   2.06592E+3   5.02568E+2
  -6.38789E+2   1.36902E+3
  -7.45184E+2   1.86870E+2
   1.11986E+2   2.95629E+3
  -8.17768E+2  -4.98144E+2
  -1.17064E+3   1.04946E+2
  -9.61952E+1  -1.03980E+3
   7.95884E+2  -5.58901E+2
   2.83825E+2  -8.25327E+2
  -3.35727E+2  -9.01035E+2
   1.62881E+3   9.62474E+2
   2.29509E+3   8.21160E+2
  -1.07766E+3   1.22592E+3
   5.15401E+2  -9.60649E+2
  -1.58516E+3  -7.99270E+0
