 
 $NMID
 ID=''
 FMTDAT='(2E13.5)'
 TRAMP=   1.00000E+0
 VOLUME=   1.00000E+0
 $END
  -2.07629E+4  -2.14388E+3
  -4.96562E+4  -2.02730E+4
  -5.25546E+4  -1.09077E+4
  -4.84763E+4  -9.76014E+3
  -5.01188E+4  -1.14129E+4
  -5.06719E+4  -8.93752E+3
  -4.87094E+4  -8.82529E+3
  -4.92741E+4  -9.80349E+3
  -4.95453E+4  -8.35784E+3
  -4.81639E+4  -8.20848E+3
  -4.83862E+4  -8.89997E+3
  -4.85024E+4  -7.65112E+3
  -4.76181E+4  -7.39431E+3
  -4.77202E+4  -8.09789E+3
  -4.77325E+4  -7.36596E+3
  -4.69669E+4  -7.14333E+3
  -4.69546E+4  -7.46495E+3
  -4.68547E+4  -6.79935E+3
  -4.63034E+4  -6.45937E+3
  -4.63066E+4  -6.72311E+3
  -4.61552E+4  -6.17107E+3
  -4.57101E+4  -5.66257E+3
  -4.58097E+4  -5.68483E+3
  -4.57039E+4  -5.30041E+3
  -4.51767E+4  -4.96136E+3
  -4.51668E+4  -4.77689E+3
  -4.51733E+4  -4.52791E+3
  -4.46552E+4  -4.35679E+3
  -4.45226E+4  -4.32117E+3
  -4.42795E+4  -3.95700E+3
  -4.38551E+4  -3.56318E+3
  -4.38901E+4  -3.49464E+3
  -4.37254E+4  -3.20880E+3
  -4.32656E+4  -3.07769E+3
  -4.30797E+4  -2.84468E+3
  -4.29089E+4  -2.47844E+3
  -4.25104E+4  -2.17707E+3
  -4.22982E+4  -1.90653E+3
  -4.20790E+4  -1.59522E+3
  -4.18297E+4  -1.35409E+3
  -4.16163E+4  -1.08444E+3
  -4.14288E+4  -9.17027E+2
  -4.10977E+4  -7.86825E+2
  -4.08306E+4  -5.76089E+2
  -4.06084E+4  -2.95787E+2
  -4.04212E+4  -5.07785E+1
  -4.01770E+4   1.77739E+2
  -3.99537E+4   3.63425E+2
  -3.97711E+4   6.93018E+2
  -3.95476E+4   8.75215E+2
  -3.92522E+4   1.02492E+3
  -3.90208E+4   1.21214E+3
  -3.87226E+4   1.51066E+3
  -3.84215E+4   1.76727E+3
  -3.83006E+4   2.03490E+3
  -3.80152E+4   2.22223E+3
  -3.77963E+4   2.36482E+3
  -3.75762E+4   2.56026E+3
  -3.73147E+4   2.77932E+3
  -3.69820E+4   3.00875E+3
  -3.67869E+4   3.14752E+3
  -3.64559E+4   3.48267E+3
  -3.63092E+4   3.60833E+3
  -3.60761E+4   3.92672E+3
  -3.58148E+4   4.01941E+3
  -3.55456E+4   4.25346E+3
  -3.54010E+4   4.49000E+3
  -3.51810E+4   4.60279E+3
  -3.49543E+4   4.78807E+3
  -3.46134E+4   4.98502E+3
  -3.44618E+4   5.19451E+3
  -3.41652E+4   5.30812E+3
  -3.39763E+4   5.47748E+3
  -3.36505E+4   5.64310E+3
  -3.33841E+4   5.84163E+3
  -3.31605E+4   6.10657E+3
  -3.29707E+4   6.12103E+3
  -3.26506E+4   6.38884E+3
  -3.23794E+4   6.52611E+3
  -3.20963E+4   6.76186E+3
  -3.19797E+4   6.89714E+3
  -3.17392E+4   6.97159E+3
  -3.14598E+4   7.06732E+3
  -3.11940E+4   7.24129E+3
  -3.09503E+4   7.32138E+3
  -3.07682E+4   7.46214E+3
  -3.04827E+4   7.42195E+3
  -3.02132E+4   7.57070E+3
  -2.99795E+4   7.70756E+3
  -2.97128E+4   7.82866E+3
  -2.94811E+4   7.95693E+3
  -2.92439E+4   8.03942E+3
  -2.89489E+4   8.17944E+3
  -2.87622E+4   8.24675E+3
  -2.84771E+4   8.32874E+3
  -2.81935E+4   8.40505E+3
  -2.79492E+4   8.45528E+3
  -2.76736E+4   8.63732E+3
  -2.74100E+4   8.75682E+3
  -2.71364E+4   8.70543E+3
  -2.69739E+4   8.78699E+3
  -2.66987E+4   8.94975E+3
  -2.64159E+4   9.04136E+3
  -2.62379E+4   9.11839E+3
  -2.58971E+4   9.11902E+3
  -2.56742E+4   9.23528E+3
  -2.54470E+4   9.25853E+3
  -2.52442E+4   9.33186E+3
  -2.49360E+4   9.41700E+3
  -2.45956E+4   9.44977E+3
  -2.43975E+4   9.61346E+3
  -2.42064E+4   9.67880E+3
  -2.39155E+4   9.73707E+3
  -2.36883E+4   9.81571E+3
  -2.34132E+4   9.86463E+3
  -2.32055E+4   9.93116E+3
  -2.29742E+4   9.94383E+3
  -2.27070E+4   1.00755E+4
  -2.24684E+4   1.00637E+4
  -2.21915E+4   1.01116E+4
  -2.19547E+4   1.01363E+4
  -2.18032E+4   1.01321E+4
  -2.14958E+4   1.01529E+4
  -2.13024E+4   1.02908E+4
  -2.10143E+4   1.03568E+4
  -2.08176E+4   1.03542E+4
  -2.06096E+4   1.04310E+4
  -2.04376E+4   1.03924E+4
  -2.01114E+4   1.04787E+4
  -1.99262E+4   1.04103E+4
  -1.97442E+4   1.04305E+4
  -1.94835E+4   1.04917E+4
  -1.92448E+4   1.05902E+4
  -1.90028E+4   1.06525E+4
  -1.88158E+4   1.06426E+4
  -1.86225E+4   1.06375E+4
  -1.84291E+4   1.07082E+4
  -1.82534E+4   1.06017E+4
  -1.79986E+4   1.07156E+4
  -1.77927E+4   1.07665E+4
  -1.76260E+4   1.07407E+4
  -1.74083E+4   1.07269E+4
  -1.71974E+4   1.07850E+4
  -1.70391E+4   1.07832E+4
  -1.68373E+4   1.08050E+4
  -1.66428E+4   1.07168E+4
  -1.64754E+4   1.08285E+4
  -1.62748E+4   1.08141E+4
  -1.60585E+4   1.08352E+4
  -1.58943E+4   1.07658E+4
  -1.57386E+4   1.08226E+4
  -1.55719E+4   1.08477E+4
  -1.53067E+4   1.07725E+4
  -1.51473E+4   1.07942E+4
  -1.50342E+4   1.08634E+4
  -1.48247E+4   1.08760E+4
  -1.45772E+4   1.08739E+4
  -1.45275E+4   1.07847E+4
  -1.42930E+4   1.08188E+4
  -1.41486E+4   1.08500E+4
  -1.39651E+4   1.08310E+4
  -1.38396E+4   1.08116E+4
  -1.36946E+4   1.07727E+4
  -1.35121E+4   1.07942E+4
  -1.34016E+4   1.08197E+4
  -1.32366E+4   1.08770E+4
  -1.30301E+4   1.07637E+4
  -1.28090E+4   1.08397E+4
  -1.26861E+4   1.08750E+4
  -1.25914E+4   1.08279E+4
  -1.24432E+4   1.08186E+4
  -1.22765E+4   1.08464E+4
  -1.21057E+4   1.08607E+4
  -1.20345E+4   1.08113E+4
  -1.18481E+4   1.08341E+4
  -1.16496E+4   1.08214E+4
  -1.15344E+4   1.08471E+4
  -1.13804E+4   1.08226E+4
  -1.13393E+4   1.08719E+4
  -1.12145E+4   1.08754E+4
  -1.10383E+4   1.08170E+4
  -1.09206E+4   1.07830E+4
  -1.07450E+4   1.07473E+4
  -1.06126E+4   1.07495E+4
  -1.05039E+4   1.07317E+4
  -1.04216E+4   1.07377E+4
  -1.03367E+4   1.06577E+4
  -1.02014E+4   1.06755E+4
  -1.00775E+4   1.06374E+4
  -9.91912E+3   1.06544E+4
  -9.78942E+3   1.05895E+4
  -9.74771E+3   1.05172E+4
  -9.56853E+3   1.05080E+4
  -9.50405E+3   1.05681E+4
  -9.41085E+3   1.05144E+4
  -9.29108E+3   1.04750E+4
  -9.13199E+3   1.04948E+4
  -9.00085E+3   1.04416E+4
  -8.90991E+3   1.04160E+4
  -8.71805E+3   1.04380E+4
  -8.72237E+3   1.04327E+4
  -8.62566E+3   1.04050E+4
  -8.50502E+3   1.02872E+4
  -8.35357E+3   1.02389E+4
  -8.22604E+3   1.02983E+4
  -8.17578E+3   1.02115E+4
  -8.09656E+3   1.01962E+4
  -7.88721E+3   1.02306E+4
  -7.76268E+3   1.01499E+4
  -7.73279E+3   1.01516E+4
  -7.62944E+3   1.00864E+4
  -7.49447E+3   1.01301E+4
  -7.36152E+3   1.01252E+4
  -7.29747E+3   1.00847E+4
  -7.20765E+3   9.98811E+3
  -7.19035E+3   9.97476E+3
  -7.05744E+3   9.94456E+3
  -6.90703E+3   9.89751E+3
  -6.75997E+3   9.96307E+3
  -6.77901E+3   9.94354E+3
  -6.61246E+3   9.93630E+3
  -6.56678E+3   9.91618E+3
  -6.43396E+3   9.87924E+3
  -6.26431E+3   9.90717E+3
  -6.23810E+3   9.82264E+3
  -6.18656E+3   9.80389E+3
  -6.05767E+3   9.75828E+3
  -6.01152E+3   9.75538E+3
  -5.93570E+3   9.69168E+3
  -5.91140E+3   9.71150E+3
  -5.78530E+3   9.68133E+3
  -5.64111E+3   9.61998E+3
  -5.61034E+3   9.56058E+3
  -5.55501E+3   9.59807E+3
  -5.41688E+3   9.54570E+3
  -5.35610E+3   9.58517E+3
  -5.24998E+3   9.52099E+3
  -5.19651E+3   9.45096E+3
  -5.08699E+3   9.47035E+3
  -5.00396E+3   9.46265E+3
  -4.94814E+3   9.39903E+3
  -4.85307E+3   9.40322E+3
  -4.81737E+3   9.41388E+3
  -4.73758E+3   9.33556E+3
  -4.58667E+3   9.34095E+3
  -4.62327E+3   9.30233E+3
  -4.52884E+3   9.23893E+3
  -4.39666E+3   9.18490E+3
  -4.30061E+3   9.21518E+3
  -4.26642E+3   9.20296E+3
  -4.20082E+3   9.23142E+3
  -4.11025E+3   9.13983E+3
  -4.04897E+3   9.10074E+3
  -4.00339E+3   9.02455E+3
  -3.90542E+3   9.00135E+3
  -3.89008E+3   8.96192E+3
  -3.83178E+3   8.99434E+3
  -3.69397E+3   8.98689E+3
  -3.61851E+3   8.88788E+3
  -3.52732E+3   8.91251E+3
  -3.49877E+3   8.91133E+3
  -3.44528E+3   8.85288E+3
  -3.38647E+3   8.77009E+3
  -3.25278E+3   8.73700E+3
  -3.26156E+3   8.71686E+3
  -3.19428E+3   8.67355E+3
  -3.08362E+3   8.72328E+3
  -3.04777E+3   8.67000E+3
  -2.94878E+3   8.57223E+3
  -2.90487E+3   8.52509E+3
  -2.82676E+3   8.53389E+3
  -2.76144E+3   8.48199E+3
  -2.68571E+3   8.47304E+3
  -2.67345E+3   8.41999E+3
  -2.61485E+3   8.38803E+3
  -2.57231E+3   8.37280E+3
  -2.46237E+3   8.32689E+3
  -2.43386E+3   8.31561E+3
  -2.34809E+3   8.27679E+3
  -2.24642E+3   8.19872E+3
  -2.24660E+3   8.14703E+3
  -2.21320E+3   8.17382E+3
  -2.17107E+3   8.10980E+3
  -2.09875E+3   8.19161E+3
  -2.02469E+3   8.06431E+3
  -2.02300E+3   8.01113E+3
  -1.98158E+3   7.96876E+3
  -1.93164E+3   7.94041E+3
  -1.85958E+3   7.90123E+3
  -1.75152E+3   7.82056E+3
  -1.71155E+3   7.80457E+3
  -1.63963E+3   7.78037E+3
  -1.59262E+3   7.73589E+3
  -1.59232E+3   7.67485E+3
  -1.50398E+3   7.70041E+3
  -1.49510E+3   7.62926E+3
  -1.47036E+3   7.51768E+3
  -1.38572E+3   7.57172E+3
  -1.27751E+3   7.51076E+3
  -1.28835E+3   7.43161E+3
  -1.20235E+3   7.46687E+3
  -1.19167E+3   7.43607E+3
  -1.11736E+3   7.36271E+3
  -1.10627E+3   7.25396E+3
  -1.11307E+3   7.28552E+3
  -1.03783E+3   7.28956E+3
  -9.46997E+2   7.18528E+3
  -9.31657E+2   7.18353E+3
  -8.95598E+2   7.10846E+3
  -8.17820E+2   7.14098E+3
  -8.47864E+2   7.01865E+3
  -7.75947E+2   7.03949E+3
  -7.39300E+2   6.89854E+3
  -6.76427E+2   6.95832E+3
  -6.66094E+2   6.94234E+3
  -6.35124E+2   6.77910E+3
  -5.17332E+2   6.84094E+3
  -5.08867E+2   6.76245E+3
  -5.35959E+2   6.73003E+3
  -4.94693E+2   6.68942E+3
  -3.78420E+2   6.64052E+3
  -3.11009E+2   6.65550E+3
  -3.32216E+2   6.58979E+3
  -3.11984E+2   6.56841E+3
  -2.67126E+2   6.51827E+3
  -2.52216E+2   6.43960E+3
  -2.80314E+2   6.40959E+3
  -1.55754E+2   6.41583E+3
  -1.92120E+2   6.36409E+3
  -1.00399E+2   6.34202E+3
  -8.47682E+1   6.27409E+3
  -6.81779E+1   6.24315E+3
   1.37036E+1   6.25753E+3
  -1.70857E+1   6.16844E+3
   5.67973E+1   6.12879E+3
   4.62551E+1   6.07759E+3
   7.54201E+1   6.11441E+3
   1.44933E+2   5.96968E+3
   1.83982E+2   5.98883E+3
   1.71550E+2   6.00433E+3
   1.23060E+2   5.91189E+3
   1.95470E+2   5.87642E+3
   1.87227E+2   5.80469E+3
   3.05403E+2   5.79429E+3
   3.22770E+2   5.78023E+3
   3.94436E+2   5.75034E+3
   3.25805E+2   5.70429E+3
   4.23601E+2   5.66955E+3
   3.84024E+2   5.63039E+3
   4.01960E+2   5.60608E+3
   4.22208E+2   5.53676E+3
   4.90148E+2   5.51936E+3
   5.15655E+2   5.50668E+3
   5.56184E+2   5.41500E+3
   6.35029E+2   5.41042E+3
   5.59632E+2   5.34454E+3
   6.35729E+2   5.29969E+3
   6.11246E+2   5.33647E+3
   6.69060E+2   5.28863E+3
   6.54814E+2   5.22073E+3
   6.39096E+2   5.26299E+3
   6.86731E+2   5.15675E+3
   7.73288E+2   5.11456E+3
   6.84454E+2   5.09910E+3
   7.34937E+2   5.06131E+3
   7.68221E+2   5.02000E+3
   8.04329E+2   5.00471E+3
