 
 $NMID
 ID=''
 FMTDAT='(2E13.5)'
 TRAMP=   1.00000E+0
 VOLUME=   1.00000E+0
 $END
   2.03023E+2  -1.84141E+2
   3.77330E+2  -1.09605E+3
   4.07492E+2  -2.11392E+3
  -3.26480E+3  -6.15879E+2
  -2.17003E+3   1.67782E+3
   2.37335E+2   1.32066E+3
  -2.09240E+3   1.53686E+2
  -2.48127E+3   7.72122E+2
  -6.43030E+1   3.32210E+3
   4.92396E+2   1.01141E+3
   1.96620E+2   1.87390E+3
   1.10987E+3   3.50048E+2
   6.03737E+2   8.70945E+2
   3.27484E+3   1.85931E+3
  -1.05383E+3   9.29508E+2
   6.79004E+2  -9.58579E+2
   4.01216E+1  -2.73226E+3
   3.69254E+1   1.24673E+3
   1.54093E+3   6.59598E+2
  -9.16273E+2  -1.40386E+3
   3.95984E+2  -1.82491E+3
   2.15109E+3  -1.48758E+3
   7.19566E+2  -1.36021E+2
  -2.25514E+3   1.16660E+3
  -8.98422E+2  -1.22747E+3
  -8.08540E+2  -2.28282E+3
  -1.06503E+3  -6.80182E+1
  -4.13588E+2   1.63808E+3
  -4.30215E+3   3.33227E+3
  -2.35866E+3  -1.35144E+3
   2.93368E+3  -1.61792E+3
   5.35813E+3   1.80616E+3
   8.47327E+2   5.92422E+3
  -1.13953E+3   2.12344E+3
  -3.43870E+2   4.59749E+2
  -1.20107E+3   1.16047E+3
  -7.36046E+2  -2.08787E+0
   2.76154E+1  -3.64954E+3
   1.35224E+3  -2.50061E+3
   4.78688E+2  -3.37074E+3
   3.18483E+3  -2.45775E+3
   2.60973E+3  -6.81548E+2
  -2.86576E+3   3.03797E+3
  -4.23681E+3   3.56575E+2
  -7.12381E+2  -1.62545E+3
  -2.98015E+3   3.86768E+1
  -2.14534E+3   2.10943E+3
   3.45536E+2  -2.10442E+3
  -1.36801E+3  -2.48654E+2
  -7.48585E+2  -7.13382E+2
   1.61093E+3   2.38468E+3
   2.15322E+2   2.06541E+3
  -2.81048E+3  -3.29630E+3
  -6.21572E+2  -3.04692E+3
   1.22306E+3  -1.77503E+3
   3.63627E+3  -3.50219E+3
   5.61641E+3  -7.26289E+2
   4.50821E+3   1.55655E+3
   2.20441E+3   3.26237E+3
  -9.51783E+2   3.31799E+3
  -1.69517E+3   1.64021E+3
  -7.22042E+2   9.83945E+1
   2.91613E+3  -1.41234E+3
   7.45212E+2   1.68751E+3
  -1.01973E+3   6.52779E+2
  -2.53681E+3  -1.04004E+3
   1.43277E+2  -6.38330E+2
  -6.84241E+2  -2.76089E+2
  -1.49616E+3   3.52090E+2
  -6.21107E+2  -2.85236E+3
  -9.63881E+1  -1.08633E+3
  -4.46366E+1  -1.20354E+3
  -1.23709E+3   1.32041E+3
   1.69244E+3  -8.79242E+2
  -6.99966E+2  -1.17712E+3
   5.64209E+1  -4.16901E+2
  -7.11069E+2  -5.94290E+2
   1.23646E+2   9.42968E+2
  -9.53734E+2   1.68013E+3
  -6.41230E+2   1.26817E+3
   1.48887E+3  -1.37709E+3
   1.59064E+3   8.02922E+2
   1.03964E+2  -1.55301E+2
   2.03179E+3   2.87101E+1
   3.31826E+3  -3.10498E+3
   1.52898E+3   2.34595E+2
   1.83104E+3   2.82218E+3
   3.77419E+2   3.56479E+3
  -9.85062E+2   1.75264E+3
  -1.46444E+3   3.78007E+2
  -4.75352E+2  -1.11261E+3
   1.01514E+3   1.07086E+3
  -1.41203E+3  -1.39848E+3
   5.21455E+2  -1.46263E+3
   4.76203E+1   7.54982E+2
   2.06671E+2   1.50774E+3
  -1.78476E+3   1.67030E+3
  -1.49269E+3  -1.62867E+3
   1.45744E+3  -2.62356E+3
   3.16532E+3  -6.85022E+2
   2.88861E+3   1.20133E+3
  -3.83745E+2   1.53528E+3
  -2.80284E+3   1.44296E+3
  -2.03355E+3  -4.19401E+2
   2.54535E+3  -2.68573E+3
  -1.39541E+2  -1.19944E+3
  -5.03132E+2   7.11239E+2
  -1.37038E+3  -2.48689E+3
   1.52216E+3  -1.11683E+3
   3.53078E+2   8.12176E+2
   1.30839E+3   1.63790E+3
  -1.61136E+3  -1.51559E+3
  -2.27872E+3   6.13195E+2
  -1.11535E+3  -2.17327E+2
  -9.66833E+1  -9.32320E+2
   7.89010E+2  -2.98282E+2
  -2.76130E+2  -1.47713E+3
   2.48891E+3   1.55794E+3
  -1.63464E+3   9.82240E+2
  -1.08361E+3   7.14331E+2
  -5.02750E+2  -1.26776E+3
  -1.33187E+3   1.33724E+2
   3.26220E+3   8.38808E+2
   6.84012E+2  -5.28951E+2
  -4.03855E+2   1.55920E+3
  -1.10483E+3   4.09567E+2
   2.21968E+3  -1.38983E+2
  -8.42166E+2   6.37239E+2
  -4.54421E+2   2.18813E+3
   3.16487E+3  -1.21368E+3
   2.06017E+3  -1.61203E+3
   2.37817E+1   1.48508E+3
   8.83530E+2   3.77623E+3
   2.80397E+2  -2.72123E+2
  -1.34688E+2   6.12247E+2
   1.24313E+2   1.02217E+3
  -1.05278E+3   9.23583E+2
   2.84006E+2   3.06649E+2
  -1.85942E+2   1.25662E+3
   2.30941E+3  -3.40420E+2
   1.08863E+3  -1.27206E+3
  -1.36163E+2   1.39247E+3
   4.58665E+1   1.89177E+3
   9.71779E+2   9.17579E+2
   2.13681E+2   9.73565E+2
  -3.44657E+2   1.87845E+3
  -7.14545E+2  -1.18923E+3
  -1.55415E+3  -1.15429E+3
   2.35374E+2   1.50529E+3
  -8.90817E+1   1.97933E+2
   9.19675E+1  -4.78993E+2
   1.83046E+3  -2.51648E+2
   6.21816E+2  -1.01782E+3
   3.77388E+2   3.15437E+2
  -1.33443E+3  -1.80167E+2
   2.36491E+2   6.97948E+2
   6.58054E+1   2.75665E+2
   8.18268E+2  -2.17347E+2
   8.57610E+2   1.13443E+3
   5.13220E+2  -1.11506E+3
   3.14957E+2  -3.99425E+2
   5.49256E+2  -1.68284E+3
  -8.78253E+2  -1.40442E+3
   3.29690E+2   1.22936E+3
  -1.18188E+3  -1.43141E+3
  -1.11851E+3   9.37273E+2
  -1.13689E+3  -6.95919E+2
   1.92791E+2   4.85356E+2
  -2.06669E+3   7.38359E+2
  -6.99142E+2  -9.60991E+1
  -8.75932E+2   2.27596E+3
  -3.71174E+2  -2.13337E+2
  -1.15985E+3   9.04872E+1
  -4.27148E+2  -6.46942E+2
   3.15460E+2  -3.02377E+2
  -7.34922E+2   3.90434E+2
   3.25917E+2   2.94928E+2
   1.04870E+3  -6.12814E+2
  -3.80517E+2   7.90689E+2
  -8.02149E+2   5.92504E+2
   1.68347E+3   2.49296E+2
   1.09788E+3   8.83956E+2
  -6.63994E+2   2.63817E+3
   7.77038E+2  -1.94336E+2
  -7.09559E+2   1.82776E+2
  -1.25869E+3   3.28181E+2
  -2.45151E+2  -2.22438E+2
   4.24353E+2  -6.17233E+2
   2.70206E+2  -3.00068E+2
   1.47541E+3   1.06537E+2
  -1.75497E+3  -2.71903E+2
  -5.90278E+2   2.27953E+3
  -1.03100E+3   5.10258E+2
  -9.43794E+2   1.21853E+3
   1.82502E+3  -8.89052E+2
  -7.90157E+2  -3.50794E+2
   2.80420E+3   1.35065E+3
  -1.96095E+3  -4.38059E+2
   8.65088E+2  -4.52604E+1
   6.81084E+2   7.23913E+2
  -6.48753E+2   5.45737E+2
  -1.23120E+3  -2.81092E+2
   6.84462E+2   9.09512E+2
   2.42507E+3   1.72580E+3
  -6.17719E+2  -1.45066E+3
  -7.78634E+2  -2.36183E+3
  -2.70899E+3  -1.49662E+2
   1.01034E+0  -4.24350E+2
  -9.67510E+2   1.17528E+2
   1.53112E+2   1.06736E+3
   4.42973E+1  -1.43246E+2
   2.45170E+2  -7.37494E+2
   7.41858E+2   2.22454E+2
  -1.06155E+3   6.09090E+2
  -6.67847E+2   1.38814E+3
  -5.56437E+2  -3.62259E+2
  -2.52863E+1   5.20377E+2
  -6.62941E+2   6.30850E+2
   4.96718E+2  -1.57945E+3
  -1.08615E+3  -6.74500E+2
  -1.01330E+3   8.69813E+2
  -5.72667E+2  -5.35956E+2
  -1.39302E+3   1.44657E+2
   1.81777E+3   1.43921E+3
   1.22620E+3  -5.63934E+2
  -1.00381E+3   9.97149E+2
   4.56758E+2   5.33553E+2
  -3.95030E+2  -1.07786E+3
  -1.97946E+2   1.41898E+3
  -2.41461E+2   5.45269E+2
  -5.50107E+2   1.02352E+3
   1.25174E+2   2.50330E+3
  -4.31361E+2  -1.40352E+2
  -6.24862E+2  -6.35028E+2
   2.53394E+1   1.16989E+2
   5.26288E+2   4.70812E+2
   8.33679E+2  -1.06436E+3
   1.84863E+3  -1.01865E+3
  -1.73765E+3  -1.04413E+3
  -6.82558E+2  -2.18102E+3
  -4.98962E+2  -9.61332E+2
  -1.65077E+3   1.33300E+1
   1.37441E+2   1.21948E+3
   3.01945E+2   8.25383E+2
   1.09864E+3  -3.13289E+2
  -3.32756E+1  -1.81614E+2
  -8.97895E+1  -1.83385E+2
  -6.31929E+2   2.31590E+2
  -6.95034E+2  -6.19211E+0
  -1.77898E+3   1.83255E+3
  -1.97849E+3  -1.42367E+2
  -1.12804E+1   1.74592E+3
   1.41974E+3   1.33422E+3
  -4.68963E+2   1.18292E+3
   9.67130E+1  -6.45019E+2
  -9.17463E+2  -1.12413E+3
   1.71080E+1  -4.97279E+2
  -7.32166E+2  -3.44158E+2
   2.59891E+2   1.41583E+3
  -4.37941E+2  -1.81156E+3
   1.95130E+3  -9.93182E+2
  -5.73437E+2   1.14580E+3
   6.35772E+2  -1.20431E+3
  -2.78251E+2  -1.12245E+3
   1.27795E+3  -6.07540E+2
  -4.42939E+2  -3.52332E+2
  -1.18737E+3  -1.12445E+3
   9.06278E+2   1.45330E+3
  -8.83397E+2  -1.62365E+3
  -3.50581E+1   1.18111E+3
  -1.78786E+3   8.39249E+2
   3.62121E+2   2.36616E+2
   5.72511E+2   3.78753E+2
  -1.07888E+3  -3.70084E+2
  -2.14283E+2  -1.24567E+1
  -9.36869E+2   1.40106E+3
   3.85711E+2  -5.39329E+2
   4.31650E+2   5.98333E+1
  -5.19411E+2   1.60240E+3
   3.95900E+2   1.48208E+2
  -9.76704E+2  -1.43353E+3
  -7.57360E+1  -1.05171E+3
  -1.29716E+3  -1.06613E+3
   5.90015E+2  -2.20799E+3
   1.65955E+3   4.47303E+2
  -1.03850E+3   1.06828E+3
   3.86020E+2  -5.72608E+2
   7.97142E+2   5.32196E+1
  -1.29923E+3   6.88508E+2
  -5.28790E+2   1.58546E+3
   1.24588E+3  -1.83187E+3
  -9.63922E+2   1.89981E+2
   5.86287E+2   1.38900E+3
   1.76454E+2  -2.39487E+3
  -5.14364E+2  -6.12144E+2
   1.19094E+3   1.42021E+3
  -3.62788E+2  -8.33484E+2
  -1.54952E+3   2.85922E+2
   1.47793E+2   8.23675E+2
   3.98598E+2   7.74978E+2
   1.56229E+3  -6.85773E+2
   5.69339E+2   3.33417E+2
  -1.94775E+3  -4.12831E+2
   4.94690E+2  -3.01772E+2
   6.25099E+1   1.28608E+3
  -6.67476E+2  -7.31045E+2
  -1.06834E+3  -1.47009E+3
  -2.19722E+3   8.45654E+1
   3.53813E+2  -2.22323E+2
  -6.47080E+1  -1.00550E+3
  -4.52649E+1   6.24249E+2
  -1.32670E+3   1.78863E+3
  -4.52992E+2  -3.91355E+2
   1.26926E+2  -1.20133E+2
  -4.67915E+2   1.78424E+3
   1.90045E+2  -2.30182E+2
  -2.34738E+2  -1.63929E+3
   1.82671E+3   9.15361E+2
  -2.07491E+3  -7.49853E+2
  -9.06863E+2  -9.09678E+2
   1.83631E+3   1.20168E+2
   2.96793E+2   2.72802E+2
  -1.24076E+3   1.59728E+1
   2.61967E+2  -1.42641E+2
  -2.22154E+2  -9.67715E+2
  -1.23869E+3  -4.77819E+2
  -2.65460E+2  -3.07083E+2
   1.78278E+2   1.12200E+3
   1.99950E+2  -1.78670E+3
  -6.14718E+2   4.13592E+2
  -1.78551E+2   1.72760E+3
   1.10131E+3   5.85999E+2
  -1.02522E+3   8.49160E+2
   3.87561E+2  -3.60195E+2
   1.19211E+3   2.98638E+2
   5.77039E+1   1.97846E+3
  -9.35934E+2  -2.14493E+1
  -1.97689E+2   3.94518E+2
   1.21504E+3  -1.30125E+3
   1.42457E+2   1.37001E+3
   2.45709E+2  -4.77432E+2
   1.37206E+3   1.09204E+3
   2.85688E+2   6.98672E+2
   1.11927E+2  -9.73118E+2
  -6.13260E+2  -6.10985E+2
   6.22693E+2  -8.61274E+2
   1.28522E+3   7.60428E+2
   1.05265E+3   2.47020E+2
  -1.31322E+3   1.70183E+3
  -2.66070E+2   5.60156E+1
  -5.03070E+2   3.68931E+2
   1.08635E+3   1.10437E+3
   7.04543E+2   1.44566E+3
   2.18988E+2  -9.20265E+2
   5.50337E+2   1.47811E+2
   9.74321E+1  -3.94572E+2
  -1.33148E+2  -1.79402E+3
   9.11999E+2  -1.91760E+2
  -6.41243E+2   5.16320E+2
   1.61853E+3  -1.76309E+3
   8.54289E+2  -5.51230E+2
  -3.35088E+2   6.89618E+2
   3.09851E+1   4.50971E+2
   8.70913E+2  -7.46029E+2
   5.93914E+2   6.41710E+2
  -9.72538E+2  -1.71520E+3
  -8.69311E+2  -4.06121E+2
