 
 $NMID
 ID=''
 FMTDAT='(2E13.5)'
 TRAMP=   1.00000E+0
 VOLUME=   1.00000E+0
 $END
   2.82144E+2  -3.56077E+2
   1.25295E+3   3.87446E+2
  -6.20376E+2  -2.26671E+3
  -3.63432E+2   4.81454E+2
  -1.48133E+3  -2.09659E+2
  -3.92923E+2  -8.75231E+2
  -7.19386E+2   9.64237E+2
  -9.75261E+2   1.05613E+3
   1.47686E+3   8.50508E+2
   8.28042E+2   8.58096E+2
   5.33870E+2  -2.17859E+3
  -9.59948E+2  -2.06221E+3
   1.24467E+3  -1.44441E+3
  -1.65934E+3   4.26320E+3
  -2.32466E+3   1.91598E+3
  -2.03912E+3  -1.70531E+3
   1.81174E+3  -1.86727E+3
   3.14060E+3   1.94204E+3
  -1.63192E+2   1.21329E+3
  -3.33716E+3  -2.55110E+2
  -6.43057E+2  -2.33818E+3
   1.63908E+3   1.15969E+3
   1.19074E+2   3.69043E+3
  -3.05304E+3   2.27539E+2
  -1.27814E+3  -2.17145E+3
   6.40169E+2  -1.75817E+3
   1.00052E+3   1.18404E+3
  -1.93004E+3   1.76166E+3
  -2.52729E+3   2.63632E+3
  -2.21417E+3  -3.37949E+3
   2.68932E+3  -3.39501E+3
   4.31027E+3   1.08510E+3
  -1.35477E+3   5.33385E+3
  -3.16606E+3  -1.42681E+3
   7.80803E+2  -4.37804E+2
   4.95292E+2   1.04652E+3
  -4.23506E+3  -1.00152E+3
   1.84440E+3  -4.40065E+3
   3.05187E+3  -1.86955E+3
   2.78861E+3   4.22370E+2
   4.54311E+3   8.13540E+2
   3.18455E+3   4.83179E+3
  -2.38794E+3   3.21782E+3
  -4.83763E+3  -2.21698E+3
   2.79150E+2  -3.50218E+3
   1.08961E+3  -3.63416E+3
   3.90819E+2  -1.67879E+3
   2.82561E+3  -4.46929E+3
   1.99253E+3  -5.10114E+2
  -9.53553E+1   1.13857E+3
  -2.35503E+3   3.83033E+3
  -3.99299E+3   1.54487E+3
  -1.69232E+3  -1.43826E+3
   8.12936E+2  -3.84010E+3
   4.01351E+2   1.02911E+3
  -1.24669E+1   1.69197E+3
   3.29208E+2   1.55545E+3
  -1.38941E+3   3.34016E+3
  -2.24450E+3   1.38501E+3
  -4.13464E+3  -9.60841E+2
  -3.90718E+3  -5.04826E+3
  -1.92011E+3  -6.17995E+3
  -1.04562E+3  -4.06699E+3
   3.19111E+2  -7.53272E+2
  -1.00678E+3  -1.18093E+3
  -1.30108E+3  -4.11421E+3
   2.50833E+3  -1.31124E+2
   3.82051E+3   3.85372E+3
   3.01555E+2   3.90486E+3
   1.27238E+3  -5.19000E+2
   3.59519E+3   6.62683E+2
   1.45785E+3   1.34130E+3
   1.18736E+3  -1.56590E+3
   1.93289E+2  -2.75226E+1
  -8.49839E+2   7.24985E+2
   3.91716E+2   9.63673E+2
  -8.15264E+2  -3.84097E+2
  -1.14196E+3   2.79336E+3
  -2.83398E+3  -7.41976E+2
   1.54972E+2   1.28172E+2
   2.14158E+3   6.05790E+2
   1.45269E+3   1.18726E+3
   8.69768E+2   9.02167E+2
  -2.16448E+2  -2.08713E+3
   1.65938E+3   1.45012E+3
   4.41633E+3   3.33177E+3
  -6.59709E+1   2.45428E+3
  -2.95710E+3   6.13128E+2
  -2.27660E+3  -3.88411E+3
  -1.01904E+3  -3.36344E+3
   2.05153E+3   9.08013E+2
  -9.46675E+2  -2.23153E+3
   1.40164E+3  -5.52061E+2
   2.08269E+3  -9.13489E+2
   2.95686E+3   3.33652E+3
   1.62174E+3   3.11990E+3
  -1.51934E+3   1.04757E+3
   8.57453E+2  -2.25309E+3
   3.94492E+3  -1.72765E+3
   2.38501E+3   1.77101E+3
  -5.24751E+2   5.72358E+3
  -2.60127E+3  -3.19815E+2
  -8.51976E+2  -1.70183E+3
   2.84644E+3  -7.23356E+2
   1.59741E+3   1.89445E+3
   3.57832E+1   4.07624E+2
  -9.32435E+2   2.19544E+2
   2.88477E+3   3.52398E+3
   1.23179E+3   2.73948E+3
  -2.44248E+3   1.84074E+3
  -3.93767E+3   5.20401E+2
  -1.29239E+3  -1.14550E+3
  -8.98934E+2  -3.58055E+3
  -1.46383E+3  -8.54887E+2
   1.37748E+3  -1.02183E+3
   1.02941E+3   5.17872E+2
   1.67592E+3   9.70716E+2
   8.08612E+2   2.29686E+3
  -1.23062E+3   1.51849E+3
  -1.00251E+3   4.59873E+2
   1.27810E+3   1.95339E+2
   2.29040E+3  -3.05858E+2
   1.71102E+3   7.34620E+2
  -7.99255E+2   1.31824E+3
  -1.33500E+3   2.25416E+3
  -2.77283E+2  -1.50854E+3
   1.34296E+2   9.29406E+2
  -1.14072E+3   1.22792E+3
  -3.36674E+3  -1.07697E+3
   6.87283E+2  -7.23018E+2
  -3.57633E+2   2.88399E+3
  -1.04384E+2   1.82168E+3
  -6.30967E+2  -4.96403E+2
  -5.43593E+2  -1.91600E+3
   5.63785E+2  -4.01939E+2
   1.97975E+3  -1.59994E+3
   5.47013E+2   8.21306E+2
  -7.26730E+1  -9.84656E+1
  -6.46780E+2   1.47300E+3
   3.82688E+1   8.23689E+2
   2.92819E+2   9.25545E+2
  -8.10192E+2   5.64292E+2
  -4.67532E+3  -4.18750E+2
  -3.48225E+2  -2.26665E+3
   1.17423E+3  -3.69063E+2
  -2.90767E+3   1.08895E+3
  -1.55035E+3  -1.75594E+3
  -1.57508E+3  -2.09424E+3
  -5.48333E+2  -1.01370E+3
  -2.22402E+3  -9.56888E+2
  -2.37904E+2  -2.18554E+3
   2.65949E+3  -1.59378E+2
   6.77899E+2   1.19788E+3
   9.26210E+2   1.00630E+3
  -1.90567E+3   2.74190E+2
  -1.40073E+3  -4.90338E+2
  -1.37675E+3  -2.33583E+3
   2.02154E+2  -5.65072E+2
   9.10793E+2  -5.66695E+2
  -3.18904E+2  -3.94799E+2
   2.14164E+2  -1.92172E+3
  -2.94133E+2   3.43561E+2
   4.01229E+2  -3.92275E+2
  -9.38110E+2   9.26357E+2
  -9.58448E+2  -1.50804E+3
   1.14905E+3  -1.55585E+3
   1.15653E+3  -6.41895E+2
  -1.43592E+3   7.37180E+2
  -1.65847E+3  -9.31738E+2
  -1.43498E+3  -1.76993E+2
   4.93652E+2  -1.48987E+3
   4.91810E+2   4.27832E+2
   1.85473E+3  -9.28348E+2
   1.15053E+3   2.43342E+3
   1.11993E+3   2.60479E+3
   2.02835E+3   8.93030E+2
   1.49874E+3  -6.65624E+2
  -8.19985E+2   1.41161E+3
  -2.49496E+3   6.59068E+2
   2.60695E+2  -3.49504E+3
   2.50073E+3  -7.82209E+2
   1.41102E+3   1.50550E+3
   1.37517E+2   4.53791E+2
  -3.50102E+2  -9.32924E+2
  -1.23437E+3   8.14553E+2
  -3.28276E+3  -8.88746E+2
  -2.11249E+3  -5.63922E+2
  -2.04779E+3  -1.77718E+3
   9.17919E+2  -7.20405E+2
   1.41250E+3   8.14067E+2
   1.59060E+3   2.38975E+3
  -3.18323E+2   1.72283E+2
  -1.85520E+3  -1.83878E+3
   1.77024E+3  -1.16765E+2
  -9.22804E+2   8.75233E+2
  -1.74139E+3  -7.28761E+2
  -2.14425E+2   1.48111E+3
   2.32721E+3   1.01035E+3
  -1.58081E+3   6.79311E+2
  -5.39378E+2   1.76472E+3
  -3.19517E+3  -1.32719E+3
   2.97982E+2  -1.81757E+3
   1.87124E+3  -3.65990E+3
   3.58975E+1   1.26042E+3
  -2.61203E+3  -8.98736E+2
  -1.23282E+3   5.49556E+2
  -2.06573E+3  -4.65237E+2
   9.51047E+1   7.97389E+2
  -2.18845E+3   1.79323E+3
  -2.55913E+3  -7.79489E+2
  -2.02649E+3  -1.48157E+3
   1.93414E+3  -9.13249E+2
   1.31012E+3   1.04365E+3
   1.41302E+3   2.80035E+3
  -2.61837E+3   4.41297E+2
  -5.84447E+2  -2.05017E+3
  -4.35070E+2  -5.65287E+1
   1.17307E+3  -1.38882E+3
  -8.07080E+2  -1.57327E+2
   1.88814E+3   1.13965E+3
  -4.20088E+2  -1.67074E+3
   1.52654E+3   3.40936E+3
   2.74323E+2  -1.32319E+2
   2.03417E+3   9.17578E+2
  -1.43505E+3  -8.63725E+2
  -1.46052E+2  -1.02049E+3
  -3.60236E+2   1.06184E+3
   5.48127E+2   8.68187E+2
  -1.84770E+3  -3.00453E+3
   1.59409E+2  -1.48161E+1
   2.02512E+3   2.10427E+3
  -3.04368E+2   1.23008E+3
  -7.85173E+2  -1.80373E+3
   1.65987E+3  -1.10808E+3
  -4.15446E+2   7.58251E+2
   1.87756E+2   9.62764E+2
  -5.80719E+2   1.58063E+3
  -1.82414E+3  -1.61955E+3
   2.90000E+3  -5.10544E+2
   1.32077E+3   5.94779E+2
  -1.21985E+2   1.90545E+3
  -3.75380E+2   7.70603E+2
  -5.04314E+2  -1.17561E+3
   8.34037E+2  -1.90494E+3
   4.63762E+2  -7.15875E+2
  -1.59367E+3  -1.52272E+3
   1.61945E+3   3.85523E+1
   1.89689E+3  -2.92120E+3
   2.10484E+3   1.94970E+3
   2.59091E+3   9.15256E+2
  -9.64647E+2   1.32100E+3
  -1.39994E+3  -1.96198E+3
   1.58291E+3  -1.01271E+2
   5.25583E+2  -5.76380E+2
   6.64244E+2  -2.94800E+2
   1.12902E+3  -9.99557E+2
   9.48792E+2   9.15960E+2
   1.05720E+3   2.37006E+3
  -2.65030E+2  -6.24096E+2
   1.35618E+3  -7.35391E+2
  -9.88565E+2  -1.11838E+3
   1.26080E+3  -1.35139E+3
   2.25452E+3   2.02608E+3
   9.11330E+2  -1.00282E+3
   2.14672E+2  -7.11379E+2
   7.49186E+2   2.41695E+2
  -1.18661E+3   1.29334E+3
  -6.85081E+1  -1.02671E+3
  -8.16574E+2  -1.03283E+3
  -5.12192E+2  -3.23787E+3
   2.68292E+3  -9.22157E+2
   2.32202E+3  -9.99189E+2
   6.35566E+2   1.36819E+2
  -2.58347E+3   1.38864E+3
  -1.49783E+3   9.44826E+2
  -2.89142E-2  -2.07675E+3
  -7.15597E+2  -1.36674E+3
   4.44680E+2  -2.61471E+3
   8.06966E+2  -1.87442E+3
   1.18185E+3   1.90989E+3
   1.33456E+3   1.70399E+3
  -6.13977E+2   1.06970E+3
  -1.76772E+3   8.71105E+2
   3.73579E+2  -1.02783E+3
   3.01749E+2  -1.96375E+3
   7.62955E+2  -5.23672E+2
  -3.71967E+2   1.17853E+3
   3.17379E+2  -2.84663E+2
  -6.07568E+2  -8.84524E+2
   2.27677E+2  -1.13297E+3
   1.83520E+2  -1.23782E+0
   1.16446E+3   1.96847E+2
   1.22516E+3   4.91564E+2
  -9.23883E+2   8.62783E+2
   1.02114E+3  -1.08634E+3
  -1.70103E+3  -3.95283E+2
  -1.13156E+3  -1.75885E+3
   1.10869E+3  -3.31435E+3
   1.64346E+3   1.95638E+2
   9.43850E+2   2.35686E+3
  -2.37149E+2   3.03103E+2
   5.17471E+2   6.16033E+2
   1.20184E+3   1.25777E+3
   1.51280E+3  -2.03315E+3
  -9.24090E+2   9.94235E+2
   1.21561E+2  -1.53946E+3
   2.56217E+2   9.96341E+2
  -2.53479E+2   2.38633E+3
  -5.29892E+1   5.35948E+2
   1.25377E+3   1.35873E+2
  -2.15222E+3   9.35825E+2
  -7.37086E+2   1.25596E+1
   6.48469E+2   4.17989E+2
   7.39048E+2  -3.87003E+2
   6.33190E+2  -1.36941E+3
   1.47591E+3   4.74618E+2
  -4.15786E+2  -1.73449E+3
   2.87704E+2  -2.25188E+2
  -6.99011E+2   1.63834E+3
  -1.56294E+3  -9.68296E+1
  -1.81506E+2   3.85532E+2
  -4.32591E+2  -8.63002E+2
  -1.51853E+3   3.53131E+2
   5.07231E+2   1.41625E+3
  -1.54058E+3  -2.88968E+2
   3.17610E+2   6.70179E+2
   3.64910E+2   3.11843E+2
   5.88594E+2  -1.70303E+2
   5.58010E+2  -1.59099E+3
   1.06812E+3   6.35468E+2
   1.57023E+2   2.70899E+3
   4.06916E+2   2.43927E+3
  -1.27200E+3  -2.39519E+2
  -1.02043E+2  -1.16961E+3
  -2.13876E+3  -2.50543E+3
  -2.98521E+3   7.57215E+2
   2.59779E+2   5.86620E+2
  -1.59699E+3  -9.61431E+2
   7.60635E+2  -1.19274E+3
  -4.67486E+2   5.48773E+2
   6.51425E+2   1.27374E+3
  -1.13908E+3   3.42050E+2
   1.86239E+3   4.25841E+2
   2.02592E+3  -8.85364E+2
   6.11399E+0   2.13406E+2
   5.07667E+2   5.97872E+2
   4.23818E+2  -1.17925E+3
  -5.91282E+2   1.21185E+3
  -1.08434E+3   1.97683E+3
  -1.19164E+3   5.63434E+2
   2.68475E+3  -1.69480E+2
   1.60414E+3  -2.43111E+3
   4.34418E+2   1.24888E+3
   6.81834E+2   1.46190E+3
  -1.44311E+3  -7.44054E+2
  -1.52193E+3  -3.84341E+2
  -4.02432E+2   1.99144E+3
  -3.60011E+2   3.39952E+1
   4.37899E+2  -7.27503E+2
  -1.14950E+3  -4.47520E+1
  -1.28191E+3   1.11780E+3
  -6.52387E+2  -2.00417E+3
   1.05601E+1   2.40761E+3
  -5.70727E+2   2.06368E+3
  -5.12221E+2   5.56321E+2
   4.94399E+2   1.98954E+2
   7.80779E+2   4.83652E+2
