 
 $NMID
 ID=''
 FMTDAT='(2E13.5)'
 TRAMP=   1.00000E+0
 VOLUME=   1.00000E+0
 $END
  -2.01088E+3   1.89278E+4
  -1.88321E+4   4.51573E+4
  -1.08418E+4   4.74820E+4
  -1.03916E+4   4.36298E+4
  -1.24393E+4   4.48717E+4
  -1.06608E+4   4.52397E+4
  -1.10710E+4   4.34611E+4
  -1.24347E+4   4.38907E+4
  -1.15862E+4   4.41023E+4
  -1.17014E+4   4.27682E+4
  -1.25909E+4   4.29799E+4
  -1.18941E+4   4.30994E+4
  -1.19669E+4   4.22431E+4
  -1.28582E+4   4.23405E+4
  -1.25248E+4   4.22659E+4
  -1.26548E+4   4.15063E+4
  -1.32989E+4   4.14658E+4
  -1.31825E+4   4.13618E+4
  -1.33540E+4   4.07323E+4
  -1.39232E+4   4.05385E+4
  -1.38550E+4   4.02493E+4
  -1.38324E+4   3.96948E+4
  -1.42073E+4   3.96020E+4
  -1.42705E+4   3.92531E+4
  -1.42464E+4   3.86915E+4
  -1.44647E+4   3.85093E+4
  -1.44366E+4   3.83233E+4
  -1.46502E+4   3.77763E+4
  -1.49988E+4   3.75014E+4
  -1.48879E+4   3.72778E+4
  -1.48525E+4   3.68849E+4
  -1.50304E+4   3.68500E+4
  -1.51970E+4   3.65928E+4
  -1.52858E+4   3.61670E+4
  -1.54481E+4   3.59908E+4
  -1.54965E+4   3.58159E+4
  -1.55696E+4   3.53959E+4
  -1.56500E+4   3.51194E+4
  -1.56190E+4   3.49296E+4
  -1.56933E+4   3.45560E+4
  -1.58449E+4   3.43562E+4
  -1.60762E+4   3.39987E+4
  -1.61212E+4   3.35483E+4
  -1.60868E+4   3.31431E+4
  -1.60908E+4   3.29069E+4
  -1.61150E+4   3.25496E+4
  -1.62527E+4   3.22542E+4
  -1.62466E+4   3.20153E+4
  -1.62873E+4   3.16545E+4
  -1.63563E+4   3.13778E+4
  -1.63343E+4   3.10712E+4
  -1.64034E+4   3.07216E+4
  -1.62910E+4   3.03667E+4
  -1.62456E+4   3.01875E+4
  -1.62310E+4   2.98916E+4
  -1.62467E+4   2.95502E+4
  -1.61933E+4   2.93320E+4
  -1.61893E+4   2.89769E+4
  -1.61968E+4   2.87078E+4
  -1.60606E+4   2.84107E+4
  -1.60142E+4   2.81076E+4
  -1.58959E+4   2.78590E+4
  -1.58448E+4   2.77309E+4
  -1.58059E+4   2.75500E+4
  -1.57221E+4   2.72812E+4
  -1.55689E+4   2.70614E+4
  -1.55798E+4   2.69927E+4
  -1.54980E+4   2.68726E+4
  -1.55027E+4   2.66482E+4
  -1.54536E+4   2.64953E+4
  -1.53717E+4   2.63188E+4
  -1.53216E+4   2.62766E+4
  -1.52695E+4   2.61027E+4
  -1.52786E+4   2.60867E+4
  -1.53096E+4   2.59688E+4
  -1.52575E+4   2.58711E+4
  -1.53161E+4   2.57626E+4
  -1.53458E+4   2.57258E+4
  -1.54114E+4   2.55425E+4
  -1.54267E+4   2.54625E+4
  -1.54987E+4   2.54232E+4
  -1.56031E+4   2.52613E+4
  -1.57440E+4   2.51045E+4
  -1.57820E+4   2.50330E+4
  -1.59467E+4   2.48960E+4
  -1.61320E+4   2.47511E+4
  -1.63205E+4   2.45636E+4
  -1.64067E+4   2.44101E+4
  -1.64527E+4   2.42366E+4
  -1.66253E+4   2.41266E+4
  -1.67469E+4   2.39199E+4
  -1.68915E+4   2.36685E+4
  -1.69815E+4   2.35234E+4
  -1.71927E+4   2.33356E+4
  -1.73291E+4   2.31208E+4
  -1.74037E+4   2.28764E+4
  -1.75573E+4   2.26537E+4
  -1.76506E+4   2.24795E+4
  -1.78331E+4   2.22199E+4
  -1.80266E+4   2.19279E+4
  -1.81601E+4   2.16194E+4
  -1.82967E+4   2.13452E+4
  -1.83986E+4   2.11928E+4
  -1.85318E+4   2.08442E+4
  -1.86047E+4   2.05838E+4
  -1.87511E+4   2.02183E+4
  -1.88581E+4   1.99057E+4
  -1.89300E+4   1.96385E+4
  -1.90980E+4   1.92148E+4
  -1.91509E+4   1.88610E+4
  -1.91006E+4   1.86093E+4
  -1.91481E+4   1.82372E+4
  -1.92984E+4   1.79036E+4
  -1.93231E+4   1.75301E+4
  -1.94167E+4   1.72496E+4
  -1.94267E+4   1.68209E+4
  -1.93663E+4   1.64682E+4
  -1.94294E+4   1.61322E+4
  -1.94240E+4   1.58050E+4
  -1.93985E+4   1.54645E+4
  -1.93885E+4   1.51196E+4
  -1.93783E+4   1.47068E+4
  -1.93937E+4   1.43255E+4
  -1.92844E+4   1.39934E+4
  -1.93063E+4   1.36836E+4
  -1.92491E+4   1.33289E+4
  -1.92038E+4   1.29755E+4
  -1.90989E+4   1.27154E+4
  -1.89877E+4   1.23083E+4
  -1.89756E+4   1.20338E+4
  -1.89451E+4   1.16679E+4
  -1.87899E+4   1.13418E+4
  -1.87043E+4   1.10525E+4
  -1.85385E+4   1.07456E+4
  -1.85109E+4   1.04297E+4
  -1.83712E+4   1.01275E+4
  -1.82688E+4   9.80542E+3
  -1.81136E+4   9.50578E+3
  -1.80717E+4   9.26386E+3
  -1.79009E+4   8.97632E+3
  -1.77353E+4   8.62435E+3
  -1.76510E+4   8.39633E+3
  -1.74777E+4   8.21997E+3
  -1.74137E+4   7.89580E+3
  -1.72467E+4   7.66709E+3
  -1.70429E+4   7.43088E+3
  -1.69712E+4   7.21982E+3
  -1.67369E+4   6.90736E+3
  -1.65726E+4   6.67538E+3
  -1.64878E+4   6.45540E+3
  -1.63438E+4   6.29480E+3
  -1.61925E+4   6.02797E+3
  -1.59523E+4   5.80456E+3
  -1.57524E+4   5.63039E+3
  -1.55593E+4   5.42431E+3
  -1.54231E+4   5.23933E+3
  -1.52938E+4   4.98919E+3
  -1.51028E+4   4.88248E+3
  -1.49317E+4   4.68727E+3
  -1.47113E+4   4.47672E+3
  -1.45310E+4   4.35901E+3
  -1.44061E+4   4.18011E+3
  -1.41877E+4   4.02793E+3
  -1.40349E+4   3.86233E+3
  -1.38710E+4   3.76769E+3
  -1.37101E+4   3.59395E+3
  -1.35175E+4   3.42497E+3
  -1.32618E+4   3.32069E+3
  -1.30536E+4   3.16435E+3
  -1.29553E+4   3.19942E+3
  -1.27698E+4   2.93483E+3
  -1.26300E+4   2.85759E+3
  -1.24830E+4   2.72643E+3
  -1.23165E+4   2.71249E+3
  -1.21131E+4   2.56487E+3
  -1.19627E+4   2.51790E+3
  -1.17376E+4   2.41974E+3
  -1.15793E+4   2.34978E+3
  -1.14672E+4   2.30434E+3
  -1.13037E+4   2.17793E+3
  -1.11135E+4   2.13156E+3
  -1.09084E+4   2.04308E+3
  -1.08269E+4   2.00624E+3
  -1.06508E+4   1.93678E+3
  -1.04994E+4   1.90206E+3
  -1.02588E+4   1.86881E+3
  -1.02507E+4   1.83254E+3
  -1.00608E+4   1.76006E+3
  -9.82653E+3   1.74339E+3
  -9.70528E+3   1.67360E+3
  -9.59850E+3   1.59692E+3
  -9.50283E+3   1.62052E+3
  -9.32402E+3   1.59409E+3
  -9.20369E+3   1.52112E+3
  -9.05571E+3   1.50859E+3
  -8.83376E+3   1.48227E+3
  -8.73896E+3   1.44066E+3
  -8.59755E+3   1.43047E+3
  -8.50797E+3   1.40438E+3
  -8.35514E+3   1.40796E+3
  -8.25490E+3   1.40066E+3
  -8.10141E+3   1.29207E+3
  -7.94953E+3   1.27672E+3
  -7.78812E+3   1.29855E+3
  -7.63155E+3   1.28571E+3
  -7.50129E+3   1.29160E+3
  -7.39935E+3   1.26591E+3
  -7.27591E+3   1.24163E+3
  -7.13387E+3   1.27432E+3
  -6.93340E+3   1.23008E+3
  -6.92916E+3   1.23269E+3
  -6.74809E+3   1.20956E+3
  -6.63400E+3   1.27230E+3
  -6.49072E+3   1.24048E+3
  -6.38393E+3   1.26370E+3
  -6.24618E+3   1.18169E+3
  -6.07720E+3   1.21442E+3
  -5.99964E+3   1.23231E+3
  -5.92562E+3   1.30729E+3
  -5.76196E+3   1.24409E+3
  -5.69021E+3   1.30290E+3
  -5.44626E+3   1.24997E+3
  -5.44243E+3   1.28779E+3
  -5.21721E+3   1.28685E+3
  -5.20231E+3   1.34147E+3
  -5.04025E+3   1.35654E+3
  -4.98468E+3   1.35843E+3
  -4.81814E+3   1.39927E+3
  -4.73350E+3   1.35351E+3
  -4.66361E+3   1.42651E+3
  -4.49835E+3   1.43783E+3
  -4.43952E+3   1.47141E+3
  -4.27259E+3   1.37892E+3
  -4.23660E+3   1.52203E+3
  -4.08539E+3   1.45420E+3
  -3.93193E+3   1.48878E+3
  -3.89706E+3   1.56768E+3
  -3.77238E+3   1.57848E+3
  -3.66745E+3   1.55376E+3
  -3.62929E+3   1.51652E+3
  -3.54893E+3   1.63302E+3
  -3.40949E+3   1.60112E+3
  -3.31480E+3   1.63600E+3
  -3.23807E+3   1.65993E+3
  -3.16566E+3   1.65432E+3
  -3.04044E+3   1.67396E+3
  -3.03557E+3   1.71059E+3
  -2.85918E+3   1.70802E+3
  -2.78755E+3   1.69121E+3
  -2.79141E+3   1.79413E+3
  -2.64888E+3   1.77062E+3
  -2.58370E+3   1.72321E+3
  -2.48974E+3   1.75765E+3
  -2.36415E+3   1.81932E+3
  -2.34084E+3   1.77659E+3
  -2.22193E+3   1.76067E+3
  -2.18901E+3   1.79802E+3
  -2.08462E+3   1.81130E+3
  -1.98940E+3   1.81913E+3
  -1.93877E+3   1.80006E+3
  -1.81942E+3   1.86476E+3
  -1.87613E+3   1.88099E+3
  -1.66636E+3   1.89159E+3
  -1.62311E+3   1.85459E+3
  -1.60520E+3   1.89375E+3
  -1.53014E+3   1.91264E+3
  -1.42207E+3   1.87939E+3
  -1.31732E+3   1.79528E+3
  -1.32517E+3   1.88107E+3
  -1.27680E+3   1.90028E+3
  -1.22247E+3   1.89526E+3
  -1.10039E+3   1.87547E+3
  -1.02667E+3   1.92513E+3
  -1.01837E+3   1.93387E+3
  -9.21564E+2   1.86760E+3
  -8.09989E+2   1.93374E+3
  -8.14668E+2   1.91817E+3
  -7.21584E+2   1.91802E+3
  -6.95136E+2   1.91069E+3
  -6.78862E+2   1.90816E+3
  -6.16757E+2   1.93598E+3
  -5.34506E+2   1.86943E+3
  -4.58321E+2   1.88990E+3
  -4.98134E+2   1.85654E+3
  -4.04624E+2   1.84786E+3
  -3.34695E+2   1.85169E+3
  -2.88422E+2   1.87142E+3
  -2.62170E+2   1.82105E+3
  -2.14573E+2   1.84729E+3
  -2.36887E+2   1.87855E+3
  -1.82803E+2   1.85350E+3
  -1.23143E+2   1.77256E+3
  -7.00273E+1   1.80260E+3
   8.66666E+0   1.79111E+3
   6.21332E+1   1.78129E+3
   5.46927E+1   1.76246E+3
   3.70411E+1   1.69409E+3
   9.42783E+1   1.74894E+3
   1.71815E+2   1.74418E+3
   1.68224E+2   1.71376E+3
   2.37892E+2   1.72156E+3
   2.64192E+2   1.74870E+3
   3.15409E+2   1.64343E+3
   3.22851E+2   1.67133E+3
   3.66965E+2   1.62786E+3
   4.45377E+2   1.68529E+3
   4.11780E+2   1.55034E+3
   4.30920E+2   1.59270E+3
   4.77792E+2   1.64934E+3
   5.98504E+2   1.58422E+3
   5.12064E+2   1.52410E+3
   5.75185E+2   1.55877E+3
   6.25913E+2   1.48563E+3
   6.33105E+2   1.42658E+3
   6.75446E+2   1.43898E+3
   6.76093E+2   1.48629E+3
   6.50880E+2   1.47312E+3
   7.01087E+2   1.44611E+3
   7.37593E+2   1.38299E+3
   7.76419E+2   1.35762E+3
   8.23424E+2   1.29715E+3
   8.05913E+2   1.38439E+3
   8.03768E+2   1.34163E+3
   8.47689E+2   1.34430E+3
   8.52353E+2   1.30798E+3
   9.00922E+2   1.21176E+3
   9.19576E+2   1.20277E+3
   9.41760E+2   1.20591E+3
   8.99114E+2   1.12087E+3
   9.47604E+2   1.13058E+3
   9.69436E+2   1.14950E+3
   9.36644E+2   1.11277E+3
   9.83069E+2   1.08282E+3
   9.90578E+2   1.07804E+3
   9.96784E+2   9.99040E+2
   9.77161E+2   1.02956E+3
   1.05022E+3   1.00230E+3
   9.78342E+2   9.96474E+2
   1.05259E+3   9.40469E+2
   1.07302E+3   9.44096E+2
   1.03842E+3   9.08980E+2
   1.04645E+3   8.96007E+2
   1.09836E+3   9.02660E+2
   1.04849E+3   8.32569E+2
   1.10455E+3   8.18115E+2
   1.11243E+3   7.69404E+2
   1.11770E+3   8.16237E+2
   1.14188E+3   7.50580E+2
   1.15132E+3   7.17135E+2
   1.14040E+3   7.85413E+2
   1.12632E+3   6.30428E+2
   1.09919E+3   7.03127E+2
   1.19111E+3   6.81880E+2
   1.17980E+3   6.11750E+2
   1.18956E+3   5.84690E+2
   1.20719E+3   6.22096E+2
   1.20014E+3   5.95747E+2
   1.19444E+3   5.16793E+2
   1.23179E+3   5.31474E+2
   1.28836E+3   4.48175E+2
   1.25737E+3   5.38471E+2
   1.20976E+3   4.49754E+2
   1.21057E+3   4.90973E+2
   1.20288E+3   4.97057E+2
   1.25953E+3   4.33730E+2
   1.27193E+3   4.26236E+2
   1.24844E+3   3.85169E+2
