 LCModel (Version 6.3-1N) Copyright: S.W. Provencher.          Ref.: Magn. Reson. Med. 30:672-679 (1993).                
 Slice_N1@14_20  02-Jun-2023 14:36:42
 27 lines in following concentration table = NCONC+1
    Conc.  %SD /Cr+PCr  Metabolite                                         
 1.03E-06  34% 1.5E-04 Mac                                                 
 2.52E-02  30%   3.672 Cr                                                  
 2.97E-02  24%   4.328 PCr                                                 
 7.74E-02  11%  11.284 Ins                                                 
 6.62E-02  10%   9.653 NAA                                                 
 5.58E-02  13%   8.133 Tau                                                 
 9.28E-03  34%   1.352 PCho                                                
 2.83E-03 114%   0.413 GPC                                                 
 3.97E-02  23%   5.790 Glu                                                 
 3.05E-02  24%   4.446 Gln                                                 
    0.000 999%   0.000 Ala                                                 
 3.62E-02  35%   5.273 Asc                                                 
 1.34E-02  50%   1.957 Asp                                                 
 8.61E-03  42%   1.255 GABA                                                
 8.97E-03  49%   1.307 Glc                                                 
 8.61E-03  49%   1.255 GSH                                                 
    0.000 999%   0.000 Lac                                                 
 8.44E-03  53%   1.230 NAAG                                                
    0.000 999%   0.000 PE                                                  
 1.21E-02  16%   1.765 GPC+PCho                                            
 7.47E-02  10%  10.883 NAA+NAAG                                            
 7.02E-02  16%  10.236 Glu+Gln                                             
 5.49E-02  11%   8.000 Cr+PCr                                              
 7.47E-02  10%  10.883 NAA+NAAG                                            
 5.49E-02  11%   8.000 Cr+PCr                                              
 7.02E-02  16%  10.236 Glu+Gln                                             
   6 lines in following misc. output table
  FWHM = 0.017 ppm    S/N =   4                                            
  Data shift = 0.012 ppm                                                   
  Ph: -15 deg      -5.1 deg/ppm                                            
  alphaB,S = 3.1E+01,   7.2E-01                                            
   18 spline knots.   Ns = 5(1)                                            
   2 inflections.     1 extrema                                            
  654 points on ppm-axis = NY
      4.000000     3.994181     3.988363     3.982544     3.976726     3.970907     3.965088     3.959270     3.953451     3.947633
      3.941814     3.935995     3.930177     3.924358     3.918540     3.912721     3.906902     3.901084     3.895265     3.889446
      3.883628     3.877809     3.871991     3.866172     3.860353     3.854535     3.848716     3.842898     3.837079     3.831260
      3.825442     3.819623     3.813805     3.807986     3.802167     3.796349     3.790530     3.784712     3.778893     3.773074
      3.767256     3.761437     3.755619     3.749800     3.743981     3.738163     3.732344     3.726526     3.720707     3.714888
      3.709070     3.703251     3.697433     3.691614     3.685795     3.679977     3.674158     3.668339     3.662521     3.656702
      3.650884     3.645065     3.639246     3.633428     3.627609     3.621791     3.615972     3.610153     3.604335     3.598516
      3.592698     3.586879     3.581060     3.575242     3.569423     3.563605     3.557786     3.551967     3.546149     3.540330
      3.534512     3.528693     3.522874     3.517056     3.511237     3.505419     3.499600     3.493781     3.487963     3.482144
      3.476326     3.470507     3.464688     3.458870     3.453051     3.447232     3.441414     3.435595     3.429777     3.423958
      3.418139     3.412321     3.406502     3.400684     3.394865     3.389046     3.383228     3.377409     3.371591     3.365772
      3.359953     3.354135     3.348316     3.342498     3.336679     3.330860     3.325042     3.319223     3.313405     3.307586
      3.301767     3.295949     3.290130     3.284312     3.278493     3.272674     3.266856     3.261037     3.255219     3.249400
      3.243581     3.237763     3.231944     3.226125     3.220307     3.214488     3.208670     3.202851     3.197032     3.191214
      3.185395     3.179577     3.173758     3.167939     3.162121     3.156302     3.150484     3.144665     3.138846     3.133028
      3.127209     3.121391     3.115572     3.109753     3.103935     3.098116     3.092298     3.086479     3.080660     3.074842
      3.069023     3.063205     3.057386     3.051567     3.045749     3.039930     3.034111     3.028293     3.022474     3.016656
      3.010837     3.005018     2.999200     2.993381     2.987563     2.981744     2.975925     2.970107     2.964288     2.958470
      2.952651     2.946832     2.941014     2.935195     2.929377     2.923558     2.917739     2.911921     2.906102     2.900284
      2.894465     2.888646     2.882828     2.877009     2.871191     2.865372     2.859553     2.853735     2.847916     2.842098
      2.836279     2.830460     2.824642     2.818823     2.813004     2.807186     2.801367     2.795549     2.789730     2.783911
      2.778093     2.772274     2.766456     2.760637     2.754818     2.749000     2.743181     2.737363     2.731544     2.725725
      2.719907     2.714088     2.708270     2.702451     2.696632     2.690814     2.684995     2.679177     2.673358     2.667539
      2.661721     2.655902     2.650084     2.644265     2.638446     2.632628     2.626809     2.620991     2.615172     2.609353
      2.603535     2.597716     2.591897     2.586079     2.580260     2.574442     2.568623     2.562804     2.556986     2.551167
      2.545349     2.539530     2.533711     2.527893     2.522074     2.516256     2.510437     2.504618     2.498800     2.492981
      2.487163     2.481344     2.475525     2.469707     2.463888     2.458070     2.452251     2.446432     2.440614     2.434795
      2.428977     2.423158     2.417339     2.411521     2.405702     2.399884     2.394065     2.388246     2.382428     2.376609
      2.370790     2.364972     2.359153     2.353335     2.347516     2.341697     2.335879     2.330060     2.324242     2.318423
      2.312604     2.306786     2.300967     2.295149     2.289330     2.283511     2.277693     2.271874     2.266056     2.260237
      2.254418     2.248600     2.242781     2.236963     2.231144     2.225325     2.219507     2.213688     2.207870     2.202051
      2.196232     2.190414     2.184595     2.178777     2.172958     2.167139     2.161321     2.155502     2.149683     2.143865
      2.138046     2.132228     2.126409     2.120590     2.114772     2.108953     2.103135     2.097316     2.091497     2.085679
      2.079860     2.074042     2.068223     2.062404     2.056586     2.050767     2.044949     2.039130     2.033311     2.027493
      2.021674     2.015856     2.010037     2.004218     1.998400     1.992581     1.986763     1.980944     1.975126     1.969307
      1.963489     1.957670     1.951852     1.946033     1.940215     1.934397     1.928578     1.922760     1.916941     1.911123
      1.905304     1.899486     1.893667     1.887849     1.882030     1.876212     1.870393     1.864575     1.858756     1.852938
      1.847119     1.841301     1.835482     1.829664     1.823845     1.818027     1.812208     1.806390     1.800571     1.794753
      1.788934     1.783116     1.777297     1.771479     1.765660     1.759842     1.754023     1.748205     1.742386     1.736568
      1.730749     1.724931     1.719113     1.713294     1.707476     1.701657     1.695839     1.690020     1.684202     1.678383
      1.672565     1.666746     1.660928     1.655109     1.649291     1.643472     1.637654     1.631835     1.626017     1.620198
      1.614380     1.608561     1.602743     1.596924     1.591106     1.585287     1.579469     1.573650     1.567832     1.562013
      1.556195     1.550376     1.544558     1.538739     1.532921     1.527102     1.521284     1.515465     1.509647     1.503829
      1.498010     1.492192     1.486373     1.480555     1.474736     1.468918     1.463099     1.457281     1.451462     1.445644
      1.439825     1.434007     1.428188     1.422370     1.416551     1.410733     1.404914     1.399096     1.393277     1.387459
      1.381640     1.375822     1.370003     1.364185     1.358366     1.352548     1.346729     1.340911     1.335092     1.329274
      1.323455     1.317637     1.311818     1.306000     1.300182     1.294363     1.288545     1.282726     1.276908     1.271089
      1.265271     1.259452     1.253634     1.247815     1.241997     1.236178     1.230360     1.224541     1.218723     1.212904
      1.207086     1.201267     1.195449     1.189630     1.183812     1.177993     1.172175     1.166356     1.160538     1.154719
      1.148901     1.143082     1.137264     1.131445     1.125627     1.119808     1.113990     1.108171     1.102353     1.096534
      1.090716     1.084898     1.079079     1.073261     1.067442     1.061624     1.055805     1.049987     1.044168     1.038350
      1.032531     1.026713     1.020894     1.015076     1.009257     1.003439     0.997620     0.991802     0.985983     0.980165
      0.974346     0.968528     0.962709     0.956891     0.951072     0.945254     0.939435     0.933617     0.927798     0.921980
      0.916161     0.910343     0.904524     0.898706     0.892887     0.887069     0.881251     0.875432     0.869614     0.863795
      0.857977     0.852158     0.846340     0.840521     0.834703     0.828884     0.823066     0.817247     0.811429     0.805610
      0.799792     0.793973     0.788155     0.782336     0.776518     0.770699     0.764881     0.759062     0.753244     0.747425
      0.741607     0.735788     0.729970     0.724151     0.718333     0.712514     0.706696     0.700877     0.695059     0.689240
      0.683422     0.677603     0.671785     0.665967     0.660148     0.654330     0.648511     0.642693     0.636874     0.631056
      0.625237     0.619419     0.613600     0.607782     0.601963     0.596145     0.590326     0.584508     0.578689     0.572871
      0.567052     0.561234     0.555415     0.549597     0.543778     0.537960     0.532141     0.526323     0.520504     0.514686
      0.508867     0.503049     0.497230     0.491412     0.485593     0.479775     0.473956     0.468138     0.462319     0.456501
      0.450682     0.444864     0.439045     0.433227     0.427408     0.421590     0.415771     0.409953     0.404134     0.398316
      0.392497     0.386679     0.380860     0.375042     0.369223     0.363405     0.357586     0.351767     0.345949     0.340130
      0.334312     0.328493     0.322675     0.316856     0.311038     0.305219     0.299401     0.293582     0.287764     0.281945
      0.276127     0.270308     0.264490     0.258671     0.252853     0.247034     0.241216     0.235397     0.229579     0.223760
      0.217942     0.212123     0.206305     0.200486
 NY phased data points follow
  -2.62960E-01 -3.55790E-01 -7.24189E-02 -2.79964E-01 -4.56301E-01 -2.33762E-01 -8.35941E-02 -7.03977E-02 -3.16919E-01 -3.49276E-02
  -1.39042E-02 -9.11745E-02  3.27921E-01  3.18320E-01  3.32827E-01  3.30935E-01  3.06896E-01  2.93170E-01  1.23205E-01  1.62249E-01
   6.10857E-02  1.98489E-01  2.18376E-01  8.70110E-02  4.11952E-03  8.50081E-03  3.87706E-01  2.91391E-02 -5.02436E-01 -4.00537E-01
   1.14708E-02 -1.16585E-01 -2.51037E-01  3.24054E-02 -4.83674E-01 -4.94024E-01 -1.65214E-01 -3.67888E-01 -1.01196E-01 -3.69057E-01
  -2.45518E-01  3.98754E-01  5.81562E-02  1.84561E-01  3.37299E-01  3.09507E-01  2.60520E-01  9.90313E-02  3.06255E-01  3.25244E-01
   2.13487E-01  4.35824E-01  4.34903E-01 -1.36388E-01 -2.88527E-02  1.05814E-01  1.05148E-01  4.75628E-02 -3.13082E-01 -1.61034E-01
  -1.08322E-01 -3.79890E-01 -3.85727E-01 -1.21411E-01 -1.06983E-01 -2.77968E-01 -1.03378E-01 -8.52794E-02 -1.80746E-01  3.85407E-01
   4.47814E-01  1.90783E-01  6.38666E-02 -1.45942E-01 -6.86573E-03  9.40907E-02  1.17057E-01 -1.67337E-01 -3.24703E-01 -5.01569E-01
  -8.22406E-01 -3.45542E-01 -1.44659E-01 -6.90942E-02  2.35222E-01  2.03716E-01  5.59787E-01  2.52785E-01  1.85156E-01  1.34262E-01
   3.35819E-02  1.78344E-01 -9.41626E-02  3.44087E-01 -7.41460E-02  6.50443E-02  6.49292E-02 -1.78113E-01  3.62963E-01 -8.95841E-02
  -1.74472E-01 -2.07148E-01 -2.30170E-01  2.89552E-01  1.76410E-01 -5.22098E-02  3.50503E-01  4.32269E-01  3.99824E-01  2.86277E-01
   3.94074E-01  3.37577E-01  3.60095E-01  3.22047E-01  1.26828E-01  2.74524E-01  2.87226E-02  4.27373E-01  2.96476E-01  1.96482E-01
   2.87682E-01  2.95228E-01  2.13214E-01 -1.21282E-02  2.52653E-01 -2.68364E-01 -3.81331E-01 -2.14482E-01 -4.70029E-01 -4.86750E-01
  -5.46574E-01 -6.10075E-01 -5.09824E-01 -6.64024E-01 -4.00587E-01 -5.71118E-01 -9.34248E-01 -8.51597E-01 -5.75371E-01 -1.56292E-01
  -3.88187E-01 -3.15401E-01 -3.79466E-01  3.71576E-02  2.34689E-01  1.38062E-01  2.46535E-01  5.43912E-02  1.40011E-01  3.82876E-01
   3.39256E-01 -2.01656E-01 -8.58263E-02 -1.05483E-03  3.17997E-01  2.04083E-01  5.66614E-03  1.71655E-01  8.91464E-02  5.52864E-01
   3.71705E-01  3.38792E-01  1.91158E-01  1.08729E-01  7.44291E-01  8.34583E-01  9.61218E-01  6.54706E-01 -8.96944E-02 -6.42254E-01
  -8.44741E-01 -7.33235E-01 -6.95111E-01 -2.93060E-01 -3.55679E-01  3.59691E-02 -9.56205E-02 -7.72006E-01 -4.04097E-01 -5.20532E-01
  -2.28734E-01 -3.17809E-01 -5.08028E-01 -3.90139E-01 -1.47991E-01 -9.06764E-02 -4.55694E-01 -1.38371E-01 -2.21059E-01 -8.76505E-02
  -1.73033E-01 -1.32786E-01 -7.05077E-02 -4.50389E-01 -3.06902E-03  1.61689E-01  1.02412E-01  3.37350E-01  8.05937E-02 -1.30681E-01
   2.61542E-01  1.66892E-01  1.66422E-02  2.26599E-02  8.37027E-02  1.24023E-01 -3.87355E-02  2.09542E-02 -1.28946E-01 -8.79180E-02
  -2.00353E-01 -3.01995E-02 -5.16115E-02 -1.82841E-01  1.61472E-01 -5.02676E-02  6.62832E-02 -1.97385E-01 -1.90788E-01 -2.23680E-01
  -3.00065E-01  3.49307E-04 -1.86659E-01  1.33631E-01 -1.54582E-01  7.72919E-02  5.70363E-01  3.27000E-01  1.23179E-01 -2.00270E-02
   3.81070E-01  5.95057E-01  3.07391E-01  6.34361E-02  2.74817E-01  5.75269E-02 -2.09054E-01 -2.91452E-03 -9.58432E-02 -1.16580E-01
  -1.43748E-01 -2.33007E-01 -1.62001E-02 -6.50799E-02 -5.25754E-02 -8.47044E-02 -2.04405E-01 -9.32413E-02  9.36272E-02  1.21592E-01
  -2.73669E-01  7.56603E-02  1.28624E-01 -9.36875E-02 -1.57144E-01  4.37115E-02  3.89128E-01  1.56538E-01  2.76052E-01  1.61091E-01
   2.01055E-01  1.80728E-01  4.29315E-02 -1.15727E-01 -1.07550E-01  3.08590E-01  2.76430E-01  3.18044E-01  4.20927E-01  1.31036E-01
  -4.71014E-02  3.16867E-01  3.39162E-01  3.59100E-01  2.25900E-01 -2.25922E-01 -9.60519E-03  1.10534E-01 -6.75772E-02  1.13890E-01
   3.13006E-04 -3.10451E-01 -1.95727E-01 -2.32729E-01  2.00975E-02  2.13919E-01  3.98961E-02  1.92533E-01  3.77546E-01  4.77116E-01
   1.90579E-01  1.11829E-01  1.86505E-01 -8.61896E-02  1.45317E-01  7.12499E-03 -2.21506E-01  1.44788E-01  2.08366E-01  1.33527E-02
   1.08763E-01  2.30176E-01  2.52513E-01  4.75878E-01  3.25083E-01  4.10779E-01  2.30940E-01 -1.31015E-01 -1.95074E-02  2.70663E-01
   4.06455E-01  7.40479E-02  2.56007E-01  1.22013E-01  5.80264E-02  2.28565E-01  9.15638E-02  9.17527E-02 -4.29559E-02  2.39454E-02
  -8.53354E-02 -3.25363E-01 -5.60457E-01 -5.74037E-01  4.85742E-04  8.27015E-02 -5.41333E-02 -5.89117E-02  4.89545E-04  3.96924E-01
   2.58808E-01  1.35773E-01  6.81972E-02  6.10576E-02  4.39039E-03 -2.53483E-01 -1.94992E-02 -3.54853E-01 -3.83954E-01 -2.96593E-01
  -6.18731E-01 -4.43444E-01 -1.17086E+00 -1.46646E+00 -9.49323E-01 -7.57736E-01 -1.59121E-01 -7.62835E-02  7.71024E-02  3.16575E-01
   2.60133E-01  3.19904E-01  3.15177E-01  9.73841E-02  1.96330E-01  4.82807E-01  3.10308E-01  3.42952E-01 -3.35317E-03  2.52603E-01
   4.15616E-02 -2.98877E-02  2.25528E-02 -1.75575E-01  2.53537E-01 -2.65178E-01  3.52713E-01  1.21408E-01 -2.04770E-02  1.59029E-01
  -1.76036E-01  1.30815E-01 -3.54694E-01 -3.18268E-01 -3.38528E-01 -1.27598E-01  1.60201E-02  3.95164E-01  5.49233E-02 -5.40763E-01
   5.85480E-02  2.14094E-02 -7.23830E-02 -2.03624E-01 -2.28608E-02  1.29984E-01 -1.31083E-01 -2.51657E-01  1.11313E-01  3.02497E-01
   1.86687E-01  1.39726E-01 -8.31003E-02  1.88649E-01  1.05585E-01 -7.31625E-02  1.26333E-01 -8.11475E-02 -1.50134E-01 -2.38420E-01
  -1.10620E-01  1.57591E-01  1.68166E-04  3.16939E-02 -1.66931E-01  4.31612E-02 -7.19797E-03 -1.65075E-01 -6.01773E-02 -2.43767E-01
   1.18978E-01 -1.52018E-01 -5.94115E-02 -1.42890E-01 -2.56536E-01 -6.22468E-02 -2.72334E-01 -1.18393E-01 -5.29840E-02  2.01079E-01
  -1.35384E-01 -1.37304E-01 -7.39066E-02 -3.05650E-02 -4.57858E-02 -1.06108E-01  1.97469E-01 -4.56680E-02  7.54831E-02  1.86851E-01
   3.12107E-01 -9.82911E-02  1.45187E-01  3.20613E-01 -3.35544E-01  6.64266E-03  1.03425E-01 -2.25875E-01 -3.77656E-02  2.92064E-01
  -9.97684E-02  4.38252E-02  2.25592E-01  3.88305E-01  2.66718E-01  2.15606E-01  7.05266E-01  2.09667E-01  1.42296E-01  3.84770E-01
   6.12569E-01  2.78756E-01  1.66929E-01  2.74722E-01 -3.38359E-02  3.12702E-01  3.08124E-01  1.01267E-01 -9.61345E-02 -5.44745E-02
  -4.14117E-02  9.56444E-02  4.96128E-01  6.56815E-02 -2.90973E-01 -7.89753E-02  6.45694E-02  9.63930E-02 -2.70135E-01 -4.34874E-01
   9.20745E-03 -7.08064E-02 -7.44680E-02 -2.87246E-02 -1.34154E-01  4.64262E-02 -1.46754E-01 -2.16423E-02 -2.60784E-01 -4.35593E-01
  -1.61684E-01 -4.13190E-02  2.53341E-01  5.07301E-02  3.10220E-01  1.57893E-01 -3.13072E-01 -3.05132E-01  9.19438E-03 -1.61421E-01
  -4.07238E-01  1.25595E-01 -2.12874E-01  3.18578E-01  3.52720E-01 -2.51991E-01 -1.30011E-01  8.02882E-03  1.17015E-01 -1.12385E-01
   2.37557E-03 -2.21662E-01 -6.10210E-02  9.09209E-02  8.53926E-02  1.96137E-01  3.91299E-01  3.34726E-01 -2.18190E-02  2.06487E-01
  -1.34961E-01 -2.26268E-01  6.90542E-02  1.87277E-02  2.50894E-01  1.16688E-01 -3.13952E-02  3.15369E-01  2.79433E-01  2.62155E-01
   9.74014E-02 -2.60264E-02 -2.28152E-02 -1.02371E-01 -2.70711E-01 -2.57087E-01 -3.59454E-02 -2.88102E-01 -3.83577E-01 -4.71859E-01
  -1.36801E-02 -1.53042E-01 -1.50829E-01 -5.58746E-02 -3.94046E-01  1.14171E-01 -5.28711E-02  2.71104E-01 -3.85062E-02 -2.68583E-01
   1.60543E-01 -2.49211E-01  1.04246E-01  5.34568E-02 -1.16389E-01  1.73541E-01  3.34997E-01  1.89211E-01  9.97197E-03  5.40095E-01
   3.48193E-01 -1.80657E-01  1.15066E-01  4.36360E-01  7.58242E-02 -4.16303E-02  2.60504E-01  2.91101E-02  1.55619E-02 -2.26607E-02
  -4.46589E-02  2.72803E-01  1.99093E-01 -2.15339E-01 -1.02692E-01  2.36896E-02 -3.73091E-03 -9.50198E-02 -1.37679E-01  1.79984E-01
  -1.21261E-03  4.97042E-02 -1.11852E-01 -2.28157E-01 -2.35095E-01 -1.28724E-01 -7.61706E-02 -1.62660E-01  7.32746E-02 -7.95284E-02
  -1.67011E-01 -3.26782E-01 -1.57592E-01 -1.32274E-01  1.21221E-01 -1.47228E-01 -2.71675E-01  8.77303E-02 -9.26152E-02 -1.41435E-01
  -1.63708E-01  2.18556E-01  8.40011E-02  4.34473E-02 -3.76109E-01 -2.94799E-01 -3.37743E-02 -1.78548E-01 -1.44797E-01 -1.84219E-01
  -1.12000E-02 -2.91707E-01 -5.19407E-02 -1.94052E-01  2.85788E-02  2.17795E-01  8.75014E-02  2.82814E-01 -2.20140E-02  6.86669E-02
   6.84283E-02 -2.97380E-01 -2.99745E-01 -1.47764E-02  1.33120E-01  2.19325E-01  2.07305E-01  2.31863E-01  4.97276E-02  8.44344E-02
   4.62614E-02  1.04520E-01  1.11950E-01 -3.53633E-01  5.96021E-02  1.53319E-01 -3.29850E-01 -1.70831E-01  1.02584E-01  2.53500E-01
   2.44053E-01  1.61321E-01  4.95755E-02  1.05031E-01  2.56985E-01 -2.95708E-01 -6.13286E-02  1.24949E-01  3.38103E-02  2.01026E-01
   2.66568E-02  1.90576E-01 -3.43015E-02  1.81104E-01  2.97281E-01 -9.52536E-04 -1.87403E-01 -1.85494E-01 -3.08716E-01 -4.11259E-03
   9.72774E-02 -2.60271E-01  1.45146E-01 -1.09971E-01
 NY points of the fit to the data follow
   9.64468E-02  8.44254E-02  9.18785E-03 -9.28444E-03 -4.30646E-02 -3.97896E-02 -3.96438E-02 -2.20872E-02 -2.79233E-02 -1.81150E-02
   7.05137E-02  1.10002E-01  2.65046E-01  4.78187E-01  2.79578E-01  3.87172E-01  4.43818E-01  3.12745E-01  2.56245E-01  1.07356E-01
   9.79627E-02  3.25187E-02  2.44500E-02 -9.27914E-03 -3.97257E-02 -6.25426E-02 -8.22685E-02 -9.47978E-02 -9.99803E-02 -1.12357E-01
  -1.19621E-01 -1.30781E-01 -1.42615E-01 -1.65325E-01 -1.89397E-01 -2.27747E-01 -2.45459E-01 -2.76033E-01 -2.45847E-01 -1.74330E-01
  -7.72755E-02  8.13290E-02  5.34566E-02  1.92150E-01  2.14198E-01  2.31398E-01  3.40678E-01  2.71223E-01  2.55187E-01  2.19791E-01
   1.79282E-01  1.28194E-01  1.06860E-01  5.89477E-02  2.32068E-02 -3.13418E-02 -7.54642E-02 -1.26358E-01 -1.62059E-01 -1.88585E-01
  -2.73659E-01 -2.24935E-01 -3.47188E-01 -3.24050E-01 -1.55272E-01 -3.34965E-01 -2.65973E-02  1.02076E-01  1.70962E-01  3.78052E-01
   3.73376E-01  4.04509E-01  2.78738E-01  2.11878E-01  1.19037E-01  2.52969E-02 -4.30892E-03 -1.69220E-01 -2.69536E-01 -3.75517E-01
  -6.52584E-01 -3.98322E-01 -1.59508E-01 -7.07655E-02  1.94507E-01  3.49430E-01  4.53145E-01  4.12680E-01  3.69411E-01  3.12414E-01
   2.50442E-01  2.33542E-01  1.98418E-01  1.66514E-01  1.53367E-01  5.46787E-02  8.76327E-02 -1.41740E-01 -1.31048E-01 -3.27898E-01
  -3.71897E-01 -2.15502E-01 -1.74739E-01  1.35233E-01  1.90352E-01  3.17737E-01  2.90716E-01  2.99779E-01  2.80499E-01  2.78202E-01
   2.75655E-01  2.76407E-01  2.72911E-01  2.71552E-01  2.69241E-01  2.68867E-01  2.69111E-01  2.68985E-01  2.57461E-01  2.88350E-01
   2.10450E-01  2.45293E-01  1.65278E-01 -1.38297E-02  7.98211E-02 -8.34723E-02 -1.73768E-01 -7.69862E-02 -3.08146E-01 -2.96417E-01
  -4.80605E-01 -5.44080E-01 -3.62396E-01 -5.15100E-01 -2.29373E-01 -5.72748E-01 -8.73887E-01 -7.41883E-01 -5.92187E-01 -2.68163E-01
  -1.62239E-01 -3.50719E-02 -1.62435E-02  8.88652E-04  2.14795E-02  4.10364E-02  5.87450E-02  7.41968E-02  8.93692E-02  1.01907E-01
   1.14892E-01  1.26872E-01  1.39916E-01  1.52312E-01  1.66354E-01  1.82340E-01  1.99446E-01  2.19937E-01  2.43564E-01  2.70966E-01
   3.06568E-01  3.57678E-01  4.24703E-01  4.04271E-01  6.81112E-01  5.57850E-01  7.73262E-01  6.26993E-01 -2.01312E-01 -6.09550E-01
  -8.32257E-01 -6.40351E-01 -5.37002E-01 -3.73368E-01 -3.23098E-01 -2.88168E-01 -2.66884E-01 -2.43973E-01 -2.17109E-01 -2.23009E-01
  -1.87204E-01 -1.81180E-01 -1.66286E-01 -1.60956E-01 -1.63889E-01 -1.56067E-01 -1.56404E-01 -1.42849E-01 -1.41565E-01 -1.32295E-01
  -1.27342E-01 -1.18585E-01 -1.11016E-01 -1.04095E-01 -9.67662E-02 -9.06610E-02 -8.46186E-02 -7.76850E-02 -7.19128E-02 -6.42129E-02
  -5.61478E-02 -4.50383E-02 -3.23788E-02 -2.16965E-02 -2.78958E-02 -3.66374E-02 -3.56350E-02 -2.64438E-02 -9.56964E-03 -2.26314E-02
  -4.49806E-02 -6.09764E-02 -6.67277E-02 -6.49526E-02 -5.87564E-02 -4.94367E-02 -4.20428E-02 -2.88921E-02 -2.73319E-02 -3.46483E-02
  -2.36179E-02 -2.95486E-02  7.25941E-03  2.93189E-02  6.28594E-02  1.79528E-01  1.90494E-01  1.90415E-01  1.66648E-01  1.48555E-01
   2.81836E-01  2.75149E-01  1.88040E-01  9.92115E-02  2.60262E-03 -2.94927E-02 -6.20004E-02 -6.03749E-02 -6.87020E-02 -7.37215E-02
  -8.20993E-02 -8.65082E-02 -9.01136E-02 -9.78031E-02 -9.13601E-02 -1.08148E-01 -9.59899E-02 -1.07828E-01 -1.05746E-01 -9.39918E-02
  -1.21604E-01 -9.47649E-02 -1.12390E-01 -1.48889E-01 -9.60797E-02 -1.46830E-01 -1.08809E-01  2.19715E-02 -4.84566E-02  3.38097E-02
   5.40836E-02  6.82786E-02  1.20756E-01  4.55115E-03  1.06312E-01  6.36278E-02  8.43984E-02  1.47184E-01  1.11667E-01  2.02800E-01
   1.71947E-01  1.93807E-01  1.56126E-01  1.18436E-01  8.97429E-02  4.72717E-02  2.63112E-02 -1.03179E-02 -3.36356E-02 -8.49014E-02
  -9.90958E-02 -1.66360E-01 -1.87727E-01 -1.66925E-01 -1.58351E-01 -3.41467E-03  9.09895E-02  1.87369E-01  2.62812E-01  2.30041E-01
   2.14644E-01  1.51408E-01  1.11573E-01  1.05489E-01  7.42327E-02  1.00347E-01  1.12620E-01  1.24677E-01  1.49952E-01  1.41132E-01
   1.44168E-01  1.27913E-01  1.21623E-01  1.10702E-01  1.02398E-01  9.58503E-02  8.08883E-02  6.99498E-02  5.54371E-02  1.77315E-02
   2.11651E-02 -2.72743E-02 -2.01989E-02 -4.28662E-02 -4.80545E-02 -5.79578E-02 -9.54260E-02 -1.01544E-01 -1.89101E-01 -2.03061E-01
  -2.60464E-01 -2.97178E-01 -2.69198E-01 -2.75036E-01 -1.91448E-01 -1.37300E-01 -6.44407E-02  1.41876E-02  3.16807E-02  9.26630E-02
   4.95318E-02  5.61058E-02  2.30674E-04 -1.93313E-02 -8.67232E-02 -1.02376E-01 -1.85021E-01 -3.16888E-01 -1.72847E-01 -1.95315E-01
  -3.68596E-01 -4.25589E-01 -1.23217E+00 -1.51137E+00 -1.10069E+00 -7.26992E-01 -2.51396E-01 -1.49167E-01 -1.26955E-02 -4.66420E-02
  -3.48227E-02 -2.21872E-02 -9.16055E-03  1.62464E-04  8.68858E-03  1.58850E-02  2.04800E-02  2.99361E-02  1.77369E-02  2.99583E-02
  -4.18640E-03 -8.33516E-03 -3.44319E-02 -6.05360E-02 -5.84885E-02 -7.85238E-02 -5.69674E-02 -5.64894E-02 -3.49198E-02 -2.70498E-02
  -1.50936E-02 -7.00454E-03  9.33813E-05  7.17983E-03  1.05646E-02  1.45192E-02  1.69070E-02  1.99305E-02  2.25201E-02  2.53493E-02
   2.70778E-02  2.87498E-02  3.10092E-02  3.21977E-02  3.52235E-02  3.55756E-02  3.77825E-02  3.73101E-02  3.91930E-02  4.07693E-02
   4.23228E-02  4.50227E-02  4.54565E-02  4.64457E-02  4.52842E-02  4.41528E-02  4.29125E-02  4.19792E-02  4.06551E-02  3.88650E-02
   3.67025E-02  3.34046E-02  3.09734E-02  2.74808E-02  2.40086E-02  2.09749E-02  1.81746E-02  1.64838E-02  1.27059E-02  1.08817E-02
   8.28996E-03  6.05390E-03  4.72359E-03  3.06383E-03  1.66252E-03  4.55596E-04 -1.04619E-03 -2.36384E-03 -3.30340E-03 -4.60474E-03
  -4.81069E-03 -5.51656E-03 -6.27255E-03 -5.47156E-03 -4.91827E-03 -3.64382E-03 -2.38051E-03 -1.04035E-04  1.99167E-03  4.12519E-03
   7.17355E-03  7.85978E-03  8.89579E-03  9.82770E-03  1.24315E-02  1.58992E-02  1.97397E-02  2.31791E-02  2.65351E-02  2.97864E-02
   3.41808E-02  3.94238E-02  4.39813E-02  5.00197E-02  5.47500E-02  5.98559E-02  6.52267E-02  6.97761E-02  7.36822E-02  7.60259E-02
   7.77159E-02  7.75106E-02  7.78528E-02  7.69265E-02  7.59171E-02  7.43414E-02  7.14177E-02  6.76531E-02  6.21610E-02  5.72802E-02
   5.22371E-02  4.82786E-02  4.30789E-02  3.95042E-02  3.41777E-02  3.02341E-02  2.72970E-02  2.36871E-02  2.10235E-02  1.79060E-02
   1.60645E-02  1.38091E-02  1.22993E-02  1.09194E-02  9.89351E-03  1.06381E-02  1.16034E-02  1.26347E-02  1.44399E-02  1.60764E-02
   1.83571E-02  2.02750E-02  2.33446E-02  2.58009E-02  2.77965E-02  2.92611E-02  3.01276E-02  3.11102E-02  3.12804E-02  3.29162E-02
   3.45390E-02  3.42914E-02  3.48617E-02  3.33937E-02  3.23629E-02  3.17788E-02  2.93574E-02  2.81071E-02  2.60743E-02  2.51648E-02
   2.35790E-02  2.18190E-02  2.03341E-02  1.85184E-02  1.69674E-02  1.49527E-02  1.31139E-02  1.10257E-02  9.86225E-03  8.96401E-03
   7.63533E-03  5.82446E-03  3.91418E-03  1.77070E-03 -1.35461E-03 -4.84216E-03 -8.49759E-03 -1.23898E-02 -1.60129E-02 -2.17749E-02
  -2.75140E-02 -3.54358E-02 -4.36893E-02 -5.10266E-02 -5.86877E-02 -6.56602E-02 -7.23401E-02 -7.78776E-02 -8.31938E-02 -8.73163E-02
  -9.12690E-02 -9.26118E-02 -9.21648E-02 -9.14403E-02 -9.02378E-02 -8.76038E-02 -8.40476E-02 -7.99940E-02 -7.64946E-02 -7.31827E-02
  -6.97558E-02 -6.71378E-02 -6.24328E-02 -5.81508E-02 -5.36322E-02 -4.80913E-02 -4.34855E-02 -3.74249E-02 -3.34190E-02 -2.80417E-02
  -2.36214E-02 -1.98072E-02 -1.47394E-02 -1.08947E-02 -7.46379E-03 -4.20845E-03 -1.46153E-03  2.07443E-03  5.65204E-03  6.30448E-03
   8.94592E-03  1.07623E-02  1.23232E-02  1.42200E-02  1.48967E-02  1.61623E-02  1.67468E-02  1.76625E-02  1.86631E-02  1.84174E-02
   1.93631E-02  2.06573E-02  2.16021E-02  2.29576E-02  2.40733E-02  2.52907E-02  2.50687E-02  2.53361E-02  2.59804E-02  2.54367E-02
   2.59076E-02  2.63784E-02  2.59087E-02  2.63415E-02  2.67805E-02  2.65871E-02  2.73219E-02  2.78627E-02  2.84573E-02  2.92356E-02
   2.81493E-02  2.65419E-02  2.68927E-02  2.74178E-02  2.84696E-02  2.84634E-02  2.88413E-02  2.97387E-02  2.87268E-02  2.88553E-02
   2.87526E-02  3.00776E-02  3.12451E-02  3.19185E-02  3.29350E-02  3.35341E-02  3.45574E-02  3.58297E-02  3.61534E-02  3.74464E-02
   3.78576E-02  3.89988E-02  3.90228E-02  3.83756E-02  3.95036E-02  3.99066E-02  4.14367E-02  4.28624E-02  4.39874E-02  4.51821E-02
   4.62516E-02  4.63120E-02  4.90039E-02  5.07607E-02  5.25196E-02  5.39875E-02  5.33184E-02  5.39433E-02  5.43423E-02  5.60391E-02
   5.80239E-02  5.87489E-02  5.95721E-02  6.05369E-02  6.19111E-02  6.32778E-02  6.53949E-02  6.62596E-02  6.75436E-02  7.03188E-02
   7.27045E-02  7.43334E-02  7.65003E-02  7.85607E-02  8.08960E-02  8.36739E-02  8.62089E-02  8.96224E-02  9.42705E-02  9.84284E-02
   1.02736E-01  1.05799E-01  1.10039E-01  1.13667E-01
 NY background values follow
     3.384E-02    3.368E-02    3.352E-02    3.337E-02    3.321E-02    3.305E-02    3.289E-02    3.274E-02    3.258E-02    3.242E-02
     3.226E-02    3.211E-02    3.195E-02    3.179E-02    3.163E-02    3.148E-02    3.132E-02    3.116E-02    3.100E-02    3.084E-02
     3.069E-02    3.053E-02    3.037E-02    3.021E-02    3.006E-02    2.990E-02    2.974E-02    2.958E-02    2.943E-02    2.927E-02
     2.911E-02    2.895E-02    2.879E-02    2.864E-02    2.848E-02    2.832E-02    2.816E-02    2.801E-02    2.785E-02    2.769E-02
     2.753E-02    2.738E-02    2.722E-02    2.706E-02    2.690E-02    2.674E-02    2.659E-02    2.643E-02    2.627E-02    2.611E-02
     2.596E-02    2.580E-02    2.564E-02    2.548E-02    2.533E-02    2.517E-02    2.501E-02    2.485E-02    2.469E-02    2.454E-02
     2.438E-02    2.422E-02    2.406E-02    2.391E-02    2.375E-02    2.359E-02    2.343E-02    2.328E-02    2.312E-02    2.296E-02
