 LCModel (Version 6.3-1N) Copyright: S.W. Provencher.          Ref.: Magn. Reson. Med. 30:672-679 (1993).                
 Slice_N1@19_15  02-Jun-2023 14:37:03
 27 lines in following concentration table = NCONC+1
    Conc.  %SD /Cr+PCr  Metabolite                                         
 2.28E-06  14% 2.3E-04 Mac                                                 
 3.71E-02  13%   3.738 Cr                                                  
 4.23E-02  13%   4.262 PCr                                                 
 9.04E-02   8%   9.105 Ins                                                 
 8.93E-02   7%   8.996 NAA                                                 
 8.24E-02   8%   8.301 Tau                                                 
 6.22E-03  32%   0.626 PCho                                                
 7.39E-03  30%   0.745 GPC                                                 
 9.19E-02   9%   9.264 Glu                                                 
 3.04E-02  21%   3.059 Gln                                                 
    0.000 999%   0.000 Ala                                                 
 2.00E-02  56%   2.017 Asc                                                 
 1.08E-02  71%   1.083 Asp                                                 
 1.47E-02  28%   1.477 GABA                                                
 5.67E-03  97%   0.571 Glc                                                 
 7.74E-03  46%   0.780 GSH                                                 
 3.92E-03 149%   0.395 Lac                                                 
 8.33E-03  46%   0.839 NAAG                                                
    0.000 999%   0.000 PE                                                  
 1.36E-02  12%   1.371 GPC+PCho                                            
 9.76E-02   7%   9.835 NAA+NAAG                                            
    0.122   9%  12.323 Glu+Gln                                             
 7.94E-02   7%   8.000 Cr+PCr                                              
 9.76E-02   7%   9.835 NAA+NAAG                                            
 7.94E-02   7%   8.000 Cr+PCr                                              
    0.122   9%  12.323 Glu+Gln                                             
   6 lines in following misc. output table
  FWHM = 0.017 ppm    S/N =   7                                            
  Data shift = 0.023 ppm                                                   
  Ph: -42 deg     -17.0 deg/ppm                                            
  alphaB,S = 5.5E-01,   3.6E-01                                            
   18 spline knots.   Ns = 5(1)                                            
   2 inflections.     1 extrema                                            
  654 points on ppm-axis = NY
      4.000000     3.994181     3.988363     3.982544     3.976726     3.970907     3.965088     3.959270     3.953451     3.947633
      3.941814     3.935995     3.930177     3.924358     3.918540     3.912721     3.906902     3.901084     3.895265     3.889446
      3.883628     3.877809     3.871991     3.866172     3.860353     3.854535     3.848716     3.842898     3.837079     3.831260
      3.825442     3.819623     3.813805     3.807986     3.802167     3.796349     3.790530     3.784712     3.778893     3.773074
      3.767256     3.761437     3.755619     3.749800     3.743981     3.738163     3.732344     3.726526     3.720707     3.714888
      3.709070     3.703251     3.697433     3.691614     3.685795     3.679977     3.674158     3.668339     3.662521     3.656702
      3.650884     3.645065     3.639246     3.633428     3.627609     3.621791     3.615972     3.610153     3.604335     3.598516
      3.592698     3.586879     3.581060     3.575242     3.569423     3.563605     3.557786     3.551967     3.546149     3.540330
      3.534512     3.528693     3.522874     3.517056     3.511237     3.505419     3.499600     3.493781     3.487963     3.482144
      3.476326     3.470507     3.464688     3.458870     3.453051     3.447232     3.441414     3.435595     3.429777     3.423958
      3.418139     3.412321     3.406502     3.400684     3.394865     3.389046     3.383228     3.377409     3.371591     3.365772
      3.359953     3.354135     3.348316     3.342498     3.336679     3.330860     3.325042     3.319223     3.313405     3.307586
      3.301767     3.295949     3.290130     3.284312     3.278493     3.272674     3.266856     3.261037     3.255219     3.249400
      3.243581     3.237763     3.231944     3.226125     3.220307     3.214488     3.208670     3.202851     3.197032     3.191214
      3.185395     3.179577     3.173758     3.167939     3.162121     3.156302     3.150484     3.144665     3.138846     3.133028
      3.127209     3.121391     3.115572     3.109753     3.103935     3.098116     3.092298     3.086479     3.080660     3.074842
      3.069023     3.063205     3.057386     3.051567     3.045749     3.039930     3.034111     3.028293     3.022474     3.016656
      3.010837     3.005018     2.999200     2.993381     2.987563     2.981744     2.975925     2.970107     2.964288     2.958470
      2.952651     2.946832     2.941014     2.935195     2.929377     2.923558     2.917739     2.911921     2.906102     2.900284
      2.894465     2.888646     2.882828     2.877009     2.871191     2.865372     2.859553     2.853735     2.847916     2.842098
      2.836279     2.830460     2.824642     2.818823     2.813004     2.807186     2.801367     2.795549     2.789730     2.783911
      2.778093     2.772274     2.766456     2.760637     2.754818     2.749000     2.743181     2.737363     2.731544     2.725725
      2.719907     2.714088     2.708270     2.702451     2.696632     2.690814     2.684995     2.679177     2.673358     2.667539
      2.661721     2.655902     2.650084     2.644265     2.638446     2.632628     2.626809     2.620991     2.615172     2.609353
      2.603535     2.597716     2.591897     2.586079     2.580260     2.574442     2.568623     2.562804     2.556986     2.551167
      2.545349     2.539530     2.533711     2.527893     2.522074     2.516256     2.510437     2.504618     2.498800     2.492981
      2.487163     2.481344     2.475525     2.469707     2.463888     2.458070     2.452251     2.446432     2.440614     2.434795
      2.428977     2.423158     2.417339     2.411521     2.405702     2.399884     2.394065     2.388246     2.382428     2.376609
      2.370790     2.364972     2.359153     2.353335     2.347516     2.341697     2.335879     2.330060     2.324242     2.318423
      2.312604     2.306786     2.300967     2.295149     2.289330     2.283511     2.277693     2.271874     2.266056     2.260237
      2.254418     2.248600     2.242781     2.236963     2.231144     2.225325     2.219507     2.213688     2.207870     2.202051
      2.196232     2.190414     2.184595     2.178777     2.172958     2.167139     2.161321     2.155502     2.149683     2.143865
      2.138046     2.132228     2.126409     2.120590     2.114772     2.108953     2.103135     2.097316     2.091497     2.085679
      2.079860     2.074042     2.068223     2.062404     2.056586     2.050767     2.044949     2.039130     2.033311     2.027493
      2.021674     2.015856     2.010037     2.004218     1.998400     1.992581     1.986763     1.980944     1.975126     1.969307
      1.963489     1.957670     1.951852     1.946033     1.940215     1.934397     1.928578     1.922760     1.916941     1.911123
      1.905304     1.899486     1.893667     1.887849     1.882030     1.876212     1.870393     1.864575     1.858756     1.852938
      1.847119     1.841301     1.835482     1.829664     1.823845     1.818027     1.812208     1.806390     1.800571     1.794753
      1.788934     1.783116     1.777297     1.771479     1.765660     1.759842     1.754023     1.748205     1.742386     1.736568
      1.730749     1.724931     1.719113     1.713294     1.707476     1.701657     1.695839     1.690020     1.684202     1.678383
      1.672565     1.666746     1.660928     1.655109     1.649291     1.643472     1.637654     1.631835     1.626017     1.620198
      1.614380     1.608561     1.602743     1.596924     1.591106     1.585287     1.579469     1.573650     1.567832     1.562013
      1.556195     1.550376     1.544558     1.538739     1.532921     1.527102     1.521284     1.515465     1.509647     1.503829
      1.498010     1.492192     1.486373     1.480555     1.474736     1.468918     1.463099     1.457281     1.451462     1.445644
      1.439825     1.434007     1.428188     1.422370     1.416551     1.410733     1.404914     1.399096     1.393277     1.387459
      1.381640     1.375822     1.370003     1.364185     1.358366     1.352548     1.346729     1.340911     1.335092     1.329274
      1.323455     1.317637     1.311818     1.306000     1.300182     1.294363     1.288545     1.282726     1.276908     1.271089
      1.265271     1.259452     1.253634     1.247815     1.241997     1.236178     1.230360     1.224541     1.218723     1.212904
      1.207086     1.201267     1.195449     1.189630     1.183812     1.177993     1.172175     1.166356     1.160538     1.154719
      1.148901     1.143082     1.137264     1.131445     1.125627     1.119808     1.113990     1.108171     1.102353     1.096534
      1.090716     1.084898     1.079079     1.073261     1.067442     1.061624     1.055805     1.049987     1.044168     1.038350
      1.032531     1.026713     1.020894     1.015076     1.009257     1.003439     0.997620     0.991802     0.985983     0.980165
      0.974346     0.968528     0.962709     0.956891     0.951072     0.945254     0.939435     0.933617     0.927798     0.921980
      0.916161     0.910343     0.904524     0.898706     0.892887     0.887069     0.881251     0.875432     0.869614     0.863795
      0.857977     0.852158     0.846340     0.840521     0.834703     0.828884     0.823066     0.817247     0.811429     0.805610
      0.799792     0.793973     0.788155     0.782336     0.776518     0.770699     0.764881     0.759062     0.753244     0.747425
      0.741607     0.735788     0.729970     0.724151     0.718333     0.712514     0.706696     0.700877     0.695059     0.689240
      0.683422     0.677603     0.671785     0.665967     0.660148     0.654330     0.648511     0.642693     0.636874     0.631056
      0.625237     0.619419     0.613600     0.607782     0.601963     0.596145     0.590326     0.584508     0.578689     0.572871
      0.567052     0.561234     0.555415     0.549597     0.543778     0.537960     0.532141     0.526323     0.520504     0.514686
      0.508867     0.503049     0.497230     0.491412     0.485593     0.479775     0.473956     0.468138     0.462319     0.456501
      0.450682     0.444864     0.439045     0.433227     0.427408     0.421590     0.415771     0.409953     0.404134     0.398316
      0.392497     0.386679     0.380860     0.375042     0.369223     0.363405     0.357586     0.351767     0.345949     0.340130
      0.334312     0.328493     0.322675     0.316856     0.311038     0.305219     0.299401     0.293582     0.287764     0.281945
      0.276127     0.270308     0.264490     0.258671     0.252853     0.247034     0.241216     0.235397     0.229579     0.223760
      0.217942     0.212123     0.206305     0.200486
 NY phased data points follow
  -3.08156E-01 -1.91363E-01 -2.16631E-01 -3.37771E-01 -1.60475E-01 -2.99094E-01 -3.07076E-01 -1.05788E-01  8.84594E-02 -6.35293E-02
   1.35386E-01  4.01643E-01  8.63349E-01  5.65473E-01 -5.59646E-02  4.71969E-01  5.89307E-01  5.78173E-01  3.51569E-01  2.23558E-01
  -1.83823E-01 -6.11541E-02  5.98012E-02 -4.95308E-01 -1.39553E-01 -2.75092E-01 -3.80689E-02 -1.14434E-01 -3.80987E-01 -1.34019E-01
  -3.11602E-03  5.08049E-02 -1.23280E-01  9.31593E-02 -1.76429E-01 -3.01372E-01 -4.67455E-01 -3.21001E-01 -3.61542E-01 -3.41266E-01
   2.67520E-01 -1.11533E-01  1.72449E-01  4.09422E-01  2.98091E-01  5.15645E-01  6.91213E-01  6.88169E-01  2.09044E-01  9.25429E-02
   1.29014E-01  1.02446E-01 -6.50117E-02 -2.12050E-01 -1.59093E-01 -3.66945E-01 -1.42570E-01 -1.66594E-04 -2.62647E-01  1.04644E-01
   1.08874E-02 -5.54707E-01 -4.63901E-01 -2.71068E-01 -5.96579E-01 -1.06563E-01  2.72523E-01 -2.67345E-01  3.62349E-01  6.13305E-01
   3.69052E-01  2.51092E-01 -9.51617E-02  2.70660E-02 -6.33548E-02  1.94677E-03 -1.86648E-01 -3.96519E-01 -4.82561E-01 -9.31125E-01
  -3.69712E-01  4.58960E-02  1.84312E-03  2.58297E-01  4.23487E-01  4.42707E-01  6.16898E-01  6.70951E-01  1.98536E-01  2.93131E-01
   1.67721E-01  3.14450E-01  3.69587E-01  2.55543E-02  6.00631E-02 -5.56742E-02  1.37917E-01 -8.30353E-02 -3.47048E-01 -5.92454E-01
  -6.08619E-01 -3.84569E-01 -9.10897E-02  2.81643E-01  6.64702E-01  5.84451E-01  4.67653E-01  6.45175E-01  2.87687E-01  4.28605E-01
   2.30223E-01  4.40482E-01  3.63368E-01  2.23134E-01  6.01402E-01  3.61214E-01  3.77599E-01  4.13804E-01  3.82503E-01  1.53488E-01
   4.05016E-01  1.91166E-01 -3.67051E-03 -2.27964E-01 -4.45145E-01 -5.42238E-02 -1.09491E-01 -4.95079E-01 -6.84823E-01 -6.95967E-01
  -1.02628E+00 -7.07915E-01 -7.70009E-01 -4.75990E-01 -3.13521E-01 -7.44785E-01 -7.19990E-01 -1.10644E+00 -8.97011E-01 -2.17670E-01
  -8.95695E-02 -1.90096E-01 -4.27508E-03  5.38902E-03  8.46144E-02 -1.45205E-01  5.86348E-02  2.87264E-01  1.30626E-01  6.93593E-02
  -4.40695E-02  2.38252E-01  1.40346E-01  4.23455E-01  3.03615E-01  1.44712E-01  5.60631E-01  5.50555E-01  2.56404E-01  3.04076E-01
   5.07215E-01  3.98048E-01  6.41360E-01  8.40010E-01  1.05738E+00  1.53588E+00  1.50239E+00  1.67478E-01 -8.93952E-01 -1.14461E+00
  -1.07280E+00 -7.07085E-01 -4.75993E-01 -5.23794E-01 -8.21441E-01 -7.23648E-01 -5.90653E-01 -3.54919E-01 -3.20095E-01 -3.02013E-01
  -1.75947E-01 -2.99300E-01 -4.30174E-01 -4.04826E-02 -1.03912E-01 -5.20628E-01 -9.87869E-02 -2.75547E-01 -1.69484E-01  9.50480E-02
  -1.60353E-02 -1.50614E-01 -1.70226E-01 -4.57827E-02 -9.75002E-02 -1.51780E-01 -3.06523E-01 -9.18185E-02 -2.47070E-02  6.91199E-02
  -1.08829E-01 -6.11771E-02 -1.60118E-01 -1.28605E-01  2.21180E-01 -2.35225E-02  7.48284E-02 -1.37219E-01  7.93047E-02 -7.99993E-03
   1.93121E-01  4.25207E-02 -3.80560E-01  2.64261E-01  2.76646E-02  6.81728E-02 -2.08680E-01 -2.49335E-01 -5.13878E-02 -2.32771E-01
  -2.66670E-01 -2.31190E-01  6.58800E-02 -9.30650E-02  3.42127E-02  3.01970E-01  5.31554E-01  4.28304E-01  6.15916E-02  2.65885E-01
   5.89829E-01  3.01673E-01  2.32325E-01  1.55237E-01 -2.81270E-02  6.12849E-02  6.87668E-03  4.27381E-02 -9.59166E-02  7.96598E-02
  -3.11037E-01 -1.70344E-01  2.13927E-01  4.11767E-02 -2.78549E-02 -3.02052E-01 -6.87900E-03 -2.52869E-01 -8.27557E-02 -4.02589E-02
  -2.63389E-01 -5.97370E-02 -1.83970E-01  8.35259E-03 -3.80666E-01 -4.01815E-01 -7.09889E-02 -3.27193E-01 -1.45450E-01 -1.54312E-01
   1.55163E-02  3.13557E-01  2.39287E-02  2.96104E-01  4.27871E-02  6.13799E-03  3.53029E-01  1.39922E-01  4.05450E-01  3.99074E-01
   4.20006E-01  1.69740E-01  2.39163E-01  1.79974E-01 -3.13608E-01  4.25449E-02 -2.19719E-01 -4.48423E-01 -4.82208E-01 -2.05563E-01
  -2.72608E-01 -7.13142E-01 -1.15988E-01 -3.63755E-01 -6.94165E-02  4.38214E-01  3.17952E-01  7.86877E-01  5.51112E-01  2.64867E-01
   3.71896E-01  5.07316E-01  3.99770E-01  1.78063E-01  1.56439E-01  1.47323E-01  6.97754E-02  1.14631E-01  3.63982E-01  4.81319E-01
   1.68383E-02 -4.23656E-02  2.47668E-01  1.87376E-01  5.42320E-01  2.73923E-01  3.90405E-01  2.21339E-01  1.54402E-01  6.73198E-01
   2.83423E-01  2.34624E-01  2.91074E-01  3.82575E-01 -5.51323E-02  3.55795E-02  1.87598E-02 -1.36098E-01  4.51602E-02 -1.66925E-01
  -1.92897E-01 -4.24126E-01 -2.91548E-01 -2.08250E-01 -1.94404E-02 -3.70080E-01 -4.38718E-02  4.38526E-01  1.84507E-01  4.02963E-01
   4.21284E-01  3.76309E-01 -1.33189E-01 -2.02862E-02 -2.04471E-01 -5.02640E-01 -5.03501E-01 -7.14908E-01 -2.72263E-01 -2.93695E-01
  -5.46885E-03 -5.90347E-01 -2.61815E+00 -2.53364E+00 -1.10787E+00 -6.01323E-01 -2.34445E-01 -2.00446E-02  1.14288E-01  3.00269E-01
  -5.21321E-02  2.14349E-02  3.88767E-01  1.82628E-01  1.42734E-01  2.05065E-01  1.74993E-01  1.29154E-01  2.41222E-01  3.04488E-01
   1.19668E-01  2.54411E-01  3.45980E-01 -3.74239E-02 -9.76350E-02  2.77985E-01 -7.53873E-02  1.67235E-02  2.22910E-01 -4.94272E-02
   4.89254E-02  1.19931E-01  6.89475E-02 -1.59383E-01  9.06136E-02 -2.73598E-02 -4.08743E-02  3.47515E-01  1.48013E-01  1.61475E-01
   3.51739E-01  2.63773E-01  4.89574E-02 -3.55161E-02  1.68659E-01  2.87800E-01  2.04602E-01  3.14691E-01 -2.92446E-02  2.09664E-01
   4.85920E-01  1.81196E-01  4.28584E-01  2.01858E-01 -4.20746E-02  9.66891E-02  1.38204E-01 -1.21883E-02  9.74395E-02  1.97801E-01
  -3.51643E-02  1.29082E-01  1.47410E-01 -2.57371E-01 -2.71895E-01 -3.64275E-02 -2.09977E-01 -1.65366E-01  1.43419E-01  1.15364E-01
  -6.72943E-02  3.36354E-02  1.03373E-01 -1.41368E-01 -3.57771E-01 -2.76504E-01 -1.07824E-02 -1.85143E-01 -2.56211E-01 -3.51881E-01
  -2.74191E-01 -2.67139E-01 -5.87116E-01 -1.53703E-01 -2.01962E-01 -2.77124E-02  7.55177E-02 -2.17907E-01 -1.74975E-01 -2.18798E-01
   7.74464E-03 -3.83728E-02  2.13089E-02 -1.82352E-01 -6.77608E-02  6.34398E-03  7.78733E-02 -2.87691E-02 -3.10892E-01 -2.25952E-02
  -1.43873E-01  2.23849E-01 -9.06701E-02 -4.26839E-02  8.97248E-02  1.06882E-01  3.54572E-01  1.32611E-01  3.87773E-01  1.43842E-01
   2.34566E-01  3.39708E-01  5.00538E-01  1.32215E-01  1.69249E-02  3.35582E-01 -6.65400E-02 -5.95904E-02 -9.79139E-02  4.91737E-02
   8.80793E-02  4.20312E-02  3.07800E-01  3.91082E-01 -2.84875E-03 -4.02602E-02 -8.14965E-02 -1.73918E-02  3.57309E-02 -2.38530E-01
  -1.64780E-01 -1.04341E-01 -9.82009E-02 -5.21740E-01 -4.79314E-02  3.39136E-02 -4.09608E-01 -1.14110E-01 -2.95567E-01 -2.90514E-01
  -2.40348E-01 -1.61738E-01  6.95649E-02  4.89151E-02  5.46229E-02  2.66978E-01  2.80831E-01  3.49086E-02 -1.44640E-01 -1.07131E-01
   4.89911E-02  3.07427E-02 -6.02014E-02 -3.19451E-02  9.78134E-02  1.16659E-01  1.13643E-01  3.94238E-02 -1.67033E-01 -4.75257E-02
   1.11462E-02  4.25625E-02  1.27991E-01  2.45857E-02  2.22843E-01  2.66956E-01  2.06791E-01  2.29061E-01  3.49148E-01  1.71909E-01
  -1.90141E-01  8.85600E-02  4.09681E-01 -2.12691E-02  1.77924E-03  3.96959E-01  2.34889E-01  9.99099E-02 -3.53564E-01  1.65749E-01
  -5.99891E-02 -9.80927E-02  9.82064E-02 -3.13215E-01  1.44803E-01 -6.33347E-01 -3.04545E-01 -3.95730E-01 -2.95421E-01 -1.97799E-01
  -7.34446E-01 -1.80968E-01 -4.97182E-01 -5.87220E-02 -2.37225E-01 -3.28078E-01 -2.05736E-01 -3.22051E-02  1.71480E-02 -3.67978E-01
   1.30592E-01 -4.41376E-01 -3.67777E-01  2.47288E-01 -9.38181E-02 -4.28291E-04  1.39900E-01  2.27827E-03  1.43854E-01 -1.31706E-02
   2.20384E-01  2.17562E-01 -2.24570E-01  1.15191E-01  1.92722E-01  1.83403E-01  2.58651E-01  3.48259E-01  1.26983E-01  1.08659E-01
   2.12145E-01 -6.28129E-02  4.88540E-03 -1.17570E-02  1.41352E-01  4.24299E-02 -4.54205E-02  1.17060E-01 -3.18015E-02  1.89232E-01
   2.42649E-01  1.15969E-01 -3.71547E-02  2.00247E-01  2.88859E-01 -1.29356E-01  5.41081E-02  1.44133E-01  1.69041E-01 -4.08918E-02
   2.63139E-01  2.60292E-01 -2.99529E-02  2.60718E-01 -1.38434E-01 -1.56457E-01 -1.35296E-01  3.00107E-02  6.13735E-02 -1.10043E-01
  -1.07641E-01 -1.35565E-01  1.52792E-01  3.62455E-01  6.21828E-02 -2.75447E-01  1.11990E-01  2.63340E-02  3.62614E-02  1.95658E-01
   1.64879E-02 -1.96820E-01  6.10955E-02  1.88115E-02 -2.25310E-01  2.56342E-01 -8.91860E-02 -6.73689E-02  2.00942E-03 -9.85644E-02
  -1.52196E-02 -1.03650E-01 -1.00258E-03 -5.50879E-03  9.82995E-03 -1.05962E-01 -4.63810E-02  2.34556E-01  4.02938E-01 -8.85528E-02
   1.48570E-04  2.65674E-01  1.94748E-01  1.02164E-01 -1.14229E-01  9.63841E-02 -8.67621E-02  5.93898E-02  7.51620E-02  7.75318E-02
   2.99710E-01  1.25170E-01  1.66137E-02  1.27375E-01 -1.27452E-02  1.23084E-03  6.26594E-01 -1.45829E-02 -3.65502E-03  2.76455E-01
  -2.27886E-01  7.07430E-02  6.49470E-02  5.37867E-02 -8.04884E-03 -7.17818E-02  3.17256E-01  5.06350E-01 -1.16552E-01 -1.62249E-01
   5.51705E-02 -9.41564E-02  3.98516E-02 -1.44058E-01
 NY points of the fit to the data follow
   2.51447E-02  6.86249E-03 -2.09348E-02 -5.20134E-02 -5.25075E-02 -4.81099E-02 -2.24798E-02 -1.22849E-02 -3.66590E-02  2.03503E-02
   4.11196E-02  4.85647E-01  8.31812E-01  5.00799E-01  1.40636E-01  4.26415E-01  7.82349E-01  5.07137E-01  2.34677E-01  1.63901E-01
   2.72074E-02  3.22187E-03 -2.04084E-02 -5.19495E-02 -7.89689E-02 -9.81185E-02 -1.23070E-01 -1.46189E-01 -1.58902E-01 -1.74102E-01
  -1.89819E-01 -2.00762E-01 -2.13023E-01 -2.35524E-01 -2.77003E-01 -2.93863E-01 -3.70795E-01 -3.61824E-01 -3.51820E-01 -3.18886E-01
  -4.62123E-02  3.35100E-02  1.02162E-01  3.04135E-01  3.79448E-01  4.69704E-01  4.48858E-01  2.89630E-01  1.76708E-01  1.41320E-01
   9.53775E-02  2.68476E-02  1.14060E-02 -2.75718E-02 -7.87896E-02 -1.32832E-01 -2.03768E-01 -2.41089E-01 -2.52905E-01 -2.60678E-01
  -2.98953E-01 -5.06054E-01 -3.89746E-01 -3.39169E-01 -5.48741E-01  3.34670E-02  2.48598E-01  7.41727E-02  5.32854E-01  6.19274E-01
   4.17873E-01  3.68172E-01  2.32889E-01  1.29229E-01  5.13806E-02 -2.11991E-03 -1.45985E-01 -2.42410E-01 -5.48004E-01 -9.63282E-01
  -4.98085E-01 -5.22479E-02 -1.43531E-01  2.35110E-01  5.86301E-01  5.39145E-01  5.07700E-01  4.36806E-01  3.48343E-01  3.04056E-01
   2.69746E-01  2.52070E-01  2.17823E-01  1.74157E-01  1.36955E-01  5.42706E-02 -1.23671E-02 -2.77882E-01 -4.83178E-01 -6.63065E-01
  -7.05277E-01 -3.79248E-01 -5.62987E-02  2.42028E-01  4.16134E-01  3.89991E-01  3.78231E-01  3.42235E-01  3.25808E-01  3.22595E-01
   3.22421E-01  3.23306E-01  3.20500E-01  3.16469E-01  3.15231E-01  3.14579E-01  3.13492E-01  3.11230E-01  3.21928E-01  2.82731E-01
   3.15207E-01  1.63509E-01 -1.43483E-02  5.71685E-02 -1.20488E-01 -2.67396E-01  6.67540E-02 -3.08714E-01 -4.60998E-01 -5.70020E-01
  -1.06127E+00 -7.90555E-01 -7.03351E-01 -3.14827E-01 -2.28919E-01 -7.13328E-01 -7.87439E-01 -1.02284E+00 -7.61842E-01 -3.01609E-01
  -1.89329E-01 -3.23613E-02  1.16322E-02  2.88017E-02  5.45774E-02  8.44909E-02  1.10319E-01  1.32149E-01  1.55694E-01  1.72768E-01
   1.89841E-01  2.10062E-01  2.27760E-01  2.46427E-01  2.67423E-01  2.91975E-01  3.19327E-01  3.51714E-01  3.88209E-01  4.25829E-01
   4.78607E-01  5.55292E-01  5.83843E-01  8.02257E-01  8.06282E-01  1.34244E+00  1.44428E+00  4.23828E-02 -9.49434E-01 -1.26249E+00
  -1.18983E+00 -7.74526E-01 -6.21647E-01 -5.05955E-01 -4.76178E-01 -4.75998E-01 -4.14445E-01 -3.67150E-01 -3.36651E-01 -3.31571E-01
  -3.03718E-01 -2.68439E-01 -2.58555E-01 -2.42149E-01 -2.32607E-01 -2.27139E-01 -2.15256E-01 -2.00087E-01 -1.86340E-01 -1.79517E-01
  -1.69623E-01 -1.56773E-01 -1.45887E-01 -1.34804E-01 -1.22476E-01 -1.13324E-01 -1.05420E-01 -9.35850E-02 -8.48783E-02 -7.51217E-02
  -6.70859E-02 -5.05989E-02 -2.10202E-02 -2.58964E-02 -4.76876E-02 -5.57577E-02 -4.29957E-02 -3.01200E-03 -4.11550E-03 -4.45746E-02
  -6.25072E-02 -6.49540E-02 -5.89201E-02 -5.10492E-02 -4.32033E-02 -3.54660E-02 -2.64455E-02 -7.70829E-03 -4.20687E-03 -2.32762E-02
  -1.63525E-02 -1.11414E-02  2.68131E-02  2.19959E-02  9.90940E-02  3.67908E-01  4.05963E-01  2.20653E-01  1.39135E-01  2.05471E-01
   4.31538E-01  4.59153E-01  2.36011E-01  9.76906E-02  1.02749E-02 -5.02335E-02 -4.77265E-02 -5.20218E-02 -5.84591E-02 -6.66151E-02
  -7.97076E-02 -8.90005E-02 -9.41926E-02 -1.00651E-01 -1.00018E-01 -1.11796E-01 -1.12652E-01 -1.16209E-01 -1.21686E-01 -1.16294E-01
  -1.34067E-01 -1.25937E-01 -1.35841E-01 -1.95721E-01 -1.63329E-01 -2.50570E-01 -1.81249E-01  6.65702E-02 -3.30123E-02 -4.12006E-02
   1.19400E-01  1.97188E-01  7.59539E-02  4.34243E-02  1.44314E-01  1.69960E-01  1.88601E-01  1.87113E-01  2.28819E-01  2.34925E-01
   1.83511E-01  1.51457E-01  7.73769E-02  3.04530E-02 -1.28581E-02 -5.34211E-02 -1.06467E-01 -1.45138E-01 -2.31083E-01 -2.71274E-01
  -3.95162E-01 -5.59621E-01 -4.64665E-01 -4.44271E-01 -2.11874E-01  1.92583E-01  3.26977E-01  5.55438E-01  6.43692E-01  4.89889E-01
   4.23340E-01  3.19397E-01  2.33278E-01  2.25248E-01  1.74765E-01  1.99214E-01  2.59171E-01  2.67869E-01  3.13451E-01  3.22336E-01
   2.95212E-01  2.87838E-01  2.66468E-01  2.53445E-01  2.46860E-01  2.36299E-01  2.20323E-01  2.09252E-01  1.87882E-01  1.45760E-01
   1.35433E-01  8.88360E-02  5.95534E-02  5.81271E-02  2.10197E-02  8.10437E-03 -4.82330E-02 -1.58267E-01 -2.41465E-01 -3.21440E-01
  -3.92285E-01 -3.99087E-01 -3.88958E-01 -3.54140E-01 -2.89781E-01 -2.06134E-01 -6.32677E-02  4.86289E-02  1.35248E-01  1.56961E-01
   8.55170E-02  6.30312E-02 -8.69510E-02 -1.25090E-01 -1.94812E-01 -2.33961E-01 -3.32828E-01 -5.28727E-01 -2.19388E-01 -3.08291E-01
  -4.58561E-02 -6.13264E-01 -2.63830E+00 -2.51854E+00 -1.19045E+00 -6.32382E-01 -1.47707E-01  4.38894E-02  6.78226E-03 -1.99882E-03
   1.28412E-02  3.08893E-02  4.70735E-02  5.84712E-02  6.80202E-02  7.67614E-02  8.61285E-02  9.71235E-02  8.58788E-02  9.75829E-02
   5.88240E-02  3.24510E-02  5.50411E-03 -5.40941E-02 -5.87897E-02 -6.81177E-02 -5.93888E-02 -2.39152E-02 -8.89633E-03  1.60252E-02
   3.00705E-02  4.09311E-02  5.40377E-02  6.49731E-02  6.76522E-02  7.20263E-02  7.69080E-02  8.12910E-02  8.80152E-02  9.23399E-02
   9.35484E-02  9.56915E-02  9.97308E-02  1.03936E-01  1.08014E-01  1.10609E-01  1.11325E-01  1.09621E-01  1.12598E-01  1.17435E-01
   1.20463E-01  1.25928E-01  1.28819E-01  1.27600E-01  1.24953E-01  1.21056E-01  1.17973E-01  1.15223E-01  1.12884E-01  1.08502E-01
   1.01920E-01  9.50864E-02  8.94498E-02  8.08201E-02  7.06171E-02  6.42602E-02  5.94745E-02  5.34332E-02  4.54167E-02  4.03020E-02
   3.46573E-02  2.83211E-02  2.70024E-02  2.33207E-02  1.81681E-02  1.62749E-02  1.17158E-02  7.55177E-03  5.58407E-03  3.05239E-03
   2.43445E-03  1.86135E-04 -2.87371E-03 -2.60261E-04  1.40294E-03  1.69227E-03  5.95636E-03  9.32854E-03  1.33724E-02  2.09788E-02
   2.69461E-02  2.78305E-02  2.56099E-02  2.86365E-02  3.54526E-02  4.39635E-02  5.29575E-02  5.89245E-02  6.50792E-02  7.19369E-02
   8.16557E-02  9.45499E-02  1.05174E-01  1.16451E-01  1.28485E-01  1.37954E-01  1.51035E-01  1.62482E-01  1.69836E-01  1.75112E-01
   1.75674E-01  1.75254E-01  1.74539E-01  1.71718E-01  1.70097E-01  1.65805E-01  1.60092E-01  1.46560E-01  1.37719E-01  1.13919E-01
   1.33233E-01  1.58608E-01  1.55864E-01  1.68380E-01  1.37445E-01  9.68556E-02  8.58245E-02  6.78537E-02  5.85973E-02  5.29854E-02
   4.78252E-02  4.23026E-02  3.75632E-02  3.29075E-02  2.92659E-02  3.22571E-02  3.57949E-02  3.53205E-02  3.93966E-02  4.39181E-02
   4.66191E-02  5.32265E-02  6.01826E-02  6.54518E-02  6.88224E-02  7.18026E-02  7.34361E-02  7.32200E-02  7.44909E-02  7.85350E-02
   8.30548E-02  8.23990E-02  8.16742E-02  7.92558E-02  7.64468E-02  7.52557E-02  6.92307E-02  6.45577E-02  6.20315E-02  5.90956E-02
   5.60257E-02  5.16092E-02  4.85572E-02  4.45444E-02  4.00687E-02  3.70933E-02  3.10725E-02  2.57370E-02  2.52701E-02  2.35025E-02
   1.93788E-02  1.56227E-02  1.24426E-02  8.07291E-03 -8.49305E-04 -9.85700E-03 -1.72569E-02 -2.55620E-02 -3.24672E-02 -4.44550E-02
  -6.10441E-02 -8.00075E-02 -9.89964E-02 -1.14651E-01 -1.31371E-01 -1.49215E-01 -1.64374E-01 -1.76512E-01 -1.87938E-01 -2.00509E-01
  -2.09901E-01 -2.11079E-01 -2.08475E-01 -2.09125E-01 -2.08353E-01 -2.00130E-01 -1.91311E-01 -1.83747E-01 -1.75452E-01 -1.68543E-01
  -1.64123E-01 -1.57662E-01 -1.46772E-01 -1.37809E-01 -1.29173E-01 -1.16885E-01 -1.04535E-01 -9.40800E-02 -8.41841E-02 -7.20252E-02
  -6.36484E-02 -5.66948E-02 -4.32694E-02 -3.37141E-02 -2.92225E-02 -2.31316E-02 -1.67805E-02 -6.48210E-03  5.70971E-04 -1.18652E-03
   4.29413E-03  1.16417E-02  1.20118E-02  1.65382E-02  1.86518E-02  1.79263E-02  2.20045E-02  2.46506E-02  2.36880E-02  2.15243E-02
   2.45463E-02  2.83708E-02  2.88442E-02  3.26572E-02  3.66832E-02  3.71298E-02  3.57765E-02  3.64846E-02  3.75446E-02  3.50816E-02
   3.59264E-02  3.74460E-02  3.49358E-02  3.48879E-02  3.56066E-02  3.50432E-02  3.60707E-02  3.68642E-02  3.94560E-02  4.19127E-02
   3.48658E-02  2.82341E-02  3.22524E-02  3.46998E-02  3.38462E-02  3.23316E-02  3.35159E-02  3.53161E-02  3.17191E-02  2.85354E-02
   2.99181E-02  3.41368E-02  3.56879E-02  3.50413E-02  3.62001E-02  3.69914E-02  3.86846E-02  4.12793E-02  4.08490E-02  4.18379E-02
   4.44759E-02  4.50775E-02  4.18521E-02  3.91144E-02  4.09340E-02  4.15123E-02  4.30493E-02  4.61195E-02  4.76091E-02  4.86759E-02
   4.69242E-02  4.83738E-02  5.37409E-02  5.65076E-02  5.98430E-02  5.95015E-02  5.49386E-02  5.40812E-02  5.51663E-02  5.79589E-02
   6.19241E-02  6.03926E-02  5.85307E-02  5.98677E-02  5.98128E-02  6.23985E-02  6.48139E-02  6.21332E-02  6.22521E-02  6.83267E-02
   7.11168E-02  6.95492E-02  7.21904E-02  7.36113E-02  7.54403E-02  7.85535E-02  7.84788E-02  8.34491E-02  9.09292E-02  9.58891E-02
   9.98097E-02  1.01630E-01  1.06010E-01  1.07948E-01
 NY background values follow
    -1.305E-03   -8.794E-04   -4.533E-04   -2.730E-05    3.987E-04    8.248E-04    1.251E-03    1.677E-03    2.102E-03    2.528E-03
     2.954E-03    3.379E-03    3.804E-03    4.229E-03    4.654E-03    5.078E-03    5.502E-03    5.926E-03    6.350E-03    6.773E-03
     7.195E-03    7.618E-03    8.040E-03    8.461E-03    8.882E-03    9.303E-03    9.722E-03    1.014E-02    1.056E-02    1.098E-02
     1.140E-02    1.181E-02    1.223E-02    1.265E-02    1.306E-02    1.347E-02    1.389E-02    1.430E-02    1.471E-02    1.512E-02
     1.553E-02    1.594E-02    1.635E-02    1.676E-02    1.716E-02    1.757E-02    1.797E-02    1.838E-02    1.878E-02    1.918E-02
     1.958E-02    1.998E-02    2.038E-02    2.077E-02    2.117E-02    2.156E-02    2.196E-02    2.235E-02    2.274E-02    2.313E-02
     2.352E-02    2.391E-02    2.429E-02    2.468E-02    2.506E-02    2.544E-02    2.582E-02    2.620E-02    2.658E-02    2.696E-02
