 LCModel (Version 6.3-1N) Copyright: S.W. Provencher.          Ref.: Magn. Reson. Med. 30:672-679 (1993).                
 Slice_N1@26_16  02-Jun-2023 14:38:03
 27 lines in following concentration table = NCONC+1
    Conc.  %SD /Cr+PCr  Metabolite                                         
 1.10E-06  35% 1.7E-04 Mac                                                 
 2.82E-02  47%   4.490 Cr                                                  
 2.21E-02  60%   3.510 PCr                                                 
 6.81E-02  21%  10.821 Ins                                                 
 7.39E-02  14%  11.743 NAA                                                 
 6.54E-02  23%  10.395 Tau                                                 
 9.92E-04 384%   0.158 PCho                                                
    0.000 999%   0.000 GPC                                                 
 7.13E-02  20%  11.337 Glu                                                 
 1.54E-02  60%   2.453 Gln                                                 
 6.05E-03 197%   0.962 Ala                                                 
 4.67E-02  46%   7.429 Asc                                                 
 6.01E-03  98%   0.956 Asp                                                 
 2.90E-03 119%   0.461 GABA                                                
 4.82E-03  75%   0.766 Glc                                                 
 5.96E-03  69%   0.948 GSH                                                 
    0.000 999%   0.000 Lac                                                 
    0.000 999%   0.000 NAAG                                                
    0.000 999%   0.000 PE                                                  
 9.92E-04 384%   0.158 GPC+PCho                                            
 7.39E-02  14%  11.743 NAA+NAAG                                            
 8.67E-02  20%  13.790 Glu+Gln                                             
 5.03E-02  19%   8.000 Cr+PCr                                              
 7.39E-02  14%  11.743 NAA+NAAG                                            
 5.03E-02  19%   8.000 Cr+PCr                                              
 8.67E-02  20%  13.790 Glu+Gln                                             
   6 lines in following misc. output table
  FWHM = 0.093 ppm    S/N =   1                                            
  Data shift =-0.006 ppm                                                   
  Ph:  24 deg     -14.2 deg/ppm                                            
  alphaB,S = 3.1E+01,   1.0E+02                                            
   18 spline knots.   Ns = 7(2)                                            
   2 inflections.     1 extrema                                            
  654 points on ppm-axis = NY
      4.000000     3.994181     3.988363     3.982544     3.976726     3.970907     3.965088     3.959270     3.953451     3.947633
      3.941814     3.935995     3.930177     3.924358     3.918540     3.912721     3.906902     3.901084     3.895265     3.889446
      3.883628     3.877809     3.871991     3.866172     3.860353     3.854535     3.848716     3.842898     3.837079     3.831260
      3.825442     3.819623     3.813805     3.807986     3.802167     3.796349     3.790530     3.784712     3.778893     3.773074
      3.767256     3.761437     3.755619     3.749800     3.743981     3.738163     3.732344     3.726526     3.720707     3.714888
      3.709070     3.703251     3.697433     3.691614     3.685795     3.679977     3.674158     3.668339     3.662521     3.656702
      3.650884     3.645065     3.639246     3.633428     3.627609     3.621791     3.615972     3.610153     3.604335     3.598516
      3.592698     3.586879     3.581060     3.575242     3.569423     3.563605     3.557786     3.551967     3.546149     3.540330
      3.534512     3.528693     3.522874     3.517056     3.511237     3.505419     3.499600     3.493781     3.487963     3.482144
      3.476326     3.470507     3.464688     3.458870     3.453051     3.447232     3.441414     3.435595     3.429777     3.423958
      3.418139     3.412321     3.406502     3.400684     3.394865     3.389046     3.383228     3.377409     3.371591     3.365772
      3.359953     3.354135     3.348316     3.342498     3.336679     3.330860     3.325042     3.319223     3.313405     3.307586
      3.301767     3.295949     3.290130     3.284312     3.278493     3.272674     3.266856     3.261037     3.255219     3.249400
      3.243581     3.237763     3.231944     3.226125     3.220307     3.214488     3.208670     3.202851     3.197032     3.191214
      3.185395     3.179577     3.173758     3.167939     3.162121     3.156302     3.150484     3.144665     3.138846     3.133028
      3.127209     3.121391     3.115572     3.109753     3.103935     3.098116     3.092298     3.086479     3.080660     3.074842
      3.069023     3.063205     3.057386     3.051567     3.045749     3.039930     3.034111     3.028293     3.022474     3.016656
      3.010837     3.005018     2.999200     2.993381     2.987563     2.981744     2.975925     2.970107     2.964288     2.958470
      2.952651     2.946832     2.941014     2.935195     2.929377     2.923558     2.917739     2.911921     2.906102     2.900284
      2.894465     2.888646     2.882828     2.877009     2.871191     2.865372     2.859553     2.853735     2.847916     2.842098
      2.836279     2.830460     2.824642     2.818823     2.813004     2.807186     2.801367     2.795549     2.789730     2.783911
      2.778093     2.772274     2.766456     2.760637     2.754818     2.749000     2.743181     2.737363     2.731544     2.725725
      2.719907     2.714088     2.708270     2.702451     2.696632     2.690814     2.684995     2.679177     2.673358     2.667539
      2.661721     2.655902     2.650084     2.644265     2.638446     2.632628     2.626809     2.620991     2.615172     2.609353
      2.603535     2.597716     2.591897     2.586079     2.580260     2.574442     2.568623     2.562804     2.556986     2.551167
      2.545349     2.539530     2.533711     2.527893     2.522074     2.516256     2.510437     2.504618     2.498800     2.492981
      2.487163     2.481344     2.475525     2.469707     2.463888     2.458070     2.452251     2.446432     2.440614     2.434795
      2.428977     2.423158     2.417339     2.411521     2.405702     2.399884     2.394065     2.388246     2.382428     2.376609
      2.370790     2.364972     2.359153     2.353335     2.347516     2.341697     2.335879     2.330060     2.324242     2.318423
      2.312604     2.306786     2.300967     2.295149     2.289330     2.283511     2.277693     2.271874     2.266056     2.260237
      2.254418     2.248600     2.242781     2.236963     2.231144     2.225325     2.219507     2.213688     2.207870     2.202051
      2.196232     2.190414     2.184595     2.178777     2.172958     2.167139     2.161321     2.155502     2.149683     2.143865
      2.138046     2.132228     2.126409     2.120590     2.114772     2.108953     2.103135     2.097316     2.091497     2.085679
      2.079860     2.074042     2.068223     2.062404     2.056586     2.050767     2.044949     2.039130     2.033311     2.027493
      2.021674     2.015856     2.010037     2.004218     1.998400     1.992581     1.986763     1.980944     1.975126     1.969307
      1.963489     1.957670     1.951852     1.946033     1.940215     1.934397     1.928578     1.922760     1.916941     1.911123
      1.905304     1.899486     1.893667     1.887849     1.882030     1.876212     1.870393     1.864575     1.858756     1.852938
      1.847119     1.841301     1.835482     1.829664     1.823845     1.818027     1.812208     1.806390     1.800571     1.794753
      1.788934     1.783116     1.777297     1.771479     1.765660     1.759842     1.754023     1.748205     1.742386     1.736568
      1.730749     1.724931     1.719113     1.713294     1.707476     1.701657     1.695839     1.690020     1.684202     1.678383
      1.672565     1.666746     1.660928     1.655109     1.649291     1.643472     1.637654     1.631835     1.626017     1.620198
      1.614380     1.608561     1.602743     1.596924     1.591106     1.585287     1.579469     1.573650     1.567832     1.562013
      1.556195     1.550376     1.544558     1.538739     1.532921     1.527102     1.521284     1.515465     1.509647     1.503829
      1.498010     1.492192     1.486373     1.480555     1.474736     1.468918     1.463099     1.457281     1.451462     1.445644
      1.439825     1.434007     1.428188     1.422370     1.416551     1.410733     1.404914     1.399096     1.393277     1.387459
      1.381640     1.375822     1.370003     1.364185     1.358366     1.352548     1.346729     1.340911     1.335092     1.329274
      1.323455     1.317637     1.311818     1.306000     1.300182     1.294363     1.288545     1.282726     1.276908     1.271089
      1.265271     1.259452     1.253634     1.247815     1.241997     1.236178     1.230360     1.224541     1.218723     1.212904
      1.207086     1.201267     1.195449     1.189630     1.183812     1.177993     1.172175     1.166356     1.160538     1.154719
      1.148901     1.143082     1.137264     1.131445     1.125627     1.119808     1.113990     1.108171     1.102353     1.096534
      1.090716     1.084898     1.079079     1.073261     1.067442     1.061624     1.055805     1.049987     1.044168     1.038350
      1.032531     1.026713     1.020894     1.015076     1.009257     1.003439     0.997620     0.991802     0.985983     0.980165
      0.974346     0.968528     0.962709     0.956891     0.951072     0.945254     0.939435     0.933617     0.927798     0.921980
      0.916161     0.910343     0.904524     0.898706     0.892887     0.887069     0.881251     0.875432     0.869614     0.863795
      0.857977     0.852158     0.846340     0.840521     0.834703     0.828884     0.823066     0.817247     0.811429     0.805610
      0.799792     0.793973     0.788155     0.782336     0.776518     0.770699     0.764881     0.759062     0.753244     0.747425
      0.741607     0.735788     0.729970     0.724151     0.718333     0.712514     0.706696     0.700877     0.695059     0.689240
      0.683422     0.677603     0.671785     0.665967     0.660148     0.654330     0.648511     0.642693     0.636874     0.631056
      0.625237     0.619419     0.613600     0.607782     0.601963     0.596145     0.590326     0.584508     0.578689     0.572871
      0.567052     0.561234     0.555415     0.549597     0.543778     0.537960     0.532141     0.526323     0.520504     0.514686
      0.508867     0.503049     0.497230     0.491412     0.485593     0.479775     0.473956     0.468138     0.462319     0.456501
      0.450682     0.444864     0.439045     0.433227     0.427408     0.421590     0.415771     0.409953     0.404134     0.398316
      0.392497     0.386679     0.380860     0.375042     0.369223     0.363405     0.357586     0.351767     0.345949     0.340130
      0.334312     0.328493     0.322675     0.316856     0.311038     0.305219     0.299401     0.293582     0.287764     0.281945
      0.276127     0.270308     0.264490     0.258671     0.252853     0.247034     0.241216     0.235397     0.229579     0.223760
      0.217942     0.212123     0.206305     0.200486
 NY phased data points follow
   7.85445E-02  7.54944E-02  1.21343E-01  1.64278E-01  9.83048E-04  7.44830E-03 -7.60519E-02  1.05340E-02 -2.31900E-01 -3.02748E-01
  -2.12069E-01  1.08033E-01  3.83713E-01  4.51983E-02 -1.82184E-01  4.86113E-02  2.21520E-01  8.48923E-02  2.43374E-01  3.59967E-01
   1.86317E-01  1.17917E-01 -1.80850E-01  9.95875E-02  1.48578E-01 -3.51105E-01 -1.45886E-01  4.65203E-02 -1.13175E-01 -3.92899E-01
   1.46802E-01 -9.23007E-03 -1.99658E-01  3.92416E-02 -2.82212E-01  2.85113E-02 -2.04137E-01 -1.64189E-01 -3.56851E-01 -3.98256E-01
   6.19009E-02 -4.35080E-02  3.23149E-01  3.04027E-01 -2.53810E-03  1.46365E-01  1.55107E-02  1.36588E-01  1.56591E-01  2.14192E-01
   4.66536E-01 -7.43826E-02  3.15297E-01  2.96585E-01  3.60990E-01  2.66077E-01 -9.74540E-02 -4.14982E-02 -4.81697E-01  2.57061E-01
  -1.62685E-02  2.32841E-02  4.40637E-02 -3.42595E-01  3.74655E-02 -1.29612E-01 -2.50456E-01 -1.26347E-01 -4.85796E-01 -2.05597E-01
   5.17797E-01 -3.62929E-01 -1.14176E-01 -1.12866E-01 -1.88243E-01 -1.81799E-01 -1.91168E-01  1.26279E-01 -5.68847E-02  4.10894E-01
  -7.56815E-02  1.21746E-01 -2.56691E-01 -6.77875E-02  3.26765E-01 -4.56637E-02  2.95088E-01 -1.11948E-01 -1.18818E-01 -5.59174E-02
   2.51850E-01 -2.11013E-01 -2.77266E-01  1.38605E-01 -3.08262E-01 -2.19285E-01  8.55509E-02  2.07463E-01  5.55031E-02  2.17961E-02
  -2.77171E-01  5.44900E-02  2.37136E-01 -7.47071E-02  1.91349E-01  1.64130E-01  1.20511E-01 -2.52762E-01 -1.24762E-01  1.83593E-01
   1.23986E-01  1.71072E-01 -1.43846E-01  1.41979E-01  4.37149E-01  3.23388E-01  3.79869E-01  3.16711E-01  1.28692E-02  4.71739E-02
  -1.12634E-01  2.60883E-01  3.03318E-01 -2.43268E-01  2.53052E-01  3.65821E-02  3.83805E-02 -1.74584E-01 -1.97709E-01 -1.59178E-01
  -5.03117E-01 -2.96010E-01 -5.02735E-01 -1.56645E-01 -6.97336E-02 -2.17737E-01  3.01991E-02  2.22194E-01 -2.41039E-01 -3.90941E-01
  -2.11380E-01 -1.75814E-01 -3.02775E-02  1.47416E-02 -4.14574E-02 -3.02205E-01 -2.02882E-02  1.57843E-01  2.64754E-01  2.62600E-01
   7.91452E-02  1.87146E-02  1.55289E-02 -9.42285E-02  3.79053E-01  4.71484E-01  3.63457E-01  5.36039E-01  3.88040E-01  6.76199E-01
   2.22762E-01  2.33716E-01  1.99759E-01 -1.45857E-01 -2.93455E-01  1.28981E-01  4.09332E-01 -1.79363E-02 -5.51651E-03 -3.23132E-02
   7.17298E-02 -3.11004E-01 -1.99077E-01 -2.87031E-01 -3.26699E-01 -4.55576E-01 -3.18910E-01 -4.77013E-03 -2.86077E-01  1.12063E-01
  -3.78388E-01 -2.93361E-01  2.53799E-02 -2.15609E-01 -4.06365E-01 -2.75743E-01 -1.94007E-02 -2.22629E-01 -1.73647E-01 -2.52167E-01
  -2.97004E-02 -1.24978E-01  4.82482E-02  1.01012E-01 -2.81361E-01  4.47908E-02 -1.85030E-01 -2.00894E-02  2.00238E-01  1.53044E-01
  -6.04139E-02 -2.08721E-01  1.05602E-01 -3.85804E-01 -1.02659E-01  1.36424E-01 -1.15024E-01 -2.38181E-01  8.25094E-02  2.87752E-01
  -1.61393E-01 -9.24543E-02 -1.36083E-01  3.24817E-02 -1.96354E-01  2.31424E-02 -1.25710E-01 -3.98641E-01  6.14323E-02 -5.47548E-02
   1.58396E-01 -8.87432E-02  9.63820E-02  4.95084E-01 -5.77898E-02  3.49134E-03  9.49909E-02 -1.44396E-01 -3.24774E-01 -2.01529E-01
   5.33001E-01  3.43504E-01  1.60867E-01  1.53837E-02  1.21637E-01  9.17008E-02  1.20998E-02  3.11919E-01 -3.27079E-01 -9.53165E-03
  -4.55536E-02  1.09118E-01  1.53556E-01  3.84179E-03  1.19855E-01 -2.01599E-01  1.17217E-03  2.38316E-01  2.02162E-01 -1.27411E-01
   1.58018E-01 -3.53154E-01 -3.95935E-01 -1.61957E-01 -1.20490E-01  2.50966E-01 -1.15142E-02 -6.20395E-02  1.65914E-01  7.74705E-02
  -2.53119E-01  3.00692E-01  3.25589E-01  6.52320E-02  2.06532E-01  1.99535E-01  2.14362E-01  2.51478E-01  1.09642E-01  8.03720E-02
  -1.92113E-01 -2.32244E-01 -9.91899E-02 -2.02269E-01  1.91237E-01  1.34477E-01 -2.45049E-02 -1.57497E-01 -3.84319E-02 -1.37426E-01
  -8.45009E-02  1.90303E-02  2.82572E-01  2.92718E-01 -1.11712E-01  1.24435E-02  1.22982E-01  1.84492E-01  8.65139E-02  4.69185E-01
   2.60211E-01  6.54689E-01  3.31250E-01 -9.38331E-02  3.91650E-01  2.74877E-01  3.44341E-01  5.12388E-02  1.26886E-01  2.27715E-01
   5.24753E-01  7.57410E-02  3.29671E-02  3.92307E-01  1.70850E-01  3.53890E-01  1.18397E-01 -2.32100E-02  1.05499E-01  1.43314E-01
   2.71572E-01  1.53502E-01  1.02714E-01  2.02112E-01  6.37430E-03  2.23849E-01  5.48950E-02  1.52773E-01  1.20543E-01 -1.20555E-01
  -5.15355E-02 -2.83890E-02 -2.91997E-01 -2.49673E-01  1.51906E-01 -4.27380E-01 -2.93450E-01 -1.79758E-01 -3.08106E-01 -1.99407E-01
   8.42918E-02 -1.03223E-01  8.41750E-02  5.90817E-02 -3.83403E-01 -1.69043E-01 -4.30522E-01 -2.20844E-01 -6.20573E-01 -4.96333E-01
  -2.03749E-01 -2.20057E-01 -4.05091E-01 -7.34756E-01 -5.09867E-01 -3.40922E-01 -3.65359E-01 -4.12144E-01 -3.09409E-01 -3.99773E-01
  -7.73057E-03 -1.05038E-01  8.18660E-02 -2.10597E-01 -3.06367E-01  2.98260E-01  4.89348E-01  2.87158E-01 -1.78570E-01  2.37788E-02
   3.80208E-03  1.88568E-01 -7.07412E-03  2.20652E-01  5.18456E-02 -1.26012E-01  6.33748E-02 -1.91768E-01  2.78989E-01 -1.05826E-01
  -1.81854E-01  3.20063E-01 -2.55825E-03 -1.47867E-01  5.90786E-02 -9.50449E-02 -2.13008E-02 -8.43168E-02 -1.39119E-01  3.99589E-02
   1.18727E-01  4.09800E-01  2.85075E-01  1.50492E-01 -2.42927E-02  1.19018E-01  3.41812E-01  1.09528E-01  6.97332E-02 -5.29101E-02
  -4.71279E-02 -1.22930E-01  3.21493E-02  2.23048E-01  9.22708E-02  2.80516E-01  4.20248E-01  7.32089E-01  3.53945E-01 -7.96387E-03
   3.26470E-01  4.99460E-02 -3.14153E-01 -1.58920E-01 -2.36798E-01 -2.12929E-01 -2.48646E-02 -1.99316E-01  1.62538E-01 -6.60695E-02
  -9.64781E-02 -2.33999E-02 -1.21515E-01 -6.08488E-02 -1.71661E-01  1.22896E-01 -7.86444E-02  1.61711E-01  9.27251E-02 -2.85792E-01
  -3.80525E-01 -2.83330E-01 -3.78660E-01 -5.41018E-01 -2.43173E-01 -1.07811E-01  1.72012E-01  1.12371E-01  1.55505E-01  5.49583E-02
  -1.27051E-01  7.75495E-02  3.04384E-01  2.50518E-01 -8.37502E-03  1.85351E-01  9.31015E-03 -3.85683E-01  3.72358E-02  1.77879E-01
   1.40821E-01  5.57348E-02  2.29034E-02  2.55262E-01  2.43871E-01  6.95496E-02 -2.58456E-01  2.85679E-01  2.33216E-01  2.18600E-01
   2.17050E-01  2.08490E-01  5.33801E-01  2.23649E-01  9.49364E-02  1.14532E-02  4.27450E-01 -8.50827E-02  1.89414E-02 -1.47395E-01
  -6.49820E-02  3.09611E-01 -4.34337E-01  1.54605E-01 -2.21416E-01 -3.31160E-01 -2.17821E-02 -2.67627E-02  1.78927E-01 -1.57779E-01
  -9.74969E-02  1.05256E-01 -3.17547E-01 -1.99752E-01  5.29151E-02 -5.17559E-01  8.67240E-02  3.12083E-01 -8.03090E-03  3.24742E-01
   7.61845E-02 -1.64051E-01 -8.99658E-02 -9.66858E-02 -2.03480E-01 -2.00631E-01 -6.16278E-04 -7.90561E-02  3.16012E-02  1.42883E-01
  -5.76978E-02  7.10898E-02  1.05347E-02  8.14204E-03  9.52148E-02  9.42990E-02  1.74237E-01  2.65591E-02 -1.60813E-02 -1.68562E-01
  -1.54396E-01  1.05868E-01  5.25051E-02  1.91257E-01 -9.10966E-02 -1.55943E-01  6.26778E-02 -3.97101E-02  3.71202E-02 -9.54804E-02
  -1.07614E-01  4.62116E-03  2.11695E-01  1.13448E-01  2.50649E-01  2.03438E-01 -2.97916E-02  8.54906E-02  6.92343E-02 -4.19412E-02
   4.95691E-02  1.82583E-01 -2.82837E-01  2.04023E-02  7.75247E-02  1.48549E-01  3.01558E-01  1.09508E-01 -8.46936E-02 -1.45709E-01
   7.42835E-03 -5.11598E-01  5.73744E-02 -7.27164E-02 -6.12559E-01 -1.47334E-01 -8.64265E-02 -1.76205E-01 -2.60223E-01 -1.98526E-01
   1.39470E-01  3.87894E-01 -1.38259E-01 -8.93927E-02  1.37329E-01 -2.87935E-01  6.24177E-02 -7.78773E-03 -3.70537E-01  2.68691E-01
   8.53164E-03 -2.55358E-01  6.79438E-02 -1.17059E-01 -4.22720E-02  1.83308E-01  1.25204E-01 -1.39301E-01 -1.30895E-01  1.29249E-01
   1.29986E-01 -2.10330E-03  1.77164E-01  1.91198E-01  2.06475E-01 -9.36080E-02 -2.96987E-01 -4.34459E-02 -7.82923E-02  1.06119E-01
   2.03703E-01  1.54636E-01 -4.74586E-02 -1.27527E-01 -3.55221E-02 -1.43518E-01 -4.44574E-02 -9.53773E-02 -5.44302E-02  3.99173E-01
   4.64978E-02 -1.69579E-01  1.55084E-01  4.67867E-02 -3.75747E-02  2.09517E-02  8.48222E-02 -2.36502E-02 -1.54290E-01 -4.49051E-02
   3.76606E-01  8.27941E-02 -1.13937E-01 -9.61810E-02 -2.29960E-01  1.44085E-01 -3.44934E-02  1.46296E-02  2.49270E-01 -9.09162E-02
  -3.44097E-02  1.10756E-01  1.97861E-02 -1.60333E-01 -7.41372E-02  2.07637E-01 -3.80841E-01 -7.16892E-02 -1.71017E-02 -1.27516E-01
   3.01889E-01 -7.22840E-02  2.30211E-01  2.54017E-01  9.59156E-02 -1.46639E-01 -1.59396E-02 -1.15761E-03  9.82905E-02  6.02223E-02
  -2.39885E-01 -1.41375E-02 -1.80402E-02  1.31168E-01 -1.05146E-01  5.28514E-02  3.41198E-02  2.86624E-01 -2.10584E-01  2.76703E-02
   6.39035E-01  8.39515E-02  3.05720E-01 -2.05746E-01 -1.34298E-03  9.65162E-02 -2.11165E-01 -1.43187E-03  2.84469E-01 -3.25115E-03
   9.52229E-03  1.70928E-01  9.84702E-02  2.20645E-01 -9.35612E-02  1.22708E-01 -7.37904E-02  2.44111E-01  1.02085E-01 -1.27548E-01
   1.98755E-01  4.13968E-02  8.79495E-02  5.28531E-02
 NY points of the fit to the data follow
   8.95740E-02  9.40315E-02  8.07668E-02  8.35946E-02  8.13903E-02  8.44039E-02  8.99457E-02  9.58994E-02  1.03646E-01  1.12435E-01
   1.16883E-01  1.25861E-01  1.24840E-01  1.32735E-01  1.23496E-01  1.33117E-01  1.11372E-01  1.21409E-01  8.69767E-02  9.50473E-02
   5.18304E-02  5.56172E-02  9.85874E-03  8.16804E-03 -3.49996E-02 -4.19444E-02 -7.84345E-02 -8.99569E-02 -1.14513E-01 -1.30259E-01
  -1.38050E-01 -1.56420E-01 -1.47199E-01 -1.63796E-01 -1.37604E-01 -1.53577E-01 -1.09389E-01 -1.24155E-01 -6.49342E-02 -7.79091E-02
  -9.06871E-03 -2.04138E-02  5.13131E-02  4.04264E-02  1.08729E-01  9.66553E-02  1.55086E-01  1.40547E-01  1.81805E-01  1.64213E-01
   1.83883E-01  1.62629E-01  1.58848E-01  1.35867E-01  1.11048E-01  8.88831E-02  5.24428E-02  3.29375E-02 -1.98150E-03 -1.82122E-02
  -3.99247E-02 -5.36146E-02 -5.58474E-02 -6.79563E-02 -5.25924E-02 -6.28071E-02 -3.70626E-02 -4.91637E-02 -1.50508E-02 -3.56609E-02
   2.18520E-03 -2.58778E-02  8.75156E-03 -2.13176E-02  5.38605E-03 -1.92895E-02 -2.36721E-03 -1.72727E-02 -8.94097E-03 -1.30155E-02
  -1.22559E-02 -5.84791E-03 -1.03943E-02  7.61496E-03  3.48910E-04  2.15095E-02  2.01662E-02  3.14675E-02  3.96572E-02  3.03683E-02
   5.35701E-02  1.59642E-02  6.01675E-02 -5.79892E-03  6.15090E-02 -2.81412E-02  6.00234E-02 -4.70428E-02  5.80830E-02 -5.63510E-02
   6.17937E-02 -4.49035E-02  7.84234E-02 -1.15863E-02  1.08272E-01  3.88359E-02  1.43254E-01  9.51571E-02  1.76256E-01  1.47188E-01
   2.01560E-01  1.87743E-01  2.14397E-01  2.10061E-01  2.10052E-01  2.06594E-01  1.83064E-01  1.75611E-01  1.30964E-01  1.23444E-01
   5.63833E-02  5.81025E-02 -3.28533E-02 -1.31387E-02 -1.25420E-01 -8.19511E-02 -2.08337E-01 -1.42327E-01 -2.73617E-01 -1.87021E-01
  -3.14965E-01 -2.10044E-01 -3.24798E-01 -2.07605E-01 -3.00729E-01 -1.81075E-01 -2.47950E-01 -1.36592E-01 -1.76659E-01 -8.17746E-02
  -9.92006E-02 -2.46470E-02 -2.55947E-02  2.70713E-02  3.71255E-02  6.82537E-02  8.25686E-02  1.00617E-01  1.14061E-01  1.28105E-01
   1.41769E-01  1.56420E-01  1.73141E-01  1.88163E-01  2.07957E-01  2.18818E-01  2.36165E-01  2.38520E-01  2.44892E-01  2.37770E-01
   2.26268E-01  2.13204E-01  1.82497E-01  1.68041E-01  1.20593E-01  1.08615E-01  4.91186E-02  3.85355E-02 -3.28391E-02 -3.72127E-02
  -1.12596E-01 -1.07840E-01 -1.78125E-01 -1.63448E-01 -2.20066E-01 -1.98066E-01 -2.36096E-01 -2.11201E-01 -2.30373E-01 -2.05968E-01
  -2.07660E-01 -1.86382E-01 -1.73664E-01 -1.60086E-01 -1.41009E-01 -1.37860E-01 -1.22090E-01 -1.22316E-01 -1.08038E-01 -1.09122E-01
  -9.64477E-02 -9.70111E-02 -8.61411E-02 -8.55477E-02 -7.65317E-02 -7.45823E-02 -6.75472E-02 -6.45339E-02 -5.92785E-02 -5.56805E-02
  -5.19137E-02 -4.84595E-02 -4.58718E-02 -4.29940E-02 -4.14615E-02 -3.92720E-02 -3.85954E-02 -3.70083E-02 -3.69909E-02 -3.59690E-02
  -3.61754E-02 -3.47185E-02 -3.44910E-02 -3.06958E-02 -2.96822E-02 -2.19516E-02 -1.94828E-02 -7.00918E-03 -2.29620E-03  1.44687E-02
   2.07656E-02  4.05575E-02  4.63564E-02  6.74726E-02  7.02058E-02  9.12930E-02  8.89650E-02  1.07002E-01  9.86520E-02  1.11994E-01
   9.87544E-02  1.06451E-01  8.78096E-02  8.97901E-02  6.67919E-02  6.40435E-02  3.85760E-02  3.24514E-02  7.11787E-03 -7.46210E-04
  -2.35085E-02 -3.12296E-02 -5.04650E-02 -5.58853E-02 -7.26866E-02 -7.37858E-02 -8.93014E-02 -8.28192E-02 -9.71961E-02 -8.28253E-02
  -9.65527E-02 -7.72045E-02 -8.71231E-02 -6.59457E-02 -7.04048E-02 -4.90575E-02 -4.87653E-02 -2.61870E-02 -2.38948E-02 -8.12051E-04
   2.38076E-03  2.41895E-02  2.62629E-02  4.43908E-02  4.34349E-02  5.68540E-02  4.99891E-02  5.84941E-02  4.32809E-02  4.67084E-02
   2.16770E-02  2.10880E-02 -1.28749E-02 -1.36723E-02 -5.15693E-02 -4.84445E-02 -8.15098E-02 -7.45466E-02 -9.35947E-02 -8.37435E-02
  -8.61149E-02 -7.39794E-02 -6.18646E-02 -4.59335E-02 -2.39484E-02 -3.02541E-03  2.57702E-02  4.97366E-02  8.17086E-02  1.04846E-01
   1.34501E-01  1.53489E-01  1.75813E-01  1.89102E-01  2.01201E-01  2.08618E-01  2.10309E-01  2.12251E-01  2.04812E-01  2.02623E-01
   1.88383E-01  1.84580E-01  1.68026E-01  1.63667E-01  1.48913E-01  1.42617E-01  1.29384E-01  1.20057E-01  1.05421E-01  9.29805E-02
   7.49320E-02  6.04810E-02  3.79562E-02  2.38848E-02 -3.08596E-03 -1.33728E-02 -4.37088E-02 -4.69745E-02 -7.88466E-02 -7.36389E-02
  -1.04516E-01 -9.19727E-02 -1.19398E-01 -1.01811E-01 -1.24364E-01 -1.03397E-01 -1.21256E-01 -9.76641E-02 -1.17918E-01 -9.42613E-02
  -1.28769E-01 -1.09960E-01 -1.63632E-01 -1.53251E-01 -2.21503E-01 -2.19103E-01 -2.90406E-01 -2.91758E-01 -3.55800E-01 -3.56377E-01
  -4.06215E-01 -4.03435E-01 -4.38873E-01 -4.32556E-01 -4.42153E-01 -4.30083E-01 -4.11014E-01 -3.93408E-01 -3.49550E-01 -3.28531E-01
  -2.70110E-01 -2.48426E-01 -1.87421E-01 -1.66716E-01 -1.11687E-01 -9.25061E-02 -5.01062E-02 -3.38656E-02 -1.09087E-02 -2.87295E-04
   4.51648E-03  9.26432E-03  1.18257E-02  1.45372E-02  1.67370E-02  1.83319E-02  2.08658E-02  2.18339E-02  2.49098E-02  2.55726E-02
   2.91157E-02  2.97045E-02  3.34874E-02  3.41441E-02  3.78966E-02  3.86786E-02  4.21058E-02  4.30639E-02  4.59427E-02  4.70884E-02
   4.93750E-02  5.06388E-02  5.24236E-02  5.37402E-02  5.51097E-02  5.64363E-02  5.73971E-02  5.86635E-02  5.92017E-02  6.03268E-02
   6.04228E-02  6.12932E-02  6.09341E-02  6.14049E-02  6.05814E-02  6.05490E-02  5.92565E-02  5.86740E-02  5.69315E-02  5.57991E-02
   5.36683E-02  5.20504E-02  4.96144E-02  4.76308E-02  4.49650E-02  4.27663E-02  3.99893E-02  3.77375E-02  3.49821E-02  3.27962E-02
   3.01977E-02  2.81553E-02  2.58284E-02  2.40088E-02  2.20562E-02  2.05451E-02  1.90686E-02  1.79272E-02  1.70340E-02  1.63461E-02
   1.63117E-02  1.62452E-02  1.75400E-02  1.83817E-02  2.11650E-02  2.32375E-02  2.69517E-02  3.04388E-02  3.40650E-02  3.89613E-02
   4.15568E-02  4.76921E-02  4.87642E-02  5.58961E-02  5.55189E-02  6.33257E-02  6.14884E-02  6.96088E-02  6.62834E-02  7.41855E-02
   6.99052E-02  7.71307E-02  7.27087E-02  7.89283E-02  7.51582E-02  8.01833E-02  7.74982E-02  8.12299E-02  7.96832E-02  8.20953E-02
   8.16014E-02  8.27528E-02  8.29681E-02  8.29500E-02  8.28706E-02  8.17383E-02  8.07072E-02  7.84325E-02  7.65913E-02  7.33447E-02
   7.09211E-02  6.69631E-02  6.42262E-02  5.98676E-02  5.70966E-02  5.26669E-02  5.01123E-02  4.59201E-02  4.37676E-02  4.00887E-02
   3.84680E-02  3.55401E-02  3.45131E-02  3.24683E-02  3.20358E-02  3.08908E-02  3.10052E-02  3.06966E-02  3.12789E-02  3.16815E-02
   3.26209E-02  3.35465E-02  3.47075E-02  3.59478E-02  3.71543E-02  3.85012E-02  3.95618E-02  4.08158E-02  4.15830E-02  4.25711E-02
   4.29717E-02  4.35561E-02  4.35686E-02  4.36728E-02  4.33137E-02  4.29245E-02  4.22238E-02  4.13756E-02  4.03967E-02  3.91795E-02
   3.79853E-02  3.65062E-02  3.51223E-02  3.34634E-02  3.18900E-02  3.01039E-02  2.83202E-02  2.64119E-02  2.43684E-02  2.22855E-02
   1.98604E-02  1.74956E-02  1.45444E-02  1.17638E-02  8.16693E-03  4.82868E-03  5.27793E-04 -3.42522E-03 -8.41012E-03 -1.29426E-02
  -1.84872E-02 -2.34629E-02 -2.93424E-02 -3.45112E-02 -4.03892E-02 -4.54106E-02 -5.09054E-02 -5.54008E-02 -6.01391E-02 -6.37822E-02
  -6.74765E-02 -6.99976E-02 -7.24559E-02 -7.36746E-02 -7.48336E-02 -7.46676E-02 -7.45467E-02 -7.30650E-02 -7.17849E-02 -6.91955E-02
  -6.69273E-02 -6.35073E-02 -6.04267E-02 -5.64650E-02 -5.27656E-02 -4.85330E-02 -4.43834E-02 -4.01254E-02 -3.56787E-02 -3.15900E-02
  -2.69802E-02 -2.31954E-02 -1.86000E-02 -1.51690E-02 -1.07585E-02 -7.70637E-03 -3.65102E-03 -9.84706E-04  2.59438E-03  4.89003E-03
   7.91131E-03  9.90799E-03  1.23584E-02  1.41085E-02  1.60487E-02  1.75726E-02  1.91017E-02  2.03980E-02  2.16253E-02  2.26925E-02
   2.36909E-02  2.45582E-02  2.53911E-02  2.60593E-02  2.67981E-02  2.72874E-02  2.79634E-02  2.82914E-02  2.88937E-02  2.90947E-02
   2.96021E-02  2.97036E-02  3.00930E-02  3.01272E-02  3.03939E-02  3.03907E-02  3.05383E-02  3.05153E-02  3.05656E-02  3.05372E-02
   3.05471E-02  3.04754E-02  3.05171E-02  3.04047E-02  3.05315E-02  3.03736E-02  3.06298E-02  3.04507E-02  3.08515E-02  3.06556E-02
   3.12179E-02  3.09880E-02  3.17302E-02  3.14626E-02  3.23569E-02  3.20825E-02  3.30851E-02  3.28134E-02  3.38822E-02  3.36047E-02
   3.47273E-02  3.44907E-02  3.56400E-02  3.54635E-02  3.65969E-02  3.65149E-02  3.75959E-02  3.76102E-02  3.86432E-02  3.87478E-02
   3.97461E-02  3.99118E-02  4.08801E-02  4.11055E-02  4.20325E-02  4.23130E-02  4.31807E-02  4.34989E-02  4.43137E-02  4.46669E-02
   4.54360E-02  4.58346E-02  4.65601E-02  4.70554E-02  4.77537E-02  4.83860E-02  4.91043E-02  4.98995E-02  5.06829E-02  5.16989E-02
   5.25824E-02  5.38912E-02  5.48589E-02  5.64875E-02  5.75533E-02  5.94927E-02  6.07094E-02  6.29571E-02  6.43815E-02  6.69395E-02
   6.86092E-02  7.14975E-02  7.34742E-02  7.67582E-02
 NY background values follow
     2.588E-02    2.577E-02    2.566E-02    2.554E-02    2.543E-02    2.532E-02    2.521E-02    2.509E-02    2.498E-02    2.487E-02
     2.476E-02    2.464E-02    2.453E-02    2.442E-02    2.431E-02    2.419E-02    2.408E-02    2.397E-02    2.385E-02    2.374E-02
     2.363E-02    2.352E-02    2.340E-02    2.329E-02    2.318E-02    2.307E-02    2.295E-02    2.284E-02    2.273E-02    2.261E-02
     2.250E-02    2.239E-02    2.228E-02    2.216E-02    2.205E-02    2.194E-02    2.182E-02    2.171E-02    2.160E-02    2.149E-02
     2.137E-02    2.126E-02    2.115E-02    2.103E-02    2.092E-02    2.081E-02    2.070E-02    2.058E-02    2.047E-02    2.036E-02
     2.024E-02    2.013E-02    2.002E-02    1.990E-02    1.979E-02    1.968E-02    1.957E-02    1.945E-02    1.934E-02    1.923E-02
     1.911E-02    1.900E-02    1.889E-02    1.877E-02    1.866E-02    1.855E-02    1.843E-02    1.832E-02    1.821E-02    1.809E-02
