 
 $NMID
 ID=''
 FMTDAT='(2E13.5)'
 TRAMP=   1.00000E+0
 VOLUME=   1.00000E+0
 $END
   4.39361E+2  -8.48805E+1
   4.48893E+0   4.83420E+2
   9.85808E+2  -1.70675E+3
  -1.13592E+3  -1.47936E+2
  -1.45297E+3   2.36752E+2
   1.11193E+3   3.92284E+2
  -1.10716E+3  -9.43865E+2
  -2.16699E+3  -4.91600E+2
  -5.63416E+2  -5.28902E+2
  -2.03116E+3  -6.42807E+2
   4.33521E+2   1.88744E+2
  -1.60110E+3   2.24153E+3
  -9.21525E+2   4.80712E+3
  -2.02182E+3   4.19777E+3
  -1.34707E+3  -1.39189E+3
   2.18489E+3  -6.02352E+2
   2.95769E+3  -6.93719E+1
   1.92772E+3   2.94305E+3
  -1.55734E+3  -3.72859E+2
   1.54748E+3  -1.28978E+3
   4.00713E+3   1.28228E+2
  -8.11830E+2   1.66658E+3
  -2.32012E+3   1.54280E+3
  -2.25283E+3  -4.39721E+3
   4.39946E+3  -1.40026E+3
   2.60806E+3   1.93390E+3
  -1.75607E+3  -5.13805E+2
  -2.20206E+2  -4.55714E+3
   1.49215E+3  -1.63568E+3
   4.01321E+3  -5.04561E+2
   2.06861E+3   4.82135E+3
  -1.45276E+3   1.90306E+3
  -3.37401E+3  -1.20127E+3
  -1.59929E+3  -1.85051E+3
  -7.59174E+1  -1.06194E+3
  -1.35539E+3  -3.84793E+3
   2.12619E+3  -5.33153E+3
   5.13056E+3   4.03388E+2
   1.96379E+3   1.65227E+3
   2.53306E+2   2.28354E+3
  -1.49498E+3   2.61724E+3
  -3.80135E+3   1.93024E+3
  -3.85088E+3  -1.22373E+3
   2.09640E+3  -6.54616E+2
   1.72201E+3  -1.02192E+3
   5.50357E+2   3.17965E+2
  -2.15378E+3  -1.75058E+3
  -1.64429E+3   3.28810E+3
  -3.98570E+3  -7.37368E+1
  -2.44063E+3   1.06782E+3
  -1.73070E+3  -1.64277E+3
  -8.06430E+2  -3.65162E+3
   2.07866E+3  -1.11884E+3
   1.64821E+3   3.36673E+3
   5.11054E+2   1.82219E+3
   4.15998E+2   2.42208E+3
   1.13985E+2   4.45115E+2
  -3.64293E+3  -7.74642E+1
  -1.56419E+3  -3.17682E+3
   1.24928E+3  -3.72885E+3
   3.34993E+3  -3.76731E+2
   8.34157E+2   1.00811E+3
  -9.62246E+2   3.54720E+3
  -2.40824E+3   5.53657E+2
   3.78454E+2  -1.57417E+3
   8.91134E+2   1.55892E+3
  -1.42076E+3   3.30556E+3
  -3.02171E+3  -6.71881E+2
  -5.75856E+1  -4.87028E+2
   1.24202E+3  -1.73325E+3
  -6.82977E+2   1.98474E+3
   3.62558E+2   1.64926E+3
  -3.00615E+2   1.07317E+3
  -2.78523E+2  -1.52225E+3
   1.79507E+3  -4.46867E+2
   3.20423E+3   1.12984E+3
  -2.60938E+2   4.19306E+2
   7.03226E+2  -9.18638E+2
   2.99329E+3  -5.96752E+1
   1.18423E+3   1.55636E+3
  -2.39012E+2   3.43437E+3
  -1.97739E+2   1.30113E+3
  -3.74446E+2   3.07839E+2
  -3.44707E+3   1.04238E+3
  -4.07955E+3   1.20905E+3
  -2.58801E+3  -5.06210E+2
  -1.14703E+3  -9.48735E+2
   2.80246E+2  -1.92952E+3
   1.85538E+3   8.29111E+2
   2.78868E+3   8.81243E+2
  -1.11625E+3   2.33762E+2
   9.82295E+2   5.43722E+2
   1.16033E+2   3.88380E+2
  -3.50444E+3   1.59600E+3
  -1.44411E+3  -2.53974E+3
   1.29706E+3  -4.89991E+3
   2.84551E+3  -2.23230E+3
   1.23962E+3  -8.92080E+2
  -1.90034E+3   2.45350E+2
  -2.00177E+3  -2.92426E+3
   3.88713E+3  -4.04438E+3
   2.53401E+3  -1.73639E+3
   1.55104E+3   1.78190E+3
  -1.52785E+3   3.50478E+3
  -2.30773E+3   2.69494E+3
  -6.01305E+2  -3.88155E+2
  -3.29740E+2  -2.46216E+3
  -2.20377E+3  -2.12319E+3
  -2.48380E+3  -5.43206E+3
   1.69823E+3  -3.29327E+3
   1.48866E+3   3.28886E+2
   1.82827E+3   1.90598E+3
  -3.67702E+2   1.13639E+3
  -6.49624E+2   1.17112E+3
   1.22492E+2   4.76673E+2
  -1.22064E+3   5.27642E+2
  -1.98205E+2  -3.16095E+3
   5.57818E+2  -1.63510E+3
   1.66722E+2  -1.82927E+3
   7.85289E+1   5.68087E+2
  -5.29111E+2   2.00160E+3
  -1.16997E+3  -6.81115E+2
  -1.90564E+3  -1.93833E+3
   1.62256E+3  -1.43602E+3
   3.32997E+3   9.03473E+2
   1.23342E+3  -5.49879E+2
  -1.61647E+3  -2.45280E+2
  -1.11323E+3  -7.40628E+2
   3.42780E+2   1.66562E+3
   7.39335E+1   6.48075E+1
   2.85032E+2  -1.21562E+3
   2.97990E+3  -6.89805E+2
   1.16071E+3  -6.00516E+2
   4.28068E+2   2.33322E+3
  -1.72079E+3   1.40285E+3
  -1.00549E+3   7.22263E+2
  -2.30955E+2  -8.53118E+1
  -2.79451E+2  -1.89530E+3
   1.53900E+2   1.50749E+1
  -7.14954E+1   3.34710E+2
   4.90767E+2  -1.00286E+3
   1.28929E+3  -2.34035E+2
   1.74323E+3  -3.38578E+2
  -3.58812E+1   1.84879E+3
  -1.30752E+2   1.61062E+3
  -3.30355E+2  -7.84058E+2
   6.26608E+2   2.50465E+2
   8.29462E+2   1.12031E+3
   8.88539E+2   1.34064E+3
  -4.46745E+2   2.82663E+3
  -2.87966E+2  -2.72132E+1
  -1.40121E+3   1.23357E+2
   2.44810E+3  -4.59389E+2
   3.54624E+3  -2.20626E+3
   2.94973E+3  -1.54065E+3
   3.69340E+2   1.32272E+3
   1.48160E+3   1.12807E+3
   1.49242E+3  -1.24155E+3
   1.39788E+3   4.74476E+2
   9.04514E+2   1.55588E+3
   1.20737E+3   5.78593E+2
   7.79642E+2  -4.07606E+2
  -6.87416E+2  -1.72698E+3
   1.34770E+2   1.18759E+3
   1.45190E+3   1.19418E+3
  -8.49211E+2  -1.64385E+3
  -1.38259E+3  -1.46217E+3
   8.25370E+2  -6.58648E+2
   1.96139E+3   2.02703E+3
  -2.27985E+3   1.97872E+3
   8.15555E+2   6.10551E+2
  -7.65860E+2   1.28731E+3
  -1.38640E+3  -1.43787E+3
   5.32865E+2  -9.68146E+2
   7.42279E+2   9.25419E+2
   2.21442E+2  -1.23979E+3
   2.09820E+3   6.00154E+2
   9.70290E+2   1.49577E+3
   8.59518E+1   2.37915E+3
  -1.97495E+3  -5.91440E+1
  -1.39045E+1  -9.38858E+2
   2.29522E+2   4.22731E+2
  -2.55493E+2   1.72588E+3
   2.14937E+3   3.37792E+2
   2.68709E+2  -1.04486E+3
  -4.12768E+2   1.69720E+3
   2.55418E+2   1.70641E+3
  -1.43512E+3   1.08630E+3
  -3.35483E+2  -1.80427E+3
   1.73068E+3  -1.74219E+2
   7.15419E+2  -2.25142E+1
   1.30455E+3   1.81936E+3
   8.57248E+2  -6.52120E+2
  -8.79799E+2  -9.40315E+2
   1.06103E+3   2.07969E+3
   4.47673E+2   3.67721E+2
   6.99114E+2   1.12531E+3
  -5.73418E+2  -2.33678E+2
   1.15076E+3  -8.08103E+1
   2.27559E+3   1.24409E+3
  -1.43770E+3   9.35223E+2
   2.12710E+2  -7.07069E+2
  -1.88036E+2  -6.07693E-1
   2.68275E+3   5.34040E+2
   1.43598E+3   9.52069E+2
   1.01997E+3   2.97886E+2
  -1.17101E+3  -9.79622E+1
  -2.10073E+1   9.76436E+1
   1.43463E+3   1.31853E+3
   1.17871E+3   1.14104E+2
  -1.09207E+3   5.27443E+2
  -8.39005E+1  -8.46571E+2
   4.25744E+2  -4.30504E+2
   6.93546E+2  -9.91068E+2
  -1.41123E+3   1.05963E+3
  -1.27706E+3  -1.20704E+2
  -1.97503E+3  -7.44411E+2
   7.82865E+2  -1.29849E+3
   5.94428E+2   6.71258E+2
   2.94300E+2   1.55532E+2
  -2.42490E+2   2.90529E+2
   1.29172E+3   8.68635E+2
  -1.76281E+2  -1.23178E+3
  -2.16528E+3  -5.23471E+2
  -7.28900E+2  -1.65471E+3
   2.05069E+1   2.20787E+2
   3.84880E+3   1.14463E+3
   1.29573E+3   3.06245E+2
  -1.21899E+3   2.84338E+2
  -2.02764E+3  -7.15819E+2
  -6.21704E+2   2.03972E+2
  -1.07191E+3  -4.90665E+2
  -1.57703E+3  -5.09281E+2
   6.97560E+1  -1.64321E+3
   9.28033E+2   2.15819E+2
   1.20502E+3   3.83259E+3
  -2.02342E+3   1.74940E+3
  -8.62150E+2   2.35946E+3
  -7.73616E+2   5.60218E+1
  -3.84922E+2   4.56506E+2
   1.36532E+3   3.05662E+2
  -2.39647E+2   9.85895E+2
  -1.27943E+3   2.99436E+3
   6.99301E+2  -2.75887E+2
  -1.16684E+2  -2.09094E+3
  -1.01097E+3   1.74859E+3
  -1.19995E+3  -1.48459E+3
  -1.43703E+1  -2.15753E+3
   1.93158E+3  -3.76249E+2
   3.49326E+2   2.08919E+2
  -1.79126E+3   2.53122E+2
  -7.23591E+2  -2.58147E+3
  -5.04100E+2  -1.95610E+2
   8.68490E+1  -1.49508E+3
   5.85562E+1  -7.83419E+2
   8.72400E+2  -4.14273E+2
  -6.74961E+2  -7.64581E+2
   1.46336E+3  -8.45258E+1
  -1.56740E+3   2.67758E+3
  -9.08229E+2   1.23653E+3
  -6.38727E+2   4.26382E+2
  -8.79170E+2   4.00562E+2
   2.23596E+2   6.09395E+2
  -1.84708E+2   2.49966E+2
  -1.59512E+2  -2.22019E+3
   6.32580E+2   1.61748E+3
  -6.37559E+2  -1.46135E+3
  -3.20771E+2   5.32604E+2
  -6.79915E+2  -1.93383E+2
   1.55831E+2  -2.03433E+3
   8.56772E+2   5.76130E+2
  -9.49174E+2   5.49735E+2
  -2.08557E+3   8.03975E+2
  -1.47385E+3   1.88562E+3
  -3.38702E+2  -5.63662E+2
   1.23046E+3  -9.85872E+2
   5.93258E+2  -4.76399E+2
  -6.95572E+2  -8.44384E+2
  -9.01829E+2  -1.79655E+3
   1.23993E+3   9.81881E+2
   1.55991E+3  -3.70091E+2
  -9.69257E+2   6.12378E+2
   3.98232E+2   1.55011E+3
   3.27364E+2  -8.51000E+2
   2.17316E+3   1.30096E+3
  -1.91162E+1  -3.62455E+2
  -2.12935E+3  -2.70884E+1
  -4.74659E+2   3.13805E+2
  -2.72873E+2  -3.96177E+2
  -5.95226E+2   3.94249E+2
  -1.05262E+3   2.60474E+3
  -4.65501E+2   5.00050E+2
  -1.21054E+3  -7.74058E+2
   1.02126E+3  -2.09252E+2
  -1.35164E+3   1.01237E+3
  -7.80831E+2  -7.04845E+2
  -3.35365E+2  -3.53471E+2
   4.60543E+2  -2.00805E+3
  -1.62133E+3   3.19174E+2
   1.72858E+3   1.91637E+3
  -2.17445E+3  -2.00115E+2
   1.14829E+3  -6.08700E+2
  -3.03676E+2   9.17681E+2
  -2.40294E+2   1.71886E+3
   1.34536E+3   4.71424E+2
   1.83129E+2  -2.47141E+3
   1.67809E+3  -1.28420E+2
   3.05325E+3   5.28968E+2
   2.86650E+2   1.43498E+3
  -1.64611E+3  -3.24565E+2
   9.17676E+2   2.12084E+2
   9.87446E+2   4.77839E+2
  -1.17361E+3  -8.40799E+2
   3.02880E+2   1.21825E+3
   1.65447E+3  -7.37638E+2
   8.40517E+2  -1.23804E+2
  -9.07330E+1  -7.74894E+1
  -6.24991E+2   2.24303E+3
  -1.90425E+3  -2.90091E+3
  -3.50117E+2   8.36145E+2
   1.61329E+3  -1.60444E+3
  -1.81906E+3   1.16522E+3
  -5.74957E+2   8.92654E+2
   1.56693E+3  -5.05390E+2
   1.03357E+3  -2.59734E+2
  -8.14532E+2  -4.10595E+2
  -2.40282E+3   5.94744E+2
  -5.10941E+2   1.13619E+2
   6.99151E+2  -2.43386E+3
   2.08109E+3  -1.34201E+2
   1.76784E+2   1.34350E+3
  -2.11534E+3  -1.02609E+3
   2.31546E+2  -6.96838E+2
  -1.00826E+3  -1.44729E+3
  -9.31275E+2   7.88297E+1
   2.46146E+2   1.84265E+3
  -5.65424E+2  -1.28896E+3
  -3.80507E+2  -2.33286E+2
   8.57019E+2   8.34929E+0
   6.86920E+2   1.41209E+3
  -1.06526E+3   1.11753E+3
  -4.99389E+2  -2.08203E+3
   5.89543E+2  -6.91741E+2
  -3.28580E+2   5.32162E+2
  -1.61650E+3  -5.22645E+2
  -2.14253E+3   7.69921E+2
  -2.10405E+2   5.17401E+2
  -9.16192E+2   1.07387E+3
  -1.58846E+3   4.84188E+2
  -8.47648E+2   2.03617E+2
  -4.39815E+2  -1.32105E+3
  -1.91565E+2  -3.59239E+2
  -1.39245E+3   3.97309E+2
  -2.58184E+2  -6.01317E+2
  -5.17745E+2  -3.89418E+2
   5.04233E+2   1.40952E+3
  -4.23597E+1   1.37943E+3
   2.52887E+2  -1.22406E+3
   5.07891E+2   1.93656E+1
  -2.50959E+3  -1.12040E+3
   1.04368E+3  -4.01800E+2
   6.12532E+2  -1.14052E+3
   1.03593E+3   1.79319E+3
  -7.29587E+2  -7.82872E+2
   2.88059E+2   3.99415E+1
   1.62653E+3  -7.89929E+2
  -1.37601E+3  -1.34859E+2
