 LCModel (Version 6.3-1N) Copyright: S.W. Provencher.          Ref.: Magn. Reson. Med. 30:672-679 (1993).                
 Slice_N1@23_16  02-Jun-2023 14:37:38
 27 lines in following concentration table = NCONC+1
    Conc.  %SD /Cr+PCr  Metabolite                                         
 2.12E-06  17% 2.7E-04 Mac                                                 
 6.31E-02  13%   8.000 Cr                                                  
    0.000 999%   0.000 PCr                                                 
 8.28E-02  14%  10.504 Ins                                                 
 9.49E-02   9%  12.038 NAA                                                 
 7.40E-02  15%   9.382 Tau                                                 
    0.000 999%   0.000 PCho                                                
 1.67E-02  16%   2.112 GPC                                                 
 7.72E-02  15%   9.793 Glu                                                 
 3.22E-02  28%   4.088 Gln                                                 
 5.85E-03 157%   0.742 Ala                                                 
 2.22E-02  75%   2.810 Asc                                                 
 1.43E-02  57%   1.810 Asp                                                 
 8.66E-03  53%   1.098 GABA                                                
 8.01E-03  65%   1.015 Glc                                                 
 2.04E-02  29%   2.584 GSH                                                 
    0.000 999%   0.000 Lac                                                 
    0.000 999%   0.000 NAAG                                                
    0.000 999%   0.000 PE                                                  
 1.67E-02  16%   2.112 GPC+PCho                                            
 9.49E-02   9%  12.038 NAA+NAAG                                            
    0.109  14%  13.881 Glu+Gln                                             
 6.31E-02  13%   8.000 Cr+PCr                                              
 9.49E-02   9%  12.038 NAA+NAAG                                            
 6.31E-02  13%   8.000 Cr+PCr                                              
    0.109  14%  13.881 Glu+Gln                                             
   6 lines in following misc. output table
  FWHM = 0.041 ppm    S/N =   3                                            
  Data shift = 0.006 ppm                                                   
  Ph:  20 deg      -1.7 deg/ppm                                            
  alphaB,S = 4.9E-01,   4.7E+01                                            
   18 spline knots.   Ns =11(1)                                            
  ( 9) 5 infls.   ( 7) 1 extrs.                                            
  654 points on ppm-axis = NY
      4.000000     3.994181     3.988363     3.982544     3.976726     3.970907     3.965088     3.959270     3.953451     3.947633
      3.941814     3.935995     3.930177     3.924358     3.918540     3.912721     3.906902     3.901084     3.895265     3.889446
      3.883628     3.877809     3.871991     3.866172     3.860353     3.854535     3.848716     3.842898     3.837079     3.831260
      3.825442     3.819623     3.813805     3.807986     3.802167     3.796349     3.790530     3.784712     3.778893     3.773074
      3.767256     3.761437     3.755619     3.749800     3.743981     3.738163     3.732344     3.726526     3.720707     3.714888
      3.709070     3.703251     3.697433     3.691614     3.685795     3.679977     3.674158     3.668339     3.662521     3.656702
      3.650884     3.645065     3.639246     3.633428     3.627609     3.621791     3.615972     3.610153     3.604335     3.598516
      3.592698     3.586879     3.581060     3.575242     3.569423     3.563605     3.557786     3.551967     3.546149     3.540330
      3.534512     3.528693     3.522874     3.517056     3.511237     3.505419     3.499600     3.493781     3.487963     3.482144
      3.476326     3.470507     3.464688     3.458870     3.453051     3.447232     3.441414     3.435595     3.429777     3.423958
      3.418139     3.412321     3.406502     3.400684     3.394865     3.389046     3.383228     3.377409     3.371591     3.365772
      3.359953     3.354135     3.348316     3.342498     3.336679     3.330860     3.325042     3.319223     3.313405     3.307586
      3.301767     3.295949     3.290130     3.284312     3.278493     3.272674     3.266856     3.261037     3.255219     3.249400
      3.243581     3.237763     3.231944     3.226125     3.220307     3.214488     3.208670     3.202851     3.197032     3.191214
      3.185395     3.179577     3.173758     3.167939     3.162121     3.156302     3.150484     3.144665     3.138846     3.133028
      3.127209     3.121391     3.115572     3.109753     3.103935     3.098116     3.092298     3.086479     3.080660     3.074842
      3.069023     3.063205     3.057386     3.051567     3.045749     3.039930     3.034111     3.028293     3.022474     3.016656
      3.010837     3.005018     2.999200     2.993381     2.987563     2.981744     2.975925     2.970107     2.964288     2.958470
      2.952651     2.946832     2.941014     2.935195     2.929377     2.923558     2.917739     2.911921     2.906102     2.900284
      2.894465     2.888646     2.882828     2.877009     2.871191     2.865372     2.859553     2.853735     2.847916     2.842098
      2.836279     2.830460     2.824642     2.818823     2.813004     2.807186     2.801367     2.795549     2.789730     2.783911
      2.778093     2.772274     2.766456     2.760637     2.754818     2.749000     2.743181     2.737363     2.731544     2.725725
      2.719907     2.714088     2.708270     2.702451     2.696632     2.690814     2.684995     2.679177     2.673358     2.667539
      2.661721     2.655902     2.650084     2.644265     2.638446     2.632628     2.626809     2.620991     2.615172     2.609353
      2.603535     2.597716     2.591897     2.586079     2.580260     2.574442     2.568623     2.562804     2.556986     2.551167
      2.545349     2.539530     2.533711     2.527893     2.522074     2.516256     2.510437     2.504618     2.498800     2.492981
      2.487163     2.481344     2.475525     2.469707     2.463888     2.458070     2.452251     2.446432     2.440614     2.434795
      2.428977     2.423158     2.417339     2.411521     2.405702     2.399884     2.394065     2.388246     2.382428     2.376609
      2.370790     2.364972     2.359153     2.353335     2.347516     2.341697     2.335879     2.330060     2.324242     2.318423
      2.312604     2.306786     2.300967     2.295149     2.289330     2.283511     2.277693     2.271874     2.266056     2.260237
      2.254418     2.248600     2.242781     2.236963     2.231144     2.225325     2.219507     2.213688     2.207870     2.202051
      2.196232     2.190414     2.184595     2.178777     2.172958     2.167139     2.161321     2.155502     2.149683     2.143865
      2.138046     2.132228     2.126409     2.120590     2.114772     2.108953     2.103135     2.097316     2.091497     2.085679
      2.079860     2.074042     2.068223     2.062404     2.056586     2.050767     2.044949     2.039130     2.033311     2.027493
      2.021674     2.015856     2.010037     2.004218     1.998400     1.992581     1.986763     1.980944     1.975126     1.969307
      1.963489     1.957670     1.951852     1.946033     1.940215     1.934397     1.928578     1.922760     1.916941     1.911123
      1.905304     1.899486     1.893667     1.887849     1.882030     1.876212     1.870393     1.864575     1.858756     1.852938
      1.847119     1.841301     1.835482     1.829664     1.823845     1.818027     1.812208     1.806390     1.800571     1.794753
      1.788934     1.783116     1.777297     1.771479     1.765660     1.759842     1.754023     1.748205     1.742386     1.736568
      1.730749     1.724931     1.719113     1.713294     1.707476     1.701657     1.695839     1.690020     1.684202     1.678383
      1.672565     1.666746     1.660928     1.655109     1.649291     1.643472     1.637654     1.631835     1.626017     1.620198
      1.614380     1.608561     1.602743     1.596924     1.591106     1.585287     1.579469     1.573650     1.567832     1.562013
      1.556195     1.550376     1.544558     1.538739     1.532921     1.527102     1.521284     1.515465     1.509647     1.503829
      1.498010     1.492192     1.486373     1.480555     1.474736     1.468918     1.463099     1.457281     1.451462     1.445644
      1.439825     1.434007     1.428188     1.422370     1.416551     1.410733     1.404914     1.399096     1.393277     1.387459
      1.381640     1.375822     1.370003     1.364185     1.358366     1.352548     1.346729     1.340911     1.335092     1.329274
      1.323455     1.317637     1.311818     1.306000     1.300182     1.294363     1.288545     1.282726     1.276908     1.271089
      1.265271     1.259452     1.253634     1.247815     1.241997     1.236178     1.230360     1.224541     1.218723     1.212904
      1.207086     1.201267     1.195449     1.189630     1.183812     1.177993     1.172175     1.166356     1.160538     1.154719
      1.148901     1.143082     1.137264     1.131445     1.125627     1.119808     1.113990     1.108171     1.102353     1.096534
      1.090716     1.084898     1.079079     1.073261     1.067442     1.061624     1.055805     1.049987     1.044168     1.038350
      1.032531     1.026713     1.020894     1.015076     1.009257     1.003439     0.997620     0.991802     0.985983     0.980165
      0.974346     0.968528     0.962709     0.956891     0.951072     0.945254     0.939435     0.933617     0.927798     0.921980
      0.916161     0.910343     0.904524     0.898706     0.892887     0.887069     0.881251     0.875432     0.869614     0.863795
      0.857977     0.852158     0.846340     0.840521     0.834703     0.828884     0.823066     0.817247     0.811429     0.805610
      0.799792     0.793973     0.788155     0.782336     0.776518     0.770699     0.764881     0.759062     0.753244     0.747425
      0.741607     0.735788     0.729970     0.724151     0.718333     0.712514     0.706696     0.700877     0.695059     0.689240
      0.683422     0.677603     0.671785     0.665967     0.660148     0.654330     0.648511     0.642693     0.636874     0.631056
      0.625237     0.619419     0.613600     0.607782     0.601963     0.596145     0.590326     0.584508     0.578689     0.572871
      0.567052     0.561234     0.555415     0.549597     0.543778     0.537960     0.532141     0.526323     0.520504     0.514686
      0.508867     0.503049     0.497230     0.491412     0.485593     0.479775     0.473956     0.468138     0.462319     0.456501
      0.450682     0.444864     0.439045     0.433227     0.427408     0.421590     0.415771     0.409953     0.404134     0.398316
      0.392497     0.386679     0.380860     0.375042     0.369223     0.363405     0.357586     0.351767     0.345949     0.340130
      0.334312     0.328493     0.322675     0.316856     0.311038     0.305219     0.299401     0.293582     0.287764     0.281945
      0.276127     0.270308     0.264490     0.258671     0.252853     0.247034     0.241216     0.235397     0.229579     0.223760
      0.217942     0.212123     0.206305     0.200486
 NY phased data points follow
  -1.69134E-01 -1.85087E-01 -2.33298E-01 -1.22960E-01 -1.87495E-01 -3.31993E-01 -1.30747E-01 -1.55793E-01 -1.15983E-01 -2.61240E-03
   1.59545E-01  1.76942E-01  3.53983E-01 -1.16517E-01 -1.86952E-01  2.44491E-01  2.34714E-01  4.59864E-01  2.21339E-01  2.57043E-01
   3.05246E-01  3.78710E-01  2.48577E-01  1.27676E-01  1.90315E-01 -4.46121E-01 -8.06123E-02  1.23174E-01 -1.50240E-01 -1.09840E-01
  -2.17514E-01 -2.08240E-01 -4.12825E-01 -3.97000E-01 -3.34947E-01 -2.63974E-01 -3.05999E-01 -5.44214E-02 -1.70365E-01 -2.80395E-01
   2.96913E-02  7.11121E-02  5.10476E-01  2.89123E-01  1.80783E-01  2.33455E-01  4.70706E-01  5.84490E-01  5.80069E-02  1.96497E-01
   3.00683E-01  1.16776E-02  5.72873E-03  6.89281E-02 -2.43180E-01 -5.64706E-02 -4.40245E-02 -2.46554E-01 -1.13348E-01  3.10110E-02
   1.30776E-01 -2.12192E-01 -1.76694E-01 -6.83839E-02 -4.95187E-01 -3.95606E-01 -2.11393E-01  2.40865E-01  2.87340E-01 -5.15068E-01
   1.15704E-01  3.04629E-01 -4.33813E-02  1.07812E-01 -1.29010E-01 -1.23364E-01  1.09425E-01  1.96546E-01 -3.70790E-02 -2.67533E-01
  -2.18729E-01 -3.71116E-02  5.09586E-02 -5.04732E-02 -1.34017E-01  3.26614E-01  3.22742E-01  3.63730E-01  1.35140E-01  8.66594E-02
   2.11532E-01 -1.02608E-01  1.83000E-01 -7.98912E-02 -2.32893E-02 -8.70798E-02 -5.92669E-02 -3.15970E-02 -8.03898E-03 -2.03933E-01
  -2.17813E-01  9.90042E-02 -6.86017E-02  3.72535E-01  3.01223E-01  6.28705E-01  4.12181E-01  8.80200E-02  2.30013E-01  2.36930E-01
   2.62608E-01  1.60792E-01  3.64978E-01  5.71070E-01  4.87552E-01  1.38027E-01  3.87575E-01  2.68561E-01  4.02372E-01  7.35449E-02
   2.92517E-01  5.09518E-01 -3.40084E-01  8.64439E-03 -9.91771E-03 -3.60238E-01 -2.15049E-01 -1.02320E-01 -3.39173E-01 -4.68043E-01
  -4.51024E-01 -4.58378E-01 -5.91387E-01 -5.48872E-01 -7.12427E-01 -7.14082E-01 -6.79722E-01 -7.55314E-01 -3.14479E-01 -3.03772E-01
  -4.03877E-01 -3.74630E-01 -1.94941E-01 -7.80670E-02  7.67673E-02 -2.36835E-01 -1.76833E-01  5.60647E-02  9.97378E-02  1.86288E-01
   2.69343E-02  1.55404E-01  7.78252E-02  3.11558E-01  4.69331E-01  5.20665E-01  1.98566E-01  2.43636E-01  3.28745E-01  1.50841E-01
   2.59096E-01  9.84065E-02  1.95314E-01  4.29517E-01  7.06710E-01  4.77049E-01  3.66673E-01  2.17807E-01 -2.62100E-01 -2.45248E-01
  -4.20343E-01 -3.84180E-01 -6.81136E-02 -5.79079E-01 -3.07119E-01 -1.62467E-01 -5.42016E-01 -6.71025E-01 -4.83772E-01 -3.55910E-02
  -5.28416E-01 -2.76760E-01 -4.01503E-01 -2.90224E-01 -2.04400E-01 -3.38963E-01  6.53175E-02 -2.68353E-01 -2.59708E-01 -1.72608E-01
  -9.79046E-02 -2.39951E-01 -1.77905E-01 -9.42788E-02 -1.42557E-03 -1.36621E-01 -1.68021E-01 -1.90681E-01 -3.59507E-01 -1.73463E-01
  -1.38278E-01  1.14194E-01  1.10310E-01  2.14614E-01  1.10550E-01 -1.92258E-01 -2.95869E-01 -2.37132E-01 -3.36384E-02  2.02099E-01
  -1.12868E-01 -1.11019E-01  1.86953E-01 -1.48577E-01 -5.06816E-02  1.17348E-01  1.39644E-01 -1.34688E-01 -1.01987E-01  2.76632E-01
   3.01185E-01  2.49687E-01  3.15362E-01 -2.25143E-01  7.19977E-02  4.32228E-01  7.73853E-02  2.44613E-01  5.10803E-02  5.26307E-01
   3.79058E-01  1.96292E-01  1.82541E-01  2.56230E-01  5.39438E-01  1.16451E-01  7.50218E-02 -9.47124E-02  3.89070E-02  1.95099E-01
   9.97595E-02 -2.17749E-01 -2.66051E-01 -3.99681E-02 -1.08388E-01 -3.15149E-01 -1.37478E-01 -4.85283E-02 -2.07748E-01  1.17107E-01
  -5.19021E-02  1.13328E-01  2.05239E-01 -4.48238E-02  7.04659E-02 -1.10978E-01 -1.18760E-01  8.37223E-02 -1.28230E-01 -1.35561E-01
   2.88461E-01  1.12082E-01  6.28526E-03  2.13670E-01  9.29449E-02  2.00637E-01  2.64053E-01  3.09189E-01  3.54354E-01  7.39267E-02
   2.24597E-01  2.68115E-01  2.43750E-02  3.92721E-02  1.27148E-01 -9.86436E-02 -2.18796E-01  6.83930E-03 -2.46423E-01 -1.45397E-01
  -1.49029E-01 -2.65624E-01 -1.82263E-02 -2.82181E-01  1.05327E-01  7.26819E-02 -8.28171E-02  4.28651E-01  3.94699E-01  5.05969E-01
   1.03250E-01  1.90165E-01  2.70161E-01  5.06393E-02  2.56594E-01 -1.62500E-02  1.51625E-01  2.99108E-01  2.43216E-01  2.63808E-01
   4.17095E-01  1.97303E-01  1.87982E-01  2.93453E-01  3.63565E-01  3.74978E-01  8.06022E-02  3.19485E-01  3.04994E-01  5.02712E-01
   9.24129E-04  9.52199E-02  3.45674E-01 -2.79893E-01 -1.14033E-01 -9.55939E-02 -6.23083E-02 -2.77039E-01 -8.22808E-02 -2.60556E-01
  -2.86326E-01 -3.24645E-02 -5.92169E-01 -4.09526E-01 -3.97244E-01 -1.26965E-01  1.38496E-01  2.09369E-02  2.99144E-01 -1.24603E-01
  -1.12712E-02  2.91509E-01 -1.46649E-01 -1.16317E-03 -1.93255E-01 -3.34438E-01  4.63095E-03  4.96266E-02 -1.59371E-01 -3.32415E-01
  -4.99437E-01 -9.25936E-01 -8.58638E-01 -1.11565E+00 -7.62226E-01 -2.50206E-01 -6.73519E-01 -5.84888E-01 -6.19432E-01 -2.06945E-01
  -2.45008E-02 -8.03822E-02 -3.99604E-02 -6.92467E-02  2.50528E-02 -1.84761E-01  1.14608E-01  6.21533E-02  2.80122E-01  2.83389E-01
   6.36370E-02  1.70934E-01  7.30313E-03  2.35487E-01  1.12461E-01 -6.73281E-02 -4.73344E-02  5.43118E-02  3.74997E-02  2.21971E-01
   1.68973E-01  4.37885E-02  2.01351E-01  3.02178E-01  3.97246E-02 -7.36279E-02  4.37609E-01 -1.55292E-01  3.19770E-01  2.76167E-01
   5.14022E-02  8.03017E-01  1.66198E-01  2.98185E-01  1.34779E-01 -7.90522E-04  3.35363E-03  4.72013E-02  2.01206E-01 -8.25347E-02
   2.09291E-01  2.27857E-01  1.09215E-01  1.04876E-01  2.52096E-01  1.44551E-01  1.48832E-01 -6.50352E-02 -8.58965E-03  1.70472E-01
  -5.97903E-02 -1.42769E-01 -1.59335E-01  2.04078E-01 -3.04696E-01  4.00555E-02  2.08422E-01 -1.83226E-01 -3.51822E-02 -1.38739E-01
   2.04093E-02 -3.38516E-01  3.31827E-02  1.39637E-01 -5.64445E-03  3.98132E-02 -8.83892E-02 -5.71914E-02 -3.58226E-01 -2.38694E-01
  -1.59549E-01 -2.49841E-01 -1.65025E-01 -1.11014E-01 -2.32247E-01 -1.71331E-01 -2.95813E-01 -2.90516E-01 -1.04907E-01  1.44888E-01
   9.50975E-02  4.67721E-02  3.35554E-01  1.05666E-01  1.08333E-01  4.10141E-02  9.89271E-02  9.37225E-02  8.87020E-02  1.47799E-01
   7.59602E-02 -8.69783E-02 -8.43201E-02  1.12098E-01  2.06051E-01  4.09905E-01  9.53950E-02  2.30967E-01  1.98108E-01  1.66758E-01
   4.26209E-01  2.20727E-01  3.30569E-01  3.14286E-01  3.74361E-02  1.89684E-02 -1.27354E-02  2.72583E-02 -2.42305E-02  3.71646E-02
   1.32437E-01  1.39026E-01  2.35105E-01 -3.47455E-01 -1.36557E-03  1.33591E-01 -7.53427E-03 -1.37295E-01 -1.91550E-01  5.34063E-02
  -4.86243E-01 -2.30111E-01 -2.74944E-01 -4.78435E-02 -3.57577E-01 -5.42017E-01 -1.37782E-02 -3.00490E-01 -5.32149E-01 -3.99377E-01
  -2.88714E-02 -5.27364E-01 -3.70193E-01 -2.26443E-02 -1.09087E-01  1.91863E-01  4.36081E-01  2.60420E-01 -5.17443E-02 -5.93137E-03
  -5.51773E-02  1.38455E-01  3.59056E-01  2.92423E-01  2.90658E-01  3.75083E-02  1.51532E-01  2.10288E-01  2.93230E-01  4.83702E-01
  -1.03068E-02  1.92441E-01  1.49618E-01  1.64059E-01 -1.03988E-01  1.38568E-01  3.03617E-01 -3.26793E-01  1.66913E-01 -1.24156E-01
   2.60577E-02  2.23693E-01  1.90402E-01  1.36428E-01  1.11995E-01  3.29743E-02 -2.47844E-01  1.65462E-02 -8.40638E-02 -1.12149E-01
  -1.26717E-01 -9.13011E-02 -4.13033E-02 -5.16535E-02 -4.79888E-01 -1.78582E-01 -2.28408E-01 -5.76139E-01 -3.81614E-01 -4.92434E-01
  -3.48544E-01 -2.90537E-01 -2.24717E-01 -4.09755E-01  2.43365E-01  7.76634E-02 -4.73064E-01  5.48968E-02 -1.30826E-01 -1.11704E-01
   2.40188E-01  1.34222E-01 -9.11050E-02 -3.07700E-01 -1.22469E-01  1.35048E-01 -2.66007E-01 -1.48593E-01  2.95523E-01  9.57067E-02
   4.09194E-02  2.80404E-01  1.20215E-01  4.27950E-02 -7.42878E-02  5.08909E-02  2.88348E-02  2.56748E-02  2.91013E-01  6.10847E-02
   3.86762E-01  5.28512E-01  3.05151E-01  6.63192E-02  6.85847E-02  2.21815E-01 -6.75545E-02 -2.11236E-01  2.76406E-01  7.30756E-02
  -7.75032E-02  3.70471E-01  1.78388E-01  2.33215E-02  4.41974E-02  3.21764E-01  3.28938E-03  1.66552E-02 -2.95657E-02 -2.23588E-03
   2.66650E-01 -1.37125E-01 -1.18333E-01  2.07121E-01  9.44472E-02 -2.04108E-01  3.31405E-01  1.25686E-01 -6.23838E-02 -1.78028E-01
  -2.97819E-02  2.35169E-01 -3.50117E-01 -2.31114E-01 -1.37763E-01  1.75642E-02  1.15452E-01  1.50619E-01  1.59147E-01 -2.16060E-01
   1.78730E-02  1.91044E-01 -2.75437E-01 -3.67951E-02 -1.18253E-02 -9.46110E-03  1.19154E-02 -3.12121E-01  7.39018E-02  1.94736E-01
  -1.82275E-01 -3.46417E-01  8.55141E-02  1.50247E-02 -4.08605E-02  2.82556E-01  1.86105E-01 -1.47473E-01  7.33431E-02  1.82598E-01
  -1.66317E-01  1.09443E-01  1.24179E-01  1.76574E-01  1.83058E-01 -1.39549E-01 -1.13111E-01  2.80630E-01  1.78490E-01 -7.58218E-02
  -1.19900E-01  2.16145E-01  2.32688E-01 -8.53892E-02  1.07285E-01 -2.51379E-01  1.22545E-01  2.50587E-01 -1.13230E-01  1.38087E-02
   3.87052E-02  1.10709E-01  7.50589E-02 -6.03521E-02 -1.58860E-01  1.62480E-01  7.82867E-02 -1.91863E-02 -1.29885E-01 -1.16937E-01
   2.11436E-01  1.31983E-01  2.64910E-01 -1.42794E-01
 NY points of the fit to the data follow
  -9.40406E-03 -2.13991E-02 -3.10955E-02 -3.66766E-02 -3.66897E-02 -2.81647E-02 -1.56909E-02  3.18357E-04  1.03681E-02  1.04433E-02
   1.98843E-02  5.32177E-02  1.12311E-01  1.91073E-01  2.83160E-01  3.60795E-01  3.86365E-01  3.50455E-01  2.90980E-01  2.46492E-01
   2.05592E-01  1.50995E-01  8.50782E-02  2.74404E-02 -1.59188E-02 -5.62046E-02 -9.83377E-02 -1.36559E-01 -1.67145E-01 -1.87773E-01
  -2.04270E-01 -2.16973E-01 -2.29202E-01 -2.46245E-01 -2.60667E-01 -2.63798E-01 -2.47622E-01 -2.09236E-01 -1.44895E-01 -6.12910E-02
   2.51004E-02  9.94654E-02  1.58850E-01  2.11526E-01  2.49700E-01  2.64397E-01  2.53488E-01  2.27813E-01  1.98452E-01  1.66231E-01
   1.29307E-01  8.61095E-02  3.87047E-02 -7.32597E-03 -5.16651E-02 -9.02889E-02 -1.14575E-01 -1.28213E-01 -1.30222E-01 -1.29415E-01
  -1.46713E-01 -1.75227E-01 -1.94219E-01 -1.93393E-01 -1.73745E-01 -1.32491E-01 -6.56649E-02  1.78624E-02  9.08344E-02  1.39324E-01
   1.73428E-01  1.89439E-01  1.82548E-01  1.61949E-01  1.31583E-01  8.64253E-02  2.54918E-02 -4.45260E-02 -1.14005E-01 -1.67066E-01
  -1.79194E-01 -1.41221E-01 -7.09192E-02  6.35742E-03  8.30861E-02  1.59069E-01  2.14676E-01  2.40070E-01  2.41209E-01  2.34484E-01
   2.22029E-01  1.99716E-01  1.68059E-01  1.24751E-01  6.91690E-02 -2.39752E-03 -7.93680E-02 -1.44412E-01 -1.76066E-01 -1.64407E-01
  -1.13250E-01 -3.85556E-02  3.67142E-02  1.04136E-01  1.57435E-01  2.02066E-01  2.38523E-01  2.65561E-01  2.83993E-01  2.95200E-01
   3.01902E-01  3.04954E-01  3.03039E-01  2.98398E-01  2.91818E-01  2.82919E-01  2.75474E-01  2.62895E-01  2.44154E-01  2.19156E-01
   1.86821E-01  1.44667E-01  9.53423E-02  4.34087E-02 -2.25261E-02 -1.15060E-01 -2.27536E-01 -3.44411E-01 -4.39125E-01 -4.84867E-01
  -4.91155E-01 -4.86907E-01 -4.97318E-01 -5.38696E-01 -6.10616E-01 -6.79384E-01 -6.88726E-01 -6.15820E-01 -5.06263E-01 -4.21220E-01
  -3.52643E-01 -2.77142E-01 -1.91110E-01 -1.17332E-01 -6.60998E-02 -2.30157E-02  2.02826E-02  5.92471E-02  8.97428E-02  1.12946E-01
   1.33152E-01  1.51950E-01  1.70346E-01  1.89234E-01  2.09526E-01  2.32468E-01  2.60534E-01  2.84009E-01  3.01215E-01  3.08656E-01
   3.08870E-01  3.29000E-01  3.75263E-01  4.21864E-01  4.36390E-01  4.01259E-01  2.96745E-01  1.19694E-01 -8.48322E-02 -2.37795E-01
  -3.03673E-01 -3.32887E-01 -3.65228E-01 -3.92237E-01 -3.90400E-01 -3.64326E-01 -3.40071E-01 -3.25768E-01 -3.10395E-01 -2.87624E-01
  -2.62397E-01 -2.42287E-01 -2.30093E-01 -2.22509E-01 -2.15447E-01 -2.07708E-01 -1.99755E-01 -1.92728E-01 -1.85787E-01 -1.77678E-01
  -1.68107E-01 -1.57478E-01 -1.46714E-01 -1.36071E-01 -1.25556E-01 -1.15371E-01 -1.05245E-01 -9.47561E-02 -8.37690E-02 -7.29389E-02
  -6.32593E-02 -5.52673E-02 -4.90670E-02 -4.45071E-02 -4.08891E-02 -3.69747E-02 -3.30782E-02 -3.16032E-02 -3.43741E-02 -3.98532E-02
  -4.43412E-02 -4.62671E-02 -4.69701E-02 -4.76459E-02 -4.66720E-02 -4.30502E-02 -3.69874E-02 -3.03793E-02 -2.58404E-02 -1.97522E-02
  -6.65623E-03  1.69071E-02  5.01231E-02  8.58729E-02  1.21006E-01  1.54798E-01  1.82667E-01  2.04234E-01  2.27692E-01  2.53110E-01
   2.62802E-01  2.39266E-01  1.89198E-01  1.39296E-01  1.01310E-01  6.65003E-02  2.93195E-02 -6.23878E-03 -3.24472E-02 -5.09089E-02
  -6.65803E-02 -7.98958E-02 -9.00580E-02 -9.60833E-02 -9.94139E-02 -1.00859E-01 -9.88692E-02 -9.58513E-02 -9.26731E-02 -9.01482E-02
  -9.35351E-02 -9.78698E-02 -9.92007E-02 -9.74097E-02 -9.07132E-02 -7.51592E-02 -4.77416E-02 -1.70773E-02  1.15047E-02  3.87129E-02
   7.06571E-02  9.74952E-02  1.12479E-01  1.23888E-01  1.37319E-01  1.54106E-01  1.64303E-01  1.69344E-01  1.72273E-01  1.70706E-01
   1.59401E-01  1.36640E-01  1.08319E-01  7.68394E-02  4.55646E-02  1.23986E-02 -2.14017E-02 -5.46180E-02 -8.94646E-02 -1.23530E-01
  -1.51016E-01 -1.62702E-01 -1.48856E-01 -1.05563E-01 -3.66910E-02  4.64285E-02  1.27978E-01  1.94517E-01  2.40272E-01  2.65097E-01
   2.75382E-01  2.77993E-01  2.75642E-01  2.71528E-01  2.66916E-01  2.63146E-01  2.59824E-01  2.54674E-01  2.48438E-01  2.41483E-01
   2.34659E-01  2.27679E-01  2.19976E-01  2.11402E-01  2.01790E-01  1.90121E-01  1.76717E-01  1.60596E-01  1.41772E-01  1.19579E-01
   9.29946E-02  6.17974E-02  2.45210E-02 -1.80271E-02 -6.50648E-02 -1.14060E-01 -1.62344E-01 -2.06977E-01 -2.44835E-01 -2.74119E-01
  -2.91667E-01 -2.95368E-01 -2.83496E-01 -2.55304E-01 -2.14322E-01 -1.64188E-01 -1.12901E-01 -6.74471E-02 -3.26530E-02 -1.20611E-02
  -4.91236E-03 -1.74843E-02 -5.28291E-02 -9.68482E-02 -1.43076E-01 -1.65959E-01 -1.58251E-01 -1.69660E-01 -2.41575E-01 -3.78852E-01
  -5.66679E-01 -7.79845E-01 -9.45612E-01 -9.77035E-01 -8.64446E-01 -7.09230E-01 -6.01257E-01 -5.12204E-01 -4.04087E-01 -2.83533E-01
  -1.90541E-01 -1.33371E-01 -8.56338E-02 -3.80034E-02 -4.66300E-04  2.16933E-02  3.21860E-02  3.75288E-02  3.92847E-02  3.82408E-02
   3.53629E-02  3.15260E-02  2.80130E-02  2.56175E-02  2.53779E-02  2.72266E-02  3.06731E-02  3.54132E-02  4.08472E-02  4.69179E-02
   5.31237E-02  5.91488E-02  6.48171E-02  6.99900E-02  7.47303E-02  7.91156E-02  8.32057E-02  8.69191E-02  9.01938E-02  9.30944E-02
   9.58654E-02  9.86401E-02  1.01300E-01  1.03662E-01  1.05614E-01  1.07256E-01  1.08816E-01  1.10513E-01  1.12327E-01  1.14049E-01
   1.15383E-01  1.16140E-01  1.16193E-01  1.15513E-01  1.14188E-01  1.12282E-01  1.09845E-01  1.06844E-01  1.03189E-01  9.88489E-02
   9.39241E-02  8.85914E-02  8.29056E-02  7.69692E-02  7.10190E-02  6.51736E-02  5.94236E-02  5.37432E-02  4.82669E-02  4.31881E-02
   3.85771E-02  3.43498E-02  3.04476E-02  2.68146E-02  2.34656E-02  2.04796E-02  1.78264E-02  1.55361E-02  1.37132E-02  1.23622E-02
   1.14995E-02  1.12013E-02  1.15989E-02  1.31271E-02  1.56107E-02  1.93391E-02  2.38324E-02  2.83111E-02  3.32743E-02  3.91843E-02
   4.68676E-02  5.69979E-02  6.96266E-02  8.29053E-02  9.38768E-02  1.00242E-01  1.02152E-01  1.01890E-01  1.01316E-01  1.02126E-01
   1.04443E-01  1.07802E-01  1.12125E-01  1.17478E-01  1.23874E-01  1.30759E-01  1.37351E-01  1.43221E-01  1.48113E-01  1.51890E-01
   1.54464E-01  1.55803E-01  1.55907E-01  1.54597E-01  1.51796E-01  1.47481E-01  1.41705E-01  1.34771E-01  1.27011E-01  1.18784E-01
   1.10280E-01  1.01562E-01  9.27516E-02  8.40587E-02  7.57897E-02  6.80780E-02  6.09396E-02  5.43336E-02  4.83393E-02  4.30245E-02
   3.84673E-02  3.46586E-02  3.16653E-02  2.96908E-02  2.87940E-02  2.88311E-02  2.95742E-02  3.09886E-02  3.31534E-02  3.60483E-02
   3.94642E-02  4.31162E-02  4.66981E-02  4.99563E-02  5.28825E-02  5.54632E-02  5.77525E-02  5.97585E-02  6.14601E-02  6.27891E-02
   6.35045E-02  6.35032E-02  6.28301E-02  6.16280E-02  5.99038E-02  5.76244E-02  5.49214E-02  5.20323E-02  4.90575E-02  4.59139E-02
   4.25981E-02  3.91222E-02  3.55430E-02  3.18788E-02  2.81170E-02  2.42987E-02  2.05127E-02  1.68740E-02  1.33118E-02  9.52843E-03
   5.31570E-03  6.04434E-04 -4.66641E-03 -1.06075E-02 -1.72270E-02 -2.44607E-02 -3.23678E-02 -4.12169E-02 -5.12957E-02 -6.26276E-02
  -7.49717E-02 -8.78632E-02 -1.00933E-01 -1.14002E-01 -1.26957E-01 -1.39493E-01 -1.51090E-01 -1.61430E-01 -1.70430E-01 -1.77869E-01
  -1.83348E-01 -1.86733E-01 -1.88281E-01 -1.88131E-01 -1.86195E-01 -1.82636E-01 -1.77942E-01 -1.72587E-01 -1.66675E-01 -1.60183E-01
  -1.53080E-01 -1.45378E-01 -1.37212E-01 -1.28651E-01 -1.19714E-01 -1.10501E-01 -1.01200E-01 -9.19214E-02 -8.27373E-02 -7.36958E-02
  -6.49317E-02 -5.65158E-02 -4.84126E-02 -4.08086E-02 -3.38273E-02 -2.72481E-02 -2.10152E-02 -1.53447E-02 -1.04105E-02 -6.07307E-03
  -2.03707E-03  1.67134E-03  4.87372E-03  7.54539E-03  9.86457E-03  1.19504E-02  1.37526E-02  1.51538E-02  1.63014E-02  1.75767E-02
   1.90704E-02  2.06049E-02  2.20186E-02  2.32812E-02  2.43657E-02  2.51995E-02  2.58102E-02  2.62794E-02  2.66329E-02  2.68058E-02
   2.68011E-02  2.66757E-02  2.64661E-02  2.63611E-02  2.64703E-02  2.66357E-02  2.67191E-02  2.66221E-02  2.63038E-02  2.56854E-02
   2.49433E-02  2.45042E-02  2.44609E-02  2.44099E-02  2.40313E-02  2.35932E-02  2.33521E-02  2.32274E-02  2.30972E-02  2.31737E-02
   2.36726E-02  2.43849E-02  2.50240E-02  2.55810E-02  2.63109E-02  2.72955E-02  2.83600E-02  2.93051E-02  3.01448E-02  3.08899E-02
   3.14504E-02  3.17476E-02  3.19639E-02  3.24638E-02  3.32736E-02  3.41517E-02  3.49797E-02  3.58259E-02  3.67974E-02  3.79929E-02
   3.94497E-02  4.10993E-02  4.27095E-02  4.39424E-02  4.47885E-02  4.54880E-02  4.62315E-02  4.71694E-02  4.81826E-02  4.90989E-02
   4.99003E-02  5.06707E-02  5.15256E-02  5.25145E-02  5.36326E-02  5.47752E-02  5.60101E-02  5.74683E-02  5.92623E-02  6.12880E-02
   6.32630E-02  6.52077E-02  6.73395E-02  6.98141E-02  7.25991E-02  7.56812E-02  7.91993E-02  8.31862E-02  8.73644E-02  9.14624E-02
   9.55822E-02  9.99525E-02  1.04703E-01  1.09879E-01
 NY background values follow
    -7.464E-03   -7.171E-03   -6.877E-03   -6.584E-03   -6.290E-03   -5.996E-03   -5.703E-03   -5.409E-03   -5.116E-03   -4.822E-03
    -4.529E-03   -4.236E-03   -3.943E-03   -3.649E-03   -3.356E-03   -3.064E-03   -2.771E-03   -2.478E-03   -2.186E-03   -1.894E-03
    -1.602E-03   -1.310E-03   -1.018E-03   -7.269E-04   -4.358E-04   -1.449E-04    1.458E-04    4.361E-04    7.262E-04    1.016E-03
     1.305E-03    1.595E-03    1.883E-03    2.172E-03    2.460E-03    2.748E-03    3.035E-03    3.322E-03    3.608E-03    3.895E-03
     4.180E-03    4.465E-03    4.750E-03    5.035E-03    5.318E-03    5.602E-03    5.884E-03    6.167E-03    6.449E-03    6.730E-03
     7.011E-03    7.291E-03    7.570E-03    7.849E-03    8.128E-03    8.405E-03    8.682E-03    8.959E-03    9.235E-03    9.510E-03
     9.784E-03    1.006E-02    1.033E-02    1.060E-02    1.088E-02    1.115E-02    1.142E-02    1.169E-02    1.196E-02    1.222E-02
