 
 $NMID
 ID=''
 FMTDAT='(2E13.5)'
 TRAMP=   1.00000E+0
 VOLUME=   1.00000E+0
 $END
  -2.07681E+4  -6.20457E+3
  -4.70319E+4  -3.00845E+4
  -5.17568E+4  -2.09287E+4
  -4.77376E+4  -1.88524E+4
  -4.89102E+4  -2.08636E+4
  -4.99616E+4  -1.84118E+4
  -4.79301E+4  -1.79699E+4
  -4.81748E+4  -1.91249E+4
  -4.87426E+4  -1.76469E+4
  -4.74630E+4  -1.73157E+4
  -4.74444E+4  -1.79218E+4
  -4.77530E+4  -1.67084E+4
  -4.68924E+4  -1.61792E+4
  -4.68269E+4  -1.67421E+4
  -4.69211E+4  -1.58349E+4
  -4.61309E+4  -1.52677E+4
  -4.61335E+4  -1.54551E+4
  -4.61397E+4  -1.46130E+4
  -4.55534E+4  -1.40308E+4
  -4.55096E+4  -1.40881E+4
  -4.54514E+4  -1.32669E+4
  -4.50295E+4  -1.25715E+4
  -4.50281E+4  -1.24716E+4
  -4.49908E+4  -1.20107E+4
  -4.44630E+4  -1.13629E+4
  -4.43900E+4  -1.11048E+4
  -4.43829E+4  -1.06650E+4
  -4.38343E+4  -1.03744E+4
  -4.37303E+4  -1.02946E+4
  -4.35566E+4  -9.78444E+3
  -4.31480E+4  -9.28972E+3
  -4.30735E+4  -9.07761E+3
  -4.28965E+4  -8.82473E+3
  -4.25260E+4  -8.43483E+3
  -4.22143E+4  -8.11419E+3
  -4.21521E+4  -7.62839E+3
  -4.17201E+4  -7.26003E+3
  -4.14472E+4  -6.90059E+3
  -4.13191E+4  -6.50191E+3
  -4.10698E+4  -6.16303E+3
  -4.08265E+4  -5.86558E+3
  -4.06116E+4  -5.58596E+3
  -4.02361E+4  -5.30593E+3
  -3.99191E+4  -4.96341E+3
  -3.97449E+4  -4.62836E+3
  -3.95413E+4  -4.34544E+3
  -3.93422E+4  -4.13203E+3
  -3.90349E+4  -3.73410E+3
  -3.89010E+4  -3.46861E+3
  -3.86690E+4  -3.20192E+3
  -3.83990E+4  -2.95971E+3
  -3.81753E+4  -2.69837E+3
  -3.78600E+4  -2.35669E+3
  -3.76491E+4  -2.01044E+3
  -3.75410E+4  -1.79512E+3
  -3.72569E+4  -1.68338E+3
  -3.70333E+4  -1.44117E+3
  -3.68052E+4  -1.26712E+3
  -3.64595E+4  -1.03271E+3
  -3.61823E+4  -8.55765E+2
  -3.59305E+4  -6.45164E+2
  -3.55741E+4  -3.97515E+2
  -3.54286E+4  -1.73862E+2
  -3.51496E+4  -1.67476E+1
  -3.48343E+4   1.47490E+2
  -3.45022E+4   4.35354E+2
  -3.41813E+4   6.19926E+2
  -3.40517E+4   8.61938E+2
  -3.37237E+4   1.11639E+3
  -3.34608E+4   1.25678E+3
  -3.31234E+4   1.43533E+3
  -3.28367E+4   1.66320E+3
  -3.26044E+4   1.83416E+3
  -3.23546E+4   2.14789E+3
  -3.20360E+4   2.27102E+3
  -3.17763E+4   2.50281E+3
  -3.15482E+4   2.69201E+3
  -3.12847E+4   2.90349E+3
  -3.10284E+4   3.08997E+3
  -3.07899E+4   3.33589E+3
  -3.06073E+4   3.52013E+3
  -3.03132E+4   3.64689E+3
  -3.00370E+4   3.81827E+3
  -2.98095E+4   3.90404E+3
  -2.95429E+4   4.11369E+3
  -2.94098E+4   4.21149E+3
  -2.90863E+4   4.28194E+3
  -2.88064E+4   4.47810E+3
  -2.85362E+4   4.64674E+3
  -2.83743E+4   4.76186E+3
  -2.80837E+4   4.96828E+3
  -2.78692E+4   5.10050E+3
  -2.76991E+4   5.24427E+3
  -2.74123E+4   5.32547E+3
  -2.72568E+4   5.48352E+3
  -2.69605E+4   5.65770E+3
  -2.66742E+4   5.81441E+3
  -2.64550E+4   5.99507E+3
  -2.62904E+4   6.05118E+3
  -2.60614E+4   6.21710E+3
  -2.57907E+4   6.35000E+3
  -2.55153E+4   6.47809E+3
  -2.53495E+4   6.62098E+3
  -2.51659E+4   6.71119E+3
  -2.49460E+4   6.83274E+3
  -2.47277E+4   6.95916E+3
  -2.45356E+4   7.05267E+3
  -2.42966E+4   7.14147E+3
  -2.41223E+4   7.27646E+3
  -2.38760E+4   7.37166E+3
  -2.36031E+4   7.50997E+3
  -2.34406E+4   7.65080E+3
  -2.32238E+4   7.80475E+3
  -2.29938E+4   7.82159E+3
  -2.28359E+4   7.93675E+3
  -2.25693E+4   7.99605E+3
  -2.23002E+4   8.12353E+3
  -2.21815E+4   8.17098E+3
  -2.19247E+4   8.30323E+3
  -2.16530E+4   8.27135E+3
  -2.14281E+4   8.46690E+3
  -2.12226E+4   8.48795E+3
  -2.10250E+4   8.55842E+3
  -2.07663E+4   8.69105E+3
  -2.05130E+4   8.73833E+3
  -2.03168E+4   8.83390E+3
  -2.00573E+4   8.82949E+3
  -1.98401E+4   8.94795E+3
  -1.96302E+4   9.01123E+3
  -1.93717E+4   9.07827E+3
  -1.92213E+4   9.13830E+3
  -1.89237E+4   9.23722E+3
  -1.87590E+4   9.23017E+3
  -1.85620E+4   9.28885E+3
  -1.83933E+4   9.38042E+3
  -1.81262E+4   9.45998E+3
  -1.79638E+4   9.50061E+3
  -1.76876E+4   9.51857E+3
  -1.74353E+4   9.60371E+3
  -1.72302E+4   9.56551E+3
  -1.70198E+4   9.63559E+3
  -1.68065E+4   9.61008E+3
  -1.65804E+4   9.78726E+3
  -1.64681E+4   9.76482E+3
  -1.61127E+4   9.74344E+3
  -1.59798E+4   9.82982E+3
  -1.56833E+4   9.90092E+3
  -1.55830E+4   9.85639E+3
  -1.53296E+4   9.93768E+3
  -1.51655E+4   9.99649E+3
  -1.49352E+4   9.98984E+3
  -1.47191E+4   9.99706E+3
  -1.45863E+4   9.93986E+3
  -1.43157E+4   1.00024E+4
  -1.41009E+4   9.99855E+3
  -1.39498E+4   1.00718E+4
  -1.37283E+4   1.00662E+4
  -1.34759E+4   1.00931E+4
  -1.33067E+4   1.01294E+4
  -1.31309E+4   1.01198E+4
  -1.29179E+4   1.01167E+4
  -1.27307E+4   1.01563E+4
  -1.25131E+4   1.01613E+4
  -1.23541E+4   1.01673E+4
  -1.20855E+4   1.01457E+4
  -1.19766E+4   1.01761E+4
  -1.17143E+4   1.00980E+4
  -1.15762E+4   1.01916E+4
  -1.13776E+4   1.01514E+4
  -1.11557E+4   1.02000E+4
  -1.09991E+4   1.01053E+4
  -1.07908E+4   1.01114E+4
  -1.05959E+4   1.01258E+4
  -1.04423E+4   1.00982E+4
  -1.02775E+4   1.00800E+4
  -1.00414E+4   1.00993E+4
  -9.85274E+3   1.00472E+4
  -9.78279E+3   1.00671E+4
  -9.57996E+3   9.98645E+3
  -9.34639E+3   1.00343E+4
  -9.23887E+3   1.00171E+4
  -9.09155E+3   9.95584E+3
  -8.85659E+3   9.94092E+3
  -8.72988E+3   9.91166E+3
  -8.56411E+3   9.87302E+3
  -8.38473E+3   9.84623E+3
  -8.26251E+3   9.81243E+3
  -8.15786E+3   9.80007E+3
  -7.97794E+3   9.67522E+3
  -7.72272E+3   9.57460E+3
  -7.63252E+3   9.62449E+3
  -7.50039E+3   9.60427E+3
  -7.31329E+3   9.55988E+3
  -7.12326E+3   9.52840E+3
  -6.95436E+3   9.48005E+3
  -6.78353E+3   9.41182E+3
  -6.67781E+3   9.37705E+3
  -6.54119E+3   9.28368E+3
  -6.35658E+3   9.30265E+3
  -6.27629E+3   9.27853E+3
  -6.10847E+3   9.22544E+3
  -6.05594E+3   9.10809E+3
  -5.83868E+3   9.05758E+3
  -5.65286E+3   9.08325E+3
  -5.57945E+3   8.97649E+3
  -5.39778E+3   8.95412E+3
  -5.27363E+3   8.90695E+3
  -5.18636E+3   8.82866E+3
  -4.99321E+3   8.74353E+3
  -4.89052E+3   8.76103E+3
  -4.79759E+3   8.65308E+3
  -4.67328E+3   8.67710E+3
  -4.49737E+3   8.61405E+3
  -4.32053E+3   8.52056E+3
  -4.25910E+3   8.48524E+3
  -4.12219E+3   8.41710E+3
  -4.06719E+3   8.40860E+3
  -3.85643E+3   8.33379E+3
  -3.77225E+3   8.29700E+3
  -3.61598E+3   8.15861E+3
  -3.58360E+3   8.12401E+3
  -3.38580E+3   8.02722E+3
  -3.34759E+3   8.10887E+3
  -3.24590E+3   7.97434E+3
  -3.11361E+3   7.90881E+3
  -3.00712E+3   7.84826E+3
  -2.89155E+3   7.83551E+3
  -2.80210E+3   7.75837E+3
  -2.73127E+3   7.71265E+3
  -2.63033E+3   7.60046E+3
  -2.57477E+3   7.59818E+3
  -2.41538E+3   7.51153E+3
  -2.41017E+3   7.47384E+3
  -2.25723E+3   7.39659E+3
  -2.16406E+3   7.33807E+3
  -2.06268E+3   7.29148E+3
  -2.04117E+3   7.25363E+3
  -1.92221E+3   7.24180E+3
  -1.79053E+3   7.12960E+3
  -1.68651E+3   7.06035E+3
  -1.64244E+3   6.95577E+3
  -1.58877E+3   6.89269E+3
  -1.45434E+3   6.83207E+3
  -1.45473E+3   6.82407E+3
  -1.32126E+3   6.73697E+3
  -1.21594E+3   6.62467E+3
  -1.23913E+3   6.59238E+3
  -1.06798E+3   6.50898E+3
  -1.02972E+3   6.53264E+3
  -9.54768E+2   6.38864E+3
  -9.21633E+2   6.42899E+3
  -8.87899E+2   6.27085E+3
  -7.82993E+2   6.25104E+3
  -6.44442E+2   6.16972E+3
  -6.75137E+2   6.13631E+3
  -6.06455E+2   6.03745E+3
  -4.48893E+2   5.93192E+3
  -4.41390E+2   5.85778E+3
  -3.82491E+2   5.81055E+3
  -3.42314E+2   5.80121E+3
  -2.13939E+2   5.67304E+3
  -1.56997E+2   5.63277E+3
  -1.42374E+2   5.57134E+3
  -3.87556E+1   5.54079E+3
  -9.68067E+0   5.41110E+3
   1.28478E+1   5.38395E+3
   1.12921E+2   5.33495E+3
   1.97560E+2   5.31362E+3
   1.73278E+2   5.19903E+3
   2.92556E+2   5.17245E+3
   3.28983E+2   5.07716E+3
   3.25344E+2   5.00042E+3
   4.41356E+2   4.96238E+3
   4.88395E+2   4.94102E+3
   5.21704E+2   4.84773E+3
   5.43367E+2   4.79013E+3
   5.74156E+2   4.70551E+3
   7.12194E+2   4.68940E+3
   6.82017E+2   4.51532E+3
   7.46881E+2   4.48804E+3
   7.67546E+2   4.46269E+3
   8.67083E+2   4.40255E+3
   8.21976E+2   4.40540E+3
   8.89268E+2   4.32560E+3
   9.69827E+2   4.26267E+3
   9.93739E+2   4.20047E+3
   1.00975E+3   4.13780E+3
   1.05580E+3   4.06189E+3
   1.01303E+3   3.98375E+3
   1.05521E+3   3.92769E+3
   1.05895E+3   3.89388E+3
   1.09616E+3   3.87769E+3
   1.19931E+3   3.71220E+3
   1.22509E+3   3.69195E+3
   1.18611E+3   3.68246E+3
   1.25897E+3   3.60788E+3
   1.23577E+3   3.56897E+3
   1.32500E+3   3.48252E+3
   1.23840E+3   3.45536E+3
   1.31310E+3   3.41285E+3
   1.41036E+3   3.33979E+3
   1.38253E+3   3.27151E+3
   1.43447E+3   3.24495E+3
   1.40163E+3   3.17564E+3
   1.42799E+3   3.10893E+3
   1.41140E+3   3.02363E+3
   1.44999E+3   2.97733E+3
   1.52115E+3   2.96076E+3
   1.45798E+3   2.91358E+3
   1.51104E+3   2.83453E+3
   1.47802E+3   2.80862E+3
   1.54806E+3   2.77401E+3
   1.59747E+3   2.64374E+3
   1.58325E+3   2.64322E+3
   1.55161E+3   2.61944E+3
   1.60129E+3   2.53307E+3
   1.63176E+3   2.49873E+3
   1.67411E+3   2.42068E+3
   1.66096E+3   2.41442E+3
   1.65536E+3   2.36985E+3
   1.62747E+3   2.28150E+3
   1.64151E+3   2.26758E+3
   1.67988E+3   2.18262E+3
   1.69525E+3   2.09884E+3
   1.68050E+3   2.08186E+3
   1.68441E+3   2.03107E+3
   1.63945E+3   2.05269E+3
   1.69867E+3   2.00206E+3
   1.73312E+3   1.95295E+3
   1.81005E+3   1.87243E+3
   1.70694E+3   1.82987E+3
   1.72575E+3   1.77162E+3
   1.70604E+3   1.76230E+3
   1.66265E+3   1.68605E+3
   1.70751E+3   1.63121E+3
   1.70320E+3   1.62041E+3
   1.70874E+3   1.60412E+3
   1.81040E+3   1.50354E+3
   1.67924E+3   1.48336E+3
   1.73980E+3   1.46196E+3
   1.75740E+3   1.43149E+3
   1.63907E+3   1.35107E+3
   1.76479E+3   1.27896E+3
   1.73912E+3   1.34060E+3
   1.79963E+3   1.26538E+3
   1.75092E+3   1.22752E+3
   1.74851E+3   1.21038E+3
   1.67026E+3   1.15357E+3
   1.71437E+3   1.10575E+3
   1.77333E+3   1.10838E+3
   1.72475E+3   1.02783E+3
   1.73978E+3   1.00931E+3
   1.69370E+3   9.78653E+2
   1.71878E+3   9.69105E+2
   1.73787E+3   8.36351E+2
   1.72134E+3   9.14315E+2
   1.66726E+3   7.64152E+2
   1.70201E+3   7.44881E+2
   1.68311E+3   7.72541E+2
   1.72857E+3   7.79426E+2
   1.70424E+3   7.36206E+2
   1.73021E+3   6.46336E+2
   1.70061E+3   6.62396E+2
   1.74875E+3   5.12845E+2
   1.65786E+3   5.83071E+2
   1.68773E+3   6.22390E+2
   1.67220E+3   6.20877E+2
