 
 $NMID
 ID=''
 FMTDAT='(2E13.5)'
 TRAMP=   1.00000E+0
 VOLUME=   1.00000E+0
 $END
  -2.28967E+4  -7.31887E+2
  -5.64636E+4  -1.82316E+4
  -5.90649E+4  -7.67338E+3
  -5.46915E+4  -6.23184E+3
  -5.65126E+4  -7.56383E+3
  -5.66972E+4  -4.46214E+3
  -5.43374E+4  -4.39501E+3
  -5.46719E+4  -5.49505E+3
  -5.46911E+4  -3.90145E+3
  -5.30816E+4  -4.00591E+3
  -5.32487E+4  -4.83091E+3
  -5.32538E+4  -3.65313E+3
  -5.23469E+4  -3.42231E+3
  -5.26585E+4  -4.19475E+3
  -5.27310E+4  -3.39978E+3
  -5.19719E+4  -3.23088E+3
  -5.21613E+4  -3.43660E+3
  -5.22285E+4  -2.66940E+3
  -5.15405E+4  -2.12610E+3
  -5.16955E+4  -2.22891E+3
  -5.15480E+4  -1.40816E+3
  -5.09406E+4  -7.83250E+2
  -5.10506E+4  -6.98536E+2
  -5.09413E+4  -1.21796E+2
  -5.02604E+4   3.49053E+2
  -5.01355E+4   5.54217E+2
  -4.99367E+4   1.07184E+3
  -4.93734E+4   1.26813E+3
  -4.91891E+4   1.30867E+3
  -4.88386E+4   1.82613E+3
  -4.84386E+4   2.16559E+3
  -4.82358E+4   2.38699E+3
  -4.81094E+4   2.58943E+3
  -4.75009E+4   2.86671E+3
  -4.72541E+4   3.09826E+3
  -4.69380E+4   3.47125E+3
  -4.64253E+4   3.74143E+3
  -4.60822E+4   3.89455E+3
  -4.58085E+4   4.21125E+3
  -4.54621E+4   4.50319E+3
  -4.51452E+4   4.59407E+3
  -4.49227E+4   4.70813E+3
  -4.45568E+4   4.82605E+3
  -4.42612E+4   4.99560E+3
  -4.39573E+4   5.31712E+3
  -4.36283E+4   5.42358E+3
  -4.33631E+4   5.64898E+3
  -4.31794E+4   5.89270E+3
  -4.29432E+4   6.20969E+3
  -4.26253E+4   6.39564E+3
  -4.23803E+4   6.59079E+3
  -4.20308E+4   6.75977E+3
  -4.16971E+4   6.99738E+3
  -4.14772E+4   7.37538E+3
  -4.13279E+4   7.53319E+3
  -4.10406E+4   7.74416E+3
  -4.07786E+4   7.88199E+3
  -4.06202E+4   8.02920E+3
  -4.03436E+4   8.17699E+3
  -4.00399E+4   8.28574E+3
  -3.97943E+4   8.50352E+3
  -3.94794E+4   8.78304E+3
  -3.92795E+4   9.03436E+3
  -3.90938E+4   9.13491E+3
  -3.88265E+4   9.22102E+3
  -3.85104E+4   9.51867E+3
  -3.82803E+4   9.68572E+3
  -3.81391E+4   9.86601E+3
  -3.78334E+4   9.91255E+3
  -3.74434E+4   1.01015E+4
  -3.73138E+4   1.02586E+4
  -3.70768E+4   1.04338E+4
  -3.68427E+4   1.05773E+4
  -3.66407E+4   1.06277E+4
  -3.62965E+4   1.08640E+4
  -3.60342E+4   1.10926E+4
  -3.57546E+4   1.11799E+4
  -3.55533E+4   1.12730E+4
  -3.53696E+4   1.14101E+4
  -3.50793E+4   1.16276E+4
  -3.48970E+4   1.16947E+4
  -3.46047E+4   1.17617E+4
  -3.44637E+4   1.19078E+4
  -3.42521E+4   1.19730E+4
  -3.40231E+4   1.20898E+4
  -3.38687E+4   1.21173E+4
  -3.36585E+4   1.21287E+4
  -3.33070E+4   1.22003E+4
  -3.31356E+4   1.23486E+4
  -3.30348E+4   1.24723E+4
  -3.28325E+4   1.25422E+4
  -3.24785E+4   1.26297E+4
  -3.23213E+4   1.27838E+4
  -3.22373E+4   1.29156E+4
  -3.20226E+4   1.30016E+4
  -3.16975E+4   1.30533E+4
  -3.14604E+4   1.32061E+4
  -3.13575E+4   1.33685E+4
  -3.11197E+4   1.33964E+4
  -3.09153E+4   1.34042E+4
  -3.07965E+4   1.34888E+4
  -3.04815E+4   1.36295E+4
  -3.03340E+4   1.37477E+4
  -3.01604E+4   1.38484E+4
  -3.00130E+4   1.39013E+4
  -2.98282E+4   1.40370E+4
  -2.96545E+4   1.40968E+4
  -2.93254E+4   1.42067E+4
  -2.92583E+4   1.43347E+4
  -2.89951E+4   1.44178E+4
  -2.87347E+4   1.44697E+4
  -2.86207E+4   1.46693E+4
  -2.83947E+4   1.47825E+4
  -2.82886E+4   1.48899E+4
  -2.81017E+4   1.49010E+4
  -2.79190E+4   1.50139E+4
  -2.77215E+4   1.51118E+4
  -2.75376E+4   1.51546E+4
  -2.73600E+4   1.52758E+4
  -2.71184E+4   1.53597E+4
  -2.69815E+4   1.54830E+4
  -2.67999E+4   1.55645E+4
  -2.66324E+4   1.55434E+4
  -2.63704E+4   1.56563E+4
  -2.61745E+4   1.57389E+4
  -2.60562E+4   1.58534E+4
  -2.58173E+4   1.58637E+4
  -2.55753E+4   1.59208E+4
  -2.53642E+4   1.60497E+4
  -2.51777E+4   1.60655E+4
  -2.50239E+4   1.61124E+4
  -2.48028E+4   1.62278E+4
  -2.45218E+4   1.62796E+4
  -2.42694E+4   1.64637E+4
  -2.41326E+4   1.64675E+4
  -2.38547E+4   1.65352E+4
  -2.36513E+4   1.65857E+4
  -2.34682E+4   1.65737E+4
  -2.32225E+4   1.66689E+4
  -2.29640E+4   1.68137E+4
  -2.28182E+4   1.67987E+4
  -2.25467E+4   1.68795E+4
  -2.23590E+4   1.70166E+4
  -2.22144E+4   1.70124E+4
  -2.19373E+4   1.71393E+4
  -2.17208E+4   1.71614E+4
  -2.14513E+4   1.73014E+4
  -2.12663E+4   1.72893E+4
  -2.10655E+4   1.74179E+4
  -2.08123E+4   1.74448E+4
  -2.06078E+4   1.74929E+4
  -2.03480E+4   1.75483E+4
  -2.01010E+4   1.75949E+4
  -1.98790E+4   1.76263E+4
  -1.96441E+4   1.77602E+4
  -1.94877E+4   1.77848E+4
  -1.92006E+4   1.78168E+4
  -1.90078E+4   1.79567E+4
  -1.87924E+4   1.79668E+4
  -1.85881E+4   1.80339E+4
  -1.83430E+4   1.81251E+4
  -1.80633E+4   1.81010E+4
  -1.78543E+4   1.81254E+4
  -1.76294E+4   1.82379E+4
  -1.74010E+4   1.82824E+4
  -1.71923E+4   1.83134E+4
  -1.69642E+4   1.83204E+4
  -1.67079E+4   1.83932E+4
  -1.64457E+4   1.84408E+4
  -1.61886E+4   1.84780E+4
  -1.60159E+4   1.85002E+4
  -1.58388E+4   1.85046E+4
  -1.56733E+4   1.85454E+4
  -1.52881E+4   1.86045E+4
  -1.50463E+4   1.85649E+4
  -1.48225E+4   1.85843E+4
  -1.45828E+4   1.85807E+4
  -1.42918E+4   1.86531E+4
  -1.40878E+4   1.86716E+4
  -1.39186E+4   1.87031E+4
  -1.37078E+4   1.86810E+4
  -1.34196E+4   1.86462E+4
  -1.31862E+4   1.86978E+4
  -1.29359E+4   1.87197E+4
  -1.27237E+4   1.86594E+4
  -1.25449E+4   1.87375E+4
  -1.23308E+4   1.86812E+4
  -1.20854E+4   1.86555E+4
  -1.18226E+4   1.86022E+4
  -1.15738E+4   1.86214E+4
  -1.13478E+4   1.85995E+4
  -1.11222E+4   1.86250E+4
  -1.08674E+4   1.85491E+4
  -1.06648E+4   1.85459E+4
  -1.04443E+4   1.84902E+4
  -1.02681E+4   1.84403E+4
  -1.00590E+4   1.84560E+4
  -9.83193E+3   1.83398E+4
  -9.60368E+3   1.83372E+4
  -9.36981E+3   1.83858E+4
  -9.24041E+3   1.84123E+4
  -9.02970E+3   1.82322E+4
  -8.81832E+3   1.81612E+4
  -8.64234E+3   1.81357E+4
  -8.31955E+3   1.81342E+4
  -8.15671E+3   1.80063E+4
  -8.01897E+3   1.80348E+4
  -7.88644E+3   1.79678E+4
  -7.64934E+3   1.79191E+4
  -7.45694E+3   1.79140E+4
  -7.30487E+3   1.78156E+4
  -7.12395E+3   1.77018E+4
  -6.92637E+3   1.75998E+4
  -6.70389E+3   1.76186E+4
  -6.53932E+3   1.75100E+4
  -6.48483E+3   1.74520E+4
  -6.22378E+3   1.74177E+4
  -6.01835E+3   1.73708E+4
  -5.85904E+3   1.72998E+4
  -5.68601E+3   1.72025E+4
  -5.57839E+3   1.71450E+4
  -5.37516E+3   1.70927E+4
  -5.20824E+3   1.69588E+4
  -5.10075E+3   1.68634E+4
  -4.93814E+3   1.67244E+4
  -4.79472E+3   1.66221E+4
  -4.56639E+3   1.66071E+4
  -4.44946E+3   1.65075E+4
  -4.42447E+3   1.64865E+4
  -4.26147E+3   1.63603E+4
  -4.06280E+3   1.62784E+4
  -3.99304E+3   1.61873E+4
  -3.86339E+3   1.61027E+4
  -3.73429E+3   1.59454E+4
  -3.53718E+3   1.58416E+4
  -3.37488E+3   1.58166E+4
  -3.32045E+3   1.56814E+4
  -3.17428E+3   1.56167E+4
  -3.11628E+3   1.55161E+4
  -2.92611E+3   1.54237E+4
  -2.82674E+3   1.53216E+4
  -2.64761E+3   1.52124E+4
  -2.61722E+3   1.51479E+4
  -2.50890E+3   1.49569E+4
  -2.36245E+3   1.49707E+4
  -2.21853E+3   1.48208E+4
  -2.23735E+3   1.47024E+4
  -2.08866E+3   1.45360E+4
  -1.98699E+3   1.44130E+4
  -1.84236E+3   1.43201E+4
  -1.73962E+3   1.43551E+4
  -1.60224E+3   1.41804E+4
  -1.57272E+3   1.40892E+4
  -1.53015E+3   1.39588E+4
  -1.39200E+3   1.38656E+4
  -1.31900E+3   1.37122E+4
  -1.19770E+3   1.36047E+4
  -1.07023E+3   1.35345E+4
  -1.01318E+3   1.35195E+4
  -9.56946E+2   1.33042E+4
  -8.95163E+2   1.32207E+4
  -8.12680E+2   1.30689E+4
  -7.02603E+2   1.29468E+4
  -6.64470E+2   1.28170E+4
  -5.45256E+2   1.28147E+4
  -5.30767E+2   1.26984E+4
  -4.35014E+2   1.25207E+4
  -3.80398E+2   1.24496E+4
  -3.39450E+2   1.22896E+4
  -2.52612E+2   1.22904E+4
  -1.57498E+2   1.21414E+4
  -5.14646E+1   1.20574E+4
  -2.03733E+1   1.19522E+4
   6.08985E+1   1.19089E+4
   7.30905E+0   1.18191E+4
   1.73023E+2   1.17291E+4
   1.98718E+2   1.15498E+4
   2.60589E+2   1.14283E+4
   2.88926E+2   1.13531E+4
   3.87090E+2   1.12946E+4
   4.12754E+2   1.12234E+4
   4.40310E+2   1.10767E+4
   4.58697E+2   1.10224E+4
   5.49273E+2   1.09239E+4
   5.78274E+2   1.08073E+4
   6.36287E+2   1.07407E+4
   7.11534E+2   1.06530E+4
   7.24909E+2   1.05243E+4
   7.12944E+2   1.04560E+4
   7.49480E+2   1.03550E+4
   8.37902E+2   1.02685E+4
   8.57118E+2   1.01619E+4
   9.03299E+2   1.01446E+4
   9.43292E+2   1.00415E+4
   9.45542E+2   9.92050E+3
   9.85894E+2   9.91679E+3
   1.01519E+3   9.86330E+3
   1.01459E+3   9.66761E+3
   1.00306E+3   9.65370E+3
   1.13683E+3   9.55197E+3
   1.10105E+3   9.56288E+3
   1.09131E+3   9.43020E+3
   1.11973E+3   9.30325E+3
   1.22110E+3   9.25613E+3
   1.20929E+3   9.20204E+3
   1.21299E+3   9.06024E+3
   1.26168E+3   8.97583E+3
   1.30574E+3   8.94792E+3
   1.23090E+3   8.82119E+3
   1.30020E+3   8.78533E+3
   1.35410E+3   8.65792E+3
   1.34286E+3   8.63541E+3
   1.31949E+3   8.54346E+3
   1.39723E+3   8.45283E+3
   1.39859E+3   8.41786E+3
   1.35150E+3   8.33140E+3
   1.44337E+3   8.24616E+3
   1.42806E+3   8.20260E+3
   1.41670E+3   8.10072E+3
   1.49109E+3   8.06857E+3
   1.50701E+3   7.89572E+3
   1.51670E+3   7.89090E+3
   1.46910E+3   7.81502E+3
   1.57670E+3   7.76149E+3
   1.51512E+3   7.66410E+3
   1.54585E+3   7.59571E+3
   1.55527E+3   7.51655E+3
   1.53460E+3   7.49337E+3
   1.57434E+3   7.41689E+3
   1.63013E+3   7.31795E+3
   1.61949E+3   7.32559E+3
   1.65657E+3   7.24970E+3
   1.66722E+3   7.17348E+3
   1.64677E+3   7.11394E+3
   1.65461E+3   6.97001E+3
   1.60573E+3   6.84720E+3
   1.72774E+3   6.85934E+3
   1.64270E+3   6.78960E+3
   1.72598E+3   6.83453E+3
   1.73577E+3   6.70549E+3
   1.68743E+3   6.63368E+3
   1.74338E+3   6.58990E+3
   1.75861E+3   6.48307E+3
   1.75845E+3   6.46153E+3
   1.79338E+3   6.45549E+3
   1.77270E+3   6.34043E+3
   1.73601E+3   6.25574E+3
   1.79675E+3   6.24724E+3
   1.77950E+3   6.14758E+3
   1.75192E+3   6.13752E+3
   1.78561E+3   6.01667E+3
   1.81357E+3   5.95983E+3
   1.82930E+3   5.91600E+3
   1.83377E+3   5.98131E+3
   1.87968E+3   5.85497E+3
   1.94798E+3   5.85195E+3
   1.87300E+3   5.71926E+3
   1.85844E+3   5.71295E+3
   1.86602E+3   5.63061E+3
   1.89502E+3   5.57110E+3
   1.94272E+3   5.48490E+3
   1.94299E+3   5.48352E+3
   1.93561E+3   5.43219E+3
   1.94571E+3   5.36569E+3
   1.88188E+3   5.26106E+3
   1.97363E+3   5.16111E+3
   1.94198E+3   5.22553E+3
