 
 $NMID
 ID=''
 FMTDAT='(2E13.5)'
 TRAMP=   1.00000E+0
 VOLUME=   1.00000E+0
 $END
   3.75122E+2  -3.58126E+2
   1.26551E+3   3.09687E+3
   3.80246E+3  -7.21996E+3
   1.11833E+3  -2.30365E+3
  -1.01798E+3  -3.20761E+3
  -8.25727E+2  -3.47254E+3
  -3.56805E+3   3.99614E+2
  -5.07008E+3   7.41690E+2
  -3.70047E+3   9.32279E+1
   2.80840E+3  -1.54202E+3
   3.00804E+3  -3.72227E+3
   5.27999E+3  -7.65711E+2
   2.56084E+3  -1.29277E+3
  -3.68434E+3   2.07790E+2
  -2.91846E+3  -3.97185E+2
  -3.11082E+2  -1.32105E+3
  -5.42185E+2  -1.89778E+3
   3.53812E+3  -1.45022E+3
   2.46641E+3   1.23090E+3
   1.10636E+3  -9.32195E+1
   5.49570E+3  -4.86922E+3
   4.93627E+3  -8.92260E+1
  -2.07282E+3   5.08020E+2
  -3.54756E+3  -2.57135E+3
   1.79596E+3  -3.16331E+3
   1.96678E+3   4.78981E+3
  -1.40109E+3   3.35471E+3
  -2.42515E+3  -2.74472E+3
  -1.72376E+3  -5.37976E+3
   5.38056E+3  -3.23707E+3
   6.11890E+3   3.30855E+3
  -5.71965E+2   6.94748E+3
  -4.74151E+3   2.00721E+3
  -2.35398E+3   1.31500E+3
  -1.79122E+3   2.23709E+3
  -2.69544E+3   3.43678E+2
   4.82283E+2  -9.52053E+2
   3.22625E+3   2.82095E+3
   3.39329E+2   2.78779E+3
  -6.10394E+2   2.98959E+3
  -3.13874E+3   3.95991E+3
  -5.37491E+3   1.86133E+3
  -3.00870E+3  -3.30876E+3
   2.87457E+3  -3.22233E+3
   3.21004E+3  -1.42074E+2
   4.03437E+3   3.32655E+3
   5.66740E+3   4.58023E+3
   2.66037E+3   3.29948E+3
   1.28191E+3   4.04332E+3
  -5.18308E+2   3.27126E+3
  -2.30436E+3   8.90446E+2
  -2.62687E+3  -3.04096E+3
   3.19397E+3  -3.95760E+3
   2.95546E+3   3.59449E+3
  -1.89572E+3   1.93067E+3
  -2.57453E+3  -7.45722E+1
  -3.64565E+3   8.99629E+2
  -4.65412E+3  -1.58457E+3
  -4.38976E+3  -5.51620E+3
  -8.08893E+2  -5.22400E+3
   1.80268E+3  -5.02833E+3
   4.94695E+3  -1.23839E+3
   8.16013E+2   2.37984E+3
  -8.64377E+2   1.62866E+3
  -5.18069E+2  -1.08658E+3
  -3.44794E+2  -9.54656E+2
  -1.41280E+3   6.23726E+2
  -3.27686E+3   3.48213E+2
  -2.84560E+3  -1.74462E+3
  -2.56878E+3  -8.49305E+2
  -4.51522E+2   7.99890E+2
  -1.57132E+3  -9.70654E+2
  -1.54099E+3  -2.08075E+3
  -8.89048E+2  -2.49422E+3
   1.02679E+3  -1.45839E+3
   1.24694E+3  -1.39347E+3
  -2.01442E+3  -1.40159E+3
  -1.03513E+3  -4.58935E+3
   3.30693E+3  -1.78974E+3
   1.11213E+3   1.32965E+3
   5.84316E+2   4.51414E+2
   4.39581E+1   2.17663E+2
   2.28639E+2   4.53799E+1
  -5.70326E+2   3.78979E+3
  -1.59330E+3   1.44782E+3
  -2.34869E+3   2.19098E+2
  -1.11046E+3  -3.59812E+3
   2.26191E+3  -2.71288E+3
   2.99086E+3  -8.73006E+2
   2.36495E+2   1.07200E+2
  -1.21065E+2  -3.33867E+1
   2.10992E+3   8.24134E+2
   9.25934E+2   2.70724E+3
  -2.32743E+3   2.44541E+3
  -2.17861E+3   3.03068E+2
   6.05664E+2  -2.53736E+3
   3.21396E+3  -1.72538E+3
  -4.96819E+2   1.10445E+3
  -1.91588E+2   3.57014E+3
  -2.10930E+3  -2.86425E+2
   3.98545E+2  -4.94167E+3
   4.34807E+3  -9.61629E+2
   3.60904E+3   2.08290E+3
  -4.31370E+2   3.48646E+3
  -2.12814E+3   6.33739E+2
   2.79350E+1   3.70816E+3
  -6.47121E+2   1.84162E+3
  -1.99450E+3   2.46121E+0
   1.59824E+2  -2.28446E+3
   7.76094E+2  -3.48931E+3
   4.54652E+3  -1.79279E+3
   2.02896E+3   1.17887E+3
   1.47936E+1   2.09074E+3
   8.65121E+1   2.31043E+3
   2.23263E+1   1.28978E+3
  -4.23583E+3   5.51679E+2
  -2.39415E+3   1.18430E+2
   3.55231E+2  -6.05405E+2
   3.04033E+3  -2.41670E+3
   1.95046E+3   7.23047E+2
   1.72369E+3   2.16421E+3
  -2.66258E+3   1.52901E+3
  -2.07548E+3   2.95385E+2
  -1.19159E+3  -9.63992E+1
   2.23779E+3   1.53298E+3
   1.39170E+3  -5.51420E+2
   8.74632E+2  -1.92426E+3
   2.05321E+3   1.62379E+3
   1.19217E+3   1.80183E+3
   6.11671E+2   1.02531E+3
   7.47170E+1  -2.41197E+3
   2.04134E+3  -1.55984E+3
   7.50094E+2  -1.25412E+3
   1.06389E+3   2.04120E+3
  -3.05994E+3   2.94280E+3
  -3.13109E+3   6.44627E+2
  -4.56870E+2  -1.82589E+3
  -1.29949E+3  -4.12248E+2
   6.34309E+2  -1.27604E+3
  -1.99129E+2   6.43474E+2
  -5.35470E+1   1.28389E+2
   8.77390E+2   3.45317E+1
   3.62261E+2   3.12767E+2
   1.41489E+3   2.11053E+3
  -2.20365E+3  -8.89721E+2
  -2.30847E+3  -7.86813E+2
   6.52085E+2   1.77938E+3
  -7.35569E+2  -1.28176E+3
   2.11868E+2   1.10381E+3
  -2.23317E+3   2.32466E+2
  -4.95345E+2  -9.79153E+2
  -3.97314E+2  -1.03292E+3
   4.95146E+2  -2.69063E+3
  -2.70746E+2  -2.18283E+3
   2.23249E+3  -1.12023E+3
   1.34346E+3  -1.57092E+2
   3.08555E+2   9.71748E+2
  -7.61404E+1   9.64567E+2
   1.25059E+3   4.20209E+2
  -1.17366E+3  -1.10682E+3
  -8.61558E+2   8.68662E+2
  -1.98989E+3  -2.77084E+3
  -1.10268E+3  -3.68315E+3
   8.46537E+2  -2.79560E+3
  -6.31926E+2   1.71922E+2
  -2.38594E+3   1.93571E+3
   3.04937E+2  -1.75411E+3
   2.03151E+3  -2.06829E+3
   2.19780E+3   1.03863E+3
   1.12271E+3   1.84551E+3
   9.60664E+2  -4.80372E+2
  -1.36119E+3   1.09572E+3
   4.78580E+2  -1.77911E+3
   5.64153E+2   4.14826E+2
   6.21445E+1  -1.31107E+3
   7.77098E+2   1.37009E+3
   1.10376E+3   2.16148E+1
   1.04084E+3   2.82730E+3
  -1.12856E+3   2.24376E+3
  -4.92999E+3   2.86651E+3
  -2.00594E+3  -3.85515E+2
   1.35018E+3  -1.95491E+3
   9.68874E+2  -1.72088E+3
   5.66499E+2  -2.90421E+3
  -9.79247E+2  -1.27016E+3
   8.96306E+2   1.37982E+3
  -7.00852E+2   1.40241E+3
  -1.28083E+3   4.61611E+2
  -1.14779E+3  -1.53556E+3
   7.94894E+2  -1.55705E+3
   1.54483E+3   1.23507E+3
  -7.81594E+2   8.02698E+2
   2.18816E+3   4.32138E+2
   4.14467E+2   1.52549E+3
   3.58406E+2  -7.45992E+1
  -1.25916E+3   6.07518E+2
   2.39046E+3   6.67386E+1
  -1.89560E+3  -2.59917E+2
   8.09698E+2   2.03285E+2
  -1.55953E+2   3.07566E+3
  -3.31774E+2   1.71879E+3
  -2.76738E+3   3.21620E+1
  -2.68063E+3  -2.50410E+3
   1.06777E+2  -2.81387E+3
   1.85335E+3   2.90960E+1
   8.07534E+2   1.33271E+3
   1.55728E+3  -6.29158E+2
  -7.55879E+2   4.90300E+2
   1.56659E+3   9.65423E+2
  -1.06499E+3   1.19201E+3
  -1.62857E+3  -7.19020E+1
   6.29846E+2   1.17196E+3
   1.63634E+3   2.55169E+2
   2.92288E+3   1.10423E+3
   9.89551E+2   1.96379E+3
  -1.29214E+3  -1.75173E+2
   9.14716E+2   1.31759E+3
  -1.17264E+3  -3.94212E+1
   1.16043E+3   4.39648E+2
   6.56481E+1  -1.28486E+3
   3.31780E+2  -8.41335E+2
   8.26656E+2   1.03272E+3
  -2.22095E+3   7.89723E+2
  -7.03145E+2  -5.41350E+2
   1.25660E+3  -3.40899E+2
   2.86405E+3   1.02415E+2
   2.30819E+3   7.42494E+2
   1.30645E+3  -1.07086E+3
  -1.73557E+3   2.06590E+3
  -1.88691E+2  -2.36720E+3
   5.32285E+2  -2.35677E+2
  -5.15780E+2   1.49104E+3
  -1.66017E+3   7.06311E+2
  -1.22948E+2   2.39581E+2
   3.80324E+3  -1.85209E+3
   1.29478E+3   8.61159E+1
  -8.06766E+2   3.15545E+3
  -6.92509E+2   1.64394E+1
  -1.06193E+3  -7.96914E+2
   5.63215E+2   3.69252E+2
   4.34958E+2   5.81954E+2
   6.53280E+1   1.80604E+2
   7.95670E+2  -2.23792E+3
   1.01493E+3  -1.14560E+3
   4.12521E+2   9.32008E+2
  -1.97204E+3  -4.62031E+2
  -8.04934E+2  -2.34623E+2
  -9.60627E+1   1.37005E+3
   4.24593E+3  -8.15789E+2
   1.34993E+3  -7.62738E+2
  -2.74888E+3  -4.15686E+2
  -2.57785E+3  -9.84277E+2
  -1.50458E+3  -4.77649E+2
   1.17411E+3  -2.15012E+2
  -1.40706E+3  -1.88998E+2
   1.23727E+3  -2.19394E+3
   2.65178E+3   1.90037E+3
   2.92408E+2   4.52910E+2
  -4.82653E+1  -4.31064E+2
  -7.93253E+2  -1.77845E+2
  -3.08829E+3  -3.73956E+2
  -9.49903E+1  -8.83985E+2
   1.78947E+3  -2.42375E+3
   1.28588E+2   1.72224E+3
   2.01681E+2  -2.04536E+3
   4.06255E+2   6.66619E+2
   4.97246E+2   1.88428E+3
  -5.88602E+1  -7.90209E+2
  -1.55992E+3   2.65640E+2
  -1.17202E+3  -1.27784E+3
   1.08890E+3  -5.94537E+2
  -2.63395E+2  -9.22225E+2
  -1.54212E+3   1.40608E+3
   1.91016E+2   1.87014E+3
   7.29667E+2  -1.12040E+3
   1.02751E+3  -7.29402E+2
  -1.65184E+3   1.02187E+2
  -9.18342E+2  -2.33117E+2
   8.04116E+2   1.64094E+3
   1.85968E+2  -1.12327E+3
   1.58983E+3   1.38463E+3
   5.41716E+2   1.68280E+2
  -7.14630E+2  -1.20366E+2
   1.66453E+3  -2.04979E+3
   1.19614E+3  -4.57567E+2
  -1.21357E+3  -1.86478E+2
   6.23621E+2  -1.18934E+2
  -2.81777E+2   1.33758E+3
  -2.37902E+2  -8.03799E+2
   5.10938E+2   1.67547E+2
  -5.81062E+2   1.24801E+3
   1.55958E+3   1.91545E+3
  -2.04457E+3  -2.42247E+3
  -6.71124E+2  -2.37059E+3
  -6.73661E+2   8.98151E+2
  -1.69201E+3  -9.70473E+1
  -1.59647E+3  -9.08750E+1
   3.77797E+2  -1.21622E+3
  -1.28564E+2  -1.12813E+3
   1.57289E+1   1.13721E+3
  -1.65160E+3   3.47435E+2
  -9.77140E+2  -4.17606E+2
   8.40275E+2   5.21432E+2
  -1.49223E+3   7.25714E+2
  -9.89345E+2  -4.58072E+2
  -1.50304E+3  -2.95653E+3
   2.46226E+3   1.05170E+3
   1.18772E+3   1.29702E+3
  -4.02103E+2   1.99275E+3
  -1.29334E+3  -7.80261E+2
   7.04352E+2  -4.39001E+2
  -1.01614E+3  -6.72125E+2
  -1.14504E+3  -1.16123E+3
  -3.94647E+2  -1.15636E+3
  -3.63162E+2   1.02507E+2
   9.25909E+2   1.21072E+3
   1.57701E+2   2.52797E+3
  -1.79908E+3   2.66556E+2
  -2.13323E+3   5.20102E+2
  -1.81464E+3  -3.68829E+3
   8.18597E+2  -2.26141E+2
   2.69736E+2   1.04017E+3
  -8.92425E+2   1.15570E+3
  -1.42113E+3   4.02351E+2
   2.38568E+3  -1.79259E+3
   9.08793E+2   2.04416E+2
  -5.53350E+2   5.67763E+1
  -1.53491E+3  -2.78383E+3
   2.38851E+3  -9.82405E+2
   2.01270E+3   1.59796E+3
  -3.64737E+2   3.05156E+3
  -4.72153E+2   8.07893E+2
  -1.51428E+3   3.88680E+2
  -3.52410E+2   1.18585E+3
  -1.40318E+3  -1.65252E+3
  -5.50967E+1   8.10418E+2
  -3.16543E+2  -1.27995E+3
   4.41155E+2   8.91565E+2
   1.83771E+2   2.77461E+2
  -1.95578E+1   7.20975E+2
  -2.51092E+3   1.77022E+3
   2.17079E+3  -1.06604E+3
   1.31928E+3  -1.28330E+3
   1.84582E+3   3.10142E+2
  -3.93021E+2   8.27087E+2
  -1.46972E+3  -6.60929E+2
  -3.09008E+2  -4.72048E+2
   1.86097E+3  -1.19775E+3
  -8.37371E+1   7.42054E+2
   3.39890E+2   2.09633E+3
  -1.34628E+3   6.56231E+2
   3.98921E+2  -2.13838E+2
  -4.45694E+2  -8.82287E+1
  -1.59862E+3   8.65948E+2
   1.34854E+2  -3.18026E+2
   5.14649E+2  -5.74490E+2
   1.89298E+3  -1.00964E+3
  -1.65766E+2   8.33556E+2
   2.25236E+2  -1.82119E+1
   3.77294E+2  -7.27026E+2
  -8.41559E+2   9.33802E+2
  -1.06781E+3  -5.43762E+2
  -2.10124E+3   5.14749E+2
   6.51818E+2   8.47848E+2
  -6.80025E+2   4.16487E+2
  -1.68058E+2  -1.02415E+3
   5.71952E+2   1.45159E+3
