 
 $NMID
 ID=''
 FMTDAT='(2E13.5)'
 TRAMP=   1.00000E+0
 VOLUME=   1.00000E+0
 $END
   8.23642E+2  -2.33730E+2
  -9.56979E+2   2.86897E+3
   5.71970E+3  -2.82332E+3
   2.22594E+3  -5.60911E+2
   7.26499E+2  -3.05597E+3
   1.19283E+3  -4.25787E+3
  -4.09325E+3  -1.45438E+3
  -3.19239E+3  -1.40656E+3
  -1.45606E+3  -1.93526E+3
   5.86057E+2   7.75628E+2
   3.70440E+3   6.92050E+2
   5.21341E+3  -2.21572E+2
  -4.20687E+2  -4.95885E+2
  -3.25252E+3  -1.79511E+3
  -3.75427E+3  -2.03576E+3
  -3.57542E+2   1.15629E+2
   1.82140E+3  -7.98107E+2
   1.82660E+3   2.36832E+3
   5.78806E+2   3.71959E+3
   2.32244E+3   7.83399E+2
   4.63264E+3  -6.63368E+2
   3.10851E+3   2.03693E+3
  -2.32466E+3   5.92303E+2
  -1.20664E+3  -4.20392E+3
   4.89204E+3  -2.00252E+3
   1.74556E+3   6.03889E+3
  -2.56763E+3   1.89736E+3
  -2.03480E+3  -3.16120E+3
   1.12787E+3  -4.48540E+3
   5.47091E+3  -1.50112E+3
   6.62567E+3   8.67001E+3
  -4.04029E+3   6.06584E+3
  -4.80272E+3  -1.42102E+3
   9.21827E+2  -3.23122E+3
  -3.30742E+2  -1.58155E+3
  -2.01859E+3  -2.91325E+3
   3.00112E+3  -3.27422E+3
   4.69663E+3   9.50451E+2
   1.00014E+3   2.20188E+3
  -2.05545E+3   2.61162E+3
  -6.28899E+3   9.78744E+2
  -6.68304E+3  -1.64555E+3
  -1.76990E+3  -6.76988E+3
   6.14852E+3  -4.33063E+3
   2.21302E+3   3.32285E+3
   2.86261E+3   1.34060E+3
   1.95435E+3   2.75170E+3
  -2.64699E+3   4.26823E+3
  -2.86467E+3   2.38272E+3
  -1.94567E+3   3.21106E+2
  -3.33809E+3  -2.01246E+3
   3.00847E+3  -4.26984E+3
   5.40303E+3   2.11861E+3
  -5.69263E+2   3.31382E+3
  -2.07425E+3   2.73596E+3
  -4.15573E+3   1.04035E+3
  -4.18869E+3   2.50637E+2
  -5.22435E+3  -1.79295E+3
  -8.97848E+2  -6.87912E+3
   3.45124E+3  -3.29770E+3
   4.29388E+3   3.91785E+2
   3.55504E+3   4.57642E+3
   7.08914E+2   3.01626E+3
  -2.66996E+3   1.44054E+2
   1.47305E+3  -6.98466E+1
   2.41864E+3   1.16434E+3
  -3.02426E+3   6.45978E+2
  -5.64283E+3  -1.17029E+3
  -1.08592E+3  -4.26817E+3
   1.78209E+3  -1.35111E+3
  -2.30958E+3   1.86345E+3
  -2.85657E+3  -8.91657E+2
   1.09593E+3  -8.06073E+2
   3.78317E+3  -2.30578E+3
   5.04519E+2   3.35693E+2
  -5.38343E+2   9.56647E+2
  -4.96810E+2  -7.47359E+2
   8.48165E+2  -1.47210E+3
   3.94722E+3   4.54922E+2
   5.02807E+2   3.52741E+3
  -2.84406E+3   1.98055E+3
  -7.98721E+2  -1.73207E+3
  -2.51905E+2   5.37467E+2
  -1.04481E+3   2.64345E+3
  -2.25202E+3  -4.43284E+2
  -2.79188E+3  -4.58742E+3
   8.34397E+2  -2.86275E+3
   4.89734E+3  -2.88121E+3
   4.03770E+3   2.22563E+3
  -8.34119E+2   9.28380E+2
   4.94818E+1  -1.53383E+3
   1.93930E+3   1.70718E+3
  -2.75281E+3   2.26077E+3
  -3.06200E+3   1.10514E+2
  -3.14267E+3  -3.71623E+3
   3.35706E+3  -4.09393E+3
   4.71611E+3   7.77221E+2
  -8.12909E+2   4.57410E+3
  -2.64340E+3   2.25746E+3
  -2.60578E+2  -4.30793E+3
   6.25836E+3  -1.70881E+3
   3.52322E+3   2.75655E+3
   1.40203E+3   4.29188E+3
  -2.24216E+3   2.01468E+3
  -2.70505E+2  -6.91426E+2
  -1.62477E+2  -1.24394E+3
   2.51145E+2   1.74696E+3
  -5.74434E+2  -8.34494E+2
   1.73869E+3  -4.18339E+3
   4.39915E+3   1.19043E+3
   5.92112E+3   1.60168E+3
   6.96219E+1   3.44420E+3
  -1.90589E+1   3.64332E+3
  -2.14534E+3   3.19979E+3
  -3.05524E+3   1.14033E+2
  -3.50997E+3  -1.19988E+3
   3.70157E+2  -3.38336E+3
   1.46223E+3  -1.41334E+3
   1.37845E+3  -1.95345E+3
   2.67108E+2   6.92320E+2
  -1.80978E+3   1.73594E+3
   1.06007E+2  -1.06257E+3
   4.75392E+2  -1.18799E+3
   7.21662E+2  -5.12329E+2
  -2.35015E+3   2.52036E+3
  -8.62829E+2  -4.40474E+2
  -8.84707E+2  -2.19201E+3
  -4.17300E+2   7.65359E+2
   9.24578E+2   1.02873E+3
  -5.71517E+2  -9.23052E+2
  -1.39542E+3  -2.15523E+2
   1.62119E+3  -2.63878E+2
   1.47303E+3   3.87318E+3
  -3.71457E+3   3.72818E+3
  -3.87270E+3  -6.94513E+2
  -3.44427E+3  -2.34751E+3
  -6.29970E+2  -5.86442E+2
   8.59383E+2  -1.09736E+3
  -1.32865E+1   5.17537E+2
  -3.14883E+2   8.59616E+2
   1.80575E+3   6.39001E+2
   1.48351E+3  -3.55144E+2
   4.71688E+2   1.36720E+3
  -3.22432E+3   2.49371E+3
  -1.20374E+3  -2.53868E+3
   1.07401E+3  -1.31216E+3
  -1.24372E+3  -1.22757E+2
  -1.53764E+3   2.65703E+2
  -4.97453E+2   7.82198E+2
  -3.13255E+3   5.49663E+2
  -2.91184E+2  -1.50785E+3
  -1.11745E+3  -4.71711E+2
   2.21946E+3  -6.25232E+2
   1.02484E+3  -7.05227E+0
   5.26387E+2   6.54222E+2
   3.45330E+2   2.90131E+3
  -2.47530E+3   9.72110E+2
  -1.54979E+3  -7.02384E+2
  -9.79572E+2  -1.03177E+2
  -1.10825E+3   1.80125E+3
   1.41314E+2   3.24288E+2
  -1.99809E+3  -2.93645E+3
  -9.36171E+2   1.25377E+2
   5.52392E+2   2.06090E+3
  -1.56042E+3   1.95394E+3
  -1.30628E+3  -1.14681E+3
   3.52784E+3  -1.27787E+3
   1.14017E+3   1.64478E+3
   1.05564E+3   3.74348E+3
  -2.86108E+3   7.74573E+2
  -2.10056E+3  -1.17343E+2
   4.19695E+1  -2.62891E+3
   1.55046E+3   6.90491E+2
   3.24578E+2   2.06474E+3
  -9.00075E+2   1.02365E+2
   2.35708E+3  -5.77554E+2
   9.16659E+2   2.36977E+3
   1.28002E+3   1.15388E+3
  -2.12767E+3  -8.83625E+1
  -7.88548E+2  -1.13394E+3
  -1.78097E+3  -2.67339E+3
  -6.31713E+2  -1.61053E+2
   1.27326E+3  -7.09841E+2
  -1.33928E+3  -6.94568E+2
  -3.23209E+2  -2.58340E+2
   5.63390E+2   1.01420E+3
  -1.13496E+3   1.33179E+3
  -2.01263E+3  -1.13141E+3
   5.85467E+2  -4.60233E+3
   2.37604E+3  -1.85551E+3
   1.73666E+3   3.25804E+3
  -9.92812E+1   6.02581E+2
   3.04446E+2   1.51965E+3
   8.20081E+2  -3.54947E+2
   1.25424E+3  -3.42633E+2
   1.14188E+3   2.83711E+3
  -6.76961E+2  -3.53842E+1
   8.32561E+2  -5.54780E+1
   6.62707E+2   1.70085E+3
  -1.98849E+2   2.88933E+3
  -3.27569E+3  -1.57097E+3
  -1.35401E+3  -3.45058E+3
   2.27764E+3  -3.77856E+3
   1.65521E+3  -6.48484E+2
   1.58826E+3   5.78144E+1
  -1.66451E+3  -1.24507E+3
  -1.61847E+2  -6.31193E+2
  -6.28950E+2  -1.30492E+3
   2.03625E+2   1.25481E+3
  -1.67157E+3  -5.47356E+2
   2.66421E+3  -3.07850E+3
   2.59808E+3  -3.52144E+3
   3.75591E+3   6.28084E+2
  -5.57030E+2   5.50754E+2
  -1.62389E+3   2.27211E+3
  -2.90421E+2  -2.11080E+3
   3.53938E+2  -3.48667E+2
   1.11187E+2   2.90099E+2
  -1.64281E+1  -2.16993E+3
   7.61950E+1  -6.11017E+2
   2.48155E+3   1.37914E+3
   1.71576E+3   5.17069E+2
  -1.42539E+3   1.87272E+2
   9.01555E+1  -5.65893E+2
   1.03677E+3  -3.55646E+2
   9.09616E+2   3.04816E+2
  -4.21382E+2  -7.33542E+2
  -2.52838E+3   1.58793E+3
  -2.21706E+3  -1.87073E+3
   2.13824E+3  -1.60529E+3
   1.28661E+3   1.61665E+2
   5.42032E+2  -1.34574E+2
   3.50393E+2  -1.61065E+3
   6.58254E+2  -1.62274E+3
   2.60101E+3   2.70700E+3
  -3.00308E+3   3.82761E+3
  -2.03596E+3   8.78058E+2
  -2.55996E+3  -1.26659E+3
  -7.81464E+1  -2.03502E+3
   4.57062E+2   1.03799E+3
  -1.84576E+3  -3.20129E+2
  -1.68872E+3   5.17794E+2
  -1.34367E+3   1.37596E+2
  -4.32690E+2  -8.59857E+2
   1.16335E+3  -1.54280E+3
  -1.10997E+3  -1.68709E+3
   1.14331E+3  -8.28051E+2
   4.04706E+3  -2.31606E+3
   6.50495E+2   2.49793E+3
  -2.36737E+3   1.56382E+3
  -3.05608E+3  -1.60608E+3
  -2.77327E+2  -2.09349E+3
   7.77404E+2  -4.18858E+2
   9.28164E+2  -7.06289E+2
   4.66973E+2  -5.24446E+2
  -2.40667E+2  -1.16221E+3
  -3.97597E+2   1.34303E+3
  -1.28977E+2  -6.40299E+2
  -1.08231E+3   1.46998E+3
  -9.24280E+2  -2.15597E+3
   1.85029E+3  -1.36838E+3
   2.03215E+3  -2.26983E+3
   6.67745E+2  -7.37691E+1
   2.27212E+2   1.98219E+3
  -6.14428E+2  -1.06673E+3
   1.35188E+3  -7.09153E+1
  -5.35902E+2   6.98087E+2
  -1.05392E+3  -1.01807E+3
   6.22840E+2  -5.13415E+3
   2.14755E+3  -1.28983E+3
   1.23667E+3   2.91669E+3
  -3.13295E+2  -2.44105E+2
  -1.95980E+3  -1.45887E+3
  -2.86237E+2  -1.48325E+3
   1.19101E+3  -2.03270E+3
   1.28634E+3   8.43005E+2
  -1.30078E+3   7.66749E+1
   2.71795E+2  -4.90601E+2
   2.18495E+3   1.44688E+3
  -2.31792E+2  -7.83632E+2
  -1.61670E+3   6.44910E+2
  -1.97705E+3   5.28900E+1
  -1.22982E+2  -2.60315E+2
  -1.29516E+2  -1.19339E+3
   6.33580E+1   1.38469E+3
   1.98550E+2  -6.41616E+2
  -1.26518E+3  -5.81309E+2
  -6.50184E+2   3.64872E+2
   8.56415E+2  -5.05493E+1
   5.18555E+2   3.31444E+2
  -1.27423E+3  -1.76194E+3
  -7.86931E+2   6.66777E+2
   4.58811E+2  -1.89306E+1
   2.18123E+3   2.28554E+3
  -7.11902E+2   4.66697E+2
   5.07270E+2  -5.86506E+2
   2.92306E+3  -8.56174E+2
   2.52799E+3   7.50373E+1
   1.41317E+2   2.44454E+3
   1.79159E+2  -8.27178E+2
  -1.09568E+3  -2.03685E+3
  -1.46607E+2   2.42997E+2
   8.83977E+1   1.75257E+3
  -4.65931E+2   4.11489E+2
  -1.23954E+3  -7.03321E+2
   9.38765E+2  -1.21370E+3
   6.73062E+2  -1.92033E+2
  -3.64457E+2   1.37661E+3
   7.35912E+1  -1.42458E+3
   4.34077E+2  -1.36311E+3
  -7.34511E+2  -1.27793E+3
   5.94056E+2   1.53037E+3
   4.56244E+2   1.17909E+3
   2.35235E+2  -2.62637E+2
  -1.19165E+3   1.35696E+3
  -8.90297E+1   9.59539E+2
  -1.46383E+2   1.72692E+2
   6.29486E+2  -6.01641E+2
   3.31379E+2  -2.94598E+2
   2.21986E+3   2.33634E+3
  -1.54095E+3   3.36791E+3
   1.79508E+2  -3.50001E+2
   1.10723E+3  -5.57770E+2
  -6.11046E+2  -9.21049E+2
   1.33097E+3  -1.54431E+3
  -1.31790E+3   1.08409E+3
   3.20498E+2  -9.17712E+2
   2.42915E+3   8.03624E+2
   3.78146E+3  -2.23419E+2
   9.23566E+2   2.57291E+3
  -7.71631E+2  -2.35775E+2
   8.71016E+2  -6.26257E+2
   1.37235E+2  -1.30944E+3
   1.49541E+3   2.31201E+3
   2.13223E+2  -4.07757E+2
  -3.44803E+2  -1.06816E+2
   8.25683E+2  -1.37570E+3
  -7.20550E+2   2.86408E+3
   9.17848E+2  -8.97546E+2
  -4.55470E+2  -1.10849E+3
  -2.55962E+1   4.93497E+2
   9.92367E+2   1.50748E+2
  -5.56668E+1  -4.14671E+2
   2.69611E+2  -1.16169E+3
  -5.93680E+2  -2.18095E+3
  -1.77799E+3   7.83759E+2
   1.20982E+3   1.41721E+3
  -2.66286E+3   9.62176E+2
   3.24076E+2   1.94157E+3
   2.44852E+2  -8.54684E+2
   2.37479E+3   2.05806E+3
  -1.58655E+3   1.99244E+3
   1.25115E+3   1.75592E+2
   2.07364E+3  -2.00842E+2
  -3.29445E+2  -9.07719E+2
   3.98456E+2  -8.96497E+2
  -3.94303E+2  -5.10622E+2
  -1.37542E+3   6.33170E+2
   3.47763E+2  -1.06373E+3
   1.68325E+3  -7.08390E+2
   9.27499E+2   5.63144E+2
   2.35569E+2  -8.95411E+2
  -9.03614E+2  -1.09059E+3
   1.03470E+3   2.74814E+2
   9.39686E+2   9.00522E+2
  -1.04150E+3   7.93133E+2
  -3.99823E+2  -7.97687E+2
