 LCModel (Version 6.3-1N) Copyright: S.W. Provencher.          Ref.: Magn. Reson. Med. 30:672-679 (1993).                
 Slice_N1@19_20  02-Jun-2023 14:36:47
 27 lines in following concentration table = NCONC+1
    Conc.  %SD /Cr+PCr  Metabolite                                         
 2.09E-06  15% 2.6E-04 Mac                                                 
 3.63E-02  16%   4.553 Cr                                                  
 2.75E-02  21%   3.447 PCr                                                 
 7.54E-02  10%   9.459 Ins                                                 
 8.60E-02   7%  10.786 NAA                                                 
 7.45E-02   9%   9.344 Tau                                                 
 7.52E-03  20%   0.943 PCho                                                
    0.000 999%   0.000 GPC                                                 
 7.14E-02  12%   8.952 Glu                                                 
 1.07E-02  50%   1.340 Gln                                                 
 7.75E-03  75%   0.973 Ala                                                 
 3.24E-02  35%   4.071 Asc                                                 
 2.35E-03 287%   0.295 Asp                                                 
 6.94E-03  53%   0.870 GABA                                                
 5.83E-03  78%   0.731 Glc                                                 
 5.33E-03  46%   0.669 GSH                                                 
    0.000 999%   0.000 Lac                                                 
 7.91E-03  46%   0.992 NAAG                                                
 1.99E-02  36%   2.499 PE                                                  
 7.52E-03  20%   0.943 GPC+PCho                                            
 9.39E-02   7%  11.778 NAA+NAAG                                            
 8.20E-02  12%  10.292 Glu+Gln                                             
 6.38E-02   8%   8.000 Cr+PCr                                              
 9.39E-02   7%  11.778 NAA+NAAG                                            
 6.38E-02   8%   8.000 Cr+PCr                                              
 8.20E-02  12%  10.292 Glu+Gln                                             
   6 lines in following misc. output table
  FWHM = 0.012 ppm    S/N =   9                                            
  Data shift = 0.012 ppm                                                   
  Ph:  17 deg      -4.4 deg/ppm                                            
  alphaB,S = 2.4E+00,   3.3E-01                                            
   18 spline knots.   Ns = 5(1)                                            
   2 inflections.     1 extrema                                            
  654 points on ppm-axis = NY
      4.000000     3.994181     3.988363     3.982544     3.976726     3.970907     3.965088     3.959270     3.953451     3.947633
      3.941814     3.935995     3.930177     3.924358     3.918540     3.912721     3.906902     3.901084     3.895265     3.889446
      3.883628     3.877809     3.871991     3.866172     3.860353     3.854535     3.848716     3.842898     3.837079     3.831260
      3.825442     3.819623     3.813805     3.807986     3.802167     3.796349     3.790530     3.784712     3.778893     3.773074
      3.767256     3.761437     3.755619     3.749800     3.743981     3.738163     3.732344     3.726526     3.720707     3.714888
      3.709070     3.703251     3.697433     3.691614     3.685795     3.679977     3.674158     3.668339     3.662521     3.656702
      3.650884     3.645065     3.639246     3.633428     3.627609     3.621791     3.615972     3.610153     3.604335     3.598516
      3.592698     3.586879     3.581060     3.575242     3.569423     3.563605     3.557786     3.551967     3.546149     3.540330
      3.534512     3.528693     3.522874     3.517056     3.511237     3.505419     3.499600     3.493781     3.487963     3.482144
      3.476326     3.470507     3.464688     3.458870     3.453051     3.447232     3.441414     3.435595     3.429777     3.423958
      3.418139     3.412321     3.406502     3.400684     3.394865     3.389046     3.383228     3.377409     3.371591     3.365772
      3.359953     3.354135     3.348316     3.342498     3.336679     3.330860     3.325042     3.319223     3.313405     3.307586
      3.301767     3.295949     3.290130     3.284312     3.278493     3.272674     3.266856     3.261037     3.255219     3.249400
      3.243581     3.237763     3.231944     3.226125     3.220307     3.214488     3.208670     3.202851     3.197032     3.191214
      3.185395     3.179577     3.173758     3.167939     3.162121     3.156302     3.150484     3.144665     3.138846     3.133028
      3.127209     3.121391     3.115572     3.109753     3.103935     3.098116     3.092298     3.086479     3.080660     3.074842
      3.069023     3.063205     3.057386     3.051567     3.045749     3.039930     3.034111     3.028293     3.022474     3.016656
      3.010837     3.005018     2.999200     2.993381     2.987563     2.981744     2.975925     2.970107     2.964288     2.958470
      2.952651     2.946832     2.941014     2.935195     2.929377     2.923558     2.917739     2.911921     2.906102     2.900284
      2.894465     2.888646     2.882828     2.877009     2.871191     2.865372     2.859553     2.853735     2.847916     2.842098
      2.836279     2.830460     2.824642     2.818823     2.813004     2.807186     2.801367     2.795549     2.789730     2.783911
      2.778093     2.772274     2.766456     2.760637     2.754818     2.749000     2.743181     2.737363     2.731544     2.725725
      2.719907     2.714088     2.708270     2.702451     2.696632     2.690814     2.684995     2.679177     2.673358     2.667539
      2.661721     2.655902     2.650084     2.644265     2.638446     2.632628     2.626809     2.620991     2.615172     2.609353
      2.603535     2.597716     2.591897     2.586079     2.580260     2.574442     2.568623     2.562804     2.556986     2.551167
      2.545349     2.539530     2.533711     2.527893     2.522074     2.516256     2.510437     2.504618     2.498800     2.492981
      2.487163     2.481344     2.475525     2.469707     2.463888     2.458070     2.452251     2.446432     2.440614     2.434795
      2.428977     2.423158     2.417339     2.411521     2.405702     2.399884     2.394065     2.388246     2.382428     2.376609
      2.370790     2.364972     2.359153     2.353335     2.347516     2.341697     2.335879     2.330060     2.324242     2.318423
      2.312604     2.306786     2.300967     2.295149     2.289330     2.283511     2.277693     2.271874     2.266056     2.260237
      2.254418     2.248600     2.242781     2.236963     2.231144     2.225325     2.219507     2.213688     2.207870     2.202051
      2.196232     2.190414     2.184595     2.178777     2.172958     2.167139     2.161321     2.155502     2.149683     2.143865
      2.138046     2.132228     2.126409     2.120590     2.114772     2.108953     2.103135     2.097316     2.091497     2.085679
      2.079860     2.074042     2.068223     2.062404     2.056586     2.050767     2.044949     2.039130     2.033311     2.027493
      2.021674     2.015856     2.010037     2.004218     1.998400     1.992581     1.986763     1.980944     1.975126     1.969307
      1.963489     1.957670     1.951852     1.946033     1.940215     1.934397     1.928578     1.922760     1.916941     1.911123
      1.905304     1.899486     1.893667     1.887849     1.882030     1.876212     1.870393     1.864575     1.858756     1.852938
      1.847119     1.841301     1.835482     1.829664     1.823845     1.818027     1.812208     1.806390     1.800571     1.794753
      1.788934     1.783116     1.777297     1.771479     1.765660     1.759842     1.754023     1.748205     1.742386     1.736568
      1.730749     1.724931     1.719113     1.713294     1.707476     1.701657     1.695839     1.690020     1.684202     1.678383
      1.672565     1.666746     1.660928     1.655109     1.649291     1.643472     1.637654     1.631835     1.626017     1.620198
      1.614380     1.608561     1.602743     1.596924     1.591106     1.585287     1.579469     1.573650     1.567832     1.562013
      1.556195     1.550376     1.544558     1.538739     1.532921     1.527102     1.521284     1.515465     1.509647     1.503829
      1.498010     1.492192     1.486373     1.480555     1.474736     1.468918     1.463099     1.457281     1.451462     1.445644
      1.439825     1.434007     1.428188     1.422370     1.416551     1.410733     1.404914     1.399096     1.393277     1.387459
      1.381640     1.375822     1.370003     1.364185     1.358366     1.352548     1.346729     1.340911     1.335092     1.329274
      1.323455     1.317637     1.311818     1.306000     1.300182     1.294363     1.288545     1.282726     1.276908     1.271089
      1.265271     1.259452     1.253634     1.247815     1.241997     1.236178     1.230360     1.224541     1.218723     1.212904
      1.207086     1.201267     1.195449     1.189630     1.183812     1.177993     1.172175     1.166356     1.160538     1.154719
      1.148901     1.143082     1.137264     1.131445     1.125627     1.119808     1.113990     1.108171     1.102353     1.096534
      1.090716     1.084898     1.079079     1.073261     1.067442     1.061624     1.055805     1.049987     1.044168     1.038350
      1.032531     1.026713     1.020894     1.015076     1.009257     1.003439     0.997620     0.991802     0.985983     0.980165
      0.974346     0.968528     0.962709     0.956891     0.951072     0.945254     0.939435     0.933617     0.927798     0.921980
      0.916161     0.910343     0.904524     0.898706     0.892887     0.887069     0.881251     0.875432     0.869614     0.863795
      0.857977     0.852158     0.846340     0.840521     0.834703     0.828884     0.823066     0.817247     0.811429     0.805610
      0.799792     0.793973     0.788155     0.782336     0.776518     0.770699     0.764881     0.759062     0.753244     0.747425
      0.741607     0.735788     0.729970     0.724151     0.718333     0.712514     0.706696     0.700877     0.695059     0.689240
      0.683422     0.677603     0.671785     0.665967     0.660148     0.654330     0.648511     0.642693     0.636874     0.631056
      0.625237     0.619419     0.613600     0.607782     0.601963     0.596145     0.590326     0.584508     0.578689     0.572871
      0.567052     0.561234     0.555415     0.549597     0.543778     0.537960     0.532141     0.526323     0.520504     0.514686
      0.508867     0.503049     0.497230     0.491412     0.485593     0.479775     0.473956     0.468138     0.462319     0.456501
      0.450682     0.444864     0.439045     0.433227     0.427408     0.421590     0.415771     0.409953     0.404134     0.398316
      0.392497     0.386679     0.380860     0.375042     0.369223     0.363405     0.357586     0.351767     0.345949     0.340130
      0.334312     0.328493     0.322675     0.316856     0.311038     0.305219     0.299401     0.293582     0.287764     0.281945
      0.276127     0.270308     0.264490     0.258671     0.252853     0.247034     0.241216     0.235397     0.229579     0.223760
      0.217942     0.212123     0.206305     0.200486
 NY phased data points follow
  -8.65333E-02 -6.26788E-02 -2.63907E-01  2.98223E-01  3.92001E-01  3.89668E-01 -1.10482E-01 -2.31817E-01 -1.01668E-01 -3.08573E-01
   4.34845E-02  2.91880E-01  6.06774E-01 -7.35384E-02 -1.36481E-01  6.86740E-01  4.99768E-01  1.07101E-01 -8.01178E-02  6.59108E-02
   1.38879E-01 -5.98436E-02  8.13216E-02 -8.93622E-02 -1.32694E-01  3.29541E-03 -1.73058E-01 -2.27744E-01 -1.19396E-01 -7.66493E-02
  -2.36441E-01 -1.35734E-02 -8.86815E-02 -1.77113E-01 -1.38185E-01 -1.82164E-01 -3.21566E-01 -1.30635E-01 -2.95960E-01 -2.03706E-01
   3.07063E-02 -2.77794E-01  2.96788E-01  3.03564E-01  3.08456E-01  3.55257E-01  6.41464E-01  3.62268E-01  2.91840E-01  2.57418E-01
  -2.17035E-01  1.33376E-01  2.72348E-02  1.24863E-01 -1.72425E-01  1.52765E-01 -1.43769E-01 -3.20736E-01 -3.32049E-01 -5.40761E-01
  -2.92425E-02 -2.78486E-01 -4.14729E-01  1.03920E-01  2.07143E-01 -5.36037E-01  2.04713E-01  7.78358E-02  1.70016E-01  8.47973E-01
   3.72434E-01  1.91001E-01  1.19608E-01  2.63068E-01 -5.44661E-02 -2.85159E-01 -3.64281E-01 -3.26279E-01 -4.55152E-01 -5.77060E-01
  -6.34249E-01  2.50773E-01  5.15795E-01 -4.50943E-02  3.37755E-01  3.29741E-01  1.16350E-01  1.70811E-01  1.36368E-01  2.89965E-01
   4.43356E-01  4.84479E-03  2.29445E-01  3.01809E-01  1.81370E-01 -3.81190E-02  9.01127E-02 -5.21900E-02 -3.39053E-01 -4.35249E-01
  -8.60779E-01 -3.43850E-01 -2.16043E-01  2.68864E-01  2.78526E-01  5.24771E-01  3.70672E-01  2.28179E-01  6.23460E-01  2.25157E-01
   3.46267E-01  1.11057E-01  3.13629E-01  1.60852E-01  2.17743E-01  5.53206E-01  3.07168E-01  1.42242E-01  2.50037E-01  2.76739E-01
   3.22445E-01  2.28446E-01 -3.54290E-02  2.20426E-01 -5.64323E-02 -1.85216E-01 -6.48212E-02 -2.87807E-01 -6.60177E-01 -6.17629E-01
  -6.65253E-01 -6.90670E-01 -6.63282E-01 -5.98190E-01 -5.42851E-01 -4.51897E-01 -6.60253E-01 -1.09023E+00 -4.62738E-01 -2.75891E-01
   1.43530E-02 -7.28607E-02 -1.71365E-01  9.79339E-02  1.44839E-02  4.70081E-04 -1.20321E-01 -1.51683E-01 -1.44529E-01  4.01356E-01
   2.36479E-01 -3.50828E-02  4.28628E-02 -4.67893E-02  7.43148E-02  3.44439E-01  2.26051E-01  6.04861E-03  2.77100E-01  2.57527E-01
   3.63037E-01  3.83001E-01  4.69067E-01  9.05597E-01  8.15775E-01  9.37111E-01  1.18196E+00  3.54612E-01 -9.73866E-01 -1.12647E+00
  -6.68264E-01 -7.36527E-01 -3.93578E-01 -5.23874E-01 -3.78478E-01 -4.31614E-01 -5.68662E-01 -1.03882E-01 -6.73987E-01 -2.70846E-01
  -2.54700E-01 -5.01029E-01 -3.19050E-01 -3.08362E-01 -2.27224E-01 -4.98460E-01 -2.04243E-01 -3.47377E-01 -4.69523E-01 -2.59947E-01
  -2.63740E-01 -6.40768E-02 -2.23172E-01 -3.75080E-01 -2.39496E-01 -3.41461E-01 -4.79828E-02 -2.55516E-01 -1.03295E-01  5.29103E-02
  -2.63009E-01  1.87822E-01 -2.96505E-01 -1.91262E-01  5.58570E-02 -9.51587E-02  6.84581E-02 -6.64842E-02  4.97044E-02  8.56616E-02
   5.81163E-02  1.21595E-01  9.54042E-03 -2.15467E-02  1.27152E-01  3.95476E-02  9.81015E-02  2.27385E-02  1.59719E-01 -2.00943E-02
  -1.29336E-01  1.53130E-01 -8.23256E-02 -9.56825E-02 -8.45368E-02  4.64297E-01  4.06414E-01 -3.62090E-02  2.20299E-01  2.98078E-01
   4.16689E-01  3.28649E-01  5.16259E-02  2.76014E-02  4.90562E-02  1.47029E-01  1.02767E-01 -3.14708E-01  2.18105E-01  1.29445E-01
  -3.25521E-01  2.48300E-02 -1.66622E-02  1.91344E-01 -1.84246E-01 -7.31705E-02  1.70027E-01  2.03247E-01  4.48839E-02 -2.01334E-01
   4.21931E-01  3.42611E-01  3.72969E-01 -2.07492E-02 -5.88985E-02  2.34505E-01  2.70085E-01  2.26457E-01 -2.38178E-01  6.16210E-02
   5.11020E-01  5.01423E-01  5.06779E-02  2.99316E-01  3.30923E-02  1.88307E-01  3.19608E-01 -1.72839E-01  4.74985E-01  2.12241E-01
   6.26806E-02  2.29342E-01 -7.20356E-03  4.57582E-02  1.58176E-01 -2.16000E-01 -3.33388E-01  1.09770E-01 -1.90943E-01 -1.99759E-01
  -5.65443E-02 -4.74125E-01 -2.53014E-02 -8.50868E-02 -9.57523E-02  4.84801E-01  8.38135E-02  6.69730E-01  6.73309E-01  3.04275E-01
   6.13189E-01  3.36968E-01  3.26879E-01  2.93634E-01  2.86995E-01  3.05857E-03 -4.39606E-03  4.35637E-01  2.71997E-01  1.68930E-01
   2.04942E-01  1.49163E-01  2.58028E-01  3.35358E-01  2.34679E-01  2.42777E-01  4.17796E-01  1.41475E-01  3.69235E-01  4.40235E-01
   1.97291E-01  2.43231E-01  9.20742E-02  2.87598E-01  1.02683E-02  1.63294E-01  2.21596E-01 -1.48469E-01 -1.43042E-01 -1.46712E-01
   2.53018E-02 -5.07670E-02 -2.76985E-01 -2.51959E-01 -3.75027E-01 -3.82135E-01 -1.14748E-01  1.79437E-01  3.80231E-01 -1.64076E-01
  -1.04347E-02  1.60016E-01 -1.29363E-01 -1.35978E-01 -3.33087E-02 -3.33446E-01 -3.23271E-01 -4.68056E-01 -5.50462E-01 -2.32324E-02
  -5.63443E-01 -3.52091E-02 -2.44444E+00 -3.18145E+00 -2.30009E-01 -3.92402E-01 -4.74388E-01 -2.69317E-01  6.48341E-02 -2.25016E-01
  -2.17994E-01  2.75976E-01  2.39584E-01  2.34332E-01 -9.20334E-02 -1.59153E-01  9.82511E-02  3.68149E-01  1.16306E-01 -9.98202E-02
  -2.11116E-01 -9.33270E-02 -1.49767E-01 -4.79109E-03  6.61418E-02 -3.12710E-01 -1.17214E-02  1.86696E-01 -7.07781E-02  1.31088E-01
   1.83933E-01  5.35683E-02  9.97748E-02  1.06199E-01 -3.49983E-02 -1.62233E-01  9.36966E-02  1.36628E-01  1.77422E-01  9.65755E-02
   9.45207E-02  1.34062E-01  9.08217E-02 -2.41281E-02  2.78072E-01  2.89462E-01 -1.10815E-01  2.81366E-01  3.18871E-01  1.02217E-01
   2.23941E-02  2.43573E-02  2.35367E-01  6.02466E-01  9.05953E-02  3.36035E-01  5.38858E-01 -1.09058E-01  1.35466E-01  2.70526E-01
   3.75549E-02  1.38627E-02  1.82489E-01 -1.40946E-01  1.26691E-01  1.84720E-02  8.79545E-02 -2.77415E-01 -2.49780E-01  6.80229E-02
  -1.95422E-01  1.63207E-01 -5.20527E-01 -1.61072E-01 -2.38637E-01  5.81363E-02  1.88455E-01 -6.76424E-02  3.34865E-01 -2.41842E-01
  -2.28296E-01 -2.60482E-01  2.70113E-02  2.69285E-02 -9.48125E-03 -2.13381E-01 -2.36953E-01  5.90215E-02 -2.13167E-01 -2.08398E-01
  -2.58259E-01  3.62578E-02  4.26279E-02 -1.08177E-01  2.17597E-01  2.61441E-01  2.18732E-01  1.26029E-01  1.17056E-01  3.37225E-01
   1.50900E-01 -1.01174E-01 -2.54224E-02  1.80896E-02 -2.39660E-02  2.04719E-01 -5.84092E-02  2.59075E-01  5.24055E-01  4.41202E-02
   2.36859E-01  1.28463E-01  2.33516E-01 -4.69645E-02  3.10642E-02  2.38539E-01 -1.22906E-01  3.83556E-02 -1.61089E-01 -2.31225E-01
  -1.53199E-01 -2.02631E-01  1.27783E-01  2.16557E-01 -4.84039E-02  3.97906E-01  1.87197E-01 -4.17128E-02  1.82898E-01 -4.66071E-01
   1.05161E-01  1.91254E-01 -7.03291E-01 -1.35131E-01 -6.56409E-02 -2.48597E-01 -8.15911E-02 -2.80714E-02  1.11263E-01 -3.58929E-02
  -1.06980E-01 -1.19944E-02 -8.46691E-02 -2.09265E-01  3.64366E-02 -2.96482E-01 -6.20067E-03  1.25335E-01 -1.53977E-02  1.48754E-01
  -3.44059E-02  3.91668E-01  1.01310E-01  2.56831E-01  1.01287E-01 -8.97424E-02  2.61501E-01  4.99736E-02 -2.47502E-02 -7.32859E-02
   1.35384E-01  1.56428E-01  9.86769E-02  2.59991E-01  2.01019E-01  1.03661E-01  2.55926E-01 -2.85097E-01  1.14781E-01  3.10002E-01
  -5.35433E-02  4.02920E-02 -1.25513E-01  1.32887E-01 -1.87848E-01  1.58941E-01  1.39872E-01 -2.38276E-01  1.50554E-01  8.48857E-02
  -2.48324E-01 -5.18078E-03  5.19239E-02 -3.19244E-01 -6.66802E-02 -2.63744E-01 -4.74551E-01 -3.45972E-01 -3.86615E-01 -3.00653E-01
  -2.42873E-01 -4.90044E-01 -7.03547E-02 -1.20890E-01 -8.11714E-02  1.82722E-01 -3.55581E-01 -7.67666E-02 -1.57484E-01 -2.72926E-01
  -3.47986E-01 -1.55434E-01 -9.96036E-03 -9.12451E-02 -2.20279E-02 -7.71073E-03  3.26435E-01 -7.04314E-02 -7.39306E-02  3.16310E-02
   5.50689E-02  1.43473E-01 -1.16503E-02  2.34229E-01  3.54877E-01  1.74708E-01  4.43440E-02  1.10287E-01  2.08452E-01  1.96514E-01
   1.01165E-01  7.89634E-02 -1.99250E-02  6.95308E-02  1.77348E-01 -1.86469E-03  9.86794E-02  3.19814E-01  1.63999E-01  2.10887E-01
  -1.53711E-01 -9.16934E-02  3.39108E-01  6.62681E-02  2.11566E-01  1.13230E-01  9.83390E-02 -1.26576E-01  1.98738E-01  1.18594E-01
  -2.75387E-01  2.49008E-01 -2.49354E-03  2.43491E-01  1.54943E-01 -2.35693E-01 -1.15164E-01  8.65758E-02 -3.00661E-02  1.28025E-01
  -5.74066E-02 -3.63698E-01  1.67979E-02 -2.63639E-03  2.42819E-01 -1.73186E-01 -9.83970E-02 -1.19146E-02  5.27973E-02  1.09750E-01
   6.92833E-02  1.60320E-01 -1.37732E-01  2.68848E-01 -1.64672E-01 -7.11094E-02 -1.05158E-01  2.30585E-02  4.39628E-01  1.31876E-01
   2.82722E-01  1.43540E-01 -2.40235E-04  5.23495E-02  1.41859E-01  2.86862E-02  2.92038E-01  1.55170E-01 -1.04066E-03 -1.90177E-02
   2.10945E-01  3.03812E-01 -9.60754E-02  9.98957E-02  3.07943E-02  1.32073E-01 -2.76139E-02  5.04067E-02  1.29418E-01  7.56560E-02
   1.57041E-01 -1.55180E-02  1.10212E-01  1.00435E-01  1.28568E-01  7.00177E-02  1.76183E-01  4.95600E-02  2.89272E-02  2.37478E-01
   1.62225E-01 -1.76350E-02 -1.24700E-01  2.84816E-01  3.86923E-02  4.04683E-02  2.42913E-01  4.42995E-02  9.59319E-02 -1.32892E-01
   8.76493E-02 -2.27558E-02  7.17424E-03  2.47663E-01
 NY points of the fit to the data follow
   1.54747E-01  1.91737E-01  1.69185E-01  2.03949E-01  1.82599E-01  1.46192E-01  9.31033E-02  1.02525E-01  1.74942E-02  9.69792E-02
   4.61331E-02  4.31671E-01  6.18595E-01  2.69963E-01  6.97367E-02  6.45278E-01  8.67402E-01  7.78985E-02  8.93450E-02  9.30493E-02
   1.76610E-02 -3.38277E-02 -3.26247E-02 -6.09139E-02 -7.88193E-02 -9.13945E-02 -1.05365E-01 -1.13664E-01 -1.21653E-01 -1.41328E-01
  -1.46791E-01 -1.52779E-01 -1.73427E-01 -1.91138E-01 -2.33997E-01 -2.19013E-01 -2.78603E-01 -2.40772E-01 -2.53529E-01 -2.02522E-01
  -4.40169E-03 -1.90244E-02  8.43176E-02  2.93120E-01  3.65886E-01  4.12967E-01  4.21297E-01  2.47683E-01  2.21720E-01  2.50527E-01
   1.47322E-01  9.29982E-02  1.11597E-01  4.06751E-02 -8.94242E-03 -4.75927E-02 -9.00325E-02 -1.47602E-01 -1.77658E-01 -2.44848E-01
  -3.31656E-01 -2.93573E-01 -4.25731E-01 -1.69131E-01 -2.23143E-01 -3.69861E-01  4.01764E-01  1.15664E-01  5.89221E-02  6.09362E-01
   3.88243E-01  2.31762E-01  1.91487E-01  1.43829E-01  3.95109E-02 -5.50446E-02 -6.40543E-02 -1.97500E-01 -2.97689E-01 -5.95897E-01
  -7.11493E-01  3.46888E-02  4.28291E-02 -1.38748E-01  3.92880E-01  5.13127E-01  3.56720E-01  3.14537E-01  3.10681E-01  2.52273E-01
   2.10867E-01  2.00598E-01  1.50494E-01  9.41032E-02  8.39060E-02 -6.34737E-02 -1.24349E-02 -3.53164E-01 -3.48740E-01 -5.86326E-01
  -6.33136E-01 -1.58687E-01 -1.58971E-01  2.88594E-01  3.17011E-01  3.05825E-01  3.11769E-01  3.17226E-01  2.90897E-01  2.88520E-01
   2.81947E-01  2.79558E-01  2.77184E-01  2.71746E-01  2.67812E-01  2.67347E-01  2.67859E-01  2.61517E-01  2.42733E-01  2.62493E-01
   1.99086E-01  2.24911E-01  3.42611E-02 -4.60342E-02  5.15462E-02 -2.45115E-01 -1.83138E-01  4.67882E-03 -5.67560E-01 -5.50898E-01
  -6.88506E-01 -8.68634E-01 -5.79687E-01 -5.07935E-01 -4.44873E-01 -3.47816E-01 -8.16429E-01 -1.08167E+00 -2.73104E-01 -2.20986E-01
  -1.97119E-01 -1.03265E-01 -1.45193E-02  7.56777E-04  2.43323E-02  4.84739E-02  7.29316E-02  9.05542E-02  1.08862E-01  1.24241E-01
   1.38093E-01  1.53479E-01  1.69340E-01  1.82008E-01  2.00746E-01  2.19797E-01  2.40389E-01  2.68694E-01  2.99323E-01  3.29635E-01
   3.75477E-01  4.54295E-01  4.94107E-01  4.85118E-01  5.79988E-01  7.64497E-01  9.58686E-01  2.80174E-01 -1.08474E+00 -1.13049E+00
  -5.63952E-01 -5.96542E-01 -5.59499E-01 -4.29307E-01 -3.83070E-01 -3.42668E-01 -3.00111E-01 -2.74379E-01 -2.78719E-01 -2.65561E-01
  -2.43824E-01 -2.12301E-01 -2.10494E-01 -2.06352E-01 -1.87416E-01 -1.88896E-01 -1.75407E-01 -1.66338E-01 -1.53545E-01 -1.50916E-01
  -1.41730E-01 -1.32431E-01 -1.22590E-01 -1.17326E-01 -1.06732E-01 -9.86869E-02 -9.44514E-02 -8.62041E-02 -7.84281E-02 -7.27350E-02
  -7.11804E-02 -6.29831E-02 -5.41960E-02 -5.51546E-02 -5.80157E-02 -5.78241E-02 -5.15942E-02 -4.28076E-02 -4.60586E-02 -5.33186E-02
  -5.06252E-02 -4.80985E-02 -3.97417E-02 -3.62283E-02 -3.63544E-02 -2.30898E-02 -1.24284E-02  1.87984E-03 -9.21369E-03 -3.06132E-02
   6.93128E-03  2.40742E-02  3.65437E-02  1.84871E-02  9.64504E-02  3.01432E-01  3.21805E-01  1.98968E-01  5.82388E-02  2.45803E-01
   5.96031E-01  3.73435E-01  4.84082E-02  4.78971E-02  2.46753E-02 -2.61747E-02 -4.77297E-02 -4.79133E-02 -5.40509E-02 -6.14742E-02
  -7.01403E-02 -8.07175E-02 -8.10624E-02 -8.89262E-02 -8.77318E-02 -9.48403E-02 -1.02528E-01 -9.99368E-02 -1.13612E-01 -1.12116E-01
  -1.16054E-01 -1.13828E-01 -1.07670E-01 -1.66407E-01 -1.25041E-01 -1.81393E-01 -9.44552E-02  2.04097E-01 -1.19836E-01  4.01942E-02
   2.39969E-01  1.38023E-01  2.07186E-01  4.32413E-02  1.73560E-01  2.41797E-01  1.45701E-01  8.64643E-02  1.23085E-01  9.36755E-02
   4.93956E-02  2.60517E-02 -3.95252E-03 -3.33582E-02 -6.55889E-02 -9.10921E-02 -1.48185E-01 -1.58703E-01 -2.34673E-01 -2.52400E-01
  -3.25980E-01 -4.16619E-01 -2.47086E-01 -2.91642E-01 -8.34541E-02  2.06197E-01  2.18028E-01  4.30408E-01  4.29830E-01  2.98822E-01
   2.89571E-01  2.24104E-01  2.25768E-01  1.67895E-01  1.74683E-01  2.21547E-01  1.92776E-01  2.30659E-01  2.07392E-01  1.98885E-01
   1.94816E-01  1.93546E-01  1.84446E-01  1.75945E-01  1.72930E-01  1.67434E-01  1.50781E-01  1.45518E-01  1.21353E-01  8.64912E-02
   1.02045E-01  4.25695E-02  5.00299E-02  5.82951E-02  9.74191E-03  3.78816E-02 -3.07399E-02 -8.87236E-02 -1.27211E-01 -1.74004E-01
  -1.92846E-01 -2.08141E-01 -2.00461E-01 -2.02211E-01 -1.61389E-01 -8.76388E-02  1.21529E-03  5.71452E-02  7.35604E-02  9.75432E-02
   2.42570E-03  1.81254E-02 -1.44829E-01 -1.03165E-01 -1.67078E-01 -2.23201E-01 -3.07973E-01 -4.12275E-01 -3.19552E-01 -4.36842E-02
  -3.98024E-01 -1.80457E-01 -2.40327E+00 -3.22152E+00 -3.59505E-01 -4.40998E-01 -4.89316E-01 -2.46976E-01 -3.42329E-02 -6.68888E-02
  -5.12730E-02 -3.33253E-02 -1.33609E-02 -3.11059E-03  6.68976E-03  1.37575E-02  2.76839E-02  1.62936E-02  2.91501E-02  3.45713E-03
  -8.46766E-03 -1.26021E-02 -3.92432E-02 -2.48176E-02 -4.04227E-02 -2.34990E-02 -1.68138E-02 -3.51463E-03  5.89526E-03  1.32063E-02
   2.12440E-02  3.03129E-02  3.81784E-02  4.78691E-02  5.02823E-02  5.22873E-02  5.80107E-02  6.15140E-02  6.67659E-02  7.20872E-02
   7.30051E-02  7.51841E-02  7.94422E-02  8.17784E-02  8.85761E-02  8.83266E-02  9.09183E-02  9.10078E-02  9.28236E-02  9.88366E-02
   1.00559E-01  1.05954E-01  1.07048E-01  1.07980E-01  1.04826E-01  1.01472E-01  1.01382E-01  9.95242E-02  9.57889E-02  9.22770E-02
   8.71885E-02  8.01373E-02  7.73238E-02  6.99209E-02  6.05967E-02  5.58095E-02  5.27633E-02  4.78853E-02  3.87974E-02  3.54982E-02
   3.25452E-02  2.58173E-02  2.36629E-02  2.25860E-02  1.80831E-02  1.60149E-02  1.37749E-02  9.75909E-03  8.00582E-03  6.68527E-03
   6.17488E-03  4.99310E-03  2.67898E-03  6.37047E-03  8.96878E-03  1.07070E-02  1.41853E-02  2.10001E-02  2.49018E-02  3.70689E-02
   5.19740E-02  5.10119E-02  7.37085E-02  7.93973E-02  1.77357E-01  1.65661E-01  1.57051E-01  1.76478E-01  7.09450E-02  8.28902E-02
   9.13739E-02  9.69022E-02  1.01779E-01  1.17894E-01  1.26176E-01  1.37863E-01  1.48945E-01  1.58965E-01  1.66366E-01  1.71212E-01
   1.74792E-01  1.72583E-01  1.75679E-01  1.73126E-01  1.70049E-01  1.70118E-01  1.62634E-01  1.54801E-01  1.43784E-01  1.33839E-01
   1.24479E-01  1.17428E-01  1.07034E-01  9.89043E-02  8.86817E-02  7.96347E-02  7.78591E-02  6.78182E-02  6.18871E-02  5.64369E-02
   5.32631E-02  4.96973E-02  4.54866E-02  4.24279E-02  4.07544E-02  4.28981E-02  4.57490E-02  4.78586E-02  5.02747E-02  5.48877E-02
   5.85548E-02  6.19640E-02  7.13454E-02  7.53554E-02  7.83974E-02  8.16256E-02  8.43007E-02  8.48685E-02  8.47071E-02  9.12448E-02
   9.43435E-02  9.26151E-02  9.23039E-02  9.06229E-02  8.88045E-02  8.94207E-02  8.27202E-02  7.84807E-02  7.83479E-02  7.55573E-02
   7.20087E-02  6.78711E-02  6.53626E-02  6.29873E-02  5.94648E-02  5.46761E-02  5.17770E-02  4.65413E-02  4.54448E-02  4.62212E-02
   4.05607E-02  3.59356E-02  3.41419E-02  3.08637E-02  2.38589E-02  1.46427E-02  7.88613E-03  1.31627E-03 -7.08126E-03 -1.70736E-02
  -3.04569E-02 -4.90391E-02 -6.67655E-02 -7.86745E-02 -9.39937E-02 -1.10799E-01 -1.23709E-01 -1.34594E-01 -1.44714E-01 -1.55447E-01
  -1.65804E-01 -1.65971E-01 -1.61820E-01 -1.64297E-01 -1.65150E-01 -1.58459E-01 -1.48394E-01 -1.42370E-01 -1.37446E-01 -1.30536E-01
  -1.24224E-01 -1.20580E-01 -1.09540E-01 -9.94390E-02 -9.43106E-02 -8.16929E-02 -7.25664E-02 -6.03312E-02 -5.34200E-02 -4.32185E-02
  -3.26025E-02 -2.79129E-02 -1.68753E-02 -6.02841E-03 -2.34513E-03  2.46187E-03  9.86584E-03  1.81670E-02  2.60451E-02  2.35805E-02
   2.79862E-02  3.59498E-02  3.81938E-02  3.95299E-02  4.26316E-02  4.32790E-02  4.44947E-02  4.90334E-02  4.98877E-02  4.68296E-02
   4.85664E-02  5.44162E-02  5.36559E-02  5.51959E-02  6.04612E-02  6.12612E-02  5.91929E-02  6.00965E-02  6.25411E-02  6.01732E-02
   6.04120E-02  6.24430E-02  5.99021E-02  6.10417E-02  6.25529E-02  5.91276E-02  6.09995E-02  6.29552E-02  6.37482E-02  6.62332E-02
   6.13391E-02  5.35854E-02  5.81200E-02  6.33134E-02  6.01771E-02  5.86872E-02  5.95227E-02  6.26685E-02  5.77926E-02  5.53056E-02
   5.66898E-02  5.91868E-02  6.32325E-02  6.07051E-02  6.14320E-02  6.32281E-02  6.48867E-02  6.62442E-02  6.53290E-02  6.67375E-02
   6.88153E-02  7.05562E-02  6.78295E-02  6.36289E-02  6.72360E-02  6.87321E-02  6.74754E-02  7.08475E-02  7.22318E-02  7.32329E-02
   7.30178E-02  6.85538E-02  7.82067E-02  8.16669E-02  7.97803E-02  8.37686E-02  7.72265E-02  7.54558E-02  7.85303E-02  8.02360E-02
   8.23847E-02  8.10634E-02  7.93020E-02  7.97762E-02  8.20628E-02  8.17230E-02  8.45029E-02  8.10406E-02  8.07482E-02  8.73468E-02
   8.86654E-02  8.62716E-02  8.66172E-02  9.09835E-02  9.04542E-02  9.24703E-02  9.32498E-02  9.48390E-02  1.04412E-01  1.05939E-01
   1.07797E-01  1.09861E-01  1.11725E-01  1.14699E-01
 NY background values follow
     4.021E-02    4.018E-02    4.014E-02    4.010E-02    4.006E-02    4.002E-02    3.999E-02    3.995E-02    3.991E-02    3.987E-02
     3.984E-02    3.980E-02    3.976E-02    3.972E-02    3.969E-02    3.965E-02    3.961E-02    3.957E-02    3.953E-02    3.950E-02
     3.946E-02    3.942E-02    3.938E-02    3.934E-02    3.931E-02    3.927E-02    3.923E-02    3.919E-02    3.915E-02    3.912E-02
     3.908E-02    3.904E-02    3.900E-02    3.896E-02    3.893E-02    3.889E-02    3.885E-02    3.881E-02    3.877E-02    3.873E-02
     3.870E-02    3.866E-02    3.862E-02    3.858E-02    3.854E-02    3.850E-02    3.846E-02    3.842E-02    3.839E-02    3.835E-02
     3.831E-02    3.827E-02    3.823E-02    3.819E-02    3.815E-02    3.811E-02    3.807E-02    3.803E-02    3.799E-02    3.795E-02
     3.791E-02    3.787E-02    3.783E-02    3.779E-02    3.775E-02    3.771E-02    3.767E-02    3.763E-02    3.759E-02    3.755E-02
