 LCModel (Version 6.3-1N) Copyright: S.W. Provencher.          Ref.: Magn. Reson. Med. 30:672-679 (1993).                
 Slice_N1@25_21  02-Jun-2023 14:38:10
 27 lines in following concentration table = NCONC+1
    Conc.  %SD /Cr+PCr  Metabolite                                         
 1.98E-06  16% 1.0E-03 Mac                                                 
    0.000 999%   0.000 Cr                                                  
 1.59E-02  30%   8.000 PCr                                                 
 2.22E-02  37%  11.220 Ins                                                 
 4.54E-02  16%  22.920 NAA                                                 
 3.30E-02  22%  16.645 Tau                                                 
    0.000 999%   0.000 PCho                                                
 3.01E-03  56%   1.516 GPC                                                 
 3.66E-02  22%  18.455 Glu                                                 
 3.07E-03 128%   1.550 Gln                                                 
    0.000 999%   0.000 Ala                                                 
 2.32E-02  42%  11.713 Asc                                                 
 3.52E-03  38%   1.775 Asp                                                 
 2.04E-03  39%   1.028 GABA                                                
 2.20E-03  36%   1.108 Glc                                                 
 1.24E-03 131%   0.624 GSH                                                 
    0.000 999%   0.000 Lac                                                 
    0.000 999%   0.000 NAAG                                                
    0.000 999%   0.000 PE                                                  
 3.01E-03  56%   1.516 GPC+PCho                                            
 4.54E-02  16%  22.920 NAA+NAAG                                            
 3.97E-02  24%  20.005 Glu+Gln                                             
 1.59E-02  30%   8.000 Cr+PCr                                              
 4.54E-02  16%  22.920 NAA+NAAG                                            
 1.59E-02  30%   8.000 Cr+PCr                                              
 3.97E-02  24%  20.005 Glu+Gln                                             
   6 lines in following misc. output table
  FWHM = 0.093 ppm    S/N =   1                                            
  Data shift = 0.093 ppm                                                   
  Ph: -29 deg     -12.9 deg/ppm                                            
  alphaB,S = 3.1E+01,   2.6E+01                                            
   18 spline knots.   Ns = 8(2)                                            
   2 inflections.     2 extrema                                            
  654 points on ppm-axis = NY
      4.000000     3.994181     3.988363     3.982544     3.976726     3.970907     3.965088     3.959270     3.953451     3.947633
      3.941814     3.935995     3.930177     3.924358     3.918540     3.912721     3.906902     3.901084     3.895265     3.889446
      3.883628     3.877809     3.871991     3.866172     3.860353     3.854535     3.848716     3.842898     3.837079     3.831260
      3.825442     3.819623     3.813805     3.807986     3.802167     3.796349     3.790530     3.784712     3.778893     3.773074
      3.767256     3.761437     3.755619     3.749800     3.743981     3.738163     3.732344     3.726526     3.720707     3.714888
      3.709070     3.703251     3.697433     3.691614     3.685795     3.679977     3.674158     3.668339     3.662521     3.656702
      3.650884     3.645065     3.639246     3.633428     3.627609     3.621791     3.615972     3.610153     3.604335     3.598516
      3.592698     3.586879     3.581060     3.575242     3.569423     3.563605     3.557786     3.551967     3.546149     3.540330
      3.534512     3.528693     3.522874     3.517056     3.511237     3.505419     3.499600     3.493781     3.487963     3.482144
      3.476326     3.470507     3.464688     3.458870     3.453051     3.447232     3.441414     3.435595     3.429777     3.423958
      3.418139     3.412321     3.406502     3.400684     3.394865     3.389046     3.383228     3.377409     3.371591     3.365772
      3.359953     3.354135     3.348316     3.342498     3.336679     3.330860     3.325042     3.319223     3.313405     3.307586
      3.301767     3.295949     3.290130     3.284312     3.278493     3.272674     3.266856     3.261037     3.255219     3.249400
      3.243581     3.237763     3.231944     3.226125     3.220307     3.214488     3.208670     3.202851     3.197032     3.191214
      3.185395     3.179577     3.173758     3.167939     3.162121     3.156302     3.150484     3.144665     3.138846     3.133028
      3.127209     3.121391     3.115572     3.109753     3.103935     3.098116     3.092298     3.086479     3.080660     3.074842
      3.069023     3.063205     3.057386     3.051567     3.045749     3.039930     3.034111     3.028293     3.022474     3.016656
      3.010837     3.005018     2.999200     2.993381     2.987563     2.981744     2.975925     2.970107     2.964288     2.958470
      2.952651     2.946832     2.941014     2.935195     2.929377     2.923558     2.917739     2.911921     2.906102     2.900284
      2.894465     2.888646     2.882828     2.877009     2.871191     2.865372     2.859553     2.853735     2.847916     2.842098
      2.836279     2.830460     2.824642     2.818823     2.813004     2.807186     2.801367     2.795549     2.789730     2.783911
      2.778093     2.772274     2.766456     2.760637     2.754818     2.749000     2.743181     2.737363     2.731544     2.725725
      2.719907     2.714088     2.708270     2.702451     2.696632     2.690814     2.684995     2.679177     2.673358     2.667539
      2.661721     2.655902     2.650084     2.644265     2.638446     2.632628     2.626809     2.620991     2.615172     2.609353
      2.603535     2.597716     2.591897     2.586079     2.580260     2.574442     2.568623     2.562804     2.556986     2.551167
      2.545349     2.539530     2.533711     2.527893     2.522074     2.516256     2.510437     2.504618     2.498800     2.492981
      2.487163     2.481344     2.475525     2.469707     2.463888     2.458070     2.452251     2.446432     2.440614     2.434795
      2.428977     2.423158     2.417339     2.411521     2.405702     2.399884     2.394065     2.388246     2.382428     2.376609
      2.370790     2.364972     2.359153     2.353335     2.347516     2.341697     2.335879     2.330060     2.324242     2.318423
      2.312604     2.306786     2.300967     2.295149     2.289330     2.283511     2.277693     2.271874     2.266056     2.260237
      2.254418     2.248600     2.242781     2.236963     2.231144     2.225325     2.219507     2.213688     2.207870     2.202051
      2.196232     2.190414     2.184595     2.178777     2.172958     2.167139     2.161321     2.155502     2.149683     2.143865
      2.138046     2.132228     2.126409     2.120590     2.114772     2.108953     2.103135     2.097316     2.091497     2.085679
      2.079860     2.074042     2.068223     2.062404     2.056586     2.050767     2.044949     2.039130     2.033311     2.027493
      2.021674     2.015856     2.010037     2.004218     1.998400     1.992581     1.986763     1.980944     1.975126     1.969307
      1.963489     1.957670     1.951852     1.946033     1.940215     1.934397     1.928578     1.922760     1.916941     1.911123
      1.905304     1.899486     1.893667     1.887849     1.882030     1.876212     1.870393     1.864575     1.858756     1.852938
      1.847119     1.841301     1.835482     1.829664     1.823845     1.818027     1.812208     1.806390     1.800571     1.794753
      1.788934     1.783116     1.777297     1.771479     1.765660     1.759842     1.754023     1.748205     1.742386     1.736568
      1.730749     1.724931     1.719113     1.713294     1.707476     1.701657     1.695839     1.690020     1.684202     1.678383
      1.672565     1.666746     1.660928     1.655109     1.649291     1.643472     1.637654     1.631835     1.626017     1.620198
      1.614380     1.608561     1.602743     1.596924     1.591106     1.585287     1.579469     1.573650     1.567832     1.562013
      1.556195     1.550376     1.544558     1.538739     1.532921     1.527102     1.521284     1.515465     1.509647     1.503829
      1.498010     1.492192     1.486373     1.480555     1.474736     1.468918     1.463099     1.457281     1.451462     1.445644
      1.439825     1.434007     1.428188     1.422370     1.416551     1.410733     1.404914     1.399096     1.393277     1.387459
      1.381640     1.375822     1.370003     1.364185     1.358366     1.352548     1.346729     1.340911     1.335092     1.329274
      1.323455     1.317637     1.311818     1.306000     1.300182     1.294363     1.288545     1.282726     1.276908     1.271089
      1.265271     1.259452     1.253634     1.247815     1.241997     1.236178     1.230360     1.224541     1.218723     1.212904
      1.207086     1.201267     1.195449     1.189630     1.183812     1.177993     1.172175     1.166356     1.160538     1.154719
      1.148901     1.143082     1.137264     1.131445     1.125627     1.119808     1.113990     1.108171     1.102353     1.096534
      1.090716     1.084898     1.079079     1.073261     1.067442     1.061624     1.055805     1.049987     1.044168     1.038350
      1.032531     1.026713     1.020894     1.015076     1.009257     1.003439     0.997620     0.991802     0.985983     0.980165
      0.974346     0.968528     0.962709     0.956891     0.951072     0.945254     0.939435     0.933617     0.927798     0.921980
      0.916161     0.910343     0.904524     0.898706     0.892887     0.887069     0.881251     0.875432     0.869614     0.863795
      0.857977     0.852158     0.846340     0.840521     0.834703     0.828884     0.823066     0.817247     0.811429     0.805610
      0.799792     0.793973     0.788155     0.782336     0.776518     0.770699     0.764881     0.759062     0.753244     0.747425
      0.741607     0.735788     0.729970     0.724151     0.718333     0.712514     0.706696     0.700877     0.695059     0.689240
      0.683422     0.677603     0.671785     0.665967     0.660148     0.654330     0.648511     0.642693     0.636874     0.631056
      0.625237     0.619419     0.613600     0.607782     0.601963     0.596145     0.590326     0.584508     0.578689     0.572871
      0.567052     0.561234     0.555415     0.549597     0.543778     0.537960     0.532141     0.526323     0.520504     0.514686
      0.508867     0.503049     0.497230     0.491412     0.485593     0.479775     0.473956     0.468138     0.462319     0.456501
      0.450682     0.444864     0.439045     0.433227     0.427408     0.421590     0.415771     0.409953     0.404134     0.398316
      0.392497     0.386679     0.380860     0.375042     0.369223     0.363405     0.357586     0.351767     0.345949     0.340130
      0.334312     0.328493     0.322675     0.316856     0.311038     0.305219     0.299401     0.293582     0.287764     0.281945
      0.276127     0.270308     0.264490     0.258671     0.252853     0.247034     0.241216     0.235397     0.229579     0.223760
      0.217942     0.212123     0.206305     0.200486
 NY phased data points follow
  -3.00076E-01  1.62552E-01  1.60939E-01  4.69458E-02  2.71105E-01  1.48562E-01  2.22083E-01  1.68944E-01  5.15298E-01  2.66138E-01
   1.75988E-01  4.71698E-01  1.87010E-01 -1.11052E-01 -3.58770E-01 -7.95688E-02 -1.41655E-01 -1.52347E-01 -1.30610E-01 -3.72240E-01
  -3.24647E-01  1.66868E-01 -3.11513E-02 -4.25358E-01 -3.67660E-01 -6.00669E-01 -4.14253E-01 -2.25163E-01 -5.02551E-02 -4.74291E-02
  -2.83613E-02 -2.26428E-01 -3.16679E-01 -2.63231E-01 -1.40279E-01 -1.12321E-01 -2.67021E-01  9.92329E-02 -1.46737E-02  3.01600E-01
   3.45690E-01  3.76829E-01  5.99290E-01  3.68528E-01  3.61217E-01  3.87256E-01  5.53257E-01  2.46389E-01 -8.15626E-02  2.36347E-01
   8.64670E-02 -3.65184E-01  8.15601E-02 -7.57885E-02  1.94393E-01  2.27547E-01 -2.20403E-01  2.16513E-01  3.14113E-02  1.90816E-01
  -2.22711E-03 -9.56528E-02  2.50433E-01  5.86340E-02 -1.29615E-01 -2.73154E-01 -2.79236E-01 -1.66343E-01  1.13920E-01  1.30712E-01
  -2.93693E-01  1.12159E-01  1.00900E-02 -3.03119E-01  9.75364E-02 -6.03457E-01 -1.76609E-01  1.19303E-01 -1.24528E-01 -1.85305E-01
  -1.37494E-01  2.08331E-01 -5.79021E-01 -2.26177E-01  9.68688E-03 -1.64474E-01  2.07142E-02  2.17696E-01  4.09031E-01  6.61317E-02
   7.86873E-02 -6.49102E-02 -1.77246E-01  1.43527E-01 -8.82003E-02 -3.70402E-01 -7.43526E-02  3.39780E-02  3.06512E-01 -6.63726E-03
  -9.10477E-02 -4.71321E-02  1.11996E-01  4.10895E-01 -2.09342E-01  4.72110E-01  3.19926E-01  2.92112E-01  7.05491E-01  3.57791E-01
   6.83766E-01  3.55081E-01  4.17430E-01  2.32620E-01 -1.74031E-01 -2.00364E-01  6.82273E-02 -1.25484E-01 -4.23022E-01 -2.45117E-01
  -5.91300E-01 -2.85370E-01 -4.00333E-01 -3.00862E-01 -4.25540E-01 -5.77465E-01 -4.66364E-01 -8.83078E-01 -4.36800E-01 -4.59703E-01
  -3.33882E-01 -2.14343E-01 -4.59514E-01 -2.63690E-01 -3.85230E-01 -1.29566E-01  2.08887E-01 -3.25050E-01  1.59537E-01  3.64105E-01
   1.39353E-01  4.68132E-01 -2.52675E-01  3.24448E-01  4.53533E-01 -1.10048E-01  3.22598E-01  2.15301E-01  1.69243E-01  1.75093E-01
   1.97684E-01  4.61841E-01  3.49182E-01  1.28456E-01  2.70329E-01  2.18460E-01  3.24359E-01  4.79154E-02  9.31594E-02  3.85720E-01
  -3.33863E-01 -2.49279E-01  9.38890E-02  3.17711E-02 -6.43783E-03 -3.59406E-01  1.16910E-01 -2.09498E-01 -7.08969E-01 -2.78291E-01
  -5.06242E-01 -2.65960E-01 -6.18711E-01 -5.99671E-01 -2.68453E-01 -2.00864E-01 -2.11504E-01 -4.07067E-01 -4.89206E-02 -2.25426E-02
  -2.96010E-01 -6.80962E-01  4.42265E-02  5.88156E-02 -7.37995E-02  7.07536E-02 -1.23521E-02 -8.16925E-02 -7.45712E-02  2.59055E-01
   2.88751E-02  5.50132E-01  7.83460E-02  3.51365E-02  9.44834E-02 -1.69122E-01 -8.07063E-03 -2.32443E-01 -2.74162E-02 -1.57389E-01
  -9.80502E-02 -1.50288E-01  4.30690E-01  5.03099E-02 -3.12093E-01  3.20052E-01 -1.47481E-01 -3.04694E-02  6.58309E-02  1.50416E-01
   3.63898E-01  1.41212E-01  2.07447E-01  5.59756E-02  9.03637E-02  7.62503E-02 -1.00338E-01  1.76971E-01  2.21635E-01  2.46237E-01
  -3.14789E-02  3.00379E-01  5.15918E-01  3.60222E-02  2.52300E-01  4.75810E-01  7.13211E-01  2.77236E-01 -4.68305E-03  1.99240E-01
   2.14334E-01  1.08339E-01 -5.79450E-03  2.58356E-01  1.14968E-01  8.82450E-02 -2.56903E-02 -2.44432E-01 -4.77631E-01 -3.03115E-01
   1.16554E-01 -1.66417E-01 -3.26974E-01 -3.43982E-01  1.28058E-01  3.21840E-02 -1.00427E-01 -1.55530E-01 -1.80119E-01  1.75689E-01
   7.49891E-03  3.69963E-01  3.23884E-01  2.18020E-01  5.20810E-02  3.84642E-01  4.46282E-01 -1.45705E-01 -1.01721E-01  3.07172E-01
   4.60188E-01 -1.64223E-01  1.48251E-01  1.17934E-01  8.91478E-02  1.12461E-01  9.80185E-02 -4.22183E-02  1.00564E-02 -1.22894E-01
  -3.21018E-01  2.40312E-01 -3.38687E-01 -1.51808E-01 -2.99899E-01  3.23656E-01  3.17749E-01 -3.11862E-01 -1.79726E-01 -4.93507E-01
   8.03894E-02 -2.22445E-01  1.32763E-01  4.11224E-01  1.27545E-01  4.68067E-01  6.26317E-01  2.08870E-01  5.13558E-01  5.28881E-01
   3.52678E-01  5.73250E-01  8.37149E-02  3.41464E-01 -1.83554E-01 -3.03823E-01  1.65706E-01 -3.94611E-02 -4.42892E-01 -2.28090E-01
   1.28122E-01  1.90143E-01  1.77775E-01  5.10891E-02  4.57267E-01  3.58928E-01  1.80575E-01 -1.66148E-01  5.08864E-02 -7.70147E-03
  -3.82684E-01  1.71037E-02  3.16242E-01 -2.93334E-02 -2.64879E-01 -6.92638E-02 -4.11327E-01 -1.66966E-01 -2.39918E-01 -1.03979E-01
  -3.70057E-01 -7.73015E-01 -4.21519E-01 -3.80568E-01 -4.28727E-02 -2.87379E-01 -8.61629E-02 -2.90008E-01 -5.68454E-01 -4.14948E-01
  -4.91416E-01 -3.63402E-01 -3.51129E-01  2.90459E-02 -5.41587E-01 -5.54276E-01 -4.05575E-01 -7.43641E-01 -4.14248E-01 -3.20274E-01
  -4.38188E-01 -5.59023E-01 -3.40459E-01 -3.14283E-01 -1.04092E-01 -2.23993E-01 -3.33059E-01 -1.76562E-01  1.18760E-01  3.81234E-01
   6.29543E-01  8.19535E-01  3.44990E-01  6.94251E-01  6.37408E-01  3.06322E-01  2.84798E-01  1.84232E-01  1.38863E-01  4.89586E-01
   3.79893E-01  1.80241E-01  2.36794E-01 -8.56444E-02  1.78002E-01  5.36387E-02  2.66973E-01  8.34669E-02  1.03556E-01  1.07308E-01
   1.74222E-02  4.32817E-01  2.51847E-01 -7.33048E-02 -4.21890E-02  3.34417E-01  3.57199E-01  7.86165E-01  2.32906E-01 -4.26264E-02
  -3.75314E-01 -1.40499E-01  6.40917E-01  2.25578E-01  1.71628E-01 -2.59969E-01  2.08845E-01  5.35272E-01  4.16627E-02  5.73921E-02
   1.10288E-01 -3.93250E-01 -1.33945E-01  2.23853E-01 -8.68695E-03 -1.54965E-01 -7.49199E-02  1.85134E-01 -2.83148E-01 -2.80090E-01
  -9.61738E-02 -1.51290E-01 -4.54894E-01 -3.12916E-01 -2.43994E-01 -2.95593E-01 -3.01461E-01 -2.33706E-01 -1.73228E-01 -3.08636E-01
  -1.44115E-01 -4.25821E-01 -1.22397E-01 -7.55593E-02  2.37684E-01 -3.91537E-01 -7.46778E-01  1.26823E-01 -3.09763E-01 -7.54356E-02
   1.55540E-01  2.53159E-01 -5.52379E-02 -2.76396E-01  2.21528E-01 -1.62144E-01 -2.91549E-02  4.13951E-01 -1.17396E-02 -1.03483E-01
   5.83840E-02 -5.39756E-02 -2.00898E-01 -5.20574E-02  1.49667E-01  2.22969E-01  2.66042E-01  2.06162E-01  2.54857E-01 -1.89857E-01
  -2.41309E-01  1.75447E-01  2.30334E-01  2.96746E-01  4.45947E-01  2.31701E-01  2.28912E-01  5.46070E-01  1.95976E-01  2.99371E-01
   2.37703E-01  1.04332E-01  3.76126E-01  9.08201E-02  9.69648E-02  1.70373E-01  6.47122E-02 -2.31434E-01 -4.68923E-01 -2.54340E-01
  -2.99775E-02 -1.55397E-01 -4.09573E-01 -9.68491E-03  1.49694E-01  1.18042E-01 -3.15408E-02 -5.61506E-01 -2.42280E-01  8.28340E-02
  -2.17867E-01 -3.74917E-01 -2.18870E-01  3.36746E-03 -9.37392E-02 -1.09677E-01  2.01681E-01  1.84659E-01  1.58220E-01 -2.11892E-01
  -4.35022E-01  1.23490E-01  3.72585E-01  1.76717E-01  1.19243E-01  2.42089E-01  1.71172E-02  3.64893E-02  1.23816E-01  1.99716E-01
   1.90056E-01  1.10745E-01 -9.79968E-02 -2.52168E-01 -1.07928E-02  6.71623E-03 -1.06075E-02  2.29071E-01  3.52806E-01  1.57655E-01
   3.67282E-01 -6.42110E-03  8.32991E-02  2.69347E-01  3.39589E-02  8.47940E-02 -6.86307E-02 -8.71014E-02 -1.04274E-01  1.73186E-01
  -1.28882E-01 -1.11121E-01 -2.30725E-01 -2.17534E-01  2.02302E-01 -4.72756E-02 -5.71054E-01 -4.17914E-01 -6.73028E-02 -2.52857E-01
  -3.37048E-01 -3.35409E-01  2.75298E-02 -1.42098E-01  3.78410E-03 -5.66631E-01 -4.44242E-01  2.36395E-02 -1.91237E-03  1.75505E-01
  -2.37035E-01 -2.57062E-02 -4.80911E-01 -1.28757E-01  6.00866E-02 -4.09755E-02  1.12661E-01  1.32008E-01 -8.48805E-02 -1.23989E-01
   1.10155E-01 -2.47886E-01  2.40460E-01  2.46140E-01  7.27764E-02 -1.28948E-01 -6.10693E-02  2.11683E-01  3.50980E-02 -8.25646E-02
   5.15710E-01  4.04758E-01 -2.40073E-02  6.14819E-01  4.21042E-01  7.38003E-02  9.24079E-02  1.66366E-01 -1.88591E-01  1.32930E-01
   5.12189E-01  3.20152E-01 -1.52523E-01 -1.99112E-01  3.11688E-01  1.19948E-01  1.48054E-01  1.45252E-01  1.62694E-01  7.35747E-02
   2.34715E-01  1.57294E-01  4.99485E-02  1.48578E-01  3.48447E-02 -4.05263E-03 -1.29309E-01  8.16972E-02  1.62563E-01 -1.24627E-01
  -1.65036E-01  1.63545E-01  1.60218E-01 -3.20017E-02 -1.65112E-01  1.06111E-01 -7.14694E-02 -2.79991E-03  3.55397E-01 -6.00912E-03
   3.47965E-01  5.45412E-01  8.40222E-02 -4.60814E-02 -1.00545E-01 -2.46159E-01  1.60244E-02  5.10195E-02  7.30239E-02  1.96951E-01
   3.84787E-01  3.30898E-01 -8.99964E-02  6.73746E-02  4.66846E-02  1.02640E-01  3.98499E-01  2.98932E-01  1.29602E-01  5.85474E-02
  -9.33637E-03  8.79103E-02  1.90385E-01  1.19156E-01  1.92772E-02  2.01940E-01  4.22631E-01  2.02609E-01 -8.49865E-02  4.78320E-02
   1.21094E-01 -4.30717E-02  8.53512E-02 -1.29113E-02  1.69271E-01  4.45174E-01 -1.12128E-02 -1.16555E-01  5.54398E-02  4.29834E-02
   2.74060E-01  9.02347E-02  2.35545E-01  1.99126E-01 -7.15563E-02  1.38508E-01 -2.61613E-01  2.35967E-01  1.28547E-03 -2.40172E-01
   3.23077E-01 -2.82387E-01 -2.38159E-01 -5.30925E-02 -1.01084E-01 -2.05285E-01 -6.50903E-02 -2.66960E-02 -1.31483E-01  8.63525E-02
  -3.39360E-01 -9.28174E-02  2.68599E-01  3.49257E-02
 NY points of the fit to the data follow
   1.74258E-01  1.26185E-01  1.82757E-01  1.35156E-01  1.85794E-01  1.38796E-01  1.75637E-01  1.31629E-01  1.55776E-01  1.14387E-01
   1.24124E-01  8.60759E-02  8.40829E-02  5.02166E-02  3.18260E-02  3.44740E-03 -3.59519E-02 -5.55340E-02 -1.16989E-01 -1.22874E-01
  -1.92368E-01 -1.84539E-01 -2.43863E-01 -2.30361E-01 -2.69192E-01 -2.52330E-01 -2.68238E-01 -2.42631E-01 -2.43301E-01 -2.01964E-01
  -2.00664E-01 -1.41674E-01 -1.49408E-01 -7.76580E-02 -7.66530E-02  2.19570E-04  6.28209E-03  8.62865E-02  9.13925E-02  1.69752E-01
   1.71528E-01  2.38334E-01  2.38636E-01  2.86726E-01  2.85018E-01  3.01692E-01  2.94120E-01  2.67117E-01  2.58919E-01  1.80395E-01
   1.82067E-01  7.71756E-02  7.99628E-02 -1.35133E-02 -1.46628E-02 -7.55313E-02 -8.09942E-02 -1.02874E-01 -1.08700E-01 -9.35271E-02
  -9.72842E-02 -5.77763E-02 -6.02047E-02 -1.52123E-02 -3.04882E-02  1.85756E-02  4.23307E-05  3.99844E-02  2.50675E-02  6.07956E-02
   4.10982E-02  6.68288E-02  4.39138E-02  4.72130E-02  3.34741E-02  1.21012E-02  1.57085E-02 -1.55763E-02  5.95697E-03 -2.32366E-02
   1.02807E-02 -1.75508E-02  2.45509E-02 -2.07064E-02  4.33581E-02 -2.84423E-02  6.60936E-02 -3.80426E-02  7.36984E-02 -6.33666E-02
   4.95210E-02 -1.13041E-01  7.73288E-03 -1.66934E-01 -2.94223E-02 -1.95514E-01 -4.05973E-02 -1.77235E-01 -1.63508E-02 -1.01910E-01
   4.65192E-02  2.10718E-02  1.21836E-01  1.66900E-01  1.93983E-01  2.94443E-01  2.37809E-01  3.59630E-01  2.41295E-01  3.45791E-01
   1.99844E-01  2.66899E-01  1.13407E-01  1.39733E-01 -1.24355E-02 -6.62089E-03 -1.43339E-01 -1.30421E-01 -2.50084E-01 -2.36656E-01
  -3.55218E-01 -3.31649E-01 -4.54594E-01 -4.11450E-01 -5.28956E-01 -4.65561E-01 -5.64712E-01 -4.86918E-01 -5.52210E-01 -4.64488E-01
  -4.80479E-01 -3.96625E-01 -3.51041E-01 -2.86453E-01 -1.77485E-01 -1.42886E-01  9.48103E-03  1.02923E-02  1.68386E-01  1.47055E-01
   2.74666E-01  2.51504E-01  3.30105E-01  3.15185E-01  3.41227E-01  3.32945E-01  3.23696E-01  3.20313E-01  3.01325E-01  3.05372E-01
   3.02019E-01  2.93969E-01  2.67942E-01  2.55106E-01  2.01150E-01  2.04950E-01  1.34282E-01  1.47006E-01  6.21978E-02  7.86673E-02
  -2.25896E-02 -3.11458E-03 -1.14559E-01 -9.44861E-02 -2.11036E-01 -1.90869E-01 -3.02665E-01 -2.82750E-01 -3.74396E-01 -3.55873E-01
  -4.13361E-01 -3.96100E-01 -4.04924E-01 -3.88450E-01 -3.38314E-01 -3.29013E-01 -2.34805E-01 -2.38290E-01 -1.32029E-01 -1.45194E-01
  -5.17226E-02 -6.87621E-02 -3.58541E-03 -1.81361E-02  1.64151E-02  6.62424E-03  1.31647E-02  1.61081E-02  2.19025E-02  2.81570E-02
   3.03964E-02  3.79731E-02  3.80140E-02  4.40999E-02  4.29867E-02  4.65454E-02  4.45853E-02  4.60754E-02  4.34448E-02  4.37231E-02
   4.05008E-02  3.91098E-02  3.53899E-02  3.24490E-02  2.85058E-02  2.41920E-02  2.05948E-02  1.57192E-02  1.41979E-02  2.14317E-02
   2.36433E-02  3.74253E-02  3.98224E-02  5.71463E-02  7.26020E-02  9.64896E-02  1.13474E-01  1.41350E-01  1.50352E-01  1.76125E-01
   1.77070E-01  1.99087E-01  1.93586E-01  2.09496E-01  1.94909E-01  2.00920E-01  1.77079E-01  1.70380E-01  1.37396E-01  1.16738E-01
   7.55451E-02  4.23090E-02 -2.93739E-03 -4.02919E-02 -8.38249E-02 -1.17198E-01 -1.53569E-01 -1.79376E-01 -2.00718E-01 -2.16865E-01
  -2.21211E-01 -2.10351E-01 -2.13341E-01 -1.79994E-01 -1.76089E-01 -1.38890E-01 -1.28556E-01 -9.41140E-02 -7.43847E-02 -4.47390E-02
  -2.73421E-02 -5.04243E-03  1.81089E-02  3.50849E-02  6.35046E-02  7.19874E-02  1.06262E-01  1.01412E-01  1.39041E-01  1.17978E-01
   1.53521E-01  1.15308E-01  1.40364E-01  8.59521E-02  8.88681E-02  2.38778E-02 -2.08881E-05 -6.06735E-02 -1.01010E-01 -1.32774E-01
  -1.78503E-01 -1.70160E-01 -2.08827E-01 -1.76600E-01 -1.93391E-01 -1.51760E-01 -1.41164E-01 -1.00952E-01 -6.50811E-02 -1.72738E-02
   2.57533E-02  8.48614E-02  1.26379E-01  1.95715E-01  2.24836E-01  2.94402E-01  3.07162E-01  3.64896E-01  3.56723E-01  3.87612E-01
   3.59356E-01  3.52705E-01  3.14667E-01  2.74960E-01  2.40565E-01  1.86752E-01  1.64629E-01  1.15257E-01  1.07966E-01  7.25193E-02
   7.66395E-02  5.52009E-02  6.13830E-02  4.55870E-02  4.55160E-02  2.04434E-02  1.64105E-02 -2.54671E-02 -2.95129E-02 -8.22502E-02
  -8.04111E-02 -1.37004E-01 -1.23892E-01 -1.80161E-01 -1.56756E-01 -2.09225E-01 -1.81478E-01 -2.24622E-01 -1.94044E-01 -2.25263E-01
  -1.87944E-01 -2.07225E-01 -1.61773E-01 -1.68274E-01 -1.19096E-01 -1.19262E-01 -1.57962E-01 -1.77351E-01 -2.48662E-01 -2.77777E-01
  -3.37044E-01 -3.70351E-01 -4.17374E-01 -4.59510E-01 -4.98221E-01 -5.49931E-01 -5.57003E-01 -6.05787E-01 -5.77084E-01 -6.09865E-01
  -5.43281E-01 -5.44998E-01 -4.44407E-01 -4.06154E-01 -2.83567E-01 -2.08811E-01 -7.09502E-02  2.83900E-02  1.67046E-01  2.70968E-01
   3.61310E-01  4.40959E-01  4.50800E-01  4.88023E-01  4.33477E-01  4.31975E-01  3.41925E-01  3.15668E-01  2.25164E-01  1.90022E-01
   1.20048E-01  8.94262E-02  8.30667E-02  7.04135E-02  7.42825E-02  6.79124E-02  7.57227E-02  7.34876E-02  8.22929E-02  8.33863E-02
   9.06775E-02  9.45954E-02  9.85254E-02  1.04449E-01  1.05147E-01  1.12044E-01  1.10638E-01  1.17384E-01  1.14896E-01  1.20351E-01
   1.17624E-01  1.21449E-01  1.18652E-01  1.21047E-01  1.17993E-01  1.18755E-01  1.15056E-01  1.13820E-01  1.09060E-01  1.05486E-01
   9.95751E-02  9.34964E-02  8.63966E-02  7.76005E-02  6.94728E-02  5.83758E-02  4.91389E-02  3.68257E-02  2.64737E-02  1.41939E-02
   3.26649E-03 -7.75659E-03 -1.85425E-02 -2.74426E-02 -3.73223E-02 -4.35807E-02 -5.17776E-02 -5.52999E-02 -6.08088E-02 -6.20167E-02
  -6.44990E-02 -6.36385E-02 -6.32241E-02 -6.07017E-02 -5.71660E-02 -5.33733E-02 -4.74478E-02 -4.29829E-02 -3.53872E-02 -3.00375E-02
  -2.10075E-02 -1.42642E-02 -4.25932E-03  4.00175E-03  1.47931E-02  2.47913E-02  3.62415E-02  4.81240E-02  6.00318E-02  7.38103E-02
   8.57696E-02  1.01322E-01  1.13292E-01  1.29896E-01  1.41729E-01  1.58281E-01  1.69711E-01  1.85239E-01  1.96145E-01  2.09645E-01
   2.19718E-01  2.29378E-01  2.37793E-01  2.41610E-01  2.47029E-01  2.44163E-01  2.45315E-01  2.35578E-01  2.31414E-01  2.15157E-01
   2.05403E-01  1.83986E-01  1.69370E-01  1.44862E-01  1.26784E-01  1.01210E-01  8.17895E-02  5.71231E-02  3.89024E-02  1.68872E-02
   2.18924E-03 -1.57051E-02 -2.56497E-02 -3.80668E-02 -4.28786E-02 -4.90253E-02 -4.89295E-02 -4.85349E-02 -4.45683E-02 -3.81272E-02
  -3.15281E-02 -2.02684E-02 -1.21957E-02  2.11370E-03  1.14337E-02  2.66965E-02  3.67550E-02  5.12054E-02  6.11159E-02  7.37588E-02
   8.23108E-02  9.19570E-02  9.80971E-02  1.04153E-01  1.07115E-01  1.09533E-01  1.08874E-01  1.07814E-01  1.03967E-01  9.95502E-02
   9.35208E-02  8.61206E-02  7.90198E-02  6.99384E-02  6.26413E-02  5.28208E-02  4.56789E-02  3.60878E-02  2.92697E-02  2.04606E-02
   1.36849E-02  6.23147E-03 -9.17845E-04 -7.02896E-03 -1.48909E-02 -2.06713E-02 -3.01401E-02 -3.68646E-02 -4.82396E-02 -5.71910E-02
  -7.08641E-02 -8.27393E-02 -9.86202E-02 -1.13579E-01 -1.31628E-01 -1.49315E-01 -1.68243E-01 -1.87166E-01 -2.05901E-01 -2.24239E-01
  -2.40807E-01 -2.56178E-01 -2.68708E-01 -2.79057E-01 -2.85958E-01 -2.89844E-01 -2.89999E-01 -2.85907E-01 -2.78902E-01 -2.66558E-01
  -2.52836E-01 -2.32961E-01 -2.13863E-01 -1.88689E-01 -1.65823E-01 -1.38150E-01 -1.13654E-01 -8.60101E-02 -6.21279E-02 -3.70329E-02
  -1.52681E-02  5.80317E-03  2.54027E-02  4.14019E-02  5.83601E-02  6.96879E-02  8.42620E-02  9.13588E-02  1.03758E-01  1.07152E-01
   1.17217E-01  1.17868E-01  1.24802E-01  1.23355E-01  1.26747E-01  1.24323E-01  1.23952E-01  1.21148E-01  1.18025E-01  1.15282E-01
   1.10366E-01  1.07894E-01  1.02169E-01  9.97936E-02  9.41433E-02  9.18900E-02  8.69090E-02  8.45839E-02  8.08435E-02  7.82308E-02
   7.58024E-02  7.31940E-02  7.19616E-02  6.95373E-02  6.90636E-02  6.64153E-02  6.60831E-02  6.35759E-02  6.27199E-02  6.06811E-02
   5.92319E-02  5.76442E-02  5.56613E-02  5.41957E-02  5.20422E-02  5.07023E-02  4.93172E-02  4.78185E-02  4.73048E-02  4.58989E-02
   4.62545E-02  4.48692E-02  4.59890E-02  4.45566E-02  4.64530E-02  4.50117E-02  4.77300E-02  4.61717E-02  4.94773E-02  4.80142E-02
   5.15328E-02  5.04368E-02  5.38316E-02  5.34413E-02  5.62704E-02  5.62397E-02  5.84642E-02  5.90533E-02  6.03910E-02  6.16098E-02
   6.19400E-02  6.32134E-02  6.32133E-02  6.37236E-02  6.40890E-02  6.41468E-02  6.48313E-02  6.45308E-02  6.54468E-02  6.51727E-02
   6.63316E-02  6.60527E-02  6.66460E-02  6.65322E-02  6.65606E-02  6.64869E-02  6.58307E-02  6.57941E-02  6.45651E-02  6.44427E-02
   6.30582E-02  6.26852E-02  6.20257E-02  6.23919E-02  6.22454E-02  6.37992E-02  6.36510E-02  6.64573E-02  6.60534E-02  6.99012E-02
   6.97300E-02  7.43278E-02  7.46129E-02  7.90181E-02  7.99723E-02  8.37264E-02  8.54500E-02  8.90546E-02  9.13537E-02  9.53514E-02
   9.77711E-02  1.02930E-01  1.05135E-01  1.11609E-01
 NY background values follow
     4.970E-02    4.964E-02    4.958E-02    4.952E-02    4.946E-02    4.940E-02    4.934E-02    4.928E-02    4.922E-02    4.916E-02
     4.910E-02    4.904E-02    4.898E-02    4.892E-02    4.886E-02    4.880E-02    4.874E-02    4.868E-02    4.862E-02    4.856E-02
     4.850E-02    4.844E-02    4.838E-02    4.832E-02    4.826E-02    4.820E-02    4.814E-02    4.809E-02    4.803E-02    4.797E-02
     4.791E-02    4.785E-02    4.779E-02    4.773E-02    4.767E-02    4.761E-02    4.755E-02    4.749E-02    4.743E-02    4.737E-02
     4.731E-02    4.725E-02    4.719E-02    4.713E-02    4.707E-02    4.701E-02    4.695E-02    4.689E-02    4.683E-02    4.677E-02
     4.671E-02    4.665E-02    4.659E-02    4.653E-02    4.647E-02    4.641E-02    4.635E-02    4.629E-02    4.623E-02    4.617E-02
     4.612E-02    4.606E-02    4.600E-02    4.594E-02    4.588E-02    4.582E-02    4.576E-02    4.570E-02    4.564E-02    4.558E-02
