 
 $NMID
 ID=''
 FMTDAT='(2E13.5)'
 TRAMP=   1.00000E+0
 VOLUME=   1.00000E+0
 $END
  -1.07400E+4  -6.23814E+3
  -2.25416E+4  -2.33046E+4
  -2.69907E+4  -1.92289E+4
  -2.55152E+4  -1.76997E+4
  -2.62358E+4  -1.90867E+4
  -2.72371E+4  -1.80145E+4
  -2.63314E+4  -1.75465E+4
  -2.63029E+4  -1.82423E+4
  -2.69614E+4  -1.73320E+4
  -2.63001E+4  -1.70097E+4
  -2.61797E+4  -1.74050E+4
  -2.64365E+4  -1.66370E+4
  -2.60695E+4  -1.62401E+4
  -2.59280E+4  -1.66033E+4
  -2.59823E+4  -1.60708E+4
  -2.56008E+4  -1.56098E+4
  -2.55521E+4  -1.56843E+4
  -2.55819E+4  -1.51576E+4
  -2.53198E+4  -1.46281E+4
  -2.53172E+4  -1.46519E+4
  -2.53252E+4  -1.42075E+4
  -2.51724E+4  -1.36698E+4
  -2.52608E+4  -1.36031E+4
  -2.52453E+4  -1.33162E+4
  -2.50709E+4  -1.29750E+4
  -2.50308E+4  -1.27717E+4
  -2.51119E+4  -1.25704E+4
  -2.49863E+4  -1.24367E+4
  -2.47837E+4  -1.23876E+4
  -2.47970E+4  -1.21007E+4
  -2.47115E+4  -1.17608E+4
  -2.46572E+4  -1.17461E+4
  -2.46236E+4  -1.16162E+4
  -2.43533E+4  -1.13973E+4
  -2.41799E+4  -1.12107E+4
  -2.41562E+4  -1.09516E+4
  -2.39503E+4  -1.07408E+4
  -2.38963E+4  -1.04778E+4
  -2.38673E+4  -1.02576E+4
  -2.36625E+4  -1.00307E+4
  -2.35326E+4  -9.84481E+3
  -2.35747E+4  -9.75969E+3
  -2.33623E+4  -9.49224E+3
  -2.31920E+4  -9.28758E+3
  -2.31521E+4  -9.01881E+3
  -2.30590E+4  -8.85050E+3
  -2.31076E+4  -8.52035E+3
  -2.29811E+4  -8.34956E+3
  -2.29034E+4  -8.14044E+3
  -2.28791E+4  -8.04438E+3
  -2.27593E+4  -7.91971E+3
  -2.27264E+4  -7.65414E+3
  -2.26298E+4  -7.52023E+3
  -2.26223E+4  -7.34196E+3
  -2.25265E+4  -7.21313E+3
  -2.25443E+4  -7.04270E+3
  -2.24664E+4  -6.95721E+3
  -2.22808E+4  -6.84959E+3
  -2.21948E+4  -6.76896E+3
  -2.20891E+4  -6.62626E+3
  -2.19521E+4  -6.38605E+3
  -2.18671E+4  -6.28614E+3
  -2.17545E+4  -6.09894E+3
  -2.15990E+4  -5.97179E+3
  -2.13965E+4  -5.92051E+3
  -2.13168E+4  -5.70139E+3
  -2.12505E+4  -5.50870E+3
  -2.11624E+4  -5.40849E+3
  -2.10166E+4  -5.21899E+3
  -2.08682E+4  -5.08337E+3
  -2.07535E+4  -5.02505E+3
  -2.06837E+4  -4.84635E+3
  -2.05273E+4  -4.64579E+3
  -2.03938E+4  -4.50254E+3
  -2.03622E+4  -4.38270E+3
  -2.02275E+4  -4.21954E+3
  -2.02027E+4  -4.01969E+3
  -2.00431E+4  -3.91141E+3
  -1.98752E+4  -3.76584E+3
  -1.98225E+4  -3.61966E+3
  -1.97658E+4  -3.43936E+3
  -1.95983E+4  -3.40462E+3
  -1.95401E+4  -3.20468E+3
  -1.94555E+4  -3.05059E+3
  -1.93360E+4  -2.99068E+3
  -1.92031E+4  -2.86445E+3
  -1.90659E+4  -2.80826E+3
  -1.89492E+4  -2.60631E+3
  -1.88516E+4  -2.44866E+3
  -1.88455E+4  -2.32960E+3
  -1.86975E+4  -2.20273E+3
  -1.86137E+4  -2.09534E+3
  -1.85695E+4  -1.91527E+3
  -1.84478E+4  -1.81127E+3
  -1.83785E+4  -1.63733E+3
  -1.82069E+4  -1.53355E+3
  -1.81724E+4  -1.39065E+3
  -1.81761E+4  -1.26987E+3
  -1.80604E+4  -1.08846E+3
  -1.79743E+4  -1.05065E+3
  -1.78475E+4  -9.43168E+2
  -1.77550E+4  -8.21384E+2
  -1.77316E+4  -6.44193E+2
  -1.76730E+4  -5.53438E+2
  -1.75694E+4  -4.94202E+2
  -1.75614E+4  -3.51393E+2
  -1.73931E+4  -2.85574E+2
  -1.74054E+4  -1.97727E+2
  -1.73135E+4  -1.11731E+2
  -1.71714E+4   3.81612E+1
  -1.70584E+4   1.42271E+2
  -1.71206E+4   2.75795E+2
  -1.70182E+4   3.40792E+2
  -1.68753E+4   4.68648E+2
  -1.68326E+4   5.86900E+2
  -1.67636E+4   6.43319E+2
  -1.66959E+4   6.75382E+2
  -1.65750E+4   8.32906E+2
  -1.64550E+4   8.51015E+2
  -1.63931E+4   9.50750E+2
  -1.62833E+4   1.00864E+3
  -1.62759E+4   1.07194E+3
  -1.61278E+4   1.19893E+3
  -1.60668E+4   1.28756E+3
  -1.59254E+4   1.28005E+3
  -1.58084E+4   1.40171E+3
  -1.57776E+4   1.50037E+3
  -1.56709E+4   1.53703E+3
  -1.56171E+4   1.59493E+3
  -1.54462E+4   1.74422E+3
  -1.54346E+4   1.75470E+3
  -1.53106E+4   1.79847E+3
  -1.51561E+4   1.94662E+3
  -1.51199E+4   1.94214E+3
  -1.50385E+4   2.08324E+3
  -1.49172E+4   2.13784E+3
  -1.48114E+4   2.15269E+3
  -1.46998E+4   2.27836E+3
  -1.46206E+4   2.30885E+3
  -1.45171E+4   2.39980E+3
  -1.43917E+4   2.47822E+3
  -1.43173E+4   2.51182E+3
  -1.41355E+4   2.56547E+3
  -1.40650E+4   2.65044E+3
  -1.40526E+4   2.65507E+3
  -1.38855E+4   2.70354E+3
  -1.37417E+4   2.83478E+3
  -1.36604E+4   2.79530E+3
  -1.35992E+4   2.85952E+3
  -1.34625E+4   2.99144E+3
  -1.33803E+4   2.96877E+3
  -1.32140E+4   3.00452E+3
  -1.31605E+4   3.10555E+3
  -1.30171E+4   3.15486E+3
  -1.29227E+4   3.19016E+3
  -1.28404E+4   3.25796E+3
  -1.26753E+4   3.36721E+3
  -1.26456E+4   3.40423E+3
  -1.25291E+4   3.37090E+3
  -1.24107E+4   3.42008E+3
  -1.23203E+4   3.48513E+3
  -1.22521E+4   3.54185E+3
  -1.20938E+4   3.55017E+3
  -1.19880E+4   3.64939E+3
  -1.18868E+4   3.62446E+3
  -1.18762E+4   3.69133E+3
  -1.17529E+4   3.69870E+3
  -1.16019E+4   3.79475E+3
  -1.15448E+4   3.83920E+3
  -1.14502E+4   3.89376E+3
  -1.13154E+4   3.91391E+3
  -1.12071E+4   4.00685E+3
  -1.11336E+4   3.99000E+3
  -1.09938E+4   4.05108E+3
  -1.08923E+4   4.05060E+3
  -1.08938E+4   4.05477E+3
  -1.07181E+4   4.07806E+3
  -1.06576E+4   4.18284E+3
  -1.05538E+4   4.19539E+3
  -1.04815E+4   4.17797E+3
  -1.03880E+4   4.18682E+3
  -1.02776E+4   4.25340E+3
  -1.02380E+4   4.30185E+3
  -1.01550E+4   4.32925E+3
  -9.98488E+3   4.35232E+3
  -9.90353E+3   4.33925E+3
  -9.76926E+3   4.33081E+3
  -9.72095E+3   4.35590E+3
  -9.62377E+3   4.39386E+3
  -9.45101E+3   4.42434E+3
  -9.36943E+3   4.43086E+3
  -9.31171E+3   4.38709E+3
  -9.17957E+3   4.47340E+3
  -9.14344E+3   4.43833E+3
  -8.97918E+3   4.47314E+3
  -8.88285E+3   4.49196E+3
  -8.84266E+3   4.46058E+3
  -8.68942E+3   4.53479E+3
  -8.63536E+3   4.47647E+3
  -8.53077E+3   4.56205E+3
  -8.46741E+3   4.58781E+3
  -8.38377E+3   4.49239E+3
  -8.28397E+3   4.57206E+3
  -8.20482E+3   4.51042E+3
  -8.09195E+3   4.60948E+3
  -8.01268E+3   4.64118E+3
  -7.92716E+3   4.57696E+3
  -7.84030E+3   4.58751E+3
  -7.74596E+3   4.57828E+3
  -7.64596E+3   4.63206E+3
  -7.58031E+3   4.64225E+3
  -7.51134E+3   4.59434E+3
  -7.38461E+3   4.61981E+3
  -7.33806E+3   4.60617E+3
  -7.23443E+3   4.60696E+3
  -7.15022E+3   4.59034E+3
  -7.04864E+3   4.66720E+3
  -7.04683E+3   4.66625E+3
  -6.87869E+3   4.69620E+3
  -6.79954E+3   4.70579E+3
  -6.78177E+3   4.66353E+3
  -6.65512E+3   4.67185E+3
  -6.61664E+3   4.66847E+3
  -6.55624E+3   4.67169E+3
  -6.41198E+3   4.63775E+3
  -6.35282E+3   4.69795E+3
  -6.25085E+3   4.66536E+3
  -6.20784E+3   4.72730E+3
  -6.21706E+3   4.73501E+3
  -6.06400E+3   4.59514E+3
  -6.11816E+3   4.78131E+3
  -6.01915E+3   4.68292E+3
  -5.94391E+3   4.71651E+3
  -5.86305E+3   4.67191E+3
  -5.72883E+3   4.67614E+3
  -5.70896E+3   4.68166E+3
  -5.64159E+3   4.66484E+3
  -5.57978E+3   4.65163E+3
  -5.48384E+3   4.68291E+3
  -5.39966E+3   4.60215E+3
  -5.32051E+3   4.66594E+3
  -5.35455E+3   4.72764E+3
  -5.24062E+3   4.63991E+3
  -5.20346E+3   4.68196E+3
  -5.13605E+3   4.70875E+3
  -5.13493E+3   4.65021E+3
  -4.98479E+3   4.65018E+3
  -4.95255E+3   4.61883E+3
  -4.88524E+3   4.61076E+3
  -4.82484E+3   4.65766E+3
  -4.73749E+3   4.56465E+3
  -4.72695E+3   4.55372E+3
  -4.66590E+3   4.60136E+3
  -4.50674E+3   4.52518E+3
  -4.55025E+3   4.58858E+3
  -4.54381E+3   4.53021E+3
  -4.43738E+3   4.58098E+3
  -4.42444E+3   4.62989E+3
  -4.26017E+3   4.57671E+3
  -4.22506E+3   4.49308E+3
  -4.20573E+3   4.54597E+3
  -4.06792E+3   4.49336E+3
  -4.06229E+3   4.50087E+3
  -4.03934E+3   4.47277E+3
  -3.93764E+3   4.46924E+3
  -3.88041E+3   4.40422E+3
  -3.79203E+3   4.47333E+3
  -3.76936E+3   4.43079E+3
  -3.78409E+3   4.44943E+3
  -3.65177E+3   4.42782E+3
  -3.67209E+3   4.34759E+3
  -3.52813E+3   4.41824E+3
  -3.48923E+3   4.39349E+3
  -3.52963E+3   4.40842E+3
  -3.43526E+3   4.32630E+3
  -3.35954E+3   4.32801E+3
  -3.29697E+3   4.39430E+3
  -3.20620E+3   4.35459E+3
  -3.23188E+3   4.32282E+3
  -3.13900E+3   4.28671E+3
  -3.18357E+3   4.27901E+3
  -3.04135E+3   4.32648E+3
  -3.04711E+3   4.25052E+3
  -3.04454E+3   4.28231E+3
  -2.94321E+3   4.23170E+3
  -2.89256E+3   4.23562E+3
  -2.85377E+3   4.22051E+3
  -2.80227E+3   4.24416E+3
  -2.78110E+3   4.18548E+3
  -2.73672E+3   4.15979E+3
  -2.66174E+3   4.18381E+3
  -2.66828E+3   4.14043E+3
  -2.60961E+3   4.09343E+3
  -2.52421E+3   4.12824E+3
  -2.53148E+3   4.05169E+3
  -2.45154E+3   4.14712E+3
  -2.38039E+3   3.98052E+3
  -2.34884E+3   4.02051E+3
  -2.34342E+3   4.02759E+3
  -2.32186E+3   3.95747E+3
  -2.26442E+3   3.96872E+3
  -2.13010E+3   3.94101E+3
  -2.21563E+3   3.99773E+3
  -2.13944E+3   3.89414E+3
  -2.12813E+3   3.88635E+3
  -2.05138E+3   3.88731E+3
  -1.99168E+3   3.92129E+3
  -1.93296E+3   3.79315E+3
  -1.99176E+3   3.80202E+3
  -1.87675E+3   3.77822E+3
  -1.87597E+3   3.85019E+3
  -1.76662E+3   3.70338E+3
  -1.78466E+3   3.72876E+3
  -1.77756E+3   3.75973E+3
  -1.69407E+3   3.69697E+3
  -1.66801E+3   3.68134E+3
  -1.67464E+3   3.69338E+3
  -1.60824E+3   3.61098E+3
  -1.60297E+3   3.57630E+3
  -1.54210E+3   3.52266E+3
  -1.47483E+3   3.50809E+3
  -1.45956E+3   3.47021E+3
  -1.50405E+3   3.54755E+3
  -1.49938E+3   3.49306E+3
  -1.39213E+3   3.41330E+3
  -1.28115E+3   3.43806E+3
  -1.31354E+3   3.38492E+3
  -1.28964E+3   3.34259E+3
  -1.26403E+3   3.34677E+3
  -1.19173E+3   3.30486E+3
  -1.15430E+3   3.31561E+3
  -1.17105E+3   3.26246E+3
  -1.10733E+3   3.20831E+3
  -1.06390E+3   3.20272E+3
  -1.07799E+3   3.20947E+3
  -1.02037E+3   3.16747E+3
  -9.51935E+2   3.11348E+3
  -9.63932E+2   3.07863E+3
  -9.30637E+2   3.05150E+3
  -9.09573E+2   3.01987E+3
  -9.33919E+2   3.06995E+3
  -8.82230E+2   3.04804E+3
  -8.83119E+2   2.95775E+3
  -8.31036E+2   2.93454E+3
  -7.90176E+2   2.91495E+3
  -7.21544E+2   2.80818E+3
  -7.56190E+2   2.82441E+3
  -7.47763E+2   2.81290E+3
  -6.88866E+2   2.86808E+3
  -6.87453E+2   2.73014E+3
  -6.18272E+2   2.73913E+3
  -6.46619E+2   2.71199E+3
  -5.95617E+2   2.73788E+3
  -5.50549E+2   2.67912E+3
  -6.27055E+2   2.61639E+3
  -5.20857E+2   2.59453E+3
  -5.52643E+2   2.61814E+3
  -4.96984E+2   2.60417E+3
  -4.65971E+2   2.53141E+3
  -4.97098E+2   2.51869E+3
  -4.64227E+2   2.47213E+3
  -4.59705E+2   2.44796E+3
  -4.54173E+2   2.42835E+3
  -3.42048E+2   2.43343E+3
  -4.19541E+2   2.38357E+3
  -3.34281E+2   2.38462E+3
  -2.86233E+2   2.34833E+3
