 LCModel (Version 6.3-1N) Copyright: S.W. Provencher.          Ref.: Magn. Reson. Med. 30:672-679 (1993).                
 Slice_N1@19_14  02-Jun-2023 14:37:06
 27 lines in following concentration table = NCONC+1
    Conc.  %SD /Cr+PCr  Metabolite                                         
 2.74E-06  12% 2.8E-04 Mac                                                 
 3.53E-02  18%   3.581 Cr                                                  
 4.35E-02  15%   4.419 PCr                                                 
 8.10E-02   9%   8.217 Ins                                                 
 9.95E-02   6%  10.095 NAA                                                 
 7.54E-02   9%   7.657 Tau                                                 
 7.92E-03  52%   0.804 PCho                                                
 6.93E-03  57%   0.703 GPC                                                 
 7.75E-02  11%   7.864 Glu                                                 
 2.42E-02  26%   2.458 Gln                                                 
 4.82E-03 122%   0.489 Ala                                                 
 3.10E-02  39%   3.147 Asc                                                 
 1.58E-02  50%   1.603 Asp                                                 
 1.21E-02  34%   1.224 GABA                                                
 1.45E-02  39%   1.467 Glc                                                 
 1.34E-02  28%   1.358 GSH                                                 
    0.000 999%   0.000 Lac                                                 
 4.87E-03  76%   0.494 NAAG                                                
    0.000 999%   0.000 PE                                                  
 1.48E-02  11%   1.507 GPC+PCho                                            
    0.104   7%  10.589 NAA+NAAG                                            
    0.102  10%  10.322 Glu+Gln                                             
 7.88E-02   7%   8.000 Cr+PCr                                              
    0.104   7%  10.589 NAA+NAAG                                            
 7.88E-02   7%   8.000 Cr+PCr                                              
    0.102  10%  10.322 Glu+Gln                                             
   6 lines in following misc. output table
  FWHM = 0.017 ppm    S/N =   8                                            
  Data shift = 0.023 ppm                                                   
  Ph: -40 deg     -12.0 deg/ppm                                            
  alphaB,S = 9.1E-01,   3.9E-01                                            
   18 spline knots.   Ns = 5(1)                                            
   2 inflections.     1 extrema                                            
  654 points on ppm-axis = NY
      4.000000     3.994181     3.988363     3.982544     3.976726     3.970907     3.965088     3.959270     3.953451     3.947633
      3.941814     3.935995     3.930177     3.924358     3.918540     3.912721     3.906902     3.901084     3.895265     3.889446
      3.883628     3.877809     3.871991     3.866172     3.860353     3.854535     3.848716     3.842898     3.837079     3.831260
      3.825442     3.819623     3.813805     3.807986     3.802167     3.796349     3.790530     3.784712     3.778893     3.773074
      3.767256     3.761437     3.755619     3.749800     3.743981     3.738163     3.732344     3.726526     3.720707     3.714888
      3.709070     3.703251     3.697433     3.691614     3.685795     3.679977     3.674158     3.668339     3.662521     3.656702
      3.650884     3.645065     3.639246     3.633428     3.627609     3.621791     3.615972     3.610153     3.604335     3.598516
      3.592698     3.586879     3.581060     3.575242     3.569423     3.563605     3.557786     3.551967     3.546149     3.540330
      3.534512     3.528693     3.522874     3.517056     3.511237     3.505419     3.499600     3.493781     3.487963     3.482144
      3.476326     3.470507     3.464688     3.458870     3.453051     3.447232     3.441414     3.435595     3.429777     3.423958
      3.418139     3.412321     3.406502     3.400684     3.394865     3.389046     3.383228     3.377409     3.371591     3.365772
      3.359953     3.354135     3.348316     3.342498     3.336679     3.330860     3.325042     3.319223     3.313405     3.307586
      3.301767     3.295949     3.290130     3.284312     3.278493     3.272674     3.266856     3.261037     3.255219     3.249400
      3.243581     3.237763     3.231944     3.226125     3.220307     3.214488     3.208670     3.202851     3.197032     3.191214
      3.185395     3.179577     3.173758     3.167939     3.162121     3.156302     3.150484     3.144665     3.138846     3.133028
      3.127209     3.121391     3.115572     3.109753     3.103935     3.098116     3.092298     3.086479     3.080660     3.074842
      3.069023     3.063205     3.057386     3.051567     3.045749     3.039930     3.034111     3.028293     3.022474     3.016656
      3.010837     3.005018     2.999200     2.993381     2.987563     2.981744     2.975925     2.970107     2.964288     2.958470
      2.952651     2.946832     2.941014     2.935195     2.929377     2.923558     2.917739     2.911921     2.906102     2.900284
      2.894465     2.888646     2.882828     2.877009     2.871191     2.865372     2.859553     2.853735     2.847916     2.842098
      2.836279     2.830460     2.824642     2.818823     2.813004     2.807186     2.801367     2.795549     2.789730     2.783911
      2.778093     2.772274     2.766456     2.760637     2.754818     2.749000     2.743181     2.737363     2.731544     2.725725
      2.719907     2.714088     2.708270     2.702451     2.696632     2.690814     2.684995     2.679177     2.673358     2.667539
      2.661721     2.655902     2.650084     2.644265     2.638446     2.632628     2.626809     2.620991     2.615172     2.609353
      2.603535     2.597716     2.591897     2.586079     2.580260     2.574442     2.568623     2.562804     2.556986     2.551167
      2.545349     2.539530     2.533711     2.527893     2.522074     2.516256     2.510437     2.504618     2.498800     2.492981
      2.487163     2.481344     2.475525     2.469707     2.463888     2.458070     2.452251     2.446432     2.440614     2.434795
      2.428977     2.423158     2.417339     2.411521     2.405702     2.399884     2.394065     2.388246     2.382428     2.376609
      2.370790     2.364972     2.359153     2.353335     2.347516     2.341697     2.335879     2.330060     2.324242     2.318423
      2.312604     2.306786     2.300967     2.295149     2.289330     2.283511     2.277693     2.271874     2.266056     2.260237
      2.254418     2.248600     2.242781     2.236963     2.231144     2.225325     2.219507     2.213688     2.207870     2.202051
      2.196232     2.190414     2.184595     2.178777     2.172958     2.167139     2.161321     2.155502     2.149683     2.143865
      2.138046     2.132228     2.126409     2.120590     2.114772     2.108953     2.103135     2.097316     2.091497     2.085679
      2.079860     2.074042     2.068223     2.062404     2.056586     2.050767     2.044949     2.039130     2.033311     2.027493
      2.021674     2.015856     2.010037     2.004218     1.998400     1.992581     1.986763     1.980944     1.975126     1.969307
      1.963489     1.957670     1.951852     1.946033     1.940215     1.934397     1.928578     1.922760     1.916941     1.911123
      1.905304     1.899486     1.893667     1.887849     1.882030     1.876212     1.870393     1.864575     1.858756     1.852938
      1.847119     1.841301     1.835482     1.829664     1.823845     1.818027     1.812208     1.806390     1.800571     1.794753
      1.788934     1.783116     1.777297     1.771479     1.765660     1.759842     1.754023     1.748205     1.742386     1.736568
      1.730749     1.724931     1.719113     1.713294     1.707476     1.701657     1.695839     1.690020     1.684202     1.678383
      1.672565     1.666746     1.660928     1.655109     1.649291     1.643472     1.637654     1.631835     1.626017     1.620198
      1.614380     1.608561     1.602743     1.596924     1.591106     1.585287     1.579469     1.573650     1.567832     1.562013
      1.556195     1.550376     1.544558     1.538739     1.532921     1.527102     1.521284     1.515465     1.509647     1.503829
      1.498010     1.492192     1.486373     1.480555     1.474736     1.468918     1.463099     1.457281     1.451462     1.445644
      1.439825     1.434007     1.428188     1.422370     1.416551     1.410733     1.404914     1.399096     1.393277     1.387459
      1.381640     1.375822     1.370003     1.364185     1.358366     1.352548     1.346729     1.340911     1.335092     1.329274
      1.323455     1.317637     1.311818     1.306000     1.300182     1.294363     1.288545     1.282726     1.276908     1.271089
      1.265271     1.259452     1.253634     1.247815     1.241997     1.236178     1.230360     1.224541     1.218723     1.212904
      1.207086     1.201267     1.195449     1.189630     1.183812     1.177993     1.172175     1.166356     1.160538     1.154719
      1.148901     1.143082     1.137264     1.131445     1.125627     1.119808     1.113990     1.108171     1.102353     1.096534
      1.090716     1.084898     1.079079     1.073261     1.067442     1.061624     1.055805     1.049987     1.044168     1.038350
      1.032531     1.026713     1.020894     1.015076     1.009257     1.003439     0.997620     0.991802     0.985983     0.980165
      0.974346     0.968528     0.962709     0.956891     0.951072     0.945254     0.939435     0.933617     0.927798     0.921980
      0.916161     0.910343     0.904524     0.898706     0.892887     0.887069     0.881251     0.875432     0.869614     0.863795
      0.857977     0.852158     0.846340     0.840521     0.834703     0.828884     0.823066     0.817247     0.811429     0.805610
      0.799792     0.793973     0.788155     0.782336     0.776518     0.770699     0.764881     0.759062     0.753244     0.747425
      0.741607     0.735788     0.729970     0.724151     0.718333     0.712514     0.706696     0.700877     0.695059     0.689240
      0.683422     0.677603     0.671785     0.665967     0.660148     0.654330     0.648511     0.642693     0.636874     0.631056
      0.625237     0.619419     0.613600     0.607782     0.601963     0.596145     0.590326     0.584508     0.578689     0.572871
      0.567052     0.561234     0.555415     0.549597     0.543778     0.537960     0.532141     0.526323     0.520504     0.514686
      0.508867     0.503049     0.497230     0.491412     0.485593     0.479775     0.473956     0.468138     0.462319     0.456501
      0.450682     0.444864     0.439045     0.433227     0.427408     0.421590     0.415771     0.409953     0.404134     0.398316
      0.392497     0.386679     0.380860     0.375042     0.369223     0.363405     0.357586     0.351767     0.345949     0.340130
      0.334312     0.328493     0.322675     0.316856     0.311038     0.305219     0.299401     0.293582     0.287764     0.281945
      0.276127     0.270308     0.264490     0.258671     0.252853     0.247034     0.241216     0.235397     0.229579     0.223760
      0.217942     0.212123     0.206305     0.200486
 NY phased data points follow
  -1.45609E-01 -7.41756E-02 -1.97250E-01 -4.10400E-01  1.84469E-01 -3.09896E-02 -2.77370E-01 -3.03195E-01 -3.93086E-01 -4.26898E-01
  -1.35921E-01  3.41430E-01  8.39400E-01  6.97736E-01 -1.61088E-01  6.87770E-01  4.73633E-01  1.47121E-01  3.79930E-01 -3.35097E-02
   8.89981E-02  2.07829E-01  2.21681E-01 -2.78982E-01 -1.90293E-01 -1.66213E-01 -2.88107E-02  2.99941E-02 -2.06964E-01 -1.54363E-01
  -1.28987E-01  2.93242E-02 -2.09455E-01 -3.32061E-01 -1.87001E-01 -2.74675E-01 -5.28794E-01 -2.27518E-01 -4.06624E-01 -4.32381E-01
   1.89277E-01  2.87131E-01  3.10309E-01  2.32413E-01  3.02647E-01  4.51634E-01  5.77446E-01  2.99567E-01  4.48291E-02  4.01568E-01
   2.36990E-01 -4.94402E-02  3.91584E-01  1.99053E-01 -1.91838E-01 -1.74867E-01 -1.87344E-01 -2.06962E-01 -2.89133E-01 -1.56110E-01
  -2.69461E-01 -1.58934E-01 -2.65888E-01 -1.84504E-01 -2.63434E-01 -5.18864E-01  1.95740E-01  2.46984E-02 -8.95487E-03  5.95366E-01
   4.33145E-01 -8.94123E-02  3.41517E-02  2.30042E-01 -1.00832E-01 -1.45158E-01 -2.74403E-01 -2.42438E-01 -1.82377E-01 -4.72757E-01
  -6.28189E-01 -3.44955E-01  4.95638E-02  1.75226E-01  7.23371E-01  6.22021E-01  8.62444E-02  3.09606E-01  2.70728E-01  3.30589E-01
   3.30065E-01  2.13360E-01  2.26871E-02 -3.01542E-03  4.31920E-01  1.43071E-01  1.10074E-01  3.25416E-02 -4.03000E-01 -3.52299E-01
  -6.01320E-01 -5.04077E-01 -1.80393E-01  1.91278E-01  6.60651E-01  2.72148E-01  3.52034E-01  4.86339E-01  3.98093E-01  5.04968E-01
   2.21489E-01  5.04574E-01  5.07200E-01  4.16635E-01  3.67769E-01  4.86247E-01  5.98268E-01 -1.73278E-02  3.04839E-01  2.09364E-01
  -1.67636E-01  4.08594E-02 -2.42714E-01  1.11918E-01 -3.59442E-02 -4.01686E-01  9.07087E-03 -3.48974E-01 -7.64301E-01 -8.17558E-01
  -7.10784E-01 -1.05028E+00 -8.13809E-01 -3.36883E-01 -5.82027E-01 -6.78102E-01 -1.13420E+00 -1.01683E+00 -8.08171E-01 -3.71338E-01
  -1.29869E-01 -5.35328E-02 -1.26625E-02 -2.89541E-01  9.00025E-02  8.26721E-02  2.52224E-01  9.66747E-02  2.62029E-02  2.99170E-01
   3.52506E-01  4.66821E-01  2.48763E-01  2.02998E-01  2.83919E-01  2.50856E-01  3.79228E-01  4.21567E-01  3.01047E-01  2.51043E-01
  -4.86025E-02  3.93502E-01  7.98330E-01  8.49347E-01  9.53431E-01  1.27071E+00  1.45667E+00  2.45695E-01 -9.20589E-01 -1.42587E+00
  -1.15754E+00 -6.88084E-01 -6.19053E-01 -5.42425E-01 -4.68414E-01 -6.23652E-01 -4.75559E-01 -4.20301E-01 -5.90388E-01 -2.55148E-01
  -3.00824E-01 -3.51458E-01 -2.74324E-01 -4.43161E-01 -4.32674E-01 -2.04152E-01 -2.49023E-01 -2.87612E-01 -3.14877E-01 -4.38081E-01
  -2.66204E-01 -5.35212E-03 -3.11024E-01 -3.70222E-01 -8.47357E-03 -3.53151E-01 -1.53475E-01 -6.85347E-02 -2.91017E-01 -2.07960E-02
   5.90462E-02 -1.09243E-01 -9.43120E-02 -8.66050E-02 -1.36964E-01  6.23162E-02 -2.43824E-02 -1.94970E-01 -6.15704E-02  1.70469E-01
   6.07892E-02  1.97563E-01  6.56506E-02 -1.81701E-01 -1.02590E-01 -1.30108E-01  1.10670E-03 -4.40082E-02 -7.22514E-02  1.50680E-01
   3.87636E-01  1.80296E-01  1.65162E-01  4.98703E-02  2.22024E-02  3.75030E-01  4.44197E-01  3.83620E-01  2.27048E-01  3.55939E-01
   6.88962E-01  6.47736E-01  3.33469E-01  2.11115E-01  9.02683E-02 -6.66564E-02 -3.11467E-01 -2.19946E-01 -1.17282E-01 -1.15017E-01
  -2.60470E-01 -1.32795E-01  1.81369E-01 -2.56702E-01 -1.79849E-02  1.23248E-01 -5.71208E-02  6.18626E-02  5.56620E-03  1.36206E-02
   2.04369E-01  1.79774E-01 -6.91166E-02  2.34028E-02  1.86708E-01  1.09526E-01 -5.08213E-03  2.40087E-01  6.97652E-02  1.35663E-02
   2.95225E-01  1.10595E-01  4.97548E-02  7.88050E-03  1.75709E-01  4.64920E-01  3.02164E-01  7.01099E-02  2.81958E-01  3.24637E-01
   1.40649E-02  2.50002E-01  1.35431E-02 -8.82800E-02  2.90406E-01  7.91864E-02  2.34020E-01  7.27059E-02 -4.16556E-01 -4.25269E-01
  -6.59973E-02 -4.39194E-01 -4.46288E-01 -1.45687E-01 -1.93348E-01  4.67750E-01  2.67010E-01  5.94445E-01  8.73684E-01  5.50659E-01
   4.66911E-01  2.60274E-01  4.59585E-02  1.69364E-03  3.88641E-01  7.34130E-02  2.91492E-01  5.11038E-01  3.54898E-01  2.66827E-01
   1.17837E-01  3.09407E-01  3.06001E-01  1.82638E-01  4.49699E-02  4.27657E-01  5.22370E-01  2.96965E-01  3.75334E-01  4.55289E-01
   4.65900E-01  3.49881E-01  3.38023E-01  2.15787E-01  3.67359E-01  1.56154E-01 -1.88225E-01  7.26482E-02 -6.34909E-02 -2.26429E-01
  -4.00157E-01 -2.46935E-01 -3.89415E-01 -4.12219E-01 -1.39194E-01 -4.24183E-01 -1.45003E-01 -1.00294E-01  1.13889E-01  2.80300E-01
   2.16801E-01  1.23140E-01 -1.24603E-01 -1.81704E-01 -2.87492E-01 -2.77397E-01 -1.81777E-01 -3.44456E-01 -4.34937E-01 -3.29482E-01
  -3.99216E-01 -5.62751E-01 -2.76313E+00 -2.97904E+00 -1.01528E+00 -3.98987E-01 -1.38325E-01 -1.88526E-01  9.50265E-02 -2.88843E-01
   1.25860E-01  7.06883E-02 -4.29332E-02  2.67151E-01 -1.45413E-01 -4.92131E-02 -1.38666E-01  4.00721E-02 -2.69668E-02  1.22239E-01
  -1.50193E-02 -2.75886E-03  9.41494E-02 -1.53086E-01  7.11313E-02 -3.91754E-02 -1.12731E-01 -1.76565E-01 -7.98007E-02  6.22550E-03
   1.20349E-01  1.03841E-01 -2.03279E-01  1.84537E-01  3.29168E-01 -1.10052E-01  3.14125E-02  1.94197E-01  1.36333E-01  1.14896E-01
   1.81205E-01  1.05520E-01  7.60712E-02  3.48520E-01  8.65426E-02 -2.25985E-02  3.28520E-01  1.25994E-01  9.99069E-02  3.69986E-01
   9.42486E-02  2.75940E-01  4.88726E-01  5.39799E-02  2.45489E-02  4.77885E-01  4.87502E-01  1.80860E-01  1.24569E-01  1.85581E-01
   1.62992E-01  1.50786E-01  1.49524E-02 -2.08911E-01  4.46482E-02  7.07986E-02  1.15585E-01 -5.94484E-03 -7.81690E-02  3.11930E-02
  -1.05088E-01 -1.55188E-01 -5.64564E-02  1.84556E-01 -1.88605E-01 -2.17969E-01 -9.77433E-02 -3.89266E-02 -2.84231E-01 -3.27600E-01
  -5.09468E-03 -3.43212E-01 -2.43370E-02  2.83261E-01  1.03650E-01 -2.12264E-01 -3.30301E-01 -6.79447E-02 -1.10291E-01 -6.80144E-02
   3.46975E-02 -3.86239E-01 -2.59328E-01  4.70650E-02  6.65586E-02  1.67971E-01  1.62522E-01  2.54763E-01 -8.05234E-02  1.55783E-01
   2.17265E-01 -5.25535E-02 -1.07787E-01 -8.59386E-02  3.56705E-01  2.70147E-01  3.08982E-01  1.60092E-01  2.69268E-01  4.78492E-01
   4.76793E-01  3.84916E-01  4.25002E-02  2.82537E-01  6.82937E-02  2.37021E-01  2.64492E-02 -1.27821E-01  5.35554E-02 -2.53667E-01
   1.60774E-01  1.06771E-01  2.15273E-01  1.52349E-01  2.50796E-02 -2.08253E-01 -4.27992E-01 -1.73616E-01 -1.52316E-01 -1.51668E-01
  -2.76303E-01 -2.54769E-01 -2.53653E-01  1.89925E-02 -3.24157E-01 -3.16564E-01 -2.17675E-01 -1.97849E-01 -2.38194E-01 -3.76439E-01
   1.16510E-01  1.13468E-01 -1.05004E-02 -2.47707E-01  1.34700E-01  4.70544E-02  7.50367E-02  1.17071E-01  2.17112E-01  3.86012E-02
  -2.34214E-01  2.67364E-01 -4.14277E-01 -1.50655E-01  3.13600E-01  2.92556E-01  3.97595E-02 -9.17554E-02 -7.51786E-02  4.39035E-02
   1.59956E-01 -1.67977E-02  3.47904E-01  1.45138E-01  1.30106E-01 -4.52344E-03 -7.00244E-02  1.07495E-01  2.01056E-01  1.95709E-01
   9.52685E-02  3.26533E-01  1.43712E-01  1.65827E-01  3.41811E-01  1.52380E-02  1.36713E-01  1.33345E-02  1.38192E-01  4.52163E-02
  -2.84779E-01  1.68916E-01 -2.52446E-01 -1.13284E-01 -3.51429E-01 -3.29805E-01 -6.02572E-01 -6.72494E-01 -5.21127E-02 -6.81629E-01
  -3.46490E-01 -3.97377E-01 -3.01454E-01 -2.43422E-01 -1.60553E-01  2.60690E-01  2.71302E-01 -4.01068E-01 -3.26771E-01  3.56896E-02
  -4.00403E-01 -3.12955E-02 -3.61406E-01 -1.08957E-01 -6.91985E-02 -8.84547E-02  1.78356E-01 -1.56772E-02  3.11802E-02  7.74302E-02
   7.65987E-02 -2.68040E-01  1.43789E-02  1.01899E-01 -1.01951E-02  2.51835E-01  1.32000E-01 -2.38409E-02  9.78847E-02  2.01422E-01
   1.25895E-01 -2.17750E-01  3.08461E-02  2.60060E-01  3.70443E-01 -7.77322E-02 -1.87143E-01  2.82739E-01 -2.95391E-01  2.05181E-02
   6.20116E-02 -3.67095E-01 -1.08395E-01 -7.31902E-03 -1.02046E-01  7.62510E-02 -1.28963E-01  2.84058E-02  1.81199E-01 -3.47449E-02
   1.14403E-01 -2.02653E-01  9.38134E-02  6.67617E-02 -1.70769E-01  2.49183E-01  4.33237E-01 -8.11598E-02 -4.94251E-02 -2.75158E-03
   4.03394E-02  4.87866E-02  1.71562E-02  2.44098E-01 -2.29472E-01  1.78952E-01 -8.06874E-02 -1.68854E-01  1.62126E-01  4.88137E-02
  -2.65483E-02 -8.03398E-02 -2.99571E-02  9.54840E-02  1.52834E-01 -1.44649E-01  2.43320E-01  1.42179E-01  2.68708E-01  2.23667E-01
   5.49364E-02  4.56593E-02 -9.96790E-02 -8.20920E-02 -1.09780E-01  3.33745E-02 -2.54661E-01 -1.23866E-01  1.26607E-01  1.39704E-01
  -1.14774E-02  8.91665E-03 -8.13329E-02 -2.02036E-01  7.81054E-02 -9.40956E-02 -3.73745E-02  3.37772E-01  1.01236E-01  1.24867E-01
  -1.35126E-02 -2.56063E-02  6.34563E-02  3.63732E-02  3.10757E-01 -4.17304E-02  1.48088E-01 -1.90451E-02  2.20967E-02  3.16898E-02
   3.06490E-02  3.62465E-01  3.99855E-02 -9.84384E-02 -7.41799E-02  1.73681E-01  1.35632E-01  1.82351E-01  3.33357E-02  9.59039E-02
  -1.09047E-01 -1.05926E-01 -2.68303E-02 -1.19178E-01
 NY points of the fit to the data follow
   8.45129E-02  4.66898E-02  6.91371E-03 -3.99709E-02 -3.67311E-02 -2.92111E-02 -1.10788E-02  1.92175E-02 -8.62384E-03  1.13203E-01
   1.79463E-02  5.12877E-01  9.59975E-01  5.81668E-01  7.37052E-02  5.67756E-01  7.64305E-01  3.80746E-01  1.46480E-01  1.61824E-01
   3.01570E-02  4.26963E-02 -1.09950E-02 -7.07994E-02 -1.01270E-01 -1.24984E-01 -1.54615E-01 -1.60004E-01 -1.60809E-01 -1.90278E-01
  -1.89373E-01 -1.80309E-01 -2.15360E-01 -2.59186E-01 -3.00976E-01 -3.29886E-01 -3.77946E-01 -3.68189E-01 -4.21693E-01 -2.54212E-01
   1.62603E-02  1.61587E-01  1.23719E-01  2.79874E-01  3.54169E-01  3.70457E-01  4.60054E-01  3.66511E-01  2.11060E-01  2.66796E-01
   1.76842E-01  7.81967E-02  8.90074E-02  3.49682E-02 -2.93256E-02 -8.56843E-02 -1.56535E-01 -2.12218E-01 -1.91611E-01 -2.13198E-01
  -2.44236E-01 -3.63786E-01 -4.40237E-01 -1.27158E-01 -3.87265E-01 -3.92894E-01  3.96805E-01  2.48450E-01  9.32641E-02  6.14619E-01
   5.23482E-01  2.86329E-01  2.84278E-01  1.53302E-01  6.41699E-02 -1.31618E-02 -9.66464E-02 -2.18575E-01 -3.21771E-01 -6.90917E-01
  -6.99656E-01 -1.06689E-01 -7.11794E-03  2.72694E-04  4.48206E-01  5.63373E-01  4.17725E-01  3.81690E-01  3.20108E-01  2.39504E-01
   2.11424E-01  1.96617E-01  1.56946E-01  1.18982E-01  9.62888E-02 -2.41292E-02 -1.56062E-02 -3.74454E-01 -3.99464E-01 -6.82527E-01
  -6.76809E-01 -3.35365E-01 -7.33005E-02  1.75289E-01  4.26451E-01  2.93816E-01  3.53152E-01  3.22718E-01  2.98086E-01  3.05703E-01
   3.04215E-01  3.01368E-01  2.97182E-01  2.90812E-01  2.89747E-01  2.89011E-01  2.89199E-01  2.85757E-01  2.81029E-01  2.65447E-01
   2.51069E-01  2.21780E-01  2.11568E-02  5.42898E-02 -1.83129E-02 -3.30127E-01 -7.60515E-02 -1.89092E-01 -4.99265E-01 -6.81537E-01
  -8.18609E-01 -7.76503E-01 -6.52952E-01 -3.08259E-01 -3.35502E-01 -7.31297E-01 -1.06007E+00 -1.07036E+00 -6.32032E-01 -2.42040E-01
  -1.79579E-01 -2.71601E-02 -1.07571E-03  1.59149E-02  4.30929E-02  7.43271E-02  9.93012E-02  1.21068E-01  1.44353E-01  1.59692E-01
   1.77491E-01  1.97751E-01  2.14605E-01  2.33704E-01  2.55688E-01  2.79855E-01  3.07968E-01  3.40777E-01  3.73411E-01  4.08389E-01
   4.62137E-01  5.46760E-01  6.19063E-01  7.35900E-01  7.88460E-01  1.05461E+00  1.24229E+00  3.16433E-01 -1.06521E+00 -1.41756E+00
  -1.02076E+00 -7.79769E-01 -6.23879E-01 -4.67027E-01 -4.53900E-01 -4.60884E-01 -3.72180E-01 -3.22683E-01 -3.37442E-01 -3.51938E-01
  -3.26657E-01 -2.64710E-01 -2.57413E-01 -2.47532E-01 -2.40793E-01 -2.46419E-01 -2.48968E-01 -2.19344E-01 -2.10766E-01 -2.09221E-01
  -2.02471E-01 -1.80464E-01 -1.71607E-01 -1.56253E-01 -1.41421E-01 -1.32546E-01 -1.23135E-01 -1.08698E-01 -9.79215E-02 -8.86669E-02
  -7.81173E-02 -6.21738E-02 -3.56972E-02 -1.57532E-02 -3.73096E-02 -6.49833E-02 -5.80214E-02 -2.05209E-02  1.13023E-02 -2.23400E-02
  -7.62261E-02 -8.00196E-02 -7.11204E-02 -7.16465E-02 -5.86887E-02 -5.19316E-02 -4.63387E-02 -3.68301E-02 -3.79814E-02 -4.85364E-02
  -3.53610E-02 -1.98241E-02  2.06021E-02  1.54415E-02  1.21974E-01  3.89702E-01  4.20804E-01  2.48634E-01  1.55248E-01  2.48609E-01
   5.79874E-01  5.47370E-01  1.98793E-01  7.06217E-02  1.56022E-02 -6.99863E-02 -6.02860E-02 -6.38640E-02 -7.16591E-02 -8.22079E-02
  -9.41840E-02 -1.06743E-01 -1.06069E-01 -1.10904E-01 -1.08967E-01 -1.12851E-01 -1.19051E-01 -1.15750E-01 -1.22097E-01 -1.19257E-01
  -1.17835E-01 -1.38354E-01 -1.37664E-01 -1.93250E-01 -1.57144E-01 -2.49350E-01 -1.14877E-01  1.79466E-01 -2.06373E-02 -1.41980E-02
   2.40720E-01  2.25173E-01  1.57299E-01  9.73788E-02  1.88597E-01  2.08271E-01  1.25473E-01  1.65125E-01  1.57510E-01  1.59226E-01
   1.78042E-01  1.29374E-01  9.53763E-02  4.88742E-02  4.35859E-03 -2.82157E-02 -7.77232E-02 -1.20700E-01 -1.70331E-01 -2.41058E-01
  -2.79000E-01 -4.13103E-01 -4.73187E-01 -4.06476E-01 -3.35642E-01  2.39666E-02  3.10536E-01  4.14145E-01  5.70797E-01  5.01524E-01
   3.53709E-01  2.80885E-01  2.13829E-01  1.93750E-01  1.86261E-01  2.26044E-01  2.64168E-01  2.64348E-01  2.94352E-01  2.82651E-01
   2.67013E-01  2.61982E-01  2.46141E-01  2.39962E-01  2.37297E-01  2.26620E-01  2.15516E-01  2.05691E-01  1.86098E-01  1.55375E-01
   1.43101E-01  1.00129E-01  7.81093E-02  5.71722E-02  1.43039E-02 -2.47292E-02 -8.18958E-02 -1.54226E-01 -2.29203E-01 -2.75442E-01
  -2.85050E-01 -3.38500E-01 -3.11275E-01 -2.96892E-01 -2.43060E-01 -1.75326E-01 -8.87125E-02  5.62065E-03  7.70803E-02  1.33557E-01
   9.24864E-02  5.13031E-02 -1.25920E-02 -1.09995E-01 -1.25355E-01 -1.45807E-01 -2.33557E-01 -2.96876E-01 -1.93169E-01 -2.75303E-01
  -2.57729E-01 -7.04135E-01 -2.70734E+00 -2.98797E+00 -1.21528E+00 -4.78612E-01 -3.36033E-01  3.05371E-02 -1.36470E-02 -3.95649E-02
  -2.74899E-02 -7.69756E-03  8.59216E-03  1.94136E-02  3.06666E-02  3.84256E-02  5.05163E-02  5.13939E-02  4.58634E-02  4.94997E-02
   1.34099E-02  9.29391E-03 -2.33214E-02 -5.10093E-02 -5.15348E-02 -4.90668E-02 -3.55297E-02 -5.73423E-03  2.66742E-03  2.48770E-02
   3.42571E-02  4.33703E-02  5.68951E-02  6.50541E-02  6.57207E-02  7.10750E-02  7.63745E-02  8.20215E-02  8.95866E-02  9.33848E-02
   9.40342E-02  9.78526E-02  1.02570E-01  1.08475E-01  1.11911E-01  1.14819E-01  1.14948E-01  1.14079E-01  1.20038E-01  1.25554E-01
   1.29701E-01  1.35130E-01  1.37542E-01  1.34262E-01  1.30841E-01  1.27163E-01  1.24228E-01  1.20267E-01  1.17526E-01  1.11019E-01
   1.02475E-01  9.53209E-02  8.86103E-02  7.68138E-02  6.60906E-02  6.04211E-02  5.49005E-02  4.60729E-02  3.75881E-02  3.31266E-02
   2.53836E-02  1.98451E-02  1.89684E-02  1.40426E-02  8.33529E-03  6.66833E-03  7.28388E-04 -3.28581E-03 -5.34169E-03 -7.14982E-03
  -7.81151E-03 -1.07332E-02 -1.19248E-02 -7.22385E-03 -5.44378E-03 -3.65014E-03  3.39262E-03  7.28844E-03  1.41042E-02  2.63699E-02
   3.35139E-02  3.94525E-02  4.26596E-02  6.67861E-02  1.18213E-01  1.26314E-01  1.32856E-01  1.31045E-01  9.30930E-02  8.07839E-02
   9.90973E-02  1.08973E-01  1.25720E-01  1.41161E-01  1.56125E-01  1.68609E-01  1.84535E-01  1.96528E-01  2.04864E-01  2.09139E-01
   2.09344E-01  2.09511E-01  2.08985E-01  2.05443E-01  2.04813E-01  1.98148E-01  1.89889E-01  1.76169E-01  1.59625E-01  1.44800E-01
   1.35560E-01  1.22615E-01  1.11865E-01  9.91077E-02  8.54982E-02  7.67182E-02  6.99654E-02  5.98948E-02  5.17056E-02  4.58646E-02
   4.09640E-02  3.54749E-02  3.09659E-02  2.67493E-02  2.51550E-02  3.09585E-02  3.49141E-02  3.49351E-02  4.15149E-02  4.69252E-02
   5.10299E-02  6.05624E-02  6.89049E-02  7.36168E-02  7.72382E-02  8.10058E-02  8.21271E-02  8.21189E-02  8.54117E-02  9.10714E-02
   9.40414E-02  9.24267E-02  9.09472E-02  8.75476E-02  8.58150E-02  8.20497E-02  7.48000E-02  7.05021E-02  6.81297E-02  6.41012E-02
   5.98690E-02  5.49618E-02  5.16641E-02  4.63993E-02  4.10507E-02  3.76632E-02  2.98882E-02  2.52631E-02  2.60407E-02  2.25543E-02
   1.63072E-02  1.24339E-02  8.66691E-03  1.83687E-03 -1.03317E-02 -2.05674E-02 -2.94365E-02 -3.99338E-02 -4.99838E-02 -6.67910E-02
  -8.93616E-02 -1.13537E-01 -1.34087E-01 -1.52963E-01 -1.73506E-01 -1.94696E-01 -2.11467E-01 -2.25076E-01 -2.38559E-01 -2.53705E-01
  -2.61303E-01 -2.58725E-01 -2.56455E-01 -2.58279E-01 -2.54796E-01 -2.42247E-01 -2.32749E-01 -2.24865E-01 -2.15577E-01 -2.07502E-01
  -2.03561E-01 -1.92967E-01 -1.79525E-01 -1.69857E-01 -1.58881E-01 -1.43445E-01 -1.28982E-01 -1.18079E-01 -1.05762E-01 -9.11584E-02
  -8.31466E-02 -7.38451E-02 -5.69321E-02 -4.82175E-02 -4.34737E-02 -3.63609E-02 -2.70955E-02 -1.48759E-02 -1.06334E-02 -1.27944E-02
  -3.31979E-03  3.55800E-03  3.27657E-03  8.69116E-03  9.96983E-03  9.24491E-03  1.49834E-02  1.76769E-02  1.40986E-02  1.27472E-02
   1.87592E-02  2.17281E-02  2.20514E-02  2.76007E-02  3.16684E-02  2.99397E-02  2.87206E-02  3.05522E-02  3.03774E-02  2.75239E-02
   2.94730E-02  2.97271E-02  2.71622E-02  2.75550E-02  2.73822E-02  2.75197E-02  2.89248E-02  2.92226E-02  3.29119E-02  3.29554E-02
   2.15580E-02  1.76197E-02  2.51726E-02  2.61678E-02  2.32531E-02  2.13840E-02  2.41319E-02  2.36430E-02  1.87976E-02  1.56562E-02
   1.95956E-02  2.45490E-02  2.46424E-02  2.31357E-02  2.50364E-02  2.59634E-02  2.80078E-02  3.00271E-02  2.89401E-02  3.06038E-02
   3.34307E-02  3.22122E-02  2.64230E-02  2.54903E-02  2.81848E-02  2.79419E-02  2.99836E-02  3.27271E-02  3.43728E-02  3.39350E-02
   3.09138E-02  3.57838E-02  4.19635E-02  4.27193E-02  4.59601E-02  4.21594E-02  3.63167E-02  3.69690E-02  3.87773E-02  4.16141E-02
   4.44242E-02  4.03734E-02  3.89161E-02  4.01420E-02  3.95724E-02  4.25729E-02  4.27630E-02  3.85344E-02  4.06787E-02  4.73936E-02
   4.67888E-02  4.43183E-02  4.73384E-02  4.76420E-02  4.95354E-02  5.11592E-02  5.08213E-02  5.77434E-02  6.45964E-02  6.72586E-02
   6.92784E-02  7.02297E-02  7.38391E-02  7.38287E-02
 NY background values follow
     5.032E-04    8.137E-04    1.124E-03    1.435E-03    1.745E-03    2.056E-03    2.366E-03    2.677E-03    2.987E-03    3.298E-03
     3.608E-03    3.918E-03    4.228E-03    4.538E-03    4.848E-03    5.158E-03    5.468E-03    5.778E-03    6.087E-03    6.396E-03
     6.705E-03    7.014E-03    7.323E-03    7.632E-03    7.940E-03    8.248E-03    8.556E-03    8.863E-03    9.170E-03    9.477E-03
     9.784E-03    1.009E-02    1.040E-02    1.070E-02    1.101E-02    1.131E-02    1.162E-02    1.192E-02    1.223E-02    1.253E-02
     1.283E-02    1.313E-02    1.344E-02    1.374E-02    1.404E-02    1.434E-02    1.464E-02    1.494E-02    1.524E-02    1.554E-02
     1.584E-02    1.613E-02    1.643E-02    1.673E-02    1.702E-02    1.732E-02    1.761E-02    1.791E-02    1.820E-02    1.849E-02
     1.879E-02    1.908E-02    1.937E-02    1.966E-02    1.995E-02    2.024E-02    2.053E-02    2.081E-02    2.110E-02    2.138E-02
