 LCModel (Version 6.3-1N) Copyright: S.W. Provencher.          Ref.: Magn. Reson. Med. 30:672-679 (1993).                
 Slice_N1@12_18  02-Jun-2023 14:36:36
 27 lines in following concentration table = NCONC+1
    Conc.  %SD /Cr+PCr  Metabolite                                         
 1.70E-06  34% 2.0E-04 Mac                                                 
 3.03E-02  47%   3.628 Cr                                                  
 3.65E-02  39%   4.372 PCr                                                 
 9.15E-02  14%  10.953 Ins                                                 
    0.117   8%  13.961 NAA                                                 
 7.07E-02  16%   8.456 Tau                                                 
 1.94E-02  47%   2.317 PCho                                                
 3.25E-03 268%   0.389 GPC                                                 
 9.17E-02  16%  10.974 Glu                                                 
 1.89E-02  51%   2.260 Gln                                                 
    0.000 999%   0.000 Ala                                                 
 2.57E-02  76%   3.080 Asc                                                 
 1.26E-02  76%   1.506 Asp                                                 
 1.83E-02  29%   2.188 GABA                                                
 6.99E-03  87%   0.837 Glc                                                 
 7.74E-03  60%   0.926 GSH                                                 
 6.22E-03 175%   0.745 Lac                                                 
 1.74E-02  38%   2.082 NAAG                                                
 1.51E-03 999%   0.181 PE                                                  
 2.26E-02  17%   2.705 GPC+PCho                                            
    0.134   9%  16.043 NAA+NAAG                                            
    0.111  15%  13.234 Glu+Gln                                             
 6.68E-02  13%   8.000 Cr+PCr                                              
    0.134   9%  16.043 NAA+NAAG                                            
 6.68E-02  13%   8.000 Cr+PCr                                              
    0.111  15%  13.234 Glu+Gln                                             
   6 lines in following misc. output table
  FWHM = 0.023 ppm    S/N =   5                                            
  Data shift = 0.017 ppm                                                   
  Ph: -64 deg     -18.9 deg/ppm                                            
  alphaB,S = 3.1E+01,   1.3E+01                                            
   18 spline knots.   Ns = 5(1)                                            
   2 inflections.     2 extrema                                            
  654 points on ppm-axis = NY
      4.000000     3.994181     3.988363     3.982544     3.976726     3.970907     3.965088     3.959270     3.953451     3.947633
      3.941814     3.935995     3.930177     3.924358     3.918540     3.912721     3.906902     3.901084     3.895265     3.889446
      3.883628     3.877809     3.871991     3.866172     3.860353     3.854535     3.848716     3.842898     3.837079     3.831260
      3.825442     3.819623     3.813805     3.807986     3.802167     3.796349     3.790530     3.784712     3.778893     3.773074
      3.767256     3.761437     3.755619     3.749800     3.743981     3.738163     3.732344     3.726526     3.720707     3.714888
      3.709070     3.703251     3.697433     3.691614     3.685795     3.679977     3.674158     3.668339     3.662521     3.656702
      3.650884     3.645065     3.639246     3.633428     3.627609     3.621791     3.615972     3.610153     3.604335     3.598516
      3.592698     3.586879     3.581060     3.575242     3.569423     3.563605     3.557786     3.551967     3.546149     3.540330
      3.534512     3.528693     3.522874     3.517056     3.511237     3.505419     3.499600     3.493781     3.487963     3.482144
      3.476326     3.470507     3.464688     3.458870     3.453051     3.447232     3.441414     3.435595     3.429777     3.423958
      3.418139     3.412321     3.406502     3.400684     3.394865     3.389046     3.383228     3.377409     3.371591     3.365772
      3.359953     3.354135     3.348316     3.342498     3.336679     3.330860     3.325042     3.319223     3.313405     3.307586
      3.301767     3.295949     3.290130     3.284312     3.278493     3.272674     3.266856     3.261037     3.255219     3.249400
      3.243581     3.237763     3.231944     3.226125     3.220307     3.214488     3.208670     3.202851     3.197032     3.191214
      3.185395     3.179577     3.173758     3.167939     3.162121     3.156302     3.150484     3.144665     3.138846     3.133028
      3.127209     3.121391     3.115572     3.109753     3.103935     3.098116     3.092298     3.086479     3.080660     3.074842
      3.069023     3.063205     3.057386     3.051567     3.045749     3.039930     3.034111     3.028293     3.022474     3.016656
      3.010837     3.005018     2.999200     2.993381     2.987563     2.981744     2.975925     2.970107     2.964288     2.958470
      2.952651     2.946832     2.941014     2.935195     2.929377     2.923558     2.917739     2.911921     2.906102     2.900284
      2.894465     2.888646     2.882828     2.877009     2.871191     2.865372     2.859553     2.853735     2.847916     2.842098
      2.836279     2.830460     2.824642     2.818823     2.813004     2.807186     2.801367     2.795549     2.789730     2.783911
      2.778093     2.772274     2.766456     2.760637     2.754818     2.749000     2.743181     2.737363     2.731544     2.725725
      2.719907     2.714088     2.708270     2.702451     2.696632     2.690814     2.684995     2.679177     2.673358     2.667539
      2.661721     2.655902     2.650084     2.644265     2.638446     2.632628     2.626809     2.620991     2.615172     2.609353
      2.603535     2.597716     2.591897     2.586079     2.580260     2.574442     2.568623     2.562804     2.556986     2.551167
      2.545349     2.539530     2.533711     2.527893     2.522074     2.516256     2.510437     2.504618     2.498800     2.492981
      2.487163     2.481344     2.475525     2.469707     2.463888     2.458070     2.452251     2.446432     2.440614     2.434795
      2.428977     2.423158     2.417339     2.411521     2.405702     2.399884     2.394065     2.388246     2.382428     2.376609
      2.370790     2.364972     2.359153     2.353335     2.347516     2.341697     2.335879     2.330060     2.324242     2.318423
      2.312604     2.306786     2.300967     2.295149     2.289330     2.283511     2.277693     2.271874     2.266056     2.260237
      2.254418     2.248600     2.242781     2.236963     2.231144     2.225325     2.219507     2.213688     2.207870     2.202051
      2.196232     2.190414     2.184595     2.178777     2.172958     2.167139     2.161321     2.155502     2.149683     2.143865
      2.138046     2.132228     2.126409     2.120590     2.114772     2.108953     2.103135     2.097316     2.091497     2.085679
      2.079860     2.074042     2.068223     2.062404     2.056586     2.050767     2.044949     2.039130     2.033311     2.027493
      2.021674     2.015856     2.010037     2.004218     1.998400     1.992581     1.986763     1.980944     1.975126     1.969307
      1.963489     1.957670     1.951852     1.946033     1.940215     1.934397     1.928578     1.922760     1.916941     1.911123
      1.905304     1.899486     1.893667     1.887849     1.882030     1.876212     1.870393     1.864575     1.858756     1.852938
      1.847119     1.841301     1.835482     1.829664     1.823845     1.818027     1.812208     1.806390     1.800571     1.794753
      1.788934     1.783116     1.777297     1.771479     1.765660     1.759842     1.754023     1.748205     1.742386     1.736568
      1.730749     1.724931     1.719113     1.713294     1.707476     1.701657     1.695839     1.690020     1.684202     1.678383
      1.672565     1.666746     1.660928     1.655109     1.649291     1.643472     1.637654     1.631835     1.626017     1.620198
      1.614380     1.608561     1.602743     1.596924     1.591106     1.585287     1.579469     1.573650     1.567832     1.562013
      1.556195     1.550376     1.544558     1.538739     1.532921     1.527102     1.521284     1.515465     1.509647     1.503829
      1.498010     1.492192     1.486373     1.480555     1.474736     1.468918     1.463099     1.457281     1.451462     1.445644
      1.439825     1.434007     1.428188     1.422370     1.416551     1.410733     1.404914     1.399096     1.393277     1.387459
      1.381640     1.375822     1.370003     1.364185     1.358366     1.352548     1.346729     1.340911     1.335092     1.329274
      1.323455     1.317637     1.311818     1.306000     1.300182     1.294363     1.288545     1.282726     1.276908     1.271089
      1.265271     1.259452     1.253634     1.247815     1.241997     1.236178     1.230360     1.224541     1.218723     1.212904
      1.207086     1.201267     1.195449     1.189630     1.183812     1.177993     1.172175     1.166356     1.160538     1.154719
      1.148901     1.143082     1.137264     1.131445     1.125627     1.119808     1.113990     1.108171     1.102353     1.096534
      1.090716     1.084898     1.079079     1.073261     1.067442     1.061624     1.055805     1.049987     1.044168     1.038350
      1.032531     1.026713     1.020894     1.015076     1.009257     1.003439     0.997620     0.991802     0.985983     0.980165
      0.974346     0.968528     0.962709     0.956891     0.951072     0.945254     0.939435     0.933617     0.927798     0.921980
      0.916161     0.910343     0.904524     0.898706     0.892887     0.887069     0.881251     0.875432     0.869614     0.863795
      0.857977     0.852158     0.846340     0.840521     0.834703     0.828884     0.823066     0.817247     0.811429     0.805610
      0.799792     0.793973     0.788155     0.782336     0.776518     0.770699     0.764881     0.759062     0.753244     0.747425
      0.741607     0.735788     0.729970     0.724151     0.718333     0.712514     0.706696     0.700877     0.695059     0.689240
      0.683422     0.677603     0.671785     0.665967     0.660148     0.654330     0.648511     0.642693     0.636874     0.631056
      0.625237     0.619419     0.613600     0.607782     0.601963     0.596145     0.590326     0.584508     0.578689     0.572871
      0.567052     0.561234     0.555415     0.549597     0.543778     0.537960     0.532141     0.526323     0.520504     0.514686
      0.508867     0.503049     0.497230     0.491412     0.485593     0.479775     0.473956     0.468138     0.462319     0.456501
      0.450682     0.444864     0.439045     0.433227     0.427408     0.421590     0.415771     0.409953     0.404134     0.398316
      0.392497     0.386679     0.380860     0.375042     0.369223     0.363405     0.357586     0.351767     0.345949     0.340130
      0.334312     0.328493     0.322675     0.316856     0.311038     0.305219     0.299401     0.293582     0.287764     0.281945
      0.276127     0.270308     0.264490     0.258671     0.252853     0.247034     0.241216     0.235397     0.229579     0.223760
      0.217942     0.212123     0.206305     0.200486
 NY phased data points follow
   5.73178E-01  3.47148E-01  3.18697E-01 -6.09379E-02 -3.68242E-01 -8.73737E-01 -5.12867E-02  2.30509E-01 -3.71770E-01 -5.31355E-01
  -4.10647E-01  3.28075E-01  3.88252E-01 -3.19054E-01 -1.67044E-01  2.90834E-01 -2.17295E-01 -1.90554E-02 -2.74234E-02  2.28949E-02
   8.32365E-02 -4.96289E-02  2.19930E-03 -1.31167E-01 -9.25243E-02 -3.81696E-02  2.51159E-01  4.60868E-02  7.75378E-02 -2.68753E-01
   1.37882E-01  5.13658E-01 -1.15967E-01 -3.85772E-01 -3.73987E-01 -2.99348E-01 -3.98215E-01  1.13944E-01 -2.98181E-02 -2.83213E-02
   1.12888E-01  5.10349E-02  1.04827E-01  7.45221E-01  1.01002E+00  6.42960E-01  5.40583E-01  2.15901E-01  5.96278E-01  2.19452E-01
  -5.40514E-03 -4.33531E-01 -4.89682E-01 -1.89285E-02 -3.77889E-01 -2.68610E-01 -2.52519E-01 -4.02498E-01 -3.23956E-01 -1.02158E-01
  -4.85673E-01 -1.93477E-01 -5.38760E-03 -3.17424E-01 -7.41690E-01 -5.96880E-01  1.36999E-01  1.06571E-01  4.46094E-01  3.61388E-01
   3.33954E-01 -1.73604E-01  1.33165E-01  6.01964E-01 -4.98124E-01 -2.14438E-01 -1.40402E-01 -6.50905E-01 -3.47213E-01 -1.64646E-01
  -3.07378E-01 -1.08007E-01  2.40553E-01  3.05032E-01  3.73814E-01  7.86120E-01  5.37761E-01 -2.99793E-03  1.64697E-01  1.96681E-01
   3.09415E-01 -1.20234E-01 -1.24505E-01  2.13807E-01  3.30151E-01  5.27970E-01  5.10919E-02  9.11842E-02 -1.54612E-01 -4.10370E-01
  -3.26321E-01 -6.18911E-02  4.58077E-01  4.29933E-01  6.58794E-01  5.30357E-01  5.81664E-01  5.07396E-01  3.11587E-01  6.30412E-01
   2.07417E-01  3.88873E-01  6.30032E-01  3.02091E-01  2.41111E-01  2.05506E-01  4.21984E-01  6.77579E-01  8.31342E-01  1.36647E-01
   1.46170E-01  8.66093E-01  1.45445E-01 -4.36335E-01 -2.59668E-01 -2.06164E-01 -5.68315E-01 -5.97595E-01 -4.96557E-01 -8.11912E-01
  -7.89596E-01 -4.34173E-01 -6.26721E-01 -4.77892E-01 -1.51307E-01 -1.24582E+00 -1.58806E+00 -1.36795E+00 -1.00739E+00 -2.36273E-01
  -1.83695E-01 -6.96488E-01 -3.77666E-01 -1.71136E-01 -6.02888E-01  4.69588E-01 -1.76417E-01 -5.34998E-01  2.45216E-01  3.84255E-02
   2.43923E-01 -2.12378E-01  9.94071E-03  9.14610E-02  1.40645E-01 -1.01462E-01 -2.73414E-01  1.02703E+00  1.16518E+00  8.86508E-01
   9.98781E-01  1.11546E+00  7.94492E-01  7.28060E-01  1.23960E+00  1.20338E+00  1.49346E+00  2.32768E-01 -1.19275E+00 -8.80258E-01
  -9.62371E-01 -5.48267E-01 -1.86928E-01 -4.78503E-01 -4.42923E-01 -2.33696E-01 -3.28901E-01 -5.11965E-01 -1.00939E+00 -6.06564E-01
  -1.41703E-01 -6.43570E-01 -3.32076E-01 -2.98341E-01 -1.27028E-01 -5.30863E-01 -3.87714E-01  9.05305E-02 -4.65589E-01 -5.07888E-01
  -5.11008E-01 -3.59306E-01 -3.73628E-01 -7.87370E-02  9.68548E-02  2.79756E-01 -1.22316E-01  2.86214E-02  2.94189E-01 -4.95241E-01
   9.23917E-02  1.28009E-01  4.24130E-02  3.24041E-01  1.29905E-01  4.32924E-02 -4.35350E-02 -7.95992E-02  5.08405E-01  2.66395E-01
  -3.53025E-01  2.99697E-01 -3.48256E-01 -3.04765E-01  8.59056E-02 -3.83370E-01 -1.44396E-01  1.32020E-02  1.82539E-01  6.19744E-02
   1.88548E-01  7.69512E-02  4.00945E-01  4.58185E-02 -3.91176E-01  7.02478E-01  5.37310E-01 -6.80259E-03 -2.99073E-02  8.32945E-01
   5.92346E-01 -6.64114E-02  2.75381E-01 -1.44423E-02 -6.57223E-02 -9.63649E-02 -2.10600E-01 -2.41359E-01 -8.74654E-02 -1.69579E-01
  -4.99259E-02 -3.90763E-01 -2.29543E-01 -3.58830E-01 -6.04918E-01 -1.07492E-01 -4.80355E-02  2.51099E-02 -6.13721E-01  8.89245E-03
  -2.36096E-01  9.54151E-02  2.95773E-01 -3.03602E-01 -7.37687E-02 -1.52710E-01  1.46389E-01 -3.15316E-01  2.91777E-01 -1.52098E-01
   2.78446E-01  6.28208E-01 -1.60471E-01 -8.01818E-02  6.29513E-02  5.10032E-01 -8.13604E-02  1.20723E-01  4.06171E-01  7.33409E-01
   3.79831E-01 -3.01909E-01 -3.49077E-01 -1.36489E-01 -2.64498E-01 -3.11735E-01 -8.40143E-02 -1.25798E-02 -4.96913E-02 -6.20590E-01
  -1.43744E-01 -4.05370E-01 -1.93048E-01 -1.45084E-01 -1.53945E-01  5.78489E-01  5.91123E-01  8.57076E-01  9.32371E-01  6.93738E-01
   1.64766E-01 -1.60847E-01 -4.66191E-01 -9.21188E-02 -1.34510E-01 -8.63540E-02  1.27040E-01 -8.55171E-02  4.06747E-02  2.87225E-01
   3.49515E-01 -4.86021E-02  4.63476E-04 -1.07017E-01  3.30348E-01  6.43397E-01  2.72679E-01  3.48811E-01  6.26993E-01  4.33519E-01
   4.50017E-01  6.25333E-01  8.75553E-01  6.26413E-01 -2.33792E-01  1.96572E-01  2.33407E-01  2.18850E-01  2.46827E-01 -9.28619E-02
  -1.68324E-01 -4.20857E-01 -2.11526E-01  1.26356E-01 -9.69661E-02 -2.87252E-01 -1.40078E-01  2.72434E-01  5.20746E-01  1.43288E-01
   3.96672E-01  4.48962E-01  1.70770E-01  1.51722E-01 -1.90113E-02 -6.74872E-01 -7.68695E-01 -5.23734E-01 -6.38556E-01 -1.51156E-01
  -5.81775E-01 -1.07852E+00 -2.98108E+00 -3.72874E+00 -1.36472E+00 -7.82697E-01 -4.51439E-01  2.24461E-01  3.28197E-01 -1.84792E-01
   2.33350E-02  5.04564E-01  7.12911E-02  7.34937E-01  3.95212E-01  1.78010E-01  7.61666E-01  5.30295E-01  9.56210E-01  2.98327E-01
  -3.15511E-01 -2.77083E-02 -3.18337E-01  1.19480E-02 -2.01480E-01 -1.36548E-01 -1.09409E-03 -3.29287E-01  4.22127E-01  1.01836E-01
  -3.93078E-01  1.70613E-01  5.39571E-01  1.04522E-02  3.13231E-01  4.90324E-01  2.59357E-02  6.44068E-01  2.66780E-01  5.39210E-01
   2.51307E-01  6.80094E-02  5.76829E-01  1.36908E-01  4.42203E-01  9.16553E-02 -1.32701E-01 -7.76186E-02  8.85498E-02 -1.56984E-01
  -1.68059E-01  2.84377E-01  2.63485E-01  9.78969E-01  6.46596E-01  5.01801E-03  5.43601E-01  4.35310E-01 -2.86603E-01 -5.05314E-01
  -1.10421E-01  1.36314E-01  1.32220E-01  1.59936E-01 -8.55960E-02 -3.98488E-01 -5.03457E-01  3.16670E-01  1.08929E-02 -2.25876E-01
   2.04074E-01 -3.69821E-01  2.73983E-01  1.60583E-01 -4.28645E-01 -2.47947E-01  1.20413E-01  5.90946E-02 -3.14217E-01 -8.52137E-02
   3.97267E-02 -2.94513E-01 -4.63831E-01  8.05073E-03  4.03763E-02 -1.70797E-01 -3.39259E-01 -1.00949E-04 -2.70828E-01 -2.59866E-01
  -3.12836E-01 -6.93463E-01  2.78308E-01  7.14804E-03 -3.25650E-01 -1.66884E-01 -4.53336E-01 -5.20059E-01 -2.99078E-01 -3.56110E-01
  -5.75719E-01 -2.57753E-01 -2.45360E-01 -2.53819E-01 -2.00725E-02 -8.34820E-02  3.06705E-02  4.24652E-01  4.82485E-02 -3.36197E-01
   4.10309E-01  5.50875E-01 -5.92600E-02  2.12989E-01  2.70435E-01 -4.07404E-01 -2.54177E-01  3.66064E-01  1.25114E-01  3.44415E-01
   1.69649E-01 -6.62654E-02  3.96818E-01 -6.69351E-02  2.94479E-01  9.86674E-02 -6.98237E-01  8.37635E-02  4.59948E-01 -2.32869E-03
  -2.18506E-01 -1.78322E-01  4.51259E-01  1.31853E-01 -3.87173E-03  3.70325E-01  1.13583E-01  2.24392E-01 -2.44065E-01  5.62474E-02
   1.71439E-01  4.30320E-01 -7.60531E-02 -2.85015E-01  7.58398E-01  6.96218E-02  5.79309E-02  1.34995E-01  1.76515E-01 -1.45959E-01
  -2.97804E-01  5.59833E-02  9.96797E-02  2.50193E-01 -7.28761E-02 -3.58712E-01 -4.60045E-01 -5.42255E-01 -3.54265E-01  2.94265E-02
  -1.50606E-01  1.62786E-01  1.66157E-01 -1.57920E-03  2.03734E-02  6.26568E-01  2.98012E-01 -3.77006E-01  1.42953E-01 -3.94280E-01
   4.05386E-01 -6.63599E-03 -2.09609E-01  7.45901E-01  4.00956E-01  6.41614E-01  3.81418E-01  2.89450E-01  2.89723E-02 -1.79575E-01
   1.79208E-02  1.05228E-01 -2.90634E-01 -8.39219E-02 -6.69230E-02 -2.94687E-01  1.88802E-01 -6.39176E-01 -1.39541E-01 -2.66545E-01
  -8.84895E-01 -1.44304E-01 -1.81997E-02 -2.57685E-01 -7.85722E-01  1.99081E-01  4.58796E-01 -1.34605E-01 -2.79223E-01 -5.72520E-01
  -6.41215E-01 -1.42141E-01  1.74290E-01 -3.05893E-01 -9.66953E-02 -2.59304E-01  2.84198E-01  3.18471E-01 -2.50393E-01  7.30002E-02
   2.45240E-01  6.58499E-01  9.41150E-02 -5.73249E-02  8.17077E-01  6.65779E-01  1.48232E-01  6.32404E-01  4.75944E-01  1.47884E-01
   1.83539E-01  2.73759E-02  4.19580E-01  2.56959E-01 -2.02738E-02  1.91896E-01  1.69782E-01 -2.52887E-01  5.58216E-03  1.44413E-01
  -1.15805E-01  9.03549E-02 -5.13135E-01 -2.66065E-01  3.25797E-01 -5.14006E-01 -4.18632E-01  5.24561E-02 -6.36772E-02 -1.86651E-01
  -3.93455E-02 -6.22494E-01 -2.18612E-01  7.26815E-01 -1.18807E-02  5.42769E-01  4.67757E-01  2.51705E-01 -1.77871E-01 -6.80594E-02
   3.63002E-02 -6.66971E-01 -3.39856E-02 -5.56427E-01  2.92521E-02 -1.48240E-01  1.62653E-01  1.50413E-01 -3.77805E-01  3.07798E-01
  -5.02971E-01 -2.29017E-01 -4.51599E-02  3.93241E-02  1.41924E-01  5.15542E-01  2.81374E-01 -1.16255E-01 -1.40763E-01 -2.37129E-01
   1.55652E-01  7.41054E-02 -1.36866E-01 -7.82935E-02  3.98883E-01  3.36967E-01  4.84730E-01 -1.76062E-01 -3.41877E-01 -1.56001E-01
  -1.13512E-01 -1.66994E-02 -1.29226E-01  1.55008E-01 -5.61972E-02  1.45424E-01  7.21173E-03  8.99367E-02  2.01633E-01  2.90477E-01
  -6.66796E-02  2.00134E-01  6.63545E-02  1.61279E-02  3.32478E-01 -2.66125E-01  7.95821E-01  3.56181E-01 -1.39037E-01  2.10382E-01
   4.40247E-02  2.42977E-01  4.38789E-01 -7.87017E-02 -7.20765E-02  1.85033E-01 -3.52797E-02  2.35876E-01 -3.00020E-01 -6.22499E-02
   1.21706E-02  1.80535E-01  2.04760E-01 -2.47313E-01
 NY points of the fit to the data follow
   8.14361E-02  5.08927E-02  1.96414E-02 -5.74493E-03 -1.69596E-02 -1.67531E-02 -1.28424E-02  8.67246E-03  3.60966E-02  6.89027E-02
   1.94972E-01  4.04613E-01  5.58942E-01  5.55199E-01  5.08531E-01  4.81242E-01  3.50469E-01  1.86268E-01  9.85644E-02  4.81042E-02
   1.66422E-02  1.40059E-03 -2.50874E-02 -5.75102E-02 -8.30636E-02 -1.02127E-01 -1.15539E-01 -1.25707E-01 -1.36841E-01 -1.49476E-01
  -1.61068E-01 -1.74799E-01 -1.96718E-01 -2.26801E-01 -2.62825E-01 -2.92098E-01 -3.21598E-01 -3.31376E-01 -2.86492E-01 -1.82613E-01
  -3.59838E-02  9.41216E-02  2.45073E-01  3.68037E-01  4.38490E-01  4.35000E-01  3.64382E-01  2.84376E-01  2.11505E-01  1.56870E-01
   1.08292E-01  5.86558E-02  1.67755E-02 -2.67713E-02 -8.03756E-02 -1.40821E-01 -2.01641E-01 -2.59755E-01 -3.15393E-01 -3.45166E-01
  -3.79026E-01 -3.87181E-01 -3.25688E-01 -2.53474E-01 -2.03050E-01 -1.35297E-01  9.22567E-02  3.06626E-01  3.93592E-01  5.02498E-01
   5.25956E-01  4.11007E-01  2.93244E-01  1.88523E-01  7.92589E-02 -3.32995E-02 -1.34069E-01 -2.51075E-01 -4.62986E-01 -6.47686E-01
  -5.84130E-01 -2.74020E-01 -5.00846E-03  1.85404E-01  4.49062E-01  6.11428E-01  5.85147E-01  5.11572E-01  4.29284E-01  3.46228E-01
   2.99048E-01  2.69772E-01  2.28883E-01  1.75137E-01  1.07878E-01 -2.88014E-03 -1.46444E-01 -3.15372E-01 -4.26026E-01 -4.22803E-01
  -2.66013E-01 -7.81967E-03  2.28232E-01  3.76702E-01  4.21005E-01  4.02982E-01  3.75105E-01  3.54328E-01  3.44424E-01  3.43896E-01
   3.43756E-01  3.43346E-01  3.42890E-01  3.42021E-01  3.42338E-01  3.44722E-01  3.48431E-01  3.51077E-01  3.38910E-01  3.38705E-01
   3.16156E-01  2.29558E-01  1.33912E-01  4.43605E-02 -1.09266E-02 -1.78374E-01 -2.92268E-01 -4.17246E-01 -5.81765E-01 -6.92205E-01
  -6.40175E-01 -5.17205E-01 -3.37645E-01 -2.08729E-01 -4.50164E-01 -1.13141E+00 -1.60945E+00 -1.36582E+00 -8.29815E-01 -4.13543E-01
  -1.40582E-01 -2.94391E-02 -2.49343E-02 -1.68292E-02  7.91485E-03  3.41464E-02  5.91480E-02  8.19354E-02  1.02678E-01  1.21831E-01
   1.39901E-01  1.58193E-01  1.77087E-01  1.96797E-01  2.18547E-01  2.42726E-01  2.70565E-01  3.02906E-01  3.40029E-01  3.84576E-01
   4.45140E-01  5.36770E-01  6.71752E-01  6.95426E-01  8.57281E-01  1.00702E+00  7.76296E-01 -1.46430E-01 -1.03112E+00 -1.12929E+00
  -9.04269E-01 -6.83412E-01 -4.81660E-01 -4.06273E-01 -4.17426E-01 -3.99875E-01 -3.55548E-01 -3.20118E-01 -3.04021E-01 -2.85427E-01
  -2.62193E-01 -2.40539E-01 -2.27313E-01 -2.18977E-01 -2.13515E-01 -2.08395E-01 -1.99337E-01 -1.88743E-01 -1.79831E-01 -1.72051E-01
  -1.63205E-01 -1.53728E-01 -1.44333E-01 -1.35100E-01 -1.26065E-01 -1.18105E-01 -1.10622E-01 -1.02033E-01 -9.25119E-02 -8.37423E-02
  -7.37502E-02 -5.94604E-02 -4.62182E-02 -4.39727E-02 -5.40832E-02 -6.03777E-02 -5.03243E-02 -3.50386E-02 -3.47490E-02 -5.53233E-02
  -7.70796E-02 -8.45750E-02 -7.98383E-02 -7.01756E-02 -5.76379E-02 -3.84927E-02 -1.48197E-02 -4.77857E-03 -1.75372E-02 -3.29357E-02
  -2.00639E-02  1.73568E-02  5.07149E-02  8.52511E-02  1.81281E-01  3.51374E-01  4.42852E-01  3.79681E-01  3.31500E-01  4.30382E-01
   5.26023E-01  4.35125E-01  2.38261E-01  7.29120E-02 -3.56648E-02 -8.26850E-02 -8.41987E-02 -8.04383E-02 -8.48690E-02 -9.33589E-02
  -1.02919E-01 -1.12768E-01 -1.19447E-01 -1.25805E-01 -1.31599E-01 -1.38852E-01 -1.46072E-01 -1.52460E-01 -1.61556E-01 -1.65022E-01
  -1.66018E-01 -1.71153E-01 -1.76560E-01 -1.89513E-01 -2.03496E-01 -1.69363E-01 -8.67662E-02  1.99496E-02  5.99772E-02  1.14217E-01
   2.07427E-01  2.41875E-01  2.25979E-01  1.74916E-01  2.03020E-01  2.40563E-01  2.13703E-01  1.87020E-01  1.73658E-01  1.51643E-01
   1.20092E-01  8.28889E-02  3.51207E-02 -1.50349E-02 -6.25559E-02 -1.08809E-01 -1.66469E-01 -2.23346E-01 -2.95732E-01 -3.82101E-01
  -4.51688E-01 -4.78348E-01 -4.17670E-01 -2.76401E-01 -4.55244E-02  2.13759E-01  4.09125E-01  5.27954E-01  5.23802E-01  4.24599E-01
   3.17879E-01  2.35098E-01  1.71661E-01  1.49854E-01  1.54577E-01  1.97479E-01  2.54471E-01  2.95561E-01  3.21143E-01  3.14588E-01
   2.90492E-01  2.69979E-01  2.51230E-01  2.35499E-01  2.21397E-01  2.05215E-01  1.83728E-01  1.50450E-01  1.15110E-01  7.36104E-02
   4.46483E-02  2.38325E-02  2.62352E-02  4.15267E-02  4.44311E-02  3.75637E-02 -7.83172E-03 -7.75845E-02 -1.51370E-01 -2.14749E-01
  -2.60063E-01 -2.79231E-01 -2.68348E-01 -2.30735E-01 -1.49900E-01 -4.04246E-02  6.99167E-02  1.52684E-01  1.81801E-01  1.68102E-01
   1.00628E-01  1.88685E-02 -1.00923E-01 -1.61152E-01 -2.45016E-01 -3.74420E-01 -4.86768E-01 -4.32809E-01 -4.27079E-01 -2.67568E-01
  -4.66178E-01 -1.40312E+00 -2.85785E+00 -3.18585E+00 -1.98836E+00 -9.19183E-01 -3.23120E-01  2.46293E-02  2.45419E-02 -6.56475E-02
  -5.99378E-02 -3.99658E-02 -1.89478E-02  1.48056E-04  1.71726E-02  3.38081E-02  4.39087E-02  5.21348E-02  4.10825E-02  1.79398E-02
  -2.65854E-02 -7.39428E-02 -1.19873E-01 -1.56244E-01 -1.65813E-01 -1.58032E-01 -1.32230E-01 -9.89902E-02 -7.11385E-02 -4.82127E-02
  -2.95143E-02 -1.42622E-02 -1.01880E-03  9.35778E-03  1.67380E-02  2.20533E-02  2.73089E-02  3.28850E-02  3.86573E-02  4.38613E-02
   4.77221E-02  5.10711E-02  5.49566E-02  5.91493E-02  6.32942E-02  6.64908E-02  6.86323E-02  7.04759E-02  7.30729E-02  7.69802E-02
   8.10707E-02  8.48931E-02  8.76398E-02  8.84343E-02  8.76045E-02  8.62938E-02  8.49654E-02  8.35841E-02  8.18919E-02  7.93561E-02
   7.56819E-02  7.15633E-02  6.72993E-02  6.21155E-02  5.65117E-02  5.18834E-02  4.80474E-02  4.38394E-02  3.95274E-02  3.55376E-02
   3.18672E-02  2.85740E-02  2.62448E-02  2.42921E-02  2.19240E-02  1.95337E-02  1.71648E-02  1.45208E-02  1.24432E-02  1.11861E-02
   1.01142E-02  9.08398E-03  8.54876E-03  9.17363E-03  1.05424E-02  1.23897E-02  1.47926E-02  1.77320E-02  2.09563E-02  2.50189E-02
   2.87989E-02  3.03962E-02  3.12017E-02  3.31553E-02  3.76461E-02  4.36653E-02  4.98608E-02  5.53776E-02  6.05162E-02  6.63701E-02
   7.36257E-02  8.22007E-02  9.12992E-02  1.00277E-01  1.08917E-01  1.17752E-01  1.26297E-01  1.34336E-01  1.40616E-01  1.44404E-01
   1.45955E-01  1.45782E-01  1.44675E-01  1.42591E-01  1.39325E-01  1.35372E-01  1.33195E-01  1.25588E-01  1.26171E-01  1.38157E-01
   1.68437E-01  1.94793E-01  2.02794E-01  1.89916E-01  1.52971E-01  1.18889E-01  9.95860E-02  8.70276E-02  8.01485E-02  7.63122E-02
   7.18790E-02  6.77784E-02  6.39768E-02  6.07181E-02  5.88711E-02  5.90849E-02  6.05750E-02  6.23644E-02  6.44111E-02  6.71725E-02
   7.03910E-02  7.44733E-02  7.93761E-02  8.33887E-02  8.63846E-02  8.86447E-02  9.01115E-02  9.10389E-02  9.25196E-02  9.49847E-02
   9.71793E-02  9.81107E-02  9.75796E-02  9.64594E-02  9.50024E-02  9.30933E-02  9.03249E-02  8.74210E-02  8.52606E-02  8.32078E-02
   8.09043E-02  7.85356E-02  7.60871E-02  7.34706E-02  7.07407E-02  6.78075E-02  6.47276E-02  6.19342E-02  6.03588E-02  5.91652E-02
   5.69202E-02  5.42769E-02  5.17387E-02  4.82455E-02  4.32590E-02  3.72579E-02  3.11837E-02  2.51200E-02  1.83632E-02  9.87508E-03
  -1.76424E-03 -1.56601E-02 -2.96740E-02 -4.27348E-02 -5.54607E-02 -6.82165E-02 -8.01065E-02 -9.05220E-02 -9.99831E-02 -1.08879E-01
  -1.15666E-01 -1.18638E-01 -1.19025E-01 -1.19054E-01 -1.17905E-01 -1.14313E-01 -1.09086E-01 -1.03956E-01 -9.89809E-02 -9.45946E-02
  -9.07402E-02 -8.62397E-02 -8.00998E-02 -7.33844E-02 -6.66722E-02 -5.88343E-02 -5.06301E-02 -4.27963E-02 -3.51888E-02 -2.76302E-02
  -2.07509E-02 -1.42920E-02 -7.15929E-03 -2.88623E-05  5.17622E-03  9.49968E-03  1.47007E-02  2.03862E-02  2.48532E-02  2.75573E-02
   3.02493E-02  3.36782E-02  3.65564E-02  3.86456E-02  4.03550E-02  4.13488E-02  4.28059E-02  4.46042E-02  4.49665E-02  4.47814E-02
   4.57482E-02  4.76401E-02  4.93694E-02  5.14874E-02  5.37584E-02  5.47098E-02  5.47278E-02  5.48380E-02  5.48652E-02  5.45998E-02
   5.44280E-02  5.44982E-02  5.42384E-02  5.38325E-02  5.37288E-02  5.37900E-02  5.41173E-02  5.48359E-02  5.58423E-02  5.57794E-02
   5.33340E-02  5.04421E-02  5.01812E-02  5.14612E-02  5.14684E-02  5.09390E-02  5.05862E-02  5.01926E-02  4.87502E-02  4.71650E-02
   4.71121E-02  4.84861E-02  4.98401E-02  5.01587E-02  5.02001E-02  5.06187E-02  5.13397E-02  5.20849E-02  5.24800E-02  5.28446E-02
   5.35197E-02  5.33497E-02  5.17755E-02  5.01434E-02  4.96700E-02  5.00179E-02  5.04159E-02  5.14314E-02  5.23477E-02  5.22211E-02
   5.17441E-02  5.21366E-02  5.41214E-02  5.61805E-02  5.69314E-02  5.62689E-02  5.38925E-02  5.18679E-02  5.16251E-02  5.24073E-02
   5.30177E-02  5.25930E-02  5.12328E-02  5.00582E-02  4.96729E-02  4.96035E-02  4.93415E-02  4.81936E-02  4.76038E-02  4.83202E-02
   4.87458E-02  4.81438E-02  4.73114E-02  4.70791E-02  4.68095E-02  4.66036E-02  4.67423E-02  4.77269E-02  4.99625E-02  5.15565E-02
   5.19955E-02  5.19608E-02  5.15669E-02  5.12519E-02
 NY background values follow
     4.412E-02    4.406E-02    4.399E-02    4.393E-02    4.387E-02    4.380E-02    4.374E-02    4.368E-02    4.362E-02    4.355E-02
     4.349E-02    4.343E-02    4.337E-02    4.330E-02    4.324E-02    4.318E-02    4.312E-02    4.305E-02    4.299E-02    4.293E-02
     4.286E-02    4.280E-02    4.274E-02    4.268E-02    4.261E-02    4.255E-02    4.249E-02    4.243E-02    4.236E-02    4.230E-02
     4.224E-02    4.217E-02    4.211E-02    4.205E-02    4.199E-02    4.192E-02    4.186E-02    4.180E-02    4.173E-02    4.167E-02
     4.161E-02    4.155E-02    4.148E-02    4.142E-02    4.136E-02    4.130E-02    4.123E-02    4.117E-02    4.111E-02    4.104E-02
     4.098E-02    4.092E-02    4.085E-02    4.079E-02    4.073E-02    4.067E-02    4.060E-02    4.054E-02    4.048E-02    4.041E-02
     4.035E-02    4.029E-02    4.023E-02    4.016E-02    4.010E-02    4.004E-02    3.997E-02    3.991E-02    3.985E-02    3.978E-02
