 LCModel (Version 6.3-1N) Copyright: S.W. Provencher.          Ref.: Magn. Reson. Med. 30:672-679 (1993).                
 Slice_N1@14_16  02-Jun-2023 14:36:57
 27 lines in following concentration table = NCONC+1
    Conc.  %SD /Cr+PCr  Metabolite                                         
 1.96E-06  16% 3.0E-04 Mac                                                 
 3.53E-02  17%   5.362 Cr                                                  
 1.74E-02  37%   2.638 PCr                                                 
 7.03E-02  11%  10.673 Ins                                                 
 7.94E-02   8%  12.051 NAA                                                 
 2.75E-02  21%   4.181 Tau                                                 
 5.71E-03  53%   0.867 PCho                                                
 8.19E-03  35%   1.244 GPC                                                 
 5.56E-02  15%   8.441 Glu                                                 
 2.10E-02  28%   3.188 Gln                                                 
    0.000 999%   0.000 Ala                                                 
 2.66E-02  43%   4.032 Asc                                                 
 1.75E-02  39%   2.661 Asp                                                 
 1.53E-02  24%   2.324 GABA                                                
 1.29E-02  36%   1.954 Glc                                                 
 5.45E-03  58%   0.828 GSH                                                 
    0.000 999%   0.000 Lac                                                 
 7.93E-03  47%   1.205 NAAG                                                
    0.000 999%   0.000 PE                                                  
 1.39E-02  12%   2.111 GPC+PCho                                            
 8.73E-02   8%  13.255 NAA+NAAG                                            
 7.66E-02  13%  11.629 Glu+Gln                                             
 5.27E-02  10%   8.000 Cr+PCr                                              
 8.73E-02   8%  13.255 NAA+NAAG                                            
 5.27E-02  10%   8.000 Cr+PCr                                              
 7.66E-02  13%  11.629 Glu+Gln                                             
   6 lines in following misc. output table
  FWHM = 0.017 ppm    S/N =   6                                            
  Data shift = 0.017 ppm                                                   
  Ph: -50 deg      -7.9 deg/ppm                                            
  alphaB,S = 1.6E+01,   2.0E-01                                            
   18 spline knots.   Ns = 5(1)                                            
   2 inflections.     2 extrema                                            
  654 points on ppm-axis = NY
      4.000000     3.994181     3.988363     3.982544     3.976726     3.970907     3.965088     3.959270     3.953451     3.947633
      3.941814     3.935995     3.930177     3.924358     3.918540     3.912721     3.906902     3.901084     3.895265     3.889446
      3.883628     3.877809     3.871991     3.866172     3.860353     3.854535     3.848716     3.842898     3.837079     3.831260
      3.825442     3.819623     3.813805     3.807986     3.802167     3.796349     3.790530     3.784712     3.778893     3.773074
      3.767256     3.761437     3.755619     3.749800     3.743981     3.738163     3.732344     3.726526     3.720707     3.714888
      3.709070     3.703251     3.697433     3.691614     3.685795     3.679977     3.674158     3.668339     3.662521     3.656702
      3.650884     3.645065     3.639246     3.633428     3.627609     3.621791     3.615972     3.610153     3.604335     3.598516
      3.592698     3.586879     3.581060     3.575242     3.569423     3.563605     3.557786     3.551967     3.546149     3.540330
      3.534512     3.528693     3.522874     3.517056     3.511237     3.505419     3.499600     3.493781     3.487963     3.482144
      3.476326     3.470507     3.464688     3.458870     3.453051     3.447232     3.441414     3.435595     3.429777     3.423958
      3.418139     3.412321     3.406502     3.400684     3.394865     3.389046     3.383228     3.377409     3.371591     3.365772
      3.359953     3.354135     3.348316     3.342498     3.336679     3.330860     3.325042     3.319223     3.313405     3.307586
      3.301767     3.295949     3.290130     3.284312     3.278493     3.272674     3.266856     3.261037     3.255219     3.249400
      3.243581     3.237763     3.231944     3.226125     3.220307     3.214488     3.208670     3.202851     3.197032     3.191214
      3.185395     3.179577     3.173758     3.167939     3.162121     3.156302     3.150484     3.144665     3.138846     3.133028
      3.127209     3.121391     3.115572     3.109753     3.103935     3.098116     3.092298     3.086479     3.080660     3.074842
      3.069023     3.063205     3.057386     3.051567     3.045749     3.039930     3.034111     3.028293     3.022474     3.016656
      3.010837     3.005018     2.999200     2.993381     2.987563     2.981744     2.975925     2.970107     2.964288     2.958470
      2.952651     2.946832     2.941014     2.935195     2.929377     2.923558     2.917739     2.911921     2.906102     2.900284
      2.894465     2.888646     2.882828     2.877009     2.871191     2.865372     2.859553     2.853735     2.847916     2.842098
      2.836279     2.830460     2.824642     2.818823     2.813004     2.807186     2.801367     2.795549     2.789730     2.783911
      2.778093     2.772274     2.766456     2.760637     2.754818     2.749000     2.743181     2.737363     2.731544     2.725725
      2.719907     2.714088     2.708270     2.702451     2.696632     2.690814     2.684995     2.679177     2.673358     2.667539
      2.661721     2.655902     2.650084     2.644265     2.638446     2.632628     2.626809     2.620991     2.615172     2.609353
      2.603535     2.597716     2.591897     2.586079     2.580260     2.574442     2.568623     2.562804     2.556986     2.551167
      2.545349     2.539530     2.533711     2.527893     2.522074     2.516256     2.510437     2.504618     2.498800     2.492981
      2.487163     2.481344     2.475525     2.469707     2.463888     2.458070     2.452251     2.446432     2.440614     2.434795
      2.428977     2.423158     2.417339     2.411521     2.405702     2.399884     2.394065     2.388246     2.382428     2.376609
      2.370790     2.364972     2.359153     2.353335     2.347516     2.341697     2.335879     2.330060     2.324242     2.318423
      2.312604     2.306786     2.300967     2.295149     2.289330     2.283511     2.277693     2.271874     2.266056     2.260237
      2.254418     2.248600     2.242781     2.236963     2.231144     2.225325     2.219507     2.213688     2.207870     2.202051
      2.196232     2.190414     2.184595     2.178777     2.172958     2.167139     2.161321     2.155502     2.149683     2.143865
      2.138046     2.132228     2.126409     2.120590     2.114772     2.108953     2.103135     2.097316     2.091497     2.085679
      2.079860     2.074042     2.068223     2.062404     2.056586     2.050767     2.044949     2.039130     2.033311     2.027493
      2.021674     2.015856     2.010037     2.004218     1.998400     1.992581     1.986763     1.980944     1.975126     1.969307
      1.963489     1.957670     1.951852     1.946033     1.940215     1.934397     1.928578     1.922760     1.916941     1.911123
      1.905304     1.899486     1.893667     1.887849     1.882030     1.876212     1.870393     1.864575     1.858756     1.852938
      1.847119     1.841301     1.835482     1.829664     1.823845     1.818027     1.812208     1.806390     1.800571     1.794753
      1.788934     1.783116     1.777297     1.771479     1.765660     1.759842     1.754023     1.748205     1.742386     1.736568
      1.730749     1.724931     1.719113     1.713294     1.707476     1.701657     1.695839     1.690020     1.684202     1.678383
      1.672565     1.666746     1.660928     1.655109     1.649291     1.643472     1.637654     1.631835     1.626017     1.620198
      1.614380     1.608561     1.602743     1.596924     1.591106     1.585287     1.579469     1.573650     1.567832     1.562013
      1.556195     1.550376     1.544558     1.538739     1.532921     1.527102     1.521284     1.515465     1.509647     1.503829
      1.498010     1.492192     1.486373     1.480555     1.474736     1.468918     1.463099     1.457281     1.451462     1.445644
      1.439825     1.434007     1.428188     1.422370     1.416551     1.410733     1.404914     1.399096     1.393277     1.387459
      1.381640     1.375822     1.370003     1.364185     1.358366     1.352548     1.346729     1.340911     1.335092     1.329274
      1.323455     1.317637     1.311818     1.306000     1.300182     1.294363     1.288545     1.282726     1.276908     1.271089
      1.265271     1.259452     1.253634     1.247815     1.241997     1.236178     1.230360     1.224541     1.218723     1.212904
      1.207086     1.201267     1.195449     1.189630     1.183812     1.177993     1.172175     1.166356     1.160538     1.154719
      1.148901     1.143082     1.137264     1.131445     1.125627     1.119808     1.113990     1.108171     1.102353     1.096534
      1.090716     1.084898     1.079079     1.073261     1.067442     1.061624     1.055805     1.049987     1.044168     1.038350
      1.032531     1.026713     1.020894     1.015076     1.009257     1.003439     0.997620     0.991802     0.985983     0.980165
      0.974346     0.968528     0.962709     0.956891     0.951072     0.945254     0.939435     0.933617     0.927798     0.921980
      0.916161     0.910343     0.904524     0.898706     0.892887     0.887069     0.881251     0.875432     0.869614     0.863795
      0.857977     0.852158     0.846340     0.840521     0.834703     0.828884     0.823066     0.817247     0.811429     0.805610
      0.799792     0.793973     0.788155     0.782336     0.776518     0.770699     0.764881     0.759062     0.753244     0.747425
      0.741607     0.735788     0.729970     0.724151     0.718333     0.712514     0.706696     0.700877     0.695059     0.689240
      0.683422     0.677603     0.671785     0.665967     0.660148     0.654330     0.648511     0.642693     0.636874     0.631056
      0.625237     0.619419     0.613600     0.607782     0.601963     0.596145     0.590326     0.584508     0.578689     0.572871
      0.567052     0.561234     0.555415     0.549597     0.543778     0.537960     0.532141     0.526323     0.520504     0.514686
      0.508867     0.503049     0.497230     0.491412     0.485593     0.479775     0.473956     0.468138     0.462319     0.456501
      0.450682     0.444864     0.439045     0.433227     0.427408     0.421590     0.415771     0.409953     0.404134     0.398316
      0.392497     0.386679     0.380860     0.375042     0.369223     0.363405     0.357586     0.351767     0.345949     0.340130
      0.334312     0.328493     0.322675     0.316856     0.311038     0.305219     0.299401     0.293582     0.287764     0.281945
      0.276127     0.270308     0.264490     0.258671     0.252853     0.247034     0.241216     0.235397     0.229579     0.223760
      0.217942     0.212123     0.206305     0.200486
 NY phased data points follow
  -2.84402E-01 -2.40622E-01 -2.49724E-01 -7.19433E-02  1.75667E-01 -4.16175E-01 -7.26139E-02 -1.33013E-01 -4.37360E-01  1.81419E-01
  -7.74467E-02  2.05276E-01  6.25597E-02  1.38286E-01  2.51433E-01  3.36801E-01  4.05269E-01  5.13140E-02  3.41301E-01  9.11662E-02
   1.46430E-01  3.21912E-01  2.21809E-01 -3.26003E-02  2.72359E-02 -1.69412E-01 -2.22701E-01  4.94683E-02 -2.04500E-02  3.91327E-02
  -2.91382E-01 -1.40845E-01 -1.31591E-01 -1.87241E-01 -1.35528E-02 -2.72673E-01 -3.41863E-01 -8.73554E-02 -2.33289E-01 -2.63634E-01
   6.63161E-02  1.34209E-01  1.10178E-01  1.98984E-01  3.12890E-01  2.77765E-01  3.29450E-01  2.06411E-01  1.78211E-01  1.85079E-01
   3.98109E-01  1.96007E-01  3.09390E-02  2.64556E-01 -4.43411E-02 -1.88367E-01 -1.38780E-01 -1.27511E-01 -2.03413E-01 -8.84431E-02
  -1.42835E-01 -2.30031E-01 -2.57136E-01 -4.16619E-01 -7.94599E-01 -3.92963E-01  2.18296E-01  2.07347E-02  3.61213E-01  2.70747E-01
   2.25262E-01  1.80150E-01 -2.51900E-02  1.34833E-01 -2.20993E-01 -1.80822E-01 -1.41059E-01 -2.98794E-01 -2.69493E-01 -6.43004E-01
  -5.63455E-01 -3.47257E-01  2.16665E-03  3.87560E-01  3.25189E-01  2.54109E-01  2.73620E-01  4.37856E-01  7.82256E-02  1.17519E-01
   1.32971E-01  1.79383E-01  1.44352E-01 -1.07718E-02  3.05386E-01  1.83637E-02  1.03977E-02  1.15542E-01  6.14882E-02 -6.68706E-02
   1.07146E-01  2.16631E-01  3.25619E-01  1.42422E-01  7.20470E-02  3.28836E-01 -5.13414E-02  3.81075E-01  5.18038E-01  5.03164E-01
   3.02060E-01  1.62342E-01  4.45802E-01  1.63284E-01  4.22057E-01  4.11846E-01  1.88024E-01  2.03700E-01  1.20217E-01  4.09237E-01
   3.60129E-01 -1.36517E-01  3.61507E-02  9.80515E-02 -3.85369E-01 -1.14578E-01  1.49077E-01 -1.05466E-02 -1.88984E-01 -3.06188E-01
   5.19932E-03 -4.00574E-01 -4.77892E-01 -3.78370E-01 -5.31672E-01 -6.47121E-01 -1.18330E+00 -1.05250E+00 -6.16989E-01 -5.56063E-02
  -4.46440E-01 -2.52087E-01 -5.48225E-02 -2.38471E-01  1.65637E-01  1.32981E-01  2.74846E-01 -1.82176E-01  1.63781E-01  1.84261E-01
   2.53769E-01  4.25177E-01  1.17866E-02  2.14759E-01  1.17170E-01  5.95385E-02  1.35382E-01  6.14789E-01  3.99398E-01  2.76127E-01
   6.76643E-01  6.06020E-01  3.61062E-01  4.12132E-01  7.96312E-01  1.18216E+00  8.44603E-01 -1.58100E-01 -6.57596E-01 -9.33352E-01
  -6.34430E-01 -7.03917E-01 -6.60653E-01 -3.76248E-01 -5.40455E-01 -5.32969E-01 -5.91471E-01 -3.52638E-01 -4.42332E-01 -4.08699E-01
  -3.03812E-01 -4.30687E-01 -2.15395E-01 -3.92825E-01 -1.60303E-01  2.37451E-01 -6.94569E-02 -9.64669E-02 -2.15949E-01 -2.70154E-01
  -2.43573E-02  4.53374E-02 -6.22865E-02 -2.46952E-02 -1.43075E-01  4.13972E-02  1.52967E-01 -3.39272E-01  9.05265E-02 -2.61828E-01
  -1.78882E-01  1.18297E-01 -2.67999E-01  2.34395E-01 -4.47413E-02  3.14784E-02  1.69281E-01  7.09123E-02  8.54016E-02 -5.30796E-02
   2.04444E-02 -2.48141E-01 -2.10727E-01 -3.85702E-02 -1.69843E-01 -6.16481E-02  2.34101E-01 -1.42184E-01  3.02281E-03  2.50400E-01
  -2.53816E-01 -2.25036E-02 -1.21478E-01 -1.82242E-01  3.74596E-01  2.14240E-01  1.22905E-01  3.20348E-01  1.96028E-01  3.87939E-01
   4.74867E-01  2.49285E-01  2.15226E-01  9.89800E-02  1.05099E-01 -5.80245E-02 -1.02953E-01  9.87074E-02 -4.21444E-02 -1.04975E-01
  -2.03246E-02 -1.93199E-02 -7.92421E-03 -4.49850E-02 -8.30220E-03  1.44032E-01 -1.04354E-01 -9.99425E-02  2.36767E-02  1.31663E-01
   3.19505E-01 -1.16411E-02 -3.32784E-01 -2.05212E-01 -7.55486E-02 -3.22170E-01 -1.92488E-02  1.57534E-01  1.70014E-01  1.48254E-01
  -4.62702E-02  1.32129E-01  3.37230E-02  1.28707E-01  5.59833E-02 -1.44316E-01  7.41382E-02  2.90413E-01  1.78501E-01  1.61872E-01
   1.56403E-01  1.57773E-01 -2.23535E-02 -2.59037E-01  2.34230E-01 -8.00688E-02 -1.62511E-01  3.55902E-02 -5.84424E-01 -2.80023E-01
  -3.66003E-03 -4.81262E-01 -5.22235E-01 -3.00854E-01  3.25109E-01  5.98533E-01  1.25781E-02  2.76677E-01  2.94012E-01  5.01292E-02
   1.32613E-01 -3.29923E-01 -9.27730E-02  1.35274E-01  1.61782E-01  2.79941E-01 -1.76824E-02  6.96544E-02  4.56948E-01  3.99602E-01
   4.67834E-02  3.56164E-01  1.42889E-01 -4.67638E-02  2.83806E-01  2.50181E-01  4.21932E-01  3.03930E-01  2.46064E-01  1.46105E-01
   2.57002E-01  4.24573E-01  1.93965E-01 -4.20095E-02  1.44635E-01  2.98401E-02 -1.43398E-01  1.53176E-01 -1.82510E-01 -2.01361E-01
  -3.86818E-01 -3.49565E-01 -1.82139E-01 -3.47768E-01 -2.39357E-01  6.72330E-02 -2.97968E-02  6.51744E-02  6.03805E-01  1.87431E-01
   1.34602E-01  2.77704E-01  2.75465E-01 -1.51949E-01 -1.74236E-01 -3.45231E-01 -5.09996E-01 -2.92954E-02 -6.28524E-02  1.22203E-02
  -4.42769E-01 -1.28318E+00 -2.38488E+00 -1.86319E+00 -1.03487E+00 -4.96185E-01 -1.92497E-02 -1.86849E-01  6.83701E-02  4.52479E-02
   3.95584E-01  4.11016E-01  2.80024E-01  2.34024E-01  3.16722E-01  2.66002E-01  2.52266E-01  2.21246E-01  9.16863E-02  2.36354E-01
   1.17899E-01 -1.16719E-01 -3.51604E-02  2.64099E-01 -1.34678E-01 -3.21637E-02  2.10125E-01  1.27286E-01 -1.27726E-01 -2.70343E-02
  -7.58430E-02  2.23451E-01  3.91925E-01 -1.28064E-01  3.93308E-01  4.03026E-02 -7.02039E-02  6.38154E-02  8.32735E-02  2.81831E-01
   2.01506E-01  1.04062E-01  2.47729E-01  1.78543E-01 -1.89022E-01  2.39376E-01  9.62813E-02  1.62124E-01  1.80604E-01 -3.76896E-02
   4.59469E-02  2.11305E-01  2.70832E-01 -1.81388E-02  1.36924E-01  4.45652E-01  1.31111E-01  3.51869E-02  1.66766E-01 -9.02454E-02
  -6.21230E-02 -1.44390E-01  2.31962E-01  9.32380E-02  2.24833E-02  9.52085E-02 -2.12689E-01 -2.20928E-02 -2.92334E-02 -1.54867E-01
  -2.64806E-01 -2.83261E-02 -1.13157E-01 -4.53398E-02 -1.88416E-01 -2.17610E-01 -1.15780E-01 -1.13226E-01 -1.51322E-01 -5.85740E-02
   7.57294E-02 -3.49222E-01 -1.44883E-02 -1.90031E-01 -9.05201E-02 -6.96274E-02 -8.46051E-02  1.03444E-01 -1.53821E-01  9.66089E-02
   8.33876E-02  2.44267E-01 -2.84054E-02 -1.75840E-01 -1.89076E-01 -2.32141E-01 -3.41988E-02 -7.72852E-02 -3.99116E-02 -3.34211E-02
   2.63825E-01  2.06638E-01 -3.39110E-02  8.11756E-03  1.17395E-01  3.56555E-01  1.27853E-01  2.08435E-01  2.93492E-01  5.84693E-02
   1.30764E-01 -1.03119E-01  2.81608E-01  1.08095E-01 -1.99745E-01  1.33258E-01 -2.21775E-02  2.02582E-01 -6.33005E-02 -1.19480E-01
   6.97257E-02 -3.84748E-02  2.61420E-01  1.54721E-02 -1.16013E-01 -2.85924E-02 -2.78373E-01 -1.49776E-01 -1.65363E-01 -3.83257E-02
  -2.20909E-01 -3.10905E-01 -1.20740E-01 -1.94412E-01 -1.32894E-01 -6.09967E-01 -1.10996E-01 -2.63167E-02 -1.54871E-01 -3.83207E-02
  -7.59218E-02  1.94604E-01  1.39753E-02  4.78738E-01 -5.96024E-03  2.19914E-02  2.32444E-01  6.35205E-02 -1.17302E-01 -2.94960E-01
   4.07611E-01 -5.96993E-02 -4.51935E-02 -7.22290E-02 -2.27843E-01 -2.60004E-01 -3.61741E-01 -2.82343E-02 -1.25017E-02  3.11937E-02
  -1.85718E-01  2.40750E-01  1.13765E-01  1.54819E-01  3.28432E-01  2.66436E-02  3.89977E-01  1.20197E-01  1.30939E-01  3.29688E-01
   3.51857E-01  3.72167E-01  3.60802E-01  3.19811E-01  1.15117E-01  1.10345E-01  4.27299E-02  7.34548E-02  1.19219E-01  1.86250E-01
  -7.22123E-03 -1.03503E-01 -5.52647E-02 -8.19466E-02 -4.36793E-01 -6.51003E-01 -4.57820E-01 -4.02032E-01 -1.40358E-01 -3.78530E-01
  -2.49408E-01 -2.92442E-01 -4.66128E-01  1.23446E-02 -1.53288E-01 -3.51170E-01 -1.03903E-02  1.03654E-01 -2.92661E-01 -3.01500E-01
  -2.17716E-01  8.02784E-02  1.34520E-02 -2.21950E-01 -1.89269E-01 -1.99590E-01  8.68973E-03 -1.10886E-01  1.34605E-01  1.12011E-01
   1.07258E-01  3.96341E-01  2.65523E-01  1.54320E-01  2.27274E-01  1.26636E-01  6.34799E-02  4.93627E-02 -1.85862E-01  6.21004E-02
  -4.67593E-02  1.95012E-01  2.74623E-01 -1.11408E-01  2.24297E-01  5.70356E-02 -9.25556E-03  1.14764E-01  9.87331E-02  5.82409E-02
  -1.64065E-02 -1.00411E-02 -1.07485E-01  2.74674E-01  2.13961E-01  9.42822E-02  2.87914E-01 -5.09295E-02 -1.66494E-01 -3.64956E-02
   9.10068E-02 -1.49241E-01 -6.00630E-02  1.59489E-01  1.64333E-01  2.19758E-02 -1.70958E-01 -8.07748E-02 -1.92614E-01  1.81747E-01
   3.36762E-02  1.06552E-01  1.16240E-02 -2.79399E-02  3.01745E-01  3.75737E-02  3.91322E-01 -3.25005E-02 -3.95240E-02 -8.09821E-02
  -2.05287E-01 -8.01474E-02 -1.53181E-01  2.19597E-01 -2.76274E-01 -1.24515E-02  3.16049E-01 -1.78991E-01 -1.04126E-01  1.65287E-01
  -1.70177E-01 -1.91661E-01  1.54961E-01  1.34041E-01  1.23540E-01  1.30194E-02  1.22376E-01  3.62600E-02 -2.24528E-01 -2.32322E-01
  -5.77349E-02 -5.39413E-02 -5.49650E-02  1.53965E-01  1.05251E-01  3.36212E-03  6.38327E-03 -3.06753E-02 -1.65084E-02  1.42793E-01
   2.22316E-02  6.39186E-02  1.54007E-01 -2.43688E-02  9.50837E-02  4.73996E-03 -1.70087E-02 -7.59783E-02  1.00549E-01  3.96490E-01
  -1.14997E-01  2.12558E-01  1.75246E-01 -1.13428E-01  2.52719E-02 -1.35075E-01 -1.43977E-01 -2.83192E-01  6.55663E-02 -1.34471E-01
   1.10697E-02 -7.26088E-02 -2.36682E-01  1.25801E-01
 NY points of the fit to the data follow
   9.24278E-02  5.37591E-02  6.13791E-03 -1.68574E-02 -2.52683E-02 -1.52008E-02 -9.30715E-03 -1.29696E-02 -2.73844E-02  4.71127E-02
   8.29852E-02  3.28724E-01  2.91901E-01  2.52818E-01  3.58140E-01  6.41576E-01  5.23596E-01  3.37616E-01  2.25256E-01  1.63435E-01
   1.16086E-01  6.34348E-02  4.48883E-02  5.65462E-03 -3.09469E-02 -5.98292E-02 -8.43700E-02 -9.72151E-02 -1.00878E-01 -1.07546E-01
  -1.17866E-01 -1.11627E-01 -1.26252E-01 -1.58593E-01 -2.00371E-01 -2.46594E-01 -2.93568E-01 -3.24092E-01 -2.99205E-01 -2.15064E-01
  -2.27586E-02  2.51548E-02  1.78839E-01  1.96344E-01  2.81745E-01  2.52908E-01  2.63707E-01  1.83540E-01  1.60402E-01  1.65512E-01
   9.76836E-02  6.79617E-02  3.25999E-02  8.78278E-04 -4.65418E-02 -1.09525E-01 -1.57844E-01 -1.77989E-01 -1.45939E-01 -1.85234E-01
  -2.23255E-01 -3.46431E-01 -3.39127E-01 -2.31245E-01 -4.50456E-01 -3.43544E-02  2.20832E-01  1.43070E-01  3.88112E-01  4.56318E-01
   4.37155E-01  3.08527E-01  2.20101E-01  1.60465E-01  6.39550E-02  2.25888E-03 -9.50379E-02 -2.62877E-01 -4.36297E-01 -6.49149E-01
  -4.09335E-01 -1.52637E-01 -5.80506E-02  2.33465E-01  4.25315E-01  4.83024E-01  4.20445E-01  3.41796E-01  2.98745E-01  2.37345E-01
   2.07153E-01  2.02171E-01  1.73684E-01  1.67559E-01  1.39775E-01  1.11507E-01  5.02408E-02 -3.35413E-02 -8.08785E-02 -1.21804E-01
  -4.77531E-02  3.31160E-02  1.35344E-01  1.85957E-01  2.13104E-01  1.99650E-01  1.96777E-01  2.03866E-01  2.09169E-01  2.18371E-01
   2.24702E-01  2.27654E-01  2.25199E-01  2.24234E-01  2.25068E-01  2.27271E-01  2.30147E-01  2.32747E-01  2.37528E-01  2.23007E-01
   2.01094E-01  1.30349E-01  3.87906E-03  3.68599E-02 -1.65337E-01 -1.86231E-01 -4.57179E-02 -2.58127E-01 -1.67412E-01 -3.20289E-01
  -1.92679E-01 -1.15432E-01 -1.02240E-01  1.15263E-02 -4.80700E-01 -7.24591E-01 -1.08040E+00 -8.61945E-01 -5.33588E-01 -2.85835E-01
  -1.01113E-01 -4.39542E-02  4.44408E-03 -4.09265E-03  1.11225E-02  3.07677E-02  4.80979E-02  6.56875E-02  8.08139E-02  9.35798E-02
   1.08640E-01  1.21667E-01  1.36218E-01  1.50909E-01  1.68324E-01  1.88278E-01  2.09674E-01  2.33836E-01  2.57305E-01  2.86830E-01
   3.28564E-01  3.87716E-01  4.64393E-01  6.08765E-01  8.02631E-01  9.13090E-01  8.06865E-01 -1.86949E-01 -7.70877E-01 -8.86478E-01
  -6.82533E-01 -5.76556E-01 -4.46310E-01 -3.75892E-01 -3.72984E-01 -3.44662E-01 -3.14873E-01 -2.74339E-01 -2.72552E-01 -2.56239E-01
  -2.37890E-01 -2.22013E-01 -2.13524E-01 -2.02456E-01 -1.98698E-01 -1.91300E-01 -1.85112E-01 -1.72860E-01 -1.66837E-01 -1.61467E-01
  -1.53044E-01 -1.44830E-01 -1.36359E-01 -1.27708E-01 -1.19394E-01 -1.12847E-01 -1.05001E-01 -9.64251E-02 -8.93581E-02 -7.90086E-02
  -6.45965E-02 -4.07924E-02 -2.07078E-02 -2.25819E-02 -4.80542E-02 -5.48933E-02 -3.40489E-02 -2.13670E-03 -5.43973E-04 -4.58373E-02
  -7.73703E-02 -8.92608E-02 -8.88750E-02 -8.29608E-02 -7.16165E-02 -5.71275E-02 -4.81374E-02 -4.40999E-02 -5.26154E-02 -6.03622E-02
  -4.51785E-02 -4.32647E-02 -1.50703E-02  2.01915E-02  1.76707E-01  3.02864E-01  2.42501E-01  1.84643E-01  1.75040E-01  3.20294E-01
   4.68849E-01  3.24772E-01  1.83404E-01  5.72844E-02 -1.78448E-02 -5.66337E-02 -7.16183E-02 -6.07164E-02 -6.69100E-02 -7.50536E-02
  -8.32727E-02 -9.09893E-02 -9.51752E-02 -1.00985E-01 -1.03855E-01 -1.13221E-01 -1.13070E-01 -1.23957E-01 -1.21666E-01 -1.31239E-01
  -1.28271E-01 -1.38891E-01 -1.71908E-01 -2.04049E-01 -1.91109E-01 -2.27268E-01 -4.73992E-02  3.07889E-04 -6.50054E-02  8.39666E-02
   9.69752E-02  1.47260E-01  6.63955E-02  6.66487E-02  1.43732E-01  6.43678E-02  1.33200E-01  8.88364E-02  1.51819E-01  1.42772E-01
   1.29666E-01  1.09720E-01  5.34268E-02  2.62611E-02 -1.86740E-02 -4.78790E-02 -8.17257E-02 -1.23041E-01 -1.88821E-01 -2.43622E-01
  -3.63474E-01 -3.66099E-01 -3.28278E-01 -2.24390E-01  2.93536E-02  1.57297E-01  3.07483E-01  3.56124E-01  3.05340E-01  2.31670E-01
   1.53405E-01  5.76547E-02  6.70469E-02  1.20820E-02  9.74904E-02  1.43232E-01  1.93827E-01  2.33363E-01  2.32434E-01  2.27274E-01
   2.07499E-01  1.96060E-01  1.86122E-01  1.80429E-01  1.76199E-01  1.69617E-01  1.56463E-01  1.46118E-01  1.11160E-01  9.87171E-02
   7.84876E-02  4.83372E-02  6.69987E-02  3.88735E-02  4.89231E-02  1.91782E-02 -3.17122E-02 -7.93887E-02 -1.66534E-01 -1.82140E-01
  -2.79003E-01 -2.54683E-01 -2.82345E-01 -2.25617E-01 -1.65560E-01 -7.15960E-02  2.97263E-02  8.91302E-02  1.37767E-01  9.85970E-02
   8.07970E-02  1.27252E-02 -4.11609E-02 -7.08961E-02 -1.51542E-01 -2.09259E-01 -2.84250E-01 -1.39177E-01 -4.87659E-03 -5.87349E-02
  -3.21206E-01 -1.26715E+00 -2.31666E+00 -1.82612E+00 -1.06574E+00 -4.72825E-01 -1.70923E-01 -2.35964E-02  2.72262E-02 -4.82195E-02
  -4.77124E-02 -3.60424E-02 -2.23935E-02 -1.09840E-02  2.92198E-03  1.25858E-02  2.87363E-02  1.97582E-02  2.36072E-02 -5.10399E-03
  -3.84437E-02 -5.88867E-02 -1.18474E-01 -1.15471E-01 -1.41671E-01 -1.20382E-01 -1.03595E-01 -8.01527E-02 -5.28343E-02 -3.83197E-02
  -2.10859E-02 -1.19989E-02 -1.60475E-04  4.84780E-03  8.73150E-03  1.43428E-02  1.85946E-02  2.57123E-02  2.98211E-02  3.40875E-02
   3.61617E-02  4.07657E-02  4.51559E-02  5.01399E-02  5.33419E-02  5.55775E-02  5.65462E-02  5.81674E-02  6.39607E-02  6.76167E-02
   7.40157E-02  7.74494E-02  7.97232E-02  7.84265E-02  7.69819E-02  7.51912E-02  7.39860E-02  7.24154E-02  7.05926E-02  6.63541E-02
   6.19645E-02  5.68948E-02  5.13113E-02  4.35171E-02  3.79331E-02  3.35603E-02  2.90385E-02  2.35359E-02  1.80452E-02  1.46260E-02
   9.04195E-03  7.30306E-03  4.61467E-03  1.46229E-03 -1.39855E-03 -4.26175E-03 -8.07588E-03 -1.01834E-02 -1.25266E-02 -1.36690E-02
  -1.52343E-02 -1.74303E-02 -1.69349E-02 -1.54707E-02 -1.46395E-02 -1.22792E-02 -8.72820E-03 -5.29438E-03  7.06833E-04  5.37461E-03
   7.62802E-03  6.92369E-03  7.68086E-03  1.34114E-02  1.93919E-02  2.78796E-02  3.32871E-02  3.95640E-02  4.56347E-02  5.37252E-02
   6.43264E-02  7.51021E-02  8.56426E-02  9.68056E-02  1.07846E-01  1.18958E-01  1.31622E-01  1.39758E-01  1.47675E-01  1.50143E-01
   1.52516E-01  1.53362E-01  1.53736E-01  1.53862E-01  1.53484E-01  1.49345E-01  1.43966E-01  1.33021E-01  1.23602E-01  1.13868E-01
   1.07348E-01  9.82407E-02  9.10572E-02  8.14723E-02  7.34531E-02  6.76755E-02  6.12002E-02  5.54821E-02  4.95437E-02  4.58374E-02
   4.14400E-02  3.73582E-02  3.37500E-02  3.10973E-02  3.16420E-02  3.46877E-02  3.61650E-02  3.83062E-02  4.27162E-02  4.57966E-02
   5.14889E-02  5.74936E-02  6.33303E-02  6.75588E-02  7.01900E-02  7.29393E-02  7.33422E-02  7.54571E-02  7.85114E-02  8.28039E-02
   8.48198E-02  8.43925E-02  8.46137E-02  8.19769E-02  8.17934E-02  7.75868E-02  7.46033E-02  7.22254E-02  7.00835E-02  6.84499E-02
   6.52585E-02  6.31921E-02  6.05452E-02  5.72844E-02  5.43301E-02  5.09008E-02  4.67044E-02  4.56335E-02  4.47658E-02  4.27813E-02
   4.03527E-02  3.80158E-02  3.51595E-02  2.94373E-02  2.20474E-02  1.62191E-02  9.91463E-03  3.69499E-03 -4.67788E-03 -1.83885E-02
  -3.34277E-02 -5.11648E-02 -6.55445E-02 -8.15266E-02 -9.68183E-02 -1.11942E-01 -1.24661E-01 -1.36485E-01 -1.48522E-01 -1.58545E-01
  -1.63467E-01 -1.64132E-01 -1.65306E-01 -1.65677E-01 -1.62244E-01 -1.55299E-01 -1.50141E-01 -1.43985E-01 -1.39623E-01 -1.35181E-01
  -1.31974E-01 -1.24701E-01 -1.17683E-01 -1.10610E-01 -1.01691E-01 -9.20272E-02 -8.22777E-02 -7.43640E-02 -6.50370E-02 -5.66487E-02
  -5.01534E-02 -4.09337E-02 -3.17518E-02 -2.65506E-02 -2.11310E-02 -1.56700E-02 -8.01195E-03 -1.39905E-03  4.89522E-04  3.14567E-03
   9.20723E-03  1.16877E-02  1.44271E-02  1.71184E-02  1.76746E-02  2.04201E-02  2.22093E-02  2.30153E-02  2.17797E-02  2.24411E-02
   2.61304E-02  2.73206E-02  3.04822E-02  3.36031E-02  3.54745E-02  3.52815E-02  3.49748E-02  3.59878E-02  3.50892E-02  3.47080E-02
   3.57298E-02  3.47824E-02  3.42748E-02  3.41849E-02  3.41358E-02  3.49675E-02  3.59790E-02  3.75760E-02  3.88041E-02  3.56700E-02
   3.00979E-02  3.02337E-02  3.23131E-02  3.21052E-02  3.17142E-02  3.06611E-02  3.25009E-02  2.93182E-02  2.73175E-02  2.62712E-02
   2.89005E-02  3.07226E-02  3.01962E-02  3.06931E-02  3.09747E-02  3.20163E-02  3.30001E-02  3.37140E-02  3.37100E-02  3.53808E-02
   3.50368E-02  3.34836E-02  2.98246E-02  2.97629E-02  2.98579E-02  3.01135E-02  3.20606E-02  3.23853E-02  3.32070E-02  3.14807E-02
   3.13563E-02  3.46390E-02  3.68382E-02  3.84816E-02  3.83222E-02  3.42566E-02  3.20492E-02  3.10057E-02  3.21050E-02  3.34168E-02
   3.28697E-02  3.01337E-02  2.92173E-02  2.81641E-02  2.77772E-02  2.80704E-02  2.55763E-02  2.42448E-02  2.49178E-02  2.65689E-02
   2.45166E-02  2.32101E-02  2.30640E-02  2.11786E-02  2.15821E-02  1.92423E-02  2.02700E-02  2.28470E-02  2.44307E-02  2.52990E-02
   2.37800E-02  2.27834E-02  2.18530E-02  1.93906E-02
 NY background values follow
     2.635E-02    2.632E-02    2.630E-02    2.628E-02    2.625E-02    2.623E-02    2.620E-02    2.618E-02    2.616E-02    2.613E-02
     2.611E-02    2.609E-02    2.606E-02    2.604E-02    2.601E-02    2.599E-02    2.597E-02    2.594E-02    2.592E-02    2.589E-02
     2.587E-02    2.585E-02    2.582E-02    2.580E-02    2.578E-02    2.575E-02    2.573E-02    2.570E-02    2.568E-02    2.566E-02
     2.563E-02    2.561E-02    2.558E-02    2.556E-02    2.554E-02    2.551E-02    2.549E-02    2.546E-02    2.544E-02    2.542E-02
     2.539E-02    2.537E-02    2.535E-02    2.532E-02    2.530E-02    2.527E-02    2.525E-02    2.523E-02    2.520E-02    2.518E-02
     2.515E-02    2.513E-02    2.511E-02    2.508E-02    2.506E-02    2.503E-02    2.501E-02    2.499E-02    2.496E-02    2.494E-02
     2.491E-02    2.489E-02    2.487E-02    2.484E-02    2.482E-02    2.480E-02    2.477E-02    2.475E-02    2.472E-02    2.470E-02
