 LCModel (Version 6.3-1N) Copyright: S.W. Provencher.          Ref.: Magn. Reson. Med. 30:672-679 (1993).                
 Slice_N1@19_25  02-Jun-2023 14:37:26
 27 lines in following concentration table = NCONC+1
    Conc.  %SD /Cr+PCr  Metabolite                                         
 9.86E-07  42% 1.0E-03 Mac                                                 
    0.000 999%   0.000 Cr                                                  
 7.85E-03  74%   8.000 PCr                                                 
 1.64E-02  51%  16.741 Ins                                                 
 1.25E-02  49%  12.730 NAA                                                 
 8.10E-03  66%   8.248 Tau                                                 
 4.11E-03  51%   4.183 PCho                                                
    0.000 999%   0.000 GPC                                                 
 1.51E-02  57%  15.377 Glu                                                 
 1.03E-02  52%  10.483 Gln                                                 
    0.000 999%   0.000 Ala                                                 
 8.31E-03  94%   8.463 Asc                                                 
 2.49E-03  86%   2.540 Asp                                                 
 1.47E-03  87%   1.498 GABA                                                
 1.22E-03 108%   1.244 Glc                                                 
    0.000 999%   0.000 GSH                                                 
 8.06E-03  64%   8.213 Lac                                                 
 7.13E-03  55%   7.267 NAAG                                                
    0.000 999%   0.000 PE                                                  
 4.11E-03  51%   4.183 GPC+PCho                                            
 1.96E-02  46%  19.997 NAA+NAAG                                            
 2.54E-02  47%  25.860 Glu+Gln                                             
 7.85E-03  58%   8.000 Cr+PCr                                              
 1.96E-02  46%  19.997 NAA+NAAG                                            
 7.85E-03  58%   8.000 Cr+PCr                                              
 2.54E-02  47%  25.860 Glu+Gln                                             
   6 lines in following misc. output table
  FWHM = 0.035 ppm    S/N =   1                                            
  Data shift =-0.058 ppm                                                   
  Ph: 126 deg      -7.3 deg/ppm                                            
  alphaB,S = 3.1E+01,   3.2E+00                                            
   18 spline knots.   Ns = 7(1)                                            
   2 inflections.     2 extrema                                            
  654 points on ppm-axis = NY
      4.000000     3.994181     3.988363     3.982544     3.976726     3.970907     3.965088     3.959270     3.953451     3.947633
      3.941814     3.935995     3.930177     3.924358     3.918540     3.912721     3.906902     3.901084     3.895265     3.889446
      3.883628     3.877809     3.871991     3.866172     3.860353     3.854535     3.848716     3.842898     3.837079     3.831260
      3.825442     3.819623     3.813805     3.807986     3.802167     3.796349     3.790530     3.784712     3.778893     3.773074
      3.767256     3.761437     3.755619     3.749800     3.743981     3.738163     3.732344     3.726526     3.720707     3.714888
      3.709070     3.703251     3.697433     3.691614     3.685795     3.679977     3.674158     3.668339     3.662521     3.656702
      3.650884     3.645065     3.639246     3.633428     3.627609     3.621791     3.615972     3.610153     3.604335     3.598516
      3.592698     3.586879     3.581060     3.575242     3.569423     3.563605     3.557786     3.551967     3.546149     3.540330
      3.534512     3.528693     3.522874     3.517056     3.511237     3.505419     3.499600     3.493781     3.487963     3.482144
      3.476326     3.470507     3.464688     3.458870     3.453051     3.447232     3.441414     3.435595     3.429777     3.423958
      3.418139     3.412321     3.406502     3.400684     3.394865     3.389046     3.383228     3.377409     3.371591     3.365772
      3.359953     3.354135     3.348316     3.342498     3.336679     3.330860     3.325042     3.319223     3.313405     3.307586
      3.301767     3.295949     3.290130     3.284312     3.278493     3.272674     3.266856     3.261037     3.255219     3.249400
      3.243581     3.237763     3.231944     3.226125     3.220307     3.214488     3.208670     3.202851     3.197032     3.191214
      3.185395     3.179577     3.173758     3.167939     3.162121     3.156302     3.150484     3.144665     3.138846     3.133028
      3.127209     3.121391     3.115572     3.109753     3.103935     3.098116     3.092298     3.086479     3.080660     3.074842
      3.069023     3.063205     3.057386     3.051567     3.045749     3.039930     3.034111     3.028293     3.022474     3.016656
      3.010837     3.005018     2.999200     2.993381     2.987563     2.981744     2.975925     2.970107     2.964288     2.958470
      2.952651     2.946832     2.941014     2.935195     2.929377     2.923558     2.917739     2.911921     2.906102     2.900284
      2.894465     2.888646     2.882828     2.877009     2.871191     2.865372     2.859553     2.853735     2.847916     2.842098
      2.836279     2.830460     2.824642     2.818823     2.813004     2.807186     2.801367     2.795549     2.789730     2.783911
      2.778093     2.772274     2.766456     2.760637     2.754818     2.749000     2.743181     2.737363     2.731544     2.725725
      2.719907     2.714088     2.708270     2.702451     2.696632     2.690814     2.684995     2.679177     2.673358     2.667539
      2.661721     2.655902     2.650084     2.644265     2.638446     2.632628     2.626809     2.620991     2.615172     2.609353
      2.603535     2.597716     2.591897     2.586079     2.580260     2.574442     2.568623     2.562804     2.556986     2.551167
      2.545349     2.539530     2.533711     2.527893     2.522074     2.516256     2.510437     2.504618     2.498800     2.492981
      2.487163     2.481344     2.475525     2.469707     2.463888     2.458070     2.452251     2.446432     2.440614     2.434795
      2.428977     2.423158     2.417339     2.411521     2.405702     2.399884     2.394065     2.388246     2.382428     2.376609
      2.370790     2.364972     2.359153     2.353335     2.347516     2.341697     2.335879     2.330060     2.324242     2.318423
      2.312604     2.306786     2.300967     2.295149     2.289330     2.283511     2.277693     2.271874     2.266056     2.260237
      2.254418     2.248600     2.242781     2.236963     2.231144     2.225325     2.219507     2.213688     2.207870     2.202051
      2.196232     2.190414     2.184595     2.178777     2.172958     2.167139     2.161321     2.155502     2.149683     2.143865
      2.138046     2.132228     2.126409     2.120590     2.114772     2.108953     2.103135     2.097316     2.091497     2.085679
      2.079860     2.074042     2.068223     2.062404     2.056586     2.050767     2.044949     2.039130     2.033311     2.027493
      2.021674     2.015856     2.010037     2.004218     1.998400     1.992581     1.986763     1.980944     1.975126     1.969307
      1.963489     1.957670     1.951852     1.946033     1.940215     1.934397     1.928578     1.922760     1.916941     1.911123
      1.905304     1.899486     1.893667     1.887849     1.882030     1.876212     1.870393     1.864575     1.858756     1.852938
      1.847119     1.841301     1.835482     1.829664     1.823845     1.818027     1.812208     1.806390     1.800571     1.794753
      1.788934     1.783116     1.777297     1.771479     1.765660     1.759842     1.754023     1.748205     1.742386     1.736568
      1.730749     1.724931     1.719113     1.713294     1.707476     1.701657     1.695839     1.690020     1.684202     1.678383
      1.672565     1.666746     1.660928     1.655109     1.649291     1.643472     1.637654     1.631835     1.626017     1.620198
      1.614380     1.608561     1.602743     1.596924     1.591106     1.585287     1.579469     1.573650     1.567832     1.562013
      1.556195     1.550376     1.544558     1.538739     1.532921     1.527102     1.521284     1.515465     1.509647     1.503829
      1.498010     1.492192     1.486373     1.480555     1.474736     1.468918     1.463099     1.457281     1.451462     1.445644
      1.439825     1.434007     1.428188     1.422370     1.416551     1.410733     1.404914     1.399096     1.393277     1.387459
      1.381640     1.375822     1.370003     1.364185     1.358366     1.352548     1.346729     1.340911     1.335092     1.329274
      1.323455     1.317637     1.311818     1.306000     1.300182     1.294363     1.288545     1.282726     1.276908     1.271089
      1.265271     1.259452     1.253634     1.247815     1.241997     1.236178     1.230360     1.224541     1.218723     1.212904
      1.207086     1.201267     1.195449     1.189630     1.183812     1.177993     1.172175     1.166356     1.160538     1.154719
      1.148901     1.143082     1.137264     1.131445     1.125627     1.119808     1.113990     1.108171     1.102353     1.096534
      1.090716     1.084898     1.079079     1.073261     1.067442     1.061624     1.055805     1.049987     1.044168     1.038350
      1.032531     1.026713     1.020894     1.015076     1.009257     1.003439     0.997620     0.991802     0.985983     0.980165
      0.974346     0.968528     0.962709     0.956891     0.951072     0.945254     0.939435     0.933617     0.927798     0.921980
      0.916161     0.910343     0.904524     0.898706     0.892887     0.887069     0.881251     0.875432     0.869614     0.863795
      0.857977     0.852158     0.846340     0.840521     0.834703     0.828884     0.823066     0.817247     0.811429     0.805610
      0.799792     0.793973     0.788155     0.782336     0.776518     0.770699     0.764881     0.759062     0.753244     0.747425
      0.741607     0.735788     0.729970     0.724151     0.718333     0.712514     0.706696     0.700877     0.695059     0.689240
      0.683422     0.677603     0.671785     0.665967     0.660148     0.654330     0.648511     0.642693     0.636874     0.631056
      0.625237     0.619419     0.613600     0.607782     0.601963     0.596145     0.590326     0.584508     0.578689     0.572871
      0.567052     0.561234     0.555415     0.549597     0.543778     0.537960     0.532141     0.526323     0.520504     0.514686
      0.508867     0.503049     0.497230     0.491412     0.485593     0.479775     0.473956     0.468138     0.462319     0.456501
      0.450682     0.444864     0.439045     0.433227     0.427408     0.421590     0.415771     0.409953     0.404134     0.398316
      0.392497     0.386679     0.380860     0.375042     0.369223     0.363405     0.357586     0.351767     0.345949     0.340130
      0.334312     0.328493     0.322675     0.316856     0.311038     0.305219     0.299401     0.293582     0.287764     0.281945
      0.276127     0.270308     0.264490     0.258671     0.252853     0.247034     0.241216     0.235397     0.229579     0.223760
      0.217942     0.212123     0.206305     0.200486
 NY phased data points follow
   2.03689E-03  8.31542E-02  8.83018E-01 -5.04398E-01  3.96257E-01  1.69430E-01 -1.16294E-01  2.75358E-01 -2.57694E-01 -4.20183E-01
  -2.11087E-01  3.50069E-01  1.17766E-01 -3.00188E-01 -2.96539E-01  4.35047E-01 -1.53171E-01 -1.58635E-01  5.09913E-01 -4.96775E-01
  -5.16541E-01 -2.51519E-01 -1.23687E-01  7.38104E-01  5.06221E-01  4.70540E-02  2.73936E-01 -3.79971E-01  2.13289E-01  2.83002E-01
  -6.28404E-01 -1.28017E-02  2.06531E-02  1.67111E-01 -3.19767E-01 -3.07408E-01  1.31058E-01  1.66070E-01  1.18938E-01 -2.08103E-01
   6.29220E-02 -1.96271E-01 -5.79651E-02 -1.67650E-01 -8.78910E-02 -2.03870E-01  7.28074E-02 -2.13664E-01 -9.32585E-02  7.27398E-01
   6.80128E-02  3.49933E-01 -1.07175E-01 -3.94935E-02  7.46041E-02  5.82794E-01  5.22961E-01  1.10184E-01  2.49818E-01 -5.14206E-02
   3.21021E-01 -2.21281E-01 -6.70865E-02 -1.73063E-01 -3.01109E-01 -5.73130E-01 -6.02179E-01 -2.16995E-01 -1.86700E-01 -2.41127E-01
   7.66726E-02 -2.94450E-02 -7.65651E-02  4.88393E-01  6.03039E-02  5.38296E-01 -9.77855E-02  4.28578E-01  3.09557E-01 -5.98959E-01
  -1.39528E-01 -2.11194E-01  1.40367E-02 -4.09059E-01 -3.50300E-01 -8.91041E-03  4.94689E-01 -4.96503E-02 -2.77408E-01  2.08263E-01
   6.21825E-01  4.12808E-01  6.56467E-02  7.15887E-02  2.47042E-02 -2.67029E-02 -2.06596E-01  2.60193E-01 -2.93264E-01  7.43269E-02
   2.49340E-01  5.50038E-02 -4.32005E-01 -2.86494E-01 -1.50147E-01 -7.98193E-01  2.42397E-01 -2.67825E-01 -3.61895E-01 -6.09897E-02
   4.95330E-03  3.89666E-01  3.47244E-01  3.77913E-01 -4.10541E-01 -9.28941E-02  2.97158E-01  5.44510E-02  3.96087E-01  2.79217E-02
   5.38075E-01  3.28503E-01 -7.70448E-02  1.83033E-01 -3.70025E-01  3.53781E-01  2.33266E-02 -1.49485E-01 -3.48266E-03 -1.74259E-01
  -1.07334E-01  6.49591E-01  8.18810E-01 -4.99052E-01  1.64505E-01  2.82682E-01  2.33680E-02 -2.56547E-01 -7.66067E-01 -5.47018E-01
  -4.91761E-01 -4.11567E-01 -4.23737E-01 -4.06016E-01 -2.60675E-01 -5.87723E-01 -4.60680E-02  1.40311E-01 -5.84394E-01 -2.23881E-01
  -5.10140E-01  1.50928E-01  3.13808E-02 -3.39111E-01  1.31894E-01 -1.57853E-01 -1.78969E-01 -3.03200E-01  5.18285E-03 -1.63672E-01
  -5.92217E-01 -6.49989E-02  7.41948E-01  3.79470E-01  5.55863E-01  4.98894E-01 -9.49125E-03  3.14768E-01  4.28515E-01  3.29029E-01
   5.09058E-01  6.17586E-01  1.01760E-01 -1.51977E-01 -4.61108E-01 -3.91132E-01 -3.29970E-01 -9.79524E-02  9.39649E-02  2.71853E-01
  -1.77047E-01  2.54235E-02  1.33376E-01 -2.94157E-01  5.51790E-01 -2.72464E-02  2.55352E-02 -1.83683E-01 -2.46599E-01 -3.93164E-01
  -7.25414E-01 -9.45667E-02 -3.91978E-01 -1.12295E-01 -1.19658E-01 -5.36810E-01 -6.32689E-01 -3.29943E-01  2.03334E-01  1.47485E-01
  -2.35386E-01  8.05897E-02 -6.20291E-01 -3.48633E-02  4.03810E-01 -7.56666E-01  2.00229E-01  5.88538E-01  1.36985E-02 -2.18583E-01
   3.82076E-01  1.40705E-01 -4.33691E-01 -7.89568E-01 -1.23930E-01  5.14911E-02  1.00261E-01  5.68998E-01 -4.82224E-01  2.84804E-01
   8.32539E-02  3.91993E-01  1.57280E-02 -1.91992E-01  7.00746E-01 -5.09026E-02  1.77990E-01 -2.27681E-01  2.59123E-01  5.49098E-01
   5.51528E-01  1.47849E-02 -2.93429E-02  1.02914E+00  5.08044E-01  4.03794E-01  6.87796E-01  5.79219E-01  1.44941E-01  3.29825E-01
   3.75717E-01  1.67666E-01  1.75954E-02  4.24884E-01  5.37926E-01 -7.36779E-02 -3.31487E-02  1.15852E-01  7.33050E-01  3.24191E-01
   2.54455E-01  4.78376E-01 -3.87185E-02  3.75467E-01 -2.55039E-01 -1.61741E-01  7.97202E-01  2.02603E-01  3.04551E-01  3.27165E-02
  -4.51449E-01  1.56408E-02 -1.87138E-01 -2.24049E-01 -6.04131E-03 -4.03963E-01 -2.42088E-01  5.00221E-01  1.72557E-01  3.26738E-01
   3.43734E-01  1.53201E-01  5.96785E-01  3.38506E-01  3.39875E-01 -2.40674E-01 -1.25917E-01  3.68773E-01 -4.59414E-01 -4.21910E-01
  -2.99637E-01 -1.67297E-01  1.57408E-01 -1.28251E-01  1.45903E-01 -3.50039E-01 -6.00197E-01 -1.94931E-01 -5.22421E-01 -1.48816E-01
   3.83867E-01  9.95733E-02 -1.02585E-01  4.76906E-01 -3.08609E-01 -1.99267E-01 -2.15761E-01 -5.36591E-01  3.57165E-01 -3.46786E-01
  -1.75828E-01 -5.67710E-01 -4.11643E-01  1.27074E-01  2.10533E-01  2.60794E-01 -1.50525E-01  2.63770E-01  9.16665E-02  5.78372E-01
   3.38230E-01  1.87792E-01  3.66764E-01  2.33856E-01  4.79414E-02 -1.52455E-01  5.18128E-01  7.64551E-01  4.30365E-01  3.55906E-01
   2.89357E-01 -2.96444E-01  8.23595E-02 -5.82877E-01 -7.79757E-01 -6.11555E-01 -7.78906E-01  1.05228E-02  1.22804E-01  2.45357E-01
  -2.25233E-01  7.48416E-02  1.43718E-01  3.24878E-01  3.65912E-01 -3.22062E-01  5.99766E-02 -2.67961E-01 -5.73943E-01 -2.25390E-02
  -1.21385E-01 -3.05896E-01 -1.90205E-01 -8.98190E-01 -4.77378E-01 -4.95629E-01 -4.53304E-01 -3.82449E-01 -1.26085E+00 -3.23812E-01
  -4.32041E-01 -1.80466E-01  2.82005E-01 -6.53281E-01 -1.07301E-01  3.51531E-01 -1.47198E-01  2.62953E-01  3.87559E-01  1.22920E-02
   1.52735E-01  4.91934E-02  1.64564E-01  8.24901E-02 -1.72721E-01 -2.89228E-01  2.91945E-01  1.67047E-01 -9.44449E-02  9.17750E-03
  -6.23510E-01 -1.04449E-01 -4.17498E-01 -1.89992E-01 -1.29522E-01  2.50750E-01  8.42272E-01 -6.59768E-01  1.23680E-01  5.24059E-02
  -1.66179E-01  6.37530E-01  1.78054E-01  9.71488E-02  2.13377E-02 -3.05836E-01 -2.88028E-01  1.94103E-01  2.84651E-01  4.91964E-01
   3.00648E-02  1.42724E-01  3.06944E-01  3.27119E-01  4.58443E-01  1.31320E-01  1.30840E-01 -2.48353E-01  5.73648E-01  4.23411E-01
   2.87786E-01  4.04855E-01  3.61627E-02  3.17508E-01 -1.33070E-01 -2.77639E-01 -6.43525E-02  2.22530E-01  4.76723E-01  3.41804E-01
  -5.88135E-01  1.64032E-02  3.43197E-01 -1.20760E-01  6.35431E-01  1.25440E-01 -7.92755E-01 -6.42044E-01 -9.77805E-02  1.18896E-01
   3.26848E-01  1.43138E-01  2.75396E-01  2.72180E-01 -6.99588E-02 -1.53780E-01  3.36953E-02 -7.72213E-02 -2.44410E-01  1.77953E-01
  -2.05689E-02  3.17968E-01 -1.90191E-01 -3.07125E-01  3.39536E-01 -3.19320E-01 -2.26578E-02 -1.90719E-01 -7.23676E-01  1.63284E-01
  -1.15865E-01 -2.34255E-01  8.14362E-02 -1.45617E-01 -1.94217E-01 -3.80357E-01  4.29209E-01 -1.59892E-01  1.36052E-01  6.91879E-01
  -1.50351E-01 -4.34024E-02 -3.38840E-01  4.19924E-01  4.66373E-01 -2.68425E-01  1.53068E-01 -2.26914E-01 -2.32087E-01  1.94394E-01
  -2.38520E-01  2.48725E-01 -2.30926E-01 -4.81546E-01 -2.79357E-02  2.04489E-02  2.06456E-01  8.48767E-02  6.51885E-01  4.33893E-01
   3.35286E-01  3.56172E-02  2.91579E-01  3.09505E-01  1.16781E-01  2.06055E-01 -4.17466E-02  2.43450E-01 -2.84956E-02 -4.00002E-01
  -3.85338E-01 -6.90715E-02 -1.46708E-01  2.08400E-01 -5.67697E-01  3.40444E-01  3.34721E-01 -4.10768E-01  2.11876E-01 -3.04754E-01
   3.11994E-01 -2.79764E-01 -8.04647E-02  4.97772E-02  1.18782E-01  1.36304E-01  4.01251E-01 -2.02359E-01 -3.50878E-01  3.68516E-01
  -5.71519E-01  3.19898E-01 -4.45413E-02  1.09582E-01 -1.58530E-01 -4.96953E-01  1.07792E-01 -9.52827E-02 -5.73386E-01 -6.15529E-01
   1.09861E-02 -2.69538E-01 -1.26507E-01  2.13121E-01  2.97441E-02  7.37139E-02  4.32230E-01 -7.86866E-01  3.86282E-01  2.40124E-01
  -2.20973E-01  5.77183E-01 -2.99126E-01  2.81907E-01 -3.10339E-01  4.47568E-01  4.61513E-01 -2.43609E-01  2.17491E-03  1.91994E-01
  -2.09893E-01 -3.42760E-01  2.59178E-02 -4.62225E-01  7.28322E-02 -3.23174E-01  1.68710E-01  7.24198E-01  5.22239E-01  3.30930E-01
  -8.62915E-03  1.19267E-01 -4.82999E-02 -3.55409E-01 -4.13266E-01 -3.60336E-01 -1.68471E-01  3.62962E-01 -2.36148E-02  1.47323E-01
  -1.45963E-01 -5.21509E-01  2.29712E-01  1.51548E-02  2.69941E-01  1.93596E-01 -2.20589E-01  2.85582E-01 -1.52295E-01 -1.08367E-01
   7.73953E-02 -4.55890E-01 -2.50448E-01  3.70660E-01  4.10609E-01 -1.03002E-02 -3.72367E-02 -2.32282E-01  1.03343E-01  2.98999E-01
   2.18816E-01 -1.33870E-01 -1.10495E-01 -2.24297E-01 -6.01317E-01 -4.15144E-02 -2.10891E-01 -3.42748E-01 -6.36150E-01 -8.29815E-02
   4.80217E-01 -8.54390E-02  3.31286E-01  4.45395E-01 -4.73085E-01 -5.47300E-01 -1.66718E-01  2.31340E-01 -1.60939E-01 -3.18684E-01
   2.42919E-01 -2.00145E-01 -5.09208E-02 -4.34872E-01 -4.70467E-02 -2.98150E-02 -1.68970E-01  2.63664E-01 -3.77662E-01 -2.95353E-01
  -2.28224E-03  1.85319E-01 -3.86003E-01 -1.02241E-01 -1.00817E-01  5.42626E-03  1.42037E-01 -2.65427E-01  1.26801E-01 -1.07699E-02
  -2.57211E-02  7.36436E-02 -2.55925E-02 -6.02750E-01 -1.46934E-01  2.98549E-01 -1.13084E-01 -8.76067E-02 -2.63302E-02  3.00457E-01
   6.33304E-01 -3.26990E-02 -3.36463E-01  3.08031E-01  7.01553E-01  1.64524E-01 -5.54666E-01  1.21207E-01  1.43861E-01  2.61457E-01
   3.77652E-01  6.00384E-01  6.92319E-01  3.62182E-02  4.31506E-01  6.55024E-02 -2.19680E-01 -2.16585E-01 -1.19417E-01  3.24081E-02
   2.03222E-01  4.65748E-01 -1.62703E-01  5.33626E-02  4.25259E-01 -2.36439E-01 -1.50469E-01  6.26592E-01  2.39902E-01 -1.95892E-01
   5.24774E-01  1.86745E-01 -2.76700E-01  9.98671E-03
 NY points of the fit to the data follow
   4.21202E-02  6.43405E-02  8.22358E-02  9.34160E-02  8.94082E-02  4.75804E-02 -3.17530E-02 -9.74800E-02 -1.02457E-01 -7.02846E-02
  -3.19492E-02  1.70422E-02  7.36988E-02  1.28889E-01  1.67214E-01  1.94720E-01  2.28850E-01  2.53353E-01  2.27731E-01  1.68031E-01
   1.18230E-01  1.07763E-01  1.05227E-01  1.01250E-01  9.24591E-02  8.01517E-02  6.74566E-02  5.58729E-02  4.67683E-02  4.16426E-02
   4.12888E-02  4.19973E-02  3.90621E-02  2.78984E-02  6.63138E-03 -2.74881E-02 -7.17201E-02 -1.23058E-01 -1.77442E-01 -2.25865E-01
  -2.64955E-01 -2.81892E-01 -2.74297E-01 -2.40010E-01 -1.87199E-01 -1.21052E-01 -4.73665E-02  2.67149E-02  8.88638E-02  1.42763E-01
   1.83622E-01  2.10469E-01  2.28474E-01  2.33683E-01  2.38660E-01  2.33411E-01  2.15991E-01  1.69657E-01  1.17641E-01  7.51753E-02
   6.25412E-03 -9.55435E-02 -1.74341E-01 -2.34812E-01 -2.94751E-01 -3.21775E-01 -3.03283E-01 -2.41807E-01 -1.57493E-01 -8.33591E-02
  -4.14330E-03  9.78979E-02  2.00873E-01  2.85902E-01  3.38566E-01  3.42248E-01  2.74657E-01  1.74895E-01  5.99138E-02 -7.81466E-02
  -1.97310E-01 -2.72457E-01 -3.08163E-01 -3.18728E-01 -3.01961E-01 -2.32897E-01 -1.20471E-01 -1.59393E-02  5.95176E-02  1.18798E-01
   1.68645E-01  1.90502E-01  1.95626E-01  2.08900E-01  2.21527E-01  2.21523E-01  1.95618E-01  1.48461E-01  8.77480E-02  2.29926E-02
  -3.35328E-02 -8.02293E-02 -1.12720E-01 -1.27973E-01 -1.24464E-01 -1.03870E-01 -6.38531E-02 -2.02971E-02  2.20670E-02  4.46423E-02
   5.70806E-02  5.68648E-02  5.57459E-02  5.54124E-02  5.65739E-02  6.41007E-02  8.24399E-02  1.03335E-01  1.23580E-01  1.53458E-01
   1.81709E-01  1.85412E-01  1.82888E-01  1.89549E-01  1.88419E-01  1.72316E-01  1.29310E-01  6.70933E-02  1.44051E-03 -7.46476E-03
   1.08930E-01  2.77628E-01  3.22685E-01  2.58309E-01  1.68818E-01  6.38471E-02 -6.49602E-02 -2.15727E-01 -3.21069E-01 -3.94637E-01
  -4.96244E-01 -6.18995E-01 -6.09070E-01 -4.58129E-01 -2.74528E-01 -1.95652E-01 -1.51447E-01 -1.20178E-01 -9.62058E-02 -7.75895E-02
  -6.32082E-02 -5.19580E-02 -4.39943E-02 -3.83085E-02 -3.41034E-02 -3.18725E-02 -3.34676E-02 -4.04200E-02 -5.66695E-02 -9.15035E-02
  -1.05233E-01 -2.45691E-02  1.41836E-01  2.73971E-01  3.42506E-01  3.90191E-01  4.15445E-01  4.00311E-01  3.37638E-01  2.63836E-01
   1.98025E-01  9.79494E-02 -5.72723E-02 -1.71947E-01 -1.90412E-01 -1.38435E-01 -1.17490E-01 -1.12121E-01 -1.11917E-01 -1.13498E-01
  -1.13698E-01 -1.12973E-01 -1.10264E-01 -1.07870E-01 -1.05219E-01 -1.02359E-01 -9.94740E-02 -9.60212E-02 -9.16950E-02 -8.66409E-02
  -8.16358E-02 -7.72639E-02 -7.39945E-02 -7.10686E-02 -6.80601E-02 -6.62070E-02 -6.59010E-02 -6.52897E-02 -6.09570E-02 -5.32213E-02
  -4.60134E-02 -4.19907E-02 -3.86518E-02 -3.13204E-02 -2.07006E-02 -1.17164E-02 -5.18365E-03 -3.17987E-04  1.16364E-03 -3.32901E-03
  -1.41598E-02 -2.76286E-02 -3.81543E-02 -4.20732E-02 -4.26457E-02 -4.64331E-02 -4.94734E-02 -4.29409E-02 -3.09793E-02 -2.57827E-02
  -2.90418E-02 -2.49466E-02 -7.38640E-03  3.41298E-03 -9.26966E-03 -2.96937E-02 -2.53120E-02  2.85871E-03  2.91970E-02  5.29039E-02
   8.53394E-02  1.17107E-01  1.33237E-01  1.30946E-01  1.30491E-01  1.37863E-01  1.34249E-01  1.07219E-01  6.91679E-02  4.20869E-02
   2.90803E-02  2.14258E-02  1.72737E-02  1.44682E-02  9.76096E-03 -2.98174E-04 -1.22067E-02 -1.96723E-02 -2.42778E-02 -2.94397E-02
  -3.55738E-02 -4.66565E-02 -5.72933E-02 -6.20876E-02 -6.89811E-02 -7.61527E-02 -7.12657E-02 -6.11371E-02 -5.34220E-02 -5.60532E-02
  -6.57627E-02 -7.55754E-02 -8.69320E-02 -1.05699E-01 -1.24103E-01 -1.22173E-01 -1.03808E-01 -7.84508E-02 -4.79221E-02 -2.38469E-03
   4.87185E-02  1.00648E-01  1.37525E-01  1.67473E-01  1.87266E-01  2.01342E-01  1.98284E-01  1.78663E-01  1.40833E-01  7.79336E-02
  -6.19789E-03 -9.87079E-02 -1.86988E-01 -2.53885E-01 -2.85315E-01 -2.85447E-01 -2.56132E-01 -1.98225E-01 -1.22778E-01 -4.05224E-02
   3.19412E-02  8.57755E-02  1.15063E-01  1.18352E-01  1.04448E-01  7.91883E-02  5.81305E-02  4.68176E-02  4.12210E-02  4.13463E-02
   4.77787E-02  5.76776E-02  7.21941E-02  8.95088E-02  1.09448E-01  1.28244E-01  1.45027E-01  1.50332E-01  1.38127E-01  1.14452E-01
   8.23111E-02  5.68174E-02  4.85977E-02  5.42062E-02  7.21511E-02  9.74229E-02  1.17491E-01  1.27379E-01  1.19773E-01  8.89855E-02
   3.57899E-02 -4.05380E-02 -1.23992E-01 -2.03415E-01 -2.54693E-01 -2.69397E-01 -2.45134E-01 -1.89489E-01 -1.12603E-01 -1.67796E-02
   1.16527E-01  2.56379E-01  3.27691E-01  2.93820E-01  2.05646E-01  1.21238E-01  9.51725E-02  1.34929E-01  1.47889E-01  6.20879E-02
  -7.01924E-02 -2.04130E-01 -3.22410E-01 -3.89228E-01 -4.19431E-01 -4.33536E-01 -4.75623E-01 -5.39674E-01 -5.66916E-01 -4.64598E-01
  -2.85693E-01 -1.42948E-01 -9.11807E-02 -6.01497E-02 -3.55624E-02 -1.31448E-02  7.22674E-03  2.62227E-02  4.32676E-02  5.65306E-02
   6.49856E-02  6.75151E-02  6.31994E-02  5.23322E-02  3.66456E-02  1.72448E-02 -3.24972E-03 -2.24825E-02 -3.76070E-02 -4.77045E-02
  -5.21542E-02 -5.20907E-02 -4.79829E-02 -4.13175E-02 -3.34700E-02 -2.57986E-02 -1.82309E-02 -1.12218E-02 -5.34078E-03 -1.28211E-03
   1.74490E-03  4.87306E-03  8.31498E-03  1.16785E-02  1.40639E-02  1.55289E-02  1.60948E-02  1.68580E-02  1.87142E-02  2.20698E-02
   2.61723E-02  3.03499E-02  3.45477E-02  3.95456E-02  4.55240E-02  5.18300E-02  5.79365E-02  6.30343E-02  6.75870E-02  7.10834E-02
   7.31823E-02  7.41033E-02  7.47069E-02  7.48078E-02  7.34516E-02  7.05202E-02  6.67339E-02  6.23352E-02  5.73187E-02  5.17257E-02
   4.61850E-02  4.14499E-02  3.73801E-02  3.29717E-02  2.85682E-02  2.46379E-02  2.13424E-02  1.80886E-02  1.43206E-02  1.01291E-02
   5.53379E-03  3.51676E-04 -5.31922E-03 -1.12207E-02 -1.69833E-02 -2.18412E-02 -2.48632E-02 -2.60211E-02 -2.62069E-02 -2.62786E-02
  -2.68062E-02 -2.74859E-02 -2.79841E-02 -2.84885E-02 -2.94763E-02 -3.08977E-02 -3.32563E-02 -3.64435E-02 -3.95038E-02 -4.08674E-02
  -4.07097E-02 -3.99679E-02 -3.85629E-02 -3.59774E-02 -3.08898E-02 -2.26493E-02 -1.13572E-02  1.89038E-03  1.65173E-02  3.17642E-02
   4.74302E-02  6.40455E-02  8.18810E-02  9.82278E-02  9.41574E-02  5.48333E-02 -1.01841E-02 -6.97347E-02 -1.08538E-01 -1.05806E-01
  -6.74587E-02 -1.37187E-02  5.34565E-02  1.21549E-01  1.85365E-01  2.45816E-01  2.96935E-01  3.17360E-01  3.03605E-01  2.47997E-01
   1.84791E-01  1.23836E-01  9.35076E-02  7.28636E-02  5.62920E-02  4.29965E-02  3.16405E-02  2.15780E-02  1.31110E-02  7.14390E-03
   3.92164E-03  3.24801E-03  4.46598E-03  6.66566E-03  9.06083E-03  1.18717E-02  1.56318E-02  2.04743E-02  2.56327E-02  3.03995E-02
   3.49486E-02  4.00216E-02  4.50317E-02  4.91257E-02  5.30747E-02  5.68699E-02  5.95955E-02  6.04594E-02  6.01155E-02  5.96819E-02
   5.94162E-02  5.87892E-02  5.74685E-02  5.55448E-02  5.36453E-02  5.18438E-02  4.97508E-02  4.75292E-02  4.58533E-02  4.54707E-02
   4.60694E-02  4.70223E-02  4.82097E-02  5.03744E-02  5.38994E-02  5.85552E-02  6.40350E-02  6.99352E-02  7.56014E-02  8.02867E-02
   8.33668E-02  8.42599E-02  8.27657E-02  7.88432E-02  7.23623E-02  6.23311E-02  4.77969E-02  2.99727E-02  1.16436E-02 -6.83367E-03
  -2.65027E-02 -4.69710E-02 -6.58597E-02 -8.21151E-02 -9.58844E-02 -1.06932E-01 -1.14419E-01 -1.18711E-01 -1.21227E-01 -1.23081E-01
  -1.24258E-01 -1.24232E-01 -1.23434E-01 -1.22669E-01 -1.21744E-01 -1.20240E-01 -1.17639E-01 -1.13949E-01 -1.08902E-01 -1.02509E-01
  -9.52843E-02 -8.80690E-02 -8.09478E-02 -7.35950E-02 -6.54150E-02 -5.75389E-02 -5.06029E-02 -4.34552E-02 -3.61266E-02 -2.91210E-02
  -2.31867E-02 -1.76606E-02 -1.19684E-02 -6.27634E-03 -1.65265E-03  1.74292E-03  4.50662E-03  7.16604E-03  8.77256E-03  9.16129E-03
   9.51339E-03  1.03653E-02  1.17332E-02  1.32535E-02  1.47648E-02  1.65037E-02  1.88617E-02  2.14700E-02  2.35482E-02  2.52671E-02
   2.67582E-02  2.71361E-02  2.63940E-02  2.54505E-02  2.50990E-02  2.62257E-02  2.80016E-02  2.87778E-02  2.87275E-02  2.90797E-02
   2.94311E-02  2.89591E-02  2.84457E-02  2.91141E-02  3.00379E-02  2.93114E-02  2.70923E-02  2.54059E-02  2.54056E-02  2.54464E-02
   2.41039E-02  2.23676E-02  2.13287E-02  2.04517E-02  1.92695E-02  1.83867E-02  1.90704E-02  2.12740E-02  2.35086E-02  2.48656E-02
   2.56230E-02  2.65325E-02  2.69292E-02  2.65363E-02  2.59661E-02  2.60525E-02  2.60421E-02  2.44587E-02  2.17853E-02  2.02889E-02
   2.05283E-02  2.23717E-02  2.45331E-02  2.63698E-02  2.77277E-02  2.86622E-02  2.97120E-02  3.14661E-02  3.32784E-02  3.43380E-02
   3.40887E-02  3.31713E-02  3.25421E-02  3.20460E-02  3.16461E-02  3.15253E-02  3.13157E-02  3.06282E-02  2.96232E-02  2.92902E-02
   2.97140E-02  3.00327E-02  2.89156E-02  2.66679E-02  2.50802E-02  2.45045E-02  2.37907E-02  2.29390E-02  2.30136E-02  2.37719E-02
   2.43176E-02  2.45417E-02  2.51986E-02  2.65851E-02
 NY background values follow
     2.731E-02    2.727E-02    2.722E-02    2.718E-02    2.714E-02    2.710E-02    2.705E-02    2.701E-02    2.697E-02    2.692E-02
     2.688E-02    2.684E-02    2.680E-02    2.675E-02    2.671E-02    2.667E-02    2.663E-02    2.658E-02    2.654E-02    2.650E-02
     2.645E-02    2.641E-02    2.637E-02    2.633E-02    2.628E-02    2.624E-02    2.620E-02    2.615E-02    2.611E-02    2.607E-02
     2.603E-02    2.598E-02    2.594E-02    2.590E-02    2.585E-02    2.581E-02    2.577E-02    2.573E-02    2.568E-02    2.564E-02
     2.560E-02    2.556E-02    2.551E-02    2.547E-02    2.543E-02    2.538E-02    2.534E-02    2.530E-02    2.526E-02    2.521E-02
     2.517E-02    2.513E-02    2.508E-02    2.504E-02    2.500E-02    2.496E-02    2.491E-02    2.487E-02    2.483E-02    2.478E-02
     2.474E-02    2.470E-02    2.466E-02    2.461E-02    2.457E-02    2.453E-02    2.448E-02    2.444E-02    2.440E-02    2.436E-02
