 
 $NMID
 ID=''
 FMTDAT='(2E13.5)'
 TRAMP=   1.00000E+0
 VOLUME=   1.00000E+0
 $END
   6.76228E+2   1.84479E+2
  -1.78379E+3   2.88289E+3
   7.41486E+3  -3.04102E-1
   3.53160E+3  -6.11257E+2
   2.31677E+1  -5.32420E+3
   2.38813E+2  -3.17670E+3
  -4.72821E+3  -1.39032E+2
  -3.72709E+3  -9.78365E+2
   2.54537E+3   2.32681E+3
   1.82690E+3  -3.37645E+2
   4.62578E+3  -4.07988E+2
   3.88633E+3  -3.87857E+2
   1.57199E+3  -2.45759E+2
  -5.59556E+3  -8.34768E+2
  -4.06669E+3  -1.81003E+3
  -6.51095E+2  -3.18176E+3
   3.83416E+3  -1.47524E+3
  -9.61838E+1   3.32199E+3
  -1.85703E+3   1.65109E+3
  -1.38093E+3  -2.76449E+3
   3.58255E+3  -1.87319E+3
   9.57970E+2   5.79394E+3
  -5.72611E+3   8.38034E+2
  -1.23745E+3  -7.28906E+3
   2.52392E+3  -4.06288E+3
  -9.80884E+2   2.11603E+3
  -5.04153E+3  -1.03512E+3
  -4.22167E+3  -2.28474E+3
  -1.79485E+1  -3.91970E+3
   6.02921E+3  -7.39344E+2
   4.88880E+3   6.00004E+3
  -5.97737E+3   5.38206E+3
  -6.25656E+3  -1.13497E+3
   2.93075E+2  -7.44829E+2
   2.98055E+2   7.05245E+2
   1.14024E+2  -4.01055E+3
   5.25934E+3  -6.69452E+3
   4.56172E+3   9.66542E+2
   1.82096E+3   2.95621E+3
   1.20158E+3   4.04395E+3
  -3.57042E+3   4.06755E+3
  -4.03162E+3   5.00033E+2
   1.07976E+3  -6.65815E+3
   6.41845E+3  -2.79437E+3
   5.77703E+3   3.44383E+3
   1.82752E+3   4.42614E+3
   5.01414E+3   5.20612E+3
  -8.04404E+2   5.24302E+3
  -2.47368E+3   7.43564E+2
  -2.59629E+3   2.60357E+3
  -4.29839E+3  -2.70319E+3
  -2.04739E+3  -3.59835E+3
   3.45128E+3   8.89225E+2
   4.50266E+2   4.52569E+3
  -1.03256E+3   4.94049E+2
  -5.06355E+3   8.31861E+2
  -5.13568E+3   1.39226E+3
  -5.92107E+3  -3.54070E+3
  -6.37671E+2  -5.90890E+3
   3.94720E+3  -5.04572E+3
   5.94254E+3  -1.55058E+3
   4.78541E+3   2.44187E+3
   4.41991E+2  -1.85632E+1
  -3.28602E+3   6.56453E+2
   1.74700E+3   5.26493E+1
   2.05627E+3   3.01535E+3
  -4.59714E+3   5.30805E+3
  -3.52975E+3   7.29958E+2
   2.88279E+2  -2.00014E+2
   4.36843E+2   3.30906E+2
  -2.80772E+2   2.39939E+3
  -2.02126E+2   3.18580E+3
   2.33137E+1  -9.11384E+2
   1.25472E+3   3.83295E+2
   1.23898E+3  -1.10641E+3
   8.97585E+2   6.98887E+2
  -2.85442E+2  -1.08257E+3
   1.94682E+3  -1.22103E+3
   3.74789E+2  -1.06623E+3
  -1.10272E+3   1.74046E+3
  -1.34748E+3   1.07381E+3
  -2.26820E+3   6.21688E+1
  -1.91015E+3   2.71013E+3
  -4.17295E+3   3.43146E+3
  -5.59662E+3   2.22288E+3
  -2.31090E+3  -4.42839E+3
   6.19160E+2  -3.13475E+3
   4.81286E+3   4.14803E+2
   1.12824E+3   6.84239E+2
  -1.59611E+3   2.61731E+3
  -1.80977E+3  -1.11345E+2
   1.15339E+3   1.04557E+3
  -5.09007E+2   4.48318E+3
  -5.21372E+3   3.75535E+1
  -3.79440E+3  -3.57460E+3
   1.93179E+3  -4.90367E+3
   4.29931E+3   1.82255E+3
  -9.58661E+2   2.81351E+3
  -4.76892E+3   1.67619E+3
  -2.13949E+3  -3.14807E+3
   3.19068E+2  -4.96290E+3
   3.28999E+3   1.53614E+3
  -1.12953E+3   3.82787E+3
  -4.79693E+3   1.76440E+3
  -3.13374E+3   1.07911E+3
  -1.79403E+3  -1.05365E+2
  -1.55111E+3  -1.10550E+3
  -1.75878E+3  -1.83850E+3
   3.96642E+2  -4.83469E+3
   4.18692E+3  -2.72519E+3
   5.92374E+3   1.91274E+3
   2.50184E+3   3.86388E+3
   7.49829E+2   1.17294E+3
   1.32609E+2   4.02682E+3
  -2.25453E+3   2.97066E+3
  -2.41891E+3   4.69664E+2
  -1.77277E+2  -1.51137E+3
   7.96767E+2  -2.75941E+2
   2.51826E+3   3.41307E+2
   8.60778E+2   4.63133E+2
   2.59559E+3   3.23034E+3
  -5.07768E+2  -1.47484E+3
  -8.60149E+2  -4.30107E+3
   5.91046E+2   4.60952E+2
   3.07642E+2   1.69197E+3
  -4.09553E+2  -8.34773E+2
   2.53086E+3  -1.65103E+3
  -4.94026E+2   3.36257E+2
   5.42038E+2   2.53959E+3
   9.15781E+0  -3.55553E+2
  -3.51432E+2  -2.34255E+3
   2.75285E+3   2.99582E+2
   3.68060E+3   2.51512E+3
  -3.67013E+2   2.56253E+3
  -1.63749E+3  -9.99772E+2
   4.75533E+1  -2.74842E+3
   2.52193E+3   6.74367E+2
   1.65123E+3  -1.61245E+3
  -3.42107E+1  -4.15887E+2
  -1.35804E+3   6.01361E+2
   1.43319E+3   9.36614E+2
   9.01337E+2   1.23803E+3
  -8.11015E+2   1.05147E+3
  -3.49084E+3   1.20077E+3
  -1.22813E+3  -2.44263E+3
  -6.20817E+2  -1.53923E+2
  -1.96147E+1   1.80768E+3
  -1.56388E+3  -2.42557E+2
   1.01643E+3  -1.49949E+3
  -1.87407E+3  -1.66745E+3
  -4.21963E+2  -2.40009E+3
  -9.51702E+1  -3.07515E+3
   3.71970E+3  -2.82845E+3
   2.21582E+3  -1.63043E+3
   5.32237E+3   7.02270E+2
   2.32202E+3   1.91165E+3
  -1.14370E+3  -2.40685E+3
   5.86929E+2   2.33298E+3
   7.76903E+2   1.77520E+3
   2.42490E+2  -5.67836E+2
  -1.27177E+2  -1.18444E+3
   6.06642E+2  -1.67854E+3
   5.72168E+2  -1.85526E+3
   2.18161E+3  -1.02937E+3
  -1.03586E+3   1.70442E+3
  -2.40558E+3  -9.86186E+2
   2.86622E+3  -2.74694E+3
   3.63355E+3   2.33379E+3
   1.67998E+3   4.37890E+3
  -2.05345E+3  -1.52472E+3
  -1.77842E+2  -1.66543E+3
   1.79903E+3  -4.48482E+2
   1.71694E+3  -2.43088E+3
   9.05396E+2   8.49011E+2
   2.10716E+3  -6.33002E+2
   1.98919E+3   5.50716E+2
   2.21508E+3  -4.19647E+2
   9.78129E+2   3.13345E+3
  -2.21159E+3   5.12744E+2
  -6.88867E+2  -1.71346E+3
  -2.33193E+3  -2.13177E+3
   1.69404E+3   1.21013E+3
   1.62654E+3   2.05561E+2
   1.26687E+3   2.64789E+1
   2.69144E+2   5.66477E+2
  -9.15341E+1  -2.04157E+3
  -1.73002E+3   1.87245E+2
  -1.31613E+3  -1.67255E+3
  -6.35618E+2  -3.04762E+3
   3.97273E+3  -1.89836E+3
   2.20608E+3   1.86998E+3
  -5.05777E+2   9.00311E+2
  -2.90714E+2  -9.90524E+2
  -1.09169E+3  -2.39555E+2
   3.86209E+2  -5.71910E+2
   6.23635E+2  -6.81935E+2
   1.06983E+3   2.71740E+3
   1.64066E+3   1.68909E+3
   1.56510E+3   2.79967E+3
  -2.45525E+3   1.40513E+3
  -1.82214E+3   7.09828E+2
  -1.43694E+3  -1.36217E+3
   2.38433E+3  -4.19209E+3
   3.32346E+3  -6.36124E+2
   1.90937E+3   1.66709E+3
  -6.12116E+2  -2.48260E+2
  -1.56815E+3  -3.10685E+1
  -8.02700E+2   5.80174E+1
  -6.23960E+2  -4.37843E+2
  -1.91964E+3   3.45354E+2
  -2.62908E+3  -1.15234E+3
   1.33313E+3  -2.95243E+3
   2.27065E+3   5.50222E+2
   4.21188E+2   2.55054E+3
  -3.40226E+3   1.40238E+3
  -2.07146E+3  -9.04210E+2
   5.42089E+2  -2.30859E+3
  -4.46776E+1  -2.46550E+2
  -1.12853E+3   1.74979E+1
   1.13559E+3   4.52227E+2
  -9.59801E+2   1.16398E+3
   7.46671E+2   6.92679E+1
  -1.74076E+3  -1.15581E+2
   1.47175E+3   1.28223E+3
   2.54075E+2  -1.72290E+3
   3.66465E+2   3.83986E+2
  -1.08256E+3   9.24418E+2
  -3.36151E+3   1.96505E+3
  -1.18696E+3  -1.21604E+3
  -5.71928E+2  -1.53493E+3
  -3.86665E+1  -3.42727E+3
  -9.35005E+2   2.35564E+3
  -7.94870E+2  -5.35603E+2
   1.16920E+3  -3.61255E+2
   1.61162E+3   3.41275E+3
  -1.66076E+3   2.73692E+3
  -1.82099E+3   2.11681E+3
  -2.36284E+3  -1.30243E+3
   1.24787E+3  -2.07765E+3
   1.66764E+3   3.83687E+2
  -2.15293E+2   1.01503E+3
  -7.58413E+1   2.15572E+3
  -1.38632E+3  -1.13368E+2
   1.43985E+3   1.79610E+3
  -2.32052E+2   5.03475E+2
  -1.18076E+3   2.50506E+3
   1.52692E+3  -7.64087E+2
   2.14976E+3  -2.86815E+2
   1.86810E+3   1.25156E+3
  -1.36698E+3   2.80273E+3
  -1.27033E+2  -9.62643E+2
  -1.20428E+3  -1.31573E+3
   1.54402E+3  -2.05124E+3
   1.41227E+3  -8.30970E+1
   5.14161E+2   1.25239E+3
   4.22061E+2  -1.39041E+3
   5.57658E+2   9.48624E+2
   1.28172E+3   3.44935E+2
  -2.47872E+3   2.44686E+3
  -3.20860E+2  -8.24569E+2
  -2.85773E+2  -3.15039E+2
  -5.05136E+2  -3.59190E+3
   1.71045E+3   1.11900E+3
  -2.67022E+3   9.75176E+2
  -1.15232E+3  -9.37168E+2
   7.92134E+2  -9.75282E+2
  -6.72409E+2  -1.08494E+3
  -9.22405E+2   8.46828E+2
   3.39835E+2  -3.07391E+3
   1.30496E+3  -7.64601E+2
   2.41977E+3   1.63485E+3
  -4.83037E+2   4.13812E+3
  -6.51124E+2  -4.03931E+2
   5.21044E+2  -9.49021E+2
  -1.47187E+3  -2.11285E+2
   1.91425E+3   1.04276E+3
   5.89252E+2  -1.85494E+2
   1.45005E+3   1.64298E+3
   1.23793E+3  -6.46090E+2
   1.43511E+3   2.95879E+2
   3.44279E+2   1.13942E+3
   7.85055E+1  -2.08906E+3
   9.19384E+2  -3.22910E+3
   9.74020E+2  -4.33847E+2
   1.54733E+3   2.90382E+3
   2.65676E+2   1.87525E+3
  -2.51354E+2  -1.04084E+3
   1.22999E+3  -1.77064E+3
   7.10610E+2  -1.89347E+2
  -2.94803E+2   2.71743E+3
  -5.82431E+2   1.15220E+3
   3.24389E+3  -5.23067E+1
  -4.73971E+2   1.83666E+3
   1.84834E+3   2.08803E+3
   6.41277E+0  -5.94502E+2
  -7.98786E+2   1.31326E+3
   2.17634E+3   3.99145E+2
   1.05795E+3   1.44929E+3
  -9.38226E+2   8.95334E+2
  -2.18784E+3   1.07991E+3
  -1.35894E+3  -3.00167E+3
   9.14351E+2  -1.19600E+3
  -4.91446E+1  -1.82108E+3
  -8.64781E+2   7.06237E+1
   2.72326E+2  -8.15474E+2
  -3.58423E+2  -5.82344E+2
   3.98785E+2  -1.73588E+2
  -2.19110E+2  -1.06839E+3
  -2.15964E+3  -1.85342E+3
  -7.30878E+2  -1.03298E+3
   1.05126E+3   3.89347E+2
   1.66418E+3   2.22810E+2
  -9.03609E+2  -5.47149E+2
  -7.63162E+2  -1.16958E+3
   1.23067E+3  -5.90703E+2
  -9.07293E+2   5.78513E+2
  -6.23858E+2   1.08652E+3
  -1.14889E+2  -1.72537E+3
   1.87757E+3  -3.58517E+2
   1.56172E+3  -1.31334E+3
   1.32502E+1   3.10719E+2
  -1.23687E+3  -1.34857E+3
  -1.41606E+3   3.02818E+2
  -4.35214E+2  -5.63305E+2
   1.41778E+3   3.94431E+2
   1.36733E+3  -2.50497E+2
  -7.12612E+2  -1.20628E+3
   6.75975E+2   4.01570E+2
   1.16822E+3   1.02182E+3
  -1.28477E+3  -5.91892E+2
  -1.85952E+3   4.22848E+2
  -1.05965E+3   3.23678E+2
  -1.71521E+3  -9.46025E+2
   1.71511E+3   4.53135E+2
   9.16896E+2   9.31504E+2
   8.78661E+2   1.83047E+2
   1.62608E+3  -1.28614E+3
  -2.82917E+2   1.83842E+3
   3.94516E+2   1.73069E+2
  -1.55591E+3  -1.33089E+3
  -9.22014E+2  -8.20402E+2
   4.83414E+2  -5.32282E+2
   1.33966E+3   5.83415E+2
  -1.74657E+3   5.25845E+2
  -1.73990E+3  -1.62614E+3
  -1.62368E+3  -1.24744E+3
  -3.86928E+2   9.63688E+2
  -4.13028E+2   5.32267E+2
  -1.60092E+3   1.96478E+2
  -1.14145E+3  -4.20499E+1
   2.34532E+2   2.60158E+2
  -1.06491E+2   4.44014E+2
   2.14756E+2  -8.04728E+1
   1.08623E+3  -1.51518E+3
   4.35646E+2   5.67882E+1
   1.51141E+3  -1.21696E+3
  -8.09517E+2   1.06127E+3
  -2.35173E+3  -2.16460E+1
  -1.44347E+3   3.48301E+1
  -1.47914E+3   7.25595E+1
  -1.03806E+3  -1.38613E+3
  -1.37432E+3  -2.36306E+2
  -8.92163E+2  -9.81222E+2
   2.56527E+3  -6.64983E+2
   8.07734E+2   2.80220E+2
  -4.41404E+2  -1.21656E+3
  -2.80295E+3  -2.56361E+3
