 LCModel (Version 6.3-1N) Copyright: S.W. Provencher.          Ref.: Magn. Reson. Med. 30:672-679 (1993).                
 Slice_N1@17_10  02-Jun-2023 14:36:52
 27 lines in following concentration table = NCONC+1
    Conc.  %SD /Cr+PCr  Metabolite                                         
 1.61E-06  23% 1.7E-04 Mac                                                 
 3.46E-02  80%   3.715 Cr                                                  
 4.00E-02  69%   4.285 PCr                                                 
 9.41E-02  12%  10.088 Ins                                                 
    0.117   8%  12.590 NAA                                                 
 7.71E-02  14%   8.264 Tau                                                 
 1.03E-02  95%   1.107 PCho                                                
 9.14E-03 109%   0.980 GPC                                                 
 6.50E-02  18%   6.972 Glu                                                 
 4.73E-02  20%   5.072 Gln                                                 
 1.67E-02  53%   1.793 Ala                                                 
 5.73E-02  29%   6.141 Asc                                                 
 1.94E-02  55%   2.078 Asp                                                 
 3.69E-03 152%   0.395 GABA                                                
 1.65E-02  44%   1.773 Glc                                                 
 1.23E-02  48%   1.324 GSH                                                 
    0.000 999%   0.000 Lac                                                 
 9.63E-03  79%   1.032 NAAG                                                
    0.000 999%   0.000 PE                                                  
 1.95E-02  14%   2.086 GPC+PCho                                            
    0.127   7%  13.623 NAA+NAAG                                            
    0.112  13%  12.044 Glu+Gln                                             
 7.46E-02  11%   8.000 Cr+PCr                                              
    0.127   7%  13.623 NAA+NAAG                                            
 7.46E-02  11%   8.000 Cr+PCr                                              
    0.112  13%  12.044 Glu+Gln                                             
   6 lines in following misc. output table
  FWHM = 0.047 ppm    S/N =   3                                            
  Data shift =-0.029 ppm                                                   
  Ph: -57 deg      -3.6 deg/ppm                                            
  alphaB,S = 9.0E-01,   3.7E+01                                            
   18 spline knots.   Ns = 8(1)                                            
  ( 9) 3 infls.   ( 5) 1 extrs.                                            
  654 points on ppm-axis = NY
      4.000000     3.994181     3.988363     3.982544     3.976726     3.970907     3.965088     3.959270     3.953451     3.947633
      3.941814     3.935995     3.930177     3.924358     3.918540     3.912721     3.906902     3.901084     3.895265     3.889446
      3.883628     3.877809     3.871991     3.866172     3.860353     3.854535     3.848716     3.842898     3.837079     3.831260
      3.825442     3.819623     3.813805     3.807986     3.802167     3.796349     3.790530     3.784712     3.778893     3.773074
      3.767256     3.761437     3.755619     3.749800     3.743981     3.738163     3.732344     3.726526     3.720707     3.714888
      3.709070     3.703251     3.697433     3.691614     3.685795     3.679977     3.674158     3.668339     3.662521     3.656702
      3.650884     3.645065     3.639246     3.633428     3.627609     3.621791     3.615972     3.610153     3.604335     3.598516
      3.592698     3.586879     3.581060     3.575242     3.569423     3.563605     3.557786     3.551967     3.546149     3.540330
      3.534512     3.528693     3.522874     3.517056     3.511237     3.505419     3.499600     3.493781     3.487963     3.482144
      3.476326     3.470507     3.464688     3.458870     3.453051     3.447232     3.441414     3.435595     3.429777     3.423958
      3.418139     3.412321     3.406502     3.400684     3.394865     3.389046     3.383228     3.377409     3.371591     3.365772
      3.359953     3.354135     3.348316     3.342498     3.336679     3.330860     3.325042     3.319223     3.313405     3.307586
      3.301767     3.295949     3.290130     3.284312     3.278493     3.272674     3.266856     3.261037     3.255219     3.249400
      3.243581     3.237763     3.231944     3.226125     3.220307     3.214488     3.208670     3.202851     3.197032     3.191214
      3.185395     3.179577     3.173758     3.167939     3.162121     3.156302     3.150484     3.144665     3.138846     3.133028
      3.127209     3.121391     3.115572     3.109753     3.103935     3.098116     3.092298     3.086479     3.080660     3.074842
      3.069023     3.063205     3.057386     3.051567     3.045749     3.039930     3.034111     3.028293     3.022474     3.016656
      3.010837     3.005018     2.999200     2.993381     2.987563     2.981744     2.975925     2.970107     2.964288     2.958470
      2.952651     2.946832     2.941014     2.935195     2.929377     2.923558     2.917739     2.911921     2.906102     2.900284
      2.894465     2.888646     2.882828     2.877009     2.871191     2.865372     2.859553     2.853735     2.847916     2.842098
      2.836279     2.830460     2.824642     2.818823     2.813004     2.807186     2.801367     2.795549     2.789730     2.783911
      2.778093     2.772274     2.766456     2.760637     2.754818     2.749000     2.743181     2.737363     2.731544     2.725725
      2.719907     2.714088     2.708270     2.702451     2.696632     2.690814     2.684995     2.679177     2.673358     2.667539
      2.661721     2.655902     2.650084     2.644265     2.638446     2.632628     2.626809     2.620991     2.615172     2.609353
      2.603535     2.597716     2.591897     2.586079     2.580260     2.574442     2.568623     2.562804     2.556986     2.551167
      2.545349     2.539530     2.533711     2.527893     2.522074     2.516256     2.510437     2.504618     2.498800     2.492981
      2.487163     2.481344     2.475525     2.469707     2.463888     2.458070     2.452251     2.446432     2.440614     2.434795
      2.428977     2.423158     2.417339     2.411521     2.405702     2.399884     2.394065     2.388246     2.382428     2.376609
      2.370790     2.364972     2.359153     2.353335     2.347516     2.341697     2.335879     2.330060     2.324242     2.318423
      2.312604     2.306786     2.300967     2.295149     2.289330     2.283511     2.277693     2.271874     2.266056     2.260237
      2.254418     2.248600     2.242781     2.236963     2.231144     2.225325     2.219507     2.213688     2.207870     2.202051
      2.196232     2.190414     2.184595     2.178777     2.172958     2.167139     2.161321     2.155502     2.149683     2.143865
      2.138046     2.132228     2.126409     2.120590     2.114772     2.108953     2.103135     2.097316     2.091497     2.085679
      2.079860     2.074042     2.068223     2.062404     2.056586     2.050767     2.044949     2.039130     2.033311     2.027493
      2.021674     2.015856     2.010037     2.004218     1.998400     1.992581     1.986763     1.980944     1.975126     1.969307
      1.963489     1.957670     1.951852     1.946033     1.940215     1.934397     1.928578     1.922760     1.916941     1.911123
      1.905304     1.899486     1.893667     1.887849     1.882030     1.876212     1.870393     1.864575     1.858756     1.852938
      1.847119     1.841301     1.835482     1.829664     1.823845     1.818027     1.812208     1.806390     1.800571     1.794753
      1.788934     1.783116     1.777297     1.771479     1.765660     1.759842     1.754023     1.748205     1.742386     1.736568
      1.730749     1.724931     1.719113     1.713294     1.707476     1.701657     1.695839     1.690020     1.684202     1.678383
      1.672565     1.666746     1.660928     1.655109     1.649291     1.643472     1.637654     1.631835     1.626017     1.620198
      1.614380     1.608561     1.602743     1.596924     1.591106     1.585287     1.579469     1.573650     1.567832     1.562013
      1.556195     1.550376     1.544558     1.538739     1.532921     1.527102     1.521284     1.515465     1.509647     1.503829
      1.498010     1.492192     1.486373     1.480555     1.474736     1.468918     1.463099     1.457281     1.451462     1.445644
      1.439825     1.434007     1.428188     1.422370     1.416551     1.410733     1.404914     1.399096     1.393277     1.387459
      1.381640     1.375822     1.370003     1.364185     1.358366     1.352548     1.346729     1.340911     1.335092     1.329274
      1.323455     1.317637     1.311818     1.306000     1.300182     1.294363     1.288545     1.282726     1.276908     1.271089
      1.265271     1.259452     1.253634     1.247815     1.241997     1.236178     1.230360     1.224541     1.218723     1.212904
      1.207086     1.201267     1.195449     1.189630     1.183812     1.177993     1.172175     1.166356     1.160538     1.154719
      1.148901     1.143082     1.137264     1.131445     1.125627     1.119808     1.113990     1.108171     1.102353     1.096534
      1.090716     1.084898     1.079079     1.073261     1.067442     1.061624     1.055805     1.049987     1.044168     1.038350
      1.032531     1.026713     1.020894     1.015076     1.009257     1.003439     0.997620     0.991802     0.985983     0.980165
      0.974346     0.968528     0.962709     0.956891     0.951072     0.945254     0.939435     0.933617     0.927798     0.921980
      0.916161     0.910343     0.904524     0.898706     0.892887     0.887069     0.881251     0.875432     0.869614     0.863795
      0.857977     0.852158     0.846340     0.840521     0.834703     0.828884     0.823066     0.817247     0.811429     0.805610
      0.799792     0.793973     0.788155     0.782336     0.776518     0.770699     0.764881     0.759062     0.753244     0.747425
      0.741607     0.735788     0.729970     0.724151     0.718333     0.712514     0.706696     0.700877     0.695059     0.689240
      0.683422     0.677603     0.671785     0.665967     0.660148     0.654330     0.648511     0.642693     0.636874     0.631056
      0.625237     0.619419     0.613600     0.607782     0.601963     0.596145     0.590326     0.584508     0.578689     0.572871
      0.567052     0.561234     0.555415     0.549597     0.543778     0.537960     0.532141     0.526323     0.520504     0.514686
      0.508867     0.503049     0.497230     0.491412     0.485593     0.479775     0.473956     0.468138     0.462319     0.456501
      0.450682     0.444864     0.439045     0.433227     0.427408     0.421590     0.415771     0.409953     0.404134     0.398316
      0.392497     0.386679     0.380860     0.375042     0.369223     0.363405     0.357586     0.351767     0.345949     0.340130
      0.334312     0.328493     0.322675     0.316856     0.311038     0.305219     0.299401     0.293582     0.287764     0.281945
      0.276127     0.270308     0.264490     0.258671     0.252853     0.247034     0.241216     0.235397     0.229579     0.223760
      0.217942     0.212123     0.206305     0.200486
 NY phased data points follow
  -6.05613E-01 -2.12438E-01 -2.45266E-01 -2.02745E-01 -1.59399E-01 -1.56835E-01 -1.76575E-02 -2.72468E-01  2.58442E-01  1.34721E-01
   1.89484E-01  4.69446E-01  2.25901E-01  2.06718E-01  3.84764E-01  3.65417E-01  6.58480E-01  3.24907E-01  1.40804E-01  2.87851E-01
   3.23845E-01  3.43336E-01 -1.42392E-01 -8.09277E-02 -2.56891E-01 -3.45142E-01 -1.47505E-01 -1.89501E-01 -1.85362E-01 -2.47927E-01
  -3.32342E-01 -1.14001E-03 -3.00867E-01 -4.45953E-01 -1.00171E-01 -4.85793E-01 -5.05052E-01 -1.86967E-01 -2.63760E-01 -4.90657E-01
  -3.41936E-01 -1.66957E-01  1.21010E-01  1.93150E-01  5.14326E-01  4.75128E-01  3.47907E-01  2.91958E-01  2.32753E-01  3.25979E-01
   6.93497E-02  4.83927E-01  4.43626E-01  4.47648E-01  6.71981E-02 -2.93522E-02  3.06012E-01  3.42918E-02 -2.55460E-02  3.51384E-02
  -3.31532E-02 -9.03343E-02  6.47422E-02 -3.42249E-01 -2.70011E-01 -1.60153E-01 -1.06174E-01 -3.88800E-02 -4.34797E-02 -7.71904E-03
  -7.42645E-02  9.66486E-02  4.46730E-02  1.72093E-01  1.85901E-01 -1.27763E-01 -2.58393E-01 -2.18570E-01 -5.96562E-01 -3.83563E-01
   3.35465E-02 -3.56881E-01 -1.14920E-01 -3.96787E-02 -3.32075E-01  2.91193E-03 -2.09148E-01  3.62118E-01  4.95355E-01 -2.20758E-01
   5.24642E-02 -1.07567E-01  2.64299E-01  2.83965E-01  1.44418E-01  1.17638E-01  2.51446E-01  4.04336E-01 -5.47181E-02 -1.88877E-02
  -1.70164E-01 -1.85364E-02  5.19770E-02  5.94242E-02  2.40288E-01  2.10130E-01  1.32125E-01  2.47045E-01  1.66059E-01  4.45800E-02
   1.56185E-01  9.28640E-03  3.60842E-01  5.46417E-01  3.27641E-01  5.56879E-01  4.58870E-01  3.14089E-01  5.56933E-01  1.93545E-01
   2.11726E-01  1.14767E-01  1.26025E-01  3.04332E-01 -2.81552E-01 -3.00019E-01 -3.48372E-01 -3.36313E-01 -5.21833E-01 -7.34261E-01
  -6.63168E-01 -8.45092E-01 -6.25129E-01 -7.80530E-01 -7.90571E-01 -6.20707E-01 -6.73691E-01 -6.88824E-01 -8.67939E-01 -9.21202E-01
  -9.76398E-01 -2.98885E-01 -1.71058E-01 -1.37217E-01  1.31355E-01 -6.27747E-02 -5.11811E-02  2.47298E-02  2.59985E-01 -5.65051E-02
   1.67496E-01  3.88408E-02  3.14714E-01  2.31770E-01  1.68577E-02  5.36744E-01  1.29042E-01  4.58410E-01  1.73417E-01  4.05963E-01
   5.62956E-01  5.44160E-02  4.58104E-01  5.87188E-01  6.07567E-01  7.56746E-01  3.73530E-01  4.39166E-01  2.72559E-01 -5.38069E-01
  -3.09285E-01 -3.49099E-01 -6.48591E-01 -8.30559E-01 -3.35187E-01 -4.56405E-01 -1.93767E-01 -3.90826E-02 -6.43177E-01 -2.86500E-01
  -4.35460E-01 -5.37167E-01 -3.38432E-01  1.44517E-01 -1.11967E-01 -3.40494E-01 -5.61804E-01 -2.50405E-01 -2.09564E-01 -2.01531E-01
   1.14081E-01 -3.23864E-01  1.29245E-01 -1.33161E-01  9.76975E-02 -3.57516E-02 -3.75460E-01 -1.37743E-01 -1.60563E-01 -2.51360E-01
  -2.19323E-01 -1.17944E-01 -2.51144E-01  8.56683E-02  7.18585E-02  3.69047E-01  1.11101E-01 -2.67558E-02  5.95590E-02  4.64904E-02
   8.83688E-03 -3.14580E-01 -1.59082E-01  1.65207E-02  2.38628E-01 -1.06857E-01  1.55530E-02 -1.42395E-01 -2.70302E-03  2.77632E-01
  -3.17710E-01  1.75207E-01  2.20567E-02 -1.66284E-01  2.07716E-01  2.13765E-01  6.21031E-01  4.77802E-01  4.38338E-01  4.09398E-01
   2.66655E-01  2.87206E-01  6.39000E-02  2.19149E-01  1.64879E-01 -1.55951E-02  1.06615E-01  5.18913E-02 -8.09527E-02  2.81600E-01
   4.01716E-01  1.97442E-01 -1.51829E-01 -3.41482E-01  2.30568E-02  1.01473E-01 -2.73227E-01 -2.51032E-01  5.48764E-02  2.40370E-04
   2.24955E-01 -1.26828E-01  9.66082E-02  3.56961E-01 -1.20646E-01  1.76648E-01 -1.45850E-02 -2.19915E-03  1.15637E-01 -1.80883E-01
   2.94540E-01  3.18855E-01 -5.42452E-02  3.62509E-01  3.47814E-01  2.29472E-01  7.98720E-02  5.49339E-02  2.04734E-01  3.60307E-01
   6.25184E-01  5.39268E-01  5.89221E-01  3.97347E-01  4.02901E-01  1.04480E-01  6.79578E-02  3.69914E-01  1.75116E-01  6.83724E-02
   6.32392E-02 -1.29485E-02 -2.21702E-01 -1.81974E-01  2.47032E-02  2.67392E-01  2.53694E-01  5.95598E-01  5.85003E-01  4.19161E-01
   8.35711E-01  5.65515E-01  2.66007E-01  5.88438E-01  3.66095E-01  7.87902E-02  3.43587E-01  3.06890E-01  2.07923E-01  1.36868E-01
   3.54608E-01  5.39654E-01  4.53218E-01  2.84803E-01  3.49548E-01  2.91588E-01  3.29108E-01  2.17546E-01 -1.13516E-01  4.02719E-01
   1.48171E-01  4.54920E-02  2.33225E-01  1.07556E-01  1.98454E-01  1.39781E-01  8.11497E-02 -1.35599E-02 -8.11169E-02 -2.33527E-01
  -1.32711E-01 -2.36201E-01 -9.36454E-02 -3.36188E-02 -3.30044E-01 -3.45196E-01 -2.57361E-01 -2.23119E-01 -1.25117E-01  1.62117E-01
   8.01711E-02 -4.14502E-02 -2.76937E-01 -3.36520E-01 -3.88389E-01 -2.10251E-01  4.43645E-02 -8.71353E-02 -3.10581E-01 -6.77571E-01
  -5.65184E-01 -1.01835E+00 -1.16988E+00 -1.16393E+00 -1.20970E+00 -8.10334E-01 -8.52665E-01 -7.17228E-01 -4.72692E-01 -2.23417E-03
  -2.72301E-01 -3.06835E-01 -1.26704E-01 -1.93340E-01 -1.97641E-02 -3.52847E-01  5.12316E-02  6.66457E-02 -2.57018E-01  2.54531E-02
  -1.45265E-03 -1.57229E-01  3.42242E-02 -1.48545E-01 -3.06654E-01  1.40467E-01 -1.33425E-01 -4.52588E-01 -1.11944E-01 -1.02528E-01
  -1.10245E-01  2.14809E-01 -6.38714E-02 -2.57402E-01 -1.01141E-01  1.65012E-01 -1.20063E-01 -1.38937E-01  2.20045E-01 -2.16507E-01
   3.12398E-01  3.42712E-01  3.21191E-01  3.31720E-01  5.16598E-02  4.48830E-01  3.40602E-01  3.84890E-01  1.41773E-01  1.68084E-01
   2.47689E-01  3.54251E-01  2.98256E-01  2.11027E-01  4.20017E-01 -5.38121E-03  1.73531E-01  2.56275E-01  2.32591E-01 -8.49389E-02
   7.92595E-02  3.36496E-01 -9.87271E-02  1.35041E-01 -4.15217E-02 -1.09595E-01  4.17988E-02  1.21811E-01  1.78778E-01  1.48551E-01
   1.40903E-01  2.02976E-01 -1.03980E-01 -5.33961E-02  3.63750E-01  4.70316E-02 -1.55428E-02 -3.31294E-02  7.01836E-02 -1.67790E-01
   1.21756E-01  2.18358E-02 -3.39409E-01  1.38533E-01 -9.21972E-02  2.28761E-01  1.81478E-01 -2.06033E-01  5.68450E-02 -2.50574E-01
  -3.79912E-01  3.99888E-01  1.47380E-01  6.72582E-02  2.41885E-01  1.01857E-01  3.88493E-01  2.86420E-02  2.56853E-01  1.93852E-01
   1.90624E-01  2.25908E-01  2.42573E-01  3.67550E-01  1.31828E-01  1.45131E-01  2.76242E-02  4.06041E-01  2.41237E-01  3.19424E-01
   5.42982E-01  4.25295E-01  5.18856E-01  1.00972E-01  1.77748E-01  1.29089E-01 -3.55789E-01 -1.12025E-01 -7.35715E-02 -2.21324E-01
  -2.65988E-01 -3.79365E-01  9.75048E-02  5.40986E-02 -2.56106E-01 -3.62248E-01 -3.14754E-01  1.22439E-01  8.88373E-02 -8.09294E-02
  -3.13035E-01 -3.29747E-01 -2.41451E-01 -3.39401E-01 -1.50227E-01 -1.25240E-01  1.36936E-01  1.30180E-01  2.13582E-02 -1.97200E-01
  -3.53123E-01  5.25384E-02  5.38165E-02  5.97957E-02 -2.79818E-02  1.44658E-01 -3.34927E-01  5.58135E-02  1.75405E-01 -1.80688E-01
   4.02136E-01 -2.68774E-01  3.36233E-01  1.54915E-01 -1.26292E-01  1.10945E-01 -3.24345E-01 -5.05285E-02 -1.52784E-01 -1.86864E-02
  -1.13614E-01 -1.26388E-01  6.23428E-02  1.19931E-01  1.57354E-01  2.18942E-01 -2.17220E-02  1.80031E-01  1.78953E-01  4.90828E-02
   1.80647E-01 -9.14872E-02  2.62917E-01  1.27263E-01  8.51462E-02  1.41363E-01  5.79983E-03  6.05805E-02  1.42167E-01  3.37122E-02
  -1.18365E-01  4.97501E-02 -5.12139E-04 -2.88680E-01 -3.79192E-01  6.55440E-03 -1.66418E-02 -2.31816E-01 -4.18525E-01 -3.21525E-01
  -1.58713E-01 -4.25989E-01 -5.27849E-01 -1.43229E-01 -1.40969E-01 -2.16552E-01  3.14846E-02 -2.44836E-01  1.16928E-01  9.58212E-02
  -2.70744E-01 -7.78663E-02  8.93244E-03  3.18607E-01  2.93473E-02 -1.32609E-01  1.10145E-01  3.86568E-02  1.02466E-01 -5.73570E-02
  -6.93299E-02  2.09151E-01  3.54633E-01  3.07406E-01  2.51545E-01  3.11701E-01  1.16529E-01 -1.07755E-03  1.45806E-01  1.09060E-01
   2.16605E-01  2.62975E-01 -1.52884E-01 -2.05766E-02  3.14943E-01  3.57519E-01  1.66622E-01 -4.43843E-02  1.74793E-02  2.27991E-01
   6.86183E-02  1.25184E-03  1.29006E-02 -1.76812E-02  2.41585E-01 -3.41751E-01  1.02012E-01  7.86608E-02 -4.18410E-02  3.71877E-01
  -1.92573E-01 -7.71000E-02 -1.46407E-01  3.24811E-01  3.39446E-01  2.36706E-02  1.00359E-01 -7.50850E-02 -2.74628E-02  8.56840E-02
  -2.50300E-01 -3.06639E-01 -1.15745E-02 -2.22558E-01  1.79950E-02 -1.24994E-01 -2.86767E-02  2.64401E-01  2.06897E-01  2.06247E-01
   3.00334E-01 -4.71690E-02 -2.09870E-01  1.13490E-01  3.57413E-02  7.13004E-02 -2.78397E-01 -7.32394E-02  5.06037E-02 -2.05058E-01
   5.33548E-02  1.70120E-01  1.87442E-01  1.58868E-01  9.04998E-02  4.40734E-02 -8.75383E-02  2.60209E-01  3.96306E-02 -2.16025E-01
   7.74287E-02 -2.55466E-01  1.33352E-01 -1.31020E-01 -3.81161E-02  2.74701E-01 -3.22454E-01 -6.63802E-02  6.97092E-02 -1.21278E-01
   1.07901E-02  1.39913E-01 -2.86688E-02 -3.45805E-02 -1.62617E-02 -7.50403E-03 -4.55828E-02  2.71765E-01  1.42325E-01 -7.17816E-02
   2.39606E-01  2.72795E-01  1.92595E-01  1.42348E-01  7.97539E-02 -3.77872E-02  2.22752E-01 -3.07355E-02  4.22491E-02  2.86498E-01
   2.93204E-02  8.66472E-02  1.10879E-01  1.85331E-01
 NY points of the fit to the data follow
   4.44581E-02  3.06496E-02  1.16356E-02 -1.19695E-02 -2.88877E-02 -3.43554E-02 -4.44822E-02 -3.09246E-02 -4.29862E-03  3.09849E-02
   8.78815E-02  1.64617E-01  2.39455E-01  3.11214E-01  3.58675E-01  3.75162E-01  3.70083E-01  3.26036E-01  2.61380E-01  1.92854E-01
   1.25363E-01  5.70683E-02  1.09966E-03 -3.77017E-02 -8.30408E-02 -1.18128E-01 -1.48722E-01 -1.76298E-01 -2.00114E-01 -2.22186E-01
  -2.43578E-01 -2.63343E-01 -2.78531E-01 -2.94015E-01 -3.14699E-01 -3.31202E-01 -3.28389E-01 -3.12035E-01 -2.71063E-01 -2.07724E-01
  -1.33381E-01 -4.25651E-02  5.64090E-02  1.43768E-01  2.23817E-01  2.85474E-01  3.19217E-01  3.39171E-01  3.39023E-01  3.17346E-01
   2.84768E-01  2.41991E-01  1.88465E-01  1.32688E-01  7.72107E-02  1.47169E-02 -3.25170E-02 -7.98981E-02 -1.32486E-01 -1.57648E-01
  -1.81969E-01 -2.11091E-01 -2.16279E-01 -2.09361E-01 -1.89833E-01 -1.39905E-01 -7.53759E-02  1.22312E-02  1.09015E-01  1.81775E-01
   2.40508E-01  2.75944E-01  2.60138E-01  2.14982E-01  1.79657E-01  1.06057E-01 -2.67124E-03 -8.51546E-02 -1.61560E-01 -2.29141E-01
  -2.59631E-01 -2.48890E-01 -1.87304E-01 -9.05294E-02  1.58097E-02  1.36538E-01  2.43998E-01  3.03392E-01  3.29030E-01  3.40854E-01
   3.18198E-01  2.65920E-01  2.18827E-01  1.70663E-01  1.11857E-01  4.63412E-02 -2.55654E-02 -9.57966E-02 -1.50596E-01 -1.76807E-01
  -1.71854E-01 -1.32441E-01 -6.34869E-02  2.21988E-02  1.12399E-01  1.93076E-01  2.55681E-01  2.97425E-01  3.22536E-01  3.37281E-01
   3.45293E-01  3.49896E-01  3.51084E-01  3.51552E-01  3.51090E-01  3.43327E-01  3.40501E-01  3.39942E-01  3.22277E-01  3.05512E-01
   2.76064E-01  2.35058E-01  1.73792E-01  1.12109E-01  3.76922E-02 -4.30996E-02 -1.40128E-01 -2.59367E-01 -3.92679E-01 -4.79453E-01
  -5.27162E-01 -5.79105E-01 -6.22785E-01 -6.77767E-01 -7.22510E-01 -7.45064E-01 -7.63816E-01 -7.48958E-01 -6.90731E-01 -6.01860E-01
  -4.94048E-01 -3.48903E-01 -2.19076E-01 -1.37132E-01 -7.42182E-02 -1.19433E-02  2.95695E-02  6.10271E-02  8.75194E-02  1.11141E-01
   1.32930E-01  1.53639E-01  1.74140E-01  1.95344E-01  2.18003E-01  2.43024E-01  2.71955E-01  3.07537E-01  3.55817E-01  4.17102E-01
   4.08329E-01  4.18145E-01  4.94425E-01  5.55702E-01  5.55023E-01  5.03608E-01  3.77758E-01  2.11332E-01  6.21663E-03 -2.21845E-01
  -3.83007E-01 -5.06170E-01 -5.84715E-01 -5.71602E-01 -4.88418E-01 -4.28970E-01 -4.04625E-01 -3.47159E-01 -3.09947E-01 -2.83003E-01
  -2.62498E-01 -2.45611E-01 -2.32423E-01 -2.21147E-01 -2.10350E-01 -2.00954E-01 -1.93285E-01 -1.86417E-01 -1.78478E-01 -1.70292E-01
  -1.61938E-01 -1.52837E-01 -1.43595E-01 -1.33931E-01 -1.23046E-01 -1.12511E-01 -1.03639E-01 -9.41013E-02 -8.23367E-02 -6.89356E-02
  -5.69253E-02 -4.88933E-02 -4.18965E-02 -3.42447E-02 -2.86036E-02 -2.53247E-02 -2.43649E-02 -2.65473E-02 -3.08074E-02 -3.64457E-02
  -4.26235E-02 -4.96834E-02 -5.65636E-02 -5.99627E-02 -5.88805E-02 -5.46787E-02 -4.94349E-02 -3.51364E-02 -1.96506E-02 -1.15179E-02
  -4.46360E-04  2.58106E-02  7.07674E-02  1.22124E-01  1.62059E-01  2.01587E-01  2.47626E-01  2.85702E-01  3.14683E-01  3.32057E-01
   3.29446E-01  3.08302E-01  2.72262E-01  2.27429E-01  1.73255E-01  1.10147E-01  4.71039E-02  2.55266E-04 -2.94388E-02 -5.43056E-02
  -7.52478E-02 -8.80195E-02 -9.85571E-02 -1.06777E-01 -1.13903E-01 -1.21108E-01 -1.27199E-01 -1.33272E-01 -1.40795E-01 -1.38623E-01
  -1.42286E-01 -1.56012E-01 -1.56235E-01 -1.49391E-01 -1.42994E-01 -1.28926E-01 -1.02752E-01 -6.14288E-02 -1.74933E-02  2.40150E-02
   6.79603E-02  1.10679E-01  1.40334E-01  1.60272E-01  1.81873E-01  2.06130E-01  2.16776E-01  2.32848E-01  2.56889E-01  2.69399E-01
   2.74416E-01  2.69539E-01  2.57811E-01  2.31676E-01  1.93512E-01  1.53388E-01  1.06268E-01  6.32559E-02  2.24058E-02 -2.01525E-02
  -5.77069E-02 -8.39629E-02 -9.56240E-02 -8.32644E-02 -4.27498E-02  1.77117E-02  9.46667E-02  1.75035E-01  2.45614E-01  3.00661E-01
   3.31866E-01  3.40990E-01  3.33782E-01  3.19986E-01  3.01644E-01  2.84232E-01  2.72654E-01  2.60985E-01  2.52009E-01  2.44496E-01
   2.36896E-01  2.28661E-01  2.20136E-01  2.11135E-01  1.99929E-01  1.88928E-01  1.74776E-01  1.58793E-01  1.40529E-01  1.19972E-01
   9.60500E-02  7.11798E-02  4.49538E-02  1.56793E-02 -1.57658E-02 -5.05660E-02 -9.06465E-02 -1.33745E-01 -1.79191E-01 -2.23931E-01
  -2.60000E-01 -2.83892E-01 -2.92327E-01 -2.79276E-01 -2.47558E-01 -2.00153E-01 -1.42304E-01 -8.14229E-02 -3.02417E-02  7.33347E-03
   3.65370E-02  4.80183E-02  3.90597E-02  1.18847E-02 -8.09280E-02 -1.82143E-01 -2.15027E-01 -2.54833E-01 -3.73622E-01 -5.42725E-01
  -7.43615E-01 -9.40320E-01 -1.09756E+00 -1.21043E+00 -1.21445E+00 -1.11744E+00 -9.68481E-01 -7.55533E-01 -5.07765E-01 -3.22392E-01
  -2.27144E-01 -1.41272E-01 -7.01702E-02 -3.56618E-02 -1.32189E-02  2.50138E-03  1.39738E-02  2.20161E-02  2.69597E-02  2.93267E-02
   2.95615E-02  2.78842E-02  2.52066E-02  2.22711E-02  1.98542E-02  1.88219E-02  1.92264E-02  2.13452E-02  2.51293E-02  3.03744E-02
   3.63986E-02  4.27675E-02  4.92170E-02  5.52346E-02  6.09050E-02  6.59956E-02  7.06304E-02  7.47312E-02  7.82946E-02  8.15681E-02
   8.46630E-02  8.76407E-02  9.03277E-02  9.29018E-02  9.52636E-02  9.74656E-02  9.95435E-02  1.01522E-01  1.03431E-01  1.05344E-01
   1.07163E-01  1.08685E-01  1.09883E-01  1.10544E-01  1.10621E-01  1.10070E-01  1.08872E-01  1.07140E-01  1.04949E-01  1.02334E-01
   9.91541E-02  9.55494E-02  9.16058E-02  8.73467E-02  8.29375E-02  7.84970E-02  7.40830E-02  6.97751E-02  6.56439E-02  6.17221E-02
   5.81375E-02  5.47610E-02  5.16004E-02  4.87908E-02  4.61361E-02  4.37396E-02  4.16391E-02  3.97016E-02  3.80005E-02  3.66702E-02
   3.57199E-02  3.52169E-02  3.52835E-02  3.58978E-02  3.71850E-02  3.95760E-02  4.46288E-02  5.47816E-02  6.20418E-02  7.31505E-02
   8.64583E-02  1.02798E-01  1.26843E-01  1.56640E-01  1.83539E-01  2.07062E-01  2.20536E-01  2.21447E-01  2.14600E-01  1.96064E-01
   1.73110E-01  1.51886E-01  1.36104E-01  1.26329E-01  1.23444E-01  1.27314E-01  1.29251E-01  1.34582E-01  1.39778E-01  1.44140E-01
   1.47394E-01  1.49544E-01  1.50594E-01  1.50535E-01  1.49326E-01  1.46994E-01  1.43533E-01  1.39066E-01  1.33790E-01  1.27813E-01
   1.21294E-01  1.14524E-01  1.07730E-01  1.01046E-01  9.45996E-02  8.83639E-02  8.24421E-02  7.70631E-02  7.21669E-02  6.76793E-02
   6.37075E-02  6.03580E-02  5.75175E-02  5.54397E-02  5.41576E-02  5.35761E-02  5.37375E-02  5.45980E-02  5.61021E-02  5.81846E-02
   6.06672E-02  6.34093E-02  6.64006E-02  6.93622E-02  7.20523E-02  7.45019E-02  7.67270E-02  7.86701E-02  8.02298E-02  8.14790E-02
   8.24600E-02  8.30836E-02  8.31942E-02  8.28463E-02  8.19799E-02  8.06132E-02  7.89079E-02  7.69331E-02  7.47828E-02  7.24354E-02
   7.00742E-02  6.76834E-02  6.51983E-02  6.26526E-02  6.00025E-02  5.73938E-02  5.47589E-02  5.20896E-02  4.94805E-02  4.69047E-02
   4.42238E-02  4.12751E-02  3.79306E-02  3.41085E-02  2.96665E-02  2.46881E-02  1.91063E-02  1.26838E-02  5.34026E-03 -2.78794E-03
  -1.17797E-02 -2.16484E-02 -3.22412E-02 -4.31544E-02 -5.40392E-02 -6.48209E-02 -7.51854E-02 -8.47090E-02 -9.31387E-02 -1.00450E-01
  -1.06395E-01 -1.10781E-01 -1.13655E-01 -1.15017E-01 -1.14867E-01 -1.13350E-01 -1.10839E-01 -1.07585E-01 -1.03677E-01 -9.92103E-02
  -9.44142E-02 -8.93506E-02 -8.39228E-02 -7.81110E-02 -7.18923E-02 -6.52806E-02 -5.84661E-02 -5.15941E-02 -4.46582E-02 -3.76693E-02
  -3.07484E-02 -2.43109E-02 -1.81655E-02 -1.20395E-02 -6.37643E-03 -1.16358E-03  3.78722E-03  8.29221E-03  1.23892E-02  1.61558E-02
   1.95248E-02  2.24896E-02  2.50929E-02  2.73661E-02  2.93970E-02  3.11843E-02  3.26653E-02  3.39070E-02  3.50397E-02  3.61016E-02
   3.71890E-02  3.83575E-02  3.94595E-02  4.05908E-02  4.17116E-02  4.26381E-02  4.33587E-02  4.38449E-02  4.42009E-02  4.43728E-02
   4.43774E-02  4.44563E-02  4.43990E-02  4.41371E-02  4.41168E-02  4.43258E-02  4.43620E-02  4.42527E-02  4.41436E-02  4.39943E-02
   4.36169E-02  4.30666E-02  4.25822E-02  4.22807E-02  4.19348E-02  4.15650E-02  4.13757E-02  4.12629E-02  4.10598E-02  4.09204E-02
   4.10118E-02  4.11884E-02  4.15130E-02  4.19473E-02  4.25049E-02  4.30903E-02  4.36593E-02  4.42589E-02  4.48189E-02  4.52991E-02
   4.56343E-02  4.58253E-02  4.58795E-02  4.58928E-02  4.60696E-02  4.63999E-02  4.67379E-02  4.72387E-02  4.78672E-02  4.85720E-02
   4.94143E-02  5.03379E-02  5.13299E-02  5.21620E-02  5.27910E-02  5.33727E-02  5.38637E-02  5.41952E-02  5.44546E-02  5.46149E-02
   5.47613E-02  5.50932E-02  5.55023E-02  5.57737E-02  5.60299E-02  5.63859E-02  5.68322E-02  5.74552E-02  5.80969E-02  5.88294E-02
   5.97987E-02  6.08102E-02  6.18085E-02  6.30185E-02  6.43326E-02  6.57722E-02  6.74883E-02  6.95964E-02  7.19183E-02  7.42844E-02
   7.68012E-02  7.94057E-02  8.20805E-02  8.48766E-02
 NY background values follow
    -1.697E-02   -1.675E-02   -1.653E-02   -1.632E-02   -1.610E-02   -1.588E-02   -1.566E-02   -1.545E-02   -1.523E-02   -1.501E-02
    -1.480E-02   -1.458E-02   -1.436E-02   -1.415E-02   -1.393E-02   -1.371E-02   -1.350E-02   -1.328E-02   -1.306E-02   -1.285E-02
    -1.263E-02   -1.242E-02   -1.220E-02   -1.198E-02   -1.177E-02   -1.155E-02   -1.134E-02   -1.112E-02   -1.090E-02   -1.069E-02
    -1.047E-02   -1.026E-02   -1.004E-02   -9.827E-03   -9.611E-03   -9.396E-03   -9.181E-03   -8.967E-03   -8.752E-03   -8.537E-03
    -8.323E-03   -8.109E-03   -7.895E-03   -7.680E-03   -7.467E-03   -7.253E-03   -7.039E-03   -6.826E-03   -6.612E-03   -6.399E-03
    -6.186E-03   -5.973E-03   -5.761E-03   -5.548E-03   -5.336E-03   -5.123E-03   -4.911E-03   -4.699E-03   -4.488E-03   -4.276E-03
    -4.065E-03   -3.853E-03   -3.642E-03   -3.432E-03   -3.221E-03   -3.010E-03   -2.800E-03   -2.590E-03   -2.380E-03   -2.170E-03
