 
 $NMID
 ID=''
 FMTDAT='(2E13.5)'
 TRAMP=   1.00000E+0
 VOLUME=   1.00000E+0
 $END
  -2.10719E+4  -5.80551E+3
  -4.78680E+4  -2.94369E+4
  -5.22374E+4  -2.01246E+4
  -4.82030E+4  -1.78340E+4
  -4.94660E+4  -1.93997E+4
  -5.04492E+4  -1.66017E+4
  -4.83574E+4  -1.58559E+4
  -4.86606E+4  -1.65738E+4
  -4.92964E+4  -1.47892E+4
  -4.80125E+4  -1.41372E+4
  -4.80643E+4  -1.44661E+4
  -4.84063E+4  -1.27860E+4
  -4.75354E+4  -1.20175E+4
  -4.76815E+4  -1.23627E+4
  -4.77285E+4  -1.11059E+4
  -4.70344E+4  -1.04129E+4
  -4.70216E+4  -1.03565E+4
  -4.71146E+4  -9.35492E+3
  -4.65427E+4  -8.47756E+3
  -4.65232E+4  -8.33933E+3
  -4.64303E+4  -7.30263E+3
  -4.60102E+4  -6.30183E+3
  -4.60425E+4  -6.02364E+3
  -4.58991E+4  -5.30065E+3
  -4.53532E+4  -4.48404E+3
  -4.52384E+4  -3.96759E+3
  -4.51656E+4  -3.35464E+3
  -4.46434E+4  -2.73054E+3
  -4.44099E+4  -2.49486E+3
  -4.41925E+4  -1.86371E+3
  -4.37857E+4  -1.09277E+3
  -4.36455E+4  -6.67697E+2
  -4.35028E+4  -1.55687E+2
  -4.30621E+4   3.74738E+2
  -4.27384E+4   8.22871E+2
  -4.25458E+4   1.43354E+3
  -4.20359E+4   2.03753E+3
  -4.18148E+4   2.49357E+3
  -4.15332E+4   3.09023E+3
  -4.12352E+4   3.61049E+3
  -4.08499E+4   4.06257E+3
  -4.05875E+4   4.43200E+3
  -4.00603E+4   4.68884E+3
  -3.96657E+4   5.22352E+3
  -3.93764E+4   5.63735E+3
  -3.89611E+4   6.05405E+3
  -3.86514E+4   6.43318E+3
  -3.83355E+4   6.93484E+3
  -3.78910E+4   7.40805E+3
  -3.75732E+4   7.74800E+3
  -3.71723E+4   8.16413E+3
  -3.68354E+4   8.51911E+3
  -3.63720E+4   9.05355E+3
  -3.60326E+4   9.54782E+3
  -3.57610E+4   9.89455E+3
  -3.53564E+4   1.01867E+4
  -3.50913E+4   1.05985E+4
  -3.46825E+4   1.08210E+4
  -3.42801E+4   1.10691E+4
  -3.38295E+4   1.15071E+4
  -3.34843E+4   1.17507E+4
  -3.30549E+4   1.20593E+4
  -3.27595E+4   1.24362E+4
  -3.23705E+4   1.26489E+4
  -3.19816E+4   1.29169E+4
  -3.15500E+4   1.32341E+4
  -3.12161E+4   1.35259E+4
  -3.08408E+4   1.37695E+4
  -3.04483E+4   1.39189E+4
  -3.00427E+4   1.41853E+4
  -2.96335E+4   1.44048E+4
  -2.92697E+4   1.46277E+4
  -2.87882E+4   1.47541E+4
  -2.84349E+4   1.49343E+4
  -2.80311E+4   1.51226E+4
  -2.75770E+4   1.54121E+4
  -2.71555E+4   1.55603E+4
  -2.68048E+4   1.55406E+4
  -2.64436E+4   1.57705E+4
  -2.59664E+4   1.59910E+4
  -2.56301E+4   1.60541E+4
  -2.52462E+4   1.61363E+4
  -2.47961E+4   1.62941E+4
  -2.44367E+4   1.63647E+4
  -2.40870E+4   1.64380E+4
  -2.37387E+4   1.63956E+4
  -2.33987E+4   1.64254E+4
  -2.29070E+4   1.63992E+4
  -2.24940E+4   1.64492E+4
  -2.21339E+4   1.65238E+4
  -2.17071E+4   1.65215E+4
  -2.13142E+4   1.65804E+4
  -2.09642E+4   1.65827E+4
  -2.06235E+4   1.65764E+4
  -2.01489E+4   1.65335E+4
  -1.97616E+4   1.64964E+4
  -1.93120E+4   1.65457E+4
  -1.89730E+4   1.66150E+4
  -1.84818E+4   1.65301E+4
  -1.82244E+4   1.64712E+4
  -1.77491E+4   1.64322E+4
  -1.73505E+4   1.63885E+4
  -1.69511E+4   1.64273E+4
  -1.66106E+4   1.63677E+4
  -1.61327E+4   1.62349E+4
  -1.57093E+4   1.62825E+4
  -1.53683E+4   1.62336E+4
  -1.49446E+4   1.61518E+4
  -1.45563E+4   1.61066E+4
  -1.41379E+4   1.60177E+4
  -1.37483E+4   1.60212E+4
  -1.33273E+4   1.59965E+4
  -1.29569E+4   1.60650E+4
  -1.25880E+4   1.59847E+4
  -1.22193E+4   1.59227E+4
  -1.18997E+4   1.58836E+4
  -1.14595E+4   1.57986E+4
  -1.11077E+4   1.57241E+4
  -1.07501E+4   1.57744E+4
  -1.03795E+4   1.56580E+4
  -1.00276E+4   1.56089E+4
  -9.78641E+3   1.55381E+4
  -9.37250E+3   1.54786E+4
  -9.08675E+3   1.54253E+4
  -8.81778E+3   1.53994E+4
  -8.44851E+3   1.52758E+4
  -8.10656E+3   1.52984E+4
  -7.89094E+3   1.51652E+4
  -7.59044E+3   1.51560E+4
  -7.34597E+3   1.51158E+4
  -7.01871E+3   1.50229E+4
  -6.85395E+3   1.49324E+4
  -6.52208E+3   1.48999E+4
  -6.28120E+3   1.47667E+4
  -6.02508E+3   1.47013E+4
  -5.90533E+3   1.46402E+4
  -5.57660E+3   1.45772E+4
  -5.33707E+3   1.43731E+4
  -5.05922E+3   1.43005E+4
  -4.84866E+3   1.42216E+4
  -4.70249E+3   1.41482E+4
  -4.48147E+3   1.40770E+4
  -4.24944E+3   1.39702E+4
  -4.14892E+3   1.39035E+4
  -3.93607E+3   1.38014E+4
  -3.73871E+3   1.36514E+4
  -3.55982E+3   1.35853E+4
  -3.46006E+3   1.35496E+4
  -3.29540E+3   1.34131E+4
  -3.20420E+3   1.32889E+4
  -2.97740E+3   1.31720E+4
  -2.87522E+3   1.30421E+4
  -2.74600E+3   1.29024E+4
  -2.57027E+3   1.27577E+4
  -2.47585E+3   1.26798E+4
  -2.32064E+3   1.25157E+4
  -2.28305E+3   1.24406E+4
  -2.10675E+3   1.23007E+4
  -2.03540E+3   1.21558E+4
  -1.84009E+3   1.20048E+4
  -1.78911E+3   1.19280E+4
  -1.70732E+3   1.17675E+4
  -1.57943E+3   1.16643E+4
  -1.53880E+3   1.15001E+4
  -1.36584E+3   1.14010E+4
  -1.29939E+3   1.12802E+4
  -1.22473E+3   1.11102E+4
  -1.10674E+3   1.09563E+4
  -1.11142E+3   1.08795E+4
  -1.05078E+3   1.07881E+4
  -9.43630E+2   1.06124E+4
  -8.45683E+2   1.04790E+4
  -8.71269E+2   1.03988E+4
  -7.21576E+2   1.02467E+4
  -7.32527E+2   1.00849E+4
  -6.59072E+2   9.99013E+3
  -5.94290E+2   9.88852E+3
  -4.97284E+2   9.72435E+3
  -4.20231E+2   9.66975E+3
  -4.72821E+2   9.55373E+3
  -3.90979E+2   9.45773E+3
  -3.37079E+2   9.22319E+3
  -3.45385E+2   9.11691E+3
  -2.14609E+2   9.02617E+3
  -2.92711E+2   8.88071E+3
  -1.70456E+2   8.72260E+3
  -2.17782E+2   8.70184E+3
  -1.46288E+2   8.52395E+3
  -1.56658E+2   8.43155E+3
  -1.41397E+2   8.30956E+3
  -1.11252E+2   8.15814E+3
  -1.30733E+2   8.05204E+3
  -7.12835E+1   7.92860E+3
  -4.36557E+1   7.84062E+3
  -4.76557E+1   7.67855E+3
  -5.50700E+1   7.55325E+3
   7.21125E+1   7.50363E+3
   4.96957E+1   7.37050E+3
   6.67755E+1   7.26490E+3
   5.85476E+1   7.12793E+3
   3.89632E+1   7.00795E+3
   5.72720E+1   6.90901E+3
   5.68663E+1   6.73807E+3
   1.39645E+2   6.69552E+3
   6.25918E+1   6.58106E+3
   9.89352E+1   6.50702E+3
   1.04811E+2   6.39789E+3
   2.02298E+2   6.26228E+3
   1.68578E+2   6.17024E+3
   1.47562E+2   6.08284E+3
   1.33154E+2   5.95982E+3
   1.40491E+2   5.80287E+3
   2.22301E+2   5.71106E+3
   2.28445E+2   5.66501E+3
   3.09119E+2   5.64218E+3
   2.26744E+2   5.54751E+3
   2.10015E+2   5.41861E+3
   3.13368E+2   5.33638E+3
   2.80466E+2   5.18444E+3
   2.89674E+2   5.15204E+3
   2.91469E+2   5.02954E+3
   3.28998E+2   4.97883E+3
   3.41627E+2   4.92613E+3
   2.98831E+2   4.80077E+3
   3.06615E+2   4.74954E+3
   3.38850E+2   4.67509E+3
   3.88696E+2   4.61042E+3
   3.81908E+2   4.53714E+3
   3.56692E+2   4.42128E+3
   3.65404E+2   4.39177E+3
   3.33665E+2   4.29284E+3
   4.17134E+2   4.25204E+3
   4.00944E+2   4.17603E+3
   3.21570E+2   4.15902E+3
   4.19582E+2   4.00545E+3
   4.22094E+2   3.97282E+3
   4.23409E+2   3.99265E+3
   4.45625E+2   3.91262E+3
   4.54417E+2   3.78767E+3
   3.98184E+2   3.75464E+3
   5.02765E+2   3.77815E+3
   4.52819E+2   3.68617E+3
   4.25192E+2   3.57943E+3
   4.66721E+2   3.48807E+3
   4.97342E+2   3.40139E+3
   5.17337E+2   3.43963E+3
   4.30642E+2   3.26576E+3
   4.66588E+2   3.19903E+3
   4.45471E+2   3.20452E+3
   5.00357E+2   3.13217E+3
   4.99950E+2   3.12198E+3
   4.55283E+2   3.06996E+3
   4.94666E+2   3.01630E+3
   4.74623E+2   2.92587E+3
   5.31382E+2   2.86932E+3
   5.14883E+2   2.83553E+3
   4.31892E+2   2.73051E+3
   5.86909E+2   2.80618E+3
   5.58718E+2   2.67922E+3
   5.18239E+2   2.72248E+3
   5.03054E+2   2.64710E+3
   5.88120E+2   2.48443E+3
   5.94840E+2   2.49753E+3
   5.01982E+2   2.43069E+3
   6.25002E+2   2.31041E+3
   4.94832E+2   2.38294E+3
   5.48936E+2   2.30992E+3
   5.38681E+2   2.27242E+3
   5.99746E+2   2.28473E+3
   5.59424E+2   2.18275E+3
   5.68404E+2   2.16751E+3
   6.17649E+2   2.09684E+3
   6.63176E+2   2.00700E+3
   6.43328E+2   2.02590E+3
   5.39358E+2   1.95867E+3
   6.45627E+2   1.96379E+3
   6.14074E+2   1.86413E+3
   6.66435E+2   1.88973E+3
   6.10881E+2   1.88579E+3
   5.86526E+2   1.77464E+3
   6.58034E+2   1.75304E+3
   6.45676E+2   1.67099E+3
   6.67362E+2   1.62524E+3
   6.65401E+2   1.60096E+3
   7.16019E+2   1.63508E+3
   6.67784E+2   1.58921E+3
   6.82621E+2   1.53709E+3
   6.50907E+2   1.48805E+3
   6.34204E+2   1.46905E+3
   6.79394E+2   1.36072E+3
   7.13452E+2   1.36538E+3
   7.08477E+2   1.26884E+3
   7.11460E+2   1.37301E+3
   6.84395E+2   1.23292E+3
   6.73583E+2   1.26382E+3
   6.44373E+2   1.22987E+3
   7.33588E+2   1.05814E+3
   7.03097E+2   1.17743E+3
   6.32953E+2   1.08989E+3
   7.40835E+2   1.08728E+3
   6.84883E+2   1.01978E+3
   7.69343E+2   1.06061E+3
   7.25627E+2   9.59600E+2
   6.55364E+2   9.30804E+2
   7.08709E+2   8.95529E+2
   7.48796E+2   8.37171E+2
   7.77280E+2   8.77530E+2
   6.53072E+2   8.15375E+2
   6.97782E+2   7.53219E+2
   7.16859E+2   7.40979E+2
   7.00455E+2   7.01534E+2
   6.49465E+2   7.18178E+2
   7.77620E+2   6.92933E+2
   7.55227E+2   6.09034E+2
   7.33595E+2   6.78663E+2
   6.93257E+2   6.15233E+2
   7.19538E+2   4.91939E+2
   7.84562E+2   4.95787E+2
   7.62060E+2   4.77093E+2
   7.16744E+2   3.81344E+2
   6.91443E+2   4.06970E+2
   7.08148E+2   3.53435E+2
   6.66975E+2   2.95239E+2
   7.27836E+2   2.65749E+2
   6.73899E+2   2.97656E+2
   7.31214E+2   2.74145E+2
   6.94594E+2   1.76460E+2
   6.36162E+2   1.36404E+2
   6.87575E+2   1.45176E+2
   6.07640E+2   1.91486E+2
   6.52154E+2   1.38601E+2
   6.74644E+2   1.01535E+2
   6.39832E+2   1.65805E+2
   6.43504E+2   1.69390E+1
   6.36969E+2  -3.22686E+1
   6.27102E+2   1.45508E+1
   5.94210E+2  -5.40008E+1
   5.81047E+2  -4.95248E+1
   5.22458E+2  -1.14317E+2
   5.71410E+2  -1.65944E+2
   5.74673E+2  -9.60763E+1
   5.01626E+2  -1.45619E+2
   5.58138E+2  -1.58484E+2
   5.73940E+2  -2.41894E+2
   4.58646E+2  -2.48608E+2
   4.70287E+2  -3.11186E+2
   5.13603E+2  -2.40892E+2
   4.78598E+2  -3.02062E+2
   4.58625E+2  -2.83506E+2
   4.53697E+2  -3.60383E+2
   4.31526E+2  -3.91009E+2
   4.16728E+2  -4.12189E+2
   4.38975E+2  -4.11504E+2
   4.28701E+2  -3.94886E+2
   3.30894E+2  -4.95131E+2
   4.10029E+2  -4.60724E+2
   3.37491E+2  -5.06720E+2
   3.98761E+2  -4.77804E+2
   3.45121E+2  -5.96184E+2
   3.19879E+2  -5.27706E+2
   3.18194E+2  -5.50144E+2
   2.80536E+2  -5.79649E+2
   2.75019E+2  -5.86004E+2
   2.39883E+2  -6.40483E+2
   2.97914E+2  -5.62190E+2
   3.27588E+2  -6.72192E+2
   2.66592E+2  -6.34311E+2
