 
 $NMID
 ID=''
 FMTDAT='(2E13.5)'
 TRAMP=   1.00000E+0
 VOLUME=   1.00000E+0
 $END
   8.56464E+2  -2.59482E+1
  -1.39446E+3   2.31360E+3
   4.31239E+3  -2.55055E+3
  -4.58169E+2   2.06766E+3
  -1.46139E+3  -5.64656E+1
   3.71911E+3   1.16218E+3
  -2.62021E+2   9.31017E+2
   3.15447E+2  -3.46109E+3
   2.87358E+3  -2.49364E+3
  -1.98826E+1  -3.30584E+2
   2.90227E+3  -8.98313E+0
   1.90113E+3   3.28806E+3
  -2.19186E+3   1.98280E+3
  -2.80996E+3  -8.85005E+2
  -1.07910E+3  -7.38918E+2
   1.95760E+3  -3.28711E+3
   3.60460E+3   2.08545E+3
   7.96370E+2   4.31125E+3
  -1.43607E+3   2.35610E+3
  -3.71710E+2  -7.56030E+2
   4.66091E+3   6.42918E+2
  -2.29374E+3   5.04174E+3
  -3.77420E+3   5.99172E+2
  -1.08530E+3  -3.15581E+3
   4.05859E+3   6.05298E+2
   9.78346E+2   4.22267E+3
  -6.06367E+3   1.42789E+3
  -9.70712E+2  -3.09711E+3
   2.51750E+3  -6.44670E+2
   3.59080E+3   1.39403E+3
  -6.78673E+2   5.71566E+3
  -5.72869E+3   4.26875E+3
  -4.32260E+3   9.41207E+1
  -8.50792E+2  -1.64089E+3
  -1.67526E+3  -8.33869E+2
  -7.29085E+2  -6.20649E+3
   2.75722E+3  -3.53766E+3
   2.58747E+3  -8.35541E+2
  -1.20668E+3  -1.09534E+3
  -2.82348E+3   1.04445E+3
  -4.04140E+3  -5.47665E+2
  -6.35380E+3  -1.99021E+3
  -2.23672E+2  -4.23237E+3
   4.80672E+3  -3.24658E+3
   8.32522E+2   1.65576E+2
  -1.10630E+3   1.32240E+3
   3.94484E+2   1.00278E+3
  -3.28331E+3   1.84646E+1
  -2.83635E+3  -9.65303E+2
  -3.23999E+3  -2.61581E+3
  -2.68482E+3  -3.42427E+3
  -7.86491E+1  -5.12531E+3
   7.33523E+3  -2.81341E+2
   6.52275E+2   8.94169E+2
   1.03112E+3   2.55179E+3
  -1.29951E+3   9.26779E+2
  -4.11683E+3   1.27231E+3
  -4.26782E+3  -1.51512E+3
   1.19262E+3  -2.14631E+3
   1.83170E+3  -1.25654E+3
   4.40424E+3  -1.73752E+3
   3.99153E+3   2.05653E+3
  -2.19902E+2   1.72866E+3
  -6.30410E+2  -6.76665E+2
   1.62939E+3  -1.40447E+3
   2.26701E+3   1.04435E+3
  -1.49636E+3   2.35980E+3
  -1.52316E+3   5.99149E+2
  -6.58016E+2  -3.71456E+2
  -1.36942E+3  -1.69711E+2
  -9.81275E+2   2.36082E+3
  -2.16575E+3  -9.48529E+2
  -4.72722E+2   6.82046E+2
  -7.23780E+1  -1.35433E+3
   2.12027E+3  -1.27980E+3
   1.61514E+3   1.37757E+3
   1.42602E+2   5.23155E+2
   1.18141E+3  -2.43104E+2
   4.23486E+3   3.98392E+2
   3.32306E+3  -1.03823E+0
  -1.62223E+3  -1.01167E+3
   2.68881E+3  -3.36344E+3
   2.04722E+3   1.77386E+3
   1.25574E+2   2.83093E+3
  -2.98392E+3  -1.03142E+1
  -1.25383E+3  -1.66610E+2
   1.62371E+3  -1.53025E+3
   5.17147E+3  -6.85667E+2
   2.97552E+3   2.45357E+3
  -2.22217E+3   3.66788E+3
  -5.78832E+2   1.96690E+3
   1.16267E+3   8.56552E+2
  -1.51826E+3   3.06336E+3
  -2.50124E+3   7.21898E+2
   4.72651E+2  -1.67807E+3
   1.12361E+3  -2.48443E+3
   3.21588E+3  -6.27890E+2
   8.26995E+2   1.13508E+3
  -1.12762E+3   1.19172E+3
  -2.09959E+3  -1.79492E+3
   1.32625E+3  -3.32165E+3
   4.69568E+3  -1.56019E+3
   4.09261E+3   2.61129E+3
  -1.28502E+3   1.49395E+3
  -2.11099E+3   2.78723E+2
  -1.12173E+2   2.97198E+2
  -1.16939E+3  -4.36673E+1
  -2.35194E+3  -3.85179E+2
  -1.89919E+3  -9.16720E+2
   2.20010E+3  -1.40828E+3
   4.56823E+3   2.27631E+3
   2.19430E+3   4.79557E+2
  -1.78597E+2   2.82599E+3
   1.54755E+3   2.50619E+2
  -4.44660E+3   2.52909E+3
  -1.89524E+3  -8.92565E+2
   5.81919E+2  -1.20183E+3
   4.67428E+1  -8.20775E+2
  -1.00429E+3  -3.75844E+3
   2.45443E+3   7.53862E+2
   1.37819E+2   1.29989E+3
  -1.43791E+3  -2.23783E+2
  -4.12359E+2  -7.62422E+2
   6.80850E+2  -5.83103E+2
   1.12638E+3  -2.23654E+3
   5.15832E+2  -8.04437E+2
   1.05991E+3  -1.93212E+3
   1.26880E+3   1.55167E+3
   1.24721E+3   1.65613E+3
  -1.57417E+3   6.61735E+2
  -5.57819E+2   1.04627E+3
   1.06250E+3  -1.32473E+3
   2.15015E+3   2.26101E+3
   1.91094E+2   3.38211E+3
  -2.57001E+3   3.08321E+3
  -1.43376E+3  -9.67080E+2
  -5.45612E+2   7.70949E+1
  -2.14478E+3  -1.20401E+3
   1.41759E+2  -2.58213E+3
  -6.56205E+2  -1.27438E+3
  -8.06379E+2  -7.31401E+2
   1.51108E+3  -1.19280E+3
  -4.25093E+2   1.56862E+3
  -1.04139E+3   1.58106E+3
  -9.08718E+2   1.35782E+2
  -1.98419E+3   1.77786E+3
   3.01540E+2  -1.58184E+2
  -6.15284E+2  -3.58089E+2
   8.51987E+2  -3.93918E+2
   1.25692E+3   1.33309E+3
   7.12929E+2  -1.64502E+3
  -9.48704E+2  -1.24508E+3
   1.85638E+3  -3.10308E+3
   2.81405E+3  -1.88615E+3
   1.26514E+3  -1.57440E+3
  -1.87760E+2   1.53373E+3
  -1.58285E+3   4.08210E+2
  -8.25728E+2   1.43136E+2
   3.77107E+2   6.64625E+2
  -1.21070E+3  -4.50339E+2
  -2.30875E+3   3.95641E+2
  -2.14689E+3  -7.29365E+2
   5.13274E+2   7.91141E+2
   1.71348E+3   7.98152E+2
  -1.84462E+3   8.40768E+2
  -7.32139E+2  -1.33020E+3
  -8.03351E+2  -1.13671E+3
   4.78570E+2  -9.36286E+2
   1.27479E+3  -7.68865E+2
  -2.10272E+3   5.27881E+2
  -3.77433E+3   1.40246E+3
  -2.90373E+3  -1.72162E+3
  -2.12253E+3  -8.40420E+2
  -1.37721E+3   1.67447E+3
  -4.59011E+2   7.57084E+2
   8.93232E+2   1.15294E+3
  -1.25899E+3  -1.47338E+2
   7.92092E+2   2.01497E+3
   1.47082E+2   2.64356E+3
  -1.02132E+3   5.81977E+2
  -7.88025E+2   1.85781E+3
  -3.09440E+1  -3.67522E+2
   7.70943E+2   6.60698E+2
  -1.81445E+2   1.44110E+3
   4.69934E+2   1.50051E+3
   1.40588E+3   1.04251E+3
  -4.90898E+2  -2.86940E+2
  -3.67715E+2  -3.93413E+2
  -2.13176E+3  -3.12077E+3
   5.97316E+2  -1.22440E+3
  -2.05533E+2  -5.58855E+2
   5.75882E+2   8.14113E+2
  -1.08384E+3  -8.27581E+2
  -1.10703E+3  -8.84453E+2
   1.69779E+3  -1.69579E+2
  -8.13297E+2   1.37876E+3
   4.43264E+2   1.72689E+3
  -5.12914E+2   7.09531E+2
  -6.48298E+1   4.57495E+2
   8.73611E+2  -8.66616E+2
  -7.99647E+2   8.85709E+2
  -2.71954E+3  -9.08175E+1
  -1.86840E+3  -1.62536E+3
   5.76116E+2  -3.03652E+2
   9.56495E+1  -4.71821E+1
  -6.21100E+2   8.74062E+2
  -7.92726E+1   1.95365E+2
  -3.94481E+1   1.24562E+3
   1.01501E+3   2.27141E+3
  -1.74717E+3   2.03889E+3
  -1.26209E+3   5.40166E+2
   1.56276E+1  -2.02407E+3
   1.92285E+3  -8.13278E+2
   9.89841E+2  -6.54613E+2
   7.82494E+2  -1.52724E+2
  -1.06297E+3  -6.32364E+2
   9.57225E+1  -1.03191E+3
   1.92266E+2  -1.07527E+3
  -7.68033E+2   2.04896E+2
  -4.99833E+2  -1.47325E+3
   1.14853E+3  -1.40836E+3
   1.00546E+3   9.96032E+2
   9.99670E+2  -5.20705E+2
  -5.00049E+2   1.70915E+2
   4.62396E+2  -1.18849E+3
   1.13488E+3   1.67047E+2
   1.93373E+3   1.56796E+3
   1.58023E+3   3.87892E+2
   1.94911E+3   6.91633E+2
   7.15357E+1  -9.23449E+2
   6.14601E+2   7.08774E+2
  -1.47324E+2  -1.47817E+3
   1.81626E+1  -1.74211E+2
  -2.54747E+2  -2.19201E+3
   1.22778E+3  -4.69421E+2
   5.26964E+2   4.21406E+2
  -1.54677E+3  -8.31376E+1
  -1.63047E+3  -4.66949E+2
   6.19751E+2  -1.65960E+3
   4.71186E+2   2.02286E+2
   1.87622E+3  -1.68233E+1
  -8.79137E+2   1.78909E+2
  -6.27854E+2   5.01174E+2
   9.63028E+1  -2.12956E+2
  -5.08436E+2  -2.11519E+2
  -1.47159E+3   4.05899E+1
  -1.79348E+2  -1.34857E+3
   5.41090E+2  -4.23563E+2
   4.75350E+2   1.61675E+2
  -5.30071E+2   5.07761E+2
   5.88350E+2  -6.73897E+2
  -9.27318E+2  -1.44589E+3
  -7.56165E+2  -4.49353E+2
  -3.15904E+3  -9.96556E+2
   1.55882E+3  -1.49487E+3
   5.23582E+2  -6.49392E+2
   4.02993E+2  -1.36423E+3
  -4.61859E+2  -3.21706E+1
   1.06517E+3  -9.92103E+1
  -2.57140E+1   3.84016E+2
  -1.76725E+3  -3.18399E+2
  -9.56253E+2  -1.89602E+3
   3.70498E+1   2.52827E+3
  -8.45554E+1   2.37671E+2
  -1.33902E+3   1.31728E+3
   4.27040E+2  -3.62141E+2
   1.17488E+3   9.57914E+2
  -3.90977E+2  -2.76683E+2
  -1.49145E+3  -7.28350E+2
  -1.41355E+3  -1.13813E+3
  -1.40067E+3   1.40212E+3
  -1.18265E+3   1.52397E+3
  -1.75071E+1   9.86290E+2
   1.88747E+3   1.52242E+3
  -5.70013E+2   8.78276E+2
  -1.20047E+3  -1.21868E+3
   2.07639E+3   3.27488E+2
  -4.43315E+2   3.54556E+2
  -6.04120E+2  -6.01853E+2
   1.17338E+3  -9.05507E+2
   1.02906E+3   9.97653E+2
  -5.20264E+2  -6.13372E+1
   2.51995E+3   7.28149E+2
  -2.69167E+2   1.44961E+3
   1.59124E+3   1.44724E+2
   6.51323E+2   1.41265E+3
   3.50895E+3  -5.40469E+2
  -1.22156E+3   1.40763E+3
  -8.94982E+2  -1.22321E+3
   5.67840E+2  -1.63905E+2
   1.18606E+3   8.57716E+2
   1.19721E+3  -2.47843E+2
  -2.08612E+2  -6.03966E+2
   4.47682E+2   9.64017E+2
   1.40034E+1   5.85853E+2
  -1.00910E+3   6.85563E+1
  -2.14207E+2  -1.48243E+3
   5.96714E+2   3.52339E+2
   1.26997E+2  -9.45813E+2
  -4.55664E+2  -1.37279E+3
  -1.61891E+3  -2.41805E+2
   1.86996E+2   1.16611E+3
   7.86792E+2  -8.01465E+2
  -2.72296E+2  -1.04346E+2
  -3.71322E+2   7.17882E+2
   1.89601E+2   9.06804E+2
  -6.56538E+2  -7.27371E+2
  -4.04423E+2   2.21678E+2
   1.66882E+2  -7.48592E+2
  -4.64605E+2  -4.48770E+1
  -4.59753E+2  -1.15035E+3
  -2.10915E+3  -1.48589E+3
  -4.67116E+2  -7.05933E+2
  -9.05817E+2  -2.34956E+1
   5.16987E+2  -1.57662E+3
   3.68998E+1  -1.16320E+3
  -7.70692E+2   6.69103E+2
  -3.43523E+2   2.31806E+2
  -4.71028E+2   2.27667E+3
  -5.32355E+2  -4.20602E+2
   2.37989E+2  -2.18514E+3
  -3.05244E+2  -9.78448E+2
   1.96857E+3   3.85465E+2
   4.34615E+2   6.43550E+2
  -1.83274E+2   4.35434E+2
  -6.78794E+2   4.83607E+2
  -3.22830E+2  -7.81235E+2
   7.92956E+2   1.08776E+3
   1.03171E+3  -2.29288E+3
   1.85134E+3   7.94524E+2
   1.61577E+3  -1.08962E+2
  -2.47765E+3   2.90710E+2
  -2.32596E+3   1.82671E+3
   3.18644E+2   1.26533E+3
  -3.36054E+2  -8.11097E+1
   3.66858E+2  -2.41089E+2
  -1.63822E+3  -7.95702E+2
  -1.10675E+3  -1.77964E+3
  -5.80099E+1   6.96871E+2
   7.05673E+2   1.37832E+3
  -6.86712E+2  -9.56333E+2
   3.32331E+2  -8.76841E+1
   2.05205E+1   5.40505E+2
   1.29098E+3  -5.59962E+2
   9.50660E+1   3.15933E+3
  -5.06880E+0  -1.27748E+3
   1.25210E+3  -9.37994E+2
  -3.62670E+2   3.16583E+2
   2.65745E+2   3.16906E+2
  -2.16408E+3   6.37475E+2
   8.30397E+2  -1.39173E+2
  -4.04658E+2  -1.70633E+2
   5.24314E+2   8.45674E+2
  -3.49369E+2   4.63315E+2
   1.92961E+3  -2.29448E+1
   7.72089E+2   4.41880E+2
   1.65434E+3  -1.32582E+3
  -1.41336E+1   1.12532E+3
   4.60752E+1   1.34385E+3
  -1.39412E+3   5.14033E+2
  -1.63275E+3   6.70599E+2
  -1.17563E+3   8.26954E+2
   1.45431E+2  -9.65791E+2
  -7.37552E+2  -4.31110E+2
  -6.84452E+2   7.86852E+2
   4.07134E+2  -7.91891E+2
   2.06351E+2  -2.23691E+1
