 LCModel (Version 6.3-1N) Copyright: S.W. Provencher.          Ref.: Magn. Reson. Med. 30:672-679 (1993).                
 Slice_N1@14_22  02-Jun-2023 14:37:21
 27 lines in following concentration table = NCONC+1
    Conc.  %SD /Cr+PCr  Metabolite                                         
 1.43E-06  29% 1.6E-04 Mac                                                 
 2.53E-02  54%   2.800 Cr                                                  
 4.70E-02  29%   5.200 PCr                                                 
 8.06E-02  13%   8.923 Ins                                                 
 8.21E-02  10%   9.095 NAA                                                 
 4.51E-02  20%   4.990 Tau                                                 
    0.000 999%   0.000 PCho                                                
 1.16E-02  19%   1.289 GPC                                                 
 4.34E-02  26%   4.810 Glu                                                 
 2.72E-02  31%   3.011 Gln                                                 
 1.78E-02  50%   1.970 Ala                                                 
 3.44E-02  46%   3.812 Asc                                                 
 4.51E-03 209%   0.499 Asp                                                 
 9.47E-03  53%   1.048 GABA                                                
 1.22E-02  51%   1.346 Glc                                                 
 9.93E-03  49%   1.099 GSH                                                 
    0.000 999%   0.000 Lac                                                 
 1.28E-02  48%   1.422 NAAG                                                
    0.000 999%   0.000 PE                                                  
 1.16E-02  19%   1.289 GPC+PCho                                            
 9.50E-02  10%  10.517 NAA+NAAG                                            
 7.06E-02  19%   7.821 Glu+Gln                                             
 7.22E-02  11%   8.000 Cr+PCr                                              
 9.50E-02  10%  10.517 NAA+NAAG                                            
 7.22E-02  11%   8.000 Cr+PCr                                              
 7.06E-02  19%   7.821 Glu+Gln                                             
   6 lines in following misc. output table
  FWHM = 0.029 ppm    S/N =   3                                            
  Data shift = 0.006 ppm                                                   
  Ph:  21 deg       5.8 deg/ppm                                            
  alphaB,S = 3.1E+01,   4.5E+00                                            
   18 spline knots.   Ns = 6(1)                                            
   2 inflections.     1 extrema                                            
  654 points on ppm-axis = NY
      4.000000     3.994181     3.988363     3.982544     3.976726     3.970907     3.965088     3.959270     3.953451     3.947633
      3.941814     3.935995     3.930177     3.924358     3.918540     3.912721     3.906902     3.901084     3.895265     3.889446
      3.883628     3.877809     3.871991     3.866172     3.860353     3.854535     3.848716     3.842898     3.837079     3.831260
      3.825442     3.819623     3.813805     3.807986     3.802167     3.796349     3.790530     3.784712     3.778893     3.773074
      3.767256     3.761437     3.755619     3.749800     3.743981     3.738163     3.732344     3.726526     3.720707     3.714888
      3.709070     3.703251     3.697433     3.691614     3.685795     3.679977     3.674158     3.668339     3.662521     3.656702
      3.650884     3.645065     3.639246     3.633428     3.627609     3.621791     3.615972     3.610153     3.604335     3.598516
      3.592698     3.586879     3.581060     3.575242     3.569423     3.563605     3.557786     3.551967     3.546149     3.540330
      3.534512     3.528693     3.522874     3.517056     3.511237     3.505419     3.499600     3.493781     3.487963     3.482144
      3.476326     3.470507     3.464688     3.458870     3.453051     3.447232     3.441414     3.435595     3.429777     3.423958
      3.418139     3.412321     3.406502     3.400684     3.394865     3.389046     3.383228     3.377409     3.371591     3.365772
      3.359953     3.354135     3.348316     3.342498     3.336679     3.330860     3.325042     3.319223     3.313405     3.307586
      3.301767     3.295949     3.290130     3.284312     3.278493     3.272674     3.266856     3.261037     3.255219     3.249400
      3.243581     3.237763     3.231944     3.226125     3.220307     3.214488     3.208670     3.202851     3.197032     3.191214
      3.185395     3.179577     3.173758     3.167939     3.162121     3.156302     3.150484     3.144665     3.138846     3.133028
      3.127209     3.121391     3.115572     3.109753     3.103935     3.098116     3.092298     3.086479     3.080660     3.074842
      3.069023     3.063205     3.057386     3.051567     3.045749     3.039930     3.034111     3.028293     3.022474     3.016656
      3.010837     3.005018     2.999200     2.993381     2.987563     2.981744     2.975925     2.970107     2.964288     2.958470
      2.952651     2.946832     2.941014     2.935195     2.929377     2.923558     2.917739     2.911921     2.906102     2.900284
      2.894465     2.888646     2.882828     2.877009     2.871191     2.865372     2.859553     2.853735     2.847916     2.842098
      2.836279     2.830460     2.824642     2.818823     2.813004     2.807186     2.801367     2.795549     2.789730     2.783911
      2.778093     2.772274     2.766456     2.760637     2.754818     2.749000     2.743181     2.737363     2.731544     2.725725
      2.719907     2.714088     2.708270     2.702451     2.696632     2.690814     2.684995     2.679177     2.673358     2.667539
      2.661721     2.655902     2.650084     2.644265     2.638446     2.632628     2.626809     2.620991     2.615172     2.609353
      2.603535     2.597716     2.591897     2.586079     2.580260     2.574442     2.568623     2.562804     2.556986     2.551167
      2.545349     2.539530     2.533711     2.527893     2.522074     2.516256     2.510437     2.504618     2.498800     2.492981
      2.487163     2.481344     2.475525     2.469707     2.463888     2.458070     2.452251     2.446432     2.440614     2.434795
      2.428977     2.423158     2.417339     2.411521     2.405702     2.399884     2.394065     2.388246     2.382428     2.376609
      2.370790     2.364972     2.359153     2.353335     2.347516     2.341697     2.335879     2.330060     2.324242     2.318423
      2.312604     2.306786     2.300967     2.295149     2.289330     2.283511     2.277693     2.271874     2.266056     2.260237
      2.254418     2.248600     2.242781     2.236963     2.231144     2.225325     2.219507     2.213688     2.207870     2.202051
      2.196232     2.190414     2.184595     2.178777     2.172958     2.167139     2.161321     2.155502     2.149683     2.143865
      2.138046     2.132228     2.126409     2.120590     2.114772     2.108953     2.103135     2.097316     2.091497     2.085679
      2.079860     2.074042     2.068223     2.062404     2.056586     2.050767     2.044949     2.039130     2.033311     2.027493
      2.021674     2.015856     2.010037     2.004218     1.998400     1.992581     1.986763     1.980944     1.975126     1.969307
      1.963489     1.957670     1.951852     1.946033     1.940215     1.934397     1.928578     1.922760     1.916941     1.911123
      1.905304     1.899486     1.893667     1.887849     1.882030     1.876212     1.870393     1.864575     1.858756     1.852938
      1.847119     1.841301     1.835482     1.829664     1.823845     1.818027     1.812208     1.806390     1.800571     1.794753
      1.788934     1.783116     1.777297     1.771479     1.765660     1.759842     1.754023     1.748205     1.742386     1.736568
      1.730749     1.724931     1.719113     1.713294     1.707476     1.701657     1.695839     1.690020     1.684202     1.678383
      1.672565     1.666746     1.660928     1.655109     1.649291     1.643472     1.637654     1.631835     1.626017     1.620198
      1.614380     1.608561     1.602743     1.596924     1.591106     1.585287     1.579469     1.573650     1.567832     1.562013
      1.556195     1.550376     1.544558     1.538739     1.532921     1.527102     1.521284     1.515465     1.509647     1.503829
      1.498010     1.492192     1.486373     1.480555     1.474736     1.468918     1.463099     1.457281     1.451462     1.445644
      1.439825     1.434007     1.428188     1.422370     1.416551     1.410733     1.404914     1.399096     1.393277     1.387459
      1.381640     1.375822     1.370003     1.364185     1.358366     1.352548     1.346729     1.340911     1.335092     1.329274
      1.323455     1.317637     1.311818     1.306000     1.300182     1.294363     1.288545     1.282726     1.276908     1.271089
      1.265271     1.259452     1.253634     1.247815     1.241997     1.236178     1.230360     1.224541     1.218723     1.212904
      1.207086     1.201267     1.195449     1.189630     1.183812     1.177993     1.172175     1.166356     1.160538     1.154719
      1.148901     1.143082     1.137264     1.131445     1.125627     1.119808     1.113990     1.108171     1.102353     1.096534
      1.090716     1.084898     1.079079     1.073261     1.067442     1.061624     1.055805     1.049987     1.044168     1.038350
      1.032531     1.026713     1.020894     1.015076     1.009257     1.003439     0.997620     0.991802     0.985983     0.980165
      0.974346     0.968528     0.962709     0.956891     0.951072     0.945254     0.939435     0.933617     0.927798     0.921980
      0.916161     0.910343     0.904524     0.898706     0.892887     0.887069     0.881251     0.875432     0.869614     0.863795
      0.857977     0.852158     0.846340     0.840521     0.834703     0.828884     0.823066     0.817247     0.811429     0.805610
      0.799792     0.793973     0.788155     0.782336     0.776518     0.770699     0.764881     0.759062     0.753244     0.747425
      0.741607     0.735788     0.729970     0.724151     0.718333     0.712514     0.706696     0.700877     0.695059     0.689240
      0.683422     0.677603     0.671785     0.665967     0.660148     0.654330     0.648511     0.642693     0.636874     0.631056
      0.625237     0.619419     0.613600     0.607782     0.601963     0.596145     0.590326     0.584508     0.578689     0.572871
      0.567052     0.561234     0.555415     0.549597     0.543778     0.537960     0.532141     0.526323     0.520504     0.514686
      0.508867     0.503049     0.497230     0.491412     0.485593     0.479775     0.473956     0.468138     0.462319     0.456501
      0.450682     0.444864     0.439045     0.433227     0.427408     0.421590     0.415771     0.409953     0.404134     0.398316
      0.392497     0.386679     0.380860     0.375042     0.369223     0.363405     0.357586     0.351767     0.345949     0.340130
      0.334312     0.328493     0.322675     0.316856     0.311038     0.305219     0.299401     0.293582     0.287764     0.281945
      0.276127     0.270308     0.264490     0.258671     0.252853     0.247034     0.241216     0.235397     0.229579     0.223760
      0.217942     0.212123     0.206305     0.200486
 NY phased data points follow
   8.68724E-02  4.17333E-02  1.60239E-01 -2.52113E-01 -3.94309E-01 -5.28882E-01 -3.10249E-01 -1.25188E-01 -2.94513E-01 -4.53673E-01
   9.27059E-02  7.10748E-01  1.73992E-01  9.98321E-02  2.86135E-01  1.81685E-01  2.71665E-02  1.80871E-01 -1.10290E-01  2.20803E-01
   2.67661E-01 -1.50131E-01  3.28607E-01 -4.73363E-02 -2.11071E-01 -3.90651E-02 -1.27444E-02  3.23293E-03 -1.33802E-01 -1.65063E-01
  -2.16232E-01 -4.84242E-03  5.45213E-02 -1.10064E-01 -1.93621E-02 -3.83354E-01 -2.99137E-01 -6.82829E-02 -3.57328E-01 -7.56029E-02
   4.72627E-02  3.56843E-02  3.34589E-02  3.12638E-01  5.13378E-01  3.43885E-01  1.42045E-01  2.79214E-01  2.32400E-01  3.19549E-01
   5.98911E-01  7.97492E-02  1.15689E-01 -1.73680E-01 -3.81066E-01 -3.74665E-01 -2.71711E-01 -3.97685E-02  5.48307E-02  4.94396E-01
   1.05658E-01 -2.86683E-01 -4.55211E-01 -3.78160E-01 -3.03780E-01 -2.65853E-01 -8.32216E-02  3.13206E-01  3.97370E-01  3.05852E-01
   8.33739E-02 -3.39205E-01 -2.07188E-02 -3.70782E-01 -6.22270E-03  2.05402E-01 -2.88758E-01  4.69612E-02  4.25672E-02 -5.27546E-01
  -4.86431E-01 -2.72790E-01 -6.65007E-01 -2.81591E-01  4.87933E-02  3.38407E-01  3.92481E-01  6.83014E-01  5.15539E-01  6.95083E-02
   3.64797E-01 -8.18617E-02 -1.86424E-01 -1.25784E-01  2.80292E-01  4.41563E-01  3.12488E-01  4.62087E-01  2.90504E-01 -8.72270E-02
  -1.17142E-01  3.98907E-03 -1.81832E-01 -3.53845E-01 -2.40491E-01  3.25421E-01  2.76415E-01  2.76587E-01  4.58253E-01  5.77396E-01
   7.70654E-01  1.02677E+00  6.03057E-01  5.14030E-01  5.12174E-01 -1.31960E-01  2.36731E-01 -2.90130E-02 -7.12966E-02 -5.12722E-02
   1.56443E-01  1.83594E-01 -5.15053E-02  1.44019E-01 -1.94843E-01  1.25246E-01 -1.08826E-01 -2.16085E-01 -4.73738E-01 -4.82308E-01
  -5.34277E-02 -8.08764E-01 -6.19204E-01 -4.67156E-01 -6.35203E-01 -4.64630E-01 -8.95100E-01 -6.47751E-01 -4.69066E-01 -2.77243E-01
  -6.07576E-03  2.94328E-02  3.40504E-01  8.85619E-02 -3.29320E-02 -7.54239E-02  1.21683E-01 -9.70501E-02  7.31715E-03  9.34675E-02
  -2.18643E-01  6.54514E-02  9.10752E-02  3.88991E-01 -7.58017E-02 -1.92035E-01 -1.00495E-03 -1.89758E-01  1.56072E-01  3.24321E-01
   5.18619E-01  5.62095E-01  5.30957E-01  9.46342E-01  8.07724E-01  1.02753E+00  1.16390E+00  2.27787E-01  3.28809E-02 -6.39194E-01
  -7.99133E-01 -8.17063E-01 -8.91245E-01 -6.59166E-01 -7.54308E-01 -3.39921E-01 -7.82228E-01 -7.89492E-01 -7.45085E-01 -7.34107E-01
  -4.70196E-01 -5.12925E-01 -4.73255E-01 -5.63662E-01 -1.67930E-01 -5.11069E-01 -5.54977E-01  8.99657E-02 -4.46730E-02  2.32619E-02
  -6.35879E-02 -9.49619E-02 -2.87210E-02  1.82523E-01  2.80761E-02 -3.15630E-01  1.00951E-01 -1.81795E-01 -2.00918E-01 -2.76359E-01
  -6.95187E-02 -3.26144E-02 -3.71875E-01 -2.47926E-01 -3.60864E-01 -1.88634E-01 -4.31148E-01 -4.19608E-01 -4.38914E-01 -3.61585E-01
  -6.20182E-01 -3.96129E-01 -5.74274E-02 -3.72353E-01 -3.73339E-02 -5.43192E-02  1.60639E-01  1.02635E-01 -5.78435E-02  8.46821E-02
   5.95244E-02 -2.42996E-01 -1.77740E-01  5.47551E-02  4.03535E-01  5.44250E-01  2.25015E-01  4.26206E-01  2.33774E-01  3.31256E-01
   4.74407E-01  3.05660E-01  5.22449E-01  3.61069E-01 -1.08704E-01  1.25573E-01  3.25976E-01  1.04025E-01 -5.29825E-02 -2.59120E-02
  -6.28165E-02 -1.29374E-01 -1.32070E-01  3.52425E-02  1.58665E-01 -2.47909E-01 -4.09282E-02 -4.10324E-01 -2.74503E-01  1.49182E-01
  -2.43843E-01 -3.46963E-02  1.24770E-01  3.16252E-01  4.75547E-02 -1.11876E-02  1.56720E-01 -9.25715E-02  1.48059E-01  1.74081E-01
   1.01230E-01  4.86218E-01  2.37163E-01  2.19898E-01  2.64325E-01  2.17107E-01  2.37227E-01  3.80049E-01  1.32036E-01 -1.92671E-01
   5.79753E-01  3.21035E-01  3.75471E-01  2.89093E-01  6.88367E-02  2.16167E-01  1.44493E-01  4.09734E-02 -2.95971E-01  9.07230E-02
  -1.08563E-01 -2.13650E-01 -5.90923E-02  4.57263E-03 -2.02684E-02  2.29959E-01  5.54581E-01  4.67825E-01  3.97560E-01  3.38432E-01
   2.60751E-01  4.42212E-01  3.40069E-01 -1.39791E-01  3.11246E-01  6.86526E-02  1.30697E-02  2.28371E-01  3.21297E-01  4.33820E-01
   2.24877E-01  4.11708E-01  1.32909E-01  5.04882E-02  1.00223E-01  3.19425E-02  4.20935E-01  2.20878E-01 -1.88004E-01  4.41709E-01
   1.62255E-01  1.59360E-01  2.84157E-01 -1.84915E-01  9.36134E-02 -1.33992E-01 -1.98773E-01 -1.46173E-01  9.28320E-03 -4.02023E-03
  -2.47806E-01 -4.08642E-02 -2.95218E-01 -5.37698E-01 -7.44624E-02  3.49662E-02  2.57755E-01  5.64023E-02  1.14288E-01  2.78501E-01
  -2.02275E-01  8.25573E-02 -2.70625E-01  1.65383E-01  7.77757E-02 -4.83390E-01 -2.09998E-01 -3.73142E-01 -4.34218E-01 -4.13558E-01
  -3.92510E-01 -9.18931E-01 -1.31700E+00 -1.34003E+00 -9.19330E-01 -1.10268E+00 -2.24397E-01  4.31811E-01 -4.46734E-02  7.28562E-03
  -2.11212E-01  2.44230E-01  7.35672E-02  2.63858E-01  1.46625E-01 -7.49424E-03  1.33851E-01 -1.48177E-01  2.90618E-01  3.64887E-01
   3.14905E-01  1.93408E-01  3.06687E-01  2.02485E-01 -6.86962E-02  9.84905E-02  2.42501E-01  7.25247E-02  1.76827E-01 -1.48848E-02
  -5.68547E-02  6.88512E-02 -1.48648E-01  1.35918E-01 -1.43366E-03  2.97230E-01  1.38951E-01  1.06444E-01  2.00358E-01 -1.19357E-01
  -1.57184E-01 -2.61616E-01  3.79602E-01  1.55506E-01 -6.23951E-02 -1.45884E-02 -2.45669E-01 -1.28256E-01 -1.86663E-01 -2.67139E-01
  -1.89619E-01  1.33295E-01  2.88588E-01  1.24375E-01  1.24376E-01  2.24392E-01  2.45472E-01  1.95153E-01  1.94507E-01  2.99337E-01
  -1.39928E-01 -1.81596E-01 -2.71779E-01 -3.72585E-01 -2.08954E-01 -4.20525E-01 -2.92093E-01 -6.56736E-02  1.46639E-01  8.04922E-02
  -9.03439E-02 -6.14555E-02  1.87733E-01 -3.76916E-01 -3.88728E-01  7.63116E-02 -5.03726E-01 -3.42416E-01 -1.93840E-01 -2.75385E-01
   3.82561E-02 -3.22779E-01 -5.56671E-01 -1.07284E-01 -2.74972E-01 -1.71956E-01 -1.85629E-01 -2.52170E-01  2.22740E-01  3.48878E-01
   3.69248E-01  2.65168E-02  1.93131E-01  1.42149E-01 -1.55026E-01  3.15683E-01  2.19213E-01  3.76062E-01  2.93228E-01 -1.50139E-01
   5.55140E-01  5.65137E-01  2.66243E-01  8.00633E-02  4.90294E-01  6.42602E-01  4.73762E-01  6.39096E-01  6.86742E-02  5.28359E-01
   4.81859E-01  4.56915E-01  3.74108E-01  2.09992E-01  1.56002E-01  1.86910E-01  2.67659E-01 -3.88886E-01  6.45653E-02 -2.00557E-01
  -2.06325E-01 -3.99259E-02  1.10822E-01  1.24740E-01 -3.07669E-01 -1.38631E-01  1.51215E-02  3.47693E-02 -6.46050E-02 -4.03569E-02
  -4.03187E-01 -4.39028E-02 -2.05135E-01 -2.98011E-02 -4.50288E-02 -4.55772E-01 -5.17519E-02 -2.03107E-01  2.90299E-01  5.03484E-02
   1.29686E-02  1.79971E-01 -3.52403E-02  4.79040E-01  2.34681E-02 -5.71445E-02  2.34415E-01  6.74517E-02 -2.57730E-02 -1.34318E-01
  -1.99664E-01 -4.70782E-01  1.14767E-01  8.38122E-03 -1.66301E-01 -1.55565E-01 -2.20756E-01  2.78989E-02 -2.59207E-01  2.66423E-02
  -5.90909E-02  8.78965E-02 -2.36610E-01  4.42434E-02  1.02984E-01  1.01011E-01  2.20927E-01 -2.45813E-01  5.23946E-01  8.36723E-02
   2.83463E-01  4.81857E-02 -1.04541E-01  6.75577E-02 -1.41412E-02  5.71814E-01 -1.16667E-01 -1.66397E-01  2.29864E-01  1.83465E-01
  -1.93740E-02  2.13529E-01  2.08965E-01 -4.20424E-01 -2.20663E-01 -1.85571E-01 -8.84910E-01 -9.71158E-02  5.28628E-02 -4.13818E-01
  -5.30387E-02 -1.91491E-01  1.02084E-02 -1.07747E-01 -1.32285E-01 -2.30281E-01 -2.27967E-01 -7.77600E-02 -4.08190E-03  5.53506E-02
  -8.69400E-02 -1.93297E-01 -7.20094E-02  2.16335E-01  6.00168E-02 -2.48935E-01 -1.44154E-01  1.49819E-01 -9.77076E-02  3.17530E-01
   2.90906E-01  1.72836E-01  3.31627E-01  1.24056E-01  4.08307E-01  2.07022E-01  4.94203E-02  1.27834E-01  9.59383E-02  7.82540E-02
   1.50811E-02  2.95646E-01  2.24411E-01 -3.04116E-01  3.10322E-01  1.09360E-01 -8.32965E-02  2.31490E-01 -3.94261E-01 -1.92722E-01
  -8.95619E-02  5.22604E-02 -1.38911E-01 -1.13772E-01  1.20046E-01 -4.94486E-01 -5.47754E-02  3.59561E-02 -1.62631E-01  2.56034E-01
  -1.09027E-02  6.49678E-02  2.99415E-02  2.53444E-01  3.02520E-01 -3.95039E-01 -5.43565E-03  1.70345E-01 -2.14662E-01 -2.85009E-01
  -2.99094E-02  3.70756E-02 -1.53739E-01 -3.37956E-01 -4.99152E-02 -1.20038E-01 -2.68621E-01  2.54013E-03 -2.23810E-01 -7.73974E-03
  -5.25891E-02 -1.08279E-01 -1.94927E-03  2.84180E-01  3.40464E-01  8.97640E-02  3.09336E-01  9.20290E-02 -2.68588E-02 -1.41668E-01
  -2.20815E-01  5.99611E-02  8.83288E-04 -1.36673E-01 -1.69580E-01 -2.97547E-02 -7.76837E-02 -2.55206E-01  3.52298E-01  2.14479E-01
  -3.27670E-01  7.80749E-02  3.05283E-01 -2.47561E-02  1.83828E-01  1.75699E-01 -2.14955E-01  1.10650E-01  8.37621E-02  4.51285E-02
  -5.62472E-02  1.38150E-02 -7.85267E-02 -2.70406E-01 -1.28553E-01  1.42979E-01  3.24589E-01 -1.05042E-01  3.63823E-02  1.99689E-01
   1.04615E-01  3.09686E-01  1.76692E-01 -2.40811E-01  1.43398E-01  2.45383E-01  1.17429E-01 -7.36649E-02 -1.20846E-01  1.10797E-01
   1.83027E-01  5.35639E-01 -3.94041E-01 -2.59398E-01
 NY points of the fit to the data follow
   8.54159E-02  5.66230E-02  2.68130E-02 -6.94059E-03 -3.23151E-02 -3.23977E-02 -2.43488E-02 -2.50095E-02  7.34266E-03  4.46927E-02
   9.21357E-02  2.88232E-01  4.48443E-01  4.69814E-01  5.28973E-01  5.34538E-01  4.23184E-01  2.90495E-01  2.38020E-01  2.03908E-01
   8.05534E-02  3.55464E-02  3.48593E-02 -6.34768E-03 -3.23099E-02 -6.10826E-02 -8.60105E-02 -1.02409E-01 -1.19166E-01 -1.32444E-01
  -1.43378E-01 -1.54404E-01 -1.69644E-01 -1.99419E-01 -2.16708E-01 -2.51445E-01 -2.73893E-01 -2.68911E-01 -2.65937E-01 -1.60578E-01
  -5.65581E-02  4.72025E-02  1.47921E-01  2.03790E-01  2.32550E-01  2.30619E-01  2.42431E-01  2.26241E-01  2.23919E-01  1.97224E-01
   1.53584E-01  1.19534E-01  8.61447E-02  5.50061E-02 -7.83527E-03 -4.66537E-02 -7.84242E-02 -1.08884E-01 -1.02672E-01 -1.17465E-01
  -1.15812E-01 -2.06432E-01 -2.61345E-01 -2.63376E-01 -3.74435E-01 -2.34311E-01 -1.08682E-01 -2.41256E-03  1.75697E-01  2.86916E-01
   4.00231E-01  3.32010E-01  3.15856E-01  2.74192E-01  1.32111E-01  8.12556E-02 -2.32835E-02 -1.06199E-01 -2.23590E-01 -4.47280E-01
  -4.38767E-01 -3.63906E-01 -3.00862E-01 -9.61659E-02  1.46934E-01  3.26572E-01  3.30010E-01  3.79125E-01  4.12951E-01  3.15452E-01
   2.69480E-01  2.50773E-01  2.22017E-01  1.98045E-01  1.52336E-01  1.39079E-01  3.95060E-02 -6.91555E-03 -1.02263E-01 -1.91162E-01
  -1.64597E-01 -1.59904E-01 -2.19790E-02  6.41388E-02  1.69952E-01  2.31943E-01  2.31793E-01  2.57005E-01  2.41750E-01  2.52600E-01
   2.57147E-01  2.56048E-01  2.56808E-01  2.56024E-01  2.53747E-01  2.53488E-01  2.52862E-01  2.49337E-01  2.56551E-01  2.29376E-01
   2.40548E-01  1.96029E-01  9.53565E-02  1.00760E-01 -4.20126E-02 -7.41640E-02 -1.61197E-01 -2.05110E-01 -2.61851E-01 -4.24164E-01
  -3.15425E-01 -4.85120E-01 -3.24167E-01 -3.58513E-01 -6.29964E-01 -6.24479E-01 -7.14534E-01 -5.75152E-01 -5.04399E-01 -2.27012E-01
  -1.51172E-02 -7.69584E-02 -2.39448E-02  1.28716E-02  4.02471E-02  6.27150E-02  8.22690E-02  1.00583E-01  1.16704E-01  1.32102E-01
   1.46580E-01  1.61254E-01  1.76242E-01  1.91675E-01  2.09598E-01  2.28514E-01  2.50597E-01  2.76311E-01  3.05666E-01  3.42252E-01
   3.91609E-01  4.52789E-01  4.81399E-01  6.76383E-01  6.08926E-01  8.92235E-01  8.85082E-01  2.67912E-01 -1.15020E-01 -6.01356E-01
  -8.05895E-01 -9.93510E-01 -7.33327E-01 -3.91802E-01 -4.68349E-01 -4.28433E-01 -3.74948E-01 -3.38436E-01 -3.13114E-01 -2.91555E-01
  -2.69460E-01 -2.57297E-01 -2.41866E-01 -2.20316E-01 -2.15334E-01 -2.08549E-01 -2.11211E-01 -2.00328E-01 -1.95613E-01 -1.89227E-01
  -1.78954E-01 -1.72745E-01 -1.64397E-01 -1.55973E-01 -1.45117E-01 -1.38230E-01 -1.30582E-01 -1.23756E-01 -1.16617E-01 -1.10705E-01
  -1.03986E-01 -9.58370E-02 -9.13475E-02 -8.77506E-02 -8.70010E-02 -8.58216E-02 -8.20343E-02 -8.00852E-02 -7.85554E-02 -7.94029E-02
  -8.11742E-02 -8.30592E-02 -8.31562E-02 -7.85184E-02 -6.96266E-02 -6.11310E-02 -5.00536E-02 -3.86896E-02 -3.93807E-02 -3.15893E-02
  -2.91816E-02 -9.46363E-03 -9.72438E-04  2.41533E-02  1.14723E-01  1.62892E-01  1.75979E-01  1.76234E-01  1.76973E-01  2.08123E-01
   2.06786E-01  2.04545E-01  1.87427E-01  1.08072E-01  1.92794E-02 -5.67036E-02 -7.16135E-02 -6.78830E-02 -8.64837E-02 -9.48786E-02
  -1.05291E-01 -1.12039E-01 -1.18670E-01 -1.24278E-01 -1.25988E-01 -1.33319E-01 -1.34859E-01 -1.39763E-01 -1.45070E-01 -1.43871E-01
  -1.40822E-01 -1.35803E-01 -1.57811E-01 -1.36151E-01 -1.62891E-01 -1.53209E-01 -6.77922E-02 -5.89981E-02 -2.46596E-04  3.98497E-02
   1.08576E-01  1.05293E-01  6.83162E-02  1.56742E-01  1.07676E-01  1.08483E-01  1.18945E-01  1.35941E-01  1.72923E-01  1.42403E-01
   1.87586E-01  1.61761E-01  1.38850E-01  1.07745E-01  5.67817E-02  3.37919E-02 -4.22596E-03 -3.89280E-02 -6.71475E-02 -1.12307E-01
  -1.59052E-01 -1.68979E-01 -1.88608E-01 -1.36037E-01 -5.88534E-02  2.87232E-02  1.35187E-01  1.89382E-01  2.22354E-01  2.09921E-01
   1.70239E-01  1.47297E-01  1.05017E-01  8.71825E-02  9.69328E-02  9.64517E-02  1.20738E-01  1.32442E-01  1.43759E-01  1.48048E-01
   1.37038E-01  1.33558E-01  1.22221E-01  1.12690E-01  1.06281E-01  9.04951E-02  8.24017E-02  6.05785E-02  3.12508E-02  1.94845E-02
  -2.09329E-02 -3.22808E-02 -4.35879E-02 -6.00262E-02 -5.28628E-02 -8.12065E-02 -9.14484E-02 -1.46133E-01 -1.84184E-01 -2.27103E-01
  -2.72202E-01 -2.72506E-01 -2.74783E-01 -2.34286E-01 -1.94218E-01 -1.21376E-01 -6.16658E-02 -1.08346E-03  3.73836E-02  4.51422E-02
   4.10514E-02  4.69394E-03 -3.39121E-02 -8.19894E-02 -1.23894E-01 -2.34790E-01 -3.30397E-01 -2.59599E-01 -4.15394E-01 -3.10769E-01
  -4.66321E-01 -1.07604E+00 -1.32369E+00 -1.44814E+00 -1.24322E+00 -9.87639E-01 -4.78065E-01 -5.40967E-02 -1.32145E-01 -1.21398E-01
  -6.29349E-02 -3.58495E-02 -1.78600E-02 -4.38444E-03  5.61506E-03  1.59293E-02  2.16136E-02  2.37966E-02  2.58999E-02  1.28516E-02
   4.32176E-03 -1.78044E-02 -3.85620E-02 -5.41992E-02 -7.15998E-02 -7.14249E-02 -7.41741E-02 -6.18451E-02 -4.99034E-02 -3.83988E-02
  -2.34209E-02 -1.39635E-02 -2.67653E-03  3.64264E-03  1.04047E-02  1.55712E-02  1.97226E-02  2.35764E-02  2.73245E-02  3.10078E-02
   3.35327E-02  3.64283E-02  3.88491E-02  4.15237E-02  4.39903E-02  4.64482E-02  4.75212E-02  4.92047E-02  5.10063E-02  5.28919E-02
   5.57195E-02  5.79654E-02  5.98865E-02  6.00135E-02  5.96493E-02  5.85921E-02  5.69010E-02  5.54717E-02  5.36441E-02  5.13039E-02
   4.82636E-02  4.49969E-02  4.09473E-02  3.63700E-02  3.22628E-02  2.83204E-02  2.46717E-02  2.05603E-02  1.76954E-02  1.44473E-02
   1.09623E-02  8.75583E-03  6.44939E-03  4.64629E-03  2.85377E-03  1.14750E-03 -4.77838E-04 -2.09097E-03 -3.18228E-03 -3.65085E-03
  -4.34829E-03 -4.52312E-03 -3.74776E-03 -2.72534E-03 -1.01873E-03  1.76183E-03  5.48976E-03  1.04001E-02  1.82975E-02  2.60798E-02
   4.02011E-02  6.19737E-02  7.72173E-02  1.51589E-01  1.94280E-01  2.38259E-01  2.74606E-01  2.32896E-01  1.88968E-01  1.12633E-01
   8.13515E-02  5.48356E-02  4.60417E-02  7.23385E-02  7.15283E-02  7.80773E-02  8.47608E-02  9.13025E-02  9.66341E-02  1.00226E-01
   1.02829E-01  1.03564E-01  1.03713E-01  1.03392E-01  1.01980E-01  1.00017E-01  9.62752E-02  9.09959E-02  8.47296E-02  7.81084E-02
   7.16089E-02  6.51143E-02  5.95150E-02  5.32491E-02  4.74814E-02  4.20036E-02  3.70979E-02  3.26176E-02  2.85885E-02  2.54940E-02
   2.19761E-02  1.93364E-02  1.71869E-02  1.53256E-02  1.48754E-02  1.53407E-02  1.61173E-02  1.81739E-02  2.05199E-02  2.29653E-02
   2.57789E-02  2.92787E-02  3.32184E-02  3.60342E-02  3.90764E-02  4.13122E-02  4.26471E-02  4.38864E-02  4.53225E-02  4.72677E-02
   4.80550E-02  4.92162E-02  4.90728E-02  4.83251E-02  4.72140E-02  4.49893E-02  4.34616E-02  4.10536E-02  3.92793E-02  3.71138E-02
   3.48987E-02  3.33721E-02  3.09372E-02  2.85937E-02  2.63937E-02  2.38172E-02  2.12522E-02  1.91985E-02  1.73731E-02  1.55285E-02
   1.35083E-02  1.17097E-02  9.24362E-03  5.40453E-03  1.49129E-03 -2.89863E-03 -8.06915E-03 -1.31595E-02 -1.94409E-02 -2.63761E-02
  -3.53558E-02 -4.54536E-02 -5.56422E-02 -6.64427E-02 -7.64205E-02 -8.61593E-02 -9.47781E-02 -1.02890E-01 -1.10329E-01 -1.16346E-01
  -1.20282E-01 -1.22313E-01 -1.23236E-01 -1.22538E-01 -1.19710E-01 -1.16216E-01 -1.12264E-01 -1.07362E-01 -1.01912E-01 -9.72416E-02
  -9.30766E-02 -8.75953E-02 -8.22045E-02 -7.62749E-02 -6.96011E-02 -6.23248E-02 -5.53004E-02 -4.86730E-02 -4.10590E-02 -3.45754E-02
  -2.87209E-02 -2.19771E-02 -1.59145E-02 -1.04740E-02 -5.55964E-03 -8.97642E-04  4.07495E-03  8.11171E-03  1.12715E-02  1.51064E-02
   1.82191E-02  2.02347E-02  2.26740E-02  2.48272E-02  2.68673E-02  2.79409E-02  2.93012E-02  3.07608E-02  3.07770E-02  3.21925E-02
   3.33541E-02  3.41693E-02  3.60515E-02  3.80596E-02  3.98155E-02  4.02268E-02  4.11339E-02  4.19307E-02  4.15090E-02  4.18853E-02
   4.23556E-02  4.23727E-02  4.24453E-02  4.26186E-02  4.30332E-02  4.33277E-02  4.38122E-02  4.48584E-02  4.58015E-02  4.53197E-02
   4.43482E-02  4.42190E-02  4.39691E-02  4.40495E-02  4.41222E-02  4.54506E-02  4.59941E-02  4.51813E-02  4.52237E-02  4.53687E-02
   4.64593E-02  4.69604E-02  4.80175E-02  4.96511E-02  5.06326E-02  5.15531E-02  5.26853E-02  5.39187E-02  5.52087E-02  5.62979E-02
   5.73739E-02  5.76240E-02  5.75599E-02  5.83225E-02  5.83392E-02  5.92981E-02  6.06736E-02  6.24738E-02  6.41207E-02  6.47507E-02
   6.63666E-02  6.81114E-02  6.98643E-02  7.22400E-02  7.39011E-02  7.48569E-02  7.52584E-02  7.54926E-02  7.66240E-02  7.81803E-02
   7.96542E-02  8.10387E-02  8.21734E-02  8.29512E-02  8.43060E-02  8.59451E-02  8.75474E-02  8.89628E-02  9.11649E-02  9.35569E-02
   9.51814E-02  9.80008E-02  1.00320E-01  1.02658E-01  1.05020E-01  1.07667E-01  1.11543E-01  1.15203E-01  1.19870E-01  1.24346E-01
   1.28551E-01  1.33474E-01  1.37002E-01  1.41170E-01
 NY background values follow
     1.686E-02    1.674E-02    1.662E-02    1.651E-02    1.639E-02    1.627E-02    1.615E-02    1.603E-02    1.591E-02    1.580E-02
     1.568E-02    1.556E-02    1.544E-02    1.532E-02    1.520E-02    1.508E-02    1.497E-02    1.485E-02    1.473E-02    1.461E-02
     1.449E-02    1.437E-02    1.426E-02    1.414E-02    1.402E-02    1.390E-02    1.378E-02    1.366E-02    1.355E-02    1.343E-02
     1.331E-02    1.319E-02    1.307E-02    1.295E-02    1.284E-02    1.272E-02    1.260E-02    1.248E-02    1.236E-02    1.224E-02
     1.213E-02    1.201E-02    1.189E-02    1.177E-02    1.165E-02    1.153E-02    1.142E-02    1.130E-02    1.118E-02    1.106E-02
     1.094E-02    1.082E-02    1.071E-02    1.059E-02    1.047E-02    1.035E-02    1.023E-02    1.011E-02    9.995E-03    9.877E-03
     9.758E-03    9.640E-03    9.522E-03    9.403E-03    9.285E-03    9.166E-03    9.048E-03    8.930E-03    8.811E-03    8.693E-03
