 
 $NMID
 ID=''
 FMTDAT='(2E13.5)'
 TRAMP=   1.00000E+0
 VOLUME=   1.00000E+0
 $END
   4.02036E+2  -1.42824E+2
   4.58333E+1   1.87611E+3
   2.62344E+3  -1.70895E+3
   1.35345E+3  -5.26553E+2
   1.06062E+3  -1.98945E+2
   1.74070E+3  -3.08468E+3
  -1.08655E+3  -1.15089E+3
  -2.86442E+3  -1.92356E+3
  -3.95756E+2  -1.73284E+3
  -1.09321E+3  -2.85791E+3
  -8.60002E+2  -2.46390E+2
   1.71643E+3   1.97924E+3
   1.70659E+3   4.30467E+3
  -1.96435E+3   2.14789E+3
  -1.89202E+3   4.47583E+2
   2.72699E+3  -1.72925E+3
   1.91904E+3  -7.98092E+2
   3.16689E+3  -6.60002E+2
   1.73879E+3   2.26482E+3
   1.48991E+3  -3.02207E+3
   3.52263E+3  -2.21263E+3
   1.54994E+3   2.91567E+3
  -4.68151E+3   1.03623E+3
  -3.50857E+3  -2.54315E+3
   1.55986E+2  -2.98704E+3
   1.17976E+3   2.63111E+3
  -2.35525E+2   3.86941E+3
  -1.05147E+3   8.47485E+1
  -8.77087E+2  -4.56126E+3
   4.25031E+3  -8.67722E+2
   4.27881E+3   5.44083E+3
  -3.23830E+3   5.81174E+3
  -5.15724E+3   3.00101E+2
  -4.48990E+2  -1.68148E+3
  -1.04139E+3   3.17361E+2
  -4.47433E+3  -1.00867E+3
   3.24945E+3  -5.33354E+3
   4.13544E+3   5.64933E+2
   1.23012E+2   6.53762E+2
  -2.64365E+2   8.82790E+2
  -3.36233E+2   4.11824E+3
  -6.08488E+3  -4.13979E+2
  -2.70385E+3  -6.05414E+3
   1.21994E+3  -5.83023E+3
   4.50395E+2   2.30226E+3
  -2.12464E+3   3.06700E+2
   6.61965E+1  -9.75576E+2
   6.13879E+2  -3.78622E+2
  -1.51524E+3   1.40837E+3
  -4.20700E+3   8.78045E+2
  -2.99109E+3  -2.43981E+3
  -4.93210E+2  -3.89269E+3
   3.87626E+3  -2.10040E+3
   2.68695E+3   3.48250E+3
  -1.69040E+3   2.49514E+3
  -3.05557E+3   3.84583E+3
  -3.14541E+3  -8.93623E+2
  -3.78858E+3  -1.70777E+3
  -1.48466E+3  -5.91582E+3
   2.23457E+3  -4.11962E+3
   4.55192E+3  -4.02626E+3
   3.47121E+3   6.90243E+2
  -7.60139E+1   1.32834E+3
  -6.96707E+2  -7.77877E+2
   3.35335E+3  -3.16691E+3
   1.71453E+3   1.34466E+3
  -9.95406E+2   3.22015E+3
  -4.22861E+3   7.83747E+2
   8.99057E+2  -2.47327E+2
  -1.19596E+2   2.96134E+3
  -1.28723E+3   1.16450E+3
  -2.54986E+2   2.01484E+3
  -3.29228E+2  -2.17320E+2
  -1.01629E+3  -7.78155E+2
   1.09342E+3  -6.15929E+1
  -1.75409E+3   7.53713E+2
  -9.88106E+2   6.40850E+2
   5.90240E+2   1.27782E+3
   1.22799E+3   7.81758E+2
   2.99503E+3   2.40470E+3
  -7.99128E+2   2.04529E+3
   1.48947E+3   1.98251E+3
   7.57649E+2   4.85814E+2
  -1.53099E+3   2.22916E+3
  -1.26433E+3  -7.72502E+2
  -1.15308E+3  -4.23231E+3
   2.93794E+2  -2.78087E+3
   2.44843E+3  -4.10762E+2
   3.43086E+3   1.83057E+3
  -1.09437E+3   6.09920E+1
  -4.43841E+2  -6.42579E+2
   8.41143E+2  -1.69208E+2
  -2.65599E+3   2.82901E+3
  -4.13765E+3   1.49274E+3
  -2.75680E+3  -2.29608E+3
   8.16670E+2  -5.29552E+2
   3.68353E+3  -6.93918E+1
  -1.44983E+3   2.07384E+3
  -2.63680E+3  -1.09923E+2
  -1.40730E+2  -3.20076E+3
   3.50116E+2  -2.21676E+3
   1.32129E+2   2.55415E+3
  -2.06557E+3   2.94691E+3
  -1.41554E+3   8.28963E+2
  -2.04870E+3  -6.31013E+2
   1.18592E+3  -1.48405E+3
   1.72315E+3  -1.03486E+3
   1.02864E+3  -1.78949E+2
   1.00444E+3  -2.45115E+3
   3.17862E+3  -1.36254E+3
   5.56519E+3   2.21174E+3
   2.51022E+3   1.08360E+3
  -1.61979E+3   1.96456E+3
  -1.77074E+3  -1.09714E+3
  -1.17627E+2   2.26858E+2
  -1.45181E+3  -1.11793E+3
   1.73614E+2  -6.60818E+2
   1.10991E+3   3.30966E+2
   1.70832E+3  -6.86519E+1
  -4.85572E+2  -8.64994E+1
   9.24808E+2   1.00861E+3
   1.70576E+3   1.91659E+3
  -2.00621E+2  -5.26010E+2
   7.09862E+2   9.72249E+2
   1.05214E+3   1.19135E+3
  -6.76712E+2   1.90940E+3
   3.97611E+2   1.03249E+3
   1.34326E+3   1.26933E+3
   1.36885E+3   3.51145E+3
   1.51508E+3  -1.72103E+3
   2.19894E+2   1.15377E+3
  -4.99829E+2  -1.56781E+1
   1.60472E+3   2.10564E+3
  -3.82295E+2   2.04900E+2
  -1.23594E+2   1.82477E+2
  -1.67647E+2  -7.90872E+2
   1.30074E+3  -1.00969E+3
   1.77753E+2   2.71958E+2
   1.25777E+3   8.79311E+1
  -7.73320E+1   3.88273E+2
   1.96667E+3  -2.62330E+2
   1.29254E+3   2.17096E+3
   6.48268E+1   1.45541E+3
   1.22921E+2   1.30512E+3
  -1.47824E+3  -9.74985E+2
   1.05685E+3  -7.75690E+2
  -5.48361E+2   7.28583E+2
  -1.18984E+3  -1.37811E+3
  -6.24843E+2  -7.75803E+2
   1.24893E+3  -6.24672E+2
  -3.04719E+0  -2.35583E+3
   1.25489E+3   1.06974E+3
   1.64595E+3   2.17740E+3
   9.39293E+2   1.70514E+2
   9.93710E+2   2.67752E+3
   2.54073E+2   3.12676E+3
  -1.07518E+3   1.79345E+3
  -5.94806E+2   2.43331E+2
  -4.59548E+2   6.05816E+2
  -4.58302E+2  -8.72830E+2
   2.90625E+2  -1.99854E+3
   1.17980E+3   1.16196E+2
   8.55587E+2  -1.81793E+3
   1.15441E+3   8.64199E+2
  -3.70536E+3  -1.95102E+2
  -1.55733E+3  -1.40962E+3
  -9.63457E+2  -1.30889E+3
   5.39779E+2  -9.46140E+2
  -4.16742E+1  -1.40255E+2
  -1.16237E+3  -5.98501E+2
   8.95775E+2  -1.08479E+3
   4.47897E+2   1.42969E+3
   2.95880E+2  -9.18562E+2
   8.93132E+2   1.77803E+3
  -1.32209E+2  -1.08672E+3
  -2.63469E+1   7.29097E+2
  -6.20913E+2   5.31646E+2
   9.64157E+2  -7.52649E+2
  -2.90730E+2  -1.21316E+3
  -1.74868E+3  -1.53560E+3
  -4.44409E+2  -6.69283E+2
  -5.48048E+2  -1.40157E+2
   4.15750E+2   8.74919E+2
   6.41327E+2   1.64143E+3
  -6.32167E+2  -2.43251E+2
  -1.39477E+3  -7.04041E+2
  -3.50985E+3   5.09833E+2
   9.22742E+2  -5.19946E+2
  -9.30635E+2  -3.03891E+2
   1.51624E+3  -1.05324E+3
   8.45477E+2   3.56561E+2
   1.18870E+3  -1.42121E+3
   1.48636E+3   1.26773E+3
  -3.95469E+2   2.32027E+3
   1.17062E+3  -1.13469E+2
  -1.41968E+3   4.78158E+2
   2.71868E+2  -9.47660E+2
  -1.42468E+3   5.40209E+2
  -8.50604E+2  -9.67686E+2
  -1.09685E+3   2.62521E+2
  -5.73074E+1  -7.60735E+2
   8.08285E+2  -1.06563E+3
  -9.23641E+2  -9.42228E+2
   1.50917E+3  -7.29901E+2
  -1.15513E+3   1.45617E+2
  -6.82616E+1  -1.62104E+3
   7.97849E+2  -7.63587E+2
  -1.32567E+1   1.30150E+3
   2.30354E+2  -6.69885E+2
   1.15850E+2  -7.74728E+2
  -4.16208E+2  -1.41476E+3
  -3.14711E+1   8.61050E+2
   2.30452E+1   7.90728E+2
  -1.10537E+3  -8.62534E+2
  -9.35329E+2  -1.83972E+3
   7.56200E+2  -6.54675E+2
  -7.04765E+2  -1.82269E+3
  -6.79013E+1  -2.63889E+3
  -8.45163E+2  -6.45769E+2
  -1.03200E+3   6.76506E+2
  -1.84270E+2   5.73923E+2
  -3.54061E+2  -3.92642E+2
  -1.43849E+3  -4.71674E+2
  -1.19053E+3  -6.96433E+2
   3.95678E+2  -1.02112E+3
   4.86044E+2  -2.44195E+2
   8.23084E+2  -2.18128E+3
  -2.74800E+2   4.73652E+2
   2.09275E+3   2.61668E+2
  -5.56208E+2   1.89278E+2
   6.21073E+2  -5.62868E+2
   1.96607E+3   1.23642E+3
  -2.43691E+3   6.30350E+2
  -2.47596E+2  -5.06507E+2
  -4.82817E+2  -1.83320E+2
  -3.97922E+2  -1.38632E+2
  -3.17306E+2   2.39233E+2
   2.81996E+2  -3.44303E+2
  -2.21670E+3  -8.36892E+2
   4.67821E+2   1.22425E+3
  -3.82993E+2   4.06473E+2
  -1.42575E+3  -6.12538E+2
   1.62273E+3   8.67306E+2
  -2.74638E+2  -8.61429E+2
  -1.13833E+2  -1.03683E+3
   4.49064E+1  -3.23539E+2
  -9.57930E+1  -8.35962E+2
   1.52352E+2  -1.96042E+3
  -7.43794E+2  -5.61049E+2
   7.54403E+2   2.29004E+3
  -2.93379E+2   3.23643E+2
   5.44849E+2   9.38897E+2
   9.77774E+2  -7.95199E+1
   1.96631E+3   7.07936E+2
  -9.42979E+2   1.99121E+2
   5.22337E+2  -4.17787E+1
  -2.14563E+3  -7.34626E+2
   5.71008E+2   1.15229E+3
   1.13677E+2  -8.98502E+1
   6.56806E+2  -7.45328E+1
  -2.71836E+1  -6.46457E+2
  -1.35227E+3  -3.06652E+2
  -2.00981E+3  -7.26411E+2
   9.16595E+1   1.26591E+3
   1.22032E+2  -1.22550E+3
  -1.47012E+3   2.04584E+2
   1.51685E+3  -3.43247E+2
  -1.28956E+3   4.15679E+2
   5.37273E+2  -3.85077E+2
  -6.96661E+2  -6.95720E+2
  -4.32507E+2  -5.94066E+2
   4.24310E+2  -4.57896E+2
   1.75496E+3   1.39698E+3
   2.66051E+2   1.19549E+3
  -4.56407E+2   8.52853E+1
   4.95124E+2  -4.07930E+2
   2.52040E+2  -1.54506E+3
   1.95192E+2  -1.23024E+3
   5.10963E+2   8.98596E+2
   6.52911E+2   5.07801E+2
  -1.12166E+2  -1.80910E+3
   9.09569E+2  -7.86866E+2
   2.41889E+3  -4.09934E+2
   1.67421E+3  -1.71893E+3
   4.34162E+2  -1.55019E+3
  -1.50436E+2  -1.38432E+3
   9.98537E+2   1.31880E+3
  -1.76703E+3   7.16179E+2
   4.43524E+2  -2.41929E+2
  -4.46692E+2  -5.35110E+2
  -5.31405E+2  -4.21152E+2
   2.50584E+3   1.87390E+3
  -3.78051E+2   1.64569E+3
   1.05628E+3   1.32981E+2
  -1.24861E+2   1.74686E+2
  -1.56998E+2   1.12981E+3
  -2.08698E+2   2.53756E+2
   1.36749E+3   2.49947E+3
  -1.25170E+3  -1.84642E+3
   2.34516E+3  -8.52168E+1
   1.08937E+2   3.60998E+1
  -7.50220E+2   8.13433E+1
   6.00843E+2   8.92819E+1
  -1.03263E+3   6.65370E+2
  -1.67413E+3   2.11688E+2
  -3.56890E+1   2.29180E+2
   7.98431E+2  -1.52631E+1
  -8.84481E+2   4.13231E+2
   1.33603E+3   1.49163E+3
  -1.12833E+3   1.81684E+3
  -9.13645E+2  -1.52527E+3
  -6.34571E+1  -5.50905E+2
   2.90789E+2  -4.49184E+2
   9.18831E+2  -4.68488E+2
  -3.05361E+3  -1.63895E+3
  -1.64738E+2  -8.69989E+2
   5.26412E+2  -1.47231E+2
  -7.60782E+2   9.66024E+2
  -1.91879E+3  -3.10052E+2
  -8.96020E+2   1.21311E+3
   1.70610E+3  -4.02275E+2
  -1.09673E+3   3.15958E+2
  -2.79818E+2   3.40068E+2
  -8.46746E+2   7.49454E+1
  -1.29441E+3  -2.96775E+2
   1.77026E+3   1.67744E+3
  -9.00560E+1   7.03991E+2
  -4.68572E+2   1.49084E+3
   4.88466E+2   2.12132E+3
  -1.22586E+3   8.75928E+1
  -1.24235E+3   3.71291E+2
  -3.50545E+2  -3.17350E+2
  -1.15203E+3   1.27515E+3
   9.72978E+2   5.82050E+2
  -8.10453E+2  -4.31684E+2
   1.49785E+3  -1.10375E+2
   8.30625E+2   1.73253E+1
  -1.26917E+3   1.02457E+3
  -1.58929E+3  -7.32827E+2
  -1.44478E+3   7.21138E+2
   2.22212E+2  -7.87538E+2
  -1.37752E+3  -2.65621E+2
  -5.23355E+2   1.36781E+3
  -1.17743E+3  -1.85644E+3
   9.68332E+1   1.87536E+1
  -1.18192E+3   1.76681E+3
  -6.44326E+1  -3.84858E+1
  -1.44906E+3   9.99069E+2
  -1.48244E+3   3.87875E+2
  -1.71463E+3  -6.90422E+2
   9.44557E+2   5.65519E+2
  -2.08853E+3  -1.48885E+3
  -4.52873E+2   5.15811E+2
  -8.01113E+2  -1.23694E+2
  -6.03848E+2  -7.34697E+2
  -9.39549E+1  -4.98103E+2
   3.63535E+2   1.47584E+3
  -5.85169E+2   1.58983E+3
   1.03386E+3   2.26344E+3
  -2.30101E+3   1.13607E+3
   9.92653E+2   4.76210E+1
  -6.88733E+2  -1.40586E+3
   9.95090E+2   9.56296E+2
  -8.99781E+2  -2.43625E+3
   2.27466E+2   1.32116E+3
  -4.14383E+2   2.20344E+2
   2.73975E+2  -5.88914E+1
