 
 $NMID
 ID=''
 FMTDAT='(2E13.5)'
 TRAMP=   1.00000E+0
 VOLUME=   1.00000E+0
 $END
   5.94935E+2  -4.37010E+2
  -7.67259E+2   2.26736E+3
  -2.30843E+2  -5.89921E+3
  -3.63496E+3   3.01322E+3
  -2.25161E+3   2.83443E+3
   1.88481E+3   4.04094E+3
   1.07540E+3   6.22991E+3
   2.03200E+3   3.85893E+3
   3.97903E+3  -9.78557E+2
   2.10465E+3   8.70106E+2
   6.60469E+3  -2.76874E+3
   6.83591E+3  -1.09632E+3
   3.75729E+2   2.09183E+3
  -2.72183E+3  -1.47532E+3
  -1.84345E+3  -3.10763E+3
   1.12722E+3  -1.38396E+3
   8.52484E+2   7.75568E+2
  -4.97846E+2   1.90339E+3
  -1.97248E+3  -2.01937E+3
  -9.26793E+2  -9.40059E+2
   1.33142E+3   1.81599E+2
  -3.50348E+2   2.91017E+3
  -4.73298E+3   2.53311E+3
  -3.41599E+3  -1.56116E+3
   4.82325E+2  -1.25886E+3
  -1.80814E+3   2.25801E+3
  -5.80733E+3   2.26515E+3
  -8.88914E+2  -2.09690E+3
  -1.37299E+3  -1.74474E+3
   5.27183E+3  -3.74213E+1
   4.19238E+3   5.22546E+3
  -6.75526E+3   4.38665E+3
  -4.62753E+3  -1.72674E+3
   2.78655E+2  -3.14346E+3
   3.70477E+2  -7.24902E+1
   5.42965E+2  -4.81985E+3
   6.78509E+3  -4.88612E+3
   5.53037E+3  -3.49849E+2
   1.09880E+2   1.85351E+3
   7.05538E+2   8.45816E+1
  -4.30777E+2  -3.21745E+2
  -5.16718E+3  -3.12736E+3
  -8.72629E+2  -7.45355E+3
   4.79171E+3  -4.70568E+3
   4.36770E+3   1.28959E+3
   1.73292E+3  -2.97072E+2
   2.26168E+3   1.68102E+3
   1.55591E+3   2.49184E+3
  -7.16159E+2   2.17979E+3
   3.31617E+2  -1.38657E+3
  -1.59533E+3  -4.13096E+3
   3.09060E+3  -2.86360E+3
   5.26029E+3  -2.34537E+2
   3.04443E+3   3.91297E+3
  -4.42359E+2   4.19991E+3
  -6.60536E+2   3.67974E+3
  -4.85708E+3  -1.05078E+3
  -6.28326E+3  -3.31980E+3
  -2.53231E+3  -6.40303E+3
   2.64922E+3  -3.38096E+3
   4.51567E+3  -4.31526E+2
   1.94000E+3   2.68819E+3
  -3.84835E+2  -1.04346E+2
  -1.19605E+3  -1.63790E+3
   1.53987E+3  -2.06561E+3
   8.29988E+2   1.69417E+3
  -2.59997E+2   1.88867E+3
  -2.34815E+3  -1.89235E+3
  -1.15642E+3  -1.65352E+3
   7.82547E+2   7.73089E+2
  -9.92765E+2   2.98676E+3
   1.00848E+2   2.23386E+2
  -1.53026E+2  -4.69231E+2
  -1.20036E+2  -1.02636E+2
   1.09913E+3   1.93752E+3
  -1.29813E+3   1.54453E+3
  -2.83097E+3  -5.15797E+2
   1.53490E+3  -3.32973E+3
   1.70842E+3   8.99382E+2
  -3.45167E+2   3.96651E+3
  -3.53145E+3  -1.52890E+3
  -1.07143E+3  -1.75196E+3
  -1.25785E+3  -9.70922E+2
  -1.94307E+3   2.47471E+3
  -4.44394E+3  -5.52816E+1
  -2.46212E+3  -1.28791E+3
   3.21833E+3  -2.13712E+3
   2.63672E+3   7.13343E+2
   4.99166E+2   1.74254E+3
  -1.06741E+3   3.00387E+2
   6.70449E+2  -7.88312E+2
   4.04897E+2   5.70490E+2
  -1.91889E+3   2.85172E+3
  -3.86754E+3   2.00435E+2
  -1.87802E+3  -3.35142E+3
   1.95092E+3  -3.22464E+3
   1.21679E+3   1.14994E+3
   6.21759E+2   2.73715E+3
  -1.87019E+3   1.36674E+3
  -2.40462E+3  -3.72669E+3
   3.91573E+3  -1.53172E+3
   2.13820E+3   2.89074E+3
   1.64822E+2   4.71083E+3
  -3.46137E+3   8.78865E+2
  -6.79011E+2  -5.76184E+2
  -7.36030E+2  -8.05886E+2
   4.43236E+2   5.54364E+2
  -1.98567E+3   7.52634E+2
   1.67205E+3  -2.56059E+3
   3.51601E+3  -3.06325E+2
   4.02000E+3   1.56378E+3
   1.45683E+3   4.60090E+3
  -1.34059E+3   4.92654E+3
  -2.61802E+3   1.89808E+3
  -2.57350E+3   1.74504E+2
   1.03356E+3  -6.34107E+2
   2.16503E+2   5.96176E+2
   1.67992E+2   1.29170E+3
   1.17023E+3   3.83517E+2
  -1.44981E+3   8.46103E+2
  -9.12865E+2   1.30695E+3
  -2.29302E+3  -2.80640E+3
   7.35737E+2  -2.84658E+3
   1.96215E+3   3.35817E+2
  -1.62520E+3   1.21596E+3
   5.85160E+2  -8.00760E+2
   2.23830E+3   1.34566E+1
   8.17796E+2   7.91842E+2
   2.50584E+2   6.46374E+2
   1.92705E+3   1.14500E+2
   1.10617E+3  -1.86119E+3
   7.20112E+2   1.00354E+3
   2.02142E+3   2.74342E+3
  -6.56885E+2   1.39880E+3
  -3.39085E+3  -7.02067E+2
   1.60510E+3  -1.92538E+3
   2.16383E+2  -1.97281E+3
   2.84404E+3  -4.70436E+2
   1.60659E+3   5.47845E+2
   2.86119E+2   1.70192E+3
  -1.07796E+3   1.97186E+3
   1.28987E+3  -8.02922E+1
  -8.20513E+2   7.74240E+2
  -4.29011E+2   1.00183E+3
   9.41580E+1  -1.31861E+3
  -2.09379E+2   1.03601E+3
   3.18868E+2  -6.74464E+2
  -6.07261E+2  -1.55807E+2
  -7.63718E+2   9.33427E+1
  -1.17884E+3   2.02258E+2
  -1.97938E+3  -7.22329E+2
  -2.54833E+1  -2.45754E+3
   1.75238E+3  -2.11296E+3
   1.56389E+3   2.68364E+2
   5.85781E+1   1.34597E+3
  -9.98908E+0   9.31953E+2
  -1.55539E+2  -3.64663E+2
  -2.65471E+3  -2.03973E+3
  -1.64788E+3  -2.15727E+2
  -2.65750E+3  -5.77065E+2
  -1.63780E+3  -2.31638E+2
   8.01533E+2  -6.08868E+2
   4.13750E+2  -1.69454E+3
  -8.68406E+2   2.59901E+2
   1.43861E+2  -6.26474E+2
  -6.38812E+1  -7.73771E+2
   1.77810E+3   4.69421E+2
   2.52176E+3   1.92047E+3
  -1.29294E+3   9.09380E+2
  -1.00714E+3  -7.63372E+2
   7.60795E+2  -3.32336E+2
  -1.13867E+3  -1.23225E+3
   4.43709E+2   8.24332E+2
   1.40083E+2   1.50875E+2
   2.62308E+2   6.16700E+2
  -3.99665E+2   1.88060E+2
  -9.85889E+1   2.68353E+2
  -3.70026E+2  -9.78545E+2
  -2.73701E+3  -8.76618E+2
  -8.44203E+2  -6.73130E+2
   1.19532E+3  -2.16251E+3
   1.31427E+3   5.22319E+2
   8.16970E+2   6.18538E+2
   2.09288E+2  -1.28176E+3
  -7.51924E+2  -4.20024E+2
  -7.42288E+2   2.16336E+2
  -8.19261E+2  -1.21215E+3
   3.13235E+2  -4.09379E+3
   2.47238E+3  -2.15149E+3
   4.06155E+2   2.64377E+2
   7.96987E+2   1.39703E+3
   8.12716E+2  -3.36459E+2
  -1.28941E+3   1.96628E+3
   7.98441E+2  -7.54661E+2
   3.88385E+2   1.13747E+2
  -1.22957E+3  -6.07424E+1
  -1.47654E+3   6.75219E+2
   7.35621E+2  -6.53470E+2
  -5.56649E+2   3.10131E+3
  -2.49158E+3  -4.83709E+2
  -1.51346E+3  -5.37453E+2
   1.01554E+3  -1.17418E+3
   2.61586E+3  -2.38941E+2
   2.72541E+3   3.65286E+2
   6.92679E+2   1.09605E+3
  -8.91204E+2  -2.47100E+2
  -1.35412E+3  -7.05019E+2
  -1.32540E+3  -1.45782E+3
  -3.06498E+3   1.69616E+3
  -7.36316E+2  -8.51712E+2
  -1.60941E+3  -1.66096E+2
   2.77539E+3   1.09284E+2
   1.98691E+3   2.86412E+3
  -1.87021E+3   7.58058E+2
  -2.46804E+3   5.58854E+2
   1.61014E+2   4.03390E+2
  -2.08055E+2  -3.28802E+2
  -6.28043E+2  -1.57772E+3
   1.20457E+3  -2.35415E+1
   2.48637E+2   5.03555E+2
   3.28355E+2   2.67396E+2
  -1.39216E+3   2.95655E+2
   8.61951E+2   2.73148E+2
   8.33093E+2  -4.77181E+2
  -1.13256E+3  -5.32948E+2
  -1.01065E+3  -2.91287E+2
  -5.66427E+2   2.14427E+3
  -1.68073E+3  -7.54137E+2
  -5.67249E+2  -4.97807E+2
   1.71425E+3   1.96312E+2
  -1.16538E+2   3.89987E+2
  -2.46588E+3  -8.40719E+2
   2.39597E+2  -1.55481E+3
   1.78275E+3  -3.47751E+2
  -7.39172E+2   1.42831E+3
   1.13785E+2   3.22617E+2
  -1.08454E+2  -2.36083E+3
   1.03416E+3  -1.68545E+3
   1.71880E+3  -3.55131E+2
  -2.13965E+3   1.74379E+3
  -9.10653E+2   1.99650E+3
  -1.58317E+2   3.28915E+2
  -4.29040E+2  -7.68593E+2
  -1.01948E+3  -5.00018E+2
  -1.43893E+2   1.86399E+3
   1.05889E+2   4.39977E+2
   1.90490E+3   3.63090E+2
   1.94464E+3   7.28446E+2
  -1.41623E+3  -1.19784E+3
  -6.48060E+2  -1.41529E+3
  -9.80810E+2  -1.38323E+3
  -1.09374E+2  -2.83569E+3
  -1.76810E+1   1.66873E+1
   1.22867E+3  -9.24774E+2
   2.86213E+2  -2.32362E+2
  -3.33910E+2   1.01636E+3
  -6.17879E+2   4.72646E+2
  -5.72318E+2   1.63350E+3
   1.56191E+2  -5.01263E+2
  -3.42126E+2  -2.08516E+3
   6.96615E+2   2.03213E+3
   4.71988E+2   6.72284E+2
  -1.56456E+3   1.00059E+3
  -6.73877E+2   5.38021E+2
   1.21433E+3  -4.07854E+2
   5.25005E+2  -8.47275E+2
  -1.21575E+3  -8.83521E+2
   1.31714E+1  -2.16596E+2
   9.09729E+2   1.39610E+3
   1.13681E+3   1.56522E+3
  -1.33415E+3   1.07543E+3
  -1.90616E+3  -1.04529E+3
  -1.08709E+3  -8.57794E+2
  -7.04771E+2  -9.86757E+2
  -1.71775E+3  -1.21896E+3
   9.01020E+2   2.09600E+2
   5.02373E+2   1.01921E+3
  -1.84749E+3   6.91733E+2
   6.37084E+2  -8.13654E+2
   7.49572E+2  -5.95018E+2
  -9.06925E+2  -4.94579E+2
  -4.78801E+2   1.24448E+3
  -7.83739E+2  -3.69974E+2
   1.59286E+3   1.15644E+3
   1.68836E+3  -3.28207E+2
  -8.67278E+2   4.52578E+2
   1.42213E+3  -1.56322E+3
  -6.47458E+2   1.14193E+3
  -5.32391E+2   6.37705E+2
   1.26007E+2   4.33049E+1
  -2.54005E+2  -6.86837E+2
   8.01469E+2   4.38793E+2
  -4.12654E+2  -4.91373E+2
  -2.87576E+2   5.57679E+2
   1.59072E+3  -6.18846E+2
  -3.32564E+1  -3.79922E+2
   5.33388E+2   1.37535E+3
   9.76794E+1   4.88306E+2
   6.62198E+2   1.63290E+3
  -4.16223E+2  -3.46870E+3
   1.69247E+3   1.52774E+3
  -3.17570E+2   1.07887E+3
   1.09912E+3  -1.03172E+3
   1.16576E+1  -5.96128E+2
   1.56138E+3  -7.03742E+2
   2.20680E+3   1.16106E+3
  -1.16522E+3   3.09444E+2
  -1.61903E+3   1.07785E+2
  -8.56759E+2  -6.90430E+2
   2.43912E+3   4.66386E+2
  -8.47767E+1   1.20280E+3
   1.07710E+3   1.84663E+2
  -2.50585E+2   1.01835E+3
  -1.16560E+3  -4.06356E+1
  -1.07908E+3   9.89723E+2
  -1.69769E+3  -3.99751E+1
   9.66402E+2  -1.77112E+3
   9.03643E+2  -7.77654E+1
  -2.13811E+1   8.19464E+1
   1.14706E+3   8.09058E+2
   7.33771E+2   7.18799E+2
   1.77337E+3  -1.54859E+3
   6.01907E+2   7.39707E+2
   1.25643E+3   1.19526E+3
  -1.09531E+2   1.73121E+3
  -1.20063E+3  -1.21747E+2
  -9.56371E+1  -1.21304E+3
   8.74219E+2   1.89733E+3
   1.32621E+2   1.39582E+3
  -4.13114E+2   1.72941E+2
   2.26010E+3   1.17111E+3
  -1.67192E+3  -9.05702E+2
   2.24253E+3   1.17590E+3
   1.20070E+3   8.37568E+1
   5.91202E+2  -1.34046E+2
  -4.42583E+0  -6.03378E+2
   1.43346E+3   1.62764E+3
  -8.38749E+1   1.30609E+2
  -8.85681E+2   9.87839E+2
  -5.61197E+2  -9.43772E+2
   9.42130E+2   2.40841E+2
   1.12859E+3   8.11427E+2
  -7.41050E+2  -3.69262E+2
  -1.84284E+3  -1.20296E+1
  -1.25892E+3  -7.62555E+1
  -8.51800E+2   3.42879E+2
   1.04180E+2   6.38205E+2
  -1.26814E+3   1.42780E+3
  -4.60821E+2  -7.89559E+2
  -5.89017E+1   3.57162E+2
   7.70731E+2   5.85085E+2
   3.64630E+2   8.38865E+1
  -6.22900E+2  -1.82428E+3
  -1.90269E+3   9.16933E+2
   2.43752E+2  -5.31486E+2
   1.83856E+3   2.02554E+3
  -7.53788E+2   3.73456E+2
  -1.39237E+2   4.03801E+1
   4.10427E+2  -1.45618E+3
  -2.14441E+3   6.26319E+2
   5.72392E+2   2.61926E+2
   9.85424E+2   1.35370E+3
  -1.28216E+3   2.30335E+3
   4.87345E+1   2.07713E+1
   1.96611E+3   5.67028E+2
   3.17834E+1  -1.12260E+3
   1.43007E+3  -2.33064E+2
