 LCModel (Version 6.3-1N) Copyright: S.W. Provencher.          Ref.: Magn. Reson. Med. 30:672-679 (1993).                
 Slice_N1@24_18  02-Jun-2023 14:37:58
 27 lines in following concentration table = NCONC+1
    Conc.  %SD /Cr+PCr  Metabolite                                         
 1.51E-06  23% 3.0E-04 Mac                                                 
 4.10E-02  19%   8.000 Cr                                                  
    0.000 999%   0.000 PCr                                                 
 9.01E-02  15%  17.595 Ins                                                 
 6.57E-02  15%  12.836 NAA                                                 
 7.34E-02  17%  14.336 Tau                                                 
 1.50E-02  20%   2.922 PCho                                                
    0.000 999%   0.000 GPC                                                 
 9.06E-02  14%  17.697 Glu                                                 
 3.67E-02  23%   7.168 Gln                                                 
    0.000 999%   0.000 Ala                                                 
    0.000 999%   0.000 Asc                                                 
 5.57E-03  66%   1.087 Asp                                                 
 2.17E-03 100%   0.425 GABA                                                
 3.96E-03  56%   0.773 Glc                                                 
 1.23E-02  37%   2.405 GSH                                                 
    0.000 999%   0.000 Lac                                                 
 1.05E-02  73%   2.055 NAAG                                                
    0.000 999%   0.000 PE                                                  
 1.50E-02  20%   2.922 GPC+PCho                                            
 7.62E-02  12%  14.891 NAA+NAAG                                            
    0.127  12%  24.865 Glu+Gln                                             
 4.10E-02  19%   8.000 Cr+PCr                                              
 7.62E-02  12%  14.891 NAA+NAAG                                            
 4.10E-02  19%   8.000 Cr+PCr                                              
    0.127  12%  24.865 Glu+Gln                                             
   6 lines in following misc. output table
  FWHM = 0.058 ppm    S/N =   2                                            
  Data shift = 0.006 ppm                                                   
  Ph:  59 deg      11.3 deg/ppm                                            
  alphaB,S = 3.1E+01,   3.8E+01                                            
   18 spline knots.   Ns = 7(2)                                            
   2 inflections.     1 extrema                                            
  654 points on ppm-axis = NY
      4.000000     3.994181     3.988363     3.982544     3.976726     3.970907     3.965088     3.959270     3.953451     3.947633
      3.941814     3.935995     3.930177     3.924358     3.918540     3.912721     3.906902     3.901084     3.895265     3.889446
      3.883628     3.877809     3.871991     3.866172     3.860353     3.854535     3.848716     3.842898     3.837079     3.831260
      3.825442     3.819623     3.813805     3.807986     3.802167     3.796349     3.790530     3.784712     3.778893     3.773074
      3.767256     3.761437     3.755619     3.749800     3.743981     3.738163     3.732344     3.726526     3.720707     3.714888
      3.709070     3.703251     3.697433     3.691614     3.685795     3.679977     3.674158     3.668339     3.662521     3.656702
      3.650884     3.645065     3.639246     3.633428     3.627609     3.621791     3.615972     3.610153     3.604335     3.598516
      3.592698     3.586879     3.581060     3.575242     3.569423     3.563605     3.557786     3.551967     3.546149     3.540330
      3.534512     3.528693     3.522874     3.517056     3.511237     3.505419     3.499600     3.493781     3.487963     3.482144
      3.476326     3.470507     3.464688     3.458870     3.453051     3.447232     3.441414     3.435595     3.429777     3.423958
      3.418139     3.412321     3.406502     3.400684     3.394865     3.389046     3.383228     3.377409     3.371591     3.365772
      3.359953     3.354135     3.348316     3.342498     3.336679     3.330860     3.325042     3.319223     3.313405     3.307586
      3.301767     3.295949     3.290130     3.284312     3.278493     3.272674     3.266856     3.261037     3.255219     3.249400
      3.243581     3.237763     3.231944     3.226125     3.220307     3.214488     3.208670     3.202851     3.197032     3.191214
      3.185395     3.179577     3.173758     3.167939     3.162121     3.156302     3.150484     3.144665     3.138846     3.133028
      3.127209     3.121391     3.115572     3.109753     3.103935     3.098116     3.092298     3.086479     3.080660     3.074842
      3.069023     3.063205     3.057386     3.051567     3.045749     3.039930     3.034111     3.028293     3.022474     3.016656
      3.010837     3.005018     2.999200     2.993381     2.987563     2.981744     2.975925     2.970107     2.964288     2.958470
      2.952651     2.946832     2.941014     2.935195     2.929377     2.923558     2.917739     2.911921     2.906102     2.900284
      2.894465     2.888646     2.882828     2.877009     2.871191     2.865372     2.859553     2.853735     2.847916     2.842098
      2.836279     2.830460     2.824642     2.818823     2.813004     2.807186     2.801367     2.795549     2.789730     2.783911
      2.778093     2.772274     2.766456     2.760637     2.754818     2.749000     2.743181     2.737363     2.731544     2.725725
      2.719907     2.714088     2.708270     2.702451     2.696632     2.690814     2.684995     2.679177     2.673358     2.667539
      2.661721     2.655902     2.650084     2.644265     2.638446     2.632628     2.626809     2.620991     2.615172     2.609353
      2.603535     2.597716     2.591897     2.586079     2.580260     2.574442     2.568623     2.562804     2.556986     2.551167
      2.545349     2.539530     2.533711     2.527893     2.522074     2.516256     2.510437     2.504618     2.498800     2.492981
      2.487163     2.481344     2.475525     2.469707     2.463888     2.458070     2.452251     2.446432     2.440614     2.434795
      2.428977     2.423158     2.417339     2.411521     2.405702     2.399884     2.394065     2.388246     2.382428     2.376609
      2.370790     2.364972     2.359153     2.353335     2.347516     2.341697     2.335879     2.330060     2.324242     2.318423
      2.312604     2.306786     2.300967     2.295149     2.289330     2.283511     2.277693     2.271874     2.266056     2.260237
      2.254418     2.248600     2.242781     2.236963     2.231144     2.225325     2.219507     2.213688     2.207870     2.202051
      2.196232     2.190414     2.184595     2.178777     2.172958     2.167139     2.161321     2.155502     2.149683     2.143865
      2.138046     2.132228     2.126409     2.120590     2.114772     2.108953     2.103135     2.097316     2.091497     2.085679
      2.079860     2.074042     2.068223     2.062404     2.056586     2.050767     2.044949     2.039130     2.033311     2.027493
      2.021674     2.015856     2.010037     2.004218     1.998400     1.992581     1.986763     1.980944     1.975126     1.969307
      1.963489     1.957670     1.951852     1.946033     1.940215     1.934397     1.928578     1.922760     1.916941     1.911123
      1.905304     1.899486     1.893667     1.887849     1.882030     1.876212     1.870393     1.864575     1.858756     1.852938
      1.847119     1.841301     1.835482     1.829664     1.823845     1.818027     1.812208     1.806390     1.800571     1.794753
      1.788934     1.783116     1.777297     1.771479     1.765660     1.759842     1.754023     1.748205     1.742386     1.736568
      1.730749     1.724931     1.719113     1.713294     1.707476     1.701657     1.695839     1.690020     1.684202     1.678383
      1.672565     1.666746     1.660928     1.655109     1.649291     1.643472     1.637654     1.631835     1.626017     1.620198
      1.614380     1.608561     1.602743     1.596924     1.591106     1.585287     1.579469     1.573650     1.567832     1.562013
      1.556195     1.550376     1.544558     1.538739     1.532921     1.527102     1.521284     1.515465     1.509647     1.503829
      1.498010     1.492192     1.486373     1.480555     1.474736     1.468918     1.463099     1.457281     1.451462     1.445644
      1.439825     1.434007     1.428188     1.422370     1.416551     1.410733     1.404914     1.399096     1.393277     1.387459
      1.381640     1.375822     1.370003     1.364185     1.358366     1.352548     1.346729     1.340911     1.335092     1.329274
      1.323455     1.317637     1.311818     1.306000     1.300182     1.294363     1.288545     1.282726     1.276908     1.271089
      1.265271     1.259452     1.253634     1.247815     1.241997     1.236178     1.230360     1.224541     1.218723     1.212904
      1.207086     1.201267     1.195449     1.189630     1.183812     1.177993     1.172175     1.166356     1.160538     1.154719
      1.148901     1.143082     1.137264     1.131445     1.125627     1.119808     1.113990     1.108171     1.102353     1.096534
      1.090716     1.084898     1.079079     1.073261     1.067442     1.061624     1.055805     1.049987     1.044168     1.038350
      1.032531     1.026713     1.020894     1.015076     1.009257     1.003439     0.997620     0.991802     0.985983     0.980165
      0.974346     0.968528     0.962709     0.956891     0.951072     0.945254     0.939435     0.933617     0.927798     0.921980
      0.916161     0.910343     0.904524     0.898706     0.892887     0.887069     0.881251     0.875432     0.869614     0.863795
      0.857977     0.852158     0.846340     0.840521     0.834703     0.828884     0.823066     0.817247     0.811429     0.805610
      0.799792     0.793973     0.788155     0.782336     0.776518     0.770699     0.764881     0.759062     0.753244     0.747425
      0.741607     0.735788     0.729970     0.724151     0.718333     0.712514     0.706696     0.700877     0.695059     0.689240
      0.683422     0.677603     0.671785     0.665967     0.660148     0.654330     0.648511     0.642693     0.636874     0.631056
      0.625237     0.619419     0.613600     0.607782     0.601963     0.596145     0.590326     0.584508     0.578689     0.572871
      0.567052     0.561234     0.555415     0.549597     0.543778     0.537960     0.532141     0.526323     0.520504     0.514686
      0.508867     0.503049     0.497230     0.491412     0.485593     0.479775     0.473956     0.468138     0.462319     0.456501
      0.450682     0.444864     0.439045     0.433227     0.427408     0.421590     0.415771     0.409953     0.404134     0.398316
      0.392497     0.386679     0.380860     0.375042     0.369223     0.363405     0.357586     0.351767     0.345949     0.340130
      0.334312     0.328493     0.322675     0.316856     0.311038     0.305219     0.299401     0.293582     0.287764     0.281945
      0.276127     0.270308     0.264490     0.258671     0.252853     0.247034     0.241216     0.235397     0.229579     0.223760
      0.217942     0.212123     0.206305     0.200486
 NY phased data points follow
  -2.75391E-01 -2.06897E-01  2.50924E-01 -3.68966E-02  4.25556E-02 -1.95108E-01  4.77845E-02 -1.18699E-01 -2.78356E-01  1.05241E-01
   1.35422E-01  5.55333E-03  9.36421E-02  2.04530E-01 -1.84431E-01  4.51277E-02  1.53303E-01  3.74556E-01  3.50697E-01  1.01694E-01
  -1.64064E-01 -1.72467E-01  1.83240E-01 -3.09562E-01  1.87646E-01  3.09575E-03 -2.91117E-01 -1.20417E-02  2.14201E-02  2.92282E-02
  -4.16422E-01 -4.87849E-02 -2.86027E-01 -3.40019E-01 -4.41027E-01 -3.77442E-01  7.15023E-02 -8.30970E-02  3.71004E-01  2.56922E-01
   1.72647E-01  3.23239E-01  4.09703E-01  3.54804E-01  3.83115E-01  4.21820E-01  5.68998E-02  2.70554E-01  1.84532E-01  2.19584E-01
   6.71060E-02  6.44548E-02  1.83851E-01 -1.67200E-01 -2.00126E-01 -4.25521E-01 -2.39500E-01 -2.60229E-01 -1.51013E-01 -2.95272E-01
  -4.25779E-01  3.51389E-02 -1.04352E-01 -1.52395E-01 -2.42739E-01 -2.80687E-01 -2.53441E-01  1.88030E-01  2.90979E-01  1.40767E-01
   1.82801E-03 -1.45678E-01  3.17290E-01  1.29909E-01  2.85895E-02 -2.05569E-01 -1.32081E-01  9.50812E-02 -3.77808E-02  8.95523E-02
  -2.39568E-01  8.95962E-02  1.57357E-02 -1.24740E-01  1.67751E-01 -4.16025E-02  1.34649E-01  2.08401E-01  1.37610E-01 -1.84145E-01
  -1.27860E-01  1.30114E-01 -1.09692E-01 -8.33498E-02  2.04384E-01 -3.75361E-02 -1.90327E-01  7.53447E-02  3.37455E-02  6.02015E-02
  -3.77317E-02  2.34407E-01  2.40715E-02 -5.78005E-02  6.99253E-02 -7.43990E-02  5.16782E-01  4.25965E-01  3.22634E-01  3.54721E-01
   2.34487E-01  2.65676E-01  4.45341E-01  5.90858E-01  6.41551E-01  4.61995E-01  2.47259E-01  4.19916E-01  4.25217E-01  1.79260E-01
   1.75939E-02  2.42998E-01 -7.37653E-02 -5.15705E-02 -7.74299E-02 -3.86826E-01 -2.74671E-01 -3.09351E-01 -2.50234E-01 -3.73368E-01
  -4.85143E-01 -5.00778E-01 -4.30249E-01 -4.76614E-01 -5.28356E-01 -2.64633E-01 -3.88917E-02 -6.11411E-01 -8.24212E-01 -5.44158E-01
  -2.76575E-01  1.70870E-02 -2.51745E-01 -1.99236E-01  4.59271E-02  1.61706E-01 -3.60353E-02  2.19188E-02  1.92882E-01 -1.32464E-01
  -1.27300E-02  2.65442E-01  1.22306E-01  4.03741E-01  2.68732E-01  1.50888E-01  1.33451E-01 -1.06330E-02  6.26549E-01  1.31413E-01
   3.08500E-01  4.92997E-01  3.68320E-02  2.63869E-01  1.66142E-01  7.20013E-02 -1.77085E-01 -1.15954E-01 -3.90483E-01 -4.25144E-01
  -1.46376E-01 -2.55364E-01 -4.80699E-01 -5.84256E-01 -3.93322E-02  5.24412E-02 -5.22522E-01 -4.94941E-01 -2.79793E-01 -3.24166E-01
  -4.14154E-01 -3.36656E-01 -4.04684E-02 -2.76734E-01 -1.07905E-01 -6.83078E-02 -8.70464E-02  8.05153E-02 -8.57102E-02 -8.45420E-03
  -2.65425E-01 -2.49664E-02  1.32050E-01 -2.06328E-01 -3.14633E-01 -1.02101E-01  6.86213E-02 -1.97975E-01 -8.74102E-02  4.11652E-02
   2.18533E-02 -9.62507E-02  1.71956E-02  3.33729E-02 -2.30205E-01  3.48717E-02 -2.07471E-02  1.55190E-01  3.58109E-01  1.97314E-01
   2.42251E-01  1.54205E-01  2.00618E-01  5.91550E-02 -2.26114E-02  7.49403E-02  4.82795E-02  1.45479E-01  3.38039E-01 -5.36245E-02
  -3.88491E-02  2.85982E-01  3.59085E-02  3.83511E-01  1.18607E-01 -1.98347E-01  9.89348E-02  1.56594E-01  3.66216E-01  2.21823E-01
   1.29773E-01  1.90952E-01 -5.37978E-02 -2.08986E-01  4.56336E-03  1.82108E-01 -4.45904E-02 -1.04401E-01  1.26304E-01  1.55922E-01
  -1.78196E-01 -3.91126E-01 -1.73867E-02  1.17012E-01 -1.75489E-01 -2.18196E-01  6.47096E-03  9.44205E-02 -5.73873E-02 -6.73576E-02
  -3.04920E-02 -1.04632E-01 -1.54456E-02  3.43345E-01  1.98360E-01 -1.43676E-01  8.65743E-02 -5.93213E-02 -7.07057E-02  7.10796E-02
   3.99490E-03  2.48824E-01  1.11219E-01  9.55599E-02 -1.79264E-01 -2.57593E-01  2.60217E-01  2.72356E-01  2.33088E-01  2.07165E-01
   2.18537E-01 -4.79890E-02 -1.22749E-01  2.81889E-01  1.37841E-01 -1.99454E-01 -1.05769E-01 -1.43717E-01 -1.19971E-01 -1.43262E-01
  -1.48204E-01 -5.22830E-02  1.19494E-01  3.66770E-01  2.31302E-01  2.87593E-01  2.47656E-01  5.14113E-01  4.56871E-01  2.64781E-01
   3.67475E-01  3.57012E-01  4.54430E-01  4.22592E-01  2.04530E-01  1.55446E-01  3.34044E-01  1.05388E-01  3.13243E-01  2.64361E-02
   2.84292E-01  3.71455E-01  9.97462E-02  1.90224E-01 -1.09100E-01  2.49954E-01  6.79760E-02 -2.96436E-02 -2.88094E-02  2.75451E-01
   3.06654E-01  3.65846E-01  1.71629E-01 -8.63445E-02  7.67034E-02 -2.17266E-01 -1.08008E-01 -2.41570E-01 -1.17571E-01 -4.80081E-01
  -4.92023E-01 -2.90231E-01 -3.60806E-01 -2.63643E-01 -1.55211E-01 -1.72021E-01 -2.60305E-01 -1.24865E-01 -1.52291E-01 -2.55420E-02
  -2.92136E-01 -1.13496E-01 -4.08131E-01 -5.43580E-01 -3.89531E-01 -3.13754E-01 -3.11128E-01 -7.90056E-01 -5.80945E-01 -5.93758E-01
  -6.57857E-01 -4.35412E-01 -5.01719E-01 -6.15618E-01  3.99741E-02 -3.77574E-02 -4.93472E-01 -4.42986E-01 -1.38562E-01 -1.76300E-01
  -1.35990E-01  1.99644E-01 -1.54358E-01  6.91323E-02 -1.51142E-03  1.46949E-01  8.47120E-02 -2.60517E-02 -6.20038E-02  3.54470E-02
   6.20693E-01  2.04941E-01  2.66138E-01  3.10037E-01  2.02655E-01  2.56574E-03  1.33799E-01  3.25023E-01 -2.96138E-01  1.20045E-02
   2.90796E-01  1.18140E-01  2.53295E-01  1.03080E-02  1.30986E-01  3.36398E-01  9.27202E-02  2.97215E-01  2.84638E-02  2.19151E-02
   1.08982E-01 -1.60991E-01  2.28100E-01  2.93293E-01  2.61153E-01 -2.73313E-01 -3.77346E-02  7.47995E-01  3.72771E-01  1.83928E-01
   1.98478E-02  4.02930E-01  5.53236E-01  3.49658E-01  1.35793E-01 -2.26332E-02  1.54915E-01 -1.89415E-01  1.67670E-01  1.39291E-01
  -6.33241E-02  3.59326E-02 -2.38436E-02  1.65561E-01  1.57717E-02  1.76100E-01  7.51364E-03 -1.48398E-01  1.64334E-02 -1.93288E-01
  -1.93019E-01 -3.96225E-02  1.52723E-02 -4.85943E-03 -1.47741E-01 -2.22217E-01 -8.18900E-02 -1.04850E-01 -1.84306E-01 -1.68934E-01
  -2.31731E-01 -1.57895E-01 -7.83411E-04  1.16618E-01 -5.51077E-02 -2.22471E-01  3.41085E-02  3.34809E-02 -1.69979E-01  5.22578E-02
   2.07770E-01 -1.54866E-01 -3.22871E-01 -5.40839E-02  7.81772E-03 -8.52314E-02  1.57530E-01  3.39716E-02  2.71757E-01  4.80470E-01
   7.74741E-02  2.39458E-01  1.42601E-01  2.10819E-01 -5.40747E-02 -8.11782E-02  1.98613E-01  1.29074E-01  1.29720E-01 -4.43794E-02
   2.26355E-01  1.36378E-01  1.61730E-01  1.20020E-02 -1.17405E-01  3.68428E-02  2.29748E-02 -9.52640E-03  4.58079E-02 -8.51583E-02
  -7.54460E-02  2.10515E-01 -4.98464E-01 -6.76455E-02  2.25018E-02 -3.49137E-01 -5.05351E-02 -2.26921E-01 -3.90039E-01 -5.74031E-01
  -8.82159E-02 -1.86568E-01 -1.05987E-01  5.60290E-02  1.37570E-01 -1.29528E-02 -5.31140E-01  3.44307E-02  2.52758E-03 -5.51023E-03
  -2.26964E-03  6.53491E-04  8.01542E-02 -1.38318E-01  1.61221E-01 -1.89628E-01 -1.19062E-01  4.55677E-01  1.21767E-01 -1.92667E-02
   1.23091E-01  8.65111E-02  5.79306E-02 -5.51122E-02 -7.43743E-02  1.12971E-02  2.05906E-01  5.32829E-02 -7.63092E-02  2.71749E-01
   3.22989E-01  1.94100E-01  1.93789E-01  3.20720E-01  2.31522E-01  1.60430E-01  1.41051E-01  2.45712E-01 -6.98554E-02 -2.08657E-01
   1.65297E-01 -3.56562E-01 -2.21435E-01  2.93708E-02  8.63689E-03  1.89221E-01  2.01830E-01  2.36386E-01 -2.87796E-01 -2.80252E-01
  -1.22225E-01 -3.26826E-01 -1.10965E-01 -1.91256E-01 -3.73463E-01 -2.94277E-01 -3.16125E-01 -2.92165E-01 -4.76690E-01 -1.06235E-01
   1.66525E-01 -3.65870E-01 -4.17381E-01 -1.84182E-01 -1.40616E-01 -1.69987E-01 -5.81815E-02 -4.73798E-02 -3.47799E-02 -1.40675E-01
  -6.95903E-02  2.31994E-01  1.44677E-01  3.04925E-01  4.43176E-01  1.13654E-01  3.77629E-01  4.31392E-01 -1.40579E-01 -6.46902E-02
   4.61237E-02  1.94374E-01  2.43305E-01  3.10757E-02  1.09038E-01  6.12641E-02  3.35833E-02  3.05907E-01  1.10727E-01 -1.33052E-01
  -1.12655E-01  1.62660E-01  1.27258E-02 -3.33572E-01  1.52111E-01  2.48547E-02  1.93295E-01  3.67528E-02  5.42046E-02  3.99375E-01
   7.90528E-02  2.52805E-01 -2.12923E-02 -1.12253E-03  1.73237E-01  5.26596E-03 -6.17667E-02  1.87975E-01  2.54694E-02 -6.34980E-02
   2.76643E-01  1.29276E-01 -1.61564E-01  2.31218E-02  1.86515E-01 -1.19697E-01  2.20068E-02 -2.86832E-01  1.05424E-01  2.23199E-01
  -1.41562E-01  2.51629E-01 -1.01919E-01  1.66740E-02  7.08859E-02 -1.05565E-01  6.67535E-02 -8.18306E-02  1.87712E-02  2.88793E-01
   2.25837E-01 -7.66887E-02 -2.75560E-02  3.03311E-01  6.46039E-02  1.28747E-01  2.46822E-01 -4.44315E-02 -1.91201E-01 -1.94706E-01
   1.35312E-01  1.28422E-01  3.16037E-02  1.55086E-01  3.71464E-01  7.72262E-02 -2.65241E-01 -3.37822E-01 -4.45711E-01  1.68019E-01
   1.26188E-01 -2.92341E-01 -8.45938E-02 -1.05877E-01 -3.86890E-03  2.50539E-03  9.37733E-02  1.89652E-01  1.07370E-02  2.40288E-01
   2.16124E-01  1.15492E-02 -1.37108E-02  1.81589E-01  6.96330E-02 -1.75693E-02  1.79935E-02 -3.64468E-01  2.25577E-02  2.16469E-01
  -1.57980E-01  5.00345E-02  6.97878E-02 -1.80858E-02  1.73015E-01 -1.01557E-01  6.10982E-02  1.96977E-01 -1.25516E-01  1.41503E-01
  -1.63247E-01 -5.42514E-01  1.52534E-01  2.45737E-01
 NY points of the fit to the data follow
   3.69579E-02  2.46917E-02  1.79313E-02  1.57315E-02  1.80762E-02  3.02040E-02  4.83282E-02  7.27315E-02  1.04325E-01  1.17886E-01
   1.64379E-01  1.58056E-01  2.11153E-01  1.78109E-01  2.25135E-01  1.72414E-01  2.05843E-01  1.41936E-01  1.58142E-01  9.79102E-02
   1.00998E-01  4.72409E-02  3.95510E-02 -2.11312E-03 -1.58826E-02 -5.14253E-02 -7.23025E-02 -1.01623E-01 -1.23894E-01 -1.43151E-01
  -1.56608E-01 -1.54901E-01 -1.48878E-01 -1.32383E-01 -1.16195E-01 -6.09820E-02 -4.65161E-02  5.04877E-02  4.54030E-02  1.67779E-01
   1.33754E-01  2.54350E-01  1.93333E-01  2.89660E-01  2.15460E-01  2.76588E-01  1.99744E-01  2.25533E-01  1.55024E-01  1.52195E-01
   8.63185E-02  6.14798E-02 -5.34315E-04 -3.77571E-02 -9.96871E-02 -1.30907E-01 -1.85467E-01 -1.92754E-01 -2.39301E-01 -2.13548E-01
  -2.38170E-01 -1.93267E-01 -1.72900E-01 -1.37337E-01 -6.33034E-02 -4.83038E-02  5.51577E-02  4.30430E-02  1.43124E-01  9.82857E-02
   1.69858E-01  9.62774E-02  1.31534E-01  4.05064E-02  4.55239E-02 -3.89761E-02 -4.19589E-02 -8.77903E-02 -8.85040E-02 -7.73249E-02
  -7.36284E-02 -1.24127E-02 -6.93106E-03  7.58317E-02  9.37895E-02  1.54176E-01  1.75404E-01  2.03926E-01  2.08343E-01  1.82250E-01
   1.92601E-01  1.10254E-01  1.43805E-01  1.08909E-02  9.34531E-02 -7.07802E-02  6.15654E-02 -1.04653E-01  6.49877E-02 -5.47269E-02
   1.06091E-01  3.18805E-02  1.76431E-01  1.33692E-01  2.39121E-01  2.20374E-01  2.87382E-01  2.85456E-01  3.21001E-01  3.30649E-01
   3.41859E-01  3.55964E-01  3.43470E-01  3.53632E-01  3.21817E-01  3.23533E-01  2.78954E-01  2.76880E-01  2.02860E-01  2.03285E-01
   8.09806E-02  8.79256E-02 -8.00654E-02 -4.37372E-02 -2.53611E-01 -1.74097E-01 -3.95447E-01 -2.91243E-01 -4.84406E-01 -3.94120E-01
  -5.25134E-01 -4.93197E-01 -5.27024E-01 -5.50118E-01 -4.87708E-01 -5.41158E-01 -4.11803E-01 -4.70294E-01 -3.10648E-01 -3.49480E-01
  -2.02378E-01 -2.23612E-01 -9.64452E-02 -1.13529E-01 -2.30374E-02 -3.08694E-02  2.33429E-02  4.40947E-02  7.51084E-02  1.12690E-01
   1.25123E-01  1.60121E-01  1.53965E-01  1.64452E-01  1.83388E-01  2.07032E-01  2.17894E-01  2.60395E-01  2.34333E-01  3.05046E-01
   2.10673E-01  3.15116E-01  1.26916E-01  2.56895E-01  5.95241E-03  1.47567E-01 -1.11295E-01  2.64569E-02 -2.00421E-01 -8.11547E-02
  -2.44007E-01 -1.49305E-01 -2.54977E-01 -1.89982E-01 -2.38687E-01 -2.00919E-01 -2.13235E-01 -2.01851E-01 -1.77490E-01 -1.86857E-01
  -1.35465E-01 -1.55050E-01 -9.91261E-02 -1.18034E-01 -9.96587E-02 -1.18846E-01 -9.80077E-02 -1.11243E-01 -9.31139E-02 -1.00378E-01
  -8.59236E-02 -8.82782E-02 -7.65761E-02 -7.49170E-02 -6.67475E-02 -6.32455E-02 -5.69802E-02 -5.15381E-02 -4.70727E-02 -4.22462E-02
  -3.93644E-02 -3.57596E-02 -3.43512E-02 -3.20204E-02 -3.16566E-02 -3.04939E-02 -3.03926E-02 -2.93764E-02 -2.88558E-02 -2.74545E-02
  -2.59656E-02 -2.37080E-02 -2.16418E-02 -1.61290E-02 -1.38819E-02 -2.11924E-03 -1.12334E-03  1.88999E-02  2.02042E-02  4.92182E-02
   5.04874E-02  8.33095E-02  8.35803E-02  1.14503E-01  1.12184E-01  1.36722E-01  1.24841E-01  1.38486E-01  1.14760E-01  1.18909E-01
   8.75161E-02  8.25641E-02  4.74225E-02  3.80075E-02  5.84640E-03 -6.92760E-03 -3.58833E-02 -4.67277E-02 -6.98807E-02 -7.56704E-02
  -9.59190E-02 -9.37654E-02 -1.10825E-01 -1.09156E-01 -1.21886E-01 -1.15326E-01 -1.23241E-01 -1.09359E-01 -1.25230E-01 -1.01174E-01
  -1.21290E-01 -8.43079E-02 -1.05202E-01 -6.31174E-02 -7.73018E-02 -3.95925E-02 -4.51061E-02 -1.56283E-02 -1.40992E-02  8.46895E-03
   1.42865E-02  3.35868E-02  4.26350E-02  5.29879E-02  7.11555E-02  6.58999E-02  9.04539E-02  6.22916E-02  8.86569E-02  3.61414E-02
   5.51825E-02 -1.63610E-02 -7.49305E-03 -8.31055E-02 -8.00197E-02 -1.50807E-01 -1.33510E-01 -1.78456E-01 -1.44393E-01 -1.44432E-01
  -9.88032E-02 -4.99069E-02 -7.30450E-03  7.00128E-02  1.04311E-01  1.81183E-01  2.05066E-01  2.62674E-01  2.72655E-01  3.07433E-01
   3.04071E-01  3.20857E-01  3.07498E-01  3.11775E-01  2.90110E-01  2.83016E-01  2.57640E-01  2.36999E-01  2.16105E-01  1.91489E-01
   1.76445E-01  1.59892E-01  1.44939E-01  1.32709E-01  1.15951E-01  1.00491E-01  7.76252E-02  6.14401E-02  3.05467E-02  9.73167E-03
  -2.51830E-02 -6.15229E-02 -8.96487E-02 -1.51035E-01 -1.58721E-01 -2.43752E-01 -2.20837E-01 -3.14031E-01 -2.59876E-01 -3.38868E-01
  -2.63606E-01 -3.13079E-01 -2.34129E-01 -2.55020E-01 -1.90660E-01 -1.99430E-01 -1.54175E-01 -1.70297E-01 -1.33304E-01 -1.72100E-01
  -1.45250E-01 -2.16358E-01 -1.97389E-01 -2.97294E-01 -2.90849E-01 -4.05686E-01 -4.18067E-01 -5.27878E-01 -5.23089E-01 -6.01244E-01
  -5.58769E-01 -5.92365E-01 -5.15023E-01 -5.08735E-01 -4.07718E-01 -3.75906E-01 -2.84775E-01 -2.41415E-01 -1.64726E-01 -1.21013E-01
  -7.19896E-02 -3.82544E-02 -5.65292E-05  2.22921E-02  5.53462E-02  6.73966E-02  7.87101E-02  7.83726E-02  5.03628E-02  4.32327E-02
   3.80224E-02  3.58879E-02  3.27010E-02  3.26069E-02  3.09429E-02  3.30111E-02  3.28389E-02  3.66717E-02  3.78424E-02  4.26389E-02
   4.48850E-02  4.98655E-02  5.29659E-02  5.76138E-02  6.10463E-02  6.49406E-02  6.83463E-02  7.11391E-02  7.43554E-02  7.59710E-02
   7.88891E-02  7.98692E-02  8.23160E-02  8.31585E-02  8.50839E-02  8.60632E-02  8.72959E-02  8.83515E-02  8.87645E-02  8.96622E-02
   8.90085E-02  8.93977E-02  8.77640E-02  8.73919E-02  8.48217E-02  8.35250E-02  8.00735E-02  7.78697E-02  7.37405E-02  7.07859E-02
   6.62735E-02  6.26576E-02  5.80986E-02  5.40223E-02  4.97877E-02  4.56056E-02  4.19515E-02  3.78631E-02  3.48297E-02  3.09563E-02
   2.84981E-02  2.49658E-02  2.30748E-02  2.00435E-02  1.87100E-02  1.62981E-02  1.54671E-02  1.38788E-02  1.36008E-02  1.29452E-02
   1.31817E-02  1.35680E-02  1.43084E-02  1.56871E-02  1.68565E-02  1.89865E-02  2.06853E-02  2.32724E-02  2.57765E-02  2.86781E-02
   3.21014E-02  3.52949E-02  3.97095E-02  4.32665E-02  4.87175E-02  5.28376E-02  5.91138E-02  6.39574E-02  7.06849E-02  7.62719E-02
   8.29488E-02  8.89770E-02  9.50261E-02  1.01058E-01  1.05834E-01  1.11268E-01  1.14280E-01  1.18331E-01  1.19274E-01  1.21552E-01
   1.20403E-01  1.20729E-01  1.17381E-01  1.15835E-01  1.10452E-01  1.07488E-01  1.00525E-01  9.66585E-02  8.87536E-02  8.43801E-02
   7.63602E-02  7.18081E-02  6.43578E-02  5.99559E-02  5.35071E-02  4.94776E-02  4.43041E-02  4.08968E-02  3.72472E-02  3.47922E-02
   3.27715E-02  3.14992E-02  3.08866E-02  3.08908E-02  3.13963E-02  3.25846E-02  3.40111E-02  3.60668E-02  3.80716E-02  4.05400E-02
   4.28057E-02  4.52009E-02  4.75515E-02  4.95399E-02  5.16143E-02  5.30268E-02  5.44611E-02  5.52366E-02  5.56538E-02  5.58594E-02
   5.51531E-02  5.48409E-02  5.31999E-02  5.23201E-02  4.99898E-02  4.86283E-02  4.58816E-02  4.41382E-02  4.12965E-02  3.91774E-02
   3.63650E-02  3.39223E-02  3.12896E-02  2.85728E-02  2.60909E-02  2.31857E-02  2.07263E-02  1.74723E-02  1.46963E-02  1.08880E-02
   7.42452E-03  2.83101E-03 -1.72948E-03 -7.33804E-03 -1.33267E-02 -2.00754E-02 -2.75974E-02 -3.53763E-02 -4.42669E-02 -5.27114E-02
  -6.24224E-02 -7.09775E-02 -8.06433E-02 -8.86509E-02 -9.72158E-02 -1.03885E-01 -1.10518E-01 -1.15247E-01 -1.19376E-01 -1.21902E-01
  -1.23317E-01 -1.23705E-01 -1.22406E-01 -1.21003E-01 -1.17402E-01 -1.14576E-01 -1.09258E-01 -1.05398E-01 -9.89334E-02 -9.40692E-02
  -8.69707E-02 -8.13482E-02 -7.40945E-02 -6.78648E-02 -6.08463E-02 -5.43236E-02 -4.77480E-02 -4.11083E-02 -3.51342E-02 -2.86980E-02
  -2.34412E-02 -1.73052E-02 -1.27535E-02 -7.24060E-03 -3.42962E-03  1.30025E-03  4.37119E-03  8.23325E-03  1.07462E-02  1.36239E-02
   1.57271E-02  1.78352E-02  1.95891E-02  2.10746E-02  2.25282E-02  2.37774E-02  2.49411E-02  2.60701E-02  2.70688E-02  2.81677E-02
   2.88705E-02  2.99258E-02  3.03852E-02  3.13147E-02  3.16036E-02  3.22559E-02  3.24025E-02  3.29954E-02  3.29572E-02  3.34514E-02
   3.33631E-02  3.36880E-02  3.36620E-02  3.37833E-02  3.37080E-02  3.35886E-02  3.35687E-02  3.34009E-02  3.32894E-02  3.32893E-02
   3.29913E-02  3.32703E-02  3.26934E-02  3.33888E-02  3.26128E-02  3.36653E-02  3.29334E-02  3.42890E-02  3.36941E-02  3.51431E-02
   3.49368E-02  3.63465E-02  3.65372E-02  3.77254E-02  3.82764E-02  3.91842E-02  3.98481E-02  4.03808E-02  4.13085E-02  4.17273E-02
   4.27037E-02  4.31945E-02  4.41723E-02  4.49373E-02  4.58122E-02  4.68610E-02  4.77489E-02  4.90673E-02  4.99899E-02  5.13322E-02
   5.21617E-02  5.35616E-02  5.42644E-02  5.57713E-02  5.62933E-02  5.78756E-02  5.83064E-02  5.99043E-02  6.02908E-02  6.18254E-02
   6.24940E-02  6.38781E-02  6.49613E-02  6.62742E-02  6.77343E-02  6.90735E-02  7.08473E-02  7.24532E-02  7.46104E-02  7.66340E-02
   7.90201E-02  8.15428E-02  8.41256E-02  8.72254E-02  9.01990E-02  9.37183E-02  9.71500E-02  1.01014E-01  1.04850E-01  1.09162E-01
   1.13454E-01  1.18249E-01  1.23214E-01  1.28476E-01
 NY background values follow
     9.780E-02    9.753E-02    9.726E-02    9.699E-02    9.672E-02    9.645E-02    9.618E-02    9.591E-02    9.563E-02    9.536E-02
     9.509E-02    9.482E-02    9.455E-02    9.428E-02    9.401E-02    9.374E-02    9.347E-02    9.319E-02    9.292E-02    9.265E-02
     9.238E-02    9.211E-02    9.184E-02    9.157E-02    9.130E-02    9.102E-02    9.075E-02    9.048E-02    9.021E-02    8.994E-02
     8.967E-02    8.940E-02    8.913E-02    8.885E-02    8.858E-02    8.831E-02    8.804E-02    8.777E-02    8.750E-02    8.723E-02
     8.696E-02    8.668E-02    8.641E-02    8.614E-02    8.587E-02    8.560E-02    8.533E-02    8.506E-02    8.479E-02    8.451E-02
     8.424E-02    8.397E-02    8.370E-02    8.343E-02    8.316E-02    8.289E-02    8.262E-02    8.234E-02    8.207E-02    8.180E-02
     8.153E-02    8.126E-02    8.099E-02    8.072E-02    8.045E-02    8.017E-02    7.990E-02    7.963E-02    7.936E-02    7.909E-02
