 LCModel (Version 6.3-1N) Copyright: S.W. Provencher.          Ref.: Magn. Reson. Med. 30:672-679 (1993).                
 Slice_N1@12_14  02-Jun-2023 14:36:37
 27 lines in following concentration table = NCONC+1
    Conc.  %SD /Cr+PCr  Metabolite                                         
 2.59E-06  19% 3.0E-04 Mac                                                 
 7.03E-02  12%   8.000 Cr                                                  
    0.000 999%   0.000 PCr                                                 
 9.32E-02  13%  10.601 Ins                                                 
    0.118  10%  13.480 NAA                                                 
 4.24E-02  26%   4.829 Tau                                                 
 2.38E-02  16%   2.707 PCho                                                
    0.000 999%   0.000 GPC                                                 
 8.47E-02  15%   9.633 Glu                                                 
 2.32E-02  42%   2.638 Gln                                                 
    0.000 999%   0.000 Ala                                                 
    0.000 999%   0.000 Asc                                                 
 1.17E-02  71%   1.334 Asp                                                 
 1.11E-02  42%   1.261 GABA                                                
 6.08E-03  87%   0.692 Glc                                                 
 1.06E-02  50%   1.201 GSH                                                 
    0.000 999%   0.000 Lac                                                 
    0.000 999%   0.000 NAAG                                                
    0.000 999%   0.000 PE                                                  
 2.38E-02  16%   2.707 GPC+PCho                                            
    0.118  10%  13.480 NAA+NAAG                                            
    0.108  15%  12.271 Glu+Gln                                             
 7.03E-02  12%   8.000 Cr+PCr                                              
    0.118  10%  13.480 NAA+NAAG                                            
 7.03E-02  12%   8.000 Cr+PCr                                              
    0.108  15%  12.271 Glu+Gln                                             
   6 lines in following misc. output table
  FWHM = 0.029 ppm    S/N =   4                                            
  Data shift = 0.012 ppm                                                   
  Ph: -72 deg     -11.7 deg/ppm                                            
  alphaB,S = 3.1E+01,   2.5E+01                                            
   18 spline knots.   Ns = 5(1)                                            
   2 inflections.     1 extrema                                            
  654 points on ppm-axis = NY
      4.000000     3.994181     3.988363     3.982544     3.976726     3.970907     3.965088     3.959270     3.953451     3.947633
      3.941814     3.935995     3.930177     3.924358     3.918540     3.912721     3.906902     3.901084     3.895265     3.889446
      3.883628     3.877809     3.871991     3.866172     3.860353     3.854535     3.848716     3.842898     3.837079     3.831260
      3.825442     3.819623     3.813805     3.807986     3.802167     3.796349     3.790530     3.784712     3.778893     3.773074
      3.767256     3.761437     3.755619     3.749800     3.743981     3.738163     3.732344     3.726526     3.720707     3.714888
      3.709070     3.703251     3.697433     3.691614     3.685795     3.679977     3.674158     3.668339     3.662521     3.656702
      3.650884     3.645065     3.639246     3.633428     3.627609     3.621791     3.615972     3.610153     3.604335     3.598516
      3.592698     3.586879     3.581060     3.575242     3.569423     3.563605     3.557786     3.551967     3.546149     3.540330
      3.534512     3.528693     3.522874     3.517056     3.511237     3.505419     3.499600     3.493781     3.487963     3.482144
      3.476326     3.470507     3.464688     3.458870     3.453051     3.447232     3.441414     3.435595     3.429777     3.423958
      3.418139     3.412321     3.406502     3.400684     3.394865     3.389046     3.383228     3.377409     3.371591     3.365772
      3.359953     3.354135     3.348316     3.342498     3.336679     3.330860     3.325042     3.319223     3.313405     3.307586
      3.301767     3.295949     3.290130     3.284312     3.278493     3.272674     3.266856     3.261037     3.255219     3.249400
      3.243581     3.237763     3.231944     3.226125     3.220307     3.214488     3.208670     3.202851     3.197032     3.191214
      3.185395     3.179577     3.173758     3.167939     3.162121     3.156302     3.150484     3.144665     3.138846     3.133028
      3.127209     3.121391     3.115572     3.109753     3.103935     3.098116     3.092298     3.086479     3.080660     3.074842
      3.069023     3.063205     3.057386     3.051567     3.045749     3.039930     3.034111     3.028293     3.022474     3.016656
      3.010837     3.005018     2.999200     2.993381     2.987563     2.981744     2.975925     2.970107     2.964288     2.958470
      2.952651     2.946832     2.941014     2.935195     2.929377     2.923558     2.917739     2.911921     2.906102     2.900284
      2.894465     2.888646     2.882828     2.877009     2.871191     2.865372     2.859553     2.853735     2.847916     2.842098
      2.836279     2.830460     2.824642     2.818823     2.813004     2.807186     2.801367     2.795549     2.789730     2.783911
      2.778093     2.772274     2.766456     2.760637     2.754818     2.749000     2.743181     2.737363     2.731544     2.725725
      2.719907     2.714088     2.708270     2.702451     2.696632     2.690814     2.684995     2.679177     2.673358     2.667539
      2.661721     2.655902     2.650084     2.644265     2.638446     2.632628     2.626809     2.620991     2.615172     2.609353
      2.603535     2.597716     2.591897     2.586079     2.580260     2.574442     2.568623     2.562804     2.556986     2.551167
      2.545349     2.539530     2.533711     2.527893     2.522074     2.516256     2.510437     2.504618     2.498800     2.492981
      2.487163     2.481344     2.475525     2.469707     2.463888     2.458070     2.452251     2.446432     2.440614     2.434795
      2.428977     2.423158     2.417339     2.411521     2.405702     2.399884     2.394065     2.388246     2.382428     2.376609
      2.370790     2.364972     2.359153     2.353335     2.347516     2.341697     2.335879     2.330060     2.324242     2.318423
      2.312604     2.306786     2.300967     2.295149     2.289330     2.283511     2.277693     2.271874     2.266056     2.260237
      2.254418     2.248600     2.242781     2.236963     2.231144     2.225325     2.219507     2.213688     2.207870     2.202051
      2.196232     2.190414     2.184595     2.178777     2.172958     2.167139     2.161321     2.155502     2.149683     2.143865
      2.138046     2.132228     2.126409     2.120590     2.114772     2.108953     2.103135     2.097316     2.091497     2.085679
      2.079860     2.074042     2.068223     2.062404     2.056586     2.050767     2.044949     2.039130     2.033311     2.027493
      2.021674     2.015856     2.010037     2.004218     1.998400     1.992581     1.986763     1.980944     1.975126     1.969307
      1.963489     1.957670     1.951852     1.946033     1.940215     1.934397     1.928578     1.922760     1.916941     1.911123
      1.905304     1.899486     1.893667     1.887849     1.882030     1.876212     1.870393     1.864575     1.858756     1.852938
      1.847119     1.841301     1.835482     1.829664     1.823845     1.818027     1.812208     1.806390     1.800571     1.794753
      1.788934     1.783116     1.777297     1.771479     1.765660     1.759842     1.754023     1.748205     1.742386     1.736568
      1.730749     1.724931     1.719113     1.713294     1.707476     1.701657     1.695839     1.690020     1.684202     1.678383
      1.672565     1.666746     1.660928     1.655109     1.649291     1.643472     1.637654     1.631835     1.626017     1.620198
      1.614380     1.608561     1.602743     1.596924     1.591106     1.585287     1.579469     1.573650     1.567832     1.562013
      1.556195     1.550376     1.544558     1.538739     1.532921     1.527102     1.521284     1.515465     1.509647     1.503829
      1.498010     1.492192     1.486373     1.480555     1.474736     1.468918     1.463099     1.457281     1.451462     1.445644
      1.439825     1.434007     1.428188     1.422370     1.416551     1.410733     1.404914     1.399096     1.393277     1.387459
      1.381640     1.375822     1.370003     1.364185     1.358366     1.352548     1.346729     1.340911     1.335092     1.329274
      1.323455     1.317637     1.311818     1.306000     1.300182     1.294363     1.288545     1.282726     1.276908     1.271089
      1.265271     1.259452     1.253634     1.247815     1.241997     1.236178     1.230360     1.224541     1.218723     1.212904
      1.207086     1.201267     1.195449     1.189630     1.183812     1.177993     1.172175     1.166356     1.160538     1.154719
      1.148901     1.143082     1.137264     1.131445     1.125627     1.119808     1.113990     1.108171     1.102353     1.096534
      1.090716     1.084898     1.079079     1.073261     1.067442     1.061624     1.055805     1.049987     1.044168     1.038350
      1.032531     1.026713     1.020894     1.015076     1.009257     1.003439     0.997620     0.991802     0.985983     0.980165
      0.974346     0.968528     0.962709     0.956891     0.951072     0.945254     0.939435     0.933617     0.927798     0.921980
      0.916161     0.910343     0.904524     0.898706     0.892887     0.887069     0.881251     0.875432     0.869614     0.863795
      0.857977     0.852158     0.846340     0.840521     0.834703     0.828884     0.823066     0.817247     0.811429     0.805610
      0.799792     0.793973     0.788155     0.782336     0.776518     0.770699     0.764881     0.759062     0.753244     0.747425
      0.741607     0.735788     0.729970     0.724151     0.718333     0.712514     0.706696     0.700877     0.695059     0.689240
      0.683422     0.677603     0.671785     0.665967     0.660148     0.654330     0.648511     0.642693     0.636874     0.631056
      0.625237     0.619419     0.613600     0.607782     0.601963     0.596145     0.590326     0.584508     0.578689     0.572871
      0.567052     0.561234     0.555415     0.549597     0.543778     0.537960     0.532141     0.526323     0.520504     0.514686
      0.508867     0.503049     0.497230     0.491412     0.485593     0.479775     0.473956     0.468138     0.462319     0.456501
      0.450682     0.444864     0.439045     0.433227     0.427408     0.421590     0.415771     0.409953     0.404134     0.398316
      0.392497     0.386679     0.380860     0.375042     0.369223     0.363405     0.357586     0.351767     0.345949     0.340130
      0.334312     0.328493     0.322675     0.316856     0.311038     0.305219     0.299401     0.293582     0.287764     0.281945
      0.276127     0.270308     0.264490     0.258671     0.252853     0.247034     0.241216     0.235397     0.229579     0.223760
      0.217942     0.212123     0.206305     0.200486
 NY phased data points follow
  -2.55354E-01 -1.94288E-01 -5.72169E-01 -3.05765E-01  2.83425E-01 -9.47900E-02 -1.02210E-01 -2.53602E-01 -4.97297E-01  3.41768E-01
  -1.76969E-01  1.53166E-01  2.95296E-01 -2.93847E-01  5.78829E-01  3.09161E-01  5.77631E-01  3.89834E-01  1.50790E-02  1.52882E-01
   3.49613E-01  3.04988E-01 -6.33299E-02  2.39802E-01  1.64359E-01  5.80498E-02  1.05177E-01  4.63993E-02 -2.15621E-01 -6.77478E-02
  -4.00890E-02 -4.81423E-01 -4.06217E-01 -3.80588E-01 -5.90560E-01 -2.47591E-01  8.69930E-02  2.16144E-01  6.02461E-02  8.68686E-03
   3.88616E-01  3.50595E-01  6.92261E-01  4.52258E-01  1.83070E-01  2.98081E-02  2.85529E-01  3.15564E-01 -3.58457E-01  5.43107E-02
   3.03313E-01  1.43282E-02 -4.73348E-01  1.02883E-01 -1.30470E-01 -6.04168E-01 -1.43987E-01 -6.36355E-01 -4.54341E-01 -4.69207E-01
  -5.11101E-01 -3.71197E-01 -2.68141E-01 -1.27864E-01 -5.30036E-01 -2.46016E-01  3.58724E-02 -2.19980E-01  3.91412E-01  6.22099E-01
   2.13969E-01  4.72811E-01  3.79280E-01 -1.35657E-02  1.65076E-01  1.03271E-01 -5.95908E-01 -4.03081E-01 -2.69850E-02 -4.66880E-01
  -2.54118E-01  3.81717E-01  4.18988E-01  5.47775E-01  4.38978E-01  2.44990E-01  5.53322E-01  3.55514E-01  4.96829E-01  9.55584E-02
   6.90693E-02  8.95185E-02  4.75336E-02  5.94661E-01  1.25927E-01  3.34991E-01 -7.86511E-02  5.77473E-02  4.26749E-01 -3.71160E-01
   5.43494E-02  7.72910E-02 -1.51703E-01  4.74950E-01  4.20623E-01 -4.97654E-02  2.78246E-01  2.96686E-01  1.59410E-02  2.41838E-02
   2.76405E-01  2.31262E-01  2.54850E-01  6.07044E-01  4.99517E-01  1.71835E-01  4.38605E-01  5.04592E-01  1.85634E-01  6.09952E-01
   5.34557E-01  2.20910E-01 -2.18294E-01 -3.15190E-01 -1.84382E-02 -1.81510E-01 -1.45447E-01  6.21624E-02 -3.17182E-01 -6.70499E-01
  -1.52655E-01 -5.88985E-01 -6.23863E-01 -1.68409E-01 -9.43120E-01 -1.30024E+00 -7.64576E-01 -1.37908E+00 -8.86495E-01 -3.17723E-01
  -5.69030E-01  2.16370E-01 -6.98523E-01 -1.49433E-01  4.20282E-01 -2.38565E-01  9.21663E-03  2.04574E-01 -5.98600E-02 -2.94528E-01
   4.33669E-02  3.48504E-01  5.46964E-01 -3.79635E-01 -4.97198E-02 -2.03972E-01  4.44267E-01  8.48621E-01 -2.12924E-01  2.76204E-01
   2.69450E-01  1.07987E+00  9.70262E-01  7.96356E-01  9.86062E-01  6.93590E-01  4.75439E-01  3.58502E-01 -1.45869E-01 -1.12525E+00
  -8.62235E-01 -8.37194E-01 -7.76044E-01 -7.65010E-01 -3.13204E-01 -4.90578E-01 -6.16064E-01 -4.08181E-01 -6.06017E-01 -1.40320E-01
  -6.24163E-01 -5.38146E-01 -7.96492E-02 -6.41987E-01 -1.38073E-01  1.36033E-01 -5.08311E-01  5.92156E-02 -1.96131E-01 -3.76719E-01
  -2.53584E-01 -2.49545E-01 -4.50221E-01 -4.52631E-01  2.86276E-01 -3.78961E-01  1.68388E-01  1.67537E-01 -9.64073E-03 -2.02638E-03
  -3.99708E-01 -3.53042E-01 -2.89364E-01  2.72231E-01 -8.51545E-02 -2.91377E-01 -1.69623E-01  3.25977E-01 -5.22571E-01 -2.24263E-02
   2.34472E-01 -7.35884E-01  1.74733E-01  8.76275E-02  2.24981E-01 -2.87350E-01  2.26860E-02 -2.75391E-02 -4.39078E-01  1.38146E-01
  -6.84647E-02 -2.05954E-01 -7.02817E-02  5.36304E-01  2.36824E-01  1.14873E+00  1.03347E+00  2.92144E-01  4.53312E-01 -8.80342E-02
   5.03801E-01  4.66971E-01  4.85873E-01  2.88691E-01  1.86359E-01  1.98936E-01 -3.07928E-01 -8.41529E-02  2.27545E-01  5.35932E-01
  -3.18443E-02 -1.60891E-01  9.75650E-03 -2.19964E-01 -3.96856E-01 -2.40751E-01  5.40914E-02 -3.90589E-01  2.76216E-01  2.31772E-01
  -9.86948E-02  1.90170E-01 -2.73787E-01 -7.39441E-03 -2.73749E-01 -4.15964E-01 -1.68319E-01 -3.40873E-01  2.49905E-02  1.14593E-02
   2.72189E-01  3.46474E-01  7.28000E-02  2.51667E-01 -9.73459E-02  3.79666E-01  2.57342E-01 -1.01257E-01  5.23678E-01  3.64255E-01
   4.32242E-01  1.01559E-01  1.21205E-01  1.57665E-01 -7.09162E-02  2.87266E-02 -4.07232E-01 -6.26926E-01 -1.50876E-01 -4.69267E-02
  -5.91325E-01 -3.92475E-01 -6.89603E-01 -3.86275E-01  3.24752E-01  2.33457E-01  3.21065E-01  8.00940E-01  9.16706E-01  5.07778E-01
   6.20228E-01 -6.17677E-02  2.35885E-02  6.69148E-02 -9.44712E-02 -2.86213E-02 -7.78883E-02  6.21885E-01  4.52396E-01  5.11099E-01
   2.01296E-02  2.07567E-01  6.18054E-01  2.13435E-01  5.00102E-01 -3.25850E-02  2.28779E-01  3.59732E-01  3.31790E-01  6.26145E-01
   3.48105E-01  4.58259E-01 -2.17116E-01 -7.93282E-03  2.68543E-01  1.59702E-01  2.66241E-01 -3.63361E-01  3.20100E-01 -4.72750E-02
  -6.01159E-01 -2.67541E-02 -2.72162E-01 -3.39216E-01 -1.23421E-01  7.77332E-02 -1.58611E-01 -3.19130E-01 -7.91558E-02  2.12819E-01
  -4.19675E-02 -2.98966E-01  7.00547E-02  6.97792E-01 -2.14153E-02 -8.33500E-01 -2.09125E-01 -4.07454E-01 -2.30121E-01 -3.61417E-01
  -5.91483E-01 -1.09343E+00 -2.14147E+00 -2.13472E+00 -1.77885E+00 -1.02393E+00 -4.24600E-01  2.20237E-01 -1.19523E-01  7.32547E-02
   3.73809E-01  5.94901E-02  2.25051E-01  5.50741E-03  1.39025E-01  1.01002E-01  2.34894E-01  9.25349E-02  2.03183E-01  2.26813E-01
   3.15697E-01 -5.55538E-02 -4.31842E-01 -5.93282E-02 -1.71676E-01  3.86085E-01 -8.46967E-02  1.17452E-01  1.08766E-01 -2.61139E-01
   6.09971E-01  2.40488E-01  5.12051E-02  8.00970E-01  3.85828E-01 -2.05981E-01  1.45068E-01  1.42595E-01  4.19161E-01 -2.50425E-01
  -5.83156E-03  5.10981E-01  3.22497E-01  8.77803E-01  5.60317E-01  4.92772E-02  2.28360E-01  4.46945E-01  9.63481E-02  4.32053E-01
   5.73753E-02  2.44276E-02  3.81069E-01  6.50683E-01  1.85783E-01 -5.19094E-02  6.17757E-01 -3.62812E-01  5.11216E-03 -1.11157E-02
   1.01123E-01  3.47423E-01 -7.90377E-02 -1.53589E-01 -5.95073E-02  3.75175E-01 -3.32678E-01 -3.54001E-01 -3.04538E-01 -2.76058E-01
   1.00564E-02 -2.79669E-01 -2.71846E-01  2.53253E-02 -3.95804E-02  1.89657E-01  1.61906E-01 -2.02439E-01 -2.51479E-01 -1.64178E-01
  -1.70763E-01 -3.34544E-01 -1.73320E-01 -9.92959E-02  8.74424E-02 -4.64426E-01 -4.01831E-01 -1.42634E-01  1.51978E-01 -9.46718E-03
  -2.53109E-01 -3.10684E-02 -4.94155E-01  2.57049E-01 -1.96506E-01 -4.47384E-01 -1.62721E-01 -1.09713E-01  1.71440E-01 -7.19236E-02
   3.77343E-01  3.60521E-01  1.48573E-01  4.13172E-01  6.88502E-02 -1.35292E-01  4.37442E-01  5.40957E-01  3.15852E-01 -2.90256E-01
   2.64392E-01  3.20610E-01  3.30840E-02  3.17342E-02 -4.12551E-01 -9.66411E-02 -4.01395E-01  1.44693E-02 -3.86877E-01 -4.01247E-01
   4.94641E-02 -2.92657E-01  2.22650E-01 -1.99276E-01 -4.49531E-01  1.50722E-01 -3.47545E-01 -5.32929E-01  2.26691E-01  5.26215E-02
   1.52408E-01 -9.36914E-02 -2.47038E-01  1.22808E-01  1.77830E-01  7.27339E-02 -3.17199E-01 -1.31089E-01 -8.68903E-02 -3.28893E-01
   2.73316E-02  1.97469E-01 -2.75022E-01  2.98517E-01  4.87581E-02 -2.56641E-01  3.02666E-01  1.55117E-01  1.29290E-01  4.28431E-01
   7.85779E-01 -1.82582E-01 -1.88034E-01  2.12659E-01 -5.09536E-02  3.23356E-02  6.25960E-02  9.82093E-02 -1.35583E-01  2.32670E-01
   1.21625E-01 -9.27826E-02 -2.52672E-01  1.71348E-01  2.74794E-01 -1.93518E-01  3.66853E-01  8.10610E-02  1.76845E-02  3.29704E-01
   6.32213E-02 -3.34706E-01  1.45238E-01  8.81123E-02  1.44354E-02  2.90232E-01  6.46591E-02  6.75101E-01 -7.26678E-02  5.99626E-02
  -1.30776E-02 -3.96270E-01 -2.01726E-02 -4.84559E-01 -8.66691E-02 -3.99159E-01 -6.22228E-01 -6.81377E-01 -4.38768E-01 -3.86550E-01
  -7.89447E-01 -4.73437E-01 -3.38885E-01 -2.85070E-01 -4.01323E-01 -3.18927E-01  2.29456E-02  3.80025E-02 -3.88733E-01 -1.06034E-01
   3.16563E-02 -3.20483E-01  6.87842E-02  1.06870E-01 -1.71721E-01  1.79325E-01  1.95539E-01  4.32714E-01  1.43901E-01 -5.36971E-01
  -4.56282E-02  2.30666E-01  1.83860E-01  2.16748E-01  2.30360E-01 -3.73603E-01  2.12257E-01  3.36849E-01  7.59546E-02  5.37931E-01
   1.24341E-01  1.46464E-02 -2.85899E-02  1.18646E-01 -2.46127E-01  4.04915E-01  1.54210E-01 -5.35609E-02  2.88001E-01 -4.43079E-01
  -8.47210E-03 -2.71672E-01  3.02278E-01  4.87653E-01 -1.46071E-01  4.18719E-01  2.85659E-01 -1.91139E-02  2.48935E-01 -2.88661E-01
  -1.21700E-01  3.88806E-01  3.92430E-01  3.35980E-01 -1.94518E-01  4.00476E-01  1.32471E-01  4.02090E-02  3.83946E-01  3.68816E-01
   3.66352E-01  1.15502E-01  1.86233E-01 -3.35419E-01  6.83791E-02  5.44070E-02 -1.03430E-01  1.23380E-01 -1.52033E-01  7.06834E-02
  -1.13841E-01  7.30210E-02  4.43857E-01  2.85165E-01 -2.10114E-02  1.07638E-01  2.52697E-01  1.84647E-01  5.67769E-01  2.25745E-01
  -7.29975E-02 -3.40132E-01 -3.34388E-01  2.70680E-02  1.10050E-01  8.93418E-03 -7.43467E-02  3.98576E-01  2.02752E-01  3.60071E-01
   5.86611E-02  3.01927E-01  2.90566E-01 -2.11662E-02  2.24510E-01 -1.97067E-01  2.98294E-01 -1.32859E-01  3.98212E-01 -1.45448E-01
  -4.03872E-01  6.73350E-01 -5.88359E-03  1.10898E-01  1.11413E-01 -1.04120E-01 -5.01722E-01  2.89945E-02  2.20498E-01 -1.00001E-01
  -1.39123E-01 -9.66250E-02  3.32163E-01  8.55642E-02  2.62599E-01  4.51251E-01  5.22151E-01  2.54940E-01  2.75918E-01  5.91191E-01
  -1.80724E-01 -8.13393E-02  5.72881E-02 -2.00241E-01
 NY points of the fit to the data follow
   2.76390E-02  3.16242E-02  3.53779E-02  3.83588E-02  4.00604E-02  4.02084E-02  3.85648E-02  3.58615E-02  3.27448E-02  3.24273E-02
   5.82870E-02  1.45799E-01  2.40103E-01  3.59665E-01  5.39573E-01  7.01127E-01  7.36458E-01  6.22239E-01  4.00744E-01  1.91559E-01
   6.89657E-02  2.20970E-02  5.18239E-03 -2.24529E-02 -4.81102E-02 -6.93592E-02 -8.54068E-02 -9.76163E-02 -1.08476E-01 -1.19354E-01
  -1.31108E-01 -1.45173E-01 -1.63534E-01 -1.85589E-01 -2.09983E-01 -2.18740E-01 -2.17991E-01 -1.92862E-01 -1.31590E-01 -3.32585E-02
   7.80155E-02  1.84952E-01  2.64715E-01  3.15973E-01  3.34411E-01  3.17382E-01  2.64365E-01  1.87163E-01  1.11568E-01  4.86947E-02
   4.38644E-03 -3.08384E-02 -6.46034E-02 -1.03657E-01 -1.50687E-01 -2.00356E-01 -2.50877E-01 -3.03547E-01 -3.49943E-01 -3.63791E-01
  -3.65027E-01 -3.62625E-01 -3.07170E-01 -2.43477E-01 -1.89808E-01 -8.86191E-02  4.75324E-02  1.85709E-01  3.20484E-01  4.03365E-01
   4.20122E-01  3.78994E-01  2.96836E-01  2.00135E-01  9.08158E-02 -3.06215E-02 -1.50224E-01 -2.49293E-01 -3.63138E-01 -4.51128E-01
  -4.17005E-01 -2.70249E-01 -6.15112E-02  1.68049E-01  3.56579E-01  4.78423E-01  5.32489E-01  5.21967E-01  4.68885E-01  4.01870E-01
   3.51790E-01  3.16628E-01  2.79736E-01  2.33709E-01  1.79521E-01  1.11905E-01  4.12257E-02 -2.45565E-02 -6.89384E-02 -7.21354E-02
  -2.33907E-02  6.43074E-02  1.67020E-01  2.49674E-01  2.96303E-01  3.10320E-01  3.04894E-01  2.97133E-01  2.90947E-01  2.88650E-01
   2.87056E-01  2.85089E-01  2.82560E-01  2.79740E-01  2.76997E-01  2.74952E-01  2.73193E-01  2.69551E-01  2.50512E-01  2.29009E-01
   2.00355E-01  1.29900E-01  5.38004E-02 -2.37193E-02 -1.10591E-01 -2.00379E-01 -2.64858E-01 -3.16759E-01 -3.40392E-01 -3.29881E-01
  -2.95802E-01 -3.52464E-01 -4.00950E-01 -4.84626E-01 -7.48856E-01 -1.09070E+00 -1.27839E+00 -1.20078E+00 -8.69285E-01 -4.82127E-01
  -2.19275E-01 -1.02645E-01 -7.13383E-02 -3.07278E-02  5.43887E-03  3.65026E-02  6.37019E-02  8.75008E-02  1.08309E-01  1.27002E-01
   1.44559E-01  1.61664E-01  1.79002E-01  1.97112E-01  2.16326E-01  2.37039E-01  2.60166E-01  2.86060E-01  3.15513E-01  3.51567E-01
   3.99842E-01  4.69965E-01  5.80638E-01  6.30334E-01  6.15865E-01  5.76851E-01  4.08150E-01  2.76751E-02 -4.37326E-01 -8.11536E-01
  -9.44653E-01 -8.43921E-01 -6.60868E-01 -5.21762E-01 -4.64162E-01 -4.30087E-01 -3.93137E-01 -3.60354E-01 -3.37116E-01 -3.17956E-01
  -3.00802E-01 -2.82494E-01 -2.65096E-01 -2.51879E-01 -2.42916E-01 -2.34993E-01 -2.25196E-01 -2.13931E-01 -2.02782E-01 -1.91901E-01
  -1.81055E-01 -1.69972E-01 -1.58183E-01 -1.46435E-01 -1.35387E-01 -1.25115E-01 -1.14932E-01 -1.03786E-01 -9.25616E-02 -8.23913E-02
  -7.25180E-02 -6.33574E-02 -5.63041E-02 -5.35496E-02 -5.52318E-02 -5.61389E-02 -5.33172E-02 -5.10554E-02 -5.42824E-02 -6.36634E-02
  -7.35731E-02 -7.81267E-02 -7.64205E-02 -7.13993E-02 -6.69574E-02 -6.45191E-02 -6.32231E-02 -6.19582E-02 -5.97546E-02 -5.43972E-02
  -3.42273E-02  1.18304E-03  4.76004E-02  1.07834E-01  1.84428E-01  2.75706E-01  3.45747E-01  3.60313E-01  3.60953E-01  3.83220E-01
   3.98115E-01  3.62861E-01  2.57722E-01  1.15045E-01 -1.97090E-03 -6.39433E-02 -8.32122E-02 -9.02671E-02 -9.98116E-02 -1.09142E-01
  -1.17849E-01 -1.25357E-01 -1.30215E-01 -1.33729E-01 -1.35830E-01 -1.37635E-01 -1.39872E-01 -1.42600E-01 -1.47203E-01 -1.56172E-01
  -1.70404E-01 -1.92465E-01 -2.00747E-01 -2.04407E-01 -2.08669E-01 -1.69539E-01 -1.02199E-01 -3.01250E-02  3.59000E-02  8.88396E-02
   1.37533E-01  1.74897E-01  1.86829E-01  1.86873E-01  1.83746E-01  1.82643E-01  1.85732E-01  1.77006E-01  1.64490E-01  1.44470E-01
   1.21839E-01  8.91770E-02  4.60638E-02  9.97501E-04 -4.49502E-02 -8.85055E-02 -1.36691E-01 -1.92099E-01 -2.50924E-01 -3.14142E-01
  -3.67807E-01 -3.89604E-01 -3.70613E-01 -2.82746E-01 -1.22233E-01  7.46154E-02  2.67393E-01  4.05579E-01  4.58931E-01  4.37404E-01
   3.72951E-01  3.04248E-01  2.55628E-01  2.33234E-01  2.35847E-01  2.46771E-01  2.60469E-01  2.68668E-01  2.67988E-01  2.61667E-01
   2.51184E-01  2.41061E-01  2.31707E-01  2.23915E-01  2.16441E-01  2.08425E-01  1.99189E-01  1.87921E-01  1.73725E-01  1.55324E-01
   1.32757E-01  1.03385E-01  6.80313E-02  2.37943E-02 -2.68611E-02 -8.43204E-02 -1.45865E-01 -2.09100E-01 -2.63564E-01 -3.05747E-01
  -3.26893E-01 -3.27490E-01 -3.05045E-01 -2.62900E-01 -2.03728E-01 -1.34257E-01 -6.68640E-02 -6.56232E-03  3.07595E-02  4.28019E-02
   2.57805E-02 -1.25874E-02 -5.89765E-02 -9.60527E-02 -1.15312E-01 -1.11688E-01 -9.70013E-02 -1.38766E-01 -3.62521E-01 -6.10235E-01
  -9.29118E-01 -1.44495E+00 -1.92976E+00 -2.05488E+00 -1.74611E+00 -1.11592E+00 -5.17538E-01 -1.79192E-01 -7.65805E-02 -7.77815E-02
  -5.10774E-02 -2.74524E-02 -8.76044E-03  5.10290E-03  1.60814E-02  2.33035E-02  2.69654E-02  2.70165E-02  2.15581E-02  1.27518E-02
   1.45474E-03 -1.02195E-02 -1.94052E-02 -2.40363E-02 -2.30363E-02 -1.50538E-02 -3.35926E-03  1.04464E-02  2.37791E-02  3.49725E-02
   4.45154E-02  5.24978E-02  5.96009E-02  6.54859E-02  7.05082E-02  7.48385E-02  7.90203E-02  8.35042E-02  8.78284E-02  9.17213E-02
   9.50586E-02  9.82448E-02  1.01475E-01  1.04722E-01  1.07789E-01  1.10034E-01  1.11950E-01  1.14139E-01  1.17036E-01  1.20411E-01
   1.23771E-01  1.25997E-01  1.26619E-01  1.25397E-01  1.22747E-01  1.19258E-01  1.15431E-01  1.11449E-01  1.06805E-01  1.00925E-01
   9.40332E-02  8.65089E-02  7.85354E-02  7.03089E-02  6.23486E-02  5.50634E-02  4.82668E-02  4.19616E-02  3.59415E-02  3.01348E-02
   2.49967E-02  2.07718E-02  1.69432E-02  1.34971E-02  1.01427E-02  6.92627E-03  3.98395E-03  1.31202E-03 -6.60317E-04 -1.91846E-03
  -2.80780E-03 -3.00000E-03 -2.21148E-03 -4.16154E-04  2.62517E-03  6.75586E-03  1.15340E-02  1.66872E-02  2.22045E-02  2.77212E-02
   3.24917E-02  3.65792E-02  4.08179E-02  4.63217E-02  5.37065E-02  6.25256E-02  7.18573E-02  8.10837E-02  9.05035E-02  1.01015E-01
   1.12737E-01  1.25459E-01  1.38752E-01  1.51759E-01  1.64389E-01  1.76390E-01  1.87270E-01  1.96336E-01  2.02892E-01  2.06634E-01
   2.08074E-01  2.07636E-01  2.05875E-01  2.02575E-01  1.97569E-01  1.90548E-01  1.81216E-01  1.69714E-01  1.57150E-01  1.44498E-01
   1.32475E-01  1.21337E-01  1.10475E-01  9.96480E-02  8.93935E-02  8.02819E-02  7.22242E-02  6.50772E-02  5.85248E-02  5.26622E-02
   4.77848E-02  4.40633E-02  4.12107E-02  3.96899E-02  4.01004E-02  4.20910E-02  4.53616E-02  4.95394E-02  5.42776E-02  5.95529E-02
   6.54359E-02  7.16217E-02  7.74586E-02  8.24019E-02  8.63859E-02  8.94817E-02  9.17856E-02  9.38301E-02  9.60577E-02  9.81276E-02
   9.95838E-02  9.96182E-02  9.80012E-02  9.53576E-02  9.21541E-02  8.84247E-02  8.43770E-02  8.02267E-02  7.62966E-02  7.25387E-02
   6.87160E-02  6.46427E-02  6.01309E-02  5.56936E-02  5.13223E-02  4.68140E-02  4.24539E-02  3.86248E-02  3.52930E-02  3.18499E-02
   2.77352E-02  2.27728E-02  1.67612E-02  9.66191E-03  1.50476E-03 -7.78448E-03 -1.79190E-02 -2.91776E-02 -4.20693E-02 -5.73124E-02
  -7.49660E-02 -9.40334E-02 -1.13036E-01 -1.31378E-01 -1.48781E-01 -1.65115E-01 -1.79735E-01 -1.92144E-01 -2.02442E-01 -2.10249E-01
  -2.14697E-01 -2.15495E-01 -2.13406E-01 -2.08992E-01 -2.02758E-01 -1.94966E-01 -1.86022E-01 -1.76481E-01 -1.67234E-01 -1.58532E-01
  -1.49550E-01 -1.39547E-01 -1.28560E-01 -1.16711E-01 -1.04135E-01 -9.12678E-02 -7.85571E-02 -6.59530E-02 -5.36639E-02 -4.22466E-02
  -3.14092E-02 -2.08204E-02 -1.06671E-02 -1.23302E-03  6.90302E-03  1.43123E-02  2.18157E-02  2.86159E-02  3.44309E-02  3.93733E-02
   4.34662E-02  4.73967E-02  5.11793E-02  5.41516E-02  5.62952E-02  5.81032E-02  5.99147E-02  6.13631E-02  6.25129E-02  6.40668E-02
   6.61282E-02  6.85969E-02  7.13633E-02  7.39049E-02  7.56506E-02  7.65724E-02  7.70723E-02  7.70993E-02  7.69097E-02  7.69694E-02
   7.69694E-02  7.68545E-02  7.68327E-02  7.70256E-02  7.76294E-02  7.82633E-02  7.86761E-02  7.92624E-02  7.94901E-02  7.84945E-02
   7.67315E-02  7.53394E-02  7.52061E-02  7.58136E-02  7.63222E-02  7.64940E-02  7.64367E-02  7.61481E-02  7.58637E-02  7.59687E-02
   7.68892E-02  7.85467E-02  8.04196E-02  8.19891E-02  8.31954E-02  8.47457E-02  8.64922E-02  8.80618E-02  8.91583E-02  9.00517E-02
   9.05867E-02  9.05572E-02  9.02744E-02  9.02886E-02  9.09949E-02  9.25132E-02  9.44652E-02  9.65212E-02  9.84238E-02  1.00066E-01
   1.01968E-01  1.04161E-01  1.06676E-01  1.09068E-01  1.10503E-01  1.10836E-01  1.10564E-01  1.10543E-01  1.11606E-01  1.13273E-01
   1.14714E-01  1.15657E-01  1.16041E-01  1.16540E-01  1.17897E-01  1.19685E-01  1.21152E-01  1.22659E-01  1.24708E-01  1.27138E-01
   1.29691E-01  1.31881E-01  1.33877E-01  1.36338E-01  1.39413E-01  1.42986E-01  1.47263E-01  1.52288E-01  1.57826E-01  1.63021E-01
   1.67804E-01  1.72165E-01  1.76346E-01  1.81296E-01
 NY background values follow
     7.498E-02    7.480E-02    7.461E-02    7.443E-02    7.425E-02    7.406E-02    7.388E-02    7.370E-02    7.351E-02    7.333E-02
     7.314E-02    7.296E-02    7.278E-02    7.259E-02    7.241E-02    7.223E-02    7.204E-02    7.186E-02    7.168E-02    7.149E-02
     7.131E-02    7.112E-02    7.094E-02    7.076E-02    7.057E-02    7.039E-02    7.021E-02    7.002E-02    6.984E-02    6.966E-02
     6.947E-02    6.929E-02    6.910E-02    6.892E-02    6.874E-02    6.855E-02    6.837E-02    6.819E-02    6.800E-02    6.782E-02
     6.763E-02    6.745E-02    6.727E-02    6.708E-02    6.690E-02    6.671E-02    6.653E-02    6.635E-02    6.616E-02    6.598E-02
     6.580E-02    6.561E-02    6.543E-02    6.524E-02    6.506E-02    6.488E-02    6.469E-02    6.451E-02    6.432E-02    6.414E-02
     6.396E-02    6.377E-02    6.359E-02    6.340E-02    6.322E-02    6.304E-02    6.285E-02    6.267E-02    6.248E-02    6.230E-02
