 
 $NMID
 ID=''
 FMTDAT='(2E13.5)'
 TRAMP=   1.00000E+0
 VOLUME=   1.00000E+0
 $END
  -2.27318E+4  -8.65501E+2
  -5.56132E+4  -1.86816E+4
  -5.78302E+4  -8.64378E+3
  -5.33969E+4  -8.08131E+3
  -5.52063E+4  -1.01068E+4
  -5.56855E+4  -7.61780E+3
  -5.36254E+4  -7.83527E+3
  -5.44028E+4  -9.06489E+3
  -5.49100E+4  -7.54311E+3
  -5.36629E+4  -7.63948E+3
  -5.39754E+4  -8.36756E+3
  -5.42454E+4  -7.05198E+3
  -5.34113E+4  -6.69917E+3
  -5.38180E+4  -7.41637E+3
  -5.38264E+4  -6.50631E+3
  -5.30755E+4  -6.27479E+3
  -5.31196E+4  -6.55384E+3
  -5.30882E+4  -5.83638E+3
  -5.24102E+4  -5.49284E+3
  -5.24873E+4  -5.67886E+3
  -5.21618E+4  -5.14900E+3
  -5.16479E+4  -4.81493E+3
  -5.16751E+4  -4.94695E+3
  -5.14688E+4  -4.60855E+3
  -5.07264E+4  -4.43309E+3
  -5.06649E+4  -4.46164E+3
  -5.05103E+4  -4.14736E+3
  -4.98472E+4  -4.12887E+3
  -4.95473E+4  -4.28738E+3
  -4.93527E+4  -4.04839E+3
  -4.88685E+4  -3.70352E+3
  -4.87367E+4  -3.75412E+3
  -4.85295E+4  -3.68592E+3
  -4.80206E+4  -3.60446E+3
  -4.78679E+4  -3.37425E+3
  -4.76724E+4  -3.09204E+3
  -4.72411E+4  -2.84931E+3
  -4.70511E+4  -2.62607E+3
  -4.69287E+4  -2.37100E+3
  -4.66679E+4  -2.14404E+3
  -4.64928E+4  -2.05629E+3
  -4.64367E+4  -1.95845E+3
  -4.60792E+4  -1.91280E+3
  -4.57241E+4  -1.78665E+3
  -4.56384E+4  -1.46041E+3
  -4.54021E+4  -1.32541E+3
  -4.52019E+4  -1.29870E+3
  -4.49501E+4  -1.04973E+3
  -4.47538E+4  -8.78010E+2
  -4.44787E+4  -7.71738E+2
  -4.42175E+4  -7.24161E+2
  -4.39034E+4  -5.72726E+2
  -4.36720E+4  -3.02761E+2
  -4.35622E+4  -9.25901E+1
  -4.33586E+4   4.31209E+1
  -4.30392E+4   1.37466E+2
  -4.29019E+4   3.62994E+2
  -4.26644E+4   4.36624E+2
  -4.23583E+4   4.63828E+2
  -4.21265E+4   6.63214E+2
  -4.18376E+4   8.44789E+2
  -4.15704E+4   9.76250E+2
  -4.13888E+4   1.08238E+3
  -4.12498E+4   1.21116E+3
  -4.09506E+4   1.25876E+3
  -4.07486E+4   1.36294E+3
  -4.05745E+4   1.47133E+3
  -4.03965E+4   1.46337E+3
  -4.01327E+4   1.51863E+3
  -3.98728E+4   1.61602E+3
  -3.96828E+4   1.74084E+3
  -3.94581E+4   1.80591E+3
  -3.91418E+4   1.89734E+3
  -3.89752E+4   1.92587E+3
  -3.86945E+4   1.95320E+3
  -3.84465E+4   2.15727E+3
  -3.82256E+4   2.18225E+3
  -3.79240E+4   2.31924E+3
  -3.76744E+4   2.35473E+3
  -3.74233E+4   2.44941E+3
  -3.72135E+4   2.60350E+3
  -3.70279E+4   2.66198E+3
  -3.66774E+4   2.69993E+3
  -3.64896E+4   2.79353E+3
  -3.62684E+4   2.81511E+3
  -3.60847E+4   2.83229E+3
  -3.58561E+4   2.89400E+3
  -3.54629E+4   2.95436E+3
  -3.52910E+4   3.11075E+3
  -3.51573E+4   3.18809E+3
  -3.50352E+4   3.22814E+3
  -3.47846E+4   3.32190E+3
  -3.45286E+4   3.41122E+3
  -3.43915E+4   3.55715E+3
  -3.42316E+4   3.59118E+3
  -3.39289E+4   3.67497E+3
  -3.37634E+4   3.76976E+3
  -3.36169E+4   3.87386E+3
  -3.34679E+4   3.90328E+3
  -3.33415E+4   3.96984E+3
  -3.30386E+4   4.01457E+3
  -3.28506E+4   4.13245E+3
  -3.27349E+4   4.21771E+3
  -3.25873E+4   4.28144E+3
  -3.25633E+4   4.43104E+3
  -3.23035E+4   4.47801E+3
  -3.21048E+4   4.52900E+3
  -3.19602E+4   4.54304E+3
  -3.17986E+4   4.56737E+3
  -3.15926E+4   4.61046E+3
  -3.13912E+4   4.72766E+3
  -3.12972E+4   4.86932E+3
  -3.11965E+4   4.91656E+3
  -3.11018E+4   4.96282E+3
  -3.10028E+4   4.94383E+3
  -3.08704E+4   5.04936E+3
  -3.06341E+4   4.97702E+3
  -3.04961E+4   5.10943E+3
  -3.03373E+4   5.09249E+3
  -3.02183E+4   5.17294E+3
  -3.00420E+4   5.23044E+3
  -3.00065E+4   5.23888E+3
  -2.98220E+4   5.23055E+3
  -2.96411E+4   5.22978E+3
  -2.96080E+4   5.29189E+3
  -2.93782E+4   5.30721E+3
  -2.92524E+4   5.28680E+3
  -2.91289E+4   5.30178E+3
  -2.90356E+4   5.33024E+3
  -2.88545E+4   5.33488E+3
  -2.86787E+4   5.30579E+3
  -2.85250E+4   5.30887E+3
  -2.83458E+4   5.41401E+3
  -2.82312E+4   5.38195E+3
  -2.81343E+4   5.37922E+3
  -2.79739E+4   5.44921E+3
  -2.77468E+4   5.35210E+3
  -2.76282E+4   5.34218E+3
  -2.74347E+4   5.39740E+3
  -2.73072E+4   5.45711E+3
  -2.71375E+4   5.35266E+3
  -2.70434E+4   5.43651E+3
  -2.68359E+4   5.44014E+3
  -2.66918E+4   5.43604E+3
  -2.65929E+4   5.40206E+3
  -2.63956E+4   5.44063E+3
  -2.62022E+4   5.52333E+3
  -2.61690E+4   5.47062E+3
  -2.59302E+4   5.50461E+3
  -2.57212E+4   5.55821E+3
  -2.56213E+4   5.56286E+3
  -2.54432E+4   5.54296E+3
  -2.53177E+4   5.52679E+3
  -2.51446E+4   5.54851E+3
  -2.49439E+4   5.59876E+3
  -2.47919E+4   5.66812E+3
  -2.47952E+4   5.63684E+3
  -2.46129E+4   5.66775E+3
  -2.43608E+4   5.70741E+3
  -2.42345E+4   5.65944E+3
  -2.41690E+4   5.75398E+3
  -2.40093E+4   5.72264E+3
  -2.37981E+4   5.71437E+3
  -2.36905E+4   5.76042E+3
  -2.35460E+4   5.81147E+3
  -2.34522E+4   5.80481E+3
  -2.32700E+4   5.74854E+3
  -2.31166E+4   5.82214E+3
  -2.29991E+4   5.85018E+3
  -2.29182E+4   5.88227E+3
  -2.27392E+4   5.97038E+3
  -2.25908E+4   5.97538E+3
  -2.25499E+4   5.90961E+3
  -2.23057E+4   5.91330E+3
  -2.21619E+4   5.95190E+3
  -2.20097E+4   5.93127E+3
  -2.18356E+4   5.98051E+3
  -2.17187E+4   6.07376E+3
  -2.16096E+4   6.04523E+3
  -2.15137E+4   6.01683E+3
  -2.14172E+4   6.05201E+3
  -2.12791E+4   6.08992E+3
  -2.10953E+4   6.10425E+3
  -2.09487E+4   6.15561E+3
  -2.08446E+4   6.10474E+3
  -2.07125E+4   6.06989E+3
  -2.06133E+4   6.20045E+3
  -2.04316E+4   6.18701E+3
  -2.03386E+4   6.21048E+3
  -2.01809E+4   6.17453E+3
  -1.99875E+4   6.21920E+3
  -1.98881E+4   6.20817E+3
  -1.97658E+4   6.22696E+3
  -1.96681E+4   6.20943E+3
  -1.94930E+4   6.25378E+3
  -1.93724E+4   6.32298E+3
  -1.93015E+4   6.20187E+3
  -1.91784E+4   6.26617E+3
  -1.90411E+4   6.23977E+3
  -1.89009E+4   6.31305E+3
  -1.88777E+4   6.28575E+3
  -1.87640E+4   6.21723E+3
  -1.85850E+4   6.23596E+3
  -1.84077E+4   6.30821E+3
  -1.83625E+4   6.35464E+3
  -1.82303E+4   6.31697E+3
  -1.81188E+4   6.31984E+3
  -1.80202E+4   6.32852E+3
  -1.79207E+4   6.32555E+3
  -1.78502E+4   6.31701E+3
  -1.77419E+4   6.39191E+3
  -1.75891E+4   6.34544E+3
  -1.74092E+4   6.32489E+3
  -1.73648E+4   6.39124E+3
  -1.73215E+4   6.38839E+3
  -1.71825E+4   6.34539E+3
  -1.70542E+4   6.40092E+3
  -1.69841E+4   6.40271E+3
  -1.68959E+4   6.35810E+3
  -1.68168E+4   6.37870E+3
  -1.66150E+4   6.39568E+3
  -1.65722E+4   6.38164E+3
  -1.64737E+4   6.29619E+3
  -1.63913E+4   6.35594E+3
  -1.62550E+4   6.34910E+3
  -1.61313E+4   6.33019E+3
  -1.60313E+4   6.33505E+3
  -1.59781E+4   6.36188E+3
  -1.59222E+4   6.38937E+3
  -1.58148E+4   6.32846E+3
  -1.56781E+4   6.22708E+3
  -1.56002E+4   6.38498E+3
  -1.55545E+4   6.29671E+3
  -1.54133E+4   6.31743E+3
  -1.53068E+4   6.28605E+3
  -1.51683E+4   6.33856E+3
  -1.50996E+4   6.32495E+3
  -1.50489E+4   6.30515E+3
  -1.49531E+4   6.35848E+3
  -1.47628E+4   6.26890E+3
  -1.47024E+4   6.29223E+3
  -1.46284E+4   6.27473E+3
  -1.45663E+4   6.30080E+3
  -1.44039E+4   6.29714E+3
  -1.43118E+4   6.23983E+3
  -1.42501E+4   6.29767E+3
  -1.41109E+4   6.24630E+3
  -1.39984E+4   6.24063E+3
  -1.39863E+4   6.26094E+3
  -1.38653E+4   6.25690E+3
  -1.37070E+4   6.27484E+3
  -1.36965E+4   6.20758E+3
  -1.36083E+4   6.20499E+3
  -1.34795E+4   6.26575E+3
  -1.32594E+4   6.29873E+3
  -1.32474E+4   6.26055E+3
  -1.31809E+4   6.29618E+3
  -1.31172E+4   6.29870E+3
  -1.30378E+4   6.22294E+3
  -1.29360E+4   6.25087E+3
  -1.28153E+4   6.25524E+3
  -1.26927E+4   6.20350E+3
  -1.26263E+4   6.19669E+3
  -1.24874E+4   6.32479E+3
  -1.24136E+4   6.28573E+3
  -1.23473E+4   6.24320E+3
  -1.22519E+4   6.26372E+3
  -1.21575E+4   6.24318E+3
  -1.20469E+4   6.22278E+3
  -1.19402E+4   6.18426E+3
  -1.19384E+4   6.25434E+3
  -1.17609E+4   6.21647E+3
  -1.16958E+4   6.25918E+3
  -1.16213E+4   6.23927E+3
  -1.15390E+4   6.20598E+3
  -1.13973E+4   6.23588E+3
  -1.13348E+4   6.24017E+3
  -1.12809E+4   6.30082E+3
  -1.12027E+4   6.18694E+3
  -1.10560E+4   6.23055E+3
  -1.10017E+4   6.27123E+3
  -1.09353E+4   6.23949E+3
  -1.09126E+4   6.19320E+3
  -1.06949E+4   6.15930E+3
  -1.06687E+4   6.23920E+3
  -1.06589E+4   6.17159E+3
  -1.05259E+4   6.15757E+3
  -1.04407E+4   6.19232E+3
  -1.03359E+4   6.14164E+3
  -1.02661E+4   6.11947E+3
  -1.01661E+4   6.14258E+3
  -1.01001E+4   6.18170E+3
  -9.99852E+3   6.15291E+3
  -9.96375E+3   6.17178E+3
  -9.86457E+3   6.15872E+3
  -9.79390E+3   6.01200E+3
  -9.62995E+3   6.09319E+3
  -9.63343E+3   6.10062E+3
  -9.49848E+3   6.13821E+3
  -9.47504E+3   6.05152E+3
  -9.40354E+3   6.07499E+3
  -9.34459E+3   6.06722E+3
  -9.23579E+3   6.03500E+3
  -9.11599E+3   6.08774E+3
  -9.14083E+3   6.01446E+3
  -9.03095E+3   5.96190E+3
  -8.88899E+3   6.00310E+3
  -8.87455E+3   5.90668E+3
  -8.79081E+3   5.90975E+3
  -8.73814E+3   5.87384E+3
  -8.62625E+3   5.98713E+3
  -8.55614E+3   5.92447E+3
  -8.50615E+3   5.92414E+3
  -8.44948E+3   5.86674E+3
  -8.34048E+3   5.85760E+3
  -8.29428E+3   5.84409E+3
  -8.24419E+3   5.86004E+3
  -8.13007E+3   5.81788E+3
  -8.09481E+3   5.78606E+3
  -7.96838E+3   5.77730E+3
  -7.88607E+3   5.79437E+3
  -7.86644E+3   5.82579E+3
  -7.78970E+3   5.78314E+3
  -7.77198E+3   5.71746E+3
  -7.66439E+3   5.71604E+3
  -7.61256E+3   5.73403E+3
  -7.50236E+3   5.64610E+3
  -7.45911E+3   5.63859E+3
  -7.38262E+3   5.60128E+3
  -7.27378E+3   5.57072E+3
  -7.23969E+3   5.57260E+3
  -7.23186E+3   5.62460E+3
  -7.16761E+3   5.67470E+3
  -7.07399E+3   5.53390E+3
  -7.01377E+3   5.54236E+3
  -6.91094E+3   5.49520E+3
  -6.81783E+3   5.49646E+3
  -6.72695E+3   5.45220E+3
  -6.74596E+3   5.43363E+3
  -6.66863E+3   5.43133E+3
  -6.65021E+3   5.39554E+3
  -6.60076E+3   5.35739E+3
  -6.53325E+3   5.33230E+3
  -6.47004E+3   5.35938E+3
  -6.43132E+3   5.35190E+3
  -6.37433E+3   5.28935E+3
  -6.34029E+3   5.34593E+3
  -6.26871E+3   5.30261E+3
  -6.13438E+3   5.25684E+3
  -6.13832E+3   5.24811E+3
  -6.12393E+3   5.23616E+3
  -6.04623E+3   5.26972E+3
  -5.91082E+3   5.17113E+3
  -5.88151E+3   5.23314E+3
  -5.87168E+3   5.13358E+3
  -5.77807E+3   5.17350E+3
  -5.66560E+3   5.18164E+3
  -5.67370E+3   5.16346E+3
  -5.60811E+3   5.11748E+3
  -5.54074E+3   5.02800E+3
  -5.56569E+3   5.08844E+3
  -5.48183E+3   5.03972E+3
  -5.51727E+3   5.00569E+3
  -5.36459E+3   5.01283E+3
  -5.34196E+3   4.94478E+3
  -5.25296E+3   4.98015E+3
  -5.19366E+3   4.94886E+3
