 
 $NMID
 ID=''
 FMTDAT='(2E13.5)'
 TRAMP=   1.00000E+0
 VOLUME=   1.00000E+0
 $END
   2.32781E+2  -7.09856E+2
  -1.65902E+3   1.40217E+3
  -9.26461E+2  -1.81660E+3
  -1.36988E+3   5.64931E+3
   2.09882E+3   5.56539E+3
   7.32141E+3   1.21944E+3
   3.25089E+3  -1.05141E+3
   2.90522E+3  -3.16639E+3
   5.82543E+2  -6.95400E+3
  -1.43895E+3  -3.87123E+3
  -2.28291E+3  -1.27065E+3
  -3.06441E+3  -4.42932E+2
  -3.46745E+3   5.69418E+3
  -4.80827E+3   5.91517E+3
  -2.08653E+3   3.43245E+3
   1.49220E+3   2.95583E+3
   4.92069E+3   1.21093E+3
   4.34431E+3   3.40653E+2
   4.85730E+2  -1.37916E+3
  -2.31059E+3  -2.16380E+3
   1.10553E+3  -3.83636E+2
   6.75984E+2   3.71498E+3
  -6.84114E+3   2.66365E+3
  -3.55793E+3  -3.72330E+3
   1.42914E+3  -3.07793E+3
   2.15300E+3   4.17525E+3
  -9.36633E+2   2.07173E+3
  -2.73818E+3  -4.10815E+3
   1.11919E+3  -6.32567E+3
   6.39908E+3  -1.77549E+3
   6.14851E+3   3.72077E+3
  -2.59064E+3   5.07048E+3
  -6.13789E+3  -6.10568E+3
  -4.60824E+2  -6.05128E+3
  -1.22691E+3  -5.10030E+3
  -4.98217E+3  -8.35532E+3
   2.51440E+3  -7.18107E+3
   1.99939E+3   3.41790E+3
   4.22703E+2   3.55585E+3
  -6.09979E+1   6.88652E+2
  -2.03643E+3   4.69812E+3
  -5.35184E+3  -9.44382E+2
  -1.05663E+3  -7.43711E+3
   4.47129E+3  -5.61840E+3
   5.96899E+3   2.33557E+3
   1.46321E+3   3.26065E+3
   1.77928E+3   5.24147E+3
   8.03300E+2   6.14050E+3
   9.51542E+1   4.60107E+3
  -5.90290E+2   1.73134E+3
   9.02947E+2  -1.00809E+3
   3.91582E+3  -2.85684E+3
   7.44951E+3  -1.29180E+3
   3.57296E+3   3.68741E+3
   1.61429E+3   1.78326E+3
  -4.54464E+2   1.58320E+3
  -8.58174E+2  -1.78217E+3
  -2.39162E+3  -5.87315E+3
   1.17813E+3  -1.02062E+4
   5.75399E+3  -8.48741E+3
   7.34251E+3  -3.07222E+3
   5.48344E+3   3.61241E+3
   2.39711E+3   5.59809E+3
  -2.64062E+3   3.33073E+3
  -9.90042E+2   1.35051E+3
   2.91021E+3   5.19988E+3
  -2.47469E+3   8.44493E+3
  -5.46378E+3   3.25799E+3
  -2.94739E+3  -6.41843E+2
  -6.23674E+2   1.30404E+3
  -2.62084E+3   1.80839E+3
  -2.09570E+3   5.72826E+2
  -5.16253E+2  -2.51154E+3
  -7.52316E+2  -9.16605E+2
   1.07619E+3  -2.07815E+3
   3.46192E+2   2.92379E+3
  -1.68888E+3  -1.41677E+3
  -6.58658E+2  -1.11781E+3
   3.77000E+3   9.81863E+2
   2.88655E+2   2.79027E+3
  -2.88582E+3   1.62888E+3
  -1.70378E+3  -5.76556E+2
   1.52387E+3   1.74126E+3
  -2.33263E+3   2.85820E+3
  -3.31344E+3   1.89300E+3
  -3.04402E+3  -1.49364E+3
  -4.93189E+2  -4.77660E+3
   1.77839E+3  -3.05898E+3
   3.01346E+3   2.91445E+3
  -8.74820E+2   1.66809E+3
  -1.32377E+3   1.96888E+3
   6.08632E+2   5.57900E+2
  -9.52583E+2   1.44909E+3
  -4.03647E+3   4.06634E+3
  -5.02176E+3  -4.61873E+3
  -7.41388E+2  -3.83471E+3
   1.53492E+3  -1.52196E+3
  -9.31035E+2   3.80343E+3
  -2.72315E+3   4.36393E+3
  -4.64831E+3  -3.18745E+3
   2.09011E+3  -4.22969E+3
   6.82346E+3   1.14550E+2
   4.24843E+3   4.03673E+3
  -3.25378E+3   4.69610E+3
  -2.59605E+3   1.56133E+3
  -8.38120E+2  -1.92628E+3
  -1.12817E+3  -1.30233E+3
  -2.75356E+3  -3.25567E+3
  -1.16137E+3  -4.20308E+3
   3.78252E+3  -5.56180E+3
   3.37583E+3   5.36561E+1
   1.33003E+3   1.41308E+3
   8.32889E+2   2.29520E+3
   9.72523E+2   2.81842E+3
  -1.50129E+3   2.70633E+3
  -1.26896E+3  -7.37139E+2
  -9.98088E+2  -5.29808E+2
   9.40751E+2  -2.53100E+1
   1.46182E+3  -8.13944E+2
   1.68846E+3  -5.38376E+2
  -1.24327E+3   3.24316E+3
  -3.45066E+3   2.36760E+3
   8.16944E+1  -4.63086E+2
   1.62962E+2   1.75646E+2
   1.55406E+3   2.39102E+3
   7.16560E+2   4.32170E+1
  -1.61881E+2   2.39126E+2
   1.21563E+3  -3.71622E+2
  -4.00274E+0   1.58581E+3
  -2.93310E+3   1.12405E+3
  -1.64536E+3  -1.06094E+3
   2.25369E+3   3.80469E+2
   3.22356E+3   1.24457E+3
  -2.53014E+2   4.46429E+3
  -4.30940E+3   1.73408E+3
  -2.88474E+3  -3.54211E+2
  -1.25157E+3  -1.59568E+3
   5.40960E+2  -2.46643E+3
   5.01650E+3   7.30025E+2
   1.32864E+3  -8.20866E+2
   2.66802E+3  -1.96866E+3
   2.95393E+3  -8.82914E+2
   6.25621E+2   1.85415E+3
  -3.49459E+2   1.46953E+3
  -3.25635E+3  -1.62044E+3
   1.73862E+3  -4.22659E+2
   8.60507E+2   1.50966E+3
  -1.29031E+3   2.64657E+2
  -2.75311E+2   4.34370E+1
  -3.02362E+3  -4.56121E+2
  -2.68672E+3  -1.98026E+3
  -5.78877E+2  -2.96823E+3
   1.25100E+2  -2.64944E+3
   2.34442E+3  -1.98155E+3
   2.38483E+3   2.30903E+1
  -2.88964E+3   2.37044E+3
  -7.41433E+1   3.74029E+2
  -2.66854E+3  -2.65558E+2
  -2.10171E+3  -3.41401E+2
   2.90511E+2  -1.28378E+3
   3.27747E+2  -9.71704E+2
  -1.35480E+3  -1.80775E+3
  -1.12112E+3  -7.24304E+2
   7.47610E+2  -1.13969E+3
  -1.21446E+3   1.36394E+3
  -3.80941E+3  -1.01691E+3
   6.32148E+2  -2.14797E+3
  -8.89379E+1  -9.79291E+2
   2.60771E+1   2.50763E+3
  -3.78714E+3   2.05550E+3
  -4.17066E+3   9.26955E+2
  -1.02363E+3  -1.10663E+2
  -8.23233E+2   8.76363E+1
  -7.47728E+2  -3.59456E+2
   1.54939E+3  -4.11512E+2
  -1.05901E+3   2.48318E+2
   2.54487E+3  -1.16529E+3
   1.14503E+3   2.51937E+3
  -2.77834E+3   2.03751E+3
  -1.19395E+3  -1.76789E+2
  -7.31564E+2  -4.39771E+2
  -3.67306E+2   7.41844E+2
  -8.83932E+1  -1.43636E+3
   1.06648E+3   5.46472E+2
   2.81043E+1   3.31558E+2
   1.39427E+3   2.16612E+3
  -2.15446E+3   7.94800E+1
  -2.77751E+3   5.39407E+2
  -8.70232E+2  -2.70866E+3
   2.56741E+3  -1.44078E+3
   1.79760E+3  -6.58861E+2
   3.65151E+2   8.97289E+2
   1.28562E+3   7.01513E+2
   6.93415E+1  -2.45417E+2
   1.00539E+3   3.02395E+2
   1.61950E+3  -1.00125E+2
  -4.55828E+1   2.47408E+3
   1.68724E+3  -1.04857E+3
  -1.29174E+3  -1.96847E+3
   1.52181E+3   2.22338E+3
  -3.93163E+3   5.83887E+2
  -1.18949E+3  -3.08146E+3
   1.47367E+3  -4.95441E+3
   3.60031E+3  -9.65870E+2
   2.81788E+3   2.61933E+2
   6.68589E+2   7.63032E+2
  -8.00545E+2   1.23526E+3
  -1.22517E+3   1.49594E+2
   1.71901E+3   4.58829E+2
  -1.35621E+3   1.56185E+3
  -2.49061E+3  -8.94573E+2
   1.03886E+3  -4.40983E+3
   2.26385E+3  -1.53676E+3
   1.36468E+3   1.72514E+3
  -9.70552E+2   2.22058E+3
  -8.88728E+2   8.22860E+2
   9.00134E+2  -4.23445E+2
  -1.17397E+3  -2.23362E+3
  -1.38624E+3  -9.50464E+2
   6.40619E+2   7.80070E+2
   8.46874E+2  -1.51354E+2
  -1.20149E+3   2.03000E+3
   1.19774E+2   4.72450E+2
  -1.09225E+3  -2.54370E+2
   8.40781E+2   1.06978E+3
   1.19675E+3   7.28819E+1
   1.90935E+3   1.94414E+3
  -2.56426E+2   2.42830E+3
  -9.54590E+2   1.31627E+3
  -2.10233E+3  -9.44804E+2
  -6.27141E+0  -7.39346E+2
  -4.43836E+2  -8.58157E+2
  -1.71927E+3  -2.10501E+3
  -7.67274E+2  -2.45705E+3
   3.56073E+3   5.86501E+2
   1.93702E+3   2.42857E+3
  -5.36319E+2   2.33187E+3
  -1.91252E+3  -2.84715E+3
   2.26136E+2  -1.97519E+3
   2.46583E+2  -1.87178E+3
   2.35505E+3   1.54704E+3
   8.79650E+2   1.93321E+3
   2.90017E+2   8.58701E+2
   9.07306E+2   3.16003E+2
   4.10407E+2  -3.67503E+2
   4.14799E+2  -2.68606E+2
   5.69225E+2  -9.16131E+2
  -6.45739E+1  -7.13882E+2
   2.84946E+3  -6.75669E+2
   6.01496E+2   2.00044E+3
  -5.05035E+2   1.51789E+3
  -5.21178E+2  -1.35060E+3
  -9.87337E+2  -2.46125E+2
   1.39255E+3  -6.40372E+2
  -3.12142E+1   5.74537E+1
  -7.24726E+0   6.16164E+2
   2.23468E+3   1.23370E+3
   6.61017E+2   2.81851E+3
  -3.26776E+2   2.50894E+3
  -1.60366E+3  -1.08459E+3
  -1.65636E+3  -1.12112E+3
  -4.35896E+2  -3.78634E+3
   1.03200E+3   7.69217E+2
  -5.62915E+2   1.17921E+3
  -1.94429E+3   1.78811E+3
  -1.14290E+3   2.34309E+2
   1.05137E+2   1.57448E+2
  -6.09769E+2   1.45790E+3
  -8.60915E+2  -9.92547E+2
   1.91564E+2  -1.24715E+3
   3.70887E+3   1.14935E+3
   2.43193E+3   2.18471E+3
  -2.09974E+3   1.12392E+3
  -1.13489E+3   9.16427E+2
  -1.61917E+2  -1.80514E+3
   4.24911E+3  -9.04683E+2
  -5.21906E+2   7.70316E+2
  -1.35833E+3  -6.47306E+2
  -6.13986E+2  -1.01906E+2
  -5.88048E+2  -7.34406E+2
  -4.89359E+2   1.74489E+3
  -2.32222E+3   1.38341E+3
  -8.92702E+2  -2.43844E+3
   5.15300E+2  -3.79344E+3
   2.06322E+3  -1.08632E+3
  -2.11193E+3  -5.00544E+2
  -1.03150E+3  -1.06544E+3
   2.38348E+2  -1.70264E+3
   3.82639E+2   9.01455E+2
   8.62222E+1  -1.29874E+3
  -6.23564E+2   1.42358E+3
   1.05284E+3  -1.68359E+2
  -4.85844E+2  -1.20525E+2
   1.37792E+2   1.20393E+2
  -2.76435E+3   1.32557E+3
  -1.34419E+3  -4.53073E+2
  -8.09233E+2  -2.56408E+3
   2.11290E+3  -9.51654E+2
   1.12797E+3   1.20533E+3
  -4.06464E+2   2.59781E+3
  -1.07784E+3   6.54954E+1
   1.02780E+3  -2.07033E+3
   8.40255E+2   9.91713E+2
   2.16303E+2  -4.50693E+2
   6.41998E+2  -2.22472E+3
  -9.51030E+2  -8.38025E+2
   2.83193E+3   8.11930E+2
   1.96367E+3   1.65905E+3
  -1.81990E+2   6.41535E+2
  -1.92435E+3   3.65358E+2
   2.42022E+2  -1.95436E+3
  -7.48116E+2  -2.90467E+2
   1.48517E+3  -2.93311E+2
  -3.54210E+2  -1.37167E+2
  -2.66314E+2   1.17176E+3
   1.91487E+2  -4.90797E+2
  -1.40965E+3   1.37187E+3
  -3.71582E+3   6.03863E+2
   1.41571E+2  -2.50316E+3
   3.15271E+3  -2.49344E+3
   1.52545E+3   4.32498E+2
  -7.14870E+2   1.38680E+3
  -5.78328E+2   1.09032E+3
  -1.70141E+3  -1.75691E+2
   3.05729E+2   4.03529E+2
  -1.87152E+3   4.00193E+1
  -2.07907E+3  -5.55020E+2
   2.96354E+3  -9.04336E+2
   2.55430E+3   1.50299E+3
   2.67472E+3   2.01502E+3
  -5.39449E+2   5.34153E+2
  -7.69952E+2   5.62592E+2
  -1.75131E+3  -1.54686E+3
   5.10320E+2  -1.47148E+3
  -8.35314E+2  -5.86417E+2
   8.38524E+2  -1.70545E+3
   4.47454E+2   9.08149E+1
   8.67505E+2  -9.25549E+2
   2.59779E+3   2.09788E+3
  -2.61760E+3  -6.63967E+2
  -7.95375E+2   5.12197E+2
   6.45163E+2   6.75054E+2
   3.08524E+2  -4.03717E+2
   8.30107E+2   4.44863E+3
  -2.59476E+3   9.03445E+2
  -1.07122E+3   1.95579E+2
   2.13565E+3   3.95300E+2
   9.48325E+2   1.05931E+3
   4.07392E+2   2.85310E+2
   2.26788E+1  -5.73746E+2
   5.20623E+2  -1.12006E+3
   1.03785E+3  -1.96791E+3
  -6.18234E+2   1.04297E+3
  -4.07163E+3  -2.84399E+2
   2.78795E+1  -1.13655E+3
   2.53002E+3  -2.85274E+2
   2.28270E+3   1.20248E+3
   1.69915E+2   1.81552E+3
  -1.72639E+2   1.48479E+3
   1.15649E+2   2.14299E+3
   1.80829E+3   4.15536E+2
  -7.55348E+1  -3.31996E+2
  -4.70831E+2   3.06970E+2
  -2.73392E+2  -1.31386E+3
   1.82801E+3  -2.36643E+3
   1.22339E+3   8.07370E+2
  -6.11282E+2  -1.41886E+3
