 
 $NMID
 ID=''
 FMTDAT='(2E13.5)'
 TRAMP=   1.00000E+0
 VOLUME=   1.00000E+0
 $END
  -2.23256E+4   1.16882E+3
  -5.58565E+4  -1.29384E+4
  -5.70567E+4  -2.21013E+3
  -5.23109E+4  -1.30915E+3
  -5.39208E+4  -2.55395E+3
  -5.39563E+4   3.87955E+2
  -5.17959E+4   1.45826E+2
  -5.24182E+4  -7.87699E+2
  -5.26952E+4   1.03756E+3
  -5.14752E+4   1.07682E+3
  -5.19086E+4   7.41998E+2
  -5.20421E+4   2.43005E+3
  -5.11591E+4   3.01330E+3
  -5.15491E+4   2.89579E+3
  -5.13513E+4   4.27741E+3
  -5.04351E+4   4.82887E+3
  -5.04449E+4   4.94757E+3
  -5.00951E+4   6.04121E+3
  -4.92191E+4   6.71185E+3
  -4.91881E+4   6.81139E+3
  -4.87521E+4   7.69752E+3
  -4.78865E+4   8.40211E+3
  -4.76748E+4   8.66279E+3
  -4.73254E+4   9.16722E+3
  -4.64878E+4   9.53866E+3
  -4.60994E+4   9.86536E+3
  -4.58629E+4   1.04125E+4
  -4.51331E+4   1.06347E+4
  -4.47405E+4   1.07810E+4
  -4.43236E+4   1.11527E+4
  -4.37086E+4   1.16339E+4
  -4.34180E+4   1.19061E+4
  -4.31973E+4   1.22815E+4
  -4.27108E+4   1.25692E+4
  -4.23704E+4   1.29484E+4
  -4.20955E+4   1.34799E+4
  -4.16116E+4   1.39286E+4
  -4.12956E+4   1.43098E+4
  -4.08964E+4   1.49508E+4
  -4.05520E+4   1.54017E+4
  -4.02462E+4   1.57331E+4
  -3.99244E+4   1.62134E+4
  -3.94872E+4   1.64844E+4
  -3.90548E+4   1.67750E+4
  -3.87463E+4   1.73107E+4
  -3.82282E+4   1.77180E+4
  -3.79937E+4   1.79816E+4
  -3.75280E+4   1.84632E+4
  -3.70853E+4   1.88970E+4
  -3.66332E+4   1.92899E+4
  -3.61830E+4   1.95804E+4
  -3.55944E+4   1.99973E+4
  -3.51080E+4   2.04891E+4
  -3.46011E+4   2.08435E+4
  -3.41047E+4   2.12831E+4
  -3.35548E+4   2.15782E+4
  -3.31084E+4   2.19413E+4
  -3.26400E+4   2.22262E+4
  -3.21169E+4   2.25321E+4
  -3.15229E+4   2.27789E+4
  -3.10038E+4   2.31429E+4
  -3.05411E+4   2.35168E+4
  -3.00182E+4   2.39095E+4
  -2.95686E+4   2.41224E+4
  -2.90816E+4   2.43748E+4
  -2.86015E+4   2.47036E+4
  -2.81452E+4   2.51306E+4
  -2.76902E+4   2.53226E+4
  -2.71335E+4   2.55747E+4
  -2.66428E+4   2.57642E+4
  -2.62098E+4   2.60575E+4
  -2.57324E+4   2.62753E+4
  -2.52323E+4   2.64165E+4
  -2.48753E+4   2.65408E+4
  -2.42848E+4   2.67513E+4
  -2.38564E+4   2.70333E+4
  -2.33429E+4   2.72157E+4
  -2.28819E+4   2.73747E+4
  -2.23787E+4   2.75255E+4
  -2.18265E+4   2.77480E+4
  -2.13925E+4   2.78756E+4
  -2.09679E+4   2.80426E+4
  -2.04689E+4   2.81537E+4
  -1.99571E+4   2.82487E+4
  -1.95477E+4   2.84260E+4
  -1.91276E+4   2.84658E+4
  -1.86211E+4   2.85123E+4
  -1.81536E+4   2.86199E+4
  -1.76462E+4   2.86574E+4
  -1.71968E+4   2.88328E+4
  -1.67734E+4   2.88622E+4
  -1.63117E+4   2.89545E+4
  -1.58152E+4   2.89641E+4
  -1.53561E+4   2.91866E+4
  -1.48571E+4   2.92234E+4
  -1.43730E+4   2.91323E+4
  -1.38774E+4   2.91750E+4
  -1.33958E+4   2.92623E+4
  -1.30370E+4   2.93240E+4
  -1.25326E+4   2.93535E+4
  -1.21332E+4   2.92815E+4
  -1.16049E+4   2.92523E+4
  -1.11261E+4   2.93165E+4
  -1.08396E+4   2.92187E+4
  -1.03651E+4   2.91570E+4
  -9.98394E+3   2.90085E+4
  -9.56167E+3   2.89882E+4
  -9.15393E+3   2.89736E+4
  -8.78544E+3   2.88714E+4
  -8.40929E+3   2.86802E+4
  -7.87869E+3   2.85806E+4
  -7.54754E+3   2.84356E+4
  -7.16811E+3   2.82987E+4
  -6.79876E+3   2.81558E+4
  -6.34308E+3   2.80201E+4
  -6.02270E+3   2.78118E+4
  -5.74225E+3   2.76602E+4
  -5.27868E+3   2.73916E+4
  -4.95397E+3   2.70738E+4
  -4.53139E+3   2.69466E+4
  -4.22164E+3   2.67465E+4
  -3.87006E+3   2.64231E+4
  -3.59188E+3   2.61726E+4
  -3.16657E+3   2.59712E+4
  -2.84802E+3   2.56667E+4
  -2.56658E+3   2.53737E+4
  -2.17248E+3   2.50590E+4
  -1.90203E+3   2.47451E+4
  -1.56701E+3   2.45581E+4
  -1.19454E+3   2.42859E+4
  -9.51282E+2   2.38726E+4
  -5.95197E+2   2.35537E+4
  -2.84950E+2   2.32709E+4
  -4.15355E+1   2.29861E+4
   2.69306E+2   2.27249E+4
   4.63804E+2   2.23761E+4
   7.08631E+2   2.20516E+4
   1.11165E+3   2.15895E+4
   1.28073E+3   2.13374E+4
   1.62199E+3   2.10225E+4
   1.87113E+3   2.07094E+4
   2.15366E+3   2.04054E+4
   2.41673E+3   1.99450E+4
   2.65761E+3   1.96588E+4
   2.88723E+3   1.92810E+4
   3.00615E+3   1.89630E+4
   3.35114E+3   1.85980E+4
   3.57764E+3   1.82633E+4
   3.73488E+3   1.79005E+4
   4.02727E+3   1.75715E+4
   4.22869E+3   1.72375E+4
   4.40640E+3   1.68914E+4
   4.55333E+3   1.64754E+4
   4.75157E+3   1.61131E+4
   5.04271E+3   1.57701E+4
   5.23608E+3   1.54197E+4
   5.42718E+3   1.51069E+4
   5.57857E+3   1.47664E+4
   5.71130E+3   1.43920E+4
   5.90439E+3   1.40388E+4
   6.13023E+3   1.37396E+4
   6.23167E+3   1.33617E+4
   6.32541E+3   1.30898E+4
   6.56036E+3   1.27018E+4
   6.59130E+3   1.24334E+4
   6.74753E+3   1.20183E+4
   6.84184E+3   1.17265E+4
   6.95280E+3   1.13686E+4
   7.11321E+3   1.11109E+4
   7.21836E+3   1.07452E+4
   7.32928E+3   1.04727E+4
   7.45970E+3   1.01322E+4
   7.50905E+3   9.73806E+3
   7.66032E+3   9.51372E+3
   7.62549E+3   9.12700E+3
   7.75381E+3   8.89054E+3
   7.80086E+3   8.60947E+3
   7.88582E+3   8.33320E+3
   7.95325E+3   8.05602E+3
   8.04575E+3   7.76363E+3
   8.03967E+3   7.49561E+3
   8.12235E+3   7.20260E+3
   8.18128E+3   6.99461E+3
   8.16068E+3   6.59920E+3
   8.18680E+3   6.32812E+3
   8.29003E+3   6.07114E+3
   8.29756E+3   5.88105E+3
   8.32897E+3   5.60982E+3
   8.31428E+3   5.34673E+3
   8.36786E+3   5.11260E+3
   8.30732E+3   4.88438E+3
   8.33870E+3   4.54801E+3
   8.34830E+3   4.47036E+3
   8.36768E+3   4.13778E+3
   8.35049E+3   3.95896E+3
   8.27790E+3   3.77058E+3
   8.31134E+3   3.57247E+3
   8.33387E+3   3.39432E+3
   8.30522E+3   3.15307E+3
   8.30605E+3   2.98615E+3
   8.31739E+3   2.76782E+3
   8.23268E+3   2.59313E+3
   8.19702E+3   2.50258E+3
   8.15011E+3   2.29583E+3
   8.13933E+3   2.07540E+3
   8.04046E+3   1.90731E+3
   8.09046E+3   1.74525E+3
   8.02281E+3   1.62224E+3
   7.98085E+3   1.40882E+3
   8.00107E+3   1.23150E+3
   7.87550E+3   1.11607E+3
   7.87156E+3   1.00387E+3
   7.68739E+3   8.73232E+2
   7.69451E+3   6.60672E+2
   7.72784E+3   6.14200E+2
   7.62425E+3   5.08689E+2
   7.47993E+3   2.81369E+2
   7.45198E+3   1.95389E+2
   7.44750E+3   6.17909E+1
   7.29509E+3   1.83400E+0
   7.33435E+3  -1.20632E+2
   7.18102E+3  -2.34013E+2
   7.16453E+3  -3.38511E+2
   7.09826E+3  -4.44274E+2
   7.03039E+3  -5.44474E+2
   6.91960E+3  -6.08454E+2
   6.82228E+3  -7.98725E+2
   6.86655E+3  -7.75376E+2
   6.71130E+3  -8.68368E+2
   6.64008E+3  -1.05859E+3
   6.57454E+3  -1.10894E+3
   6.49583E+3  -1.15287E+3
   6.46451E+3  -1.26742E+3
   6.35291E+3  -1.26358E+3
   6.29584E+3  -1.35379E+3
   6.21140E+3  -1.48651E+3
   6.16342E+3  -1.53502E+3
   6.04224E+3  -1.54677E+3
   5.92161E+3  -1.67751E+3
   5.94747E+3  -1.68312E+3
   5.82083E+3  -1.75501E+3
   5.78518E+3  -1.79282E+3
   5.71081E+3  -1.86578E+3
   5.61867E+3  -1.85363E+3
   5.50025E+3  -1.91983E+3
   5.48331E+3  -1.94278E+3
   5.36967E+3  -2.00837E+3
   5.35230E+3  -2.13957E+3
   5.21942E+3  -2.10396E+3
   5.17045E+3  -2.17520E+3
   5.13297E+3  -2.13860E+3
   5.07841E+3  -2.16880E+3
   4.96729E+3  -2.15824E+3
   4.84920E+3  -2.23115E+3
   4.89575E+3  -2.22084E+3
   4.71336E+3  -2.24188E+3
   4.65111E+3  -2.28503E+3
   4.63074E+3  -2.31350E+3
   4.64571E+3  -2.31792E+3
   4.47624E+3  -2.36833E+3
   4.48974E+3  -2.37030E+3
   4.42547E+3  -2.39807E+3
   4.30288E+3  -2.43130E+3
   4.25699E+3  -2.39633E+3
   4.20340E+3  -2.36001E+3
   4.14861E+3  -2.39679E+3
   4.00051E+3  -2.38711E+3
   4.01035E+3  -2.40563E+3
   3.91242E+3  -2.37340E+3
   3.85992E+3  -2.42433E+3
   3.81233E+3  -2.42514E+3
   3.76630E+3  -2.39075E+3
   3.78801E+3  -2.43791E+3
   3.70476E+3  -2.41426E+3
   3.68588E+3  -2.40042E+3
   3.54020E+3  -2.46047E+3
   3.48968E+3  -2.43649E+3
   3.44216E+3  -2.44724E+3
   3.43517E+3  -2.33705E+3
   3.34430E+3  -2.42705E+3
   3.30551E+3  -2.38141E+3
   3.28685E+3  -2.41823E+3
   3.30315E+3  -2.38233E+3
   3.21437E+3  -2.42121E+3
   3.14008E+3  -2.40705E+3
   3.09297E+3  -2.35408E+3
   3.09473E+3  -2.37709E+3
   3.00688E+3  -2.35656E+3
   3.00552E+3  -2.36546E+3
   2.88589E+3  -2.33441E+3
   2.90725E+3  -2.35682E+3
   2.80602E+3  -2.29667E+3
   2.84565E+3  -2.28519E+3
   2.86463E+3  -2.25042E+3
   2.79071E+3  -2.27849E+3
   2.70469E+3  -2.26783E+3
   2.66806E+3  -2.23405E+3
   2.60428E+3  -2.28254E+3
   2.63385E+3  -2.26238E+3
   2.65592E+3  -2.21568E+3
   2.59904E+3  -2.20120E+3
   2.58476E+3  -2.21604E+3
   2.53956E+3  -2.18220E+3
   2.47095E+3  -2.25983E+3
   2.44796E+3  -2.05811E+3
   2.45089E+3  -2.07531E+3
   2.36559E+3  -2.13207E+3
   2.34188E+3  -2.08299E+3
   2.35421E+3  -2.08429E+3
   2.31120E+3  -2.10632E+3
   2.30202E+3  -1.99851E+3
   2.30487E+3  -2.08696E+3
   2.28832E+3  -2.02981E+3
   2.21375E+3  -1.98454E+3
   2.21959E+3  -2.02170E+3
   2.16635E+3  -1.97531E+3
   2.18528E+3  -1.93739E+3
   2.11842E+3  -1.91591E+3
   2.14776E+3  -1.92420E+3
   2.13905E+3  -1.97899E+3
   2.04605E+3  -1.96256E+3
   2.00418E+3  -1.84675E+3
   2.05927E+3  -1.91920E+3
   2.05495E+3  -1.89067E+3
   2.05368E+3  -1.83134E+3
   1.95643E+3  -1.90705E+3
   1.99867E+3  -1.82081E+3
   1.89996E+3  -1.80289E+3
   1.96650E+3  -1.74704E+3
   1.92211E+3  -1.77591E+3
   1.89280E+3  -1.81359E+3
   1.86977E+3  -1.79488E+3
   1.84483E+3  -1.70077E+3
   1.92060E+3  -1.70928E+3
   1.81289E+3  -1.71018E+3
   1.78816E+3  -1.69427E+3
   1.78297E+3  -1.69064E+3
   1.75270E+3  -1.63752E+3
   1.73247E+3  -1.63791E+3
   1.74716E+3  -1.64077E+3
   1.69510E+3  -1.64934E+3
   1.70155E+3  -1.65865E+3
   1.71837E+3  -1.57464E+3
   1.67344E+3  -1.59524E+3
   1.73189E+3  -1.62066E+3
   1.64912E+3  -1.54539E+3
   1.59753E+3  -1.56802E+3
   1.67412E+3  -1.59852E+3
   1.55134E+3  -1.59998E+3
   1.54906E+3  -1.58023E+3
   1.59523E+3  -1.53802E+3
   1.57146E+3  -1.49796E+3
   1.56389E+3  -1.55428E+3
   1.50302E+3  -1.53728E+3
   1.53180E+3  -1.54638E+3
   1.56289E+3  -1.49227E+3
   1.53297E+3  -1.51977E+3
   1.53868E+3  -1.51002E+3
   1.46212E+3  -1.45453E+3
   1.42057E+3  -1.55005E+3
   1.50732E+3  -1.46224E+3
   1.43039E+3  -1.46127E+3
   1.40011E+3  -1.43828E+3
   1.48714E+3  -1.47303E+3
   1.43094E+3  -1.48537E+3
   1.37615E+3  -1.41044E+3
   1.31599E+3  -1.36403E+3
