 
 $NMID
 ID=''
 FMTDAT='(2E13.5)'
 TRAMP=   1.00000E+0
 VOLUME=   1.00000E+0
 $END
   1.24784E+3  -6.09845E+1
  -1.55717E+3   2.31567E+3
   4.92113E+3  -4.83221E+3
  -1.35394E+3   2.83197E+2
  -2.72686E+3  -1.92851E+3
   1.38440E+3   1.34471E+3
  -3.63423E+3   3.40484E+3
   3.85505E+2   5.18487E+2
   1.92672E+3  -9.55014E+2
   6.19410E+2  -1.61628E+3
   3.44653E+3  -7.57359E+2
   6.66955E+3   1.16234E+3
  -3.14078E+2   2.54618E+3
  -4.41042E+3   1.11095E+3
  -8.16643E+2  -4.19154E+3
   2.84901E+3  -3.12021E+3
   1.29490E+3  -1.45569E+3
   1.86637E+3  -1.63521E+3
  -3.12933E+3   2.30194E+3
  -8.58418E+2  -3.74195E+3
   2.09094E+3   2.48651E+3
  -9.45480E+2   5.30267E+3
  -3.82097E+3   1.93700E+3
   8.41018E+2  -3.63747E+3
   4.00101E+3   9.45301E+2
   5.02115E+2   2.62116E+3
  -5.67321E+2  -1.59535E+2
  -5.79379E+2  -3.43565E+3
   3.97263E+3  -7.30946E+3
   6.26221E+3  -7.71126E+2
   2.25634E+3   6.23423E+3
  -1.07985E+4   2.91841E+3
  -7.42043E+3  -6.02736E+3
   3.61148E+2  -4.51282E+3
  -4.40496E+3   1.79611E+2
  -3.58901E+3  -3.90458E+3
   1.97717E+3  -2.25853E+3
   1.71376E+3   5.81315E+3
  -3.35392E+3   4.92038E+3
  -3.35196E+3   1.24808E+3
  -3.72472E+3   2.58364E+3
  -5.55200E+3  -2.97881E+3
   1.87374E+3  -7.82053E+3
   7.87369E+3   6.33369E+2
   4.14056E+3   5.76685E+3
  -9.25161E+2   1.88305E+3
   5.65981E+2   2.37338E+3
  -1.63398E+3   1.27291E+3
  -3.76762E+3   5.85159E+2
  -2.96666E+3  -2.47686E+3
  -4.25594E+1  -2.17598E+3
   1.28655E+3  -2.83420E+3
   3.41236E+3  -2.97299E+2
   1.18985E+3   4.40880E+3
  -1.87519E+3   9.69823E+2
  -4.88787E+2   2.71814E+2
  -4.30129E+3  -2.12229E+3
   1.25231E+3  -5.40674E+3
   5.04121E+3  -5.48558E+3
   5.94076E+3  -6.02233E+2
   1.84903E+3   4.31113E+3
  -1.33563E+3   6.77861E+3
  -2.76088E+3   1.55526E+3
  -9.35267E+2   1.35228E+2
   8.11459E+2   1.57807E+3
   7.25438E+2   3.82762E+3
  -3.43186E+3  -1.43564E+2
  -1.40906E+3  -3.26146E+3
   1.51673E+3  -2.81220E+3
  -2.26585E+2  -5.34894E+2
   2.17772E+2   1.30713E+3
  -2.08415E+1  -9.90707E+2
   1.31742E+3  -1.99653E+3
   3.29070E+3   1.08274E+3
   1.17924E+3   4.32642E+2
   5.73674E+1   2.65224E+3
   6.21667E+2   5.59645E+1
   4.22753E+3   5.04699E+2
   2.81959E+3   3.76365E+3
  -3.16257E+2   2.85778E+3
  -2.25712E+3   3.82503E+2
   1.33255E+3  -9.88014E+2
  -1.23288E+3   9.44080E+2
  -1.95564E+3   1.31608E+2
  -2.32822E+3  -1.93608E+3
   1.61225E+3  -4.05164E+3
   3.35158E+3  -3.53209E+2
   3.22612E+3   2.58457E+3
   2.58617E+2   4.02276E+3
  -1.25957E+3   2.23956E+3
   4.18196E+2   1.59579E+3
  -1.14104E+3   1.62710E+2
  -2.55214E+3   1.46759E+3
  -2.75252E+3  -1.74820E+3
   3.23565E+3  -2.19943E+3
   6.13756E+3   1.34044E+3
   1.56622E+3   6.15177E+3
  -4.62740E+3   2.02728E+3
  -3.52002E+3  -2.21818E+3
   2.19347E+3  -1.16897E+3
   3.99661E+3   3.48803E+3
  -3.74444E+2   4.61318E+3
  -5.76669E+3  -3.96919E+2
  -4.01982E+3  -6.37182E+2
  -8.37811E+2  -3.83511E+3
   2.36482E+3   4.46732E+2
   4.56602E+2  -3.87199E+2
  -1.69711E+3  -2.23647E+3
   2.87462E+3  -2.90819E+3
   3.20886E+3   1.97863E+3
   1.96394E+3   9.61215E+2
  -4.34201E+3  -3.03040E+2
  -8.85807E+2  -2.52242E+3
  -1.48763E+3  -1.35182E+3
  -2.19533E+3  -2.48879E+3
   1.66284E+2  -3.00365E+3
   2.75743E+3  -1.74034E+3
   1.60250E+3  -3.36267E+2
   4.94491E+2   3.10975E+2
   3.02463E+2  -6.22864E+2
  -2.57083E+3  -2.71233E+3
   6.79860E+2  -5.24485E+3
   2.59397E+3  -2.03956E+3
   1.42527E+3   1.05940E+3
  -1.52448E+3  -1.21998E+2
  -2.92952E+2  -1.00079E+3
   1.23878E+3   1.64424E+3
  -1.54753E+3   2.35469E+3
  -1.05741E+3  -5.48412E+2
   5.67393E+2  -1.90571E+3
   1.67947E+3   2.23782E+2
   1.22352E+2   2.24089E+3
  -1.00936E+3   1.85586E+3
  -2.79340E+3  -4.09988E+3
  -1.02527E+3  -4.23825E+3
   2.77141E+3  -5.35803E+1
   3.50885E+3   2.08111E+2
   9.78561E+2   2.45343E+3
  -8.15666E+2   5.97853E+2
   3.79267E+2   9.12940E+2
   2.79756E+2   1.95820E+3
  -1.69325E+3   3.85647E+1
  -2.95858E+3  -1.07321E+3
  -2.83533E+3  -2.73298E+3
   2.65210E+2   5.45145E+2
   2.39361E+2   1.25955E+3
  -2.46489E+3   9.66065E+2
  -9.44470E+2   2.56077E+2
   9.51176E+2  -1.04723E+3
   1.16906E+3  -1.31344E+3
   1.08813E+3  -4.87538E+2
   1.55520E+3   1.07817E+3
   2.19168E+3   4.13665E+3
   4.91636E+0   3.01891E+3
  -1.43621E+3   4.05093E+2
  -2.10883E+3  -1.90722E+3
  -1.64717E+3  -2.94397E+3
  -1.62162E+2  -2.41789E+3
   1.91405E+2  -7.86427E+2
  -1.26573E+3  -1.73947E+3
   8.46165E+2   4.93140E+2
   2.22265E+3  -1.94570E+3
   1.35091E+2  -8.82493E+0
  -1.75653E+2   2.50439E+2
  -1.50799E+3  -1.33158E+3
   4.71850E+3   8.43072E+2
   8.66508E+2   2.13037E+3
  -9.88654E+2   1.99376E+3
  -1.99500E+3  -7.40102E+1
   2.50568E+2  -5.41227E+2
  -1.34681E+2  -1.80894E+3
   2.29229E+2   1.54463E+3
  -1.49192E+3  -1.00105E+3
   9.27828E+2   1.47533E+3
  -1.93744E+3  -8.58486E+2
   1.52704E+3  -1.62899E+2
  -8.89845E+2   3.43382E+2
  -1.42275E+3   2.23920E+3
   1.10255E+2  -2.60706E+3
   1.16163E+3  -7.28798E+2
   1.35188E+3  -1.23880E+2
   2.83746E+2   1.64578E+3
  -1.23014E+3   1.37223E+3
  -2.35711E+1  -4.28153E+2
  -8.08268E+2  -3.80471E+2
  -4.47441E+2  -2.32460E+2
  -5.61781E+2  -2.04157E+3
   3.58821E+3   1.75595E+3
  -3.87755E+1   2.04709E+3
  -5.09811E+2   1.30198E+3
  -1.85200E+3  -1.26105E+3
   4.43213E+2  -3.62079E+1
   9.78057E+2  -4.20308E+1
  -1.78491E+3  -1.72162E+2
  -4.66715E+2   2.39434E+3
  -7.48334E+1   6.26048E+2
  -1.05342E+3   5.97980E+2
  -6.84891E+2  -6.55525E+2
  -1.16014E+3  -1.23076E+0
  -4.46990E+2  -1.43316E+3
   1.14357E+3  -2.57014E+3
   2.00485E+3   1.22149E+3
   2.59342E+3   2.50864E+3
  -1.20389E+3   7.90546E+2
  -3.96287E+2   1.57227E+3
  -3.05250E+2  -2.21826E+3
  -4.10086E+2  -2.50532E+2
   4.43371E+2   4.72207E+2
  -1.61823E+3  -1.59650E+3
   1.18582E+3  -1.79788E+3
   2.53222E+3   1.57984E+2
   3.16268E+3   2.71013E+3
  -2.34961E+3  -3.60496E+2
  -1.72383E+3  -2.15247E+2
   1.37836E+3  -2.02253E+3
   5.96338E+2   7.08156E+2
  -1.16498E+2  -1.66093E+2
   3.95541E+2   2.07134E+3
   6.74373E+2   7.18285E+1
  -1.88206E+2  -9.13013E+2
  -1.74072E+3   9.52880E+2
  -5.70003E+2   6.30805E+2
  -8.93604E+2  -1.35908E+3
  -2.01642E+2  -5.60049E+2
   1.02166E+3   8.89906E+2
  -1.17812E+3   1.17603E+3
  -2.10319E+3   9.03227E+2
   1.07588E+3  -4.24258E+2
   1.95424E+3  -8.92653E+1
  -2.28720E+2   2.71836E+3
  -1.88602E+3   2.56008E+2
   2.08785E+3  -6.04795E+2
  -3.88600E+2   3.03309E+2
   4.35181E+2   1.16925E+3
  -9.89663E+2  -1.25251E+3
  -2.93219E+2  -2.06096E+3
  -3.54097E+2  -1.11191E+3
   1.71621E+3   7.16351E+2
   7.71539E+2   1.21173E+3
  -4.07305E+3   8.43137E+2
   2.70326E+2  -2.17959E+2
  -5.18959E+2  -5.76699E+2
  -9.37812E+1   1.61857E+3
  -7.38546E+2  -1.29166E+2
  -1.28538E+3  -2.88414E+2
  -1.16844E+3   1.57689E+3
  -1.02464E+3  -4.99926E+2
  -2.83088E+2   1.33911E+3
  -1.36564E+3  -5.01693E+2
  -4.15423E+2  -6.47495E+2
   7.56544E+1   3.85060E+1
   6.86632E+2   1.33333E+2
   9.18823E+2   1.32875E+3
  -1.92199E+3  -1.47977E+2
  -3.10282E+3   1.50833E+3
  -2.50245E+2   9.22634E+2
  -2.19861E+2  -7.36667E+2
   1.24670E+3  -2.12001E+3
   1.26136E+3   3.33655E+2
  -6.57270E+2   8.20313E+2
  -9.54114E+2   9.65879E+2
   1.24710E+3   9.30772E+2
  -2.44380E+2  -1.07099E+3
   8.37831E+2  -3.86771E+2
  -9.46848E+2  -1.58343E+2
   3.22631E+1   6.48492E+1
   1.68818E+3  -2.39622E+3
   1.29841E+3   8.28466E+2
   1.64993E+3   7.05568E+2
  -1.80696E+3   3.51384E+2
  -2.77728E+2   1.30015E+3
  -1.31924E+2  -5.26730E+2
  -4.14021E+2  -7.17240E+2
  -8.58128E+1  -1.10288E+3
   1.06254E+3   1.48343E+3
   1.40158E+3   3.04106E+2
  -2.65953E+3  -7.52711E+2
   2.62645E+2  -1.18806E+3
   2.05469E+2  -1.42702E+2
   1.40099E+3  -1.90386E+3
   1.68722E+3  -8.46029E+2
   2.01679E+3   6.11323E+2
   1.67707E+3  -6.69996E+2
   2.07792E+3   1.24142E+3
   5.43832E+2   1.22407E+3
   1.22015E+3  -1.20580E+3
   9.65108E+2  -1.06761E+3
   5.49367E+2   5.45069E+2
  -5.09754E+2  -1.62678E+3
  -1.81300E+3  -1.04575E+3
  -1.88944E+3  -2.12104E+3
   2.05942E+3  -4.53415E+2
  -8.46450E+2   4.81745E+2
   1.08963E+3   2.73271E+2
  -9.91446E+2  -6.31229E+2
   1.62779E+3   5.48580E+2
  -8.00484E+1  -9.61638E+2
   1.42061E+3   2.10601E+2
   3.09774E+2  -6.62623E+2
  -1.02652E+2   6.11196E+2
  -2.04228E+3  -2.23791E+1
  -1.43506E+2   1.66833E+3
  -6.14104E+2  -1.20969E+3
   8.11214E+2  -8.22562E+2
  -8.49774E+2   5.36378E+2
   3.70458E+2   1.51847E+2
   7.26071E+2   2.01775E+3
   1.36186E+3  -2.13301E+3
   2.85962E+2  -2.58206E+2
  -8.28060E+2   1.34208E+3
   8.65428E+2   1.09075E+3
  -6.89923E+2  -5.78165E+2
  -8.84624E+2   1.00940E+3
   8.66637E+2  -3.00963E+3
   2.90268E+2  -5.65877E+1
   1.02448E+3  -1.40920E+2
  -1.68721E+3  -9.21181E+2
   1.51891E+3  -1.51258E+2
   2.90263E+2  -2.21657E+2
   1.54545E+2   7.78806E+2
   4.18722E+2  -3.98670E+2
   6.55340E+2  -1.45437E+3
   5.57710E+2  -9.43372E+2
  -7.62913E+2  -8.42411E+2
  -1.83691E+2   7.19318E+2
   2.32674E+2  -5.03764E+2
   6.93856E+2   1.18233E+3
  -5.58053E+0  -1.13959E+3
  -6.82501E+2  -2.65607E+2
  -1.64380E+2  -9.20631E+2
  -3.27099E+2  -1.46888E+2
   1.01675E+3   2.21327E+1
   5.97673E+2  -9.29586E+1
  -9.74203E+2   4.75062E+2
  -3.22556E+2  -1.08445E+3
   7.36751E+2  -6.40398E+2
  -1.58878E+2   1.37750E+3
  -5.99966E+2   1.03623E+3
   5.67739E+2   8.07854E+2
   1.15505E+3   3.42828E+2
  -1.02757E+3   7.30760E+2
   2.70011E+2   3.65084E+2
   1.96644E+2  -6.75909E+2
  -5.03102E+2   6.01624E+2
  -9.24044E+2  -6.05345E+2
  -1.52401E+3  -3.66834E+2
   7.66114E+2  -7.77359E+1
   9.93556E+1  -8.94847E+2
  -1.13778E+2   7.02644E+2
  -4.73099E+2  -9.13988E+2
  -1.19683E+3   1.59467E+3
  -1.23401E+3   7.58758E+2
   1.91118E+3  -1.04746E+3
   3.13720E+2   7.19157E+2
   1.70088E+3  -3.61120E+2
  -3.85660E+2   5.03907E+1
   1.36133E+3  -1.62109E+3
   1.13982E+3   1.72279E+2
  -2.30206E+3  -8.34587E+2
   5.36604E+1   4.19227E+2
  -6.24450E+0  -4.43779E+2
  -1.46416E+3  -1.39911E+3
  -1.27846E+3  -1.08777E+3
   1.48942E+3  -2.52068E+2
  -1.88105E+3   1.40843E+3
   5.12325E+2  -4.82439E+2
   1.90560E+2  -7.67582E+2
