 
 $NMID
 ID=''
 FMTDAT='(2E13.5)'
 TRAMP=   1.00000E+0
 VOLUME=   1.00000E+0
 $END
   4.51720E+2   9.38207E+1
  -3.19756E+2   1.63264E+3
   3.54035E+3  -3.17948E+3
  -1.87423E+2  -8.11394E+2
  -2.09284E+3  -5.54515E+2
   2.06979E+3   1.88479E+3
  -9.19879E+2   9.22095E+2
  -4.27664E+2  -3.83514E+2
   1.80226E+3  -6.78899E+2
   1.69417E+3  -5.15122E+3
   2.44234E+3  -1.40548E+3
   3.69652E+3   3.41429E+2
  -9.90772E+2   1.80560E+3
  -5.12891E+3   2.45689E+2
  -2.57245E+3  -5.61905E+2
   2.22104E+3  -3.69312E+3
   1.61362E+3  -1.48193E+3
   5.78169E+2   1.43883E+3
  -1.23029E+3   3.56242E+3
  -2.71784E+2  -1.96820E+2
   2.16260E+3  -9.71271E+2
   7.10937E+2   2.51858E+3
  -4.43474E+3   1.88311E+3
  -1.34397E+2  -2.17275E+3
   1.95692E+3  -4.62644E+2
   2.46270E+3   3.54496E+3
  -1.83426E+3   4.84647E+3
  -1.73263E+2  -3.90726E+3
   6.91937E+2  -5.41088E+3
   4.71447E+3  -5.44983E+2
   3.90988E+3   3.92109E+3
  -3.63707E+3   3.03649E+3
  -4.01505E+3  -1.79138E+3
  -2.36970E+2  -2.98913E+3
  -1.16315E+3  -2.02098E+3
  -8.59943E+2  -4.32157E+3
   3.36366E+3  -4.00730E+3
   3.06685E+3   6.76137E+2
   3.06979E+2   2.05106E+3
  -6.99032E+2  -6.55155E+2
  -2.64747E+3   1.90507E+3
  -5.25782E+3  -3.52308E+3
  -4.86543E+2  -8.24777E+3
   3.37825E+3  -3.84680E+3
   2.86165E+3   2.56458E+3
   4.14196E+2   1.07414E+3
   3.41363E+3   1.54568E+3
   1.88486E+3   2.62359E+3
   1.15607E+3  -7.24637E+2
  -1.97142E+3  -6.20772E+2
   1.49528E+2  -3.58923E+3
   1.57556E+3  -4.84542E+3
   5.64861E+3   1.59331E+2
   1.50549E+3   1.92892E+3
  -1.49783E+3   7.18905E+2
  -2.96744E+3   3.09336E+2
  -3.18564E+3  -6.43916E+2
  -5.62086E+3  -2.12333E+3
  -3.11216E+3  -5.26248E+3
   4.41997E+3  -4.56191E+3
   4.74823E+3   1.49358E+3
   1.55133E+3   4.41033E+3
  -2.16809E+3   4.51271E+3
  -1.22668E+3   8.45999E+2
   2.55823E+2  -3.85348E+2
   3.33099E+2   2.63340E+3
  -1.50177E+3   3.23234E+3
  -2.18383E+3   2.02400E+3
   1.06618E+3  -2.07949E+2
   2.36296E+3   2.23406E+3
  -8.82486E+2   2.30369E+3
   1.63481E+2   3.91290E+2
  -1.82983E+3  -1.20373E+3
  -2.46974E+1  -1.38718E+3
   1.97615E+3   2.96654E+3
   3.62079E+2   1.81097E+3
  -1.96472E+3   2.15945E+3
   1.26306E+3  -7.44568E+2
   1.43386E+3   6.86822E+2
  -1.98054E+2   3.76678E+3
  -9.07670E+2   2.08570E+3
  -2.75840E+2  -1.73164E+3
  -1.63339E+3   1.02200E+3
  -5.86033E+2   2.79489E+3
  -3.21297E+3   1.06341E+3
  -1.18593E+3  -1.03633E+3
   3.52816E+2  -3.93975E+3
   2.06060E+3  -1.60901E+3
   2.95224E+3   2.40404E+3
  -1.26885E+3   1.57899E+3
  -9.17607E+2   8.46282E+2
   1.22189E+3   1.54085E+3
  -1.58733E+2   3.80994E+3
  -3.85343E+3   1.84376E+3
  -4.12517E+3   1.45730E+2
  -2.19523E+2  -2.64324E+3
   5.23346E+3   1.44419E+3
  -2.72329E+2   2.60655E+3
  -2.14669E+3   2.49223E+2
  -2.00082E+3  -4.69252E+3
   5.26064E+2  -1.90625E+3
   3.94328E+3   1.11623E+3
  -7.83284E+2   6.21651E+3
  -2.31504E+3   2.08546E+3
  -2.20178E+3   8.90546E+2
  -3.54576E+3  -3.81712E+3
  -2.25048E+3   2.38787E+2
  -1.05154E+3  -3.70710E+3
  -6.30010E+2  -3.12183E+3
   2.71399E+3  -4.95948E+3
   3.79158E+3  -1.96780E+3
   1.48126E+3   5.27674E+2
  -1.14719E+3   1.39275E+3
  -4.21784E+2   4.30061E+2
  -1.89812E+3  -1.01003E+2
  -4.30579E+3  -1.65861E+3
   2.85304E+2  -9.55506E+2
   8.18172E+2  -2.49241E+3
   1.67860E+3  -6.89251E+2
   1.42733E+3  -1.14110E+3
   3.63114E+2   1.18491E+3
  -2.60798E+3  -4.51662E+2
  -1.21140E+3  -4.08158E+3
   9.48977E+2  -8.85905E+2
   2.06044E+3   2.14031E+3
  -1.75163E+2   4.00864E+2
   8.73247E+2   5.42114E+2
   5.93132E+2   1.13594E+3
  -1.39511E+3   2.80849E+2
  -2.52015E+3   1.32691E+3
  -2.06740E+1  -2.45422E+3
   2.14221E+3  -2.70735E+2
   1.61805E+3   8.69202E+2
   1.63394E+3   2.28198E+3
  -1.83733E+3   1.96283E+3
  -2.04050E+3  -9.19035E+2
  -1.43517E+3  -2.26392E+3
   2.28602E+3  -2.07600E+3
   1.55803E+2  -3.01341E+2
   3.67635E+2  -3.98536E+2
   3.83700E+2  -8.72947E+2
   9.26397E+2   4.20424E+2
   1.13998E+3   1.88887E+3
  -1.86628E+3   1.45338E+3
  -8.28819E+2  -1.90601E+2
  -3.71765E+2   5.01690E+2
   4.46899E+2  -5.83989E+2
  -1.24976E+1   3.60820E+2
   1.54884E+3   8.43522E+2
  -3.30431E+3  -2.11278E+2
  -5.03894E+2   8.11779E+2
  -2.09528E+3  -8.15299E+2
   3.77362E+3  -1.41389E+3
   1.83307E+3  -4.14480E+1
   2.29271E+3   8.06802E+2
  -1.50067E+2   6.34333E+2
   1.63082E+2  -9.74337E+2
  -1.35335E+3  -8.13982E+2
  -9.97076E+2   4.60892E+2
  -1.98107E+2   2.14332E+3
   9.49472E+2  -1.20564E+3
   2.37330E+3  -3.43477E+2
   1.08018E+3   7.51093E+2
   6.81746E+2  -2.44192E+2
  -8.47295E+2   8.74833E+2
  -2.97739E+2  -1.06628E+3
   7.83389E+2  -1.67491E+3
   5.28047E+3   2.04550E+3
   6.58044E+2   1.10600E+3
   5.22261E+2   1.53087E+3
   6.41430E+1   5.24878E+2
   1.94709E+2  -2.26266E+3
   1.37130E+3  -3.62133E+1
   5.13114E+2  -9.80646E+2
   5.58140E+2   7.63451E+2
   2.50626E+2   1.32067E+3
   3.71779E+3   7.20874E+2
   2.25751E+3  -5.73153E+0
  -1.72112E+3   6.97777E+2
  -2.82606E+3   8.85152E+1
   1.42609E+2  -1.30716E+3
   2.67272E+3  -7.72304E+2
   1.96691E+3   2.72092E+2
  -2.51510E+2   9.71659E+2
   8.64511E+2   6.86334E+1
  -3.67236E+2   1.35692E+3
  -1.86072E+3  -2.26146E+2
  -2.01859E+3  -1.47777E+3
  -1.08699E+3  -2.44468E+3
   2.58893E+3  -1.52849E+3
   1.23608E+3  -1.43271E+0
   3.77694E+2   8.39585E+2
   1.41988E+2  -1.07021E+3
   8.14229E+2   9.26581E+2
   9.73820E+2  -7.49415E+1
  -2.01674E+2   6.92627E+2
   6.05529E+1   7.47019E+2
  -5.47001E+2  -1.13648E+3
   8.81024E+2   5.49199E+2
  -1.17556E+3   2.45619E+3
  -2.28454E+3  -1.83691E+1
  -2.94427E+3  -1.50192E+3
   6.44179E+2  -3.68880E+3
   4.09284E+3  -6.48529E+2
   2.02957E+3   2.26880E+3
   2.50866E+3   1.94969E+2
  -2.71543E+2   2.74780E+2
  -1.76793E+2  -2.22239E+3
  -6.03079E+2   1.90253E+3
   4.12860E+2   2.32349E+2
  -2.47593E+3   1.37174E+2
  -1.54184E+2  -1.57396E+2
  -7.19692E+2   1.56414E+2
  -1.51699E+3   2.11670E+3
  -2.77837E+3   2.73353E+3
  -2.01814E+3   3.66616E+2
  -3.37774E+3  -1.32407E+3
   8.43075E+1  -1.99201E+3
   4.90106E+2   1.34856E+3
   1.64926E+3   1.54104E+3
   1.30403E+3   3.96319E+2
   2.45425E+2   3.88347E+2
   4.43298E+2   4.88430E+2
  -4.14969E+2   2.97460E+2
   6.93593E+2  -1.97947E+3
   3.21103E+3  -4.25617E+2
   1.12667E+3   5.61174E+2
  -6.58135E+2  -3.55869E+2
  -1.54186E+3  -4.97075E+2
  -2.12572E+3  -2.21745E+3
  -7.01276E+2  -1.03396E+3
   1.05874E+3  -1.58059E+3
  -8.24550E+2  -3.57689E+2
   3.29374E+2  -3.91202E+2
   1.91877E+3   3.34819E+2
  -8.96064E+2   2.22097E+3
  -4.67700E+3   1.48785E+2
   2.68688E+2  -1.70241E+3
   4.18036E+2   6.13542E+2
   1.18978E+3  -1.17636E+3
  -8.57994E+1   2.04743E+3
  -1.02079E+3   1.58846E+3
  -3.07342E+3   5.99229E+2
  -1.96552E+3  -6.09316E+2
  -1.29176E+3   2.86592E+2
  -2.23991E+3  -1.15200E+3
  -1.53788E+2  -1.07495E+3
   2.09512E+3  -7.05427E+2
   5.28537E+2   1.30703E+3
  -9.98033E+2   2.17239E+3
  -2.34455E+3  -7.29778E+2
  -7.35151E+2  -1.50688E+2
   1.43531E+3  -4.85949E+2
  -1.08071E+2  -4.86861E+2
   2.78052E+3  -1.56537E+1
   1.27095E+3  -1.12983E+2
   1.62305E+3   2.36013E+2
   4.69679E+2   2.68694E+3
  -5.61711E+2  -2.59975E+2
  -2.07355E+3  -4.84087E+2
  -1.75297E+3  -8.45594E+2
   1.34492E+2   1.20809E+3
   1.26683E+3   1.90690E+3
  -2.10420E+3  -1.15191E+2
  -1.65969E+3  -6.36044E+2
  -2.02745E+3   1.60734E+2
   1.72491E+3   4.06836E+2
  -3.93269E+2  -5.34459E+2
   4.51236E+2  -8.39280E+2
  -3.28288E+2  -8.77064E+2
   1.51966E+3  -9.70103E+2
  -9.12103E+1   2.55353E+3
  -1.72497E+3   2.38942E+3
  -1.57017E+3  -9.51640E+2
  -7.48028E+2  -5.10908E+1
   1.40649E+3  -2.25909E+3
  -4.33174E+2  -1.46150E+3
  -2.18523E+3   4.08567E+2
   1.09918E+3   2.54242E+1
   5.68097E+2  -1.04142E+3
  -7.77437E+1   2.04085E+3
  -1.13356E+3  -7.75090E+2
  -4.39588E+2  -1.76624E+3
   4.97015E+2  -4.27176E+2
   1.16886E+3   4.12552E+2
   8.72834E+1   2.18869E+2
  -6.71518E+2  -1.56284E+1
  -5.23842E+2  -2.68836E+3
   2.15847E+2  -1.93398E+2
  -8.73359E+2  -8.33376E+2
   6.06380E+0   1.75682E+2
   6.04757E+2   1.86899E+3
   1.65371E+3  -1.20931E+0
   3.19394E+2  -4.88374E+2
  -1.10616E+3  -7.48880E+2
  -1.55916E+3  -5.76270E+2
   1.45050E+2  -2.05440E+3
   5.46269E+2   4.80711E+2
  -8.79036E+2   2.71755E+2
  -6.16607E+1   7.08978E+2
   5.46348E+2  -1.33764E+3
   2.81490E+3   2.22631E+3
  -8.12874E+2  -8.88378E+2
  -6.48248E+2   6.47741E+2
   1.15073E+3   3.15944E+2
   2.04102E+3   1.90916E+2
   7.18280E+2   2.38662E+3
   3.05701E+2   1.54551E+3
  -3.53630E+2   1.23058E+3
  -6.28282E+2  -5.99098E+2
   1.92599E+3  -3.04509E+3
   1.13925E+3   8.46383E+1
   8.37762E+2   5.03876E+2
  -1.02541E+3   1.54774E+2
  -1.02281E+3   1.21639E+3
   1.38988E+3   1.14450E+3
  -2.18360E+3   5.06595E+2
  -1.03777E+3   1.26978E+3
   7.81702E+2  -5.55316E+2
   3.31760E+3  -2.18560E+3
   7.92735E+2   1.00130E+3
   1.18937E+1   9.51763E+2
   1.13032E+3  -1.10861E+3
  -9.49444E+2  -1.04317E+3
  -5.06611E+2   2.86179E+3
  -1.26901E+3  -5.78349E+2
  -1.86369E+3  -8.95413E+1
   6.59117E+2   9.98299E+2
   2.82373E+3  -3.01745E+2
   1.55959E+3   5.72294E+2
  -2.24452E+3   9.21718E+2
  -2.00719E+3  -6.18741E+2
   2.11583E+3   8.93110E+1
   1.89177E+3   8.61807E+2
   9.24380E+2   5.05219E+2
  -5.39110E+2   1.08161E+3
   4.97172E+2  -2.44660E+3
   1.15482E+3  -1.78524E+1
   2.49633E+2   7.88538E+2
  -2.07191E+3  -1.00033E+3
  -6.66317E+2  -1.27793E+3
  -1.77597E+2  -1.94967E+3
   1.53545E+3   8.31605E+2
  -1.48223E+3   1.25422E+3
  -1.75576E+3   1.20539E+3
  -1.54041E+3  -2.40228E+3
   4.02061E+2  -5.39549E+2
  -1.66847E+2  -7.82546E+2
   1.15996E+3   1.62158E+3
   2.09590E+2  -9.62489E+2
   2.68509E+3  -9.98067E+2
   1.26197E+3   1.14052E+3
   1.11390E+3   6.64590E+2
  -1.60036E+3  -2.47491E+3
   3.79046E+2  -1.83751E+3
   1.90455E+3  -2.23709E+2
  -8.00387E+2   4.63251E+2
   5.13052E+2   8.26527E+2
  -1.31861E+3   9.08548E+1
   4.48377E+2  -5.63622E+2
   8.68953E+2  -7.82511E+2
   7.16076E+2   1.03276E+3
   5.03476E+2  -6.80912E+2
  -1.33385E+3   4.01319E+2
   2.26875E+3  -7.09729E+1
  -1.48100E+2   3.60834E+3
  -1.04343E+3  -1.01535E+1
