 LCModel (Version 6.3-1N) Copyright: S.W. Provencher.          Ref.: Magn. Reson. Med. 30:672-679 (1993).                
 Slice_N1@24_12  02-Jun-2023 14:37:53
 27 lines in following concentration table = NCONC+1
    Conc.  %SD /Cr+PCr  Metabolite                                         
 4.00E-06   8% 5.7E-04 Mac                                                 
    0.000 999%   0.000 Cr                                                  
 5.65E-02  13%   8.000 PCr                                                 
 6.68E-02  15%   9.448 Ins                                                 
    0.104   7%  14.689 NAA                                                 
 5.69E-02  16%   8.050 Tau                                                 
 5.19E-05 999% 7.3E-03 PCho                                                
 1.19E-02 107%   1.682 GPC                                                 
 7.39E-02  15%  10.448 Glu                                                 
 2.92E-02  26%   4.131 Gln                                                 
 9.23E-04 915%   0.131 Ala                                                 
 5.98E-02  27%   8.456 Asc                                                 
 9.99E-03  85%   1.413 Asp                                                 
 9.60E-03  49%   1.358 GABA                                                
 9.07E-03  63%   1.283 Glc                                                 
 8.98E-03  51%   1.271 GSH                                                 
    0.000 999%   0.000 Lac                                                 
    0.000 999%   0.000 NAAG                                                
    0.000 999%   0.000 PE                                                  
 1.19E-02  21%   1.690 GPC+PCho                                            
    0.104   7%  14.689 NAA+NAAG                                            
    0.103  13%  14.579 Glu+Gln                                             
 5.65E-02  13%   8.000 Cr+PCr                                              
    0.104   7%  14.689 NAA+NAAG                                            
 5.65E-02  13%   8.000 Cr+PCr                                              
    0.103  13%  14.579 Glu+Gln                                             
   6 lines in following misc. output table
  FWHM = 0.047 ppm    S/N =   3                                            
  Data shift = 0.076 ppm                                                   
  Ph: -53 deg     -14.3 deg/ppm                                            
  alphaB,S = 6.8E-01,   7.3E+01                                            
   18 spline knots.   Ns = 8(1)                                            
  ( 8) 2 infls.   ( 1) 1 extrs.                                            
  654 points on ppm-axis = NY
      4.000000     3.994181     3.988363     3.982544     3.976726     3.970907     3.965088     3.959270     3.953451     3.947633
      3.941814     3.935995     3.930177     3.924358     3.918540     3.912721     3.906902     3.901084     3.895265     3.889446
      3.883628     3.877809     3.871991     3.866172     3.860353     3.854535     3.848716     3.842898     3.837079     3.831260
      3.825442     3.819623     3.813805     3.807986     3.802167     3.796349     3.790530     3.784712     3.778893     3.773074
      3.767256     3.761437     3.755619     3.749800     3.743981     3.738163     3.732344     3.726526     3.720707     3.714888
      3.709070     3.703251     3.697433     3.691614     3.685795     3.679977     3.674158     3.668339     3.662521     3.656702
      3.650884     3.645065     3.639246     3.633428     3.627609     3.621791     3.615972     3.610153     3.604335     3.598516
      3.592698     3.586879     3.581060     3.575242     3.569423     3.563605     3.557786     3.551967     3.546149     3.540330
      3.534512     3.528693     3.522874     3.517056     3.511237     3.505419     3.499600     3.493781     3.487963     3.482144
      3.476326     3.470507     3.464688     3.458870     3.453051     3.447232     3.441414     3.435595     3.429777     3.423958
      3.418139     3.412321     3.406502     3.400684     3.394865     3.389046     3.383228     3.377409     3.371591     3.365772
      3.359953     3.354135     3.348316     3.342498     3.336679     3.330860     3.325042     3.319223     3.313405     3.307586
      3.301767     3.295949     3.290130     3.284312     3.278493     3.272674     3.266856     3.261037     3.255219     3.249400
      3.243581     3.237763     3.231944     3.226125     3.220307     3.214488     3.208670     3.202851     3.197032     3.191214
      3.185395     3.179577     3.173758     3.167939     3.162121     3.156302     3.150484     3.144665     3.138846     3.133028
      3.127209     3.121391     3.115572     3.109753     3.103935     3.098116     3.092298     3.086479     3.080660     3.074842
      3.069023     3.063205     3.057386     3.051567     3.045749     3.039930     3.034111     3.028293     3.022474     3.016656
      3.010837     3.005018     2.999200     2.993381     2.987563     2.981744     2.975925     2.970107     2.964288     2.958470
      2.952651     2.946832     2.941014     2.935195     2.929377     2.923558     2.917739     2.911921     2.906102     2.900284
      2.894465     2.888646     2.882828     2.877009     2.871191     2.865372     2.859553     2.853735     2.847916     2.842098
      2.836279     2.830460     2.824642     2.818823     2.813004     2.807186     2.801367     2.795549     2.789730     2.783911
      2.778093     2.772274     2.766456     2.760637     2.754818     2.749000     2.743181     2.737363     2.731544     2.725725
      2.719907     2.714088     2.708270     2.702451     2.696632     2.690814     2.684995     2.679177     2.673358     2.667539
      2.661721     2.655902     2.650084     2.644265     2.638446     2.632628     2.626809     2.620991     2.615172     2.609353
      2.603535     2.597716     2.591897     2.586079     2.580260     2.574442     2.568623     2.562804     2.556986     2.551167
      2.545349     2.539530     2.533711     2.527893     2.522074     2.516256     2.510437     2.504618     2.498800     2.492981
      2.487163     2.481344     2.475525     2.469707     2.463888     2.458070     2.452251     2.446432     2.440614     2.434795
      2.428977     2.423158     2.417339     2.411521     2.405702     2.399884     2.394065     2.388246     2.382428     2.376609
      2.370790     2.364972     2.359153     2.353335     2.347516     2.341697     2.335879     2.330060     2.324242     2.318423
      2.312604     2.306786     2.300967     2.295149     2.289330     2.283511     2.277693     2.271874     2.266056     2.260237
      2.254418     2.248600     2.242781     2.236963     2.231144     2.225325     2.219507     2.213688     2.207870     2.202051
      2.196232     2.190414     2.184595     2.178777     2.172958     2.167139     2.161321     2.155502     2.149683     2.143865
      2.138046     2.132228     2.126409     2.120590     2.114772     2.108953     2.103135     2.097316     2.091497     2.085679
      2.079860     2.074042     2.068223     2.062404     2.056586     2.050767     2.044949     2.039130     2.033311     2.027493
      2.021674     2.015856     2.010037     2.004218     1.998400     1.992581     1.986763     1.980944     1.975126     1.969307
      1.963489     1.957670     1.951852     1.946033     1.940215     1.934397     1.928578     1.922760     1.916941     1.911123
      1.905304     1.899486     1.893667     1.887849     1.882030     1.876212     1.870393     1.864575     1.858756     1.852938
      1.847119     1.841301     1.835482     1.829664     1.823845     1.818027     1.812208     1.806390     1.800571     1.794753
      1.788934     1.783116     1.777297     1.771479     1.765660     1.759842     1.754023     1.748205     1.742386     1.736568
      1.730749     1.724931     1.719113     1.713294     1.707476     1.701657     1.695839     1.690020     1.684202     1.678383
      1.672565     1.666746     1.660928     1.655109     1.649291     1.643472     1.637654     1.631835     1.626017     1.620198
      1.614380     1.608561     1.602743     1.596924     1.591106     1.585287     1.579469     1.573650     1.567832     1.562013
      1.556195     1.550376     1.544558     1.538739     1.532921     1.527102     1.521284     1.515465     1.509647     1.503829
      1.498010     1.492192     1.486373     1.480555     1.474736     1.468918     1.463099     1.457281     1.451462     1.445644
      1.439825     1.434007     1.428188     1.422370     1.416551     1.410733     1.404914     1.399096     1.393277     1.387459
      1.381640     1.375822     1.370003     1.364185     1.358366     1.352548     1.346729     1.340911     1.335092     1.329274
      1.323455     1.317637     1.311818     1.306000     1.300182     1.294363     1.288545     1.282726     1.276908     1.271089
      1.265271     1.259452     1.253634     1.247815     1.241997     1.236178     1.230360     1.224541     1.218723     1.212904
      1.207086     1.201267     1.195449     1.189630     1.183812     1.177993     1.172175     1.166356     1.160538     1.154719
      1.148901     1.143082     1.137264     1.131445     1.125627     1.119808     1.113990     1.108171     1.102353     1.096534
      1.090716     1.084898     1.079079     1.073261     1.067442     1.061624     1.055805     1.049987     1.044168     1.038350
      1.032531     1.026713     1.020894     1.015076     1.009257     1.003439     0.997620     0.991802     0.985983     0.980165
      0.974346     0.968528     0.962709     0.956891     0.951072     0.945254     0.939435     0.933617     0.927798     0.921980
      0.916161     0.910343     0.904524     0.898706     0.892887     0.887069     0.881251     0.875432     0.869614     0.863795
      0.857977     0.852158     0.846340     0.840521     0.834703     0.828884     0.823066     0.817247     0.811429     0.805610
      0.799792     0.793973     0.788155     0.782336     0.776518     0.770699     0.764881     0.759062     0.753244     0.747425
      0.741607     0.735788     0.729970     0.724151     0.718333     0.712514     0.706696     0.700877     0.695059     0.689240
      0.683422     0.677603     0.671785     0.665967     0.660148     0.654330     0.648511     0.642693     0.636874     0.631056
      0.625237     0.619419     0.613600     0.607782     0.601963     0.596145     0.590326     0.584508     0.578689     0.572871
      0.567052     0.561234     0.555415     0.549597     0.543778     0.537960     0.532141     0.526323     0.520504     0.514686
      0.508867     0.503049     0.497230     0.491412     0.485593     0.479775     0.473956     0.468138     0.462319     0.456501
      0.450682     0.444864     0.439045     0.433227     0.427408     0.421590     0.415771     0.409953     0.404134     0.398316
      0.392497     0.386679     0.380860     0.375042     0.369223     0.363405     0.357586     0.351767     0.345949     0.340130
      0.334312     0.328493     0.322675     0.316856     0.311038     0.305219     0.299401     0.293582     0.287764     0.281945
      0.276127     0.270308     0.264490     0.258671     0.252853     0.247034     0.241216     0.235397     0.229579     0.223760
      0.217942     0.212123     0.206305     0.200486
 NY phased data points follow
  -3.85182E-01 -2.00688E-01 -7.08081E-02 -1.43599E-01  2.09189E-01  3.67430E-01  2.70996E-01  2.67194E-01  5.04320E-01  3.26107E-01
   3.62336E-01  3.96325E-01  3.16650E-01  3.42366E-02  1.97347E-01  1.67195E-01  3.75885E-01  2.66475E-01  1.18854E-01  2.56042E-01
  -1.31472E-01  1.49049E-01 -1.04561E-01  2.13277E-02  4.01108E-02  5.37214E-03 -1.25022E-02 -1.70070E-01 -1.89627E-01 -3.65673E-01
  -2.28331E-01 -3.27892E-01 -4.51281E-01 -5.82320E-01 -4.07239E-01 -4.04650E-01 -3.47493E-01 -4.05814E-01 -3.14228E-01 -4.78418E-01
  -2.46998E-01  9.26114E-02 -2.69008E-02  4.66875E-01  3.92793E-01  5.49301E-01  2.69758E-01  1.54167E-01  2.71629E-01  3.15286E-01
   6.73600E-01  3.59419E-01  1.31407E-01 -7.73516E-02  4.09365E-02  1.62915E-01 -7.42690E-02 -2.13767E-01 -1.35867E-01 -1.59641E-02
  -5.51935E-02  1.97149E-02  3.00284E-02 -6.79343E-02  1.31266E-01 -7.91462E-02 -1.58061E-01  1.83948E-01  1.27464E-01  1.88035E-01
   2.62128E-01  1.18262E-01 -2.84720E-01 -1.78656E-01  1.04114E-01  5.57411E-02  8.30186E-02 -6.73388E-02 -2.41994E-01 -3.68066E-01
  -2.71879E-01 -7.98258E-02 -4.90274E-02 -9.20998E-04  2.27668E-01  1.59814E-02  6.24980E-02  4.95087E-01  1.29773E-01  9.15886E-02
   1.48821E-01  4.34721E-02  1.16864E-01 -2.10680E-01  1.65838E-01  1.39771E-01 -1.62308E-01  1.83122E-01 -1.34763E-01 -1.26487E-01
  -8.43941E-02 -1.52240E-01 -1.63837E-01 -2.26112E-01 -6.74447E-02 -4.82618E-02  3.25758E-01  4.21839E-01  3.46895E-01  3.26511E-01
   3.88596E-01  3.63853E-01  5.06230E-02  1.55562E-01  4.46558E-01  4.95087E-01  1.79676E-01  2.66031E-01  3.27958E-01  1.96067E-02
   1.11000E-03  3.38461E-04  2.22361E-02 -1.25240E-01 -2.24157E-01 -1.05377E-01 -2.16889E-01 -3.45376E-01 -2.92131E-01 -3.26207E-01
  -5.75991E-01 -5.08420E-01 -4.18367E-01 -5.90079E-01 -3.56674E-01 -5.98260E-01 -6.82849E-01 -4.81803E-01 -5.97022E-01 -3.44294E-01
  -3.41056E-01 -2.52638E-01 -1.64001E-01 -2.39502E-01 -1.69368E-01  3.18441E-01  3.33616E-01  7.98875E-02  1.24704E-01  1.68300E-01
   3.27032E-01 -2.79791E-01 -5.44315E-02  1.55682E-01  4.17895E-03 -1.91078E-02  2.23096E-01  6.74595E-01  2.12972E-01  5.73709E-01
   5.06274E-01  3.63203E-01  4.61717E-01  3.59532E-01  7.36841E-01  4.52639E-01  1.84518E-01  1.89048E-01 -1.97210E-01 -5.26815E-01
  -3.11166E-01 -5.12860E-01 -6.18233E-01 -4.43663E-01 -5.82515E-01 -4.68186E-01 -5.37848E-01 -4.46174E-01 -2.13134E-01 -4.61390E-01
  -3.62098E-01 -3.25878E-01 -3.75607E-01 -2.17043E-01 -2.42951E-01 -1.99966E-01 -1.71621E-01 -5.42244E-02 -4.21677E-01 -3.87518E-01
  -3.39453E-02 -1.33614E-01 -3.00151E-01 -2.00147E-01  4.51188E-02 -4.40051E-01 -2.10233E-01 -1.34783E-01 -4.62672E-01 -9.75290E-02
  -2.37926E-01 -7.43107E-02  1.02452E-01 -1.59542E-01  1.05475E-01 -1.83627E-01 -2.20697E-01  6.09722E-02 -1.01122E-01  2.09646E-01
   1.20652E-01  4.44758E-02 -7.53954E-02  1.57916E-02  7.01641E-03  7.65680E-02  2.88373E-01 -1.24937E-01  1.62008E-01  6.56682E-02
   6.99841E-02 -4.03090E-02  5.12851E-02  1.25311E-01 -7.22657E-02  3.92816E-01  9.20592E-02  3.19560E-01  2.89830E-01  3.70847E-01
   5.07479E-01  3.10630E-01  4.05105E-01  1.84615E-01  3.41798E-01  1.30273E-01  2.10387E-01 -1.56650E-01 -2.07529E-01  1.22181E-01
  -1.87022E-01 -1.61299E-01 -2.09931E-01  1.82337E-03 -1.19883E-01 -2.22018E-01 -9.56132E-02 -1.65207E-04 -2.28987E-01 -1.98720E-01
  -4.57838E-02 -1.66987E-01  7.31409E-02 -4.87927E-02  6.69830E-03 -7.28082E-02  8.63964E-02  3.25177E-01  2.21110E-01  1.60233E-02
  -2.20766E-01  1.89669E-01  1.86363E-01  1.27194E-01  4.23740E-01  1.06272E-01 -1.37869E-01  2.09963E-01  3.58229E-01  2.41233E-01
   2.86606E-01  5.30980E-01  3.97201E-01  1.27449E-01 -2.18062E-02 -7.18091E-02 -1.48555E-01 -2.93071E-01 -9.16236E-02 -1.28804E-01
  -3.57526E-02 -1.14448E-01 -4.09905E-01 -3.10875E-01  1.09421E-01  2.96409E-01  1.16786E-01  3.83692E-01  4.93518E-01  4.32895E-01
   3.46349E-01  4.17253E-01  3.96556E-01  2.43810E-02  5.35576E-02  2.13737E-01  2.45300E-01  9.55954E-02  2.79933E-01  4.16892E-01
  -6.32726E-02  6.36046E-02  3.74117E-01  2.39810E-01  3.25447E-01  3.08006E-01  3.86298E-01  5.16432E-01  4.04637E-01  5.11907E-01
   3.03624E-01  4.15679E-01  4.98992E-01  1.19477E-01  3.38769E-01  2.76109E-01  1.21030E-01 -1.56019E-01 -2.25569E-01 -9.06289E-02
  -3.35290E-01 -3.83462E-01 -2.81164E-01 -1.53440E-01 -5.02408E-01 -4.35752E-01 -2.56708E-01 -4.17152E-01 -1.67202E-01  1.11208E-01
  -5.90766E-02  8.01992E-02  4.13477E-02 -8.02768E-02  4.89922E-02 -4.93435E-01 -1.61018E-01 -3.50309E-01 -5.15466E-01 -4.79163E-01
  -1.09853E+00 -9.33952E-01 -1.14427E+00 -1.04759E+00 -8.85234E-01 -9.18928E-01 -5.38967E-01 -4.67230E-01 -3.85071E-01  7.82357E-02
  -9.89636E-02 -2.04978E-01  2.81951E-01  2.82295E-01 -4.67071E-02  6.47410E-02  1.89062E-01 -1.21703E-01  1.33030E-01  2.30126E-02
  -4.53763E-02  1.61566E-01 -7.79132E-02 -4.74650E-02  2.82705E-01  6.54462E-03 -1.58899E-01  2.17233E-01 -5.18128E-02  9.30964E-02
   1.05042E-01  3.10781E-02  9.62872E-02  9.68263E-02 -1.43235E-01 -1.22419E-01  3.84207E-01 -1.94534E-02  4.53643E-02 -1.13976E-01
  -5.40945E-02  2.57082E-01  2.18923E-01  3.29293E-01  2.35796E-02  1.80683E-01  2.15212E-01  3.58026E-01  2.21704E-01  2.11795E-01
   3.57488E-01  2.01891E-01  3.17789E-01  9.57356E-03  2.01999E-01  2.49560E-01  2.21900E-01  3.92569E-01  7.56758E-02 -4.46360E-02
  -1.30323E-02 -1.13924E-01  3.71543E-02  1.29284E-01 -8.90060E-02  3.17544E-02  1.10314E-01 -1.16057E-01 -3.08244E-01  3.85497E-02
  -4.32205E-02  1.11274E-02  1.26098E-01 -6.35416E-02  7.79906E-02 -2.27042E-01 -3.20181E-01 -3.34186E-01 -1.89062E-01 -2.59063E-01
  -2.49804E-01 -8.03017E-02  1.04290E-01 -9.77662E-03 -1.22873E-01 -6.58636E-02 -2.44671E-01  7.47099E-02 -1.53774E-01 -1.34963E-01
  -2.75331E-01 -5.06823E-02  6.73993E-02 -6.21242E-02  1.46022E-01  1.31635E-01  2.64320E-01 -1.01504E-02  1.99921E-01 -8.05950E-02
   1.41721E-01  3.99545E-01  3.31540E-01  2.55841E-01  1.47504E-01  4.83164E-01  3.80034E-01  4.20568E-01  3.16637E-01  7.13953E-01
   5.21047E-01  1.99103E-01  3.68305E-01  9.74398E-02 -1.15174E-01  5.23091E-02  8.26953E-02 -1.04368E-01 -1.80806E-01 -2.26654E-01
  -7.48344E-02 -2.86672E-01 -1.77632E-01 -5.26563E-01 -3.74968E-01  1.23746E-01 -2.89842E-01 -2.54310E-01 -2.28274E-01 -3.61228E-01
  -5.88659E-01 -4.75098E-01 -3.30828E-01 -4.78176E-01 -3.64533E-01 -1.95819E-01 -1.71658E-01 -1.86467E-01 -2.04009E-01 -1.49463E-01
  -1.91825E-01  8.60880E-02  2.00486E-01 -5.71071E-02  2.51196E-02  3.97461E-04  2.01327E-01  1.67834E-01  2.04769E-01  3.01703E-01
   1.72155E-01  1.46979E-01  1.06135E-01  2.18120E-01 -6.31676E-02  1.45660E-02  1.56543E-01  2.10680E-01  3.21539E-01  1.75606E-01
   1.69451E-01  1.48613E-01  4.05199E-01  2.85593E-01  1.59809E-01  5.05996E-02  2.19371E-02  3.53121E-01 -4.71507E-02 -4.05952E-02
   2.65040E-01  1.44061E-01  1.01488E-01  1.36406E-01  1.20941E-01  8.03671E-02 -7.39642E-02 -1.90295E-01 -2.14967E-01 -2.50166E-01
  -4.14219E-02  1.97018E-02 -4.48544E-01 -7.29977E-01 -2.19335E-01 -2.49573E-01 -3.54993E-01 -5.43895E-01 -6.54117E-01 -4.04474E-01
  -6.96787E-01 -5.69242E-01 -3.37255E-01 -1.06248E-01 -3.88319E-01 -2.17274E-01 -1.52008E-01 -4.66965E-01 -1.25541E-01 -2.37173E-01
  -3.61155E-01 -7.11529E-01 -4.10850E-01 -9.68953E-02 -2.01054E-01 -6.38684E-03 -2.58512E-01 -2.94560E-01  3.30405E-02 -2.01347E-01
  -3.64868E-01  2.03786E-01  2.28260E-01  9.40216E-02  1.44298E-01  8.63609E-02  1.68996E-01  5.85832E-02  4.38599E-02 -6.43758E-02
  -1.32081E-01  1.52697E-01 -1.42610E-01 -2.64698E-01  2.41467E-01  1.32739E-01 -2.36583E-01 -1.33951E-01  4.81693E-02  1.12997E-01
   1.39601E-01  3.14199E-01  5.81336E-02 -1.72400E-01  2.50794E-01  1.73578E-02 -1.44257E-01  5.65500E-02  6.74848E-02  1.18519E-01
   1.59590E-01  1.68927E-02 -6.98473E-03 -6.12664E-02 -8.37172E-02  7.30651E-02 -3.35324E-03  1.03198E-01 -6.85448E-02  2.27347E-01
   7.37285E-02 -1.40037E-01  2.78584E-02 -1.10251E-01 -5.21861E-02  8.33124E-02  1.16055E-01 -2.94431E-01  2.60979E-01  1.64301E-01
   4.59463E-03  2.61695E-01  2.93246E-01  2.23364E-01  7.96396E-02  2.49870E-01  6.37386E-02  1.06446E-01 -1.57774E-01 -5.29185E-03
  -1.12671E-01  2.15265E-01  8.30330E-02 -9.04786E-03  5.53405E-01  9.69790E-02  2.47723E-01 -5.30957E-03  7.35085E-02  1.72941E-01
  -9.06519E-02  2.15346E-02  3.13575E-02  5.89802E-02  4.15108E-01  1.32780E-01 -1.08318E-04  2.78613E-01 -1.40371E-02  4.44243E-01
   2.70418E-01  1.71953E-01  1.22007E-01 -2.25289E-01 -9.62611E-02  1.04157E-01  2.26049E-02  2.51272E-02  2.35849E-01  1.01910E-01
   2.34290E-01  6.40638E-02  2.20765E-01  1.75559E-01  1.67884E-01  8.65365E-02  1.49726E-02  1.75913E-01 -1.49725E-01  1.20589E-01
   5.62853E-02  2.34013E-01  1.85954E-01  1.34697E-01
 NY points of the fit to the data follow
   1.81735E-01  1.62032E-01  1.38538E-01  1.16825E-01  1.08914E-01  1.19320E-01  1.40229E-01  1.70939E-01  2.14775E-01  2.72900E-01
   3.35600E-01  3.85398E-01  4.10394E-01  4.05180E-01  3.74002E-01  3.25780E-01  2.68432E-01  2.06837E-01  1.45924E-01  9.26365E-02
   5.11069E-02  1.88092E-02 -1.08154E-02 -4.08712E-02 -7.03219E-02 -9.83835E-02 -1.24859E-01 -1.49674E-01 -1.72911E-01 -1.95290E-01
  -2.18333E-01 -2.42453E-01 -2.67952E-01 -2.90616E-01 -3.09992E-01 -3.25366E-01 -3.27688E-01 -3.15189E-01 -2.77334E-01 -2.17950E-01
  -1.40898E-01 -4.80476E-02  5.30804E-02  1.56164E-01  2.49843E-01  3.23652E-01  3.70240E-01  3.87128E-01  3.77725E-01  3.46448E-01
   2.99737E-01  2.43546E-01  1.84700E-01  1.28351E-01  7.55369E-02  2.83129E-02 -1.09072E-02 -4.54230E-02 -7.41237E-02 -9.54549E-02
  -1.13982E-01 -1.24427E-01 -1.23835E-01 -1.08501E-01 -7.66803E-02 -3.08807E-02  2.73433E-02  9.05684E-02  1.49075E-01  1.93908E-01
   2.18165E-01  2.17683E-01  1.88440E-01  1.39135E-01  8.08513E-02  1.42359E-02 -5.48870E-02 -1.15802E-01 -1.56753E-01 -1.70732E-01
  -1.55894E-01 -1.11768E-01 -4.51402E-02  3.32857E-02  1.12739E-01  1.82698E-01  2.34283E-01  2.62067E-01  2.67865E-01  2.56853E-01
   2.31132E-01  1.95537E-01  1.47324E-01  9.63693E-02  4.10583E-02 -1.64103E-02 -7.17557E-02 -1.21465E-01 -1.54566E-01 -1.64758E-01
  -1.47158E-01 -1.04180E-01 -4.42979E-02  2.33012E-02  8.86484E-02  1.45105E-01  1.87854E-01  2.15377E-01  2.29484E-01  2.33514E-01
   2.32744E-01  2.29608E-01  2.26540E-01  2.23400E-01  2.19593E-01  2.12237E-01  2.03189E-01  1.90974E-01  1.72302E-01  1.49052E-01
   1.17195E-01  7.65101E-02  2.58060E-02 -3.26633E-02 -9.46420E-02 -1.59013E-01 -2.21971E-01 -2.82371E-01 -3.54144E-01 -4.20641E-01
  -4.70015E-01 -5.03815E-01 -5.31967E-01 -5.64359E-01 -5.90959E-01 -6.00142E-01 -5.82178E-01 -5.35029E-01 -4.66503E-01 -3.86196E-01
  -3.00185E-01 -2.10818E-01 -1.25472E-01 -5.48926E-02 -3.91150E-03  3.19893E-02  6.18082E-02  8.74490E-02  1.10076E-01  1.30545E-01
   1.49592E-01  1.67682E-01  1.85402E-01  2.03524E-01  2.22801E-01  2.43901E-01  2.67855E-01  2.96907E-01  3.35735E-01  3.85976E-01
   4.16401E-01  4.31790E-01  4.38459E-01  4.29659E-01  3.86511E-01  2.87426E-01  1.41140E-01 -3.10532E-02 -1.99226E-01 -3.37270E-01
  -4.36275E-01 -4.97402E-01 -5.23865E-01 -5.14932E-01 -4.78692E-01 -4.34490E-01 -3.98299E-01 -3.73970E-01 -3.53430E-01 -3.34749E-01
  -3.17139E-01 -3.00753E-01 -2.85973E-01 -2.72636E-01 -2.60082E-01 -2.47804E-01 -2.35697E-01 -2.23941E-01 -2.12422E-01 -2.00862E-01
  -1.88933E-01 -1.76670E-01 -1.64298E-01 -1.51969E-01 -1.39605E-01 -1.27223E-01 -1.15161E-01 -1.03763E-01 -9.30879E-02 -8.27611E-02
  -7.29525E-02 -6.44160E-02 -5.78065E-02 -5.29159E-02 -4.90589E-02 -4.59765E-02 -4.38779E-02 -4.29905E-02 -4.32477E-02 -4.40427E-02
  -4.46724E-02 -4.47046E-02 -4.42702E-02 -4.35908E-02 -4.25524E-02 -4.09734E-02 -3.84075E-02 -3.14622E-02 -1.93366E-02 -3.73920E-03
   1.48554E-02  3.89407E-02  7.53626E-02  1.22726E-01  1.69532E-01  2.09574E-01  2.42031E-01  2.68997E-01  2.88788E-01  2.94986E-01
   2.82483E-01  2.50074E-01  2.03436E-01  1.51378E-01  9.95794E-02  4.96880E-02  3.66800E-03 -3.41282E-02 -6.07361E-02 -7.77460E-02
  -8.93369E-02 -9.87634E-02 -1.06232E-01 -1.12541E-01 -1.18061E-01 -1.23042E-01 -1.28356E-01 -1.34304E-01 -1.42339E-01 -1.47557E-01
  -1.52442E-01 -1.59618E-01 -1.61905E-01 -1.57682E-01 -1.42942E-01 -1.21128E-01 -9.27380E-02 -5.60102E-02 -1.77018E-02  2.13043E-02
   5.62838E-02  8.59871E-02  1.09406E-01  1.25983E-01  1.39141E-01  1.48271E-01  1.53727E-01  1.54780E-01  1.52159E-01  1.45120E-01
   1.30842E-01  1.09492E-01  8.14818E-02  4.81052E-02  8.44692E-03 -3.52360E-02 -8.09087E-02 -1.25747E-01 -1.64055E-01 -1.94674E-01
  -2.11133E-01 -2.08399E-01 -1.82758E-01 -1.31904E-01 -6.08487E-02  2.35855E-02  1.09342E-01  1.85391E-01  2.43757E-01  2.79707E-01
   2.94346E-01  2.91777E-01  2.79239E-01  2.63742E-01  2.50500E-01  2.42483E-01  2.39722E-01  2.40992E-01  2.43644E-01  2.45839E-01
   2.46666E-01  2.45665E-01  2.42940E-01  2.38570E-01  2.32685E-01  2.25083E-01  2.15419E-01  2.03086E-01  1.87395E-01  1.67229E-01
   1.42020E-01  1.10980E-01  7.42853E-02  3.13949E-02 -1.72879E-02 -7.01929E-02 -1.25641E-01 -1.79810E-01 -2.29688E-01 -2.70352E-01
  -2.98260E-01 -3.10623E-01 -3.05952E-01 -2.85646E-01 -2.51194E-01 -2.07923E-01 -1.61323E-01 -1.16999E-01 -8.18085E-02 -5.80274E-02
  -4.86815E-02 -5.09986E-02 -6.25993E-02 -8.08784E-02 -1.23717E-01 -2.08156E-01 -3.04514E-01 -4.08906E-01 -5.36292E-01 -7.00068E-01
  -8.84975E-01 -1.04159E+00 -1.13002E+00 -1.12647E+00 -1.03644E+00 -8.88236E-01 -7.10199E-01 -5.22193E-01 -3.40840E-01 -1.91312E-01
  -9.22655E-02 -4.02157E-02 -1.38512E-02  4.19441E-03  1.67057E-02  2.44859E-02  2.88596E-02  3.01515E-02  2.90721E-02  2.62525E-02
   2.20952E-02  1.76888E-02  1.39364E-02  1.19567E-02  1.25028E-02  1.58538E-02  2.17324E-02  2.95465E-02  3.87818E-02  4.87207E-02
   5.87901E-02  6.83131E-02  7.69040E-02  8.45812E-02  9.14835E-02  9.79076E-02  1.03917E-01  1.09527E-01  1.14719E-01  1.19534E-01
   1.24111E-01  1.28599E-01  1.32865E-01  1.36871E-01  1.40591E-01  1.44120E-01  1.47532E-01  1.50852E-01  1.54005E-01  1.56781E-01
   1.58895E-01  1.60047E-01  1.59929E-01  1.58397E-01  1.55416E-01  1.51012E-01  1.45181E-01  1.38077E-01  1.29885E-01  1.20720E-01
   1.10653E-01  9.98117E-02  8.84607E-02  7.68040E-02  6.52246E-02  5.39375E-02  4.30846E-02  3.28051E-02  2.31899E-02  1.43367E-02
   6.27860E-03 -1.07460E-03 -7.75899E-03 -1.38647E-02 -1.94516E-02 -2.44353E-02 -2.87697E-02 -3.24429E-02 -3.53515E-02 -3.73774E-02
  -3.83729E-02 -3.81170E-02 -3.65469E-02 -3.37062E-02 -2.97689E-02 -2.47737E-02 -1.85472E-02 -1.13229E-02 -3.36465E-03  4.99377E-03
   1.36731E-02  2.28754E-02  3.27878E-02  4.35021E-02  5.48087E-02  6.65237E-02  7.87276E-02  9.16502E-02  1.05547E-01  1.20500E-01
   1.36367E-01  1.53048E-01  1.70240E-01  1.87626E-01  2.04643E-01  2.20566E-01  2.34694E-01  2.46440E-01  2.55412E-01  2.61432E-01
   2.64328E-01  2.64187E-01  2.61119E-01  2.55286E-01  2.46732E-01  2.35627E-01  2.22179E-01  2.06848E-01  1.90247E-01  1.72852E-01
   1.55136E-01  1.37485E-01  1.20373E-01  1.04144E-01  8.89813E-02  7.49439E-02  6.20435E-02  5.04481E-02  4.03255E-02  3.16672E-02
   2.45309E-02  1.90362E-02  1.52953E-02  1.34870E-02  1.36490E-02  1.56651E-02  1.93096E-02  2.43476E-02  3.05952E-02  3.76705E-02
   4.51809E-02  5.27475E-02  6.00598E-02  6.67936E-02  7.26937E-02  7.77141E-02  8.18391E-02  8.51683E-02  8.75322E-02  8.88483E-02
   8.90713E-02  8.81317E-02  8.60443E-02  8.27677E-02  7.84387E-02  7.32273E-02  6.73687E-02  6.11607E-02  5.47111E-02  4.80515E-02
   4.12971E-02  3.45118E-02  2.76813E-02  2.07750E-02  1.38587E-02  7.03655E-03  2.74099E-04 -6.54829E-03 -1.35241E-02 -2.08551E-02
  -2.87545E-02 -3.75372E-02 -4.75889E-02 -5.91569E-02 -7.24200E-02 -8.73480E-02 -1.04107E-01 -1.22931E-01 -1.43936E-01 -1.66889E-01
  -1.91330E-01 -2.16818E-01 -2.42786E-01 -2.68431E-01 -2.92887E-01 -3.15500E-01 -3.35704E-01 -3.52847E-01 -3.66387E-01 -3.76060E-01
  -3.81709E-01 -3.83402E-01 -3.81373E-01 -3.76014E-01 -3.67658E-01 -3.56887E-01 -3.44426E-01 -3.30828E-01 -3.16359E-01 -3.01094E-01
  -2.85155E-01 -2.68544E-01 -2.51304E-01 -2.33502E-01 -2.15101E-01 -1.96268E-01 -1.77382E-01 -1.58782E-01 -1.40697E-01 -1.23107E-01
  -1.06179E-01 -9.02841E-02 -7.54803E-02 -6.16298E-02 -4.87749E-02 -3.69293E-02 -2.61713E-02 -1.65727E-02 -8.00861E-03 -3.92256E-04
   6.35263E-03  1.21482E-02  1.70257E-02  2.12060E-02  2.47805E-02  2.78950E-02  3.06310E-02  3.30823E-02  3.53983E-02  3.77769E-02
   4.03473E-02  4.29486E-02  4.54419E-02  4.77191E-02  4.96282E-02  5.10899E-02  5.20189E-02  5.24753E-02  5.25927E-02  5.24593E-02
   5.22536E-02  5.21311E-02  5.20100E-02  5.18086E-02  5.17278E-02  5.18214E-02  5.18545E-02  5.15570E-02  5.08919E-02  5.01179E-02
   4.92453E-02  4.83545E-02  4.75422E-02  4.69253E-02  4.64879E-02  4.61536E-02  4.60109E-02  4.60829E-02  4.64231E-02  4.71050E-02
   4.81687E-02  4.95787E-02  5.12693E-02  5.31748E-02  5.51900E-02  5.71335E-02  5.89486E-02  6.05429E-02  6.18840E-02  6.29791E-02
   6.38023E-02  6.44498E-02  6.49931E-02  6.56988E-02  6.68331E-02  6.83660E-02  7.02704E-02  7.24451E-02  7.47854E-02  7.73120E-02
   7.99284E-02  8.25597E-02  8.50037E-02  8.69998E-02  8.84853E-02  8.96722E-02  9.07400E-02  9.17973E-02  9.28518E-02  9.37981E-02
   9.47614E-02  9.59344E-02  9.73880E-02  9.89562E-02  1.00567E-01  1.02319E-01  1.04341E-01  1.06744E-01  1.09374E-01  1.12243E-01
   1.15372E-01  1.18781E-01  1.22570E-01  1.26728E-01  1.31381E-01  1.36548E-01  1.42188E-01  1.48382E-01  1.54910E-01  1.61560E-01
   1.68293E-01  1.75146E-01  1.82250E-01  1.89652E-01
 NY background values follow
     4.159E-02    4.174E-02    4.190E-02    4.205E-02    4.220E-02    4.235E-02    4.251E-02    4.266E-02    4.281E-02    4.296E-02
     4.312E-02    4.327E-02    4.342E-02    4.357E-02    4.373E-02    4.388E-02    4.403E-02    4.418E-02    4.434E-02    4.449E-02
     4.464E-02    4.479E-02    4.494E-02    4.509E-02    4.525E-02    4.540E-02    4.555E-02    4.570E-02    4.585E-02    4.600E-02
     4.615E-02    4.630E-02    4.645E-02    4.660E-02    4.675E-02    4.690E-02    4.705E-02    4.720E-02    4.735E-02    4.750E-02
     4.765E-02    4.779E-02    4.794E-02    4.809E-02    4.824E-02    4.838E-02    4.853E-02    4.868E-02    4.882E-02    4.897E-02
     4.912E-02    4.926E-02    4.941E-02    4.955E-02    4.969E-02    4.984E-02    4.998E-02    5.013E-02    5.027E-02    5.041E-02
     5.055E-02    5.069E-02    5.084E-02    5.098E-02    5.112E-02    5.126E-02    5.139E-02    5.153E-02    5.167E-02    5.181E-02
