 
 $NMID
 ID=''
 FMTDAT='(2E13.5)'
 TRAMP=   1.00000E+0
 VOLUME=   1.00000E+0
 $END
  -1.91931E+4  -3.29786E+3
  -4.54945E+4  -2.15996E+4
  -4.92333E+4  -1.24832E+4
  -4.58662E+4  -1.00918E+4
  -4.74229E+4  -1.06280E+4
  -4.82102E+4  -7.26249E+3
  -4.62883E+4  -6.05857E+3
  -4.65604E+4  -6.12614E+3
  -4.67499E+4  -3.80951E+3
  -4.53377E+4  -2.79827E+3
  -4.51511E+4  -2.65598E+3
  -4.50325E+4  -6.74191E+2
  -4.39939E+4   4.21418E+2
  -4.38670E+4   5.16387E+2
  -4.35461E+4   1.76330E+3
  -4.25855E+4   2.56105E+3
  -4.23718E+4   2.89282E+3
  -4.21488E+4   4.02228E+3
  -4.13255E+4   4.93981E+3
  -4.10744E+4   5.24834E+3
  -4.06245E+4   6.42123E+3
  -3.99443E+4   7.56117E+3
  -3.96861E+4   8.07482E+3
  -3.92567E+4   9.05253E+3
  -3.83483E+4   9.92249E+3
  -3.79090E+4   1.06477E+4
  -3.75301E+4   1.14521E+4
  -3.66888E+4   1.22519E+4
  -3.61635E+4   1.27721E+4
  -3.56558E+4   1.36915E+4
  -3.48182E+4   1.45407E+4
  -3.43584E+4   1.52430E+4
  -3.38557E+4   1.59591E+4
  -3.29778E+4   1.65439E+4
  -3.22727E+4   1.74131E+4
  -3.15977E+4   1.80441E+4
  -3.06977E+4   1.87294E+4
  -2.98761E+4   1.93933E+4
  -2.91657E+4   2.00599E+4
  -2.82822E+4   2.06564E+4
  -2.75182E+4   2.11618E+4
  -2.68407E+4   2.15924E+4
  -2.60150E+4   2.18487E+4
  -2.50775E+4   2.22636E+4
  -2.42642E+4   2.26715E+4
  -2.35501E+4   2.30744E+4
  -2.28231E+4   2.33289E+4
  -2.20357E+4   2.36657E+4
  -2.12446E+4   2.40270E+4
  -2.04428E+4   2.42797E+4
  -1.96769E+4   2.45060E+4
  -1.88908E+4   2.47248E+4
  -1.81113E+4   2.48786E+4
  -1.73153E+4   2.51286E+4
  -1.65450E+4   2.53337E+4
  -1.58039E+4   2.54360E+4
  -1.50393E+4   2.55067E+4
  -1.42801E+4   2.55136E+4
  -1.34997E+4   2.54944E+4
  -1.27460E+4   2.54488E+4
  -1.20582E+4   2.54801E+4
  -1.13045E+4   2.54648E+4
  -1.05613E+4   2.55465E+4
  -9.93130E+3   2.55600E+4
  -9.29567E+3   2.54758E+4
  -8.52896E+3   2.54946E+4
  -7.82644E+3   2.54425E+4
  -7.19336E+3   2.53339E+4
  -6.51208E+3   2.52977E+4
  -5.90978E+3   2.51544E+4
  -5.19920E+3   2.50750E+4
  -4.53914E+3   2.49657E+4
  -3.93084E+3   2.47691E+4
  -3.24516E+3   2.46140E+4
  -2.66028E+3   2.44307E+4
  -2.04367E+3   2.43275E+4
  -1.43848E+3   2.41593E+4
  -8.90810E+2   2.39189E+4
  -3.31733E+2   2.37150E+4
   3.47374E+2   2.36148E+4
   8.25521E+2   2.33710E+4
   1.26377E+3   2.30828E+4
   1.73581E+3   2.28801E+4
   2.21086E+3   2.26415E+4
   2.58685E+3   2.24418E+4
   2.97252E+3   2.20923E+4
   3.38586E+3   2.17802E+4
   3.76443E+3   2.13777E+4
   4.16795E+3   2.11146E+4
   4.46276E+3   2.07826E+4
   4.91261E+3   2.04399E+4
   5.15251E+3   1.99765E+4
   5.58281E+3   1.96465E+4
   5.80170E+3   1.92697E+4
   6.12217E+3   1.88297E+4
   6.30929E+3   1.83117E+4
   6.69224E+3   1.78371E+4
   7.02289E+3   1.74455E+4
   7.24814E+3   1.69530E+4
   7.36460E+3   1.65206E+4
   7.59788E+3   1.59450E+4
   7.87618E+3   1.54241E+4
   8.12717E+3   1.49097E+4
   8.31968E+3   1.44340E+4
   8.56443E+3   1.39312E+4
   8.65274E+3   1.33752E+4
   8.87551E+3   1.28660E+4
   8.96833E+3   1.22544E+4
   9.20906E+3   1.17614E+4
   9.33131E+3   1.12175E+4
   9.61802E+3   1.06213E+4
   9.76347E+3   1.01065E+4
   9.93852E+3   9.60507E+3
   1.00658E+4   9.10236E+3
   1.02924E+4   8.61266E+3
   1.03576E+4   8.17288E+3
   1.04033E+4   7.60262E+3
   1.05410E+4   7.11740E+3
   1.06390E+4   6.60860E+3
   1.07304E+4   6.07041E+3
   1.08939E+4   5.62392E+3
   1.08718E+4   5.22757E+3
   1.10305E+4   4.76237E+3
   1.10783E+4   4.42232E+3
   1.11927E+4   3.96081E+3
   1.12330E+4   3.51291E+3
   1.12010E+4   3.02052E+3
   1.13061E+4   2.70780E+3
   1.12668E+4   2.34193E+3
   1.13028E+4   1.98106E+3
   1.13132E+4   1.57240E+3
   1.13523E+4   1.19304E+3
   1.13106E+4   9.46977E+2
   1.12753E+4   5.67849E+2
   1.13116E+4   2.51866E+2
   1.12068E+4  -8.34877E+1
   1.11989E+4  -3.16972E+2
   1.10484E+4  -6.64904E+2
   1.10231E+4  -9.41174E+2
   1.08763E+4  -1.24220E+3
   1.08560E+4  -1.58071E+3
   1.07741E+4  -1.78803E+3
   1.06309E+4  -2.03232E+3
   1.05467E+4  -2.26210E+3
   1.04578E+4  -2.47618E+3
   1.03436E+4  -2.74166E+3
   1.02127E+4  -2.90006E+3
   1.00062E+4  -3.11536E+3
   9.91303E+3  -3.37705E+3
   9.78020E+3  -3.52685E+3
   9.57096E+3  -3.76032E+3
   9.54008E+3  -3.87815E+3
   9.27432E+3  -4.16136E+3
   9.13738E+3  -4.27021E+3
   9.00599E+3  -4.34631E+3
   8.82662E+3  -4.57760E+3
   8.67174E+3  -4.77274E+3
   8.49192E+3  -4.88335E+3
   8.26777E+3  -5.02242E+3
   8.11797E+3  -5.15049E+3
   7.91420E+3  -5.34158E+3
   7.76739E+3  -5.39698E+3
   7.59213E+3  -5.52434E+3
   7.37141E+3  -5.58884E+3
   7.23163E+3  -5.69745E+3
   7.05297E+3  -5.74497E+3
   6.81380E+3  -5.86130E+3
   6.66681E+3  -5.95468E+3
   6.47402E+3  -6.01854E+3
   6.33358E+3  -6.11192E+3
   6.11477E+3  -6.11252E+3
   5.99735E+3  -6.19777E+3
   5.78082E+3  -6.18995E+3
   5.62439E+3  -6.21292E+3
   5.41610E+3  -6.23458E+3
   5.29015E+3  -6.24465E+3
   5.14856E+3  -6.24655E+3
   4.94150E+3  -6.34426E+3
   4.81745E+3  -6.31015E+3
   4.62865E+3  -6.29449E+3
   4.45678E+3  -6.16011E+3
   4.25210E+3  -6.24050E+3
   4.10529E+3  -6.22246E+3
   3.97317E+3  -6.16675E+3
   3.72232E+3  -6.12004E+3
   3.63548E+3  -6.08823E+3
   3.42201E+3  -6.01407E+3
   3.31806E+3  -5.99308E+3
   3.14610E+3  -5.94139E+3
   2.96687E+3  -5.89348E+3
   2.81682E+3  -5.84670E+3
   2.70167E+3  -5.68936E+3
   2.56641E+3  -5.71016E+3
   2.43621E+3  -5.59095E+3
   2.28627E+3  -5.50918E+3
   2.14769E+3  -5.36660E+3
   2.04519E+3  -5.36372E+3
   1.89454E+3  -5.31496E+3
   1.77239E+3  -5.25227E+3
   1.70409E+3  -5.09404E+3
   1.54754E+3  -4.99663E+3
   1.44326E+3  -4.94587E+3
   1.34528E+3  -4.84429E+3
   1.25833E+3  -4.74687E+3
   1.16520E+3  -4.62518E+3
   1.00132E+3  -4.53641E+3
   9.57218E+2  -4.48896E+3
   8.39182E+2  -4.35541E+3
   7.48124E+2  -4.32401E+3
   6.61619E+2  -4.20186E+3
   6.58014E+2  -4.07940E+3
   5.25926E+2  -3.98952E+3
   4.15429E+2  -3.90453E+3
   3.50480E+2  -3.77404E+3
   3.59303E+2  -3.72296E+3
   3.27726E+2  -3.59824E+3
   2.79006E+2  -3.53014E+3
   2.05824E+2  -3.42539E+3
   1.34523E+2  -3.27324E+3
   7.61421E+1  -3.13106E+3
  -7.53485E+0  -3.11310E+3
   7.53638E+1  -3.01795E+3
  -5.19817E+1  -2.94193E+3
  -4.60285E+1  -2.79591E+3
  -8.31436E+1  -2.79849E+3
  -9.32929E+1  -2.70171E+3
  -9.76970E+1  -2.50304E+3
  -1.18065E+2  -2.40115E+3
  -1.16732E+2  -2.33294E+3
  -4.18732E+1  -2.30506E+3
  -1.62095E+2  -2.18007E+3
  -1.77931E+2  -2.11633E+3
  -1.52491E+2  -2.07636E+3
  -1.66896E+2  -1.95114E+3
  -1.79013E+2  -1.88437E+3
  -1.57771E+2  -1.78493E+3
  -1.05807E+2  -1.69964E+3
  -1.88037E+2  -1.52130E+3
  -1.41499E+2  -1.44261E+3
  -1.35930E+2  -1.39368E+3
  -1.42182E+2  -1.35465E+3
  -1.73064E+2  -1.32248E+3
  -1.47688E+2  -1.21232E+3
  -1.15500E+2  -1.07823E+3
  -1.10318E+2  -1.02666E+3
  -6.58616E+1  -1.01952E+3
  -1.23223E+2  -9.20512E+2
  -1.20161E+2  -8.05261E+2
  -4.00302E+1  -7.73928E+2
  -1.40823E+2  -7.93078E+2
  -2.31079E+1  -6.30670E+2
  -3.52463E+1  -6.84531E+2
  -3.03398E+1  -5.64611E+2
   3.77036E+1  -5.81042E+2
   8.43168E+1  -5.20420E+2
   1.26327E+2  -4.05473E+2
   1.27585E+2  -4.77879E+2
   1.19843E+2  -4.03999E+2
   9.76153E+1  -3.12249E+2
   1.96851E+2  -3.28126E+2
   2.19168E+2  -3.00177E+2
   2.33087E+2  -2.43895E+2
   2.24449E+2  -2.63044E+2
   2.67569E+2  -2.03354E+2
   2.51967E+2  -2.11674E+2
   3.47305E+2  -2.02376E+2
   2.89722E+2  -1.29959E+2
   3.61147E+2  -9.86926E+1
   3.39894E+2  -1.57842E+2
   4.27992E+2  -1.79085E+2
   4.27347E+2  -1.00792E+2
   4.18980E+2  -3.41224E+1
   5.30521E+2  -6.14980E+1
   4.86611E+2  -1.28726E+2
   5.51501E+2  -9.33838E+1
   5.88071E+2  -6.62433E+1
   6.00772E+2   1.35801E+1
   6.49318E+2  -4.51310E+1
   5.68898E+2   2.01241E+1
   6.79208E+2   2.75615E+1
   6.91128E+2  -5.51830E+0
   6.84317E+2  -6.87058E+1
   7.56716E+2  -3.96449E+1
   7.98515E+2  -6.24848E+1
   7.83603E+2  -2.36680E+1
   7.29929E+2  -6.40670E+1
   7.51094E+2  -1.81200E+1
   8.30716E+2  -1.04812E+2
   8.22917E+2  -8.81549E+1
   7.64382E+2  -6.56986E+1
   8.75234E+2  -7.89155E+1
   9.00091E+2  -5.49714E+1
   8.94581E+2  -2.93417E+1
   8.50640E+2  -1.09901E+2
   9.48432E+2  -9.36261E+1
   8.84092E+2  -1.16339E+2
   8.82494E+2  -1.43604E+2
   8.70171E+2  -9.14922E+1
   8.51442E+2  -2.09901E+2
   9.47931E+2  -2.00426E+2
   9.19607E+2  -1.73566E+2
   9.02486E+2  -2.22359E+2
   8.74574E+2  -2.46470E+2
   8.44872E+2  -2.49585E+2
   8.74499E+2  -2.17412E+2
   9.43802E+2  -2.70715E+2
   9.40300E+2  -2.78977E+2
   8.71805E+2  -3.45252E+2
   9.21419E+2  -4.18975E+2
   8.69142E+2  -3.47371E+2
   8.58663E+2  -4.04482E+2
   8.33891E+2  -3.62048E+2
   9.00187E+2  -4.00158E+2
   9.12222E+2  -4.63915E+2
   8.13589E+2  -4.62177E+2
   8.47173E+2  -4.71609E+2
   8.41143E+2  -4.46016E+2
   8.33452E+2  -4.89462E+2
   7.69477E+2  -4.85877E+2
   8.27059E+2  -5.80387E+2
   7.54518E+2  -6.27891E+2
   7.54568E+2  -5.81546E+2
   7.80083E+2  -6.68244E+2
   7.80395E+2  -6.07844E+2
   7.56264E+2  -6.46574E+2
   7.26346E+2  -6.42971E+2
   7.47382E+2  -6.52594E+2
   7.16776E+2  -7.13714E+2
   7.08169E+2  -7.44877E+2
   6.86138E+2  -7.23079E+2
   7.52932E+2  -7.85768E+2
   6.64115E+2  -7.27049E+2
   5.66096E+2  -8.07631E+2
   6.40538E+2  -7.57345E+2
   5.62454E+2  -8.12250E+2
   5.99085E+2  -8.05237E+2
   5.30399E+2  -8.33851E+2
   5.97911E+2  -7.87518E+2
   5.09907E+2  -8.30306E+2
   5.05914E+2  -8.56833E+2
   4.79173E+2  -8.82202E+2
   5.19662E+2  -8.60734E+2
   4.72961E+2  -8.90014E+2
   4.62736E+2  -8.85511E+2
   3.90562E+2  -8.82327E+2
   4.21815E+2  -9.19466E+2
   4.22490E+2  -9.21661E+2
   3.61081E+2  -9.25749E+2
   3.35732E+2  -8.89414E+2
   3.60592E+2  -8.57921E+2
   3.03515E+2  -8.99429E+2
   3.36491E+2  -9.24030E+2
   2.47308E+2  -9.29803E+2
   2.64045E+2  -9.32499E+2
   2.12783E+2  -8.96486E+2
   1.68023E+2  -9.26588E+2
   1.75923E+2  -9.33758E+2
   2.16566E+2  -8.89999E+2
   1.94865E+2  -9.20666E+2
   1.50107E+2  -9.03390E+2
   7.99795E+1  -9.57574E+2
   1.01093E+2  -8.62391E+2
   7.96144E+1  -8.86669E+2
   8.30518E+1  -9.21895E+2
   4.05747E+1  -9.13277E+2
   2.49081E+1  -9.67389E+2
   3.57222E+1  -9.09918E+2
