 
 $NMID
 ID=''
 FMTDAT='(2E13.5)'
 TRAMP=   1.00000E+0
 VOLUME=   1.00000E+0
 $END
  -1.90439E+4   1.19883E+4
  -5.58673E+4   1.57150E+4
  -5.20808E+4   2.50038E+4
  -4.79548E+4   2.28569E+4
  -5.05660E+4   2.20422E+4
  -4.95999E+4   2.42444E+4
  -4.82168E+4   2.27459E+4
  -4.96977E+4   2.19338E+4
  -4.92207E+4   2.31958E+4
  -4.81693E+4   2.23136E+4
  -4.89656E+4   2.18879E+4
  -4.83961E+4   2.27807E+4
  -4.76328E+4   2.23781E+4
  -4.82501E+4   2.17850E+4
  -4.78273E+4   2.21624E+4
  -4.70838E+4   2.15636E+4
  -4.74798E+4   2.11362E+4
  -4.70670E+4   2.13882E+4
  -4.65088E+4   2.09543E+4
  -4.67662E+4   2.05954E+4
  -4.63392E+4   2.06806E+4
  -4.57017E+4   2.05948E+4
  -4.59401E+4   2.03151E+4
  -4.56228E+4   2.02002E+4
  -4.50813E+4   1.99763E+4
  -4.50768E+4   1.98749E+4
  -4.49681E+4   1.98554E+4
  -4.45680E+4   1.94508E+4
  -4.46352E+4   1.90906E+4
  -4.43532E+4   1.90913E+4
  -4.39230E+4   1.90086E+4
  -4.39530E+4   1.89214E+4
  -4.38282E+4   1.88239E+4
  -4.34177E+4   1.85384E+4
  -4.32658E+4   1.84344E+4
  -4.30643E+4   1.84258E+4
  -4.26416E+4   1.82895E+4
  -4.23894E+4   1.81589E+4
  -4.21668E+4   1.82309E+4
  -4.18547E+4   1.82008E+4
  -4.16368E+4   1.79738E+4
  -4.14109E+4   1.79277E+4
  -4.10428E+4   1.76093E+4
  -4.08076E+4   1.74513E+4
  -4.05372E+4   1.74034E+4
  -4.01841E+4   1.72483E+4
  -3.99581E+4   1.70640E+4
  -3.97668E+4   1.70889E+4
  -3.94317E+4   1.69590E+4
  -3.92581E+4   1.68263E+4
  -3.91159E+4   1.67017E+4
  -3.87934E+4   1.65412E+4
  -3.84019E+4   1.65004E+4
  -3.81751E+4   1.64676E+4
  -3.79168E+4   1.63599E+4
  -3.78000E+4   1.62426E+4
  -3.74644E+4   1.62086E+4
  -3.73440E+4   1.60914E+4
  -3.70496E+4   1.58793E+4
  -3.67629E+4   1.57939E+4
  -3.64583E+4   1.57216E+4
  -3.62356E+4   1.57005E+4
  -3.60446E+4   1.55862E+4
  -3.58887E+4   1.55119E+4
  -3.55706E+4   1.54077E+4
  -3.54461E+4   1.53931E+4
  -3.52160E+4   1.54138E+4
  -3.50959E+4   1.52470E+4
  -3.48815E+4   1.51997E+4
  -3.47017E+4   1.51858E+4
  -3.45895E+4   1.50427E+4
  -3.43574E+4   1.49865E+4
  -3.41530E+4   1.49195E+4
  -3.39137E+4   1.47764E+4
  -3.36851E+4   1.47665E+4
  -3.34969E+4   1.47768E+4
  -3.34065E+4   1.46681E+4
  -3.32118E+4   1.45343E+4
  -3.29938E+4   1.45692E+4
  -3.27903E+4   1.44915E+4
  -3.26411E+4   1.43695E+4
  -3.24838E+4   1.42853E+4
  -3.22842E+4   1.42531E+4
  -3.20921E+4   1.40891E+4
  -3.21032E+4   1.40432E+4
  -3.18742E+4   1.38238E+4
  -3.16805E+4   1.37848E+4
  -3.14888E+4   1.35774E+4
  -3.13027E+4   1.35562E+4
  -3.11376E+4   1.35065E+4
  -3.10002E+4   1.34843E+4
  -3.08492E+4   1.33819E+4
  -3.06494E+4   1.33355E+4
  -3.04466E+4   1.32466E+4
  -3.04078E+4   1.32318E+4
  -3.01597E+4   1.30685E+4
  -2.99534E+4   1.30630E+4
  -2.98493E+4   1.29784E+4
  -2.97022E+4   1.29989E+4
  -2.95961E+4   1.28404E+4
  -2.94509E+4   1.27356E+4
  -2.92547E+4   1.26141E+4
  -2.91246E+4   1.26801E+4
  -2.90434E+4   1.25741E+4
  -2.88968E+4   1.25593E+4
  -2.86583E+4   1.24055E+4
  -2.86018E+4   1.23615E+4
  -2.83517E+4   1.22583E+4
  -2.82421E+4   1.21739E+4
  -2.81202E+4   1.20220E+4
  -2.78689E+4   1.20112E+4
  -2.77494E+4   1.19985E+4
  -2.76045E+4   1.19407E+4
  -2.74521E+4   1.19325E+4
  -2.73876E+4   1.18504E+4
  -2.72947E+4   1.17516E+4
  -2.71547E+4   1.16328E+4
  -2.70043E+4   1.16126E+4
  -2.67925E+4   1.15645E+4
  -2.66755E+4   1.14842E+4
  -2.66048E+4   1.14214E+4
  -2.65448E+4   1.13542E+4
  -2.63637E+4   1.12174E+4
  -2.61630E+4   1.11910E+4
  -2.61191E+4   1.11823E+4
  -2.59392E+4   1.11282E+4
  -2.58428E+4   1.09672E+4
  -2.57081E+4   1.09448E+4
  -2.55307E+4   1.08645E+4
  -2.54400E+4   1.08545E+4
  -2.52992E+4   1.07395E+4
  -2.51969E+4   1.07091E+4
  -2.50189E+4   1.06492E+4
  -2.49353E+4   1.05398E+4
  -2.48303E+4   1.05726E+4
  -2.46994E+4   1.04918E+4
  -2.45783E+4   1.04451E+4
  -2.44316E+4   1.03806E+4
  -2.42737E+4   1.03375E+4
  -2.41741E+4   1.02493E+4
  -2.40816E+4   1.02448E+4
  -2.38376E+4   1.01615E+4
  -2.37651E+4   1.01092E+4
  -2.36744E+4   1.00493E+4
  -2.35451E+4   1.00001E+4
  -2.34068E+4   9.98996E+3
  -2.32674E+4   9.86994E+3
  -2.31487E+4   9.91099E+3
  -2.30566E+4   9.86439E+3
  -2.28814E+4   9.78900E+3
  -2.27734E+4   9.77188E+3
  -2.27389E+4   9.68067E+3
  -2.26627E+4   9.71047E+3
  -2.24894E+4   9.63029E+3
  -2.22944E+4   9.59367E+3
  -2.21487E+4   9.59285E+3
  -2.20539E+4   9.55994E+3
  -2.19972E+4   9.51486E+3
  -2.17850E+4   9.43108E+3
  -2.17091E+4   9.51439E+3
  -2.16397E+4   9.48404E+3
  -2.15170E+4   9.43981E+3
  -2.13828E+4   9.31357E+3
  -2.12760E+4   9.43567E+3
  -2.11476E+4   9.33908E+3
  -2.10057E+4   9.32050E+3
  -2.08455E+4   9.25562E+3
  -2.07532E+4   9.27537E+3
  -2.05797E+4   9.26259E+3
  -2.05139E+4   9.19847E+3
  -2.03874E+4   9.19901E+3
  -2.02615E+4   9.16568E+3
  -2.01107E+4   9.16978E+3
  -1.99611E+4   9.11856E+3
  -1.99453E+4   9.10898E+3
  -1.97977E+4   9.13651E+3
  -1.95598E+4   9.09365E+3
  -1.95602E+4   9.12332E+3
  -1.93910E+4   9.15321E+3
  -1.93141E+4   9.10241E+3
  -1.92092E+4   9.08815E+3
  -1.90514E+4   9.03708E+3
  -1.88985E+4   9.03988E+3
  -1.87713E+4   8.99964E+3
  -1.87283E+4   8.97288E+3
  -1.84814E+4   9.04230E+3
  -1.84166E+4   9.07206E+3
  -1.83047E+4   8.96100E+3
  -1.82088E+4   8.89339E+3
  -1.80747E+4   8.88985E+3
  -1.79282E+4   8.92424E+3
  -1.78372E+4   8.89295E+3
  -1.77395E+4   8.85489E+3
  -1.75750E+4   8.80842E+3
  -1.74536E+4   8.73681E+3
  -1.73027E+4   8.78321E+3
  -1.72050E+4   8.79689E+3
  -1.70574E+4   8.77698E+3
  -1.69253E+4   8.73318E+3
  -1.68043E+4   8.74792E+3
  -1.67818E+4   8.71935E+3
  -1.66559E+4   8.67113E+3
  -1.65126E+4   8.66062E+3
  -1.63734E+4   8.52681E+3
  -1.62024E+4   8.63275E+3
  -1.61251E+4   8.58971E+3
  -1.59907E+4   8.53675E+3
  -1.58678E+4   8.54957E+3
  -1.57538E+4   8.46602E+3
  -1.56173E+4   8.46532E+3
  -1.55099E+4   8.40044E+3
  -1.53644E+4   8.40273E+3
  -1.51353E+4   8.38545E+3
  -1.51017E+4   8.36621E+3
  -1.49792E+4   8.34839E+3
  -1.49364E+4   8.29828E+3
  -1.47481E+4   8.25222E+3
  -1.47201E+4   8.19222E+3
  -1.45038E+4   8.24084E+3
  -1.44401E+4   8.20249E+3
  -1.43172E+4   8.17369E+3
  -1.41019E+4   8.08602E+3
  -1.40683E+4   8.07405E+3
  -1.39857E+4   8.08244E+3
  -1.38640E+4   8.05578E+3
  -1.38011E+4   8.03180E+3
  -1.35921E+4   7.99295E+3
  -1.35172E+4   7.96343E+3
  -1.34165E+4   7.95274E+3
  -1.33350E+4   7.88433E+3
  -1.31692E+4   7.80447E+3
  -1.31491E+4   7.79754E+3
  -1.29418E+4   7.69935E+3
  -1.28593E+4   7.73667E+3
  -1.27654E+4   7.66289E+3
  -1.25693E+4   7.64911E+3
  -1.25182E+4   7.64342E+3
  -1.23507E+4   7.56654E+3
  -1.22471E+4   7.59167E+3
  -1.21617E+4   7.50300E+3
  -1.19671E+4   7.48283E+3
  -1.18482E+4   7.49558E+3
  -1.17828E+4   7.48882E+3
  -1.17223E+4   7.42288E+3
  -1.16385E+4   7.35994E+3
  -1.15552E+4   7.30469E+3
  -1.14209E+4   7.30670E+3
  -1.12799E+4   7.30454E+3
  -1.11632E+4   7.12913E+3
  -1.10763E+4   7.18423E+3
  -1.09775E+4   7.15658E+3
  -1.09273E+4   7.15098E+3
  -1.07750E+4   7.04030E+3
  -1.07297E+4   7.02459E+3
  -1.05906E+4   6.97904E+3
  -1.04837E+4   6.92756E+3
  -1.03630E+4   6.94195E+3
  -1.02932E+4   6.92122E+3
  -1.01650E+4   6.87485E+3
  -1.01037E+4   6.84978E+3
  -1.00764E+4   6.69651E+3
  -9.97132E+3   6.72605E+3
  -9.79358E+3   6.71499E+3
  -9.76931E+3   6.68571E+3
  -9.68792E+3   6.66055E+3
  -9.56851E+3   6.56192E+3
  -9.50123E+3   6.51959E+3
  -9.38949E+3   6.46742E+3
  -9.29751E+3   6.43955E+3
  -9.26414E+3   6.40471E+3
  -9.18271E+3   6.34735E+3
  -9.05164E+3   6.28871E+3
  -8.96069E+3   6.29326E+3
  -8.91877E+3   6.25444E+3
  -8.86841E+3   6.26845E+3
  -8.70606E+3   6.17866E+3
  -8.69644E+3   6.13668E+3
  -8.56436E+3   6.02023E+3
  -8.54766E+3   6.04410E+3
  -8.44947E+3   5.97232E+3
  -8.34060E+3   5.98289E+3
  -8.21402E+3   5.94930E+3
  -8.26685E+3   5.85396E+3
  -8.17096E+3   5.77806E+3
  -8.08642E+3   5.73635E+3
  -7.99269E+3   5.65986E+3
  -7.92559E+3   5.62837E+3
  -7.86158E+3   5.70483E+3
  -7.76111E+3   5.56225E+3
  -7.68504E+3   5.53359E+3
  -7.64687E+3   5.51606E+3
  -7.53264E+3   5.45450E+3
  -7.51119E+3   5.42845E+3
  -7.36594E+3   5.40155E+3
  -7.30608E+3   5.31968E+3
  -7.33410E+3   5.30076E+3
  -7.26219E+3   5.25047E+3
  -7.21293E+3   5.18012E+3
  -7.13743E+3   5.17796E+3
  -7.08567E+3   5.09832E+3
  -7.03151E+3   5.05607E+3
  -6.88906E+3   5.07973E+3
  -6.86775E+3   5.00727E+3
  -6.87037E+3   4.94541E+3
  -6.81569E+3   4.89895E+3
  -6.80690E+3   4.76603E+3
  -6.70242E+3   4.80863E+3
  -6.61592E+3   4.86046E+3
  -6.61581E+3   4.74529E+3
  -6.55121E+3   4.73633E+3
  -6.44530E+3   4.63372E+3
  -6.43070E+3   4.69956E+3
  -6.40400E+3   4.55561E+3
  -6.26934E+3   4.58605E+3
  -6.26064E+3   4.49899E+3
  -6.23614E+3   4.44117E+3
  -6.15140E+3   4.38761E+3
  -6.16592E+3   4.35535E+3
  -6.12161E+3   4.36882E+3
  -6.05209E+3   4.27326E+3
  -5.99283E+3   4.25795E+3
  -5.93316E+3   4.27727E+3
  -5.93041E+3   4.20691E+3
  -5.87542E+3   4.14485E+3
  -5.83508E+3   4.13703E+3
  -5.84793E+3   4.10159E+3
  -5.76104E+3   4.02520E+3
  -5.68591E+3   3.99576E+3
  -5.64576E+3   3.94398E+3
  -5.61085E+3   3.97520E+3
  -5.57559E+3   3.98056E+3
  -5.59043E+3   3.90139E+3
  -5.49748E+3   3.84808E+3
  -5.39385E+3   3.82215E+3
  -5.40647E+3   3.79230E+3
  -5.40926E+3   3.72447E+3
  -5.34794E+3   3.67762E+3
  -5.21710E+3   3.59680E+3
  -5.26751E+3   3.58541E+3
  -5.27039E+3   3.56130E+3
  -5.15006E+3   3.51932E+3
  -5.15974E+3   3.47471E+3
  -5.06762E+3   3.48606E+3
  -5.12417E+3   3.41570E+3
  -5.00464E+3   3.48837E+3
  -5.05590E+3   3.32141E+3
  -4.99252E+3   3.28660E+3
  -4.92436E+3   3.25687E+3
  -4.97961E+3   3.28541E+3
  -4.88331E+3   3.23237E+3
  -4.88891E+3   3.27474E+3
  -4.83165E+3   3.14907E+3
  -4.83512E+3   3.16434E+3
  -4.78108E+3   3.10775E+3
  -4.70891E+3   3.10017E+3
  -4.67509E+3   3.06308E+3
  -4.61563E+3   3.02437E+3
  -4.59562E+3   2.92866E+3
  -4.57918E+3   2.97703E+3
  -4.56348E+3   2.90560E+3
  -4.54422E+3   2.92084E+3
  -4.53955E+3   2.91976E+3
  -4.50386E+3   2.83177E+3
  -4.42218E+3   2.88926E+3
  -4.44453E+3   2.81801E+3
  -4.38870E+3   2.74848E+3
  -4.38831E+3   2.81460E+3
