 
 $NMID
 ID=''
 FMTDAT='(2E13.5)'
 TRAMP=   1.00000E+0
 VOLUME=   1.00000E+0
 $END
   2.66969E+2  -4.35518E+2
   6.24389E+1   6.65968E+2
  -5.66440E+2  -2.79099E+3
  -2.29668E+3   1.15347E+3
  -1.63261E+3   1.90769E+3
   5.34905E+2   2.44531E+3
   1.69406E+3   2.57347E+3
   1.11484E+3   9.91605E+2
   2.74596E+3  -1.87070E+3
  -2.19574E+3  -2.96978E+3
  -1.46856E+3  -2.30677E+3
  -4.71074E+2  -2.64073E+3
  -1.62282E+3   2.56164E+3
  -3.76501E+3   6.34272E+3
  -4.08036E+3   4.27463E+3
  -2.75176E+3   2.21078E+3
   1.72663E+3  -1.57750E+3
   2.73887E+3   3.10492E+3
   3.00417E+3   4.30553E+3
   1.44370E+3   9.75287E+2
   6.99202E+2  -2.97296E+3
   1.50846E+2  -1.37622E+3
  -1.88601E+3   1.85313E+3
  -5.38052E+3   8.32381E+2
  -2.65250E+3  -1.05781E+3
   2.80544E+2   2.06428E+3
  -5.23970E+2   5.85925E+3
  -3.41827E+2   3.28351E+3
  -7.65334E+2   1.37130E+0
   5.48289E+3  -3.21960E+3
   8.47466E+3   8.55880E+2
   3.08138E+3   6.35536E+3
   2.39324E+2   1.06275E+2
   1.70051E+3  -5.60691E+2
   5.65178E+2  -3.08610E+3
  -3.40784E+3  -1.96899E+3
  -1.55106E+2  -8.03324E+3
   4.52649E+3  -6.08917E+3
   3.73911E+3  -2.03979E+3
   1.27351E+3   1.75986E+2
  -6.96365E+2   9.79844E+2
  -4.17722E+3   2.84798E+3
  -6.09226E+3  -1.20132E+3
  -4.10840E+3  -3.26935E+3
   5.70188E+2  -1.88770E+3
   2.99784E+2   1.64400E+3
   1.59577E+3   2.41310E+3
   3.07332E+3   1.74199E+3
  -1.44898E+2  -4.04864E+2
   1.31830E+3   4.42517E+1
  -5.09689E+2  -3.66444E+2
  -2.86640E+3  -3.74027E+3
   2.21635E+3  -3.76219E+3
   1.74696E+3  -2.26069E+3
   9.38235E+2   1.75811E+3
   1.93450E+3  -1.60155E+3
  -1.88780E+3   6.58332E+0
  -3.47046E+3  -1.19116E+2
  -5.22724E+3  -4.35096E+3
  -1.05152E+3  -3.35652E+3
   3.18638E+3  -6.57402E+3
   2.35805E+3  -6.07577E+2
   4.11941E+3  -2.89337E+3
   2.85387E+3   2.32149E+3
   9.06769E+2  -1.05798E+3
   4.91695E+3  -8.79473E+2
   3.03051E+3   2.14901E+3
  -1.78979E+2   2.30279E+3
  -2.59331E+2   1.90225E+3
   1.84123E+2   8.18205E+2
  -9.16286E+1   9.24832E+2
  -1.62847E+3   1.98531E+1
  -8.06323E+2   7.02466E+2
  -2.97536E+3   2.53717E+2
  -2.70263E+3   5.66905E+2
  -4.33921E+2  -2.00584E+3
  -1.46589E+3  -1.54250E+3
   3.48491E+2  -2.16083E+2
   3.01208E+2  -5.38867E+2
   2.02967E+3  -5.38283E+2
  -4.29429E+1   4.06103E+2
   1.03901E+3   1.09952E+3
   2.09120E+3   2.90538E+2
   1.12947E+3   7.43020E+2
  -8.14032E+2   2.68750E+3
  -3.00781E+3   1.39300E+3
  -2.54713E+3   8.64827E+2
  -1.59554E+3  -8.32397E+2
   2.56047E+2  -1.55551E+3
   1.12507E+3   2.35371E+2
   4.53607E+2  -5.81731E+2
   3.23277E+2  -3.02999E+3
   3.79517E+3  -2.33400E+2
   3.29957E+2   8.93081E+2
  -1.57134E+3   2.44134E+3
  -1.21229E+3  -1.65204E+3
  -1.72637E+3  -2.99114E+3
   2.17944E+3   7.01339E+2
   3.71448E+2   2.24890E+3
  -2.99595E+3   2.27753E+2
  -2.95725E+3  -2.65874E+3
   2.64243E+3  -2.85202E+3
   2.22115E+3   1.00570E+3
  -1.53445E+3   3.16113E+2
  -1.03783E+3   2.31022E+3
  -1.55161E+3   2.34712E+3
   9.85905E+2   1.17906E+3
  -2.78367E+2  -1.36693E+2
  -2.72796E+3   5.16113E+2
  -1.84516E+3  -1.84240E+3
  -2.28302E+2  -3.42117E+3
   7.05121E+2  -8.00393E+2
   4.34950E+2   1.00505E+3
  -3.75490E+2   4.40452E+2
   1.54209E+3   2.95431E+3
  -1.74415E+3  -1.09376E+2
  -3.36234E+3   1.51011E+3
  -9.09273E+2   1.91466E+2
  -2.66007E+2  -2.93994E+2
   6.34476E+2  -5.93304E+2
   8.01790E+2   1.51645E+3
  -1.31048E+3   7.52959E+2
  -1.83034E+3   1.32838E+2
   1.59574E+3  -9.50278E+2
   1.35883E+3   3.42426E+2
   7.33668E+2  -3.15330E+2
   1.17657E+3   2.20573E+1
  -1.55031E+2  -1.74823E+3
   9.06622E+2  -2.23963E+2
  -1.12713E+3   4.99044E+2
  -1.64036E+3   5.10128E+2
  -1.79087E+3  -2.49061E+3
  -7.10753E+2  -9.66996E+2
   2.33362E+3   1.52631E+3
   1.15567E+3   8.26806E+2
  -1.14179E+3   1.55843E+3
  -1.07417E+3   9.23663E+2
  -1.47236E+3  -1.22221E+3
   3.76095E+2   2.28256E+3
   4.39068E+2   1.85341E+3
   1.78319E+3   7.62446E+2
   8.17075E+2  -1.15753E+3
  -1.16404E+3  -4.90740E+0
   2.55250E+3   2.34541E+3
  -7.46895E+2   5.49468E+2
  -5.21078E+2   2.00983E+3
   8.32573E+2   2.68094E+2
   6.77504E+2   2.21491E+3
   1.50884E+3  -2.31907E+2
  -8.82235E+2   7.78894E+2
   4.87616E+2   5.03686E+2
  -5.05389E+2   7.29254E+2
   5.72676E+2  -1.19782E+3
  -2.65356E+2   5.44392E+2
   8.01575E+2  -9.41405E+2
  -4.05157E+2   8.64514E+2
   1.69199E+3  -7.43072E+2
  -6.54311E+2   9.92905E+2
   2.01193E+3  -1.75956E+3
   4.49959E+1   9.04837E+0
   2.25390E+3   1.00648E+3
  -1.12069E+2   7.59551E+2
   5.08651E+2  -2.00757E+3
   5.20203E+2   7.78629E+2
  -4.64279E+2   1.93923E+3
   9.01718E+2  -9.95180E+2
   8.59500E+2   3.63200E+2
   8.15437E+2  -1.70919E+3
   3.17636E+3   2.25290E+2
   1.36714E+3   1.30535E+3
  -3.21975E+2   4.75809E+1
   2.13146E+2  -7.27886E+2
  -9.40628E+2   1.07275E+3
   3.21925E+2  -2.76925E+3
   1.93695E+3  -1.83899E+3
  -1.51524E+3   6.25558E+2
  -3.18477E+1   1.13331E+3
  -5.82719E+1   1.34161E+3
   1.54210E+2  -1.52009E+2
   7.90058E+2   1.59752E+3
   6.12062E+2  -1.47903E+3
   6.27443E+2  -1.09313E+2
   3.69376E+2  -1.06080E+3
   2.93904E+1  -1.55108E+3
   6.21738E+2   8.62253E+2
   1.32419E+3   6.88528E+2
  -4.38475E+2   3.23657E+3
   8.49657E+2   2.41539E+3
  -8.14525E+2   1.22715E+3
  -1.76317E+3   4.64610E+2
   7.37975E+2  -2.12351E+2
  -3.82398E+2  -9.01899E+1
  -1.08205E+3  -3.21274E+2
   8.47975E+2  -2.25789E+2
  -9.39041E+2  -3.28362E+2
   7.78864E+2   1.77249E+2
   5.92635E+2  -1.19488E+3
  -7.57586E+2  -1.19446E+3
  -9.02988E+2  -9.02839E+2
   1.28303E+3   6.43928E+2
  -8.64153E+0   2.87717E+3
  -3.08259E+0   1.50436E+3
  -1.62089E+3  -1.78704E+3
   7.91091E+2  -1.02953E+2
   1.26800E+3   8.11080E+2
   2.13937E+2  -2.01815E+3
   2.03967E+1   6.82440E+2
   1.21576E+2  -8.78364E+2
   1.10450E+3  -1.33933E+3
   1.23371E+3  -7.12789E+2
  -1.29664E+3  -1.40350E+3
  -1.35388E+3   5.23122E+2
   1.00760E+2  -6.65403E+2
   9.77989E+2  -7.68919E+2
   1.61773E+3   1.51964E+3
   2.97755E+2   2.54585E+3
   1.03261E+3  -9.78087E+2
   3.22426E+2   2.10775E+3
  -6.41762E+2  -5.15662E+2
   4.95137E+2   4.48419E+2
   1.53895E+3  -1.38909E+3
   2.26147E+3   6.83966E+2
  -9.28671E+2   1.40797E+3
  -7.73024E+2  -6.88818E+2
  -8.82938E+2  -9.30262E+2
   3.80153E+2   2.82776E+2
   1.30763E+2   1.24680E+3
   1.06051E+3   1.01039E+2
  -3.31232E+2   1.21848E+3
  -2.82327E+2  -9.52744E+1
  -9.62189E+2   5.20803E+2
  -1.68274E+2   1.02107E+3
  -9.53550E+2  -1.87016E+2
  -1.95724E+2  -2.11970E+3
   1.61746E+3  -1.41362E+3
  -6.81559E+2  -1.80831E+3
   1.04646E+3   1.09840E+2
  -1.64501E+3   1.50038E+3
  -1.71913E+2  -3.74787E+2
  -6.31423E+2  -9.66715E+2
   7.16893E+2  -1.02040E+3
   1.66864E+3   3.30471E+2
  -7.15248E+2  -8.55885E+2
   1.64479E+2   5.40413E+1
  -1.12091E+3   4.91340E+2
  -1.72647E+2   1.10178E+3
  -2.44195E+2   1.33191E+3
   1.15206E+3  -8.78779E+2
   5.52224E+2  -5.16388E+2
   1.64210E+3   3.12951E+2
  -2.04751E+3  -5.70047E+2
  -1.97805E+2  -1.20337E+3
  -1.40265E+3   7.65080E+2
  -1.80420E+3   2.95665E+2
  -1.99912E+2   1.43684E+3
   1.50294E+2   5.48961E+2
  -7.05094E+2  -6.90157E+1
   1.69313E+2  -8.06760E+2
  -1.49656E+1   3.55121E+2
  -7.69064E+2  -6.17535E+2
  -1.90360E+3   1.10530E+3
  -9.69185E+2  -1.24624E+3
   5.27078E+2  -1.63381E+3
  -5.49720E+2  -5.62526E+2
  -2.30549E+2   7.98889E+2
  -1.83838E+3   6.85424E+2
   7.93420E+2   1.34139E+3
  -1.45286E+2   6.35410E+2
   1.28529E+2  -1.47057E+3
  -1.78826E+3   8.03176E+2
  -7.77318E+2  -2.79135E+1
  -8.17060E+2  -3.16500E+2
  -1.71099E+3  -1.49139E+3
  -4.47308E+2  -7.59091E+2
   8.61254E+1  -6.95134E+2
  -5.40868E+2   5.18257E+2
  -1.32091E+3   4.22586E+2
   2.94206E+2  -3.24641E+2
  -1.85945E+3  -1.45394E+3
  -5.53473E+2  -3.13870E+2
  -1.65216E+3  -1.69207E+3
   4.20882E+2  -1.90092E+2
  -1.94333E+3  -3.82346E+2
  -1.23168E+3   1.07633E+3
   2.08095E+2  -4.55034E+2
   7.66085E+2  -8.88650E+2
  -1.07614E+2   1.51075E+3
   9.86472E+2   8.34735E+2
  -1.87789E+3   5.62385E+2
   3.80331E+2  -7.95542E+2
   8.62380E+2  -6.39000E+2
   6.07723E+2  -9.35055E+2
  -2.95565E+2   4.87685E+2
   1.66561E+3   1.32046E+3
   1.26354E+3  -6.34582E+2
  -9.72758E+2  -6.86065E+2
  -7.25710E+2   4.00991E+2
  -2.89019E+2   2.16879E+3
   2.24716E+3   1.04088E+3
   3.56355E+2   1.16904E+3
   1.58498E+2  -1.97278E+2
   1.42010E+2   5.15745E+2
  -1.01092E+3  -7.76018E+2
   1.17485E+3   6.76626E+2
   8.18053E+2   1.98761E+3
   2.12591E+2  -7.25102E+2
   1.86869E+0   1.45968E+3
   1.41673E+2  -1.37864E+3
  -5.15235E+2  -5.34257E+2
  -5.71349E+2  -8.57572E+1
  -1.53473E+3   4.85897E+2
  -3.06789E+2  -1.87454E+2
   5.37257E+2   7.96849E+2
  -1.24839E+3   1.24461E+3
  -4.38812E+2   1.04168E+2
   6.05866E+2  -5.88054E+2
  -1.45920E+2  -6.71394E+2
  -3.49793E+2   4.91324E+2
   1.86591E+3   1.54504E+3
   1.32639E+3   8.16910E+2
   8.76488E+1  -6.21718E+2
   4.34171E+2   4.52997E+2
   8.22445E+2  -7.87708E+2
  -4.46157E+2   4.36267E+2
  -2.46917E+3  -1.62397E+3
   4.59115E+2   4.93304E+2
  -1.04001E+2  -6.51908E+2
   1.05729E+3   3.70698E+2
   1.73295E+2  -1.84077E+2
   5.96721E+1  -2.42172E+2
  -1.67367E+3  -3.31041E+2
  -1.13508E+3  -6.67060E+2
  -1.59476E+3   2.72838E+2
   4.22960E+2  -3.64300E+2
   8.69124E+2   1.26360E+3
  -3.45222E+2   1.18527E+3
   8.89588E+2  -5.02488E+2
  -8.15781E+2  -6.97560E+2
   2.43005E+1   5.89697E+2
  -2.75900E+3   2.20719E+3
  -2.61638E+2   1.58073E+3
  -9.50176E+2  -4.23257E+1
  -6.09094E+2  -3.27776E+2
  -1.17413E+3  -2.30757E+1
  -1.02677E+3   1.57591E+3
   4.23812E+2  -4.03764E+2
  -3.36732E+2  -1.94014E+2
   1.15772E+3   6.42845E+2
  -1.03810E+3  -4.79529E+1
  -1.28512E+3  -1.17760E+3
   5.07696E+2   3.98065E+2
  -3.04618E+3  -1.27479E+3
   5.69200E+2  -2.36646E+3
  -2.71829E+0  -2.51264E+2
   2.26767E+1  -7.77346E+2
  -3.67927E+2   1.48726E+3
   1.67314E+3  -7.00099E+2
   1.57873E+3  -1.14301E+3
  -1.94779E+2  -7.44017E+2
  -7.51146E+2  -6.99707E+2
   1.28051E+3   2.47113E+3
  -1.58948E+2  -1.42147E+3
  -1.68406E+3   2.04736E+2
   1.04399E+3  -1.62996E+2
   1.56706E+2  -1.33604E+3
  -9.23307E+2   7.71419E+2
   6.24340E+1   1.64082E+3
