 
 $NMID
 ID=''
 FMTDAT='(2E13.5)'
 TRAMP=   1.00000E+0
 VOLUME=   1.00000E+0
 $END
  -2.14617E+4  -4.96502E+3
  -4.94549E+4  -2.75902E+4
  -5.34861E+4  -1.79998E+4
  -4.94029E+4  -1.60308E+4
  -5.08614E+4  -1.79019E+4
  -5.17678E+4  -1.53191E+4
  -4.96499E+4  -1.47809E+4
  -5.00172E+4  -1.58327E+4
  -5.06313E+4  -1.41781E+4
  -4.91762E+4  -1.39254E+4
  -4.93462E+4  -1.43958E+4
  -4.96973E+4  -1.30751E+4
  -4.88101E+4  -1.26474E+4
  -4.90117E+4  -1.32423E+4
  -4.91403E+4  -1.23727E+4
  -4.84772E+4  -1.20337E+4
  -4.84774E+4  -1.22936E+4
  -4.85178E+4  -1.15502E+4
  -4.79976E+4  -1.12082E+4
  -4.79357E+4  -1.13557E+4
  -4.78750E+4  -1.07684E+4
  -4.73714E+4  -1.01078E+4
  -4.74830E+4  -1.02070E+4
  -4.73663E+4  -9.72888E+3
  -4.67776E+4  -9.33613E+3
  -4.67768E+4  -9.21328E+3
  -4.66585E+4  -8.77964E+3
  -4.61657E+4  -8.57083E+3
  -4.59816E+4  -8.53891E+3
  -4.57909E+4  -8.05191E+3
  -4.55726E+4  -7.63233E+3
  -4.54218E+4  -7.42598E+3
  -4.52845E+4  -7.22699E+3
  -4.48562E+4  -6.91178E+3
  -4.46879E+4  -6.62262E+3
  -4.44776E+4  -6.26295E+3
  -4.41411E+4  -5.88915E+3
  -4.38886E+4  -5.57728E+3
  -4.37635E+4  -5.15166E+3
  -4.35409E+4  -4.92919E+3
  -4.32943E+4  -4.67459E+3
  -4.31272E+4  -4.56879E+3
  -4.27522E+4  -4.39998E+3
  -4.23572E+4  -4.11664E+3
  -4.22088E+4  -3.81446E+3
  -4.18726E+4  -3.60065E+3
  -4.15935E+4  -3.41019E+3
  -4.13391E+4  -3.16283E+3
  -4.10289E+4  -2.90734E+3
  -4.07125E+4  -2.63638E+3
  -4.04333E+4  -2.46923E+3
  -4.01091E+4  -2.23768E+3
  -3.97338E+4  -1.96215E+3
  -3.94812E+4  -1.60436E+3
  -3.92806E+4  -1.37436E+3
  -3.89859E+4  -1.21043E+3
  -3.87825E+4  -1.02315E+3
  -3.84904E+4  -8.37004E+2
  -3.81655E+4  -5.35029E+2
  -3.78370E+4  -3.70523E+2
  -3.75181E+4  -1.94505E+2
  -3.72571E+4   1.43458E+2
  -3.70964E+4   3.00039E+2
  -3.69272E+4   4.99185E+2
  -3.65465E+4   6.31639E+2
  -3.63463E+4   8.57738E+2
  -3.61511E+4   1.10973E+3
  -3.59403E+4   1.23620E+3
  -3.56349E+4   1.31685E+3
  -3.54960E+4   1.58824E+3
  -3.52385E+4   1.66590E+3
  -3.49872E+4   1.76368E+3
  -3.47267E+4   1.89676E+3
  -3.45822E+4   2.06447E+3
  -3.42674E+4   2.17217E+3
  -3.39781E+4   2.41157E+3
  -3.38212E+4   2.56105E+3
  -3.34819E+4   2.62765E+3
  -3.32753E+4   2.77400E+3
  -3.30141E+4   2.90903E+3
  -3.27645E+4   3.09784E+3
  -3.25133E+4   3.12981E+3
  -3.22889E+4   3.33111E+3
  -3.21110E+4   3.42105E+3
  -3.19043E+4   3.49807E+3
  -3.17302E+4   3.57839E+3
  -3.13572E+4   3.65991E+3
  -3.11828E+4   3.76956E+3
  -3.09518E+4   3.84768E+3
  -3.07807E+4   4.02189E+3
  -3.04935E+4   4.08502E+3
  -3.03149E+4   4.19849E+3
  -3.00658E+4   4.28249E+3
  -2.98533E+4   4.43973E+3
  -2.96361E+4   4.48227E+3
  -2.93758E+4   4.61243E+3
  -2.91417E+4   4.70658E+3
  -2.89874E+4   4.77999E+3
  -2.87512E+4   4.85203E+3
  -2.85605E+4   4.85760E+3
  -2.83201E+4   4.96594E+3
  -2.80537E+4   5.08894E+3
  -2.78456E+4   5.16596E+3
  -2.75835E+4   5.25176E+3
  -2.73873E+4   5.34367E+3
  -2.72738E+4   5.37711E+3
  -2.69585E+4   5.47736E+3
  -2.68045E+4   5.58948E+3
  -2.66514E+4   5.63384E+3
  -2.63612E+4   5.64221E+3
  -2.61034E+4   5.82986E+3
  -2.58775E+4   5.91533E+3
  -2.57153E+4   6.04460E+3
  -2.56080E+4   6.03560E+3
  -2.53527E+4   6.15837E+3
  -2.51503E+4   6.16457E+3
  -2.49524E+4   6.18945E+3
  -2.47333E+4   6.28563E+3
  -2.44940E+4   6.36035E+3
  -2.44044E+4   6.38884E+3
  -2.41364E+4   6.46582E+3
  -2.40125E+4   6.54297E+3
  -2.37491E+4   6.57072E+3
  -2.35794E+4   6.60124E+3
  -2.33579E+4   6.68940E+3
  -2.32254E+4   6.76454E+3
  -2.30026E+4   6.73971E+3
  -2.27846E+4   6.87282E+3
  -2.26003E+4   6.87155E+3
  -2.24757E+4   6.89675E+3
  -2.22761E+4   6.95602E+3
  -2.20912E+4   7.04422E+3
  -2.18338E+4   7.08010E+3
  -2.16701E+4   7.19418E+3
  -2.14719E+4   7.20372E+3
  -2.13820E+4   7.26522E+3
  -2.11545E+4   7.34315E+3
  -2.09323E+4   7.40481E+3
  -2.07799E+4   7.44835E+3
  -2.05798E+4   7.53529E+3
  -2.03380E+4   7.56572E+3
  -2.02311E+4   7.63665E+3
  -1.99933E+4   7.70706E+3
  -1.98571E+4   7.88403E+3
  -1.96636E+4   7.86306E+3
  -1.94620E+4   7.86778E+3
  -1.93260E+4   7.97873E+3
  -1.90843E+4   8.07600E+3
  -1.89700E+4   8.07611E+3
  -1.87790E+4   8.15002E+3
  -1.85705E+4   8.16504E+3
  -1.84818E+4   8.28717E+3
  -1.82344E+4   8.23945E+3
  -1.81064E+4   8.28708E+3
  -1.79182E+4   8.40564E+3
  -1.77430E+4   8.45220E+3
  -1.75644E+4   8.47129E+3
  -1.74043E+4   8.50529E+3
  -1.72691E+4   8.57417E+3
  -1.70941E+4   8.59065E+3
  -1.69244E+4   8.58948E+3
  -1.67389E+4   8.68257E+3
  -1.66064E+4   8.69621E+3
  -1.64865E+4   8.69448E+3
  -1.62760E+4   8.73216E+3
  -1.60788E+4   8.76497E+3
  -1.58875E+4   8.87664E+3
  -1.57368E+4   8.87700E+3
  -1.54847E+4   8.85054E+3
  -1.53679E+4   8.94821E+3
  -1.52306E+4   8.99357E+3
  -1.51177E+4   8.97044E+3
  -1.48619E+4   8.97445E+3
  -1.46965E+4   9.05813E+3
  -1.45137E+4   9.05536E+3
  -1.44068E+4   9.10222E+3
  -1.42357E+4   9.11794E+3
  -1.40390E+4   9.14207E+3
  -1.39528E+4   9.20053E+3
  -1.37742E+4   9.22381E+3
  -1.36469E+4   9.14740E+3
  -1.33994E+4   9.17721E+3
  -1.32268E+4   9.25634E+3
  -1.31924E+4   9.25078E+3
  -1.29941E+4   9.30991E+3
  -1.29194E+4   9.28054E+3
  -1.27421E+4   9.34388E+3
  -1.25951E+4   9.30841E+3
  -1.24193E+4   9.36909E+3
  -1.21971E+4   9.31116E+3
  -1.21308E+4   9.31220E+3
  -1.19805E+4   9.41037E+3
  -1.18403E+4   9.40769E+3
  -1.16891E+4   9.35168E+3
  -1.15747E+4   9.36122E+3
  -1.13567E+4   9.37061E+3
  -1.12137E+4   9.36157E+3
  -1.11362E+4   9.36431E+3
  -1.10008E+4   9.26349E+3
  -1.08173E+4   9.39708E+3
  -1.06685E+4   9.32891E+3
  -1.06000E+4   9.34399E+3
  -1.04041E+4   9.29332E+3
  -1.03270E+4   9.26603E+3
  -1.01816E+4   9.27260E+3
  -9.99706E+3   9.34363E+3
  -9.90583E+3   9.29820E+3
  -9.78188E+3   9.27451E+3
  -9.59746E+3   9.21357E+3
  -9.50068E+3   9.23479E+3
  -9.42958E+3   9.19794E+3
  -9.26337E+3   9.18063E+3
  -9.10409E+3   9.14008E+3
  -8.97455E+3   9.20030E+3
  -8.86395E+3   9.08725E+3
  -8.72545E+3   9.07565E+3
  -8.63607E+3   9.06571E+3
  -8.50510E+3   9.05542E+3
  -8.43553E+3   8.96884E+3
  -8.25994E+3   8.95911E+3
  -8.17434E+3   8.96960E+3
  -8.06303E+3   8.93704E+3
  -7.87684E+3   8.77731E+3
  -7.85533E+3   8.78118E+3
  -7.70591E+3   8.75868E+3
  -7.59480E+3   8.83553E+3
  -7.46552E+3   8.77489E+3
  -7.36871E+3   8.71453E+3
  -7.24053E+3   8.64869E+3
  -7.11345E+3   8.61108E+3
  -6.94753E+3   8.61206E+3
  -6.88245E+3   8.51162E+3
  -6.84437E+3   8.49863E+3
  -6.78152E+3   8.51306E+3
  -6.62177E+3   8.36738E+3
  -6.47278E+3   8.42030E+3
  -6.50632E+3   8.39107E+3
  -6.32934E+3   8.30030E+3
  -6.22303E+3   8.24264E+3
  -6.04081E+3   8.22380E+3
  -5.94700E+3   8.22991E+3
  -5.90228E+3   8.13906E+3
  -5.82929E+3   8.08812E+3
  -5.65476E+3   8.08620E+3
  -5.68255E+3   8.05063E+3
  -5.58994E+3   7.99693E+3
  -5.41979E+3   7.87233E+3
  -5.34898E+3   7.83379E+3
  -5.25974E+3   7.85266E+3
  -5.15881E+3   7.85331E+3
  -5.12159E+3   7.74209E+3
  -5.06730E+3   7.74176E+3
  -4.92262E+3   7.68478E+3
  -4.89173E+3   7.62123E+3
  -4.72776E+3   7.58765E+3
  -4.61825E+3   7.55315E+3
  -4.55603E+3   7.45401E+3
  -4.50273E+3   7.40277E+3
  -4.46883E+3   7.35185E+3
  -4.37468E+3   7.40868E+3
  -4.32466E+3   7.28786E+3
  -4.20032E+3   7.25275E+3
  -4.07980E+3   7.20256E+3
  -4.02645E+3   7.13861E+3
  -3.94504E+3   7.11836E+3
  -3.90246E+3   7.09258E+3
  -3.74660E+3   7.05000E+3
  -3.77612E+3   6.95933E+3
  -3.72496E+3   6.95321E+3
  -3.59930E+3   6.94005E+3
  -3.55148E+3   6.80921E+3
  -3.42586E+3   6.84729E+3
  -3.39266E+3   6.80736E+3
  -3.33828E+3   6.70177E+3
  -3.31471E+3   6.65860E+3
  -3.18301E+3   6.53585E+3
  -3.14016E+3   6.60762E+3
  -3.07500E+3   6.52717E+3
  -3.02479E+3   6.44850E+3
  -3.06335E+3   6.42473E+3
  -2.90049E+3   6.34269E+3
  -2.87316E+3   6.35911E+3
  -2.85429E+3   6.30946E+3
  -2.76356E+3   6.22871E+3
  -2.72188E+3   6.16272E+3
  -2.61129E+3   6.14083E+3
  -2.62859E+3   6.11325E+3
  -2.55846E+3   6.11289E+3
  -2.36950E+3   6.08926E+3
  -2.38315E+3   6.03327E+3
  -2.38225E+3   5.97017E+3
  -2.30464E+3   5.89215E+3
  -2.26158E+3   5.83895E+3
  -2.18086E+3   5.83398E+3
  -2.17377E+3   5.82671E+3
  -2.09641E+3   5.77402E+3
  -2.06224E+3   5.69555E+3
  -1.94074E+3   5.73572E+3
  -1.91824E+3   5.60924E+3
  -1.94531E+3   5.55753E+3
  -1.90018E+3   5.53206E+3
  -1.82922E+3   5.47692E+3
  -1.76833E+3   5.47448E+3
  -1.69784E+3   5.45872E+3
  -1.68785E+3   5.40197E+3
  -1.63650E+3   5.26889E+3
  -1.59906E+3   5.31634E+3
  -1.58541E+3   5.25404E+3
  -1.49783E+3   5.22979E+3
  -1.47819E+3   5.15350E+3
  -1.40754E+3   5.11978E+3
  -1.36118E+3   5.01344E+3
  -1.27239E+3   5.06803E+3
  -1.31609E+3   5.08258E+3
  -1.26182E+3   5.01648E+3
  -1.19344E+3   4.94172E+3
  -1.09246E+3   4.89921E+3
  -1.12761E+3   4.89153E+3
  -1.10105E+3   4.80746E+3
  -1.10884E+3   4.76702E+3
  -9.92992E+2   4.72930E+3
  -9.57559E+2   4.67172E+3
  -9.72158E+2   4.69008E+3
  -9.79933E+2   4.61467E+3
  -9.22049E+2   4.58422E+3
  -8.10650E+2   4.54959E+3
  -7.79429E+2   4.55465E+3
  -7.81773E+2   4.45017E+3
  -7.01600E+2   4.44049E+3
  -7.10504E+2   4.37552E+3
  -7.40013E+2   4.32703E+3
  -6.50088E+2   4.35221E+3
  -5.99329E+2   4.30484E+3
  -6.07199E+2   4.27223E+3
  -5.11354E+2   4.22320E+3
  -4.96819E+2   4.23714E+3
  -4.71721E+2   4.16423E+3
  -4.54614E+2   4.15236E+3
  -3.91805E+2   4.08059E+3
  -3.46863E+2   4.04450E+3
  -4.39347E+2   3.95177E+3
  -3.97131E+2   3.90948E+3
  -3.43903E+2   3.90357E+3
  -2.84025E+2   3.86677E+3
  -2.22082E+2   3.86350E+3
  -2.24574E+2   3.81977E+3
  -2.44768E+2   3.81643E+3
  -1.91238E+2   3.69857E+3
  -1.46070E+2   3.70060E+3
  -1.56255E+2   3.71709E+3
  -1.53151E+2   3.63012E+3
  -5.89828E+1   3.63420E+3
  -3.91915E+1   3.59302E+3
   8.67815E+0   3.59574E+3
  -1.72653E+1   3.52806E+3
   5.57575E+1   3.44948E+3
   2.32878E+1   3.49862E+3
   1.04561E+2   3.39915E+3
   4.12324E+1   3.38818E+3
   1.39946E+2   3.35174E+3
   1.60468E+2   3.25191E+3
   1.47045E+2   3.30550E+3
   1.10225E+2   3.27795E+3
   1.86086E+2   3.21691E+3
   1.87523E+2   3.11967E+3
   2.06414E+2   3.15500E+3
   1.93737E+2   3.08958E+3
