 LCModel (Version 6.3-1N) Copyright: S.W. Provencher.          Ref.: Magn. Reson. Med. 30:672-679 (1993).                
 Slice_N1@22_11  02-Jun-2023 14:37:14
 27 lines in following concentration table = NCONC+1
    Conc.  %SD /Cr+PCr  Metabolite                                         
 3.01E-06  10% 3.6E-04 Mac                                                 
 4.06E-02  27%   4.845 Cr                                                  
 2.65E-02  45%   3.155 PCr                                                 
 6.84E-02  11%   8.153 Ins                                                 
 9.47E-02   7%  11.300 NAA                                                 
 6.53E-02  10%   7.787 Tau                                                 
    0.000 999%   0.000 PCho                                                
 1.32E-02  13%   1.573 GPC                                                 
 9.06E-02   9%  10.803 Glu                                                 
 2.48E-02  27%   2.955 Gln                                                 
 5.25E-03 111%   0.626 Ala                                                 
    0.000 999%   0.000 Asc                                                 
 1.47E-02  56%   1.752 Asp                                                 
 1.34E-02  32%   1.594 GABA                                                
 1.17E-02  49%   1.395 Glc                                                 
 1.44E-02  28%   1.723 GSH                                                 
    0.000 999%   0.000 Lac                                                 
 6.01E-04 756% 7.2E-02 NAAG                                                
    0.000 999%   0.000 PE                                                  
 1.32E-02  13%   1.573 GPC+PCho                                            
 9.53E-02   7%  11.372 NAA+NAAG                                            
    0.115   9%  13.758 Glu+Gln                                             
 6.71E-02  10%   8.000 Cr+PCr                                              
 9.53E-02   7%  11.372 NAA+NAAG                                            
 6.71E-02  10%   8.000 Cr+PCr                                              
    0.115   9%  13.758 Glu+Gln                                             
   6 lines in following misc. output table
  FWHM = 0.035 ppm    S/N =   5                                            
  Data shift = 0.041 ppm                                                   
  Ph: -56 deg     -17.6 deg/ppm                                            
  alphaB,S = 5.3E-01,   3.4E-01                                            
   18 spline knots.   Ns = 5(1)                                            
   2 inflections.     2 extrema                                            
  654 points on ppm-axis = NY
      4.000000     3.994181     3.988363     3.982544     3.976726     3.970907     3.965088     3.959270     3.953451     3.947633
      3.941814     3.935995     3.930177     3.924358     3.918540     3.912721     3.906902     3.901084     3.895265     3.889446
      3.883628     3.877809     3.871991     3.866172     3.860353     3.854535     3.848716     3.842898     3.837079     3.831260
      3.825442     3.819623     3.813805     3.807986     3.802167     3.796349     3.790530     3.784712     3.778893     3.773074
      3.767256     3.761437     3.755619     3.749800     3.743981     3.738163     3.732344     3.726526     3.720707     3.714888
      3.709070     3.703251     3.697433     3.691614     3.685795     3.679977     3.674158     3.668339     3.662521     3.656702
      3.650884     3.645065     3.639246     3.633428     3.627609     3.621791     3.615972     3.610153     3.604335     3.598516
      3.592698     3.586879     3.581060     3.575242     3.569423     3.563605     3.557786     3.551967     3.546149     3.540330
      3.534512     3.528693     3.522874     3.517056     3.511237     3.505419     3.499600     3.493781     3.487963     3.482144
      3.476326     3.470507     3.464688     3.458870     3.453051     3.447232     3.441414     3.435595     3.429777     3.423958
      3.418139     3.412321     3.406502     3.400684     3.394865     3.389046     3.383228     3.377409     3.371591     3.365772
      3.359953     3.354135     3.348316     3.342498     3.336679     3.330860     3.325042     3.319223     3.313405     3.307586
      3.301767     3.295949     3.290130     3.284312     3.278493     3.272674     3.266856     3.261037     3.255219     3.249400
      3.243581     3.237763     3.231944     3.226125     3.220307     3.214488     3.208670     3.202851     3.197032     3.191214
      3.185395     3.179577     3.173758     3.167939     3.162121     3.156302     3.150484     3.144665     3.138846     3.133028
      3.127209     3.121391     3.115572     3.109753     3.103935     3.098116     3.092298     3.086479     3.080660     3.074842
      3.069023     3.063205     3.057386     3.051567     3.045749     3.039930     3.034111     3.028293     3.022474     3.016656
      3.010837     3.005018     2.999200     2.993381     2.987563     2.981744     2.975925     2.970107     2.964288     2.958470
      2.952651     2.946832     2.941014     2.935195     2.929377     2.923558     2.917739     2.911921     2.906102     2.900284
      2.894465     2.888646     2.882828     2.877009     2.871191     2.865372     2.859553     2.853735     2.847916     2.842098
      2.836279     2.830460     2.824642     2.818823     2.813004     2.807186     2.801367     2.795549     2.789730     2.783911
      2.778093     2.772274     2.766456     2.760637     2.754818     2.749000     2.743181     2.737363     2.731544     2.725725
      2.719907     2.714088     2.708270     2.702451     2.696632     2.690814     2.684995     2.679177     2.673358     2.667539
      2.661721     2.655902     2.650084     2.644265     2.638446     2.632628     2.626809     2.620991     2.615172     2.609353
      2.603535     2.597716     2.591897     2.586079     2.580260     2.574442     2.568623     2.562804     2.556986     2.551167
      2.545349     2.539530     2.533711     2.527893     2.522074     2.516256     2.510437     2.504618     2.498800     2.492981
      2.487163     2.481344     2.475525     2.469707     2.463888     2.458070     2.452251     2.446432     2.440614     2.434795
      2.428977     2.423158     2.417339     2.411521     2.405702     2.399884     2.394065     2.388246     2.382428     2.376609
      2.370790     2.364972     2.359153     2.353335     2.347516     2.341697     2.335879     2.330060     2.324242     2.318423
      2.312604     2.306786     2.300967     2.295149     2.289330     2.283511     2.277693     2.271874     2.266056     2.260237
      2.254418     2.248600     2.242781     2.236963     2.231144     2.225325     2.219507     2.213688     2.207870     2.202051
      2.196232     2.190414     2.184595     2.178777     2.172958     2.167139     2.161321     2.155502     2.149683     2.143865
      2.138046     2.132228     2.126409     2.120590     2.114772     2.108953     2.103135     2.097316     2.091497     2.085679
      2.079860     2.074042     2.068223     2.062404     2.056586     2.050767     2.044949     2.039130     2.033311     2.027493
      2.021674     2.015856     2.010037     2.004218     1.998400     1.992581     1.986763     1.980944     1.975126     1.969307
      1.963489     1.957670     1.951852     1.946033     1.940215     1.934397     1.928578     1.922760     1.916941     1.911123
      1.905304     1.899486     1.893667     1.887849     1.882030     1.876212     1.870393     1.864575     1.858756     1.852938
      1.847119     1.841301     1.835482     1.829664     1.823845     1.818027     1.812208     1.806390     1.800571     1.794753
      1.788934     1.783116     1.777297     1.771479     1.765660     1.759842     1.754023     1.748205     1.742386     1.736568
      1.730749     1.724931     1.719113     1.713294     1.707476     1.701657     1.695839     1.690020     1.684202     1.678383
      1.672565     1.666746     1.660928     1.655109     1.649291     1.643472     1.637654     1.631835     1.626017     1.620198
      1.614380     1.608561     1.602743     1.596924     1.591106     1.585287     1.579469     1.573650     1.567832     1.562013
      1.556195     1.550376     1.544558     1.538739     1.532921     1.527102     1.521284     1.515465     1.509647     1.503829
      1.498010     1.492192     1.486373     1.480555     1.474736     1.468918     1.463099     1.457281     1.451462     1.445644
      1.439825     1.434007     1.428188     1.422370     1.416551     1.410733     1.404914     1.399096     1.393277     1.387459
      1.381640     1.375822     1.370003     1.364185     1.358366     1.352548     1.346729     1.340911     1.335092     1.329274
      1.323455     1.317637     1.311818     1.306000     1.300182     1.294363     1.288545     1.282726     1.276908     1.271089
      1.265271     1.259452     1.253634     1.247815     1.241997     1.236178     1.230360     1.224541     1.218723     1.212904
      1.207086     1.201267     1.195449     1.189630     1.183812     1.177993     1.172175     1.166356     1.160538     1.154719
      1.148901     1.143082     1.137264     1.131445     1.125627     1.119808     1.113990     1.108171     1.102353     1.096534
      1.090716     1.084898     1.079079     1.073261     1.067442     1.061624     1.055805     1.049987     1.044168     1.038350
      1.032531     1.026713     1.020894     1.015076     1.009257     1.003439     0.997620     0.991802     0.985983     0.980165
      0.974346     0.968528     0.962709     0.956891     0.951072     0.945254     0.939435     0.933617     0.927798     0.921980
      0.916161     0.910343     0.904524     0.898706     0.892887     0.887069     0.881251     0.875432     0.869614     0.863795
      0.857977     0.852158     0.846340     0.840521     0.834703     0.828884     0.823066     0.817247     0.811429     0.805610
      0.799792     0.793973     0.788155     0.782336     0.776518     0.770699     0.764881     0.759062     0.753244     0.747425
      0.741607     0.735788     0.729970     0.724151     0.718333     0.712514     0.706696     0.700877     0.695059     0.689240
      0.683422     0.677603     0.671785     0.665967     0.660148     0.654330     0.648511     0.642693     0.636874     0.631056
      0.625237     0.619419     0.613600     0.607782     0.601963     0.596145     0.590326     0.584508     0.578689     0.572871
      0.567052     0.561234     0.555415     0.549597     0.543778     0.537960     0.532141     0.526323     0.520504     0.514686
      0.508867     0.503049     0.497230     0.491412     0.485593     0.479775     0.473956     0.468138     0.462319     0.456501
      0.450682     0.444864     0.439045     0.433227     0.427408     0.421590     0.415771     0.409953     0.404134     0.398316
      0.392497     0.386679     0.380860     0.375042     0.369223     0.363405     0.357586     0.351767     0.345949     0.340130
      0.334312     0.328493     0.322675     0.316856     0.311038     0.305219     0.299401     0.293582     0.287764     0.281945
      0.276127     0.270308     0.264490     0.258671     0.252853     0.247034     0.241216     0.235397     0.229579     0.223760
      0.217942     0.212123     0.206305     0.200486
 NY phased data points follow
  -4.04272E-01 -2.61472E-01 -1.44892E-01 -1.24194E-01 -2.20532E-01 -1.60538E-01 -5.92105E-02 -2.36749E-01 -3.70518E-01 -3.05379E-02
   1.04543E-01  1.03918E-01  4.70773E-02  3.88575E-01  4.20770E-01  2.74535E-01  4.47556E-01  3.39916E-01  4.35050E-01  3.93311E-01
   2.97502E-01 -3.43651E-02 -1.03923E-01 -1.08707E-02 -1.65409E-01 -9.95655E-02  3.15220E-02  1.43586E-01  6.08367E-02  1.33825E-01
  -1.48848E-01 -1.99685E-01  3.62707E-01  1.13618E-01 -3.31303E-01 -1.54967E-01 -4.38699E-01 -7.34402E-01 -5.24458E-01 -4.51769E-01
  -7.27521E-02 -2.48050E-02  6.87390E-02  3.03876E-01  3.43893E-01  4.97670E-01  1.67128E-01  3.01773E-01  3.22634E-01  1.45007E-02
   3.68790E-02 -2.01308E-01 -4.43361E-02  1.45389E-01  2.40860E-02  3.47014E-02  6.25835E-02 -1.12851E-01 -3.97981E-01 -1.02634E-01
  -1.39450E-01 -1.62957E-01  1.92274E-02 -2.08278E-01 -8.44221E-02 -3.12880E-01 -2.13086E-01  5.47345E-03  1.47219E-01  1.28197E-01
   5.18817E-02  4.03890E-01  3.22740E-01  1.56630E-01 -6.24429E-02  2.33389E-01  2.91693E-02 -6.15201E-02 -1.66489E-01 -3.97404E-01
  -2.64862E-01 -3.52089E-01 -6.43105E-03 -1.62022E-01  6.70891E-02  7.90035E-02  1.97954E-01  2.91743E-01  2.58310E-01  3.13488E-01
   1.89992E-01  2.10660E-01 -5.38541E-02  5.05183E-01  4.06950E-01  2.37640E-01  4.08287E-02 -1.09782E-01  1.63213E-01 -1.90978E-01
  -4.05542E-01  6.26740E-02 -1.04366E-01 -3.54586E-01  4.08991E-01  4.61352E-02  2.99584E-01  3.11066E-01  1.93089E-01  5.15326E-01
   3.05941E-01  5.07037E-01  3.42833E-01  6.11513E-01  4.61282E-01  3.73651E-01  4.19741E-01  3.54408E-01  3.93849E-01  1.14562E-01
   1.58033E-01  1.31514E-01  1.62693E-01  1.21364E-01  5.02211E-02 -1.36222E-01 -1.49957E-01 -9.29073E-02 -3.24980E-01 -5.46289E-01
  -9.75380E-01 -9.52912E-01 -5.82870E-01 -4.37047E-01 -4.90482E-01 -5.69808E-01 -5.38634E-01 -7.19367E-01 -6.02414E-01 -6.75344E-01
  -6.67977E-01 -1.72529E-01 -1.16865E-01 -1.17808E-01 -2.37512E-01 -1.24655E-01 -4.04242E-02 -8.27816E-02  7.33987E-02  4.08778E-02
   8.31760E-02  2.62465E-01  2.07874E-01 -6.73112E-02  3.14252E-01  3.91023E-01  9.14528E-02  3.27143E-01  3.02114E-01  1.84953E-01
   2.41799E-01  3.97061E-01  3.35093E-01  6.33670E-01  1.14631E+00  1.03154E+00  9.80956E-01  3.76851E-01  3.91722E-02 -7.99399E-02
  -7.08255E-01 -7.89777E-01 -8.33096E-01 -6.29450E-01 -4.52766E-01 -5.00586E-01 -3.70526E-01 -4.14846E-01 -4.84766E-01 -1.27226E-01
  -3.11018E-01 -5.01041E-01 -4.29939E-02 -3.44920E-01 -3.69117E-01 -2.86879E-01 -4.50076E-01 -3.66504E-01 -3.32436E-01 -2.98181E-01
  -2.91925E-01 -2.95490E-01 -2.26110E-01 -7.82738E-03 -1.33087E-01 -2.28740E-01 -2.36164E-01 -1.32769E-01  1.29560E-01 -2.25974E-01
  -4.50651E-01 -2.27483E-02 -1.53719E-03 -1.78298E-01 -5.95715E-02 -6.41691E-02 -2.48490E-01 -5.64769E-02  1.75131E-01  1.03448E-02
   1.24969E-01  1.83264E-01 -1.35566E-02 -1.07057E-01 -1.58143E-02 -2.87060E-01 -2.12630E-01  2.42725E-01  4.40199E-02 -1.20937E-01
  -1.68401E-01  1.46953E-01  6.82400E-02 -6.69035E-02  3.49650E-01  1.21970E-01  2.12568E-01  4.76590E-01  3.60333E-01  3.50342E-01
   4.99129E-01  7.45425E-01  5.87568E-01  4.71240E-01  1.88678E-01 -4.74645E-02 -1.55110E-01 -8.47582E-02 -8.72351E-02 -3.29465E-01
   3.99844E-02 -1.39207E-01 -3.23509E-02 -1.47559E-01 -4.02433E-01 -2.60190E-03  2.03675E-01  2.41573E-01 -1.21027E-01 -1.07194E-01
  -1.67087E-01  1.82525E-01  1.61113E-01 -5.24083E-02  1.26474E-01  8.81866E-02 -1.82514E-02 -3.08834E-01 -5.06086E-03  9.00565E-02
   5.00936E-03 -6.05802E-02  1.17638E-01  1.66138E-01  8.94851E-02  2.67293E-01  2.62921E-01  1.05402E-01  1.20909E-01  4.11820E-01
   2.04695E-01  3.03806E-01  2.76000E-01  3.41297E-02  1.17024E-01 -9.20508E-02 -1.04848E-01  1.53115E-01 -1.39790E-01 -3.06538E-01
  -1.58724E-01 -4.97037E-01 -5.84711E-01 -6.55619E-01 -5.58822E-01 -1.37300E-01  6.11788E-02  3.28995E-01  4.18898E-01  4.46235E-01
   4.82151E-01  2.76993E-01  1.93659E-01  2.19352E-01  3.22159E-01  9.17789E-02  1.72923E-01  1.89950E-01 -3.06944E-02  3.88167E-01
   2.51769E-01  3.30372E-01  4.36344E-01  3.76554E-01  4.36052E-01  4.41944E-01  2.56869E-01  3.93509E-01  5.38698E-01  1.60703E-01
   6.63043E-01  4.73412E-01  3.68018E-01  2.87644E-01  6.09380E-02  4.21924E-02 -4.62777E-02  4.18349E-02 -1.85871E-01  6.19176E-02
  -2.49786E-01 -1.55393E-01 -2.20613E-01 -4.86697E-01 -3.07599E-01 -4.31289E-01 -3.93450E-01 -1.30002E-01 -2.60878E-02 -7.28818E-02
   4.28778E-01  1.20374E-01 -3.52800E-02  1.94585E-01  1.75456E-02 -2.45734E-01 -2.02121E-01 -9.64539E-02 -7.68013E-02  8.42079E-02
  -6.59964E-01 -1.09095E+00 -1.21747E+00 -1.45906E+00 -1.48760E+00 -1.33132E+00 -9.01458E-01 -6.01262E-01 -3.23420E-01  2.38646E-02
   1.49941E-01  2.59616E-01  1.96382E-01  2.21017E-01  1.52845E-01 -1.88899E-01  8.88079E-02  2.69735E-01  3.60807E-01 -8.35235E-02
  -7.18314E-02 -9.83275E-02 -2.70747E-01  1.07803E-01 -1.90584E-01  2.30316E-01  2.69670E-01  6.74736E-02  2.55840E-01  9.51213E-03
  -8.83222E-02  1.23389E-01  5.29780E-02  2.52079E-02  2.84821E-01  2.28172E-01  1.42650E-01  8.67945E-02  5.97642E-02  2.45928E-01
   6.25001E-02 -1.13868E-01  4.48303E-01  9.67215E-03  2.49943E-01  2.42676E-01 -2.28012E-01  3.78708E-01  2.19544E-01  2.71408E-01
   8.01822E-02  1.51357E-01  1.79571E-01  5.81445E-02  2.04078E-01  3.71202E-01  2.21869E-01  9.23620E-02  1.91066E-01 -1.31267E-01
   1.88032E-01  8.11688E-02  4.22303E-02  1.34183E-01  1.22968E-01  1.05424E-01 -1.54954E-01 -6.73649E-02  5.82885E-02 -4.07787E-02
  -3.27796E-02 -1.58430E-01 -2.26881E-01 -5.41100E-02 -2.10383E-01 -2.48470E-02 -2.28817E-01 -2.41565E-02  2.30475E-01 -1.97341E-01
  -2.96937E-01 -9.79239E-02 -2.89202E-01 -3.53699E-01 -2.00447E-01 -2.21920E-01  2.06733E-02 -2.81859E-01  1.31873E-01  1.51265E-01
  -1.15095E-01 -1.65814E-01 -9.44488E-02  3.19796E-02 -1.66611E-01  7.41927E-02 -1.94874E-02  3.00433E-01  3.05454E-01  2.25044E-01
  -3.40365E-02  5.66556E-02  3.88302E-01 -5.86523E-02 -4.50918E-02  8.37227E-02  4.53169E-02  2.81094E-01  3.08236E-01  1.77972E-01
   3.85858E-01  3.17381E-01  2.65603E-01 -1.36451E-01  2.64021E-02  1.79147E-01 -8.51693E-02 -4.14024E-02 -3.48609E-02 -1.61363E-02
  -1.82661E-01  7.08468E-02  2.79427E-01  1.84743E-01 -6.65250E-02  1.74796E-01 -4.96087E-02 -3.14848E-02  9.95644E-02 -3.78868E-01
  -4.13428E-01 -5.12413E-01 -4.20975E-01 -2.83205E-01  1.05104E-03 -2.57868E-01 -5.80089E-01 -3.96437E-01 -2.28479E-01 -2.71864E-01
  -6.33953E-02 -9.71299E-02 -3.54545E-01 -2.34149E-02  2.23630E-01  2.91510E-01  3.56668E-02  1.22581E-01  7.08189E-02 -1.78736E-01
  -8.39398E-02 -1.47300E-02 -6.08032E-02  1.98773E-01  1.46612E-01 -7.68417E-02  1.42997E-01  5.21201E-02  2.02641E-01  1.73431E-02
   7.33332E-03  6.29760E-01  5.42291E-01  3.47763E-01  3.72884E-01  2.14512E-01  1.70327E-01  1.12784E-01  1.95658E-01  1.09344E-01
   1.85258E-01  1.95198E-02 -4.04904E-03  2.21682E-01 -3.43934E-02  2.83889E-01 -2.56507E-01  4.32530E-04  2.62630E-01 -1.74781E-01
   9.63619E-02 -2.18938E-01 -3.44175E-01 -3.67256E-01 -3.61685E-02 -2.20287E-01 -4.43986E-01 -4.09380E-01 -4.41581E-01 -3.67665E-01
  -6.11821E-01 -4.24011E-01 -5.68095E-01 -4.20566E-01 -1.45772E-01 -4.03406E-01 -2.45018E-01 -2.24866E-01 -3.32105E-01 -3.39808E-01
  -2.00910E-01 -2.60487E-01 -2.47521E-01 -4.79015E-02 -4.24825E-01 -1.14697E-01  5.76515E-02 -1.12333E-02  7.33148E-02 -6.85859E-02
  -9.12088E-02 -1.99283E-01  1.34761E-01  2.32808E-01  5.92549E-02  6.30110E-02  1.39395E-01 -5.21336E-02  8.24048E-02  8.70191E-02
  -9.47613E-02  6.29943E-02  3.38365E-02  1.20147E-01  5.99174E-02  3.68366E-03  1.47746E-02 -3.74216E-02 -3.64226E-02  5.12464E-02
  -6.59716E-02  1.99873E-01  7.38731E-02  2.16788E-02 -5.77523E-02 -1.70907E-01  1.35595E-01 -2.50627E-01  7.54199E-02 -1.35091E-01
   5.26938E-02  2.05847E-01 -1.26646E-01  1.55364E-01 -1.04233E-01  8.46599E-02  2.18318E-01  6.91961E-02 -1.18569E-01  8.94483E-02
   2.89268E-01  1.97860E-01  9.85692E-02 -9.32216E-02  3.45947E-02  6.32501E-02  1.06353E-01  2.08593E-01 -3.79990E-02  1.38359E-01
   2.10958E-01 -3.21340E-02 -1.16428E-01 -9.86302E-02  3.32386E-01  1.94332E-01  9.41318E-02 -4.15069E-02 -1.48748E-01 -3.21065E-02
  -8.43959E-02 -3.20549E-02 -3.21845E-03  1.06575E-01  1.86107E-01  1.30224E-01 -1.63834E-01  6.01059E-02  1.93861E-01  8.88720E-02
   1.00511E-01  1.20734E-01 -1.20771E-01 -6.96759E-02  2.50611E-02  1.50842E-02  1.75664E-01  2.45212E-02  4.71453E-01  8.57087E-02
  -2.42284E-01 -7.39993E-02  7.07291E-02  3.48399E-02 -3.18252E-01  1.49408E-01  2.23251E-02 -1.62538E-02  2.79522E-01  1.05257E-01
   5.24885E-03 -6.25693E-02  3.00992E-02  1.07308E-01  3.43659E-02 -1.11219E-01 -1.06356E-01  1.42610E-01  3.40999E-02  1.07774E-02
  -8.78560E-02  1.03804E-01  1.59467E-01 -2.31044E-01
 NY points of the fit to the data follow
  -3.82732E-02 -3.49301E-02 -3.39203E-02 -3.12932E-02 -2.59491E-02 -1.57454E-02 -1.01841E-02 -2.03898E-02 -6.46047E-02  3.37951E-03
   1.19430E-01  1.32325E-01  1.60359E-01  3.38001E-01  4.88957E-01  5.11435E-01  5.19445E-01  4.68896E-01  4.52361E-01  3.57942E-01
   2.63799E-01  1.53959E-01  1.14398E-01  7.48985E-02  2.59620E-02 -1.29631E-02 -5.28020E-02 -8.12996E-02 -1.00176E-01 -1.14651E-01
  -1.28178E-01 -1.43885E-01 -1.61393E-01 -1.83058E-01 -2.17973E-01 -2.70221E-01 -3.55710E-01 -3.51557E-01 -3.08277E-01 -2.45013E-01
  -1.62864E-01 -3.99150E-02  1.08611E-01  2.16381E-01  3.26199E-01  3.34807E-01  3.68139E-01  3.25284E-01  2.86850E-01  1.97158E-01
   1.44006E-01  7.99610E-02  4.55921E-02  1.74004E-02 -1.27870E-02 -7.04115E-02 -1.31858E-01 -1.56424E-01 -1.48211E-01 -1.43398E-01
  -1.88424E-01 -1.66314E-01 -1.76067E-01 -2.98272E-01 -2.80392E-01 -2.76455E-01 -2.22332E-01 -9.83646E-02  4.12236E-02  1.85790E-01
   2.55131E-01  3.17988E-01  2.90832E-01  2.69037E-01  2.10090E-01  1.54963E-01  1.16850E-01 -4.17458E-02 -2.53030E-01 -3.00196E-01
  -3.64219E-01 -4.24926E-01 -3.46459E-01 -1.72075E-01  2.66770E-02  1.65726E-01  2.74941E-01  3.15975E-01  3.40365E-01  3.19202E-01
   2.66291E-01  2.37591E-01  2.14244E-01  2.02744E-01  1.74848E-01  1.09139E-01  3.10853E-03 -1.55717E-01 -2.91868E-01 -3.79060E-01
  -3.87572E-01 -3.03180E-01 -1.88457E-01 -2.66722E-02  1.02934E-01  2.05000E-01  2.41389E-01  2.56783E-01  2.55821E-01  2.58169E-01
   2.59933E-01  2.61483E-01  2.60508E-01  2.60758E-01  2.58895E-01  2.59077E-01  2.58127E-01  2.58690E-01  2.65447E-01  2.89798E-01
   2.50319E-01  2.20798E-01  2.31508E-01  1.43138E-01  1.38668E-01  3.14541E-02 -5.71180E-03 -1.98392E-01 -3.88045E-01 -4.95811E-01
  -6.77471E-01 -5.90153E-01 -5.00854E-01 -3.09768E-01 -4.91154E-01 -5.19746E-01 -6.21208E-01 -6.63566E-01 -7.24604E-01 -6.69438E-01
  -4.94661E-01 -2.98754E-01 -1.46702E-01 -8.81492E-02 -3.98949E-02 -6.19740E-05  3.43051E-02  6.25186E-02  8.87515E-02  1.11492E-01
   1.32287E-01  1.49880E-01  1.67704E-01  1.85236E-01  2.02910E-01  2.24123E-01  2.45698E-01  2.67467E-01  2.90009E-01  3.16262E-01
   3.45007E-01  3.75217E-01  4.09369E-01  5.37618E-01  1.00850E+00  1.05151E+00  7.33638E-01  4.67599E-01  9.20496E-02 -2.32553E-01
  -6.69348E-01 -7.76976E-01 -7.92754E-01 -5.87470E-01 -4.97877E-01 -4.42343E-01 -4.13282E-01 -3.88640E-01 -3.57592E-01 -3.33061E-01
  -3.11690E-01 -3.00396E-01 -2.84375E-01 -2.71339E-01 -2.60583E-01 -2.51125E-01 -2.46984E-01 -2.38559E-01 -2.29504E-01 -2.17691E-01
  -2.06045E-01 -1.94898E-01 -1.81985E-01 -1.69550E-01 -1.56473E-01 -1.43920E-01 -1.32024E-01 -1.20725E-01 -1.12100E-01 -1.00031E-01
  -8.25258E-02 -6.29929E-02 -5.27141E-02 -5.10093E-02 -4.80145E-02 -3.74218E-02 -2.44986E-02 -2.46516E-02 -2.75550E-02 -2.94198E-02
  -3.27402E-02 -4.35473E-02 -5.51742E-02 -5.90854E-02 -5.80081E-02 -5.21675E-02 -5.01441E-02 -4.80676E-02 -4.83435E-02 -4.78735E-02
  -5.29734E-02 -8.00222E-02 -5.69371E-02  3.26923E-02  1.11277E-01  1.59070E-01  1.56417E-01  2.05841E-01  3.19644E-01  3.59144E-01
   3.55615E-01  3.49379E-01  3.35419E-01  2.78925E-01  1.69338E-01  7.29547E-02  1.31940E-03 -1.99571E-02 -4.12938E-02 -5.61528E-02
  -6.88432E-02 -7.97455E-02 -8.67028E-02 -9.75098E-02 -9.86145E-02 -1.04573E-01 -1.01490E-01 -9.56947E-02 -9.71647E-02 -8.71292E-02
  -9.70802E-02 -9.90761E-02 -1.20915E-01 -1.91256E-01 -1.73685E-01 -1.31757E-01 -1.66035E-01 -1.13970E-01 -5.78738E-02  3.87067E-02
   6.19113E-02  6.94664E-02  1.24743E-01  1.21560E-01  1.47771E-01  1.18209E-01  1.27613E-01  1.50530E-01  1.48972E-01  1.67814E-01
   1.44761E-01  1.49049E-01  1.15335E-01  8.76665E-02  4.54884E-02  2.92430E-03 -3.52492E-02 -7.80607E-02 -1.14133E-01 -2.08922E-01
  -3.00446E-01 -4.13358E-01 -5.18019E-01 -4.87301E-01 -4.28066E-01 -2.50282E-01 -1.82581E-02  1.95673E-01  3.71241E-01  4.36420E-01
   4.66235E-01  3.88838E-01  3.36748E-01  2.79614E-01  2.46886E-01  2.67533E-01  2.67240E-01  3.01599E-01  3.01360E-01  3.19537E-01
   3.03747E-01  3.00149E-01  2.87160E-01  2.79246E-01  2.71923E-01  2.66597E-01  2.59738E-01  2.52963E-01  2.43475E-01  2.32013E-01
   2.17984E-01  1.92879E-01  1.70867E-01  1.29589E-01  9.19473E-02  3.61919E-02 -3.09408E-02 -8.48312E-02 -1.57520E-01 -2.15572E-01
  -2.74339E-01 -3.15701E-01 -3.45306E-01 -3.54726E-01 -3.43793E-01 -2.92365E-01 -2.29179E-01 -1.21569E-01 -5.84914E-02  3.19141E-02
   5.17705E-02  5.06689E-02  2.43781E-02 -4.34966E-02 -7.92264E-02 -1.37279E-01 -1.35560E-01 -1.03868E-01  1.18865E-01  1.13631E-01
  -5.43153E-01 -1.02052E+00 -1.31454E+00 -1.49465E+00 -1.55980E+00 -1.40231E+00 -9.36095E-01 -5.12024E-01 -1.82751E-01 -1.25135E-01
  -7.24293E-02 -3.61604E-02 -8.63625E-03  1.24685E-02  3.13754E-02  4.30522E-02  5.81171E-02  5.72321E-02  5.83694E-02  4.74549E-02
   2.58342E-02  1.08620E-02 -1.84188E-02 -2.32527E-02 -3.68990E-02 -2.56326E-02 -2.16225E-02 -2.85451E-03  1.04458E-02  2.44319E-02
   3.77240E-02  4.81694E-02  5.70632E-02  6.47583E-02  7.11311E-02  7.74269E-02  8.29544E-02  8.81570E-02  9.22231E-02  9.65390E-02
   1.01162E-01  1.04570E-01  1.09737E-01  1.12945E-01  1.17201E-01  1.18434E-01  1.21883E-01  1.23123E-01  1.25799E-01  1.29746E-01
   1.33882E-01  1.39397E-01  1.41755E-01  1.43567E-01  1.42219E-01  1.40891E-01  1.37648E-01  1.34232E-01  1.29543E-01  1.24650E-01
   1.19375E-01  1.11525E-01  1.01699E-01  9.20765E-02  8.28716E-02  7.38640E-02  6.34268E-02  5.54840E-02  4.62515E-02  3.87155E-02
   3.12226E-02  2.39997E-02  1.80543E-02  1.27606E-02  7.92664E-03  2.85777E-03 -1.64874E-03 -6.00546E-03 -9.12884E-03 -1.34959E-02
  -1.68649E-02 -1.87808E-02 -2.03372E-02 -2.12088E-02 -2.06492E-02 -1.86696E-02 -1.53753E-02 -9.54327E-03 -2.01292E-03  3.28328E-03
   6.21207E-03  7.22824E-03  3.00305E-02  4.57891E-02  7.51285E-02  1.02860E-01  1.11131E-01  1.22109E-01  1.11953E-01  1.10706E-01
   9.46517E-02  9.91406E-02  1.01444E-01  1.17069E-01  1.32974E-01  1.48833E-01  1.64572E-01  1.78915E-01  1.91315E-01  2.00627E-01
   2.07404E-01  2.10925E-01  2.12480E-01  2.13123E-01  2.11984E-01  2.08181E-01  2.00240E-01  1.90524E-01  1.78111E-01  1.64859E-01
   1.50135E-01  1.36425E-01  1.20896E-01  1.08004E-01  9.50784E-02  8.23727E-02  7.01230E-02  5.91572E-02  5.01671E-02  4.13870E-02
   3.37544E-02  2.50569E-02  1.85710E-02  1.45333E-02  1.13277E-02  9.38257E-03  1.03404E-02  1.24787E-02  1.59127E-02  2.00359E-02
   2.62115E-02  3.27376E-02  3.97750E-02  4.69738E-02  5.30481E-02  5.75466E-02  6.02115E-02  6.41799E-02  6.76813E-02  7.05451E-02
   7.36058E-02  7.46959E-02  7.64426E-02  7.60063E-02  7.26415E-02  6.87989E-02  6.41559E-02  6.07067E-02  5.52376E-02  5.06595E-02
   4.57153E-02  4.12161E-02  3.69450E-02  3.16776E-02  2.55774E-02  1.91729E-02  1.42253E-02  9.39064E-03  4.44617E-03 -1.39743E-04
  -3.43059E-03 -7.10227E-03 -1.26796E-02 -1.97194E-02 -2.78798E-02 -3.60902E-02 -4.47553E-02 -5.51230E-02 -6.64749E-02 -8.15635E-02
  -9.85570E-02 -1.17701E-01 -1.39758E-01 -1.62953E-01 -1.86389E-01 -2.07064E-01 -2.27799E-01 -2.47608E-01 -2.67093E-01 -2.81050E-01
  -2.91880E-01 -3.00656E-01 -3.06378E-01 -3.06664E-01 -3.03232E-01 -2.97096E-01 -2.89301E-01 -2.80058E-01 -2.70621E-01 -2.61144E-01
  -2.50818E-01 -2.41820E-01 -2.31473E-01 -2.19694E-01 -2.06331E-01 -1.92178E-01 -1.77884E-01 -1.62307E-01 -1.48829E-01 -1.34946E-01
  -1.20248E-01 -1.06886E-01 -9.44353E-02 -8.40415E-02 -7.28924E-02 -6.09292E-02 -5.12480E-02 -4.45358E-02 -3.57781E-02 -2.83898E-02
  -2.18601E-02 -1.64552E-02 -1.24088E-02 -8.09762E-03 -4.18733E-03 -3.22173E-04  1.12937E-03  1.85999E-03  3.85235E-03  5.09576E-03
   6.29085E-03  8.24192E-03  1.15671E-02  1.47988E-02  1.67506E-02  1.94565E-02  2.05416E-02  2.05516E-02  2.11808E-02  2.08651E-02
   2.00762E-02  1.99548E-02  1.97448E-02  1.90520E-02  1.84351E-02  1.82810E-02  2.03768E-02  2.26549E-02  2.13305E-02  1.91998E-02
   1.87387E-02  1.77776E-02  1.56380E-02  1.32868E-02  1.44483E-02  1.61603E-02  1.55739E-02  1.40084E-02  1.25787E-02  1.32602E-02
   1.26745E-02  1.29302E-02  1.34794E-02  1.51052E-02  1.73166E-02  1.87187E-02  1.93920E-02  2.09623E-02  2.32938E-02  2.55163E-02
   2.54945E-02  2.48471E-02  2.50260E-02  2.38324E-02  2.40051E-02  2.36539E-02  2.57589E-02  2.75082E-02  2.87480E-02  2.92614E-02
   3.13802E-02  3.36421E-02  3.70986E-02  3.99008E-02  4.15131E-02  4.24744E-02  4.22597E-02  4.29408E-02  4.31276E-02  4.31764E-02
   4.38453E-02  4.47274E-02  4.54366E-02  4.65496E-02  4.72125E-02  4.62928E-02  4.69325E-02  4.97641E-02  5.14460E-02  5.25342E-02
   5.44786E-02  5.66964E-02  5.96614E-02  6.10839E-02  6.15528E-02  6.39137E-02  6.81289E-02  7.31741E-02  7.78913E-02  8.36874E-02
   8.95467E-02  9.34804E-02  9.76301E-02  1.02613E-01
 NY background values follow
    -1.113E-02   -1.057E-02   -1.002E-02   -9.461E-03   -8.904E-03   -8.347E-03   -7.789E-03   -7.232E-03   -6.675E-03   -6.118E-03
    -5.562E-03   -5.005E-03   -4.449E-03   -3.892E-03   -3.336E-03   -2.781E-03   -2.225E-03   -1.670E-03   -1.115E-03   -5.605E-04
    -6.375E-06    5.473E-04    1.101E-03    1.653E-03    2.206E-03    2.758E-03    3.309E-03    3.860E-03    4.410E-03    4.959E-03
     5.508E-03    6.056E-03    6.604E-03    7.151E-03    7.697E-03    8.242E-03    8.787E-03    9.331E-03    9.873E-03    1.042E-02
     1.096E-02    1.150E-02    1.204E-02    1.257E-02    1.311E-02    1.365E-02    1.418E-02    1.472E-02    1.525E-02    1.578E-02
     1.631E-02    1.684E-02    1.737E-02    1.790E-02    1.842E-02    1.895E-02    1.947E-02    1.999E-02    2.051E-02    2.103E-02
     2.155E-02    2.206E-02    2.257E-02    2.309E-02    2.360E-02    2.411E-02    2.461E-02    2.512E-02    2.562E-02    2.612E-02
