 
 $NMID
 ID=''
 FMTDAT='(2E13.5)'
 TRAMP=   1.00000E+0
 VOLUME=   1.00000E+0
 $END
   5.04156E+1  -9.69114E+2
   1.24081E+3   1.37930E+3
   5.96182E+2  -3.37594E+3
   1.00706E+3   7.21173E+2
  -1.57327E+3   2.76024E+2
  -1.03647E+3   2.30427E+3
   2.31957E+3   1.66668E+3
   8.80241E+2  -2.32596E+3
  -6.06507E+2  -7.47832E+3
  -4.16958E+2  -2.25720E+3
   1.21528E+3  -1.11669E+3
  -1.16200E+3   3.00978E+3
  -1.59714E+3   4.54853E+3
  -2.25969E+3   4.85465E+3
  -2.10270E+3  -3.10517E+2
   5.57064E+2  -1.75272E+3
   4.68616E+3  -4.76671E+3
   3.73368E+3   1.48404E+2
   9.12913E+2   3.36090E+3
  -1.94815E+3   4.46135E+2
   7.32194E+2  -3.72781E+3
   3.22202E+3  -2.33372E+2
  -5.26575E+3   4.40553E+3
  -6.04299E+3  -1.60574E+3
  -1.56805E+3  -3.33652E+3
   2.12072E+3   2.87018E+3
  -5.02594E+2   6.48292E+3
  -7.99650E+2   1.39158E+3
   7.42724E+2  -5.07435E+3
   4.80941E+3  -1.70811E+3
   5.78645E+3   6.37999E+2
   1.08703E+3   4.91954E+3
  -3.87176E+3  -4.00255E+2
  -2.27939E+3  -2.65816E+3
  -2.89452E+3  -1.31649E+3
  -4.61111E+3  -2.56231E+3
  -7.59685E+1  -6.27827E+3
   4.56014E+3  -1.80196E+3
   2.69329E+3   3.19412E+3
   2.88379E+3   3.94358E+3
   3.17981E+3   3.41123E+3
  -1.79405E+3  -5.97863E+2
  -4.52425E+3  -4.42724E+3
  -1.24775E+2  -7.06888E+3
   2.14013E+3  -2.98306E+3
  -3.28786E+2   4.61165E+2
  -5.13311E+2  -9.79666E+2
   2.77830E+1   4.71988E+1
  -4.70954E+2   4.39817E+3
  -2.30966E+3   3.30031E+3
  -3.30462E+3   1.10580E+3
  -2.78891E+3  -3.26777E+3
   8.85072E+2  -2.41173E+3
   1.10428E+3  -1.58911E+3
   3.27948E+3   1.03811E+3
   7.23734E+2   2.27061E+3
  -1.98333E+2   3.70848E+3
  -4.21137E+3   4.33105E+3
  -8.45100E+3  -9.98429E+2
  -4.36958E+3  -2.85190E+3
  -1.35562E+3  -4.32900E+3
   3.31631E+3  -3.31564E+3
   5.70142E+2   1.73300E+3
  -1.49049E+2   1.31147E+3
   6.59098E+2  -1.59722E+3
   5.30624E+3  -2.07407E+3
   6.24387E+3   2.21834E+3
   3.95699E+3   2.37519E+3
   2.19490E+3  -1.28771E+3
   2.26918E+3  -2.37271E+3
   3.56624E+3  -1.24555E+3
   2.63729E+3  -1.65658E+3
  -3.44810E+2   1.75662E+3
  -1.70259E+3  -8.06962E+2
  -8.60314E+2  -6.10324E+1
  -1.11288E+3  -8.51811E+2
  -3.50524E+2   1.22760E+3
  -9.89628E+2  -6.83199E+2
   2.39353E+3   2.98831E+2
   2.68433E+3  -1.21612E+3
   2.94311E+3   3.28720E+2
   1.50287E+3  -1.62150E+3
   1.98245E+3  -9.53449E+2
   2.41952E+3  -2.27188E+3
   3.16613E+3  -6.14099E+2
  -1.66894E+3   3.28726E+3
  -1.61730E+3   1.79027E+3
  -5.55062E+3  -3.39709E+3
  -2.13657E+3  -1.78616E+3
   7.60404E+2   1.63150E+3
   1.21844E+2   4.00682E+3
  -7.71606E+2  -2.03910E-1
   1.42991E+3  -2.28084E+3
   3.39704E+3   4.92726E+3
  -2.63747E+2   4.32833E+3
  -1.56364E+3   2.06889E+3
  -1.65557E+3  -1.66656E+3
   2.22257E+3  -1.38956E+3
   4.52866E+3   1.88735E+3
   1.48735E+3   2.57316E+3
  -3.90942E+3   1.23320E+3
  -1.88710E+3  -3.82603E+3
   5.07542E+2  -2.63989E+3
   3.26281E+3  -5.45074E+2
   9.42272E+2  -7.68978E+2
   3.02285E+1   2.46128E+3
   1.22067E+2   2.05511E+2
   1.30967E+3   1.98299E+3
  -1.59769E+3   6.11459E+3
  -2.81571E+3   2.43898E+3
  -3.15648E+3  -2.36632E+3
  -4.53164E+2  -2.25859E+2
  -3.91760E+2  -1.19362E+3
  -7.42675E+2   7.38464E+2
   3.24166E+3  -1.34148E+0
  -6.35916E+1   1.39399E+3
  -1.76242E+3   8.05237E+2
  -2.51394E+1   5.84291E+0
  -2.12668E+3  -6.73796E+2
  -8.39217E+2  -7.92839E+2
   8.78380E+2   5.17868E+2
   9.67026E+2   1.79965E+3
   3.81193E+2   2.24843E+3
  -2.48620E+3   1.67805E+2
  -1.45318E+3  -3.69318E+2
   1.27700E+3  -1.33228E+2
  -3.69830E+2   2.46666E+3
  -1.13032E+3  -9.68814E+2
   1.61979E+3  -1.25886E+3
   1.96738E+3  -6.00119E+2
   3.96158E+2   1.16701E+3
  -1.76110E+3  -1.21988E+2
  -1.05505E+3  -9.88881E+2
  -9.25857E+1  -4.12540E+3
   2.59712E+2  -1.15559E+3
   5.57984E+2  -4.40583E+2
  -1.18731E+2   4.26940E+2
  -2.35005E+2   7.67756E+2
  -3.24201E+2   1.86968E+3
  -3.99846E+2  -1.30655E+3
  -2.74254E+3  -3.70101E+2
  -1.14913E+2   3.51710E+2
  -1.35106E+3  -1.49829E+3
   1.02469E+3  -1.08498E+3
   2.24730E+3  -1.08957E+3
   9.26793E+2  -5.63096E+2
   1.48727E+3  -7.74769E+2
   3.92772E+2  -1.90912E+3
  -4.34799E+1  -4.22145E+2
   1.34424E+3   1.55286E+3
   3.24550E+3   6.03103E+2
   1.99313E+3   1.92578E+3
   7.21092E+2   8.11533E+2
  -1.05592E+3   3.77054E+2
  -1.97378E+3  -1.33774E+3
   6.21544E+2   8.94250E+2
   1.94564E+3  -7.25070E+2
  -1.27444E+2   5.93578E+2
  -1.26643E+3   6.58530E+2
   7.86189E+2  -5.80834E+2
   1.21548E+3  -9.26504E+2
   4.79115E+2  -1.24934E+2
  -6.26573E+1  -7.32455E+2
  -1.26887E+3   2.22999E+3
   1.50889E+1   2.32733E+3
   5.68081E+2  -2.25204E+2
  -5.95549E-1   1.64797E+3
   5.21626E+2   1.02754E+3
  -1.69555E+3  -9.85310E+2
  -9.17112E+2   8.73637E+1
   8.14404E+1  -2.05337E+1
  -5.01803E+2  -8.20026E+2
   2.31211E+2   1.11941E+3
  -2.49513E+3  -1.11729E+3
  -1.93345E+3   4.32540E+2
  -5.48940E+2  -1.41778E+3
  -3.15874E+2   5.63562E+2
  -7.17803E+2   3.76437E+2
  -1.83001E+2  -1.11880E+3
  -6.83448E+2  -1.68812E+3
   6.59921E+2  -3.45823E+2
   2.11125E+2   1.84490E+3
  -1.25047E+3   1.04729E+3
   2.34924E+2  -1.66442E+2
   1.35142E+3   2.88053E+3
  -1.06987E+3   1.21520E+3
  -1.82352E+3   1.04692E+3
  -8.90507E+2   9.72683E+2
   2.60545E+3  -9.63333E+2
  -8.88881E+1   1.48184E+3
  -3.00927E+2  -1.14749E+3
  -4.43518E+2  -3.45562E+2
   1.46362E+3   2.61348E+2
  -1.45658E+3   1.21428E+3
  -3.68077E+2   7.11519E+2
   1.59576E+3  -2.28575E+2
  -1.36153E+2   1.03868E+3
  -4.77407E+2  -6.54100E+2
  -9.35023E+2  -8.76103E+2
  -1.95644E+3  -7.44637E+2
  -3.49960E+3  -1.54373E+3
   9.11274E+2  -5.22721E+2
   3.06589E+3  -3.36130E+2
   6.50619E+2   3.53002E+2
  -4.44987E+2   1.49284E+3
   2.34994E+3  -6.02862E+2
  -8.89070E+2  -1.22406E+3
   8.37672E+2   2.77971E+2
  -3.00175E+3  -2.29407E+2
   1.84063E+2  -1.36362E+3
  -1.62318E+3   1.74285E+2
  -2.24172E+2  -3.87108E+1
   1.13741E+3   1.09291E+3
  -1.01026E+2  -3.68033E+2
  -9.51813E+2  -2.10330E+2
   4.07389E+2  -1.23048E+2
  -2.50679E+2  -4.61845E+2
   5.56911E+2   6.71061E+2
   1.01529E+3   3.04142E+1
   1.97449E+3  -1.02552E+3
   7.51098E+2  -1.82852E+2
  -4.12680E+2  -3.38774E+1
  -1.55032E+3   1.97489E+3
  -7.72793E+2  -1.73772E+1
  -1.69675E+3  -8.79078E+2
  -1.65389E+2  -5.70163E+1
  -1.28067E+3   5.58255E+2
  -2.79613E+2   1.02633E+3
   9.82830E+2  -4.61709E+2
   1.37590E+3  -4.49960E+2
   1.96777E+3  -8.90829E+2
  -1.31665E+3   5.08661E+2
  -5.00060E+2  -7.28491E+1
  -3.59463E+2   1.53609E+3
  -3.88240E+1  -1.13441E+1
   7.10426E+2   6.96466E+2
  -1.34168E+2   4.98237E+2
  -1.92654E+3  -6.62508E+2
  -1.37045E+3   1.28454E+3
  -6.54626E+2  -8.99342E+2
   1.09465E+3  -8.74937E+2
   2.15302E+2  -5.71050E+2
  -1.26155E+3  -5.66863E+2
  -7.15899E+1   2.82084E+3
  -1.16808E+3  -4.56166E+2
  -1.26547E+3   8.78317E+2
  -6.63724E+2   1.49064E+3
   6.29283E+2  -1.63329E+3
   1.20299E+3   3.98598E+2
  -1.98729E+3   1.23433E+3
  -1.78805E+3   2.39660E+2
   5.32467E+0  -5.59914E+2
  -9.80811E+2   9.20244E+2
   3.21475E+2  -8.63284E+2
  -4.90963E+2  -1.02533E+2
  -2.59535E+3   1.56995E+3
   4.09776E+2  -7.86098E+2
  -4.14878E+1   1.06436E+3
   5.09363E+1  -9.09520E+2
  -1.89282E+3  -1.29223E+3
  -9.71479E+2  -1.29813E+3
   1.35203E+3  -1.61628E+3
  -1.71289E+3   1.85633E+3
  -1.54447E+3  -7.20568E+2
   1.57148E+3  -1.91913E+3
   3.58640E+2  -7.13265E+2
  -5.99157E+2  -1.21946E+3
  -2.19702E+3   3.59326E+2
  -3.06547E+2  -7.80447E+2
  -1.24732E+3   9.38449E+2
   1.80158E+2  -2.66299E+2
  -1.19160E+3  -7.42865E+2
   4.49962E+2   2.90487E+2
   1.87943E+3   6.95311E+2
   4.02553E+2  -6.65972E+0
  -9.95066E+2   1.18914E+3
  -1.69175E+3  -1.68488E+3
  -7.90203E+2  -8.86499E+2
   8.03846E+2   1.64149E+3
  -1.07960E+2   1.74484E+3
   1.14663E+3  -7.91526E+2
   2.07046E+3   2.99663E+1
   2.71193E+2  -8.01334E+0
  -1.44033E+3  -3.34185E+2
  -2.38918E+3  -3.25876E+2
  -1.61915E+2  -2.26145E+3
  -2.13868E+3  -5.99607E+2
  -1.12567E+3   9.68127E+2
  -5.40431E+2  -1.90623E+3
  -9.36798E+2   7.03522E+2
  -5.88591E+2  -7.54349E+2
  -5.03900E+2   1.06355E+3
  -7.92598E+1   7.78731E+2
   9.76257E+0  -1.01841E+3
  -3.43108E+2  -5.93878E+1
   2.26134E+1  -1.37441E+3
   1.68285E+3   4.62121E+2
   9.28672E+1  -5.93880E+2
  -2.48447E+3   1.93189E+3
   1.40269E+2   5.28765E+2
   3.56939E+2   3.85504E+2
   1.83096E+3  -6.42882E+2
  -7.99453E+2   7.93293E+2
  -3.51504E+2  -4.05696E+2
  -4.77290E+2   4.49000E+2
  -5.75979E+2   9.93552E+1
   1.21308E+3  -6.11320E+1
   6.97736E+2  -1.77354E+3
  -2.57002E+3   1.66430E+3
   2.00149E+2  -6.58760E+2
  -2.64080E+2  -1.30305E+3
   1.12094E+3   1.66649E+3
   5.84693E+2   1.09018E+3
   2.27433E+3  -1.51251E+3
  -3.57853E+2  -7.35326E+2
   1.03593E+3  -2.66177E+2
  -3.85648E+2  -6.56991E+2
   7.09903E+2  -4.67355E+2
   1.44620E+3  -1.28528E+3
  -4.36618E+2   8.39817E+2
   1.94956E+3  -2.27891E+2
   5.17555E+2  -7.58140E+2
   5.09358E+2   1.57539E+2
   1.03444E+3   1.31886E+2
   1.74015E+2  -1.23618E+3
  -1.00706E+2   5.32576E+2
   8.24581E+2   1.44685E+3
  -3.01103E+2   1.20931E+3
  -1.61186E+3   1.86379E+3
  -9.92709E+2   4.12699E+2
   1.55426E+3  -4.86120E+2
   2.50370E+3  -7.72512E+1
   5.72744E+2   7.19187E+2
  -1.16706E+3   6.75263E+2
   2.18805E+3   3.62819E+2
  -1.87996E+2   9.53958E+2
  -4.56285E+0   1.04806E+3
  -9.25113E+2   6.00716E+1
   1.29378E+2   8.79029E+2
  -3.69185E+2   7.87963E+2
  -3.80623E+1  -7.05578E+2
  -9.78949E+2   2.78604E+2
  -6.16337E+1  -1.63372E+2
  -2.01197E+3  -5.91921E+2
   1.10928E+3  -1.16487E+2
   2.89251E+2   8.23081E+2
  -1.85058E+3   1.04682E+3
   1.90553E+1  -1.24267E+3
   1.80881E+2  -4.45292E+2
  -2.23531E+3  -1.19089E+3
  -2.30218E+3  -1.73416E+3
  -1.75207E+2   1.58378E+3
   1.30036E+3  -8.53467E+2
   1.56940E+3  -2.14907E+0
  -6.62372E+2  -9.29295E+0
  -1.45261E+3  -4.78182E+2
  -6.43680E+2  -5.63383E+2
  -2.00655E+3  -1.57244E+3
  -1.04012E+3   8.56842E+2
   4.31951E+2  -7.72478E+2
  -6.87124E+2  -7.70239E+1
  -1.36777E+3   4.87661E+2
   7.38812E+2   1.10100E+2
  -1.18566E+2   4.92628E+1
   1.06435E+3  -6.52223E+2
  -7.52664E+2  -3.75139E+2
  -1.05967E+3   3.69439E+2
