 LCModel (Version 6.3-1N) Copyright: S.W. Provencher.          Ref.: Magn. Reson. Med. 30:672-679 (1993).                
 Slice_N1@24_11  02-Jun-2023 14:37:39
 27 lines in following concentration table = NCONC+1
    Conc.  %SD /Cr+PCr  Metabolite                                         
 2.41E-06  10% 1.2E-03 Mac                                                 
 3.09E-03 164%   1.600 Cr                                                  
 1.24E-02  43%   6.400 PCr                                                 
 1.37E-02  24%   7.081 Ins                                                 
 2.55E-02  12%  13.192 NAA                                                 
 1.29E-02  22%   6.670 Tau                                                 
 3.17E-03  25%   1.641 PCho                                                
    0.000 999%   0.000 GPC                                                 
 2.39E-02  16%  12.379 Glu                                                 
 2.16E-03 116%   1.115 Gln                                                 
 4.83E-04 518%   0.250 Ala                                                 
    0.000 999%   0.000 Asc                                                 
    0.000 999%   0.000 Asp                                                 
 3.04E-03  59%   1.574 GABA                                                
 2.45E-04 999%   0.126 Glc                                                 
 2.79E-03  52%   1.445 GSH                                                 
    0.000 999%   0.000 Lac                                                 
 2.57E-03  67%   1.331 NAAG                                                
    0.000 999%   0.000 PE                                                  
 3.17E-03  25%   1.641 GPC+PCho                                            
 2.81E-02  13%  14.523 NAA+NAAG                                            
 2.61E-02  18%  13.495 Glu+Gln                                             
 1.55E-02  16%   8.000 Cr+PCr                                              
 2.81E-02  13%  14.523 NAA+NAAG                                            
 1.55E-02  16%   8.000 Cr+PCr                                              
 2.61E-02  18%  13.495 Glu+Gln                                             
   6 lines in following misc. output table
  FWHM = 0.052 ppm    S/N =   2                                            
  Data shift = 0.099 ppm                                                   
  Ph:  -2 deg     -11.6 deg/ppm                                            
  alphaB,S = 3.1E+01,   3.0E+01                                            
   18 spline knots.   Ns =10(1)                                            
   3 inflections.     2 extrema                                            
  654 points on ppm-axis = NY
      4.000000     3.994181     3.988363     3.982544     3.976726     3.970907     3.965088     3.959270     3.953451     3.947633
      3.941814     3.935995     3.930177     3.924358     3.918540     3.912721     3.906902     3.901084     3.895265     3.889446
      3.883628     3.877809     3.871991     3.866172     3.860353     3.854535     3.848716     3.842898     3.837079     3.831260
      3.825442     3.819623     3.813805     3.807986     3.802167     3.796349     3.790530     3.784712     3.778893     3.773074
      3.767256     3.761437     3.755619     3.749800     3.743981     3.738163     3.732344     3.726526     3.720707     3.714888
      3.709070     3.703251     3.697433     3.691614     3.685795     3.679977     3.674158     3.668339     3.662521     3.656702
      3.650884     3.645065     3.639246     3.633428     3.627609     3.621791     3.615972     3.610153     3.604335     3.598516
      3.592698     3.586879     3.581060     3.575242     3.569423     3.563605     3.557786     3.551967     3.546149     3.540330
      3.534512     3.528693     3.522874     3.517056     3.511237     3.505419     3.499600     3.493781     3.487963     3.482144
      3.476326     3.470507     3.464688     3.458870     3.453051     3.447232     3.441414     3.435595     3.429777     3.423958
      3.418139     3.412321     3.406502     3.400684     3.394865     3.389046     3.383228     3.377409     3.371591     3.365772
      3.359953     3.354135     3.348316     3.342498     3.336679     3.330860     3.325042     3.319223     3.313405     3.307586
      3.301767     3.295949     3.290130     3.284312     3.278493     3.272674     3.266856     3.261037     3.255219     3.249400
      3.243581     3.237763     3.231944     3.226125     3.220307     3.214488     3.208670     3.202851     3.197032     3.191214
      3.185395     3.179577     3.173758     3.167939     3.162121     3.156302     3.150484     3.144665     3.138846     3.133028
      3.127209     3.121391     3.115572     3.109753     3.103935     3.098116     3.092298     3.086479     3.080660     3.074842
      3.069023     3.063205     3.057386     3.051567     3.045749     3.039930     3.034111     3.028293     3.022474     3.016656
      3.010837     3.005018     2.999200     2.993381     2.987563     2.981744     2.975925     2.970107     2.964288     2.958470
      2.952651     2.946832     2.941014     2.935195     2.929377     2.923558     2.917739     2.911921     2.906102     2.900284
      2.894465     2.888646     2.882828     2.877009     2.871191     2.865372     2.859553     2.853735     2.847916     2.842098
      2.836279     2.830460     2.824642     2.818823     2.813004     2.807186     2.801367     2.795549     2.789730     2.783911
      2.778093     2.772274     2.766456     2.760637     2.754818     2.749000     2.743181     2.737363     2.731544     2.725725
      2.719907     2.714088     2.708270     2.702451     2.696632     2.690814     2.684995     2.679177     2.673358     2.667539
      2.661721     2.655902     2.650084     2.644265     2.638446     2.632628     2.626809     2.620991     2.615172     2.609353
      2.603535     2.597716     2.591897     2.586079     2.580260     2.574442     2.568623     2.562804     2.556986     2.551167
      2.545349     2.539530     2.533711     2.527893     2.522074     2.516256     2.510437     2.504618     2.498800     2.492981
      2.487163     2.481344     2.475525     2.469707     2.463888     2.458070     2.452251     2.446432     2.440614     2.434795
      2.428977     2.423158     2.417339     2.411521     2.405702     2.399884     2.394065     2.388246     2.382428     2.376609
      2.370790     2.364972     2.359153     2.353335     2.347516     2.341697     2.335879     2.330060     2.324242     2.318423
      2.312604     2.306786     2.300967     2.295149     2.289330     2.283511     2.277693     2.271874     2.266056     2.260237
      2.254418     2.248600     2.242781     2.236963     2.231144     2.225325     2.219507     2.213688     2.207870     2.202051
      2.196232     2.190414     2.184595     2.178777     2.172958     2.167139     2.161321     2.155502     2.149683     2.143865
      2.138046     2.132228     2.126409     2.120590     2.114772     2.108953     2.103135     2.097316     2.091497     2.085679
      2.079860     2.074042     2.068223     2.062404     2.056586     2.050767     2.044949     2.039130     2.033311     2.027493
      2.021674     2.015856     2.010037     2.004218     1.998400     1.992581     1.986763     1.980944     1.975126     1.969307
      1.963489     1.957670     1.951852     1.946033     1.940215     1.934397     1.928578     1.922760     1.916941     1.911123
      1.905304     1.899486     1.893667     1.887849     1.882030     1.876212     1.870393     1.864575     1.858756     1.852938
      1.847119     1.841301     1.835482     1.829664     1.823845     1.818027     1.812208     1.806390     1.800571     1.794753
      1.788934     1.783116     1.777297     1.771479     1.765660     1.759842     1.754023     1.748205     1.742386     1.736568
      1.730749     1.724931     1.719113     1.713294     1.707476     1.701657     1.695839     1.690020     1.684202     1.678383
      1.672565     1.666746     1.660928     1.655109     1.649291     1.643472     1.637654     1.631835     1.626017     1.620198
      1.614380     1.608561     1.602743     1.596924     1.591106     1.585287     1.579469     1.573650     1.567832     1.562013
      1.556195     1.550376     1.544558     1.538739     1.532921     1.527102     1.521284     1.515465     1.509647     1.503829
      1.498010     1.492192     1.486373     1.480555     1.474736     1.468918     1.463099     1.457281     1.451462     1.445644
      1.439825     1.434007     1.428188     1.422370     1.416551     1.410733     1.404914     1.399096     1.393277     1.387459
      1.381640     1.375822     1.370003     1.364185     1.358366     1.352548     1.346729     1.340911     1.335092     1.329274
      1.323455     1.317637     1.311818     1.306000     1.300182     1.294363     1.288545     1.282726     1.276908     1.271089
      1.265271     1.259452     1.253634     1.247815     1.241997     1.236178     1.230360     1.224541     1.218723     1.212904
      1.207086     1.201267     1.195449     1.189630     1.183812     1.177993     1.172175     1.166356     1.160538     1.154719
      1.148901     1.143082     1.137264     1.131445     1.125627     1.119808     1.113990     1.108171     1.102353     1.096534
      1.090716     1.084898     1.079079     1.073261     1.067442     1.061624     1.055805     1.049987     1.044168     1.038350
      1.032531     1.026713     1.020894     1.015076     1.009257     1.003439     0.997620     0.991802     0.985983     0.980165
      0.974346     0.968528     0.962709     0.956891     0.951072     0.945254     0.939435     0.933617     0.927798     0.921980
      0.916161     0.910343     0.904524     0.898706     0.892887     0.887069     0.881251     0.875432     0.869614     0.863795
      0.857977     0.852158     0.846340     0.840521     0.834703     0.828884     0.823066     0.817247     0.811429     0.805610
      0.799792     0.793973     0.788155     0.782336     0.776518     0.770699     0.764881     0.759062     0.753244     0.747425
      0.741607     0.735788     0.729970     0.724151     0.718333     0.712514     0.706696     0.700877     0.695059     0.689240
      0.683422     0.677603     0.671785     0.665967     0.660148     0.654330     0.648511     0.642693     0.636874     0.631056
      0.625237     0.619419     0.613600     0.607782     0.601963     0.596145     0.590326     0.584508     0.578689     0.572871
      0.567052     0.561234     0.555415     0.549597     0.543778     0.537960     0.532141     0.526323     0.520504     0.514686
      0.508867     0.503049     0.497230     0.491412     0.485593     0.479775     0.473956     0.468138     0.462319     0.456501
      0.450682     0.444864     0.439045     0.433227     0.427408     0.421590     0.415771     0.409953     0.404134     0.398316
      0.392497     0.386679     0.380860     0.375042     0.369223     0.363405     0.357586     0.351767     0.345949     0.340130
      0.334312     0.328493     0.322675     0.316856     0.311038     0.305219     0.299401     0.293582     0.287764     0.281945
      0.276127     0.270308     0.264490     0.258671     0.252853     0.247034     0.241216     0.235397     0.229579     0.223760
      0.217942     0.212123     0.206305     0.200486
 NY phased data points follow
  -1.46692E-01 -2.56373E-02  7.30982E-02 -2.71098E-01 -3.42494E-01 -7.80509E-02 -2.98858E-02 -8.39659E-03  1.56864E-01 -5.64440E-02
   1.66359E-01 -1.15681E-01  4.39998E-02  4.08887E-01  1.51529E-01  2.90395E-01  2.76538E-01  3.08591E-01  2.64452E-01  4.31472E-01
  -4.61935E-02 -2.84288E-02  1.68354E-01  1.58310E-01  1.71276E-01 -5.06115E-02 -1.25763E-01 -2.28290E-01 -2.32811E-02 -1.39476E-01
   1.40926E-01 -2.99736E-01 -2.70436E-01  5.81643E-02 -3.35366E-01 -3.08853E-01 -3.66868E-01 -3.17134E-01 -2.98808E-01 -3.75242E-01
  -2.88175E-01 -4.93609E-02 -2.69449E-01 -2.41850E-01 -2.37545E-01  1.22765E-01  3.58897E-01  1.47397E-01  5.05185E-01  5.62204E-01
   1.95571E-01  3.81356E-01  7.24297E-01  2.03252E-01  3.83785E-02  2.66339E-01  3.39730E-01 -5.21137E-02  8.71512E-02  2.00098E-01
  -1.76101E-01 -4.25107E-02 -2.65934E-01 -2.07337E-01 -2.04516E-01 -4.79643E-01 -3.23592E-02 -4.24405E-03 -3.27242E-01 -7.34085E-02
  -4.00877E-02  4.05224E-02 -4.90493E-02  2.02581E-02  1.30167E-01  4.96669E-02 -3.87793E-02  5.80180E-02  7.52964E-02 -1.21735E-01
  -1.43592E-02 -2.60439E-01  5.50920E-02 -1.39876E-01 -1.20904E-01 -1.38116E-02 -1.49158E-01 -1.40858E-02 -1.07462E-01  2.18322E-01
   6.01297E-02  1.37095E-01  7.91574E-02  2.11401E-01  2.49841E-01  8.21284E-02 -6.92477E-02 -2.38950E-01 -1.56389E-01 -1.49474E-01
   1.48818E-01  6.99819E-02 -5.97875E-02 -2.09537E-01 -1.66127E-02 -7.61480E-02  3.71913E-02  2.65154E-01  3.10141E-02  1.78711E-01
   1.94240E-01  4.47736E-01  3.97730E-01  1.76310E-01  3.13411E-01  2.71606E-01  7.32161E-02  1.47932E-01  3.51137E-01  2.16881E-01
   2.10450E-01  4.46435E-01  4.39671E-01  3.00559E-01  3.13416E-01  2.66727E-01  2.42174E-01  8.23900E-02  5.04727E-02  2.87834E-01
   8.86380E-02  7.37989E-02  8.89610E-03 -5.14974E-01 -6.37234E-01 -3.34501E-01 -3.16788E-01 -6.36923E-01 -2.77307E-01 -2.75640E-01
  -5.64980E-01 -1.61093E-01 -4.74635E-01 -4.66577E-01 -8.99094E-02 -5.55868E-01 -4.90403E-01 -3.07877E-01 -2.68777E-01 -2.92403E-01
  -1.98328E-01  3.33999E-02 -1.34227E-01 -6.89691E-02 -9.86927E-02  1.30807E-01  1.50004E-01  9.11960E-02 -2.79888E-02 -2.19425E-03
   2.14334E-01  2.34149E-01  6.01960E-01  8.18596E-01  8.85543E-01  6.55767E-01  7.66296E-01  6.63323E-01  7.32472E-01  2.44917E-01
   2.62897E-01  4.02654E-01 -6.71709E-02  2.38315E-01 -4.42928E-01 -2.02849E-01 -2.97940E-01 -5.97356E-01 -3.39267E-01 -2.80576E-01
  -3.21322E-01 -3.48724E-01 -4.51699E-01 -5.24739E-01 -4.45944E-02 -4.31342E-01 -7.68900E-02 -1.50943E-01 -3.30787E-01 -2.65908E-01
  -1.66544E-01 -2.34157E-01 -9.53880E-01 -6.34922E-01 -2.53962E-01 -5.05173E-02 -2.63855E-01 -3.14710E-01 -1.35937E-01 -1.04625E-01
  -2.41180E-01 -1.55681E-01 -1.27169E-01 -3.20687E-01 -1.69766E-01 -1.24175E-01 -7.82396E-02 -3.84566E-02 -9.87085E-02 -2.03553E-01
  -4.91779E-02 -1.75888E-01 -1.71672E-01 -1.09280E-01 -4.62216E-01 -4.62963E-02  6.76414E-02 -3.88779E-01  2.68006E-02 -1.30250E-01
  -2.37026E-01  1.65363E-01  9.74191E-02  3.77700E-02 -1.32632E-01 -6.78945E-02  7.46006E-02 -1.76201E-01  7.12444E-02  2.53888E-01
  -1.21230E-01  3.88887E-01  1.52471E-01  2.38763E-01  2.57781E-01  9.38200E-02  5.43823E-01  1.31742E-01 -8.40368E-02 -6.52508E-02
   3.10281E-01 -1.82857E-01  7.44719E-02  1.79078E-01 -1.30286E-01  1.59825E-02 -4.28924E-02  6.35900E-02 -3.23910E-02  1.16745E-01
  -1.51857E-02  2.35099E-01 -1.04027E-01 -1.30988E-01 -6.96542E-02  4.68087E-02 -1.45168E-01 -1.24932E-01  3.83395E-01 -1.91417E-02
   1.26493E-01  1.73095E-01  2.22223E-01 -9.14406E-02 -9.43170E-02  1.05084E-01  1.26249E-01 -4.13176E-02  2.09488E-01  3.76787E-01
   2.32456E-01  2.50655E-01  8.72177E-02  1.76705E-01 -3.07580E-02  9.13163E-02  1.08447E-02  2.83239E-01 -3.91289E-02 -1.01366E-01
  -6.76537E-02 -5.03665E-01 -2.18695E-01 -3.70393E-01 -2.32246E-01 -1.18290E-01 -3.55201E-01 -3.22834E-01 -8.18168E-02 -1.39183E-02
   3.28431E-01  1.38943E-01 -1.70830E-02  1.45074E-01  8.51735E-02  3.43007E-02  3.01925E-01  2.42182E-01  5.36696E-02  4.65917E-02
  -5.04680E-02  2.70106E-01 -2.11019E-01  1.54169E-01  1.78251E-01  2.24704E-01  3.51514E-01  1.09877E-02  2.32532E-01  4.05877E-02
   3.07234E-01  4.99323E-01  5.18604E-01  2.43706E-01  2.76928E-01  3.09554E-01  4.98279E-01  4.34296E-01  3.75650E-01  5.32455E-01
   3.11605E-01  1.85064E-01 -1.69367E-01 -1.80678E-01 -1.88977E-01 -8.95151E-02  2.92449E-02  1.01342E-01 -4.17950E-02  3.01238E-01
   2.80753E-01 -2.44716E-01 -2.24614E-01  1.89124E-01  4.21786E-01  4.42486E-01  5.28486E-01  1.21808E-01  1.51773E-01 -4.04834E-02
  -1.84111E-01 -5.20203E-01 -6.89032E-01 -6.68316E-01 -6.33374E-01 -5.21973E-01 -8.26860E-01 -8.72957E-01 -9.42909E-01 -6.81582E-01
  -8.66336E-01 -6.28798E-01 -4.80846E-01 -6.05557E-01 -1.86028E-01 -1.63054E-01  7.50803E-02  1.70821E-01  1.03476E-01  1.58571E-01
   2.73402E-02  2.21762E-02 -8.15392E-02  1.51242E-01  2.12540E-01 -1.53938E-01  1.14546E-02 -2.61463E-01 -4.60944E-02  2.49961E-01
  -3.15754E-02 -1.78159E-01 -5.55403E-02 -1.40690E-01 -2.13441E-01  1.78504E-01 -6.76204E-02  4.77057E-02  8.59930E-02  2.94224E-02
  -1.35709E-02 -1.01658E-01 -7.86358E-03  1.35383E-01  2.54023E-01 -5.90245E-02 -3.22400E-02  2.09106E-02 -4.51726E-02  1.33243E-01
   2.64476E-01 -6.15775E-02  2.76736E-01  1.69736E-01 -1.13245E-01  1.54019E-01  2.01705E-01  5.03962E-01  1.17765E-01  4.13796E-01
   2.29509E-01  1.36641E-02  4.21158E-01  2.36975E-02  2.95819E-01 -7.41970E-03 -9.01815E-02  2.50595E-01 -8.57491E-02 -1.71603E-01
   7.49402E-02  1.41642E-01  8.92731E-02  8.34485E-02 -1.42298E-01  1.85736E-01 -1.96976E-02 -1.68898E-01 -1.61343E-01 -2.63177E-01
   7.96105E-02 -3.07976E-01 -4.05345E-01 -4.09881E-01 -2.51314E-01 -4.19481E-02 -1.99275E-02 -8.31746E-03 -1.25592E-01  1.31743E-02
   5.75044E-02 -2.08863E-01 -3.38293E-01 -1.16150E-01 -2.41490E-01 -1.15757E-01 -1.86103E-02 -2.22734E-01 -2.28678E-01 -1.85161E-01
  -1.68377E-01 -7.99420E-02 -1.33571E-01  1.01900E-01  3.87484E-02 -1.14310E-02  2.46389E-01  7.31956E-02  4.54881E-01  3.70580E-01
   5.26150E-01  2.67938E-01  1.49366E-01  3.01986E-01  1.47317E-01  3.40836E-01 -8.01301E-02  2.09827E-01  2.17437E-01  4.51845E-01
   2.27418E-01 -6.96698E-02  3.23678E-01 -4.78219E-02 -2.32211E-02  1.84004E-01  5.58949E-02  2.59791E-02  6.73732E-02 -1.26236E-01
   2.83390E-02 -1.60709E-01 -3.01358E-01 -4.35052E-01 -3.31030E-01  1.07096E-02 -2.42263E-01 -2.93937E-01 -6.36447E-01 -5.40236E-01
  -2.11888E-01 -2.96629E-01 -1.69219E-01 -3.22252E-01 -6.06847E-02  7.29584E-02 -4.73265E-01  2.09745E-02  6.40208E-02 -1.45301E-02
   5.58126E-02 -2.11118E-02  3.15457E-01  7.31475E-02  3.43651E-01  1.38197E-01 -6.41603E-02 -3.44278E-02 -1.16499E-01  3.39063E-01
   3.68364E-02 -3.73108E-02  2.60003E-01  1.39198E-01 -6.21464E-03 -3.36738E-02  2.86383E-01  2.57318E-01  9.60483E-02  3.39387E-01
   3.91444E-01  3.80854E-01  7.07307E-02  2.76180E-01  3.98912E-01 -9.17971E-03  2.51331E-01  2.69097E-01  1.32435E-01  2.33311E-01
   1.20569E-01  1.46584E-01  1.62923E-01 -1.03101E-01  3.38286E-02  4.15517E-02 -2.59748E-01 -2.39570E-01 -1.34559E-01 -4.00645E-01
  -4.92702E-01 -5.50953E-01 -5.72256E-01 -3.57543E-01 -6.35207E-01 -3.81763E-01 -3.14799E-01 -3.46604E-01 -3.98967E-01 -6.95532E-01
  -4.55418E-01 -4.51834E-01 -4.30795E-01 -3.81338E-01 -2.09201E-01 -2.32920E-01 -1.75622E-01 -2.18881E-01 -1.51185E-01 -5.43186E-02
  -2.69631E-01  6.06814E-02 -2.83525E-01 -3.75157E-02 -9.87581E-02 -2.86551E-01  2.99045E-01 -3.96069E-02  2.87362E-01  7.87768E-02
  -7.06576E-02  2.04881E-01 -2.58016E-02  1.81193E-01  2.32345E-01 -1.03187E-01 -2.50922E-01  2.13266E-01  1.57093E-02 -5.48775E-02
  -1.09293E-01 -2.22499E-01  4.89695E-03 -3.85054E-01 -2.47922E-01  2.28415E-02 -1.08529E-01 -4.68624E-02 -2.45554E-02 -2.42349E-01
   2.17318E-02  3.52742E-01  2.12733E-01  2.04646E-01  1.81063E-01 -1.52811E-01 -2.29575E-01 -9.73062E-02 -1.67657E-01  1.49196E-02
  -2.30306E-02 -2.88370E-01 -5.09084E-02  1.75465E-01 -4.22324E-02 -8.93965E-02 -4.20412E-02  5.96511E-02  1.57482E-03 -2.72536E-02
   1.51734E-01  2.16776E-02  2.03798E-02  7.44514E-02 -1.36921E-01 -3.21003E-01  4.60272E-02  5.19858E-02 -4.18509E-02  1.81318E-01
  -8.54429E-02 -6.06771E-02  1.83682E-01  8.52653E-02 -9.38449E-02 -2.84480E-01 -6.86314E-02  1.21463E-01 -6.56182E-02  8.68626E-02
  -5.20507E-03 -1.68809E-02  1.80847E-01  2.17108E-01 -1.24586E-01 -1.19263E-01  2.28987E-01 -5.70831E-02  1.14397E-01 -1.77153E-02
   4.73863E-02  3.13554E-01  7.60623E-02  1.40941E-01 -3.03526E-02 -1.13814E-02  1.34853E-01  1.75176E-02 -4.15195E-02 -6.86570E-02
   5.01789E-02  1.93970E-01  1.46236E-01  1.44758E-01  7.36271E-02  4.97166E-02  5.74116E-02 -4.87440E-02  1.31959E-01  1.90399E-01
  -6.04062E-02 -4.83142E-02 -7.72351E-03 -1.76661E-02
 NY points of the fit to the data follow
   8.52814E-02  6.23254E-02  3.55633E-02  1.42392E-03 -3.02465E-02 -5.28912E-02 -5.79517E-02 -3.96133E-02  2.17428E-03  6.21711E-02
   1.31477E-01  2.00808E-01  2.63944E-01  3.17960E-01  3.62231E-01  3.98435E-01  4.27484E-01  4.46411E-01  4.50899E-01  4.37217E-01
   4.02877E-01  3.49190E-01  2.81429E-01  2.11371E-01  1.57916E-01  1.21912E-01  9.14036E-02  7.03550E-02  5.65393E-02  4.56608E-02
   2.72977E-02  9.80745E-06 -3.73621E-02 -8.55632E-02 -1.41416E-01 -2.01438E-01 -2.55555E-01 -2.93169E-01 -3.08563E-01 -3.01014E-01
  -2.73427E-01 -2.30017E-01 -1.75584E-01 -1.13380E-01 -4.61971E-02  2.31538E-02  9.20509E-02  1.56806E-01  2.12797E-01  2.54757E-01
   2.78691E-01  2.82156E-01  2.71077E-01  2.44392E-01  2.03922E-01  1.58593E-01  1.20651E-01  8.01496E-02  3.34415E-02 -1.47976E-02
  -6.85332E-02 -1.22455E-01 -1.70336E-01 -2.05942E-01 -2.24523E-01 -2.25287E-01 -2.08976E-01 -1.77466E-01 -1.34348E-01 -8.28775E-02
  -2.16714E-02  4.66571E-02  1.04943E-01  1.46542E-01  1.67838E-01  1.61063E-01  1.29685E-01  7.43319E-02  3.55691E-03 -5.73869E-02
  -1.09871E-01 -1.52267E-01 -1.73870E-01 -1.79871E-01 -1.71875E-01 -1.48031E-01 -1.04704E-01 -4.33006E-02  3.52708E-02  1.18814E-01
   1.93043E-01  2.39735E-01  2.45936E-01  2.14536E-01  1.63016E-01  9.86767E-02  3.11370E-02 -2.53174E-02 -6.85479E-02 -1.01080E-01
  -1.25175E-01 -1.41662E-01 -1.49032E-01 -1.44453E-01 -1.25878E-01 -9.30112E-02 -5.00253E-02 -3.80741E-03  3.73192E-02  6.81515E-02
   8.34718E-02  8.87516E-02  8.64282E-02  8.61121E-02  9.08443E-02  9.91552E-02  1.16819E-01  1.47032E-01  1.81480E-01  2.27160E-01
   2.68514E-01  2.96326E-01  3.00175E-01  2.75386E-01  2.24285E-01  1.55557E-01  1.03845E-01  7.73914E-02  6.10631E-02  3.65419E-02
  -9.28062E-03 -7.94715E-02 -1.69700E-01 -2.67387E-01 -3.55803E-01 -4.24840E-01 -4.66015E-01 -4.80505E-01 -4.81860E-01 -4.79876E-01
  -4.77771E-01 -4.84649E-01 -4.80244E-01 -4.59521E-01 -4.14776E-01 -3.46405E-01 -2.60920E-01 -1.76088E-01 -1.22667E-01 -9.01790E-02
  -6.55314E-02 -4.61246E-02 -3.16936E-02 -2.18404E-02 -1.80139E-02 -2.25699E-02 -3.94484E-02 -6.51564E-02 -3.03414E-02  6.99968E-02
   2.15026E-01  3.71527E-01  5.10374E-01  6.10559E-01  6.62332E-01  6.67677E-01  6.37135E-01  5.80999E-01  5.08588E-01  4.26754E-01
   3.34491E-01  2.21017E-01  8.49448E-02 -6.27485E-02 -2.08016E-01 -3.31179E-01 -4.15529E-01 -4.47775E-01 -4.23006E-01 -3.65156E-01
  -3.40831E-01 -3.26456E-01 -3.14646E-01 -3.01801E-01 -2.89572E-01 -2.77047E-01 -2.65947E-01 -2.55895E-01 -2.45721E-01 -2.34340E-01
  -2.22181E-01 -2.10580E-01 -1.99006E-01 -1.86956E-01 -1.74597E-01 -1.61534E-01 -1.47852E-01 -1.34689E-01 -1.21801E-01 -1.09397E-01
  -9.74538E-02 -8.72115E-02 -7.93026E-02 -7.32726E-02 -6.94400E-02 -6.72554E-02 -6.58872E-02 -6.53885E-02 -6.48743E-02 -6.34776E-02
  -6.05179E-02 -5.74204E-02 -5.41168E-02 -5.00224E-02 -4.55199E-02 -4.47918E-02 -5.13442E-02 -6.34728E-02 -7.29328E-02 -7.63939E-02
  -8.27665E-02 -9.56737E-02 -1.05494E-01 -1.03273E-01 -8.48319E-02 -5.14798E-02 -6.69678E-03  4.37775E-02  9.41211E-02  1.40210E-01
   1.78654E-01  2.06685E-01  2.23512E-01  2.31147E-01  2.29524E-01  2.16976E-01  1.93769E-01  1.63719E-01  1.28939E-01  8.80824E-02
   4.03304E-02 -5.47863E-03 -3.40026E-02 -4.52681E-02 -4.99062E-02 -5.09148E-02 -4.85584E-02 -5.08578E-02 -5.82537E-02 -6.67490E-02
  -8.10618E-02 -9.74503E-02 -1.17337E-01 -1.34375E-01 -1.45549E-01 -1.53992E-01 -1.58218E-01 -1.57691E-01 -1.50976E-01 -1.38120E-01
  -1.17611E-01 -8.94191E-02 -5.52958E-02 -1.65671E-02  2.25121E-02  5.84843E-02  8.91231E-02  1.11939E-01  1.27629E-01  1.43051E-01
   1.53139E-01  1.58573E-01  1.63057E-01  1.59170E-01  1.46493E-01  1.09489E-01  4.86286E-02 -3.15793E-02 -1.28483E-01 -2.26434E-01
  -3.12514E-01 -3.74183E-01 -4.06410E-01 -4.10364E-01 -3.90626E-01 -3.54682E-01 -3.08422E-01 -2.55305E-01 -1.96754E-01 -1.33747E-01
  -6.80934E-02 -4.32146E-03  5.11985E-02  8.96815E-02  1.09005E-01  1.07935E-01  9.10028E-02  7.09510E-02  5.33536E-02  4.74854E-02
   5.54089E-02  7.32502E-02  9.89158E-02  1.26322E-01  1.52577E-01  1.75437E-01  1.93920E-01  2.10202E-01  2.24556E-01  2.36709E-01
   2.45838E-01  2.50749E-01  2.49878E-01  2.42060E-01  2.25861E-01  1.99737E-01  1.62614E-01  1.14000E-01  5.72060E-02 -3.69640E-03
  -6.27454E-02 -1.13607E-01 -1.50757E-01 -1.69184E-01 -1.71302E-01 -1.54403E-01 -1.22080E-01 -7.86580E-02 -3.92191E-02 -9.87499E-03
   5.60647E-03  1.23188E-02  3.88918E-02  1.51793E-01  2.88240E-01  3.85600E-01  4.03983E-01  3.32069E-01  1.83708E-01 -1.31586E-02
  -2.21721E-01 -4.07443E-01 -5.53064E-01 -6.54699E-01 -7.19536E-01 -7.64901E-01 -8.03233E-01 -8.34423E-01 -8.39185E-01 -8.01879E-01
  -7.04657E-01 -5.53480E-01 -3.62139E-01 -1.61919E-01 -1.53774E-02  2.81471E-02  5.00959E-02  6.21281E-02  6.65588E-02  6.46673E-02
   5.79689E-02  4.74528E-02  3.40182E-02  1.91896E-02  4.43957E-03 -9.68064E-03 -2.19930E-02 -3.22400E-02 -3.99634E-02 -4.48877E-02
  -4.64019E-02 -4.42832E-02 -3.89019E-02 -3.08737E-02 -2.13489E-02 -1.18763E-02 -1.96780E-03  7.41305E-03  1.61843E-02  2.37277E-02
   2.94942E-02  3.39799E-02  3.73568E-02  4.07530E-02  4.55555E-02  5.19615E-02  5.96051E-02  6.85306E-02  7.82526E-02  8.88001E-02
   1.00076E-01  1.11777E-01  1.23409E-01  1.35481E-01  1.47554E-01  1.59187E-01  1.69026E-01  1.76225E-01  1.80310E-01  1.80686E-01
   1.78188E-01  1.72865E-01  1.65325E-01  1.55700E-01  1.44230E-01  1.30958E-01  1.16156E-01  1.00564E-01  8.49601E-02  6.96991E-02
   5.50260E-02  4.11974E-02  2.79791E-02  1.51194E-02  2.53725E-03 -1.04093E-02 -2.36023E-02 -3.69059E-02 -4.99563E-02 -6.35574E-02
  -7.70183E-02 -8.91228E-02 -9.94033E-02 -1.07586E-01 -1.14775E-01 -1.21270E-01 -1.27288E-01 -1.32083E-01 -1.35082E-01 -1.35961E-01
  -1.35203E-01 -1.33292E-01 -1.31236E-01 -1.29852E-01 -1.29062E-01 -1.28889E-01 -1.29003E-01 -1.28267E-01 -1.25306E-01 -1.18958E-01
  -1.08138E-01 -9.20889E-02 -7.17361E-02 -4.77735E-02 -2.09946E-02  8.64485E-03  4.17456E-02  7.75941E-02  1.15758E-01  1.54169E-01
   1.91098E-01  2.24923E-01  2.54555E-01  2.78647E-01  2.97069E-01  3.08720E-01  3.13694E-01  3.12835E-01  3.06781E-01  2.96039E-01
   2.80885E-01  2.61797E-01  2.39308E-01  2.14458E-01  1.87979E-01  1.60165E-01  1.32120E-01  1.04106E-01  7.64731E-02  4.94308E-02
   2.34805E-02 -9.66990E-04 -2.36987E-02 -4.40229E-02 -6.15698E-02 -7.57397E-02 -8.62904E-02 -9.19076E-02 -9.32748E-02 -9.11687E-02
  -8.59861E-02 -7.78689E-02 -6.70938E-02 -5.39461E-02 -3.93463E-02 -2.35556E-02 -6.61683E-03  1.07204E-02  2.73456E-02  4.24431E-02
   5.55930E-02  6.65516E-02  7.53087E-02  8.23507E-02  8.79963E-02  9.21149E-02  9.47908E-02  9.57935E-02  9.45046E-02  9.07972E-02
   8.57929E-02  8.03574E-02  7.46838E-02  6.93885E-02  6.51890E-02  6.25546E-02  6.18029E-02  6.22636E-02  6.35778E-02  6.62340E-02
   7.07402E-02  7.79392E-02  8.73252E-02  9.82193E-02  1.09599E-01  1.20133E-01  1.28012E-01  1.31662E-01  1.29950E-01  1.22813E-01
   1.10117E-01  9.05972E-02  6.38127E-02  3.04459E-02 -8.84155E-03 -5.36152E-02 -1.02856E-01 -1.54437E-01 -2.05669E-01 -2.54010E-01
  -2.97240E-01 -3.34281E-01 -3.65339E-01 -3.90419E-01 -4.09274E-01 -4.22262E-01 -4.30041E-01 -4.33066E-01 -4.31329E-01 -4.25660E-01
  -4.16505E-01 -4.05131E-01 -3.91992E-01 -3.76979E-01 -3.60399E-01 -3.42733E-01 -3.23855E-01 -3.03829E-01 -2.82020E-01 -2.58504E-01
  -2.34073E-01 -2.09413E-01 -1.85248E-01 -1.61781E-01 -1.38979E-01 -1.17391E-01 -9.70267E-02 -7.82055E-02 -6.06692E-02 -4.43633E-02
  -2.98529E-02 -1.71320E-02 -6.73598E-03  1.59166E-03  8.00906E-03  1.28304E-02  1.64556E-02  1.93418E-02  2.22311E-02  2.55866E-02
   2.84661E-02  3.10943E-02  3.39405E-02  3.65946E-02  3.93558E-02  4.21340E-02  4.45997E-02  4.65666E-02  4.77865E-02  4.84916E-02
   4.92477E-02  5.01713E-02  5.09193E-02  5.10429E-02  5.05318E-02  4.97876E-02  4.85464E-02  4.69217E-02  4.56784E-02  4.51057E-02
   4.47133E-02  4.38765E-02  4.25014E-02  4.00581E-02  3.67291E-02  3.29733E-02  2.87638E-02  2.47367E-02  2.15971E-02  1.93642E-02
   1.81131E-02  1.70415E-02  1.61662E-02  1.60273E-02  1.70809E-02  1.88408E-02  2.07562E-02  2.25157E-02  2.41742E-02  2.51842E-02
   2.58050E-02  2.60605E-02  2.54226E-02  2.43638E-02  2.24728E-02  2.04718E-02  1.93305E-02  1.93837E-02  2.05767E-02  2.22241E-02
   2.42159E-02  2.69039E-02  3.00880E-02  3.32437E-02  3.56176E-02  3.75326E-02  3.91842E-02  4.09061E-02  4.20230E-02  4.20040E-02
   4.08770E-02  3.89356E-02  3.60189E-02  3.32585E-02  3.12693E-02  2.98905E-02  2.91799E-02  2.77136E-02  2.47731E-02  2.11051E-02
   1.72257E-02  1.41906E-02  1.19583E-02  1.07682E-02  1.01719E-02  9.97823E-03  9.95420E-03  9.99903E-03  9.88042E-03  9.76786E-03
   1.06183E-02  1.21704E-02  1.34687E-02  1.37668E-02
 NY background values follow
     6.594E-02    6.575E-02    6.556E-02    6.537E-02    6.518E-02    6.499E-02    6.480E-02    6.461E-02    6.442E-02    6.423E-02
     6.405E-02    6.386E-02    6.367E-02    6.348E-02    6.329E-02    6.310E-02    6.291E-02    6.272E-02    6.253E-02    6.234E-02
     6.216E-02    6.197E-02    6.178E-02    6.159E-02    6.140E-02    6.121E-02    6.102E-02    6.083E-02    6.065E-02    6.046E-02
     6.027E-02    6.008E-02    5.989E-02    5.970E-02    5.951E-02    5.933E-02    5.914E-02    5.895E-02    5.876E-02    5.857E-02
     5.838E-02    5.819E-02    5.801E-02    5.782E-02    5.763E-02    5.744E-02    5.725E-02    5.706E-02    5.688E-02    5.669E-02
     5.650E-02    5.631E-02    5.612E-02    5.593E-02    5.575E-02    5.556E-02    5.537E-02    5.518E-02    5.499E-02    5.481E-02
     5.462E-02    5.443E-02    5.424E-02    5.405E-02    5.387E-02    5.368E-02    5.349E-02    5.330E-02    5.311E-02    5.293E-02
