 
 $NMID
 ID=''
 FMTDAT='(2E13.5)'
 TRAMP=   1.00000E+0
 VOLUME=   1.00000E+0
 $END
  -1.94118E+4   1.81650E+3
  -4.96794E+4  -9.04416E+3
  -5.09292E+4   7.36918E+2
  -4.72843E+4   1.98675E+3
  -4.92229E+4   1.81505E+3
  -4.93523E+4   5.28070E+3
  -4.74925E+4   6.36392E+3
  -4.78311E+4   6.93161E+3
  -4.75394E+4   9.61970E+3
  -4.57445E+4   1.05251E+4
  -4.53330E+4   1.10458E+4
  -4.45085E+4   1.31811E+4
  -4.31485E+4   1.41866E+4
  -4.28098E+4   1.43119E+4
  -4.20854E+4   1.56383E+4
  -4.07604E+4   1.63295E+4
  -4.04558E+4   1.67972E+4
  -3.98356E+4   1.80954E+4
  -3.86826E+4   1.89178E+4
  -3.81923E+4   1.94180E+4
  -3.74106E+4   2.05009E+4
  -3.61882E+4   2.15284E+4
  -3.55970E+4   2.22312E+4
  -3.49082E+4   2.32017E+4
  -3.37450E+4   2.39139E+4
  -3.28930E+4   2.46562E+4
  -3.20581E+4   2.56333E+4
  -3.09492E+4   2.62498E+4
  -3.00755E+4   2.67780E+4
  -2.91372E+4   2.76037E+4
  -2.78282E+4   2.83759E+4
  -2.68965E+4   2.90313E+4
  -2.60176E+4   2.96885E+4
  -2.47469E+4   3.01815E+4
  -2.35741E+4   3.07309E+4
  -2.24447E+4   3.13119E+4
  -2.10879E+4   3.17566E+4
  -1.99144E+4   3.21069E+4
  -1.87885E+4   3.24968E+4
  -1.74960E+4   3.28297E+4
  -1.63932E+4   3.29680E+4
  -1.53847E+4   3.31750E+4
  -1.43413E+4   3.32142E+4
  -1.31138E+4   3.32864E+4
  -1.20379E+4   3.33864E+4
  -1.09130E+4   3.35147E+4
  -9.92332E+3   3.35531E+4
  -8.83137E+3   3.35402E+4
  -7.75148E+3   3.35895E+4
  -6.75965E+3   3.34692E+4
  -5.79319E+3   3.35394E+4
  -4.90476E+3   3.33496E+4
  -3.88350E+3   3.31440E+4
  -2.85090E+3   3.31196E+4
  -2.00448E+3   3.28870E+4
  -1.20252E+3   3.27657E+4
  -2.94602E+2   3.25466E+4
   5.17580E+2   3.23650E+4
   1.22055E+3   3.20762E+4
   2.00933E+3   3.17349E+4
   2.86591E+3   3.14441E+4
   3.69331E+3   3.11413E+4
   4.47975E+3   3.07381E+4
   5.16806E+3   3.04331E+4
   5.87352E+3   3.00447E+4
   6.62440E+3   2.95531E+4
   7.36251E+3   2.92238E+4
   7.97029E+3   2.88222E+4
   8.56105E+3   2.82839E+4
   9.25903E+3   2.78286E+4
   9.89539E+3   2.73119E+4
   1.04543E+4   2.68661E+4
   1.11195E+4   2.63351E+4
   1.15835E+4   2.58125E+4
   1.21718E+4   2.52667E+4
   1.28065E+4   2.47153E+4
   1.33173E+4   2.41641E+4
   1.37763E+4   2.35788E+4
   1.43379E+4   2.29184E+4
   1.47564E+4   2.23362E+4
   1.52258E+4   2.17213E+4
   1.55566E+4   2.11273E+4
   1.58728E+4   2.05301E+4
   1.61786E+4   1.98756E+4
   1.65330E+4   1.92299E+4
   1.67115E+4   1.85713E+4
   1.68422E+4   1.78870E+4
   1.70815E+4   1.72116E+4
   1.72283E+4   1.65489E+4
   1.74937E+4   1.58453E+4
   1.75961E+4   1.52480E+4
   1.77046E+4   1.45117E+4
   1.78168E+4   1.37262E+4
   1.78847E+4   1.30152E+4
   1.79409E+4   1.22951E+4
   1.79335E+4   1.15949E+4
   1.79890E+4   1.07781E+4
   1.79587E+4   1.00908E+4
   1.80055E+4   9.34676E+3
   1.79369E+4   8.64746E+3
   1.78131E+4   7.97487E+3
   1.77105E+4   7.16157E+3
   1.75843E+4   6.40781E+3
   1.75614E+4   5.73758E+3
   1.73945E+4   5.11710E+3
   1.72480E+4   4.36418E+3
   1.71308E+4   3.66994E+3
   1.69241E+4   3.02419E+3
   1.67816E+4   2.34123E+3
   1.65836E+4   1.64471E+3
   1.64125E+4   1.03521E+3
   1.62068E+4   3.35375E+2
   1.59985E+4  -3.01610E+2
   1.57921E+4  -8.90506E+2
   1.55978E+4  -1.50174E+3
   1.53244E+4  -1.99789E+3
   1.51584E+4  -2.68627E+3
   1.49201E+4  -3.18992E+3
   1.46620E+4  -3.76670E+3
   1.44308E+4  -4.28005E+3
   1.41885E+4  -4.77566E+3
   1.38755E+4  -5.26346E+3
   1.36876E+4  -5.70684E+3
   1.34390E+4  -6.17392E+3
   1.32217E+4  -6.60884E+3
   1.29114E+4  -7.06991E+3
   1.27355E+4  -7.46364E+3
   1.24088E+4  -7.83806E+3
   1.21301E+4  -8.27853E+3
   1.19078E+4  -8.60234E+3
   1.16493E+4  -8.93162E+3
   1.13032E+4  -9.28485E+3
   1.10255E+4  -9.56103E+3
   1.07396E+4  -9.95483E+3
   1.04970E+4  -1.01690E+4
   1.02307E+4  -1.04189E+4
   9.90967E+3  -1.06344E+4
   9.58033E+3  -1.09014E+4
   9.37602E+3  -1.11859E+4
   9.06366E+3  -1.13758E+4
   8.79621E+3  -1.15717E+4
   8.47195E+3  -1.17366E+4
   8.16280E+3  -1.18498E+4
   7.90953E+3  -1.20452E+4
   7.59603E+3  -1.21947E+4
   7.25334E+3  -1.23413E+4
   7.03546E+3  -1.24622E+4
   6.65308E+3  -1.25472E+4
   6.49878E+3  -1.27090E+4
   6.10774E+3  -1.27078E+4
   5.84262E+3  -1.28317E+4
   5.51204E+3  -1.28388E+4
   5.29462E+3  -1.29003E+4
   4.96447E+3  -1.29353E+4
   4.64302E+3  -1.29355E+4
   4.29929E+3  -1.29487E+4
   4.04475E+3  -1.30076E+4
   3.78274E+3  -1.29748E+4
   3.59279E+3  -1.30036E+4
   3.22332E+3  -1.29421E+4
   2.95642E+3  -1.30014E+4
   2.74659E+3  -1.29021E+4
   2.46192E+3  -1.28856E+4
   2.20545E+3  -1.28450E+4
   1.97817E+3  -1.28230E+4
   1.81395E+3  -1.27590E+4
   1.57580E+3  -1.27172E+4
   1.38626E+3  -1.25811E+4
   1.02022E+3  -1.24833E+4
   8.03031E+2  -1.24277E+4
   6.42618E+2  -1.23337E+4
   4.20315E+2  -1.22432E+4
   2.07616E+2  -1.21692E+4
   4.10688E+1  -1.19720E+4
  -1.99405E+2  -1.18826E+4
  -3.59653E+2  -1.18275E+4
  -5.28558E+2  -1.16526E+4
  -7.71574E+2  -1.15798E+4
  -9.08898E+2  -1.13435E+4
  -1.11551E+3  -1.12440E+4
  -1.19354E+3  -1.10767E+4
  -1.38825E+3  -1.09869E+4
  -1.59777E+3  -1.08376E+4
  -1.69931E+3  -1.06296E+4
  -1.79626E+3  -1.04673E+4
  -1.99675E+3  -1.03777E+4
  -2.10236E+3  -1.01794E+4
  -2.25537E+3  -1.00075E+4
  -2.36758E+3  -9.95096E+3
  -2.47474E+3  -9.70304E+3
  -2.58746E+3  -9.51114E+3
  -2.69976E+3  -9.45115E+3
  -2.77527E+3  -9.23095E+3
  -2.82294E+3  -9.02980E+3
  -2.96826E+3  -8.87339E+3
  -3.02298E+3  -8.61926E+3
  -3.11604E+3  -8.52132E+3
  -3.24639E+3  -8.35445E+3
  -3.38595E+3  -8.14829E+3
  -3.45875E+3  -7.97928E+3
  -3.40433E+3  -7.84628E+3
  -3.51849E+3  -7.69757E+3
  -3.64419E+3  -7.55745E+3
  -3.66327E+3  -7.32591E+3
  -3.79757E+3  -7.17707E+3
  -3.83983E+3  -7.01566E+3
  -3.86316E+3  -6.80825E+3
  -3.95257E+3  -6.67077E+3
  -3.97430E+3  -6.50996E+3
  -4.08935E+3  -6.38825E+3
  -4.07478E+3  -6.21546E+3
  -4.15914E+3  -6.11426E+3
  -4.10839E+3  -5.92252E+3
  -4.17094E+3  -5.69174E+3
  -4.20714E+3  -5.59436E+3
  -4.18426E+3  -5.40820E+3
  -4.18057E+3  -5.27334E+3
  -4.29717E+3  -5.10154E+3
  -4.26716E+3  -4.93573E+3
  -4.27953E+3  -4.83514E+3
  -4.32753E+3  -4.65434E+3
  -4.28497E+3  -4.50141E+3
  -4.34462E+3  -4.38587E+3
  -4.33122E+3  -4.22612E+3
  -4.36099E+3  -4.11946E+3
  -4.33720E+3  -3.99503E+3
  -4.31559E+3  -3.87179E+3
  -4.36138E+3  -3.72035E+3
  -4.35170E+3  -3.54391E+3
  -4.30265E+3  -3.49700E+3
  -4.32768E+3  -3.35544E+3
  -4.31678E+3  -3.24630E+3
  -4.32962E+3  -3.12687E+3
  -4.16514E+3  -2.92592E+3
  -4.18288E+3  -2.82686E+3
  -4.18228E+3  -2.68218E+3
  -4.20401E+3  -2.59159E+3
  -4.15349E+3  -2.46709E+3
  -4.07003E+3  -2.32830E+3
  -4.09779E+3  -2.26840E+3
  -4.08984E+3  -2.15237E+3
  -3.96727E+3  -2.04260E+3
  -4.03643E+3  -1.91373E+3
  -3.93314E+3  -1.80294E+3
  -3.91566E+3  -1.75605E+3
  -3.83917E+3  -1.59804E+3
  -3.85578E+3  -1.54972E+3
  -3.79236E+3  -1.46913E+3
  -3.75364E+3  -1.26537E+3
  -3.80190E+3  -1.26923E+3
  -3.71597E+3  -1.12454E+3
  -3.65446E+3  -1.06340E+3
  -3.64577E+3  -1.02842E+3
  -3.56535E+3  -9.16981E+2
  -3.53144E+3  -8.37549E+2
  -3.48838E+3  -7.35871E+2
  -3.45205E+3  -6.77133E+2
  -3.47633E+3  -5.41333E+2
  -3.40546E+3  -4.92146E+2
  -3.37226E+3  -4.11991E+2
  -3.27514E+3  -4.09486E+2
  -3.20359E+3  -3.21725E+2
  -3.19935E+3  -2.59022E+2
  -3.10246E+3  -1.41047E+2
  -3.07524E+3  -6.58072E+1
  -3.04400E+3  -8.33731E+1
  -3.06148E+3   2.82088E+1
  -2.92450E+3   3.66349E+1
  -2.86968E+3   1.72851E+2
  -2.85872E+3   2.00464E+2
  -2.80667E+3   3.03555E+2
  -2.78410E+3   3.31008E+2
  -2.71994E+3   3.39433E+2
  -2.64422E+3   3.85633E+2
  -2.58553E+3   4.67109E+2
  -2.55362E+3   4.92969E+2
  -2.50525E+3   5.41738E+2
  -2.44827E+3   5.83796E+2
  -2.40700E+3   6.58406E+2
  -2.31603E+3   6.60329E+2
  -2.32742E+3   7.27152E+2
  -2.20855E+3   7.30000E+2
  -2.19585E+3   7.67982E+2
  -2.20392E+3   7.89818E+2
  -2.16534E+3   8.73233E+2
  -2.06622E+3   8.04307E+2
  -2.07537E+3   8.54716E+2
  -1.97201E+3   8.91260E+2
  -1.95667E+3   9.40748E+2
  -1.93923E+3   1.01052E+3
  -1.90391E+3   9.69585E+2
  -1.78994E+3   1.03681E+3
  -1.73631E+3   1.04278E+3
  -1.78058E+3   1.07891E+3
  -1.66330E+3   1.08598E+3
  -1.66437E+3   1.07210E+3
  -1.64117E+3   1.05556E+3
  -1.60000E+3   1.12688E+3
  -1.52810E+3   1.09865E+3
  -1.53268E+3   1.13647E+3
  -1.47445E+3   1.12345E+3
  -1.45139E+3   1.18424E+3
  -1.35871E+3   1.13795E+3
  -1.34228E+3   1.18407E+3
  -1.37837E+3   1.11852E+3
  -1.29158E+3   1.21156E+3
  -1.23132E+3   1.23330E+3
  -1.22249E+3   1.14610E+3
  -1.18848E+3   1.17347E+3
  -1.20157E+3   1.21326E+3
  -1.12057E+3   1.26861E+3
  -1.12985E+3   1.11966E+3
  -1.13570E+3   1.19018E+3
  -1.07446E+3   1.22232E+3
  -1.05996E+3   1.20122E+3
  -9.79346E+2   1.23373E+3
  -9.84220E+2   1.14318E+3
  -9.65747E+2   1.21723E+3
  -9.12499E+2   1.19460E+3
  -8.29927E+2   1.15574E+3
  -8.88543E+2   1.19689E+3
  -8.29429E+2   1.16190E+3
  -8.41586E+2   1.20779E+3
  -7.58837E+2   1.13957E+3
  -7.74051E+2   1.16379E+3
  -7.60609E+2   1.16160E+3
  -6.81619E+2   1.12438E+3
  -7.60978E+2   1.16309E+3
  -6.86239E+2   1.17841E+3
  -7.24655E+2   1.13032E+3
  -6.62920E+2   1.20254E+3
  -6.48013E+2   1.13819E+3
  -6.24096E+2   1.04722E+3
  -6.18658E+2   1.12282E+3
  -6.18466E+2   1.14421E+3
  -6.36017E+2   1.11142E+3
  -5.96232E+2   1.09828E+3
  -5.62146E+2   1.08987E+3
  -5.44435E+2   1.00056E+3
  -5.11541E+2   9.99154E+2
  -5.35217E+2   1.03257E+3
  -5.64450E+2   1.10178E+3
  -5.32063E+2   9.60737E+2
  -5.02074E+2   1.01346E+3
  -4.62383E+2   9.84303E+2
  -4.43310E+2   9.19796E+2
  -4.97128E+2   9.76577E+2
  -4.94960E+2   9.36332E+2
  -4.15929E+2   9.53274E+2
  -4.35455E+2   9.99375E+2
  -4.43146E+2   9.19576E+2
  -4.22152E+2   8.84733E+2
  -4.96698E+2   9.34944E+2
  -4.48259E+2   9.22588E+2
  -4.87311E+2   8.78476E+2
  -4.31827E+2   8.32274E+2
  -4.01666E+2   8.73506E+2
  -4.21302E+2   8.37967E+2
  -3.71646E+2   8.54448E+2
  -4.46571E+2   8.92858E+2
  -3.77915E+2   8.10304E+2
  -4.39886E+2   7.73422E+2
  -3.98053E+2   7.91268E+2
  -4.09287E+2   8.26980E+2
  -3.64286E+2   7.64264E+2
  -3.56003E+2   7.91434E+2
  -3.44778E+2   6.99435E+2
