 
 $NMID
 ID=''
 FMTDAT='(2E13.5)'
 TRAMP=   1.00000E+0
 VOLUME=   1.00000E+0
 $END
   3.92327E+2  -1.87431E+2
   2.14155E+3   8.16211E+2
  -6.52734E+2  -5.34918E+3
  -7.55777E+2  -4.03898E+3
  -3.85767E+3  -1.23958E+3
  -1.88673E+3  -6.69533E+2
  -1.03937E+3   2.74405E+3
  -1.32356E+3   3.83376E+3
  -9.54467E+2   1.04658E+2
  -1.55398E+3  -1.21126E+3
  -2.06086E+2  -5.72444E+3
   2.40403E+3  -4.20736E+3
   2.69035E+3  -1.96128E+2
  -1.52798E+3   2.28793E+3
  -2.96588E+3  -2.43161E+2
  -5.45745E+3  -3.64108E+2
  -6.80519E+2   2.12283E+3
   5.41254E+2  -1.78986E+2
   2.52933E+3   2.66367E+3
   2.78899E+3   3.67899E+2
   2.69099E+3  -4.25169E+3
   4.25058E+3  -1.93450E+3
   2.10566E+3   1.41724E+3
  -2.10112E+3   1.17758E+2
  -1.91884E+3  -4.83997E+0
   1.73744E+3   1.62366E+3
   2.39343E+3   2.17988E+3
  -3.36600E+3   1.38419E+3
  -2.49135E+3  -8.90917E+2
   1.26314E+3  -3.06791E+3
   5.95126E+3  -9.68581E+2
   4.87553E+3   5.82038E+3
   9.44631E+2   4.59308E+3
   2.49978E+3  -3.59024E+2
   1.54062E+3   1.16908E+3
  -3.53649E+3   1.06186E+3
  -3.04315E+3  -3.17953E+3
   8.19635E+2  -6.62207E+3
   2.77016E+3  -1.56381E+2
  -1.28615E+1  -1.19236E+3
   1.43434E+3   2.52360E+3
  -2.66619E+3   3.57459E+3
  -4.89171E+3   3.12441E+1
  -3.81520E+3  -4.72320E+3
  -5.32144E+2  -1.43646E+3
  -4.40082E+2  -1.50605E+3
   3.62427E+3  -3.53439E+2
   4.12216E+3  -1.70647E+3
   3.98509E+3   2.97154E+3
  -1.48446E+2   2.18662E+3
  -9.23786E+2   1.35081E+3
  -3.72499E+3  -1.25599E+3
  -2.39961E+3  -6.79493E+2
   1.20852E+3   3.78852E+2
   1.45761E+3   2.67929E+3
  -6.66636E+1   1.71100E+3
   6.45651E+2   3.41729E+3
  -2.07349E+3   6.48791E+3
  -2.86675E+3   3.74202E+3
  -1.52206E+3  -1.17196E+3
  -5.58832E+2  -2.08805E+3
   1.45224E+3  -3.20083E+3
   1.64251E+3   7.43762E+1
   1.00363E+3   2.75848E+3
   4.74383E+2  -1.90765E+3
   1.24618E+3  -1.82680E+3
  -7.49782E+2  -4.98777E+1
  -9.60878E+2   1.48356E+3
  -7.89744E+2  -4.33516E+2
  -1.25837E+3  -1.13936E+3
  -2.99564E+1  -1.63470E+3
  -3.39819E+2  -5.87249E+2
  -9.59622E+2  -9.19527E+2
  -2.24772E+3  -1.13915E+3
   8.09737E+2  -1.03150E+3
   2.80375E+3  -2.48820E+2
   1.45894E+2   2.40177E+3
  -2.32058E+2  -7.57313E+2
   9.23111E+2  -1.76904E+3
   1.28252E+3  -3.03734E+3
   3.27799E+2  -5.64029E+2
  -3.55332E+2  -1.38571E+3
  -1.76254E+3  -8.74353E+2
  -1.14305E+3  -4.39247E+2
   1.62486E+3   4.25828E+2
  -2.53783E+3   4.35627E+2
  -3.71579E+3   5.60096E+2
  -3.66174E+3  -1.04245E+3
   1.06026E+2  -1.07751E+3
   2.33768E+3  -8.00236E+2
  -8.29323E+2  -1.55249E+3
  -1.43127E+2   4.91976E+1
   2.21536E+3  -5.03248E+2
   4.68100E+3   2.14733E+3
   1.20879E+3   3.70259E+2
  -3.71460E+3   4.97705E+2
  -4.75879E+2  -2.33219E+3
  -9.94188E+2  -9.43545E+2
   1.45658E+3   1.61044E+3
  -3.53810E+3   7.97558E+2
  -3.09341E+3  -2.41344E+3
  -1.95316E+3  -4.91753E+3
   2.73768E+2  -3.03915E+3
   5.73552E+2  -1.55680E+3
   2.93522E+3   1.06834E+3
   1.39544E+3   6.92654E+2
   6.89151E+2   1.08046E+3
   1.43490E+2   2.02918E+3
  -6.43539E+2   2.61536E+3
  -1.82914E+3  -3.12913E+2
  -5.29754E+2  -3.19115E+3
   5.06045E+2  -3.03567E+3
   2.14484E+3  -1.91800E+3
   1.31684E+3   5.35564E+2
   1.30403E+3   3.58244E+2
   1.68612E+3   2.66807E+2
  -9.64913E+2   1.53651E+3
  -4.41721E+2  -2.44897E+3
  -1.33454E+3  -9.64944E+1
   1.94067E+1  -6.11164E+0
   2.55525E+3  -1.36924E+3
  -1.09700E+3   2.42535E+3
  -1.70730E+3   1.77797E+3
   1.26144E+3   1.15896E+2
   1.53809E+2  -3.74258E+2
  -2.03763E+3  -1.17076E+2
   2.03480E+2   1.10996E+3
   1.35188E+3   7.02634E+2
   1.82863E+3  -3.43179E+2
   1.34699E+3   1.11626E+3
  -5.44474E+1   2.12889E+3
  -1.30028E+3   1.06695E+3
   8.80794E+1  -4.57613E+3
   8.24894E+2   6.57630E+2
   9.14542E+2  -9.46794E+1
   4.05782E+2   3.00398E+3
   1.04360E+2   1.82262E+2
  -4.13886E+2   5.18912E+2
  -1.37681E+3   1.35384E+2
  -7.04760E+1   8.31818E+2
  -9.44248E+2  -1.52041E+3
  -2.19666E+3  -4.77861E+2
  -3.97050E+2  -1.15132E+3
   1.74679E+3   8.54929E+2
   3.88744E+2   2.69963E+2
  -5.05948E+2   1.79118E+3
   1.55040E+3  -8.82588E+2
   1.18672E+3  -1.08381E+2
   4.66814E+1   5.27666E+2
   4.22611E+2  -2.18689E+2
   1.21837E+3   1.35518E+3
  -2.06417E+3   1.78079E+3
  -8.27949E+2   6.53543E+2
  -2.69388E+3  -7.38212E+2
   3.28950E+2  -6.34851E+2
  -3.37222E+2  -1.22921E+2
   1.54328E+3   7.18225E+2
  -8.15440E+2   1.49798E+3
   1.33125E+3  -3.76934E+2
   1.41482E+3   2.21712E+3
   5.68850E+2  -9.62316E+2
   8.75748E+2   4.97687E+2
   4.96420E+2  -1.04012E+2
   4.51245E+2  -1.05546E+3
   1.53100E+2   9.03444E+2
  -7.45683E+2   8.43632E+2
  -1.28958E+3  -7.24560E+1
  -3.45424E+3  -7.36030E+2
   2.69891E+2   1.24668E+2
   9.73790E+2  -2.05596E+3
   1.10133E+3   1.17789E+3
   1.63417E+3   1.78477E+3
  -2.28003E+2   1.39271E+3
   1.09510E+2   4.01013E+2
  -1.73623E+3   1.26385E+3
   1.91209E+3  -1.55572E+3
   2.16651E+3  -3.21424E+2
   1.20836E+3   6.51183E+2
  -2.19308E+1   3.38897E+2
   1.78007E+3   4.74065E+1
   1.42848E+2   2.82413E+3
   8.05332E+2   1.33694E+2
  -4.21523E+2   8.94853E+2
  -5.68138E+2  -3.85742E+1
   7.77368E+2  -4.86444E+0
   8.76572E+2  -3.18526E+3
   1.89683E+3  -1.32702E+3
  -1.70468E+2   1.69676E+2
   4.16935E+2  -5.51366E+1
  -4.12806E+2   2.98678E+2
   6.60371E+2  -4.94807E+2
  -1.13077E+3   1.00123E+3
   9.78043E+2   8.62913E+2
  -2.02468E+2  -3.49288E+2
  -1.15535E+3  -7.83635E+2
   6.87914E+2  -3.89815E+2
  -4.28249E+2   7.24154E+0
  -7.31256E+2   6.40659E+2
  -1.92427E+3   1.99068E+3
  -2.47932E+3  -2.30197E+3
   1.46685E+3  -2.61290E+3
   1.79267E+3   1.82272E+3
  -1.51069E+3   2.21851E+3
  -1.28123E+3   1.38683E+3
  -1.27916E+3  -4.42872E+2
   3.54261E+2  -8.21824E+2
  -1.10963E+3  -7.80529E+2
  -4.79295E+2  -1.76396E+3
  -1.58472E+3   3.78877E+2
   2.32342E+3   8.92870E+2
   3.85066E+2   6.47111E+2
   7.87750E+1   1.63576E+3
  -1.79014E+3   1.52682E+3
  -2.45139E+2  -1.37345E+2
  -2.76422E+2  -4.04192E+2
   1.14838E+2   4.11624E+2
   1.14142E+2  -1.35041E+3
  -1.09876E+3   4.61538E+2
  -7.19441E+1  -1.12037E+3
   9.05061E+2   2.83393E+2
  -2.16409E+3   1.17905E+3
   1.48723E+3   2.10677E+1
  -8.61480E+2   8.68192E+2
   9.16344E+2   8.64541E+2
  -6.22823E+2   1.17544E+3
  -9.83369E+2  -7.11950E+2
   2.73851E+2  -6.97789E+2
   7.56162E+2  -3.15483E+2
   2.58798E+3   9.84832E+2
   1.61373E+3   1.37763E+3
   6.49310E+2   1.71464E+2
  -1.66703E+3  -1.17632E+3
   7.33563E+2   1.78137E+2
   1.02748E+3   6.17061E+2
  -3.74135E+3  -8.63548E+2
   5.56725E+2  -2.83650E+3
   4.86475E+2  -2.85231E+3
   3.01477E+3   1.41596E+3
  -1.65177E+2   1.56814E+3
  -4.50714E+2  -6.06061E+2
   3.28051E+2   1.77723E+3
  -1.29028E+3  -1.56838E+3
  -5.20901E+1   2.34527E+2
   1.75476E+3   1.28863E+3
   2.25325E+2   1.61577E+3
  -2.93923E+3  -1.35943E+3
  -1.08502E+3   1.17267E+3
  -2.21210E+1   6.00802E+2
  -2.50817E+3   6.67595E+2
  -1.18923E+3  -2.98269E+3
  -1.14759E+3  -1.89878E+2
   7.26398E+2   1.11404E+3
  -3.03565E+1   3.29193E+2
  -2.32110E+3  -1.77214E+3
  -7.82039E+2   1.91584E+3
  -8.13777E+2  -3.07050E+2
   1.22115E+3  -1.26542E+3
  -3.68602E+2  -6.58758E+2
  -8.97606E+2  -1.07194E+3
   1.31573E+2  -1.46703E+3
   2.77168E+2  -1.04202E+3
  -1.05557E+3   2.77165E+3
  -3.96772E+2  -1.43904E+3
  -9.21859E+2  -1.18676E+3
  -6.23214E+2   1.10214E+3
   1.87201E+3   8.86940E+2
   1.58559E+1  -4.64630E+2
   1.24830E+3   1.98873E+2
   8.48937E+2   2.83299E+3
   8.81599E+2   2.68259E+3
  -7.00416E+2   8.63238E+2
  -5.72867E+2  -1.84546E+3
  -3.95569E+1  -1.14671E+3
   9.77418E+2  -1.84318E+3
  -7.52298E+2   1.46265E+3
   4.77168E+2   1.32563E+3
   2.43170E+3  -1.73808E+2
   2.61804E+3   6.00994E+2
   5.88759E+2  -4.26076E+2
  -1.13535E+3  -4.38623E+2
  -3.26451E+3  -4.21996E+2
  -1.38247E+3  -1.96020E+3
   1.30158E+2   9.80342E+2
  -9.52908E+2   1.01308E+3
  -8.33771E+2   1.27571E+3
  -8.90677E+2   3.69618E+2
   1.20934E+3  -1.80904E+2
  -7.90943E+2   8.68633E+2
  -1.35024E+3   4.27397E+2
  -2.43560E+3  -8.59325E+2
  -1.56912E+3  -6.35672E+2
  -1.10538E+3  -1.48085E+3
  -1.00713E+2   1.69302E+3
  -7.85862E+2  -7.55394E+2
   2.24513E+2  -1.12032E+3
   3.30062E+2  -3.16287E+2
   4.40560E+2   7.29372E+2
   4.92826E+2   2.18831E+3
  -1.01348E+3  -6.52823E+2
   9.02274E+2  -1.19179E+3
   2.15117E+2  -5.63991E+2
  -3.64417E+2   7.81413E+2
  -1.25784E+3  -2.04182E+3
   2.90179E+2   1.11114E+3
   1.04620E+3  -1.00554E+2
  -2.82939E+2   4.82285E+2
  -4.54293E+2  -1.24197E+3
  -2.90024E+3   3.49521E+1
   7.40050E+1   7.17394E+1
   1.45032E+3  -1.87655E+3
   8.30961E+2  -1.19312E+3
  -9.45609E+2  -2.79301E+2
  -2.49604E+2   1.01681E+3
   5.51383E+2  -3.18758E+2
   9.04416E+1   5.32918E+2
  -1.37031E+3  -1.03692E+2
   1.50433E+3  -2.38682E+3
  -4.63179E+2  -1.21685E+3
  -7.80882E+0   1.04901E+3
   1.18175E+3   6.09501E+2
  -1.25223E+3  -2.84870E+2
  -3.56488E+2  -7.71822E+2
  -9.57642E+2  -1.42355E+3
  -2.33713E+1   4.32986E+2
   1.59372E+3  -3.29620E+2
   1.18709E+3   6.78780E+2
   1.35102E+3  -9.50532E+2
   4.44164E+2   1.44519E+2
   1.66829E+3   1.47096E+3
   9.59553E+2   6.30994E+2
   1.41105E+3  -4.21441E+2
   3.29940E+3  -1.64948E+3
   9.72915E+2  -8.82890E+2
   6.15391E+2   6.71251E+2
  -1.66398E+3   2.02325E+3
   6.61478E+2   7.80342E+2
  -1.95110E+2   6.82502E+2
  -1.48624E+2   1.61438E+3
  -1.44791E+3   1.73609E+3
   1.53481E+2  -1.02221E+3
   2.21124E+3   5.25176E+2
  -1.14513E+3   1.54345E+3
   5.89604E+2   2.22774E+2
   4.05509E+2  -9.30636E+2
  -6.50831E+2  -1.98155E+3
   1.27486E+3  -9.82562E+2
  -4.23900E+2   4.80384E+2
  -1.27936E+3   2.14380E+3
  -6.73137E+2   1.29992E+2
  -2.47549E+2  -9.02764E+2
   2.51835E+3   2.01542E+3
  -2.00283E+3   4.44583E+2
  -9.11669E+2   5.09497E+2
   8.29467E+2  -2.37571E+3
  -1.88349E+3   5.24008E+2
   2.14767E+3   9.96460E+2
  -1.41860E+3   1.19768E+3
  -8.30982E+2  -9.67368E+2
  -4.27205E+1   1.10421E+2
   6.84464E+2   1.56727E+2
   1.18686E+3   4.06915E+2
  -3.99846E+2  -1.76731E+3
  -7.65703E+2  -6.72448E+2
   1.79183E+3   1.21405E+3
  -4.65451E+2  -8.75504E+2
  -1.36334E+2  -4.36263E+2
  -2.42362E+2  -1.96073E+3
