 LCModel (Version 6.3-1N) Copyright: S.W. Provencher.          Ref.: Magn. Reson. Med. 30:672-679 (1993).                
 Slice_N1@27_17  02-Jun-2023 14:38:14
 27 lines in following concentration table = NCONC+1
    Conc.  %SD /Cr+PCr  Metabolite                                         
 2.79E-07 189% 8.1E-05 Mac                                                 
 9.44E-05 999% 2.7E-02 Cr                                                  
 2.77E-02 133%   7.973 PCr                                                 
 7.96E-02  27%  22.948 Ins                                                 
 4.86E-02  27%  14.016 NAA                                                 
 7.86E-02  28%  22.656 Tau                                                 
 2.58E-02  20%   7.443 PCho                                                
    0.000 999%   0.000 GPC                                                 
 3.94E-02  47%  11.351 Glu                                                 
 4.78E-04 999%   0.138 Gln                                                 
 2.27E-02  69%   6.550 Ala                                                 
    0.000 999%   0.000 Asc                                                 
 3.58E-03  83%   1.031 Asp                                                 
 2.83E-03  62%   0.815 GABA                                                
 2.29E-03  78%   0.661 Glc                                                 
 3.72E-04 999%   0.107 GSH                                                 
    0.000 999%   0.000 Lac                                                 
    0.000 999%   0.000 NAAG                                                
    0.000 999%   0.000 PE                                                  
 2.58E-02  20%   7.443 GPC+PCho                                            
 4.86E-02  27%  14.016 NAA+NAAG                                            
 3.99E-02  54%  11.489 Glu+Gln                                             
 2.78E-02  48%   8.000 Cr+PCr                                              
 4.86E-02  27%  14.016 NAA+NAAG                                            
 2.78E-02  48%   8.000 Cr+PCr                                              
 3.99E-02  54%  11.489 Glu+Gln                                             
   6 lines in following misc. output table
  FWHM = 0.081 ppm    S/N =   1                                            
  Data shift =-0.017 ppm                                                   
  Ph:  57 deg      -2.9 deg/ppm                                            
  alphaB,S = 3.1E+01,   5.1E+01                                            
   18 spline knots.   Ns = 8(2)                                            
   2 inflections.     1 extrema                                            
  654 points on ppm-axis = NY
      4.000000     3.994181     3.988363     3.982544     3.976726     3.970907     3.965088     3.959270     3.953451     3.947633
      3.941814     3.935995     3.930177     3.924358     3.918540     3.912721     3.906902     3.901084     3.895265     3.889446
      3.883628     3.877809     3.871991     3.866172     3.860353     3.854535     3.848716     3.842898     3.837079     3.831260
      3.825442     3.819623     3.813805     3.807986     3.802167     3.796349     3.790530     3.784712     3.778893     3.773074
      3.767256     3.761437     3.755619     3.749800     3.743981     3.738163     3.732344     3.726526     3.720707     3.714888
      3.709070     3.703251     3.697433     3.691614     3.685795     3.679977     3.674158     3.668339     3.662521     3.656702
      3.650884     3.645065     3.639246     3.633428     3.627609     3.621791     3.615972     3.610153     3.604335     3.598516
      3.592698     3.586879     3.581060     3.575242     3.569423     3.563605     3.557786     3.551967     3.546149     3.540330
      3.534512     3.528693     3.522874     3.517056     3.511237     3.505419     3.499600     3.493781     3.487963     3.482144
      3.476326     3.470507     3.464688     3.458870     3.453051     3.447232     3.441414     3.435595     3.429777     3.423958
      3.418139     3.412321     3.406502     3.400684     3.394865     3.389046     3.383228     3.377409     3.371591     3.365772
      3.359953     3.354135     3.348316     3.342498     3.336679     3.330860     3.325042     3.319223     3.313405     3.307586
      3.301767     3.295949     3.290130     3.284312     3.278493     3.272674     3.266856     3.261037     3.255219     3.249400
      3.243581     3.237763     3.231944     3.226125     3.220307     3.214488     3.208670     3.202851     3.197032     3.191214
      3.185395     3.179577     3.173758     3.167939     3.162121     3.156302     3.150484     3.144665     3.138846     3.133028
      3.127209     3.121391     3.115572     3.109753     3.103935     3.098116     3.092298     3.086479     3.080660     3.074842
      3.069023     3.063205     3.057386     3.051567     3.045749     3.039930     3.034111     3.028293     3.022474     3.016656
      3.010837     3.005018     2.999200     2.993381     2.987563     2.981744     2.975925     2.970107     2.964288     2.958470
      2.952651     2.946832     2.941014     2.935195     2.929377     2.923558     2.917739     2.911921     2.906102     2.900284
      2.894465     2.888646     2.882828     2.877009     2.871191     2.865372     2.859553     2.853735     2.847916     2.842098
      2.836279     2.830460     2.824642     2.818823     2.813004     2.807186     2.801367     2.795549     2.789730     2.783911
      2.778093     2.772274     2.766456     2.760637     2.754818     2.749000     2.743181     2.737363     2.731544     2.725725
      2.719907     2.714088     2.708270     2.702451     2.696632     2.690814     2.684995     2.679177     2.673358     2.667539
      2.661721     2.655902     2.650084     2.644265     2.638446     2.632628     2.626809     2.620991     2.615172     2.609353
      2.603535     2.597716     2.591897     2.586079     2.580260     2.574442     2.568623     2.562804     2.556986     2.551167
      2.545349     2.539530     2.533711     2.527893     2.522074     2.516256     2.510437     2.504618     2.498800     2.492981
      2.487163     2.481344     2.475525     2.469707     2.463888     2.458070     2.452251     2.446432     2.440614     2.434795
      2.428977     2.423158     2.417339     2.411521     2.405702     2.399884     2.394065     2.388246     2.382428     2.376609
      2.370790     2.364972     2.359153     2.353335     2.347516     2.341697     2.335879     2.330060     2.324242     2.318423
      2.312604     2.306786     2.300967     2.295149     2.289330     2.283511     2.277693     2.271874     2.266056     2.260237
      2.254418     2.248600     2.242781     2.236963     2.231144     2.225325     2.219507     2.213688     2.207870     2.202051
      2.196232     2.190414     2.184595     2.178777     2.172958     2.167139     2.161321     2.155502     2.149683     2.143865
      2.138046     2.132228     2.126409     2.120590     2.114772     2.108953     2.103135     2.097316     2.091497     2.085679
      2.079860     2.074042     2.068223     2.062404     2.056586     2.050767     2.044949     2.039130     2.033311     2.027493
      2.021674     2.015856     2.010037     2.004218     1.998400     1.992581     1.986763     1.980944     1.975126     1.969307
      1.963489     1.957670     1.951852     1.946033     1.940215     1.934397     1.928578     1.922760     1.916941     1.911123
      1.905304     1.899486     1.893667     1.887849     1.882030     1.876212     1.870393     1.864575     1.858756     1.852938
      1.847119     1.841301     1.835482     1.829664     1.823845     1.818027     1.812208     1.806390     1.800571     1.794753
      1.788934     1.783116     1.777297     1.771479     1.765660     1.759842     1.754023     1.748205     1.742386     1.736568
      1.730749     1.724931     1.719113     1.713294     1.707476     1.701657     1.695839     1.690020     1.684202     1.678383
      1.672565     1.666746     1.660928     1.655109     1.649291     1.643472     1.637654     1.631835     1.626017     1.620198
      1.614380     1.608561     1.602743     1.596924     1.591106     1.585287     1.579469     1.573650     1.567832     1.562013
      1.556195     1.550376     1.544558     1.538739     1.532921     1.527102     1.521284     1.515465     1.509647     1.503829
      1.498010     1.492192     1.486373     1.480555     1.474736     1.468918     1.463099     1.457281     1.451462     1.445644
      1.439825     1.434007     1.428188     1.422370     1.416551     1.410733     1.404914     1.399096     1.393277     1.387459
      1.381640     1.375822     1.370003     1.364185     1.358366     1.352548     1.346729     1.340911     1.335092     1.329274
      1.323455     1.317637     1.311818     1.306000     1.300182     1.294363     1.288545     1.282726     1.276908     1.271089
      1.265271     1.259452     1.253634     1.247815     1.241997     1.236178     1.230360     1.224541     1.218723     1.212904
      1.207086     1.201267     1.195449     1.189630     1.183812     1.177993     1.172175     1.166356     1.160538     1.154719
      1.148901     1.143082     1.137264     1.131445     1.125627     1.119808     1.113990     1.108171     1.102353     1.096534
      1.090716     1.084898     1.079079     1.073261     1.067442     1.061624     1.055805     1.049987     1.044168     1.038350
      1.032531     1.026713     1.020894     1.015076     1.009257     1.003439     0.997620     0.991802     0.985983     0.980165
      0.974346     0.968528     0.962709     0.956891     0.951072     0.945254     0.939435     0.933617     0.927798     0.921980
      0.916161     0.910343     0.904524     0.898706     0.892887     0.887069     0.881251     0.875432     0.869614     0.863795
      0.857977     0.852158     0.846340     0.840521     0.834703     0.828884     0.823066     0.817247     0.811429     0.805610
      0.799792     0.793973     0.788155     0.782336     0.776518     0.770699     0.764881     0.759062     0.753244     0.747425
      0.741607     0.735788     0.729970     0.724151     0.718333     0.712514     0.706696     0.700877     0.695059     0.689240
      0.683422     0.677603     0.671785     0.665967     0.660148     0.654330     0.648511     0.642693     0.636874     0.631056
      0.625237     0.619419     0.613600     0.607782     0.601963     0.596145     0.590326     0.584508     0.578689     0.572871
      0.567052     0.561234     0.555415     0.549597     0.543778     0.537960     0.532141     0.526323     0.520504     0.514686
      0.508867     0.503049     0.497230     0.491412     0.485593     0.479775     0.473956     0.468138     0.462319     0.456501
      0.450682     0.444864     0.439045     0.433227     0.427408     0.421590     0.415771     0.409953     0.404134     0.398316
      0.392497     0.386679     0.380860     0.375042     0.369223     0.363405     0.357586     0.351767     0.345949     0.340130
      0.334312     0.328493     0.322675     0.316856     0.311038     0.305219     0.299401     0.293582     0.287764     0.281945
      0.276127     0.270308     0.264490     0.258671     0.252853     0.247034     0.241216     0.235397     0.229579     0.223760
      0.217942     0.212123     0.206305     0.200486
 NY phased data points follow
  -4.40039E-01 -1.53473E-01 -1.79949E-01  1.75525E-01  9.09821E-02  7.67028E-02  1.06501E-01  4.94888E-02  3.22746E-01 -1.96148E-01
  -5.75041E-01 -4.53173E-01  1.08651E-01 -2.48045E-01  6.61840E-02  3.75599E-02 -8.75843E-02 -4.37709E-01 -6.64506E-01  5.01987E-01
  -1.11197E-01 -3.03005E-01  1.27759E-01 -6.25411E-02  2.63844E-01 -1.08715E-01 -3.32280E-01  2.50656E-01  7.92005E-01  6.15095E-01
  -2.57804E-01 -1.75403E-01 -6.67236E-02 -1.27193E-01 -4.26603E-02  1.04065E-01  1.25611E-01 -5.36144E-02  3.85073E-01  2.33538E-01
   1.15350E-01  2.00659E-01  3.84737E-01  2.06993E-01  1.34169E-01  3.27316E-01 -4.83044E-02  2.33129E-01 -1.62274E-01 -1.09404E-01
   3.32543E-01 -2.38719E-01  1.16810E-01 -2.19162E-02 -3.07595E-01  2.40686E-01 -9.47175E-02 -3.65003E-01 -3.70372E-01 -4.81866E-01
  -5.28143E-01 -3.71608E-01 -1.39707E-01 -3.19334E-01 -1.79267E-01 -3.19195E-01 -5.66380E-01 -2.37392E-01 -1.66528E-01 -1.20001E-01
   3.26879E-01  3.05293E-01 -1.96708E-01  2.44988E-01  4.02385E-01  3.68412E-02 -5.59988E-03  1.39076E-01  7.69320E-01  2.56111E-01
   5.20204E-02  1.18481E-01  1.54247E-02  4.69418E-01  4.41155E-01  3.88698E-01 -1.39936E-01 -2.05320E-01  4.12882E-02  1.97752E-01
  -3.37999E-01 -3.36143E-01 -1.36879E-01 -2.50552E-01  4.26845E-01 -1.92131E-01 -1.89381E-01  3.25415E-02 -9.06502E-02  2.58262E-01
   9.80753E-02  4.08374E-03  5.51785E-01  4.30295E-01  9.68548E-02  9.27976E-02  2.36098E-01  7.69898E-01  4.29000E-01  4.54961E-01
   4.39421E-01  5.14401E-01  2.25639E-01  2.78452E-01  2.87941E-01 -1.87957E-01  3.25696E-01  2.64306E-01  1.40677E-01 -2.66472E-01
   1.07886E-01  6.88038E-01  4.77138E-01 -1.88930E-01 -1.09325E-01  2.43864E-01 -4.56555E-01 -9.42032E-02 -1.30595E-01 -6.05553E-01
  -4.87557E-01 -1.07557E+00 -6.53780E-01 -1.67375E-01 -7.97183E-01 -5.67310E-01 -7.93600E-01 -4.87692E-01 -7.74586E-01 -9.56955E-01
  -3.90072E-01 -5.24081E-01 -1.66087E-01 -2.03582E-01  9.90896E-02 -1.11887E-01  1.82073E-01 -4.39884E-02  1.78116E-01  1.32878E-01
  -4.03174E-01  8.56938E-01  3.71515E-03 -5.13756E-01  6.73899E-02  1.39041E-01 -1.90630E-02  2.08317E-01 -7.06279E-02  1.80385E-01
   9.94365E-01  1.50912E-01 -4.63159E-02  2.06938E-01  5.08124E-01  4.58445E-01  3.10988E-01 -1.80232E-01 -6.29333E-01 -1.84421E-01
   3.98181E-01 -1.66517E-01 -6.33109E-01  2.28634E-01 -5.52761E-01 -3.98820E-01  2.44556E-01 -1.13765E-01  3.03676E-02 -5.16218E-01
  -4.87750E-01 -1.81094E-01  2.16669E-01  3.20911E-01 -1.78477E-01  8.62401E-02 -2.40453E-01 -4.29984E-01  7.77927E-02 -8.75156E-02
  -6.05013E-02  1.05716E-01  1.90976E-01  1.70963E-01 -1.38920E-03 -2.28356E-02 -6.43092E-02 -4.24656E-02 -3.11590E-02  1.56958E-01
  -4.07376E-02 -4.12039E-01  9.46179E-02  1.87587E-01 -8.06447E-02  2.04570E-01 -1.80907E-01 -2.93175E-02  1.87598E-01 -2.12700E-01
  -2.79000E-02 -4.08817E-01 -1.56006E-01  2.25015E-01  1.72187E-01  2.91675E-01  5.99055E-02 -4.53557E-01 -4.78747E-01 -3.56480E-02
   1.80739E-02  4.76390E-02 -1.66857E-01  4.85347E-01 -2.31250E-01 -5.33487E-01  3.97249E-01  3.02614E-01  2.01606E-01 -3.17314E-01
   4.90288E-01  2.46472E-01 -6.85607E-02 -2.81814E-01 -6.13134E-01  1.90385E-01  3.61079E-01  1.84129E-01 -4.36000E-03  3.21441E-01
  -1.91553E-01 -2.62320E-01 -2.93190E-01  1.03359E-01  9.83506E-06 -3.15867E-01  2.46123E-02 -3.04657E-01  1.90894E-01 -1.47305E-01
   5.17242E-02  1.95188E-01  1.42857E-01  1.32589E-01 -1.33348E-01  2.14617E-01 -2.45649E-02 -1.33119E-01  1.96471E-02  1.40338E-01
   3.18883E-01  4.38158E-01 -7.00509E-02  4.93905E-02 -2.22822E-01 -2.63476E-01  1.93692E-01 -3.25595E-01  1.69835E-01 -1.53155E-01
  -4.55395E-01  1.88214E-01 -5.42176E-01 -3.68921E-01  3.16339E-01 -6.91231E-02 -6.67551E-02 -1.18837E-01  4.42861E-02  8.61522E-02
  -7.76672E-02  1.27969E-01 -1.05052E-01 -1.50550E-01  2.15975E-01  3.34336E-01  1.53627E-01 -3.27829E-01 -3.59624E-01  2.51865E-01
   1.84729E-01  4.32329E-02  5.08901E-01  8.96000E-01  7.97801E-02 -5.13935E-01 -8.58923E-02  7.23479E-02  3.68297E-01  3.56092E-01
   3.10548E-01  3.72622E-01  6.74049E-02 -1.86228E-01  3.02065E-01  2.59560E-01  2.76470E-01  2.76614E-01 -2.61541E-01  4.10330E-01
   1.19865E-01  7.49557E-02  3.14291E-01  2.45108E-02  2.07423E-01 -5.22497E-02  2.44483E-01  6.61667E-02 -2.28599E-01 -1.71588E-01
   1.59010E-02  5.40118E-01  3.54922E-01  2.52792E-02 -1.40957E-01 -2.29562E-02 -2.13380E-02  2.30475E-01  2.91421E-01  1.16316E-01
   7.32231E-01  6.75441E-02 -1.22388E-01  5.04065E-01 -1.31913E-01  1.56959E-02 -1.39700E-01 -5.42271E-01 -3.85034E-01 -5.46312E-01
  -2.40079E-01 -2.72766E-01 -3.00317E-01 -2.40094E-02 -4.47371E-01 -4.26781E-01 -4.52830E-02  8.42967E-03  2.89034E-01 -5.06826E-01
  -5.73135E-01 -9.45527E-02 -2.64843E-01  2.92585E-01 -8.27163E-03  5.44311E-02 -9.34625E-02  3.94064E-01  3.34554E-01 -4.68495E-01
   9.63626E-02  3.20990E-02  2.48363E-01 -1.40094E-01  1.16596E-01 -2.83979E-01 -3.50393E-01  2.53030E-01 -1.83554E-02 -4.35990E-02
  -4.32677E-01 -3.68894E-02 -4.20370E-01 -8.56063E-03  2.05533E-01 -2.06740E-01 -4.47240E-01  9.78648E-02  2.89515E-01 -2.06846E-01
   3.46292E-01 -4.11795E-01 -7.30580E-02 -2.59053E-01 -5.07201E-01 -4.87489E-01 -1.89775E-01  2.06863E-01 -7.07860E-01  1.88964E-02
   1.66152E-02 -1.25522E-01  1.74478E-01  9.64935E-02  3.56952E-03 -6.04099E-02  1.27213E-01  6.10777E-01  5.77020E-01 -1.54751E-01
  -3.34254E-02 -1.29654E-02  1.73878E-01  1.33462E-01  1.64392E-01  4.38468E-01  1.24374E-01 -1.34875E-01 -1.80331E-01  4.08902E-01
   2.03961E-01 -1.90030E-01 -1.33638E-01 -3.65440E-01  3.10304E-01  3.75275E-01 -1.50425E-01 -3.24766E-01 -2.80204E-01 -6.04089E-02
  -1.18103E-01  4.18339E-02  3.54918E-02  3.85449E-01  3.28336E-01 -3.27517E-02  1.41531E-01  2.10035E-01  8.23829E-02 -9.89851E-02
  -4.02833E-02 -4.27596E-01 -3.00216E-01  1.95387E-01  1.69776E-02  2.26183E-01  4.16946E-01  8.70008E-02  5.19619E-02  3.39359E-01
   3.89186E-01 -2.78263E-01 -1.10497E-01  3.41154E-01 -9.23434E-02  9.26793E-02 -1.19180E-01 -5.16547E-02  6.19520E-01  2.72399E-01
   6.14873E-02  4.68281E-02 -2.35812E-01  1.95426E-01 -7.18167E-02 -1.40618E-01  4.27009E-01 -2.08782E-02  3.02098E-01  2.57477E-01
  -6.09005E-02  2.32392E-01  7.45347E-02 -1.49111E-01 -2.72509E-01 -9.40602E-02 -1.54001E-01 -1.76367E-01 -9.39094E-03 -6.83441E-02
   9.33846E-02 -2.05646E-01 -7.10258E-01 -3.22326E-01 -1.30025E-01 -1.79252E-01 -2.50875E-01 -3.79367E-01 -3.70297E-01 -5.10601E-01
   1.73071E-02  2.03657E-01  2.07472E-01  3.59669E-01 -2.42073E-01 -1.15184E-01 -1.64378E-01 -1.28281E-01  1.51404E-01  2.02256E-01
   5.72940E-01  2.80824E-02  2.79485E-01  1.36892E-01 -4.59915E-01 -8.09392E-03  3.06203E-02 -1.18523E-01 -2.28569E-01  1.95470E-02
  -1.45849E-01 -2.01201E-01  1.92734E-01  1.88649E-01 -6.82444E-03  1.55557E-01  9.30688E-02 -2.07729E-01 -5.98687E-02  1.00299E-01
   2.79195E-01  6.19589E-03 -8.78820E-02  8.11898E-02  2.09254E-01  1.53503E-01 -2.16136E-01  1.19946E-01  5.37634E-01  1.18830E-01
   3.38117E-01  3.99408E-01 -5.65891E-01 -3.41150E-01  1.34287E-01 -9.53850E-02 -3.77577E-01 -4.64743E-01 -3.62350E-01 -1.96459E-01
   1.10701E-02 -2.66735E-01 -2.14425E-01  1.79039E-01 -3.98582E-01  4.65322E-02  5.04718E-01 -3.67691E-01 -2.83345E-02  1.79041E-01
  -6.78282E-03 -1.64688E-01 -5.44371E-02 -1.07727E-01 -1.00188E-01  1.05524E-01 -4.03598E-01  1.60173E-01  4.77829E-01  1.11073E-01
  -1.49462E-01 -3.43977E-01 -2.70081E-01 -1.42281E-02 -8.73016E-02 -4.29859E-03 -3.62935E-02 -4.66226E-01 -2.48738E-01 -2.44313E-01
  -1.04456E-02  5.54867E-02 -1.35705E-01 -2.70995E-01  3.67019E-01 -1.14836E-02 -4.01389E-01  3.96100E-01 -2.06165E-01  2.67953E-01
   4.20824E-02 -8.96704E-02 -3.68384E-03 -3.84452E-01  3.73537E-01 -2.16153E-01 -3.51390E-01 -5.32197E-02 -1.59856E-01 -1.79324E-01
  -1.03635E-01 -8.36305E-02  4.83453E-02  1.81697E-01 -2.56172E-01 -5.37934E-02 -1.06282E-02 -1.10737E-02 -8.88828E-02 -9.45826E-02
   5.88167E-01  9.29028E-02 -5.45435E-01 -4.63106E-01 -2.49941E-01  2.06098E-01 -1.16344E-01 -3.50417E-03 -1.20711E-03  1.10375E-01
   9.24387E-01 -1.96343E-01 -1.87020E-01  4.48207E-01 -2.07121E-01 -4.37827E-02 -6.27526E-03  3.27890E-01  5.03877E-01  4.07372E-01
   1.11164E-01 -2.69456E-01  2.54616E-01  1.34754E-01  2.23190E-01  4.35909E-01  6.15625E-02  1.70026E-01  1.47503E-01 -1.44618E-01
  -1.29529E-02  2.87468E-01  2.66406E-01  4.38462E-01 -4.08452E-02 -1.01368E-01  7.59852E-02 -1.24634E-01  1.93101E-01 -4.71558E-02
   2.91454E-01  2.45454E-01 -4.28281E-02 -5.47842E-02 -4.98817E-02  1.40855E-01 -1.02234E-01  5.29245E-02  5.13127E-02 -1.56389E-02
  -2.60457E-01  2.10341E-03  3.87231E-01  1.72321E-01 -5.12332E-02 -9.60480E-02 -7.12875E-02  1.32835E-02  3.43939E-01 -4.38065E-01
  -2.98572E-01  5.21247E-01 -1.30409E-01 -1.38210E-01
 NY points of the fit to the data follow
   3.74116E-02  2.29851E-02  4.36255E-02  2.98943E-02  6.54979E-02  5.00576E-02  9.47433E-02  7.53683E-02  1.17685E-01  9.14425E-02
   1.30793E-01  1.00667E-01  1.34129E-01  1.02463E-01  1.24516E-01  9.40295E-02  1.02951E-01  7.64198E-02  7.48871E-02  5.34911E-02
   4.28844E-02  2.70167E-02  1.31687E-02  1.35218E-03 -9.54334E-03 -2.06557E-02 -2.36952E-02 -3.79615E-02 -2.80954E-02 -4.89941E-02
  -2.76011E-02 -5.57076E-02 -2.03904E-02 -5.54397E-02 -6.33025E-03 -4.74810E-02  1.25085E-02 -3.33194E-02  3.21427E-02 -1.66442E-02
   4.73037E-02 -1.80006E-03  5.40528E-02  7.13668E-03  4.88087E-02  4.61959E-03  2.61012E-02 -1.40464E-02 -1.40220E-02 -5.03210E-02
  -6.48458E-02 -9.93860E-02 -1.26068E-01 -1.46868E-01 -1.83348E-01 -1.84576E-01 -2.19458E-01 -1.99452E-01 -2.27211E-01 -1.84491E-01
  -2.02182E-01 -1.43159E-01 -1.43874E-01 -8.39134E-02 -7.03979E-02 -1.57561E-02 -1.86971E-03  3.59343E-02  5.43491E-02  6.03593E-02
   8.49036E-02  5.92189E-02  8.49048E-02  3.85158E-02  6.62814E-02  9.37767E-03  4.09072E-02 -7.42154E-03  2.13863E-02 -8.32366E-03
   2.04211E-02  1.19419E-02  3.69447E-02  4.95935E-02  7.23750E-02  7.74195E-02  1.08805E-01  8.15079E-02  1.30249E-01  5.61474E-02
   1.30384E-01  3.90180E-03  1.15677E-01 -5.74977E-02  9.53852E-02 -1.05761E-01  8.05308E-02 -1.27390E-01  8.46429E-02 -1.05712E-01
   1.11796E-01 -3.87480E-02  1.62082E-01  5.85092E-02  2.21120E-01  1.64078E-01  2.77813E-01  2.60677E-01  3.24712E-01  3.32191E-01
   3.54606E-01  3.71037E-01  3.61894E-01  3.76823E-01  3.43996E-01  3.51872E-01  2.96223E-01  3.06954E-01  2.21839E-01  2.48948E-01
   1.30360E-01  1.79673E-01  1.33295E-02  7.70254E-02 -1.26397E-01 -5.11173E-02 -2.73230E-01 -1.96096E-01 -4.16552E-01 -3.47757E-01
  -5.37375E-01 -4.77665E-01 -6.06840E-01 -5.54762E-01 -6.24382E-01 -5.89053E-01 -6.01681E-01 -5.81795E-01 -5.38998E-01 -5.26122E-01
  -4.46022E-01 -4.31481E-01 -3.43000E-01 -3.24709E-01 -2.36702E-01 -2.10657E-01 -1.39557E-01 -1.06313E-01 -5.77979E-02 -2.45394E-02
   3.53395E-03  3.12631E-02  4.26860E-02  5.98343E-02  6.99691E-02  8.95427E-02  8.89840E-02  1.14232E-01  9.37044E-02  1.24885E-01
   7.84579E-02  1.16321E-01  4.48489E-02  9.00931E-02  4.11454E-03  5.33430E-02 -4.24614E-02  7.80257E-03 -9.04184E-02 -4.10470E-02
  -1.27992E-01 -8.24496E-02 -1.47294E-01 -1.09254E-01 -1.50107E-01 -1.20190E-01 -1.34814E-01 -1.13981E-01 -1.09350E-01 -9.67379E-02
  -8.28407E-02 -7.61933E-02 -6.15454E-02 -5.93603E-02 -5.32462E-02 -5.10770E-02 -4.71122E-02 -4.46699E-02 -4.11800E-02 -3.87387E-02
  -3.58158E-02 -3.34746E-02 -3.08481E-02 -2.84973E-02 -2.61202E-02 -2.38724E-02 -2.18591E-02 -1.98359E-02 -1.82947E-02 -1.65731E-02
  -1.55150E-02 -1.41987E-02 -1.37138E-02 -1.29280E-02 -1.30351E-02 -1.26777E-02 -1.32594E-02 -1.33022E-02 -1.41904E-02 -1.45297E-02
  -1.53683E-02 -1.40416E-02 -1.40586E-02 -1.00391E-02 -9.40289E-03 -2.01702E-03  1.59133E-03  1.32562E-02  1.91732E-02  3.41572E-02
   4.06751E-02  5.68909E-02  6.26388E-02  7.90391E-02  8.21951E-02  9.65802E-02  9.46266E-02  1.04592E-01  9.83533E-02  1.03211E-01
   9.30405E-02  9.30786E-02  7.88291E-02  7.41399E-02  5.72971E-02  4.98069E-02  3.35143E-02  2.53222E-02  1.04992E-02  2.79560E-03
  -8.86873E-03 -1.50332E-02 -2.37888E-02 -2.68162E-02 -3.54467E-02 -3.39681E-02 -4.12624E-02 -3.53183E-02 -4.19403E-02 -3.35884E-02
  -3.59089E-02 -2.70040E-02 -2.19708E-02 -1.57131E-02 -2.33623E-03  4.04878E-04  1.99239E-02  1.85518E-02  4.21505E-02  3.52427E-02
   6.05456E-02  4.73510E-02  7.06909E-02  5.31858E-02  7.03018E-02  4.98975E-02  5.83881E-02  3.68301E-02  3.45437E-02  1.36979E-02
   1.15188E-03 -1.56243E-02 -3.38304E-02 -4.40797E-02 -6.07580E-02 -6.57273E-02 -7.40965E-02 -7.33927E-02 -7.14916E-02 -6.52851E-02
  -5.40025E-02 -4.26544E-02 -2.57772E-02 -9.96938E-03  9.96289E-03  2.89402E-02  5.00914E-02  6.90634E-02  8.78188E-02  1.03828E-01
   1.16439E-01  1.27986E-01  1.32759E-01  1.39248E-01  1.36206E-01  1.38607E-01  1.29585E-01  1.29681E-01  1.18308E-01  1.17929E-01
   1.08037E-01  1.07969E-01  1.02095E-01  1.00833E-01  9.76475E-02  9.45366E-02  9.07798E-02  8.67339E-02  8.03816E-02  7.67405E-02
   6.61881E-02  6.44882E-02  4.88075E-02  5.08466E-02  3.00265E-02  3.76591E-02  1.24409E-02  2.61434E-02 -1.32260E-03  1.65858E-02
  -9.55914E-03  9.09729E-03 -1.18647E-02  3.74187E-03 -8.70333E-03  1.05108E-03 -1.26595E-03  6.15974E-04 -2.13509E-03 -1.98907E-02
  -1.97675E-02 -6.27196E-02 -5.56297E-02 -1.24914E-01 -1.07753E-01 -2.00347E-01 -1.66644E-01 -2.72280E-01 -2.16828E-01 -3.20689E-01
  -2.52265E-01 -3.48822E-01 -2.68653E-01 -3.51356E-01 -2.58845E-01 -3.18842E-01 -2.23404E-01 -2.57874E-01 -1.73265E-01 -1.86256E-01
  -1.16975E-01 -1.10664E-01 -6.59752E-02 -4.96717E-02 -2.97891E-02 -1.30973E-02 -1.11725E-02 -6.45767E-04 -9.28973E-03 -8.80016E-03
  -1.07944E-02 -1.14198E-02 -1.00961E-02 -1.05584E-02 -8.29989E-03 -8.85667E-03 -5.93408E-03 -6.33589E-03 -3.07291E-03 -3.11676E-03
   9.13837E-05  5.01650E-04  3.27262E-03  4.09666E-03  6.16546E-03  7.23642E-03  8.58256E-03  9.68588E-03  1.05416E-02  1.14994E-02
   1.21462E-02  1.29273E-02  1.34974E-02  1.41875E-02  1.46766E-02  1.53081E-02  1.56931E-02  1.62361E-02  1.65111E-02  1.69340E-02
   1.70958E-02  1.73592E-02  1.73987E-02  1.74793E-02  1.73826E-02  1.72758E-02  1.70379E-02  1.67541E-02  1.63791E-02  1.59560E-02
   1.54595E-02  1.49473E-02  1.43543E-02  1.38051E-02  1.31578E-02  1.26218E-02  1.19741E-02  1.14860E-02  1.08849E-02  1.04678E-02
   9.95584E-03  9.63486E-03  9.25840E-03  9.08050E-03  8.89411E-03  8.91905E-03  9.03995E-03  9.43319E-03  1.03270E-02  1.17837E-02
   1.71971E-02  1.93345E-02  3.25946E-02  3.46465E-02  5.51242E-02  5.58544E-02  8.19587E-02  7.99948E-02  1.08260E-01  1.02639E-01
   1.27703E-01  1.18713E-01  1.38124E-01  1.26188E-01  1.39201E-01  1.25107E-01  1.28934E-01  1.14118E-01  1.08002E-01  9.43034E-02
   8.17046E-02  7.04675E-02  5.49903E-02  4.73931E-02  3.28464E-02  2.89357E-02  1.93097E-02  1.83406E-02  1.46370E-02  1.53391E-02
   1.67625E-02  1.72716E-02  1.95794E-02  1.95201E-02  1.97900E-02  1.90932E-02  1.85743E-02  1.75122E-02  1.68039E-02  1.55472E-02
   1.47540E-02  1.34111E-02  1.26152E-02  1.12864E-02  1.05498E-02  9.32745E-03  8.69252E-03  7.65535E-03  7.15616E-03  6.36651E-03
   6.02273E-03  5.50317E-03  5.32484E-03  5.05901E-03  5.03742E-03  4.99538E-03  5.11728E-03  5.25905E-03  5.49076E-03  5.75578E-03
   6.05046E-03  6.38334E-03  6.68776E-03  7.03192E-03  7.28465E-03  7.58095E-03  7.73714E-03  7.93554E-03  7.97741E-03  8.04363E-03
   7.97385E-03  7.88767E-03  7.72170E-03  7.48534E-03  7.23317E-03  6.87185E-03  6.55226E-03  6.09579E-03  5.72235E-03  5.21427E-03
   4.78898E-03  4.26095E-03  3.78364E-03  3.25077E-03  2.71911E-03  2.18217E-03  1.58633E-03  1.01737E-03  3.18409E-04 -3.24804E-04
  -1.16411E-03 -1.93481E-03 -2.94789E-03 -3.90269E-03 -5.11318E-03 -6.27611E-03 -7.69257E-03 -9.05759E-03 -1.06410E-02 -1.21624E-02
  -1.38521E-02 -1.54518E-02 -1.71474E-02 -1.87079E-02 -2.02880E-02 -2.16805E-02 -2.30290E-02 -2.41521E-02 -2.51863E-02 -2.59488E-02
  -2.66183E-02 -2.69725E-02 -2.72727E-02 -2.72093E-02 -2.71651E-02 -2.67226E-02 -2.63800E-02 -2.56386E-02 -2.50518E-02 -2.41011E-02
  -2.33219E-02 -2.22587E-02 -2.13335E-02 -2.02336E-02 -1.91965E-02 -1.81255E-02 -1.70145E-02 -1.60146E-02 -1.48557E-02 -1.39545E-02
  -1.27962E-02 -1.20055E-02 -1.08997E-02 -1.02117E-02 -9.21775E-03 -8.62992E-03 -7.78383E-03 -7.28438E-03 -6.60695E-03 -6.17081E-03
  -5.65522E-03 -5.27387E-03 -4.88904E-03 -4.56031E-03 -4.26866E-03 -3.99449E-03 -3.76288E-03 -3.53971E-03 -3.34634E-03 -3.16926E-03
  -2.99744E-03 -2.87263E-03 -2.70711E-03 -2.62500E-03 -2.46066E-03 -2.41187E-03 -2.26329E-03 -2.24325E-03 -2.11559E-03 -2.11490E-03
  -2.01767E-03 -2.02240E-03 -1.96310E-03 -1.96589E-03 -1.93556E-03 -1.93956E-03 -1.92984E-03 -1.92339E-03 -1.90912E-03 -1.91193E-03
  -1.87223E-03 -1.89140E-03 -1.81476E-03 -1.84581E-03 -1.71718E-03 -1.75209E-03 -1.56662E-03 -1.59855E-03 -1.35802E-03 -1.38199E-03
  -1.08595E-03 -1.09819E-03 -7.62853E-04 -7.48676E-04 -3.93255E-04 -3.49288E-04  1.26549E-05  7.40595E-05  4.46352E-04  5.42974E-04
   9.26289E-04  1.05703E-03  1.44958E-03  1.60987E-03  2.01430E-03  2.20825E-03  2.63180E-03  2.87305E-03  3.31440E-03  3.58955E-03
   4.04941E-03  4.35686E-03  4.84278E-03  5.18435E-03  5.68670E-03  6.05852E-03  6.57922E-03  6.98060E-03  7.52748E-03  7.97686E-03
   8.55052E-03  9.07482E-03  9.68213E-03  1.02949E-02  1.09661E-02  1.16890E-02  1.24396E-02  1.32947E-02  1.41399E-02  1.51540E-02
   1.61093E-02  1.72932E-02  1.83834E-02  1.97437E-02  2.09983E-02  2.25555E-02  2.40096E-02  2.57874E-02  2.74729E-02  2.95156E-02
   3.14808E-02  3.38517E-02  3.61574E-02  3.89496E-02
 NY background values follow
     6.092E-02    6.076E-02    6.059E-02    6.042E-02    6.025E-02    6.009E-02    5.992E-02    5.975E-02    5.959E-02    5.942E-02
     5.925E-02    5.908E-02    5.892E-02    5.875E-02    5.858E-02    5.841E-02    5.825E-02    5.808E-02    5.791E-02    5.775E-02
     5.758E-02    5.741E-02    5.724E-02    5.708E-02    5.691E-02    5.674E-02    5.657E-02    5.641E-02    5.624E-02    5.607E-02
     5.590E-02    5.574E-02    5.557E-02    5.540E-02    5.523E-02    5.507E-02    5.490E-02    5.473E-02    5.456E-02    5.440E-02
     5.423E-02    5.406E-02    5.389E-02    5.373E-02    5.356E-02    5.339E-02    5.322E-02    5.306E-02    5.289E-02    5.272E-02
     5.255E-02    5.239E-02    5.222E-02    5.205E-02    5.188E-02    5.171E-02    5.155E-02    5.138E-02    5.121E-02    5.104E-02
     5.088E-02    5.071E-02    5.054E-02    5.037E-02    5.020E-02    5.004E-02    4.987E-02    4.970E-02    4.953E-02    4.936E-02
