 LCModel (Version 6.3-1N) Copyright: S.W. Provencher.          Ref.: Magn. Reson. Med. 30:672-679 (1993).                
 Slice_N1@13_20  02-Jun-2023 14:37:00
 27 lines in following concentration table = NCONC+1
    Conc.  %SD /Cr+PCr  Metabolite                                         
 1.50E-06  24% 2.5E-04 Mac                                                 
 1.49E-02  68%   2.488 Cr                                                  
 3.30E-02  31%   5.512 PCr                                                 
 5.87E-02  14%   9.808 Ins                                                 
 5.98E-02  11%   9.985 NAA                                                 
 5.05E-02  14%   8.423 Tau                                                 
 1.43E-02  15%   2.388 PCho                                                
    0.000 999%   0.000 GPC                                                 
 6.57E-02  14%  10.964 Glu                                                 
 1.81E-02  35%   3.014 Gln                                                 
    0.000 999%   0.000 Ala                                                 
 1.74E-02  74%   2.910 Asc                                                 
 4.07E-03 120%   0.680 Asp                                                 
 4.04E-03  69%   0.675 GABA                                                
 4.07E-03  75%   0.680 Glc                                                 
 3.33E-03 100%   0.555 GSH                                                 
 2.00E-03 347%   0.335 Lac                                                 
 1.27E-03 350%   0.212 NAAG                                                
    0.000 999%   0.000 PE                                                  
 1.43E-02  15%   2.388 GPC+PCho                                            
 6.11E-02  12%  10.198 NAA+NAAG                                            
 8.37E-02  13%  13.979 Glu+Gln                                             
 4.79E-02  13%   8.000 Cr+PCr                                              
 6.11E-02  12%  10.198 NAA+NAAG                                            
 4.79E-02  13%   8.000 Cr+PCr                                              
 8.37E-02  13%  13.979 Glu+Gln                                             
   6 lines in following misc. output table
  FWHM = 0.023 ppm    S/N =   3                                            
  Data shift = 0.023 ppm                                                   
  Ph: -36 deg     -12.6 deg/ppm                                            
  alphaB,S = 3.1E+01,   1.3E+01                                            
   18 spline knots.   Ns = 5(1)                                            
   2 inflections.     2 extrema                                            
  654 points on ppm-axis = NY
      4.000000     3.994181     3.988363     3.982544     3.976726     3.970907     3.965088     3.959270     3.953451     3.947633
      3.941814     3.935995     3.930177     3.924358     3.918540     3.912721     3.906902     3.901084     3.895265     3.889446
      3.883628     3.877809     3.871991     3.866172     3.860353     3.854535     3.848716     3.842898     3.837079     3.831260
      3.825442     3.819623     3.813805     3.807986     3.802167     3.796349     3.790530     3.784712     3.778893     3.773074
      3.767256     3.761437     3.755619     3.749800     3.743981     3.738163     3.732344     3.726526     3.720707     3.714888
      3.709070     3.703251     3.697433     3.691614     3.685795     3.679977     3.674158     3.668339     3.662521     3.656702
      3.650884     3.645065     3.639246     3.633428     3.627609     3.621791     3.615972     3.610153     3.604335     3.598516
      3.592698     3.586879     3.581060     3.575242     3.569423     3.563605     3.557786     3.551967     3.546149     3.540330
      3.534512     3.528693     3.522874     3.517056     3.511237     3.505419     3.499600     3.493781     3.487963     3.482144
      3.476326     3.470507     3.464688     3.458870     3.453051     3.447232     3.441414     3.435595     3.429777     3.423958
      3.418139     3.412321     3.406502     3.400684     3.394865     3.389046     3.383228     3.377409     3.371591     3.365772
      3.359953     3.354135     3.348316     3.342498     3.336679     3.330860     3.325042     3.319223     3.313405     3.307586
      3.301767     3.295949     3.290130     3.284312     3.278493     3.272674     3.266856     3.261037     3.255219     3.249400
      3.243581     3.237763     3.231944     3.226125     3.220307     3.214488     3.208670     3.202851     3.197032     3.191214
      3.185395     3.179577     3.173758     3.167939     3.162121     3.156302     3.150484     3.144665     3.138846     3.133028
      3.127209     3.121391     3.115572     3.109753     3.103935     3.098116     3.092298     3.086479     3.080660     3.074842
      3.069023     3.063205     3.057386     3.051567     3.045749     3.039930     3.034111     3.028293     3.022474     3.016656
      3.010837     3.005018     2.999200     2.993381     2.987563     2.981744     2.975925     2.970107     2.964288     2.958470
      2.952651     2.946832     2.941014     2.935195     2.929377     2.923558     2.917739     2.911921     2.906102     2.900284
      2.894465     2.888646     2.882828     2.877009     2.871191     2.865372     2.859553     2.853735     2.847916     2.842098
      2.836279     2.830460     2.824642     2.818823     2.813004     2.807186     2.801367     2.795549     2.789730     2.783911
      2.778093     2.772274     2.766456     2.760637     2.754818     2.749000     2.743181     2.737363     2.731544     2.725725
      2.719907     2.714088     2.708270     2.702451     2.696632     2.690814     2.684995     2.679177     2.673358     2.667539
      2.661721     2.655902     2.650084     2.644265     2.638446     2.632628     2.626809     2.620991     2.615172     2.609353
      2.603535     2.597716     2.591897     2.586079     2.580260     2.574442     2.568623     2.562804     2.556986     2.551167
      2.545349     2.539530     2.533711     2.527893     2.522074     2.516256     2.510437     2.504618     2.498800     2.492981
      2.487163     2.481344     2.475525     2.469707     2.463888     2.458070     2.452251     2.446432     2.440614     2.434795
      2.428977     2.423158     2.417339     2.411521     2.405702     2.399884     2.394065     2.388246     2.382428     2.376609
      2.370790     2.364972     2.359153     2.353335     2.347516     2.341697     2.335879     2.330060     2.324242     2.318423
      2.312604     2.306786     2.300967     2.295149     2.289330     2.283511     2.277693     2.271874     2.266056     2.260237
      2.254418     2.248600     2.242781     2.236963     2.231144     2.225325     2.219507     2.213688     2.207870     2.202051
      2.196232     2.190414     2.184595     2.178777     2.172958     2.167139     2.161321     2.155502     2.149683     2.143865
      2.138046     2.132228     2.126409     2.120590     2.114772     2.108953     2.103135     2.097316     2.091497     2.085679
      2.079860     2.074042     2.068223     2.062404     2.056586     2.050767     2.044949     2.039130     2.033311     2.027493
      2.021674     2.015856     2.010037     2.004218     1.998400     1.992581     1.986763     1.980944     1.975126     1.969307
      1.963489     1.957670     1.951852     1.946033     1.940215     1.934397     1.928578     1.922760     1.916941     1.911123
      1.905304     1.899486     1.893667     1.887849     1.882030     1.876212     1.870393     1.864575     1.858756     1.852938
      1.847119     1.841301     1.835482     1.829664     1.823845     1.818027     1.812208     1.806390     1.800571     1.794753
      1.788934     1.783116     1.777297     1.771479     1.765660     1.759842     1.754023     1.748205     1.742386     1.736568
      1.730749     1.724931     1.719113     1.713294     1.707476     1.701657     1.695839     1.690020     1.684202     1.678383
      1.672565     1.666746     1.660928     1.655109     1.649291     1.643472     1.637654     1.631835     1.626017     1.620198
      1.614380     1.608561     1.602743     1.596924     1.591106     1.585287     1.579469     1.573650     1.567832     1.562013
      1.556195     1.550376     1.544558     1.538739     1.532921     1.527102     1.521284     1.515465     1.509647     1.503829
      1.498010     1.492192     1.486373     1.480555     1.474736     1.468918     1.463099     1.457281     1.451462     1.445644
      1.439825     1.434007     1.428188     1.422370     1.416551     1.410733     1.404914     1.399096     1.393277     1.387459
      1.381640     1.375822     1.370003     1.364185     1.358366     1.352548     1.346729     1.340911     1.335092     1.329274
      1.323455     1.317637     1.311818     1.306000     1.300182     1.294363     1.288545     1.282726     1.276908     1.271089
      1.265271     1.259452     1.253634     1.247815     1.241997     1.236178     1.230360     1.224541     1.218723     1.212904
      1.207086     1.201267     1.195449     1.189630     1.183812     1.177993     1.172175     1.166356     1.160538     1.154719
      1.148901     1.143082     1.137264     1.131445     1.125627     1.119808     1.113990     1.108171     1.102353     1.096534
      1.090716     1.084898     1.079079     1.073261     1.067442     1.061624     1.055805     1.049987     1.044168     1.038350
      1.032531     1.026713     1.020894     1.015076     1.009257     1.003439     0.997620     0.991802     0.985983     0.980165
      0.974346     0.968528     0.962709     0.956891     0.951072     0.945254     0.939435     0.933617     0.927798     0.921980
      0.916161     0.910343     0.904524     0.898706     0.892887     0.887069     0.881251     0.875432     0.869614     0.863795
      0.857977     0.852158     0.846340     0.840521     0.834703     0.828884     0.823066     0.817247     0.811429     0.805610
      0.799792     0.793973     0.788155     0.782336     0.776518     0.770699     0.764881     0.759062     0.753244     0.747425
      0.741607     0.735788     0.729970     0.724151     0.718333     0.712514     0.706696     0.700877     0.695059     0.689240
      0.683422     0.677603     0.671785     0.665967     0.660148     0.654330     0.648511     0.642693     0.636874     0.631056
      0.625237     0.619419     0.613600     0.607782     0.601963     0.596145     0.590326     0.584508     0.578689     0.572871
      0.567052     0.561234     0.555415     0.549597     0.543778     0.537960     0.532141     0.526323     0.520504     0.514686
      0.508867     0.503049     0.497230     0.491412     0.485593     0.479775     0.473956     0.468138     0.462319     0.456501
      0.450682     0.444864     0.439045     0.433227     0.427408     0.421590     0.415771     0.409953     0.404134     0.398316
      0.392497     0.386679     0.380860     0.375042     0.369223     0.363405     0.357586     0.351767     0.345949     0.340130
      0.334312     0.328493     0.322675     0.316856     0.311038     0.305219     0.299401     0.293582     0.287764     0.281945
      0.276127     0.270308     0.264490     0.258671     0.252853     0.247034     0.241216     0.235397     0.229579     0.223760
      0.217942     0.212123     0.206305     0.200486
 NY phased data points follow
  -2.03129E-01 -3.02929E-01  3.16346E-01 -8.30829E-02  3.19539E-02  2.16195E-01 -5.60777E-01  5.95571E-02  2.87969E-01  3.50150E-01
   9.70680E-02  3.14501E-01  6.50470E-01  3.12011E-01  2.85695E-01  2.75180E-01  7.30099E-02 -8.78309E-02  4.50931E-01 -6.84877E-02
  -3.20214E-01 -1.83684E-01 -2.74706E-02  2.79449E-01 -1.17991E-01  3.99911E-01 -2.82741E-01 -3.76023E-01  1.72660E-01 -3.56478E-01
   2.09411E-02 -2.18569E-04 -4.58196E-02 -3.14464E-02 -4.10922E-01 -4.61573E-01 -1.50442E-01 -4.03766E-01 -5.41898E-01 -1.30053E-02
  -1.28848E-02  7.21297E-02  2.07079E-01  3.49837E-01  4.34055E-01  1.84513E-01  3.40159E-01  1.70914E-01 -1.05695E-01  1.03289E-01
   5.35786E-02  3.04022E-03  7.68740E-02  2.09861E-01 -1.57899E-01 -1.05223E-01  1.55110E-01 -1.98749E-01 -2.50670E-01 -4.26139E-01
  -3.33921E-01 -2.18739E-01 -2.98971E-01 -2.38162E-02  1.24604E-01  1.38977E-01  2.39643E-01  2.82536E-01  5.67340E-01  2.11450E-01
  -6.16794E-02  1.53310E-01 -1.21017E-01 -9.77107E-02  7.23330E-02  2.67843E-02 -8.42984E-02 -3.83460E-02 -4.41034E-01 -2.17972E-01
  -2.16137E-01 -1.55731E-01  3.35643E-01  3.33799E-01  6.34385E-01  4.81551E-01  5.29302E-01  1.59924E-01  3.37228E-01  1.37748E-01
  -1.81647E-01  3.62711E-01  4.59985E-02 -4.05450E-02  1.98442E-01  1.52708E-01 -3.10072E-01 -2.76949E-01 -2.49303E-01 -9.91329E-02
  -9.51962E-02 -2.60544E-01  7.96237E-02  2.51872E-01  3.22905E-01  3.28057E-01  2.62000E-01  2.93151E-01  1.80368E-01  8.75551E-02
   4.06452E-01  3.08986E-01  1.51220E-01  1.41262E-01  3.06057E-01  2.97112E-02  6.98139E-02  3.54952E-01  1.04471E-01  2.27997E-01
  -3.76675E-02  3.56236E-02  5.28135E-02 -4.23503E-01 -1.20633E-01  2.35489E-04 -3.91855E-02 -1.71098E-03 -6.24086E-01 -4.75226E-01
  -6.09996E-01 -4.51123E-01 -3.46575E-01 -4.73329E-01 -1.38101E-01 -9.28741E-01 -1.02521E+00 -1.00283E+00 -1.66004E-01 -6.04767E-02
  -4.53548E-01 -2.22239E-01 -2.98747E-01  1.79999E-01  2.15200E-02 -3.53468E-02 -1.86422E-01  1.29567E-01  1.91187E-01  9.80978E-02
   3.46571E-01  1.64548E-01  1.36846E-01  9.87861E-02 -1.00263E-01 -1.07545E-01  2.49713E-01  4.03183E-01  2.42136E-01  2.60117E-01
   4.86708E-01  2.06422E-01  4.68719E-01  5.48867E-01  6.14993E-01  6.07997E-01  3.11992E-01 -3.75189E-01 -9.15946E-01 -4.15839E-01
  -9.99959E-01 -6.80681E-01 -1.63204E-01 -1.15604E-01 -4.58465E-01 -5.18577E-01 -6.45758E-02 -2.39740E-01  2.74359E-01 -3.11316E-01
  -4.96375E-01 -1.63673E-01 -1.70281E-01 -1.25027E-01 -2.90534E-01 -4.02341E-01 -3.28022E-01  7.11908E-02 -3.36857E-01 -2.81064E-01
  -2.65807E-01 -9.77331E-02 -2.99710E-01 -5.38421E-01  3.45279E-01  8.07108E-02 -1.76260E-01 -2.07834E-01  4.60895E-02 -2.11648E-01
  -4.43162E-01  1.20138E-01 -2.46920E-02 -5.61391E-02 -1.51170E-01 -2.14890E-02 -1.00251E-01 -1.43285E-01  1.69537E-02  3.16541E-02
  -1.03985E-01 -1.45525E-02 -5.12518E-02 -3.23473E-01  2.15079E-01  1.63461E-01  1.88418E-01  3.41975E-01  3.14478E-01 -3.78743E-02
  -1.70661E-01  7.73274E-02 -1.06250E-01  7.21097E-02  1.09898E-01  2.83159E-01  3.27857E-01  1.70399E-01  1.69403E-01  3.02698E-01
   2.63327E-01  3.55757E-01  3.20790E-01 -3.57431E-01 -4.18356E-01 -9.70434E-02 -1.60901E-01 -1.21497E-01 -1.69910E-01 -1.93516E-01
   1.70155E-01 -1.07472E-01  6.38537E-03  1.65326E-01 -1.47239E-01 -8.89463E-02  1.20352E-01  2.63023E-02 -1.62378E-02  2.01176E-01
  -9.64772E-02  2.66439E-01  2.56697E-01 -2.84305E-01 -1.42059E-01 -9.04140E-02 -1.96300E-01  1.25839E-02  5.46683E-02 -2.59056E-01
  -2.00461E-01  8.07869E-02  4.37938E-04 -4.22312E-01 -1.12960E-01  2.00752E-01  1.08443E-01  4.90895E-02  1.34039E-01  3.51634E-01
   1.39164E-01 -8.61316E-02 -2.24672E-02 -1.58867E-01 -1.91578E-01  1.75679E-01  6.72078E-02 -3.38129E-01 -2.79379E-01  1.13680E-01
  -1.08450E-03 -2.75988E-01 -2.94026E-01  4.53535E-02  2.33253E-01  4.12077E-01  1.04123E+00  7.32363E-01  4.30849E-01  3.44230E-01
  -4.20811E-03  2.69048E-02  5.81647E-02  3.69595E-01  4.09525E-01 -3.59699E-02  1.82182E-01  2.66695E-01 -1.63665E-02  2.44265E-01
   4.71466E-01 -1.51926E-01 -7.05786E-02  5.02381E-01  1.57908E-01  1.30456E-01  2.81170E-01  4.82221E-01  1.98836E-01  2.09471E-01
   2.95576E-01  1.61377E-01  1.94534E-01 -6.49891E-02  2.89994E-01  2.79697E-02  8.55831E-02  8.24513E-02 -1.72129E-01  7.97045E-02
  -2.09407E-01 -5.13339E-01 -3.68686E-01 -1.72731E-01 -4.29276E-01 -1.59571E-01  2.40699E-01  3.35748E-01  2.89288E-01  9.46953E-02
  -9.19634E-02  5.31659E-02 -9.18531E-03 -6.49145E-02  1.73326E-02 -2.85565E-01 -3.15128E-02 -2.64998E-01 -4.88768E-01 -1.70121E-01
  -3.49440E-01 -1.10743E+00 -1.39561E+00 -1.14798E+00 -6.57209E-01 -8.33363E-02 -2.83587E-01  1.47388E-01  2.56731E-01 -9.31965E-02
   7.85529E-02  5.29161E-02 -3.23818E-02 -7.57776E-02  8.84067E-02  1.96899E-01  3.13722E-01 -8.05433E-03  2.74389E-01  4.27114E-01
   8.44597E-03  2.90168E-01 -5.89986E-02 -1.92971E-01  6.96717E-02  1.13985E-01 -1.09688E-01  3.63306E-01  2.05773E-01 -2.16850E-01
   7.09193E-02 -3.52912E-01  3.37159E-01  8.28314E-02  2.14667E-01  2.06586E-01 -1.10308E-01  1.59936E-01 -2.56644E-01  4.14924E-01
  -1.78603E-01 -5.74805E-02  1.15844E-01  9.60950E-02  3.01827E-01  1.09783E-01  3.71671E-01  9.26438E-02  2.66941E-01 -8.80030E-02
  -7.97081E-02 -1.02665E-01  1.86944E-01  2.36272E-01 -1.06291E-01  1.38329E-01  1.78018E-01 -3.35129E-03 -2.60761E-01  5.16393E-02
  -2.66118E-01 -2.41854E-01 -2.40981E-01 -4.92997E-02  1.06482E-01 -1.37641E-01 -1.96548E-01 -2.95512E-01 -3.75883E-02 -3.38647E-01
  -5.51106E-02  1.18034E-01 -4.53224E-02  5.18813E-02 -6.87247E-03 -4.62606E-02 -3.91370E-02  5.70619E-03 -8.45142E-02  1.70569E-01
   1.72667E-01  9.17086E-02 -3.02637E-01 -7.13321E-01 -4.09159E-02 -2.99949E-01 -5.52943E-01  1.05848E-01  1.63425E-01 -6.18942E-02
  -1.76800E-02  3.67309E-01 -1.20443E-01 -2.63978E-02  1.12657E-01 -2.04719E-01 -2.29798E-01 -2.66631E-01  3.16541E-01  1.07197E-01
  -2.05713E-03  2.76097E-01  2.60425E-01 -4.37235E-02  2.96256E-01  1.88792E-01 -1.24072E-01  2.58515E-01 -4.19442E-02 -3.62649E-02
  -1.15319E-01  3.32341E-01  3.19887E-01 -1.25985E-01  1.75315E-01  2.79788E-01 -4.29557E-01 -4.84358E-01  3.19850E-01  1.92537E-01
   4.56696E-02  2.20489E-01  4.90050E-01 -9.31499E-02 -4.98851E-01 -4.18409E-02 -1.17255E-01 -6.13804E-01 -1.82025E-01 -1.24166E-01
  -1.98811E-01  1.28406E-01 -1.33961E-01  8.91658E-02 -1.32474E-01  2.24812E-01  3.02305E-02 -2.32134E-01  4.22340E-02 -1.54753E-02
   5.27310E-02  1.82985E-02  2.14987E-01 -2.89464E-01  9.61353E-02 -3.33628E-03  2.26201E-01  4.97869E-01  2.83739E-02  2.66209E-01
  -1.67217E-01  1.45236E-01 -4.55177E-02  1.48886E-01  2.99042E-01 -2.80198E-01  1.11857E-01 -8.31452E-03 -4.86543E-02 -1.31564E-01
  -7.04321E-02  2.71328E-02 -1.11163E-01 -3.74379E-02  2.77140E-01  2.14936E-01  4.39717E-02  2.33308E-01  1.22588E-02  1.10951E-01
  -3.88100E-01  1.11596E-01  1.31530E-01 -5.14707E-01  3.14674E-01  2.87797E-01  3.07581E-01 -2.13218E-01 -7.55842E-02  6.81121E-03
  -1.27690E-01 -1.32078E-01 -5.46452E-01  2.29360E-01  4.76706E-02 -1.45938E-01 -2.18814E-01 -3.00285E-01 -2.87188E-01 -1.98587E-01
   4.54985E-02 -3.07157E-01 -1.13797E-01 -5.09409E-02 -2.06790E-01  1.63483E-01 -1.97185E-02 -1.97501E-01  1.46677E-01 -2.66551E-01
  -3.15890E-01 -3.24990E-01 -1.92965E-02 -1.24222E-01 -3.80894E-01  2.06195E-01 -2.43173E-02 -1.40803E-01 -3.72474E-01  1.35092E-01
   3.74946E-01 -6.41767E-02  1.91515E-01  1.15150E-01 -1.88176E-02  2.46768E-01  1.41019E-01  4.41340E-02  3.66207E-01  2.20489E-01
   2.37693E-01  2.75801E-02  1.92460E-01  2.03031E-01 -1.83909E-01  5.62449E-02  5.07465E-02 -6.17066E-02 -6.38427E-02  9.58277E-02
  -1.99027E-01 -1.06662E-01  3.49423E-02 -2.08007E-01  1.16346E-01 -7.39579E-03 -2.61240E-01 -6.08059E-02  2.56433E-02 -1.07904E-02
   2.73192E-02  8.20102E-02 -8.13699E-02  3.65602E-02  1.12474E-01 -8.81549E-02  1.21502E-01  1.04271E-01  9.55221E-02 -1.99010E-01
  -2.10402E-01 -3.67225E-02 -3.59925E-02  3.57446E-01 -8.34465E-02  1.59215E-01  4.69120E-01 -2.60834E-02  1.37518E-01  4.89762E-01
   1.71063E-01 -2.11480E-01  3.13590E-03  5.29673E-03 -7.51847E-03 -5.17198E-02 -1.18552E-01  1.08793E-01  2.73787E-01 -2.52995E-01
  -5.34397E-02  2.18765E-01 -3.00251E-01  6.93161E-03  1.67737E-01  2.37566E-01 -4.43019E-02 -1.60679E-01  2.00995E-01  2.25907E-01
   3.33962E-02 -1.05996E-01  3.12059E-01  2.38566E-01 -2.78879E-01 -1.79498E-01  1.63127E-01 -4.30482E-02  4.42349E-02 -8.75558E-02
  -2.87961E-01  1.61042E-01  1.76620E-01  2.68873E-01  2.63541E-01 -1.53072E-02  1.24845E-01  1.40959E-01 -5.35812E-02  1.05135E-01
   5.10128E-02 -2.70237E-02 -1.09059E-01 -1.27192E-01  7.56222E-02 -2.45800E-02  1.67363E-01  1.10972E-01 -3.75880E-01  6.72317E-02
   4.48573E-01  1.57181E-01  8.36461E-02 -1.72744E-01
 NY points of the fit to the data follow
   8.07327E-02  5.72814E-02  3.61323E-02  2.31297E-02  2.03330E-02  2.44941E-02  3.20670E-02  5.70220E-02  9.03145E-02  1.47504E-01
   2.75055E-01  4.25316E-01  4.90440E-01  4.42249E-01  3.41690E-01  2.37940E-01  1.35304E-01  5.73378E-02  1.70442E-02 -1.04796E-02
  -2.55280E-02 -2.95094E-02 -3.83234E-02 -5.14505E-02 -6.41432E-02 -7.47884E-02 -8.29511E-02 -8.93371E-02 -9.56884E-02 -1.02728E-01
  -1.10348E-01 -1.19953E-01 -1.34207E-01 -1.53823E-01 -1.76499E-01 -1.99106E-01 -2.11999E-01 -2.11453E-01 -1.72281E-01 -8.95575E-02
   2.65773E-02  1.47067E-01  2.47791E-01  3.10680E-01  3.28794E-01  3.01940E-01  2.46684E-01  1.85101E-01  1.37652E-01  1.03706E-01
   7.25454E-02  4.24997E-02  1.07562E-02 -2.47308E-02 -6.47580E-02 -1.06406E-01 -1.53098E-01 -2.06860E-01 -2.51010E-01 -2.89751E-01
  -3.04175E-01 -2.42960E-01 -1.60327E-01 -9.81008E-02 -1.27574E-02  1.07838E-01  2.20517E-01  2.89878E-01  3.33351E-01  3.40506E-01
   2.77108E-01  1.95147E-01  1.24128E-01  4.88587E-02 -2.27255E-02 -9.33296E-02 -1.75080E-01 -2.89977E-01 -3.74252E-01 -3.27520E-01
  -1.70247E-01  9.27918E-03  1.73255E-01  3.19273E-01  4.05057E-01  3.99773E-01  3.50637E-01  2.90708E-01  2.29599E-01  1.93196E-01
   1.74395E-01  1.54300E-01  1.27726E-01  8.80911E-02  3.69686E-02 -4.69747E-02 -1.51091E-01 -2.62093E-01 -3.36863E-01 -3.26526E-01
  -2.15614E-01 -3.72132E-02  1.39912E-01  2.54529E-01  2.97487E-01  2.84076E-01  2.54206E-01  2.33043E-01  2.19863E-01  2.17281E-01
   2.15764E-01  2.13853E-01  2.11411E-01  2.08750E-01  2.06556E-01  2.05379E-01  2.04115E-01  1.95764E-01  1.86169E-01  1.64515E-01
   1.07852E-01  5.06596E-02  4.79808E-03 -5.89738E-02 -1.13669E-01 -1.61369E-01 -2.04873E-01 -2.92918E-01 -4.06173E-01 -4.69126E-01
  -4.54412E-01 -3.97885E-01 -2.81417E-01 -2.48731E-01 -4.58887E-01 -8.17963E-01 -9.98206E-01 -8.31414E-01 -4.94511E-01 -2.01383E-01
  -1.80853E-02  3.51705E-02  1.71141E-02  1.93420E-02  3.35295E-02  4.90829E-02  6.40132E-02  7.77061E-02  9.00096E-02  1.01246E-01
   1.12135E-01  1.23019E-01  1.34313E-01  1.46623E-01  1.60421E-01  1.75991E-01  1.93972E-01  2.14530E-01  2.38128E-01  2.67396E-01
   3.08354E-01  3.70556E-01  4.53404E-01  5.01644E-01  5.71293E-01  5.57364E-01  2.40526E-01 -3.23601E-01 -7.76105E-01 -8.70884E-01
  -7.07514E-01 -4.92118E-01 -3.12750E-01 -2.42388E-01 -2.47070E-01 -2.35821E-01 -2.18273E-01 -2.03589E-01 -1.93060E-01 -1.82789E-01
  -1.72104E-01 -1.61481E-01 -1.52546E-01 -1.45176E-01 -1.38879E-01 -1.32756E-01 -1.25741E-01 -1.18317E-01 -1.11630E-01 -1.05612E-01
  -9.96317E-02 -9.37066E-02 -8.77276E-02 -8.17233E-02 -7.59054E-02 -7.05633E-02 -6.54240E-02 -5.99269E-02 -5.45860E-02 -4.95499E-02
  -4.39904E-02 -3.89214E-02 -3.65679E-02 -3.78075E-02 -3.96517E-02 -3.78762E-02 -3.37374E-02 -3.24386E-02 -3.64154E-02 -4.27035E-02
  -4.61366E-02 -4.53538E-02 -4.18149E-02 -3.74650E-02 -3.42502E-02 -3.21578E-02 -3.09159E-02 -3.06212E-02 -3.05600E-02 -2.89500E-02
  -1.95891E-02 -4.18233E-03  2.05737E-02  6.75041E-02  1.30100E-01  1.76140E-01  1.74711E-01  1.46348E-01  1.54479E-01  2.04285E-01
   2.31490E-01  1.86599E-01  9.08998E-02  1.88973E-03 -5.18560E-02 -6.92408E-02 -6.37181E-02 -5.92152E-02 -6.21943E-02 -6.70408E-02
  -7.24149E-02 -7.71916E-02 -8.05313E-02 -8.33144E-02 -8.59879E-02 -8.89465E-02 -9.20858E-02 -9.52678E-02 -9.93684E-02 -1.05168E-01
  -1.14087E-01 -1.27740E-01 -1.36828E-01 -1.49261E-01 -1.53750E-01 -1.18968E-01 -6.56731E-02 -2.58528E-02 -2.26073E-03  2.82036E-02
   6.02990E-02  6.07824E-02  5.05479E-02  4.78972E-02  4.92771E-02  5.63428E-02  6.39704E-02  7.21876E-02  7.84874E-02  7.48721E-02
   6.05383E-02  3.02173E-02 -7.53151E-03 -4.61880E-02 -8.32488E-02 -1.17687E-01 -1.59497E-01 -2.04976E-01 -2.62174E-01 -3.24768E-01
  -3.62636E-01 -3.51786E-01 -2.59475E-01 -8.91380E-02  1.13497E-01  2.93879E-01  4.03115E-01  4.28591E-01  3.85070E-01  3.05977E-01
   2.39721E-01  1.94193E-01  1.67263E-01  1.59337E-01  1.58673E-01  1.62191E-01  1.65982E-01  1.65690E-01  1.62061E-01  1.55552E-01
   1.48941E-01  1.43532E-01  1.38508E-01  1.34301E-01  1.29853E-01  1.24693E-01  1.18450E-01  1.10384E-01  1.00325E-01  8.79426E-02
   7.39693E-02  5.74191E-02  3.75026E-02  1.41680E-02 -1.72300E-02 -5.79753E-02 -1.11322E-01 -1.66524E-01 -2.20771E-01 -2.67498E-01
  -2.99524E-01 -3.09095E-01 -2.93393E-01 -2.50374E-01 -1.81921E-01 -9.77224E-02 -1.66039E-02  3.87487E-02  5.48307E-02  3.24235E-02
  -1.72026E-02 -7.19581E-02 -1.19361E-01 -1.46104E-01 -1.54630E-01 -1.49050E-01 -1.30775E-01 -1.35000E-01 -1.83341E-01 -2.73555E-01
  -5.48380E-01 -1.00036E+00 -1.31087E+00 -1.19440E+00 -7.51315E-01 -3.08798E-01 -3.66462E-02  6.37834E-02  3.65086E-02 -3.38944E-03
  -2.39855E-03  3.71807E-03  9.62599E-03  1.42023E-02  1.81994E-02  2.11904E-02  2.27308E-02  2.24131E-02  1.95722E-02  1.51716E-02
   9.75197E-03  4.71893E-03  8.56279E-04 -1.03581E-03  1.94852E-04  4.50533E-03  1.06766E-02  1.74464E-02  2.32498E-02  2.81714E-02
   3.23691E-02  3.63205E-02  4.02116E-02  4.32744E-02  4.54255E-02  4.71918E-02  4.91658E-02  5.15320E-02  5.39640E-02  5.60613E-02
   5.76578E-02  5.91723E-02  6.10321E-02  6.30147E-02  6.48034E-02  6.58416E-02  6.64043E-02  6.72793E-02  6.89720E-02  7.13664E-02
   7.38622E-02  7.56219E-02  7.60523E-02  7.48543E-02  7.26794E-02  7.03739E-02  6.82736E-02  6.61822E-02  6.35200E-02  5.99164E-02
   5.56033E-02  5.09677E-02  4.61040E-02  4.09218E-02  3.60082E-02  3.19328E-02  2.81561E-02  2.42158E-02  2.03518E-02  1.67408E-02
   1.35385E-02  1.09098E-02  8.78211E-03  6.86994E-03  4.89044E-03  2.92778E-03  9.37503E-04 -1.01453E-03 -2.50905E-03 -3.56040E-03
  -4.47806E-03 -5.02635E-03 -4.80047E-03 -3.71051E-03 -2.02897E-03  3.03574E-04  3.16273E-03  6.27521E-03  9.67451E-03  1.30008E-02
   1.53724E-02  1.65917E-02  1.79274E-02  2.07399E-02  2.53178E-02  3.09269E-02  3.65089E-02  4.14289E-02  4.63771E-02  5.21486E-02
   5.89647E-02  6.66208E-02  7.45388E-02  8.22722E-02  8.97642E-02  9.71327E-02  1.04016E-01  1.09709E-01  1.13666E-01  1.15637E-01
   1.15935E-01  1.15159E-01  1.13686E-01  1.11525E-01  1.08463E-01  1.04238E-01  9.91236E-02  9.26876E-02  8.87425E-02  8.92406E-02
   9.27851E-02  9.55164E-02  9.24259E-02  8.19552E-02  6.71453E-02  5.31822E-02  4.36696E-02  3.73010E-02  3.29113E-02  2.99361E-02
   2.68880E-02  2.41963E-02  2.19489E-02  2.05355E-02  2.04926E-02  2.16744E-02  2.35604E-02  2.58818E-02  2.85305E-02  3.13595E-02
   3.46317E-02  3.85083E-02  4.24357E-02  4.56125E-02  4.78871E-02  4.94026E-02  5.02475E-02  5.10829E-02  5.26230E-02  5.44076E-02
   5.55678E-02  5.54396E-02  5.42050E-02  5.25244E-02  5.05676E-02  4.82357E-02  4.55175E-02  4.29568E-02  4.08493E-02  3.87419E-02
   3.64180E-02  3.40030E-02  3.14840E-02  2.89058E-02  2.62209E-02  2.33216E-02  2.05156E-02  1.83680E-02  1.68704E-02  1.52452E-02
   1.29708E-02  1.01853E-02  6.95475E-03  2.88642E-03 -2.05560E-03 -7.48287E-03 -1.31173E-02 -1.92268E-02 -2.63031E-02 -3.51684E-02
  -4.61596E-02 -5.84008E-02 -7.04965E-02 -8.18391E-02 -9.25002E-02 -1.02466E-01 -1.11355E-01 -1.19152E-01 -1.26082E-01 -1.31647E-01
  -1.34762E-01 -1.35150E-01 -1.33869E-01 -1.31761E-01 -1.28437E-01 -1.23609E-01 -1.18031E-01 -1.12508E-01 -1.07455E-01 -1.03107E-01
  -9.87185E-02 -9.34479E-02 -8.71948E-02 -8.03650E-02 -7.32281E-02 -6.56846E-02 -5.82243E-02 -5.10811E-02 -4.41635E-02 -3.76893E-02
  -3.16022E-02 -2.54905E-02 -1.95308E-02 -1.41766E-02 -9.80530E-03 -5.60563E-03 -1.01947E-03  3.12836E-03  6.25706E-03  8.69332E-03
   1.10924E-02  1.35223E-02  1.56232E-02  1.72961E-02  1.84411E-02  1.92658E-02  2.03257E-02  2.12098E-02  2.15971E-02  2.21401E-02
   2.32580E-02  2.47240E-02  2.63390E-02  2.80856E-02  2.93522E-02  2.97448E-02  2.97677E-02  2.96934E-02  2.95136E-02  2.94663E-02
   2.94511E-02  2.93254E-02  2.92148E-02  2.92351E-02  2.93417E-02  2.94981E-02  2.99702E-02  3.07846E-02  3.11402E-02  3.01135E-02
   2.80866E-02  2.67301E-02  2.70231E-02  2.79252E-02  2.84360E-02  2.87069E-02  2.85513E-02  2.77682E-02  2.67170E-02  2.62365E-02
   2.68212E-02  2.80829E-02  2.93109E-02  3.01321E-02  3.06674E-02  3.14073E-02  3.22530E-02  3.30105E-02  3.35969E-02  3.42609E-02
   3.47616E-02  3.44831E-02  3.36589E-02  3.31763E-02  3.34833E-02  3.44837E-02  3.56840E-02  3.69512E-02  3.79156E-02  3.81849E-02
   3.85835E-02  3.98818E-02  4.20175E-02  4.41136E-02  4.49806E-02  4.44236E-02  4.31019E-02  4.23385E-02  4.30155E-02  4.43039E-02
   4.51266E-02  4.52740E-02  4.50596E-02  4.51482E-02  4.58855E-02  4.67353E-02  4.71399E-02  4.75182E-02  4.86860E-02  5.03020E-02
   5.15097E-02  5.22501E-02  5.30261E-02  5.40460E-02  5.52921E-02  5.68315E-02  5.91075E-02  6.23015E-02  6.59154E-02  6.89009E-02
   7.10770E-02  7.27935E-02  7.44518E-02  7.67077E-02
 NY background values follow
     5.366E-02    5.351E-02    5.336E-02    5.321E-02    5.306E-02    5.291E-02    5.276E-02    5.262E-02    5.247E-02    5.232E-02
     5.217E-02    5.202E-02    5.187E-02    5.172E-02    5.157E-02    5.143E-02    5.128E-02    5.113E-02    5.098E-02    5.083E-02
     5.068E-02    5.053E-02    5.038E-02    5.023E-02    5.008E-02    4.994E-02    4.979E-02    4.964E-02    4.949E-02    4.934E-02
     4.919E-02    4.904E-02    4.889E-02    4.874E-02    4.859E-02    4.845E-02    4.830E-02    4.815E-02    4.800E-02    4.785E-02
     4.770E-02    4.755E-02    4.740E-02    4.725E-02    4.710E-02    4.695E-02    4.681E-02    4.666E-02    4.651E-02    4.636E-02
     4.621E-02    4.606E-02    4.591E-02    4.576E-02    4.561E-02    4.546E-02    4.531E-02    4.516E-02    4.502E-02    4.487E-02
     4.472E-02    4.457E-02    4.442E-02    4.427E-02    4.412E-02    4.397E-02    4.382E-02    4.367E-02    4.352E-02    4.337E-02
