 
 $NMID
 ID=''
 FMTDAT='(2E13.5)'
 TRAMP=   1.00000E+0
 VOLUME=   1.00000E+0
 $END
   8.93286E+1  -4.81427E+2
   8.63831E+2   1.48674E+3
  -1.31006E+3  -4.02551E+3
  -3.39352E+2  -1.33232E+3
  -8.18690E+2   4.20888E+2
  -1.91312E+3  -1.68829E+3
  -7.92579E+2   2.44524E+3
  -2.83000E+3   5.23651E+3
  -3.14999E+3   1.78907E+3
   5.49454E+2   3.07618E+3
   2.38097E+3   7.85650E+2
   7.16471E+3  -2.45639E+3
   5.83625E+3   3.00480E+3
   1.72112E+3   1.73214E+3
   5.54217E+2  -1.71646E+3
   2.11419E+3  -2.36614E+3
  -3.27129E+2  -4.71248E+3
   5.14716E+1  -2.11260E+3
  -1.51419E+1  -1.37813E+3
  -3.27284E+3  -2.16757E+3
  -8.66888E+2  -4.93470E+3
   2.42716E+3   1.57407E+3
  -1.26765E+3   3.43086E+3
  -5.13321E+3  -1.79191E+3
  -9.51693E+2  -3.30459E+3
   5.47312E+2   1.95816E+3
   2.65262E+2   3.39074E+3
  -4.80800E+3  -1.76078E+3
  -4.70428E+3  -6.02314E+3
   3.12873E+3  -6.29236E+3
   4.23805E+3   7.56098E+2
  -2.40448E+3   6.41292E+3
  -4.35924E+3  -9.97643E+2
   2.17813E+3  -1.12366E+3
   1.62520E+3   4.89672E+2
  -2.42234E+3  -2.95280E+3
   1.18669E+3  -6.11683E+3
   4.50290E+3  -5.62951E+2
   1.60214E+3   2.72820E+3
   1.36830E+2  -1.19884E+2
  -3.28333E+2   1.12284E+2
  -5.62554E+3  -3.46923E+2
  -3.12805E+3  -5.36345E+3
   4.05903E+3  -6.14982E+3
   3.99436E+3   3.02371E+2
   3.28183E+3   1.83067E+3
   2.16614E+3   1.37078E+3
   2.62182E+3   3.38539E+3
  -4.46814E+2   6.12229E+3
  -8.38640E+2   4.62598E+3
   1.17218E+3  -5.15685E+1
   1.77540E+3   1.07383E+3
   3.94780E+3   4.36557E+3
   8.46901E+2   6.50422E+3
  -4.26545E+2   1.33408E+3
  -2.71591E+3   2.18337E+3
  -4.07466E+3   4.90339E+3
  -5.59548E+3  -1.53146E+3
  -1.30701E+3  -6.12055E+3
   1.05278E+3  -4.30261E+3
   2.45033E+3  -2.25461E+0
   2.44398E+3   1.35897E+3
  -1.57240E+3   2.15937E+3
  -1.91745E+3  -4.24065E+2
   8.76353E+2  -9.49344E+2
   1.40041E+3   1.78932E+3
   1.27142E+2   3.15041E+2
  -9.36887E+2   6.07033E+2
  -1.58546E+3  -2.46638E+3
   2.06715E+2  -1.63495E+2
  -6.27299E+2  -4.35915E+2
  -1.64174E+3   6.39963E+1
   2.64847E+3   6.87705E+2
   6.80744E+2   7.11150E+2
   5.86211E+2  -8.24444E+2
   1.97657E+3   2.74775E+3
   2.42030E+3   6.84402E+1
   1.11458E+3  -1.62712E+2
   5.95695E+2   1.75663E+3
  -9.34503E+0   1.77837E+3
  -4.25423E+3  -1.00730E+3
  -1.15674E+3  -2.51623E+3
  -2.51220E+2   1.43813E+3
  -1.26578E+3   2.58140E+2
  -3.85679E+3  -1.69176E+3
   1.78791E+2  -1.48149E+3
   3.09161E+3  -2.90151E+3
   3.05195E+3  -1.87590E+3
   8.83117E+2   1.17131E+3
   8.55246E+2  -4.07760E+2
   1.75754E+3  -1.18014E+3
   1.19002E+3   2.75111E+2
  -3.24323E+2   1.22604E+3
  -3.41346E+3  -2.23622E+3
  -2.10517E+2  -3.36530E+3
   3.42106E+3  -2.48662E+3
   2.80230E+3   3.25328E+2
  -1.62166E+2   2.56794E+3
  -1.85099E+3  -7.06975E+2
   1.22425E+3  -4.19703E+3
   2.13720E+3  -8.91281E+2
   2.75057E+3   2.43959E+3
  -1.47023E+3   3.95178E+3
  -2.63088E+3  -1.86023E+3
  -8.38580E+2  -4.46873E+3
   6.64031E+2  -1.28266E+3
  -1.73015E+2  -4.60752E+2
   7.38821E+1  -2.90694E+3
  -1.11621E+3  -3.18614E+3
   2.99275E+3   6.21189E+2
   2.98841E+3   3.49353E+3
  -1.15229E+3   8.43922E+2
  -3.89322E+3  -3.85913E+2
  -1.68926E+3   7.29292E+2
  -6.51561E+1  -2.35579E+3
  -1.06853E+3  -2.18375E+3
   1.74390E+2   1.29340E+3
   1.79721E+3   4.11816E+1
   1.23047E+3   5.95357E+2
   2.01148E+3   2.02300E+3
  -7.49499E+2   2.51408E+3
  -1.05757E+3  -1.84780E+3
   8.17208E+2  -1.10626E+3
   1.78398E+3   7.63785E+2
   6.22178E+2  -8.30111E+2
  -1.20424E+3  -3.79069E+2
   2.26593E+3  -1.59705E+3
   6.01518E+2   1.97554E+3
  -2.81229E+3   2.59045E+3
  -1.41832E+3  -2.05038E+3
   2.05404E+3  -1.04980E+3
  -4.05102E+2   3.66361E+2
  -1.56873E+3   3.05521E+3
  -2.52169E+3   8.79042E+2
  -3.19183E+3  -2.93884E+3
  -4.16319E+2  -2.14850E+3
   6.96029E+2   5.36198E+2
  -7.83969E+2   3.45521E+2
   1.67249E+3  -1.63683E+2
  -1.42969E+1  -3.89791E+1
  -9.25470E+2   1.96180E+3
   4.15762E+2   1.15076E+3
  -3.11066E+3   1.20513E+3
  -1.66828E+3  -2.44637E+2
  -2.58372E+3  -3.32836E+2
   9.16942E+2  -3.20964E+2
   3.32264E+2  -7.80920E+2
  -4.66735E+2  -2.19406E+3
   3.01873E+2  -1.67467E+3
  -7.49476E+1  -1.64245E+3
  -9.21764E+2  -1.76166E+3
  -1.07905E+3  -4.77358E+2
   1.27274E+3   3.95883E+2
   1.23841E+3   1.02574E+3
  -9.90917E+2   2.06675E+3
  -2.77341E+3   1.55460E+3
  -1.08602E+3   5.46297E+2
   8.73097E+2  -1.79188E+3
   1.58790E+2   1.11415E+3
  -4.66310E+2  -6.49719E+2
   2.61976E+2   1.14203E+3
  -1.78996E+3  -2.11974E+2
  -7.94797E+2  -9.31937E+2
  -2.88229E+2   6.20195E+2
  -8.86410E+2   1.52176E+3
   2.98167E+2  -6.41856E+2
   4.36317E+1   9.12297E+2
   5.57645E+2   4.85072E+2
   4.29577E+2  -5.90772E+2
  -2.42869E+3  -1.80944E+2
   4.11171E+0  -2.18125E+2
   1.37620E+3  -2.00895E+3
   1.35524E+3  -1.42216E+3
   5.85907E+2   1.65526E+2
  -6.85699E+1  -5.76194E+2
   3.39481E+1  -1.21792E+3
   5.77752E+2   1.84989E+2
  -1.45805E+3   8.90298E+2
  -8.01078E+2  -8.72446E+2
  -2.96751E+2  -2.45630E+3
   7.81778E+2   5.19889E+2
  -4.01299E+2  -7.08073E+2
   1.34882E+3  -1.72225E+3
  -1.64150E+3   4.39430E+2
  -1.47131E+2  -9.30228E+2
  -1.63111E+3   6.11527E+2
  -1.20226E+2  -3.76016E+2
  -3.12260E+2  -4.48442E+2
  -6.63147E+2  -1.02797E+2
   3.90012E+3   5.75568E+1
  -1.01782E+2   2.24364E+3
   6.90189E+2  -1.48327E+2
   3.41463E+2   6.35088E+2
  -3.27923E+2  -7.69871E+2
   1.21621E+3  -1.56884E+3
   5.54636E+2   9.22834E+1
  -6.45799E+2  -1.97519E+3
  -5.09844E+2   3.34612E+2
  -1.17861E+3  -3.61588E+2
  -1.30247E+3  -2.97357E+2
  -5.00594E+2  -1.17379E+3
  -3.99227E+2  -2.05399E+3
  -5.23784E+1  -3.85853E+2
  -1.06414E+2   2.54227E+3
  -1.82752E+3   2.91590E+3
  -2.35417E+3   9.35891E+2
  -1.05225E+3   1.21180E+3
  -1.42298E+3  -2.19643E+2
   9.39060E+1  -7.38009E+2
   3.82573E+2  -2.74557E+2
   3.79393E+2  -1.93464E+2
   1.62273E+2   1.05542E+3
  -6.75944E+2   3.43701E+2
  -1.46675E+3  -3.28959E+2
   1.34290E+3   4.13576E+2
   3.85491E+2   3.99027E+2
   1.77552E+3   4.33533E+2
  -1.47212E+2   1.32146E+3
  -9.41087E+2  -1.22741E+3
  -9.05698E+2   6.50235E+2
  -8.30171E+2   2.65156E+2
   4.00169E+2   1.25768E+3
  -3.02810E+2   7.54705E+2
   4.96110E+2   1.53804E+3
  -1.92563E+3   5.35354E+2
   1.10717E+3   1.06645E+3
  -1.54308E+3   2.50194E+2
  -1.24522E+3   3.43536E+2
  -1.41737E+3  -5.06654E+0
   5.31967E+1  -3.14143E+3
  -5.27190E+2  -2.91952E+2
   1.15632E+2   7.40487E+2
  -2.07549E+3   9.45011E+2
  -1.78284E+3   3.46622E+2
  -2.85561E+2   1.55099E+3
  -1.59527E+2   1.38623E+3
   5.34404E+2  -6.97928E+2
  -2.31179E+3   8.49198E+2
  -2.96374E+2   7.96288E+2
  -6.40245E+2   1.42532E+3
   1.61961E+3  -3.53806E+2
  -7.24238E+1  -3.18879E+2
   1.24693E+3  -7.50972E+2
   3.44034E+2   6.36956E+2
  -1.91415E+3  -9.44431E+2
   1.23375E+3   1.69268E+3
   3.65826E+2   3.05735E+2
  -5.61250E+2   9.28423E+2
  -2.28842E+2   5.62764E+2
   7.23789E+2   9.76123E+2
  -2.05189E+2   2.41441E+3
   1.08801E+3   4.38312E+2
  -1.71801E+3  -5.31263E+1
  -4.64542E+2  -1.76517E+2
  -1.19004E+3   1.69265E+2
  -7.88496E+2   4.72030E+2
  -1.53442E+1  -6.69201E+2
   3.16067E+2  -4.01353E+2
  -5.00896E+2  -1.39993E+2
   1.88544E+3   6.29650E+2
  -6.50765E+2   2.54167E+2
   2.00129E+2  -7.41211E+2
   1.36596E+3  -7.35803E+2
   4.66862E+2   1.02201E+2
  -1.17409E+3   6.35008E+2
   9.76133E+2  -3.29903E+1
   2.38325E+1   3.03063E+3
   4.62002E+2   1.27083E+3
  -5.78003E+2   1.54842E+3
  -1.54838E+3  -1.22257E+3
   2.73048E+2   1.50369E+2
  -5.49332E+2   2.41689E+2
   1.61613E+3  -5.55369E+2
   8.96820E+2  -1.27758E+2
  -9.64392E+2   5.00388E+2
   8.43109E+2   7.42216E+2
  -1.07516E+3   2.08876E+3
  -7.84399E+1  -4.85822E+2
  -1.54349E+3   1.20646E+3
   1.32209E+3  -3.16476E+3
  -8.58203E+2   1.66473E+3
   1.83181E+0  -1.77818E+2
   5.39100E+2   7.04423E+2
   9.84168E+2   1.29427E+3
   6.67915E+1  -1.39863E+3
   2.44444E+2  -1.34259E+2
   1.38276E+3   1.79726E+3
   8.80232E+2  -4.04109E+2
   4.40536E+2   5.33490E+2
  -1.08996E+3  -1.36452E+3
   1.22766E+3  -1.11996E+3
   1.49702E+3   5.36701E+2
   5.15134E+2  -2.46125E+2
   1.38588E+3  -2.49533E+2
   8.70124E+2   5.20284E+2
   1.79816E+3   5.03197E+2
  -1.62418E+3   5.95053E+2
  -6.09853E+2  -8.01322E+2
   7.17683E+2  -6.93861E+1
   4.50858E+2  -2.41671E+2
   4.06243E+2   1.94348E+2
  -5.47659E+2  -7.14429E+1
  -2.29866E+3   7.46508E+2
   2.49322E+2   1.55526E+2
   8.88529E+1  -1.07483E+3
  -1.51525E+3  -3.62164E+2
  -7.08403E+2   2.36800E+2
   5.23327E+2  -7.44153E+2
   4.57356E+2   8.93497E+2
   2.74533E+3  -9.22824E+2
   7.71727E+2   1.72051E+2
  -5.47014E+2   1.75118E+2
   7.70961E+1  -2.96582E+2
  -7.90170E+2   3.59988E+2
   9.54623E+2  -6.66176E+2
   9.54564E+2  -6.10998E+2
  -1.08999E+3  -7.60019E+2
   7.45478E+2  -2.37539E+2
  -9.15250E+2  -1.78585E+3
   2.71744E+2   2.00919E+3
  -2.49614E+2  -8.25370E+2
  -8.64280E+2  -1.06952E+3
   1.62682E+3   1.71698E+2
   3.45733E+1   4.71353E+2
   2.04047E+3  -1.14871E+3
  -8.17579E+2   5.09939E+2
  -4.15908E+2  -3.96554E+2
  -4.49088E+2   3.13967E+3
  -1.87341E+2  -3.07496E+2
   2.69998E+3   1.08348E+3
  -4.30585E+1  -2.24259E+3
  -1.35888E+3   2.14486E+3
   6.16144E+1  -1.45255E+3
   1.37995E+3   7.92539E+1
  -1.13521E+3   7.51201E+2
   3.06673E+2  -3.46281E+2
  -1.22755E+3   1.65542E+3
  -9.43409E+2  -9.67512E+1
   1.67560E+3   3.48159E+2
   1.07161E+3  -2.57027E+3
  -1.57794E+2  -1.28957E+2
  -8.84652E+2   7.83426E+2
  -4.43118E+2   7.57344E+2
   4.81972E+2   1.04645E+3
   5.53820E+2  -6.63881E+2
  -1.38853E+3  -3.32447E+2
  -7.58620E+2  -1.83913E+2
   1.13563E+2   1.59014E+3
   9.20296E+2   3.02909E+2
   1.71611E+3  -1.08284E+3
  -8.76740E+2  -7.27539E+2
  -9.51071E+2   4.76400E+2
   1.22493E+2  -2.01361E+3
  -2.00046E+3   2.93963E+2
   7.60162E+1   1.64467E+2
  -5.10346E+2   1.20539E+3
  -3.00379E+3   1.01255E+2
  -3.25999E+2   9.07151E+2
   1.96401E+2   1.11766E+3
   1.06026E+1  -2.19703E+3
  -2.58728E+2  -7.78232E+2
   8.04238E+2   1.36584E+3
  -2.18680E+2   1.28710E+3
  -4.04544E+2  -4.54433E+1
  -4.25367E+2  -9.42153E+2
  -1.59711E+3  -1.56060E+3
  -3.25693E+2  -9.27641E+2
