 
 $NMID
 ID=''
 FMTDAT='(2E13.5)'
 TRAMP=   1.00000E+0
 VOLUME=   1.00000E+0
 $END
   4.80385E+2  -3.09444E+2
  -7.02988E+1   1.55710E+3
   6.53328E+2  -5.56997E+3
  -1.59007E+3   1.42438E+2
  -1.98983E+3   1.64509E+3
   2.17600E+3   1.34743E+3
   3.27349E+1   2.64909E+3
  -7.75076E+2   4.63180E+2
   1.01895E+2  -4.74324E+3
  -2.12515E+3  -4.69379E+3
   7.61578E+2  -1.26301E+3
   1.90405E+3   1.07164E+3
  -2.49099E+3   6.46325E+3
  -5.48304E+3   1.48423E+3
  -1.66798E+3   7.48567E+0
   1.56564E+3  -1.14099E+3
   3.73128E+3   7.70139E+2
  -6.73957E+2   2.09470E+3
  -1.95032E+3   7.19873E+2
  -1.45723E+3  -1.17531E+3
   2.47586E+2  -4.31789E+2
   7.76619E+2   6.10581E+3
  -1.71234E+3   4.03782E+3
  -6.05797E+2  -5.35819E+1
   4.68531E+3  -7.60877E+2
   2.05742E+3   4.67053E+3
  -3.84473E+3   1.61579E+3
  -2.12075E+3  -2.51024E+3
   3.56956E+3  -2.23163E+3
   4.82913E+3   1.17355E+3
   3.93332E+3   3.11102E+3
  -2.33302E+3   4.83749E+3
  -1.61136E+3  -9.85438E+2
   1.16107E+3  -2.89649E+3
  -1.76371E+2   5.87699E+2
  -1.88163E+3  -3.00741E+3
   3.28869E+3  -4.77464E+3
   4.73585E+3   1.05804E+3
   1.48515E+3   1.58412E+3
  -1.49021E+3   2.45848E+3
  -3.70998E+3   1.21462E+3
  -4.83675E+3  -2.97830E+3
  -1.56390E+2  -8.54494E+3
   4.29512E+3  -5.60081E+3
   4.92582E+3  -1.21314E+3
  -4.89646E+2  -1.51304E+3
   6.35696E+2  -3.38794E+2
  -2.15986E+3   5.54783E+2
  -2.52311E+3   4.36674E+2
  -2.44877E+3   3.55884E+2
  -3.52964E+3  -1.37379E+3
   6.60441E+2  -3.03965E+3
   3.71009E+3  -1.60611E+2
   1.49509E+3   2.94218E+3
   8.36099E+2  -6.84109E+2
  -2.21315E+3   4.48080E+2
  -7.61291E+2  -6.22487E+2
  -2.46779E+3  -4.65322E+3
  -1.47240E+2  -6.39756E+3
   4.74279E+3  -5.11617E+3
   5.50224E+3  -1.88160E+3
   2.92785E+3   1.38927E+3
  -3.79228E+2   5.33611E+2
  -1.12404E+3  -1.54750E+3
   1.43815E+3   2.68610E+2
   2.61886E+3   2.18404E+3
  -1.75052E+3   2.81235E+3
  -3.02201E+3  -7.60745E+1
   1.37764E+2  -4.39140E+3
   1.28642E+3   2.61642E+2
   5.28650E+2   9.40061E+1
  -1.55178E+3  -1.01855E+3
   1.78495E+2  -1.47245E+2
   1.12898E+3  -1.85737E+3
   5.50433E+2  -5.80963E+2
  -5.28005E+2   5.39342E+2
   5.02267E+2   5.46916E+2
   1.82798E+3  -3.73368E+3
   9.44104E+2   1.49255E+3
   1.81582E+3   2.56049E+3
  -5.22525E+2  -5.08548E+2
  -1.03343E+3  -2.04082E+3
  -1.11067E+3  -7.45175E+2
  -2.06154E+3   1.23344E+3
  -1.56084E+3   5.60742E+2
  -2.71936E+3  -3.47686E+3
   9.62060E+2  -4.04718E+3
   3.56654E+3  -2.37934E+3
   1.57119E+3   2.33816E+3
  -1.45538E+2   6.23756E+2
  -5.68541E+2   2.55612E+2
   1.30492E+3   2.45498E+3
   7.17162E+1   1.49414E+3
  -3.74390E+3   1.16225E+3
  -2.21987E+3  -1.22771E+2
   2.91395E+3   5.11244E+2
   3.22278E+3  -7.60617E+1
   5.09016E+2   1.04762E+3
  -3.49505E+3   2.07544E+2
  -8.31819E+2  -3.79659E+3
   2.34388E+3  -3.14611E+3
   2.74911E+3   1.81693E+3
  -1.11597E+3   2.99712E+3
  -2.15461E+3   1.97695E+3
  -1.33576E+3  -1.58493E+3
  -1.70971E+3  -2.67324E+3
  -6.31599E+2  -2.59138E+2
  -2.04391E+3  -1.42571E+2
   1.44285E+2  -1.40645E+3
   3.14351E+3  -5.11042E+2
   4.55426E+3   3.81644E+3
   1.73585E+3   3.91335E+3
   6.97966E+2   3.61291E+3
  -1.97744E+3   2.38656E+3
  -1.31747E+3  -7.03239E+2
   1.12445E+2  -3.47357E+3
   5.11915E+2  -1.16148E+3
   2.37025E+3  -7.95130E+2
   2.83923E+3   1.47350E+3
   1.34912E+3   6.88881E+1
  -2.62578E+3   1.99026E+3
  -1.02299E+3  -2.10568E+2
  -6.75784E+2  -2.27220E+3
   2.34330E+3   1.30693E+3
  -2.17925E+2   7.07937E+2
  -2.04860E+3  -1.09260E+1
   3.39979E+3   8.47336E+2
   1.09100E+3   2.47913E+3
  -1.22318E+3   1.29009E+3
  -5.99176E+2   1.09781E+1
  -6.67287E+2   3.75076E+2
   1.43141E+3   3.48506E+3
  -5.30722E+2   3.35792E+3
   1.00499E+3   3.15172E+3
  -1.27656E+3  -9.03816E+2
  -4.99581E+2  -1.10866E+3
   1.01927E+2  -3.43309E+2
   1.60947E+3  -1.77682E+3
   5.42090E+2  -1.25913E+3
  -2.38704E+2  -9.81154E+1
   6.49370E+2  -8.33547E+2
   1.65931E+3   8.83910E+2
  -9.02031E+2   1.44657E+3
  -1.34640E+3   3.39315E+3
   9.12137E+1  -7.11442E+2
  -4.44864E+2  -4.98722E+2
   6.08022E+2   1.35305E+3
  -8.68529E+2   4.93671E+2
  -1.00995E+3   1.22039E+3
  -2.57519E+3  -2.01113E+2
  -2.75567E+3  -6.42020E+2
  -7.15728E+2   1.16029E+3
   1.14063E+3  -1.31519E+3
   1.58556E+3  -6.65531E+2
   1.18384E+3   2.02387E+3
  -1.88615E+3   2.14751E+3
  -6.21021E+2   1.70383E+3
   1.69668E+3   8.81010E+2
   3.00047E+2   9.27352E+1
  -1.58256E+3   7.73341E+2
  -5.83254E+2  -2.12854E+3
  -1.05671E+2  -2.68023E+3
   5.98433E+1  -2.26054E+2
   6.60142E+2   6.08120E+2
  -9.49660E+2   6.83196E+2
   1.07471E+3   7.96941E+1
  -1.38004E+3  -2.41181E+3
   4.61867E+2   1.37547E+2
  -9.02145E+1   1.82318E+3
  -1.25889E+3  -7.14689E+2
  -2.70183E+3  -5.61369E+2
   8.72446E+2  -2.05841E+3
  -5.32148E+2  -1.63509E+2
  -4.39821E+2  -5.93765E+2
  -5.77892E+2  -9.65852E+2
   1.32146E+3   2.34442E+3
  -8.95094E+2   7.70809E+2
  -7.40814E+2   2.60121E+3
  -3.80136E+3   2.91772E+3
  -2.67309E+3  -3.22005E+3
  -5.74030E+2  -2.36227E+3
   7.25532E+2   3.83360E+2
   1.10994E+3  -2.11728E+3
   1.76322E+3  -1.69487E+2
   1.12500E+3  -2.77705E+1
  -9.06032E+2   4.51306E+2
  -7.52145E+2   1.95318E+3
  -9.65800E+2  -1.98858E+3
  -1.09084E+2  -3.73486E+3
   2.25163E+3   5.17713E+2
  -4.39909E+2   1.27577E+3
   8.70747E+2   2.95963E+3
  -7.99183E+2   6.26702E+2
  -1.67159E+3  -1.53215E+3
  -2.03546E+3  -8.57393E+2
  -1.51085E+3  -1.22532E+2
  -3.79930E+2   1.82329E+2
   3.06062E+1   1.08223E+3
   1.40483E+3   1.39632E+3
  -9.08144E+2   2.33953E+3
  -2.74933E+3  -1.86876E+3
  -2.41347E+3  -3.62928E+3
   1.97979E+3  -4.28163E+3
   9.54299E+2   1.00595E+3
   1.02987E+3   2.46002E+3
  -3.98294E+2   6.10517E+2
  -1.49501E+3  -3.63383E+2
  -3.62629E+2  -4.44273E+2
   2.09844E+3   1.10789E+3
  -1.41451E+3   5.38433E+2
  -7.49469E+2  -1.76920E+3
   7.88364E+2  -1.12932E+3
   2.47894E+3   2.63037E+1
   1.29000E+2   9.64111E+2
  -9.92461E+2   1.29205E+3
  -1.74676E+3   2.47401E+2
  -9.83786E+2   8.26224E+2
   4.06155E+2   9.67570E+2
  -2.28761E+3   1.23987E+3
   3.12827E+2  -1.34287E+2
  -5.29741E+2   4.98892E+2
   8.04872E+2  -4.12825E+2
  -1.81772E+3  -1.81656E+3
   6.06296E+2  -1.67542E+3
   1.09447E+3   6.56448E+2
   4.05284E+2   1.00704E+3
  -2.29156E+3   3.05325E+3
  -1.10344E+3   2.60738E+3
  -1.41353E+3  -2.30803E+2
   5.00480E+2  -2.48816E+3
  -7.49060E+2  -9.27773E+2
  -3.30694E+2   8.02505E+1
   1.62405E+3  -9.92982E+1
  -1.74339E+2  -4.23619E+2
   5.81030E+2   8.13084E+2
   3.17392E+2   4.03350E+3
  -1.08367E+3   1.21601E+3
  -9.35886E+2  -3.64774E+3
   1.74392E+3  -1.63113E+3
   1.19679E+3   2.16093E+3
  -1.70297E+3   1.52586E+3
  -1.23024E+3   7.43421E+1
  -5.29865E+2  -6.50041E+2
   5.57593E+2   7.80689E+2
   1.24471E+3  -5.92280E+2
  -1.01095E+3  -3.44101E+2
   1.69475E+3  -2.32187E+3
   4.00636E+3   5.28922E+2
  -1.22663E+3   1.91227E+3
  -2.75602E+3   9.09715E+2
  -2.08875E+3  -8.06423E+2
   3.12249E+2  -7.56501E+2
   1.31381E+3  -5.35860E+2
   4.10830E+2  -4.41584E+2
  -5.47079E+2  -4.05722E+2
   9.62557E+2   9.82240E+2
  -6.55285E+2   6.52682E+2
  -1.34455E+3   2.38630E+3
  -1.67716E+3  -2.15115E+3
  -1.08856E+3   1.47177E+3
   1.49686E+3   7.78803E+2
   3.75432E+3  -1.79913E+3
  -2.59013E+2  -1.24329E+3
   2.55683E+2  -1.18491E+2
   2.72535E+2  -1.27193E+3
   5.94890E+2   4.85486E+2
  -8.89995E+2   6.90214E+2
  -1.23662E+3   9.34626E+2
   1.57453E+3  -1.44223E+3
   1.47063E+3  -2.09773E+2
   3.10553E+3   9.47867E+2
   3.02898E+2   3.00751E+3
  -1.21459E+3  -9.49773E+2
   1.54333E+3  -1.51014E+3
   2.17543E+3  -2.23889E+3
   5.17199E+1  -1.44830E+2
   7.86841E+2  -4.44012E+2
   2.05150E+3   2.59810E+2
   1.19768E+3   8.17714E+2
  -3.54093E+2   1.67572E+2
  -1.37539E+3   3.10946E+2
  -3.73152E+2   1.00848E+3
   1.33198E+3  -2.83619E+3
  -7.54914E+2   1.43019E+3
   1.02225E+3  -3.22359E+2
  -1.02294E+3  -5.49240E+2
  -4.26943E+2  -5.20058E+2
   2.73691E+3  -9.22643E+2
   7.50562E+2   1.89128E+3
   2.36905E+3   9.68865E+2
   2.81128E+2   3.45755E+1
   8.35768E+2   1.35043E+3
   2.42720E+2   1.45418E+2
   1.24037E+3  -6.68649E+2
  -5.81079E+2  -1.19159E+3
   1.46173E+3  -3.65803E+2
   1.45921E+3  -2.81201E+3
   1.58642E+3   7.98765E+1
   1.01838E+3   8.10724E+2
  -1.82164E+3  -1.73774E+3
   4.34475E+2  -2.73863E+3
   9.07624E+2  -2.81591E+3
  -1.43712E+3  -1.23750E+3
  -2.59258E+2  -7.68090E+2
   1.27664E+3  -1.07939E+3
   2.70148E+3   2.93246E+2
   9.63428E+2   1.57496E+3
  -9.62845E+0  -1.27007E+2
   3.45470E+2   8.67497E+1
   3.74731E+2  -2.38989E+3
   1.00919E+3  -1.13701E+3
   9.64367E+2  -8.50473E+2
  -8.61057E+2  -3.08629E+2
  -7.30059E+2   6.31024E+1
   1.00027E+3  -1.58199E+2
  -1.45391E+3   2.91734E+1
  -2.17327E+3  -3.21200E+2
   1.47681E+2  -2.32809E+3
  -9.96387E+0  -4.27310E+2
   1.39691E+3   4.40728E+2
   4.50009E+2   8.70722E+2
  -4.75892E+2  -6.57863E+2
   2.12104E+2  -6.35348E+2
   2.02121E+2   4.11288E+2
   3.49761E+2  -1.05132E+3
   7.37042E+2  -1.68471E+3
   3.60766E+2  -2.61558E+2
   1.59157E+3   2.14883E+2
   2.15723E+3   2.07771E+3
   8.12651E+2   1.41611E+3
  -1.69109E+3  -3.11399E+2
  -1.15475E+3  -1.56056E+3
  -6.97884E+2  -7.82949E+2
   3.57347E+2   1.18091E+3
  -9.23481E+2  -2.62688E+3
   3.33802E+2   9.90638E+2
   1.78727E+3   9.38783E+2
   2.75159E+2   8.04311E+1
   7.71788E+1   1.00072E+3
  -1.46967E+2  -6.37922E+2
   1.52362E+3   6.71193E+1
   1.73760E+3  -8.33636E+2
   1.43187E+2   7.20874E+2
  -3.46377E+2   3.43437E+2
  -6.52439E+2  -1.00537E+3
   4.06296E+1  -3.16625E+2
  -8.70182E+2  -2.01267E+3
  -1.29086E+3   7.51867E+1
   1.54747E+2   1.16412E+2
  -9.77043E+2   1.07934E+2
  -2.54951E+2   9.88061E+2
   1.50988E+3  -2.42054E+2
  -5.64954E+2  -1.98664E+3
   1.97703E+3  -1.23491E+2
   1.05548E+3  -7.23686E+2
   1.87600E+3   1.76503E+3
  -1.36873E+3   2.41448E+3
  -1.23237E+3  -6.41895E+2
  -1.19637E+3  -5.17655E+2
   3.53564E+2  -1.03372E+3
  -8.54398E+2   5.79616E+2
   2.38767E+2   1.73657E+3
  -1.55537E+3   3.51650E+2
   1.35844E+2  -9.86100E+2
   2.61183E+3   7.80196E+2
   2.08792E+1   8.06255E+2
  -2.10707E+2   1.24541E+3
