 
 $NMID
 ID=''
 FMTDAT='(2E13.5)'
 TRAMP=   1.00000E+0
 VOLUME=   1.00000E+0
 $END
  -5.60405E+3   1.82946E+4
  -2.70680E+4   4.12891E+4
  -1.92423E+4   4.54404E+4
  -1.74405E+4   4.20500E+4
  -1.90116E+4   4.33337E+4
  -1.67765E+4   4.44797E+4
  -1.60550E+4   4.28605E+4
  -1.66816E+4   4.31986E+4
  -1.50008E+4   4.37939E+4
  -1.43784E+4   4.26123E+4
  -1.45708E+4   4.24936E+4
  -1.32279E+4   4.26848E+4
  -1.26210E+4   4.19355E+4
  -1.30168E+4   4.19028E+4
  -1.21837E+4   4.19735E+4
  -1.17189E+4   4.12357E+4
  -1.17799E+4   4.12991E+4
  -1.11102E+4   4.12960E+4
  -1.04709E+4   4.08185E+4
  -1.05574E+4   4.08498E+4
  -9.85337E+3   4.07280E+4
  -9.20201E+3   4.03030E+4
  -9.00211E+3   4.03549E+4
  -8.47946E+3   4.03706E+4
  -7.85862E+3   3.99011E+4
  -7.54678E+3   3.98514E+4
  -6.97298E+3   3.97576E+4
  -6.54147E+3   3.93990E+4
  -6.33946E+3   3.93325E+4
  -5.73449E+3   3.91883E+4
  -5.14352E+3   3.90034E+4
  -4.80429E+3   3.89297E+4
  -4.45901E+3   3.88730E+4
  -3.96850E+3   3.84918E+4
  -3.66569E+3   3.84016E+4
  -3.16511E+3   3.81357E+4
  -2.79359E+3   3.78621E+4
  -2.42768E+3   3.75553E+4
  -1.94148E+3   3.73672E+4
  -1.55008E+3   3.70552E+4
  -1.18480E+3   3.68416E+4
  -9.65185E+2   3.66371E+4
  -6.73350E+2   3.62481E+4
  -3.01974E+2   3.58466E+4
   5.82491E+1   3.56478E+4
   5.02215E+2   3.53695E+4
   7.54569E+2   3.50651E+4
   1.05475E+3   3.49447E+4
   1.37112E+3   3.47218E+4
   1.67386E+3   3.44616E+4
   1.90453E+3   3.41964E+4
   2.16917E+3   3.39164E+4
   2.51678E+3   3.36279E+4
   2.85326E+3   3.34364E+4
   3.07823E+3   3.32166E+4
   3.29817E+3   3.29624E+4
   3.55315E+3   3.27819E+4
   3.79916E+3   3.25568E+4
   3.98918E+3   3.22819E+4
   4.24899E+3   3.19436E+4
   4.52208E+3   3.15943E+4
   4.78674E+3   3.13199E+4
   4.98207E+3   3.10005E+4
   5.22216E+3   3.07704E+4
   5.44756E+3   3.03855E+4
   5.66615E+3   3.01032E+4
   6.01111E+3   2.98525E+4
   6.17829E+3   2.95389E+4
   6.41337E+3   2.92741E+4
   6.65696E+3   2.89285E+4
   6.89450E+3   2.86310E+4
   7.15919E+3   2.82712E+4
   7.37617E+3   2.80288E+4
   7.59619E+3   2.77274E+4
   7.93951E+3   2.73923E+4
   8.26802E+3   2.71844E+4
   8.42069E+3   2.68243E+4
   8.60200E+3   2.65051E+4
   8.84801E+3   2.62580E+4
   9.07936E+3   2.59418E+4
   9.35292E+3   2.57114E+4
   9.50588E+3   2.54122E+4
   9.72512E+3   2.50783E+4
   9.83497E+3   2.48807E+4
   1.00513E+4   2.45823E+4
   1.02322E+4   2.43969E+4
   1.03565E+4   2.41538E+4
   1.05947E+4   2.38676E+4
   1.07848E+4   2.35351E+4
   1.10191E+4   2.33584E+4
   1.10565E+4   2.32404E+4
   1.13282E+4   2.29315E+4
   1.14308E+4   2.27118E+4
   1.16506E+4   2.25211E+4
   1.17367E+4   2.22882E+4
   1.19478E+4   2.20420E+4
   1.20004E+4   2.18857E+4
   1.22065E+4   2.16823E+4
   1.23029E+4   2.14980E+4
   1.23038E+4   2.14163E+4
   1.23832E+4   2.12054E+4
   1.25661E+4   2.10166E+4
   1.26704E+4   2.07553E+4
   1.26791E+4   2.06599E+4
   1.27834E+4   2.05093E+4
   1.27325E+4   2.02680E+4
   1.28167E+4   2.00719E+4
   1.28219E+4   2.00154E+4
   1.29026E+4   1.97793E+4
   1.29294E+4   1.96128E+4
   1.29233E+4   1.94262E+4
   1.29644E+4   1.91555E+4
   1.31050E+4   1.89816E+4
   1.31299E+4   1.88885E+4
   1.30503E+4   1.86599E+4
   1.30457E+4   1.85143E+4
   1.31003E+4   1.82739E+4
   1.30132E+4   1.81143E+4
   1.30561E+4   1.79298E+4
   1.30033E+4   1.77209E+4
   1.30382E+4   1.75358E+4
   1.29656E+4   1.73881E+4
   1.30189E+4   1.71785E+4
   1.29752E+4   1.69572E+4
   1.30170E+4   1.67736E+4
   1.30113E+4   1.66311E+4
   1.29199E+4   1.63410E+4
   1.29468E+4   1.61273E+4
   1.29370E+4   1.59470E+4
   1.29805E+4   1.57858E+4
   1.29461E+4   1.55352E+4
   1.29604E+4   1.53397E+4
   1.30427E+4   1.50881E+4
   1.29496E+4   1.48232E+4
   1.29620E+4   1.46798E+4
   1.30330E+4   1.44881E+4
   1.29506E+4   1.43047E+4
   1.29147E+4   1.39878E+4
   1.29418E+4   1.37983E+4
   1.29431E+4   1.36373E+4
   1.30017E+4   1.33827E+4
   1.29543E+4   1.31912E+4
   1.29272E+4   1.29255E+4
   1.29153E+4   1.27653E+4
   1.29562E+4   1.25741E+4
   1.29944E+4   1.23347E+4
   1.30288E+4   1.20925E+4
   1.30065E+4   1.18988E+4
   1.29636E+4   1.17120E+4
   1.30497E+4   1.14168E+4
   1.29786E+4   1.12938E+4
   1.29950E+4   1.10499E+4
   1.29993E+4   1.08458E+4
   1.30071E+4   1.05759E+4
   1.30129E+4   1.03566E+4
   1.30681E+4   1.01576E+4
   1.30904E+4   9.94902E+3
   1.30601E+4   9.79411E+3
   1.30480E+4   9.53285E+3
   1.30625E+4   9.29720E+3
   1.30580E+4   9.15830E+3
   1.30098E+4   8.86589E+3
   1.30549E+4   8.78474E+3
   1.31221E+4   8.52174E+3
   1.30659E+4   8.28598E+3
   1.30756E+4   8.11320E+3
   1.30659E+4   7.98054E+3
   1.30851E+4   7.68771E+3
   1.30470E+4   7.43880E+3
   1.30868E+4   7.24972E+3
   1.30696E+4   7.04544E+3
   1.30569E+4   6.85761E+3
   1.31060E+4   6.70936E+3
   1.30901E+4   6.53456E+3
   1.30872E+4   6.25443E+3
   1.30548E+4   6.07272E+3
   1.30843E+4   5.84503E+3
   1.31443E+4   5.63826E+3
   1.31201E+4   5.39699E+3
   1.31208E+4   5.24886E+3
   1.31402E+4   5.09962E+3
   1.31227E+4   4.81306E+3
   1.30788E+4   4.67014E+3
   1.31396E+4   4.42410E+3
   1.30958E+4   4.26825E+3
   1.30804E+4   4.08927E+3
   1.31971E+4   3.92602E+3
   1.31228E+4   3.73145E+3
   1.30883E+4   3.52647E+3
   1.31090E+4   3.36074E+3
   1.29797E+4   3.16962E+3
   1.31109E+4   3.02407E+3
   1.31195E+4   2.78314E+3
   1.30236E+4   2.62503E+3
   1.29778E+4   2.49259E+3
   1.29990E+4   2.33213E+3
   1.29869E+4   2.10479E+3
   1.29966E+4   2.01444E+3
   1.28537E+4   1.72587E+3
   1.29685E+4   1.58139E+3
   1.28822E+4   1.40831E+3
   1.28846E+4   1.36100E+3
   1.28139E+4   1.18225E+3
   1.28701E+4   9.27250E+2
   1.27129E+4   7.77559E+2
   1.26604E+4   7.27569E+2
   1.26827E+4   4.49034E+2
   1.27222E+4   3.25109E+2
   1.26414E+4   1.60940E+2
   1.26060E+4   3.68189E+1
   1.25277E+4  -9.61442E+1
   1.25053E+4  -2.57356E+2
   1.24319E+4  -3.88129E+2
   1.23618E+4  -6.09010E+2
   1.23852E+4  -7.76007E+2
   1.23619E+4  -8.68528E+2
   1.22487E+4  -1.00252E+3
   1.22126E+4  -1.16500E+3
   1.21442E+4  -1.31134E+3
   1.21107E+4  -1.43993E+3
   1.20321E+4  -1.47434E+3
   1.19421E+4  -1.71896E+3
   1.19372E+4  -1.78735E+3
   1.18485E+4  -1.98546E+3
   1.17458E+4  -2.06803E+3
   1.17368E+4  -2.25236E+3
   1.17168E+4  -2.33419E+3
   1.15266E+4  -2.50798E+3
   1.15489E+4  -2.58476E+3
   1.14733E+4  -2.71819E+3
   1.13561E+4  -2.82868E+3
   1.13304E+4  -2.95183E+3
   1.12721E+4  -3.05048E+3
   1.11194E+4  -3.13383E+3
   1.10499E+4  -3.31621E+3
   1.10238E+4  -3.39452E+3
   1.09260E+4  -3.52771E+3
   1.07477E+4  -3.59552E+3
   1.07777E+4  -3.68622E+3
   1.06380E+4  -3.82484E+3
   1.05396E+4  -3.92707E+3
   1.04515E+4  -3.99478E+3
   1.03655E+4  -4.12496E+3
   1.02938E+4  -4.12982E+3
   1.02146E+4  -4.23225E+3
   1.00590E+4  -4.45465E+3
   1.00113E+4  -4.43868E+3
   9.89000E+3  -4.52181E+3
   9.82000E+3  -4.63096E+3
   9.74898E+3  -4.72258E+3
   9.62916E+3  -4.88797E+3
   9.53486E+3  -4.83726E+3
   9.41526E+3  -4.99575E+3
   9.34417E+3  -4.99995E+3
   9.27056E+3  -5.08109E+3
   9.12215E+3  -5.19401E+3
   8.96989E+3  -5.26345E+3
   8.85753E+3  -5.31245E+3
   8.81189E+3  -5.40345E+3
   8.69731E+3  -5.37595E+3
   8.62981E+3  -5.47269E+3
   8.40460E+3  -5.52974E+3
   8.34083E+3  -5.56706E+3
   8.21951E+3  -5.69671E+3
   8.10872E+3  -5.67442E+3
   8.05872E+3  -5.73559E+3
   7.89164E+3  -5.76927E+3
   7.86967E+3  -5.87366E+3
   7.69785E+3  -5.90185E+3
   7.58832E+3  -5.93230E+3
   7.47542E+3  -5.99545E+3
   7.30205E+3  -5.94169E+3
   7.24221E+3  -6.09658E+3
   7.16962E+3  -6.14404E+3
   7.09847E+3  -6.12612E+3
   6.92471E+3  -6.21720E+3
   6.76492E+3  -6.18280E+3
   6.65847E+3  -6.26880E+3
   6.61664E+3  -6.27912E+3
   6.40237E+3  -6.27064E+3
   6.34956E+3  -6.42071E+3
   6.20236E+3  -6.36473E+3
   6.12489E+3  -6.39287E+3
   6.03437E+3  -6.45702E+3
   5.91724E+3  -6.46564E+3
   5.87087E+3  -6.48020E+3
   5.76280E+3  -6.48734E+3
   5.62362E+3  -6.49134E+3
   5.49065E+3  -6.50291E+3
   5.47012E+3  -6.54947E+3
   5.30217E+3  -6.50356E+3
   5.20153E+3  -6.56670E+3
   5.13114E+3  -6.53427E+3
   4.95867E+3  -6.56136E+3
   4.93838E+3  -6.57200E+3
   4.77088E+3  -6.57914E+3
   4.73879E+3  -6.57623E+3
   4.58791E+3  -6.51369E+3
   4.44682E+3  -6.57456E+3
   4.36460E+3  -6.54383E+3
   4.25371E+3  -6.58589E+3
   4.18288E+3  -6.56874E+3
   4.07679E+3  -6.54026E+3
   3.94027E+3  -6.57321E+3
   3.92314E+3  -6.55065E+3
   3.71726E+3  -6.51219E+3
   3.73993E+3  -6.49136E+3
   3.57898E+3  -6.47655E+3
   3.48600E+3  -6.52180E+3
   3.39227E+3  -6.43869E+3
   3.34628E+3  -6.43259E+3
   3.26087E+3  -6.34380E+3
   3.12661E+3  -6.37635E+3
   3.02788E+3  -6.36561E+3
   2.96155E+3  -6.37888E+3
   2.83219E+3  -6.34803E+3
   2.73444E+3  -6.32866E+3
   2.66368E+3  -6.30329E+3
   2.62100E+3  -6.28902E+3
   2.53361E+3  -6.31007E+3
   2.37326E+3  -6.21675E+3
   2.26034E+3  -6.16176E+3
   2.19602E+3  -6.15819E+3
   2.17144E+3  -6.14486E+3
   2.00055E+3  -6.05298E+3
   1.95657E+3  -6.09313E+3
   1.91410E+3  -6.05528E+3
   1.75580E+3  -6.01213E+3
   1.69631E+3  -5.92669E+3
   1.57253E+3  -5.90265E+3
   1.53409E+3  -5.84675E+3
   1.50280E+3  -5.85406E+3
   1.38682E+3  -5.86123E+3
   1.36407E+3  -5.85174E+3
   1.22450E+3  -5.75844E+3
   1.16195E+3  -5.74973E+3
   1.03927E+3  -5.72204E+3
   9.83658E+2  -5.65715E+3
   9.22869E+2  -5.68214E+3
   9.01226E+2  -5.57835E+3
   7.64449E+2  -5.54541E+3
   7.92119E+2  -5.55653E+3
   6.47531E+2  -5.47363E+3
   5.33799E+2  -5.41250E+3
   5.13611E+2  -5.45337E+3
   4.83385E+2  -5.30893E+3
   3.93507E+2  -5.26850E+3
   3.29150E+2  -5.33687E+3
   2.40811E+2  -5.26869E+3
   2.56966E+2  -5.14559E+3
   2.18548E+2  -5.10792E+3
   9.00992E+1  -5.07589E+3
   2.68720E+1  -5.13421E+3
   1.15288E+1  -5.01839E+3
  -3.50689E+1  -4.93084E+3
  -1.00533E+2  -4.86989E+3
  -1.60703E+2  -4.85043E+3
  -1.39906E+2  -4.81186E+3
  -2.94311E+2  -4.73165E+3
  -3.19437E+2  -4.79064E+3
  -3.76512E+2  -4.72102E+3
  -4.09415E+2  -4.64998E+3
  -5.08699E+2  -4.58577E+3
  -5.16277E+2  -4.54527E+3
  -5.92010E+2  -4.41365E+3
  -6.33540E+2  -4.42079E+3
  -6.52700E+2  -4.36466E+3
