 
 $NMID
 ID=''
 FMTDAT='(2E13.5)'
 TRAMP=   1.00000E+0
 VOLUME=   1.00000E+0
 $END
   5.79882E+2   7.61241E+1
   1.09633E+3   1.07734E+3
   9.23041E+2  -4.47176E+3
  -1.01659E+3  -4.18097E+3
  -2.76126E+3  -1.64974E+3
  -1.83082E+3  -3.19131E+3
  -3.32988E+3   1.54470E+3
  -4.33679E+3   1.96273E+3
  -3.64799E+3   2.87887E+3
  -2.64139E+3  -3.31844E+2
  -7.04193E+2  -1.93397E+3
   1.47406E+3  -1.01513E+3
   1.81659E+3   3.71010E+3
  -2.68582E+3   3.76486E+3
  -1.24738E+3  -7.69216E+2
   6.62123E+2  -1.71967E+3
   1.02207E+3  -2.39279E+3
  -1.53956E+3   6.90482E+2
  -2.97379E+3   9.85373E+2
  -6.37090E+2  -7.21442E+2
   4.83519E+2  -2.68108E+3
   2.63688E+3   2.25481E+3
  -1.56117E+3   2.83746E+3
   2.58353E+2  -2.65078E+3
   1.15895E+3  -3.68340E+3
   2.63388E+3   6.59169E+2
  -1.27049E+3   1.52544E+3
  -4.49022E+3  -1.34868E+3
  -4.18949E+3  -4.28569E+3
   1.19401E+3  -2.09682E+3
   3.22839E+3   1.30889E+3
  -3.25207E+3   2.88026E+3
  -2.93121E+3   1.96883E+3
  -1.35395E+2   1.69859E+3
   1.10644E+3   3.97255E+2
  -2.62966E+2   1.14412E+3
   2.80003E+3  -2.09355E+3
   5.89239E+3   1.11997E+3
   3.19924E+3   4.68460E+3
   2.51188E+3   3.15120E+3
  -1.13418E+3   7.29407E+2
  -4.82097E+3  -2.83886E+3
  -1.06652E+3  -6.59597E+3
   2.13743E+3  -5.28784E+3
   1.46210E+3  -1.97113E+3
   4.16787E+2  -2.03597E+3
   2.94875E+3  -1.07448E+3
   3.68511E+2   2.10513E+3
  -7.59320E+2   2.68246E+3
  -9.04751E+2   3.54113E+2
   7.92574E+1  -9.78065E+2
   1.74366E+3   4.55422E+2
   1.90283E+3   3.50561E+3
   3.07297E+3   5.68954E+3
  -2.84340E+3   3.18413E+3
  -2.37380E+3   1.30457E+3
  -3.30501E+3   1.53280E+3
  -4.19159E+3  -8.82085E+2
  -3.27832E+3  -5.08442E+3
   1.31671E+3  -3.77894E+3
   2.29454E+3   4.94724E+2
  -1.42695E+3   3.55479E+3
  -2.58660E+2   1.42033E+3
  -2.08069E+3  -9.43632E+2
   5.72973E+2   9.61405E+1
   1.17800E+2   3.21301E+3
  -2.19334E+3   3.00809E+3
  -2.44314E+3  -1.12480E+3
  -5.25022E+2  -1.15220E+3
   1.92254E+3  -1.82499E+3
  -1.12664E+3   2.29077E+2
  -8.15517E+2   4.04302E+3
  -1.28087E+2  -2.49366E+1
   2.90725E+2   8.92591E+2
  -7.66645E+2   1.08562E+3
  -2.32000E+3   2.46987E+3
   3.26498E+2  -2.06483E+3
  -4.16907E+2  -6.72735E+2
   1.02745E+3   1.45111E+3
   5.01525E+2   7.02406E+2
   2.78724E+2  -1.11233E+3
   6.79832E+2  -5.27022E+1
   3.32111E+2  -1.43557E+3
   1.93184E+1  -2.37769E+2
  -1.27076E+3  -2.16562E+3
   2.96146E+3  -9.47610E+2
   3.60535E+3  -1.96049E+2
   3.43286E+3   1.55778E+3
  -2.61241E+2   2.46204E+3
  -8.85664E+1  -5.15210E+2
   1.04688E+3  -1.38565E+2
   2.73669E+2   8.62011E+2
  -7.28291E+2  -7.94745E+2
  -1.23367E+3  -3.16723E+2
   2.14179E+3  -4.05772E+3
   5.12627E+3   7.08609E+2
   4.24607E+2   2.03504E+3
  -2.15440E+3   3.15207E+2
  -1.65657E+3   2.32576E+2
   2.13724E+3  -1.85435E+3
   2.81818E+3  -2.32680E+3
   9.37172E+2   1.26730E+2
  -1.18928E+3  -5.14186E+2
  -2.34364E+3  -2.49157E+3
   1.50905E+3  -1.45375E+3
   1.26335E+3  -4.16669E+2
   7.53058E+0  -6.77227E+2
   2.70143E+2  -1.77565E+3
   1.19207E+3  -1.52600E+3
   2.39079E+3   3.67892E+3
   1.29947E+3   3.40426E+3
  -9.17672E+2   1.41979E+3
  -1.11547E+3   9.20876E+2
   1.30407E+2   5.57721E+2
   4.87373E+2  -1.78389E+3
   7.28168E+2   5.47096E+2
   2.28229E+2  -1.82009E+3
   1.04412E+3   1.32315E+3
   1.29188E+3   2.18069E+2
  -1.14238E+3   4.49628E+2
  -2.61032E+2  -3.59817E+2
   1.08583E+3  -4.92935E+2
   7.40256E+2  -6.97654E+2
  -4.32325E+2  -1.52473E+2
   3.09259E+2  -8.67079E+2
   1.53810E+3   5.49318E+2
   5.64047E+2  -6.44599E+2
   8.69988E+1  -6.61255E+1
   1.46685E+3  -8.42948E+2
  -8.88337E+2  -3.68913E+2
  -1.18075E+3  -6.80847E+2
   2.21189E+3   5.71026E+2
  -1.16402E+3   6.50265E+2
  -1.12160E+3   8.14492E+2
   1.11098E+3  -1.04242E+3
   2.49492E+3  -1.34630E+3
   9.27991E+2  -5.35160E+2
  -7.91981E+2   1.17667E+3
   1.58748E+3   5.89351E+2
  -1.85621E+3  -7.24722E+2
   5.99123E+2  -1.87334E+2
   2.15033E+2   9.79163E+2
  -1.83983E+3   1.34379E+3
  -3.03774E+3  -1.69984E+3
   1.41128E+3  -1.08497E+3
   1.62093E+3   5.44065E+2
  -8.39702E+2   2.35808E+2
  -1.55400E+3  -2.07416E+3
  -2.15422E+3  -9.88360E+2
  -9.63859E+2  -1.65723E+3
  -2.04107E+3  -2.27275E+1
   2.71694E+2  -7.31599E+2
  -3.24280E+2   1.92983E+3
  -1.36679E+3  -2.77796E+2
  -2.02335E+3   1.26283E+3
  -6.50802E+2   7.78152E+2
  -1.77851E+3   1.72520E+1
  -1.20057E+3   1.33692E+3
  -8.06587E+2   1.18047E+3
  -1.97615E+3  -8.24599E+2
   7.07226E+2  -8.59006E+2
   5.13638E+2  -1.89856E+2
  -1.52343E+3   6.50433E+2
  -4.64871E+2  -1.52921E+2
  -8.92682E+2  -1.69697E+3
   5.21297E+2   3.27490E+2
  -4.86615E+2   1.24768E+3
  -2.78141E+1  -3.76110E+2
  -5.83762E+2  -1.25009E+3
  -1.75573E+3  -1.80160E+3
   1.51243E+3  -6.56963E+2
  -6.12265E+2  -1.70644E+2
  -2.83013E+3   2.88424E+1
  -7.24971E+2  -1.87623E+2
   1.80296E+2  -6.71133E+2
   1.02059E+3   1.12962E+1
  -5.13070E+2   2.38818E+3
  -1.85973E+3  -2.63198E+3
   1.16547E+3  -2.90267E+2
  -5.97968E+2   6.14401E+2
  -1.05151E+3   7.08130E+2
  -1.59089E+3   2.73167E+2
   1.52178E+3   1.11368E+3
   1.38649E+3  -8.10838E+2
   3.64303E+2   1.27389E+3
   7.57097E+2  -2.18427E+3
  -4.69004E+2  -2.05920E+3
  -7.77329E+2  -1.20375E+2
   1.10281E+3   1.32420E+3
  -3.91581E+2   1.80910E+3
  -6.49556E+2   8.04033E+1
   2.93183E+2   8.66306E+2
  -8.54273E+1  -3.99932E+2
   1.54072E+3   3.61920E+2
  -1.20065E+2   4.09834E+2
  -2.89198E+2   1.24616E+3
  -1.24885E+2   3.05383E+1
   1.49945E+3   5.41542E+2
   2.61829E+2  -1.59060E+2
   8.76528E+2   3.13663E+1
   3.49753E+2  -3.34232E+2
   1.45922E+2  -8.86963E+1
   7.41313E+2   1.95010E+3
  -1.77140E+3   1.88317E+3
  -2.60041E+3  -4.02513E+2
   3.99949E+1   5.13438E+1
  -8.59035E+1   2.64972E+3
  -1.84519E+3  -8.05212E+2
  -1.20424E+3  -2.72903E+2
  -4.74509E+2  -3.88945E+2
   8.66706E+2   7.57688E+2
   6.53662E+2   4.80137E+2
  -3.96212E+2  -1.09226E+3
  -9.66145E+2  -3.23894E+2
   1.92846E+1  -3.98222E+2
   2.52083E+3  -9.86544E+2
   1.52524E+3   1.93285E+3
   2.03495E+3  -1.08429E+3
  -8.04294E+2   1.58116E+2
   1.34765E+3  -3.18095E+2
  -6.85872E+2  -5.68184E+2
  -1.29545E+3   2.33953E+2
  -7.94254E+2  -9.78841E+2
  -1.52296E+3   3.92835E+2
   7.61482E+2   3.54440E+2
   6.20936E+0  -1.73834E+1
  -7.18517E+2   6.11564E+1
  -2.79422E+2   6.79983E+2
   7.75921E+2   1.42244E+3
  -6.57284E+2  -3.20869E+2
   2.80495E+3   6.47049E+2
   5.94237E+2   5.41797E+2
  -9.56925E+2  -1.53331E+3
  -7.95142E+2   1.27697E+3
   1.02484E+3  -2.87748E+3
   8.02119E+2   9.76316E+2
  -1.11689E+3  -1.96776E+1
   9.75499E+2   2.35314E+3
  -1.90944E+3  -1.43164E+3
  -1.23127E+3  -3.93516E+2
   7.80151E+2  -5.81870E+2
  -9.94996E+2   1.05290E+3
  -1.19838E+3   6.43726E+2
  -9.16806E+2   1.46145E+3
  -7.09068E+0   1.37167E+2
   1.71653E+3   1.23367E+3
  -2.94096E+2  -2.59071E+2
   4.51038E+2   7.58047E+2
  -4.39656E+2   4.36792E+2
  -2.08568E+3   4.09711E+2
   5.51433E+2   1.38684E+3
  -5.46091E+2   1.92117E+3
  -1.09076E+3   8.47235E+2
  -9.77884E+2  -5.97762E+2
   6.71323E+2   1.81293E+3
  -2.12893E+1   1.23781E+2
   9.32389E+2  -2.01462E+2
   7.18973E+2   8.17076E+2
   5.99677E+2   6.32300E+2
  -2.21299E+2   6.77821E+2
   1.03909E+3   4.83931E+1
   5.09566E+2  -1.07456E+3
   1.54445E+3   1.16808E+3
  -1.59077E+3   8.77196E+2
  -6.92630E+2   8.05755E+2
   1.62742E+3   1.34242E+2
   2.12596E+2   5.59840E+2
   2.61830E+3  -2.32098E+2
  -7.27454E+2   1.34684E+3
  -3.43128E+2   5.81298E+2
   7.30452E+2   3.69886E+1
   1.81949E+3   4.57108E+2
   3.52327E+2   2.23356E+3
   2.05589E+2   9.08860E+2
   2.27186E+2   3.70041E+2
   4.66880E+2  -4.19850E+2
  -2.67659E+2  -1.48918E+3
   1.28630E+2  -9.39339E+2
   7.40951E+2  -2.33829E+3
  -1.07379E+3   1.02654E+3
   1.79623E+1  -1.26359E+3
  -1.96982E+3  -9.08655E+2
   2.42124E+2  -3.86843E+2
   2.96678E+2   1.22088E+3
   1.64408E+3   2.24872E+3
   1.61245E+3   5.54015E+2
   8.34072E+2   3.34913E+2
   1.35213E+3  -2.88660E+2
  -1.65906E+3   4.09447E+2
   2.10046E+2   1.84937E+2
   3.44826E+2  -7.21326E+2
   1.61366E+3   5.25154E+1
  -2.87036E+2   1.97792E+3
  -1.87022E+2  -6.31329E+2
  -4.39460E+2  -1.49620E+3
   4.01967E+2   1.16075E+3
   3.98390E+2   1.44144E+3
  -4.07412E+2   5.52108E+1
   1.26739E+3  -9.58372E+2
  -9.64481E+2   4.93948E+2
  -9.78907E+2  -1.24393E+3
   3.60026E+2   1.70264E+3
  -6.40264E+1   3.99026E+2
  -2.83116E+2   8.25857E+2
  -3.37598E+2  -4.33502E+2
  -1.22754E+2   3.32536E+2
   1.23506E+3   9.20955E+2
  -1.07484E+3  -1.34011E+2
  -2.16685E+3  -7.38943E+2
  -1.68498E+3   8.62670E+2
  -2.10115E+2  -2.48968E+2
   5.53510E+2   1.12655E+3
   8.80849E+2  -1.29147E+3
  -1.26885E+3  -1.09350E+3
   8.63994E+2  -1.05599E+3
   2.65679E+2  -6.84113E+2
   6.19180E+2  -3.36127E+1
  -8.32300E+1   8.57070E+2
   8.21452E+2   4.93443E+2
  -9.00864E+2  -6.46020E+1
  -9.27864E+2   6.90160E+2
  -5.37378E+2   7.49359E+2
   8.32045E+2  -6.32255E+2
  -4.94006E+2  -6.27658E+2
   8.85466E+2  -5.24658E+2
  -3.84231E+2  -1.78258E+3
  -1.08015E+3   7.08137E+2
   1.14953E+3  -2.25706E+3
  -1.48934E+3  -1.14006E+3
  -1.36798E+3  -5.66522E+2
   8.95897E+2  -4.16541E+2
   1.14050E+3  -2.93364E+2
  -1.64689E+3   3.97597E+2
   9.83249E+2   3.83648E+2
  -6.70159E+1  -4.69975E+2
  -4.75700E+2  -1.72648E+3
  -1.76837E+3  -2.81000E+2
  -6.59131E+2   9.37059E+2
   5.42317E+2   9.97645E+2
   5.89342E+2  -3.79477E+2
  -3.30383E+2  -2.20659E+3
  -3.91101E+2  -2.07176E+3
  -4.59458E+2  -2.87262E+2
  -7.35717E+2   1.63625E+3
  -1.21870E+3  -1.78440E+3
  -4.92194E+2  -3.87539E+2
   8.05125E-2  -3.44354E+1
   9.28278E+2   6.15714E+2
  -5.84814E+2  -1.59041E+3
  -7.34891E+2  -1.03573E+3
   4.35103E+2   4.08151E+2
   4.42315E+1   3.36000E+2
  -1.40169E+3   1.16810E+2
   2.84144E+2   5.25016E+2
   2.44514E+2  -6.83976E+2
  -9.45387E+2   8.42146E+2
   5.26637E+2  -6.10067E+2
   1.55620E+3  -2.02553E+3
  -9.08471E+2   2.47321E+3
  -1.32924E+3   4.59050E+2
  -1.52083E+3   4.42964E+2
   8.67448E+2  -2.88742E+3
   3.77321E+2   7.76924E+2
   6.54723E+2   9.59951E+1
  -5.30597E+2  -3.07457E+3
   1.57865E+3  -1.07772E+3
   1.43355E+3  -8.48612E+2
