 LCModel (Version 6.3-1N) Copyright: S.W. Provencher.          Ref.: Magn. Reson. Med. 30:672-679 (1993).                
 Slice_N1@21_20  02-Jun-2023 14:37:34
 27 lines in following concentration table = NCONC+1
    Conc.  %SD /Cr+PCr  Metabolite                                         
 2.17E-06  15% 4.4E-04 Mac                                                 
 3.98E-02  17%   8.000 Cr                                                  
    0.000 999%   0.000 PCr                                                 
 5.23E-02  21%  10.495 Ins                                                 
 6.93E-02  12%  13.910 NAA                                                 
 5.93E-02  17%  11.907 Tau                                                 
 1.77E-02  16%   3.559 PCho                                                
    0.000 999%   0.000 GPC                                                 
 4.19E-02  26%   8.403 Glu                                                 
 9.95E-03  71%   1.997 Gln                                                 
    0.000 999%   0.000 Ala                                                 
 3.20E-02  46%   6.425 Asc                                                 
 4.00E-03 145%   0.802 Asp                                                 
 5.96E-03  56%   1.196 GABA                                                
 3.03E-03 120%   0.608 Glc                                                 
 4.39E-03  82%   0.882 GSH                                                 
    0.000 999%   0.000 Lac                                                 
    0.000 999%   0.000 NAAG                                                
    0.000 999%   0.000 PE                                                  
 1.77E-02  16%   3.559 GPC+PCho                                            
 6.93E-02  12%  13.910 NAA+NAAG                                            
 5.18E-02  24%  10.401 Glu+Gln                                             
 3.98E-02  17%   8.000 Cr+PCr                                              
 6.93E-02  12%  13.910 NAA+NAAG                                            
 3.98E-02  17%   8.000 Cr+PCr                                              
 5.18E-02  24%  10.401 Glu+Gln                                             
   6 lines in following misc. output table
  FWHM = 0.047 ppm    S/N =   2                                            
  Data shift = 0.012 ppm                                                   
  Ph:  16 deg     -10.3 deg/ppm                                            
  alphaB,S = 3.1E+01,   1.0E+02                                            
   18 spline knots.   Ns =11(1)                                            
   2 inflections.     1 extrema                                            
  654 points on ppm-axis = NY
      4.000000     3.994181     3.988363     3.982544     3.976726     3.970907     3.965088     3.959270     3.953451     3.947633
      3.941814     3.935995     3.930177     3.924358     3.918540     3.912721     3.906902     3.901084     3.895265     3.889446
      3.883628     3.877809     3.871991     3.866172     3.860353     3.854535     3.848716     3.842898     3.837079     3.831260
      3.825442     3.819623     3.813805     3.807986     3.802167     3.796349     3.790530     3.784712     3.778893     3.773074
      3.767256     3.761437     3.755619     3.749800     3.743981     3.738163     3.732344     3.726526     3.720707     3.714888
      3.709070     3.703251     3.697433     3.691614     3.685795     3.679977     3.674158     3.668339     3.662521     3.656702
      3.650884     3.645065     3.639246     3.633428     3.627609     3.621791     3.615972     3.610153     3.604335     3.598516
      3.592698     3.586879     3.581060     3.575242     3.569423     3.563605     3.557786     3.551967     3.546149     3.540330
      3.534512     3.528693     3.522874     3.517056     3.511237     3.505419     3.499600     3.493781     3.487963     3.482144
      3.476326     3.470507     3.464688     3.458870     3.453051     3.447232     3.441414     3.435595     3.429777     3.423958
      3.418139     3.412321     3.406502     3.400684     3.394865     3.389046     3.383228     3.377409     3.371591     3.365772
      3.359953     3.354135     3.348316     3.342498     3.336679     3.330860     3.325042     3.319223     3.313405     3.307586
      3.301767     3.295949     3.290130     3.284312     3.278493     3.272674     3.266856     3.261037     3.255219     3.249400
      3.243581     3.237763     3.231944     3.226125     3.220307     3.214488     3.208670     3.202851     3.197032     3.191214
      3.185395     3.179577     3.173758     3.167939     3.162121     3.156302     3.150484     3.144665     3.138846     3.133028
      3.127209     3.121391     3.115572     3.109753     3.103935     3.098116     3.092298     3.086479     3.080660     3.074842
      3.069023     3.063205     3.057386     3.051567     3.045749     3.039930     3.034111     3.028293     3.022474     3.016656
      3.010837     3.005018     2.999200     2.993381     2.987563     2.981744     2.975925     2.970107     2.964288     2.958470
      2.952651     2.946832     2.941014     2.935195     2.929377     2.923558     2.917739     2.911921     2.906102     2.900284
      2.894465     2.888646     2.882828     2.877009     2.871191     2.865372     2.859553     2.853735     2.847916     2.842098
      2.836279     2.830460     2.824642     2.818823     2.813004     2.807186     2.801367     2.795549     2.789730     2.783911
      2.778093     2.772274     2.766456     2.760637     2.754818     2.749000     2.743181     2.737363     2.731544     2.725725
      2.719907     2.714088     2.708270     2.702451     2.696632     2.690814     2.684995     2.679177     2.673358     2.667539
      2.661721     2.655902     2.650084     2.644265     2.638446     2.632628     2.626809     2.620991     2.615172     2.609353
      2.603535     2.597716     2.591897     2.586079     2.580260     2.574442     2.568623     2.562804     2.556986     2.551167
      2.545349     2.539530     2.533711     2.527893     2.522074     2.516256     2.510437     2.504618     2.498800     2.492981
      2.487163     2.481344     2.475525     2.469707     2.463888     2.458070     2.452251     2.446432     2.440614     2.434795
      2.428977     2.423158     2.417339     2.411521     2.405702     2.399884     2.394065     2.388246     2.382428     2.376609
      2.370790     2.364972     2.359153     2.353335     2.347516     2.341697     2.335879     2.330060     2.324242     2.318423
      2.312604     2.306786     2.300967     2.295149     2.289330     2.283511     2.277693     2.271874     2.266056     2.260237
      2.254418     2.248600     2.242781     2.236963     2.231144     2.225325     2.219507     2.213688     2.207870     2.202051
      2.196232     2.190414     2.184595     2.178777     2.172958     2.167139     2.161321     2.155502     2.149683     2.143865
      2.138046     2.132228     2.126409     2.120590     2.114772     2.108953     2.103135     2.097316     2.091497     2.085679
      2.079860     2.074042     2.068223     2.062404     2.056586     2.050767     2.044949     2.039130     2.033311     2.027493
      2.021674     2.015856     2.010037     2.004218     1.998400     1.992581     1.986763     1.980944     1.975126     1.969307
      1.963489     1.957670     1.951852     1.946033     1.940215     1.934397     1.928578     1.922760     1.916941     1.911123
      1.905304     1.899486     1.893667     1.887849     1.882030     1.876212     1.870393     1.864575     1.858756     1.852938
      1.847119     1.841301     1.835482     1.829664     1.823845     1.818027     1.812208     1.806390     1.800571     1.794753
      1.788934     1.783116     1.777297     1.771479     1.765660     1.759842     1.754023     1.748205     1.742386     1.736568
      1.730749     1.724931     1.719113     1.713294     1.707476     1.701657     1.695839     1.690020     1.684202     1.678383
      1.672565     1.666746     1.660928     1.655109     1.649291     1.643472     1.637654     1.631835     1.626017     1.620198
      1.614380     1.608561     1.602743     1.596924     1.591106     1.585287     1.579469     1.573650     1.567832     1.562013
      1.556195     1.550376     1.544558     1.538739     1.532921     1.527102     1.521284     1.515465     1.509647     1.503829
      1.498010     1.492192     1.486373     1.480555     1.474736     1.468918     1.463099     1.457281     1.451462     1.445644
      1.439825     1.434007     1.428188     1.422370     1.416551     1.410733     1.404914     1.399096     1.393277     1.387459
      1.381640     1.375822     1.370003     1.364185     1.358366     1.352548     1.346729     1.340911     1.335092     1.329274
      1.323455     1.317637     1.311818     1.306000     1.300182     1.294363     1.288545     1.282726     1.276908     1.271089
      1.265271     1.259452     1.253634     1.247815     1.241997     1.236178     1.230360     1.224541     1.218723     1.212904
      1.207086     1.201267     1.195449     1.189630     1.183812     1.177993     1.172175     1.166356     1.160538     1.154719
      1.148901     1.143082     1.137264     1.131445     1.125627     1.119808     1.113990     1.108171     1.102353     1.096534
      1.090716     1.084898     1.079079     1.073261     1.067442     1.061624     1.055805     1.049987     1.044168     1.038350
      1.032531     1.026713     1.020894     1.015076     1.009257     1.003439     0.997620     0.991802     0.985983     0.980165
      0.974346     0.968528     0.962709     0.956891     0.951072     0.945254     0.939435     0.933617     0.927798     0.921980
      0.916161     0.910343     0.904524     0.898706     0.892887     0.887069     0.881251     0.875432     0.869614     0.863795
      0.857977     0.852158     0.846340     0.840521     0.834703     0.828884     0.823066     0.817247     0.811429     0.805610
      0.799792     0.793973     0.788155     0.782336     0.776518     0.770699     0.764881     0.759062     0.753244     0.747425
      0.741607     0.735788     0.729970     0.724151     0.718333     0.712514     0.706696     0.700877     0.695059     0.689240
      0.683422     0.677603     0.671785     0.665967     0.660148     0.654330     0.648511     0.642693     0.636874     0.631056
      0.625237     0.619419     0.613600     0.607782     0.601963     0.596145     0.590326     0.584508     0.578689     0.572871
      0.567052     0.561234     0.555415     0.549597     0.543778     0.537960     0.532141     0.526323     0.520504     0.514686
      0.508867     0.503049     0.497230     0.491412     0.485593     0.479775     0.473956     0.468138     0.462319     0.456501
      0.450682     0.444864     0.439045     0.433227     0.427408     0.421590     0.415771     0.409953     0.404134     0.398316
      0.392497     0.386679     0.380860     0.375042     0.369223     0.363405     0.357586     0.351767     0.345949     0.340130
      0.334312     0.328493     0.322675     0.316856     0.311038     0.305219     0.299401     0.293582     0.287764     0.281945
      0.276127     0.270308     0.264490     0.258671     0.252853     0.247034     0.241216     0.235397     0.229579     0.223760
      0.217942     0.212123     0.206305     0.200486
 NY phased data points follow
   1.00437E-01 -2.25833E-01 -1.06119E-01  1.98501E-01  3.02994E-01  3.99230E-01  3.11948E-01 -1.02467E-01 -2.46694E-01  1.41187E-01
   1.44738E-01  1.18917E-01  2.71901E-01  1.36775E-01  1.19241E-01  2.24770E-01  3.91610E-02  1.30550E-01  1.80983E-01  8.62705E-02
   3.37308E-01  1.81409E-01  9.23027E-02  4.87304E-02 -1.66955E-01 -1.60307E-01  1.35780E-01 -7.54137E-03 -4.16824E-01 -1.69891E-01
  -1.71256E-01  9.07559E-02  7.40876E-02 -1.81982E-01 -1.76459E-01 -3.48961E-01  1.74646E-03 -8.98061E-02 -4.33165E-01 -1.31789E-01
  -1.25267E-01 -1.91071E-01 -2.29557E-01 -2.02354E-01  3.30589E-01  1.62076E-01  4.20903E-01  4.01626E-01  2.14792E-01  1.29239E-01
  -1.40462E-01  3.37050E-01  2.11255E-02  8.33143E-02 -9.00941E-03 -2.43121E-02 -6.99546E-02 -3.12349E-01 -2.43122E-01 -2.37007E-01
   1.16414E-01 -7.74464E-02 -2.37439E-01  9.97808E-02  1.94613E-01 -4.38262E-03  4.35405E-01  2.43644E-02 -6.24049E-02  4.28042E-02
  -2.59235E-02  1.18542E-01 -1.38392E-02  3.35551E-01 -9.96107E-02 -5.96957E-02  1.61781E-01  1.79371E-01 -8.62753E-02 -3.68679E-01
  -1.74495E-01  1.94984E-01 -2.34789E-01 -4.14184E-01  3.43717E-01  3.35141E-01  3.74802E-01  1.40316E-01  1.38807E-01 -4.51447E-03
  -4.65067E-02  2.30673E-01  2.99903E-01 -4.09999E-02  1.74737E-01  2.53623E-01 -1.71432E-01  3.89690E-02 -5.52854E-02  1.33184E-01
  -3.74228E-01 -3.40363E-01 -1.85008E-01 -4.06210E-01  1.11116E-01  3.22729E-01 -6.84770E-02  3.93771E-02  3.33544E-01  2.35359E-01
   4.20464E-01  3.35351E-01  1.61630E-01 -3.35545E-02  7.25948E-01  3.21318E-01 -1.17921E-01  3.48829E-01  1.23421E-01  1.52767E-01
   9.40851E-02  9.09450E-02  1.01613E-01  3.18186E-01 -2.34885E-02  8.12048E-02 -1.70862E-02 -4.28522E-01 -1.52149E-01 -2.99669E-01
  -3.02050E-01 -1.67492E-01 -5.49796E-01 -3.36212E-01 -3.27502E-01 -7.36095E-01 -2.83775E-01 -6.80092E-01 -5.54233E-01 -3.66534E-01
  -7.11287E-01 -4.69534E-01 -3.16502E-01 -3.52184E-01 -2.66870E-01 -8.43485E-02 -2.09420E-01 -2.36354E-01 -4.18114E-02  1.34120E-01
  -3.41387E-02  1.37652E-01 -2.23612E-01 -2.24269E-01  2.16840E-01  3.89157E-01  2.81028E-01 -1.32955E-01  2.83740E-01  1.67444E-01
   2.01887E-01  4.77357E-01  4.73396E-01  3.94922E-01  2.55208E-01  1.11836E-01  4.64644E-01  4.77868E-01  1.01472E-02  2.73525E-01
  -2.37559E-01 -1.96515E-01 -1.12922E-01 -5.99066E-01 -4.34017E-01 -3.15765E-01 -2.00545E-01 -3.24729E-01 -9.06677E-02 -6.35990E-02
  -3.49812E-01 -3.38755E-01 -5.67010E-01 -3.26294E-01 -9.60277E-02 -2.21407E-01 -2.97051E-01 -4.95202E-01 -9.84012E-02  1.81283E-01
  -2.95394E-01 -1.90757E-01 -1.49549E-01 -2.01723E-01  1.19502E-01 -2.54337E-01 -2.14090E-01 -4.47713E-02 -6.69953E-02 -4.16584E-02
  -1.81637E-01 -9.17046E-02  1.60966E-01  3.24880E-01 -1.08733E-01 -7.93671E-02  1.62445E-02 -1.24179E-01 -1.44367E-01 -9.25277E-02
  -2.30691E-02  5.45201E-02  7.24032E-03  7.44879E-02  4.22005E-01 -3.51291E-01 -1.35102E-01  1.66908E-01  3.40505E-02  1.75984E-01
  -3.12207E-01  4.52410E-01  2.37473E-01 -1.21246E-01  5.38391E-02 -4.94667E-02  4.42804E-01  1.40841E-02  1.57799E-01  3.22420E-01
   1.12144E-01  3.24348E-04  3.24650E-02  3.00150E-01 -5.90338E-02  1.33549E-01  3.09342E-01  1.02324E-01  1.42211E-01  1.41287E-01
  -2.26197E-01 -4.77509E-02  1.54339E-01 -9.97823E-02  7.79617E-02  2.26599E-01  2.77776E-02 -1.59605E-01  1.28148E-02 -1.50901E-01
  -1.83870E-01 -1.44992E-01  5.61150E-02 -1.28104E-01 -2.58196E-01  2.28706E-01  9.80437E-02 -1.10610E-01 -2.62630E-01 -1.10837E-01
   2.79265E-01  2.18832E-01 -1.73772E-01  1.43969E-01  1.19729E-01  1.62465E-01  1.27867E-01 -2.74821E-01  7.26686E-02  1.98438E-01
   2.54085E-01 -1.44810E-02  1.60668E-01  5.01669E-02 -1.22507E-01  3.51018E-01  1.77400E-01 -1.50551E-01 -1.91085E-01 -1.16461E-01
  -7.53998E-03 -1.65886E-01 -3.14800E-01  1.00631E-02  9.43668E-02  2.95531E-02  1.09452E-02  1.84511E-01  6.93459E-02  4.20445E-02
   4.45567E-01  3.96768E-01  2.19084E-01  3.90096E-02 -5.28806E-02  1.01792E-01 -2.29338E-01  4.16611E-02  4.48112E-01  1.01391E-01
   2.44606E-01  2.56951E-01  5.62655E-01  2.63394E-01  1.67123E-01  1.57844E-01  2.29714E-01  5.28454E-01 -1.26593E-01  1.67218E-02
   1.97653E-01  1.43389E-01  4.46179E-02  2.60834E-01 -1.66743E-01 -1.13583E-01  4.11439E-01 -6.85522E-02 -1.59718E-01  1.35579E-01
   2.37807E-01 -8.79407E-02 -3.50983E-01 -3.29132E-01  5.13896E-02 -9.18341E-02  6.18492E-02  2.13292E-02  9.50975E-02 -1.09004E-02
   9.02826E-02  2.41622E-01 -3.47198E-01  2.02925E-01 -2.29945E-02 -2.81364E-01 -4.38394E-02 -1.60306E-01 -3.82538E-01 -2.20909E-01
  -4.02497E-01 -2.27029E-01 -3.69140E-01 -7.59416E-01 -5.51894E-01 -9.64088E-01 -7.04861E-01 -5.80340E-01 -3.23097E-01 -6.20046E-01
   4.74921E-02  1.79876E-01 -2.29494E-01  2.80680E-01  1.45029E-02  3.87012E-01  1.88787E-02  2.46115E-01  4.91127E-01 -3.30532E-02
  -1.46458E-02  3.51900E-02 -8.26880E-02  1.82127E-01  3.95676E-01  1.26672E-01  1.13044E-01  1.35924E-01 -2.59827E-02 -2.81908E-01
   1.85311E-01  1.71610E-01 -1.95682E-01  1.49347E-01  2.11801E-01 -4.05102E-02  1.65671E-01  3.28337E-02 -5.39601E-02  2.26335E-01
   8.59899E-02  4.18845E-02  1.50055E-01  8.46058E-02 -4.99461E-03  6.95367E-02 -6.31597E-02  1.70926E-01  3.57666E-01  2.95481E-01
   2.99331E-02 -1.85110E-01  1.34985E-01  3.69934E-01  1.17869E-02  7.37883E-02  2.03397E-01 -9.55103E-02  2.24510E-01  1.54384E-01
   3.07797E-01 -2.56104E-02 -2.65708E-01 -1.23054E-01 -1.31321E-01  9.39729E-02 -1.76415E-02 -5.59429E-02 -1.94937E-01 -4.41655E-02
  -1.66603E-01  1.52050E-02  1.50924E-02 -1.04226E-02  2.15488E-02 -2.05149E-01 -1.11427E-01 -5.83999E-02 -2.20479E-01 -4.48679E-01
   3.06343E-02 -2.63937E-01 -2.61320E-01 -1.88698E-01 -2.89087E-01 -2.87997E-02 -3.09098E-01 -1.23004E-01 -9.25905E-02 -1.83929E-01
  -2.66031E-01 -5.34639E-02 -1.40207E-01 -3.97933E-01 -7.26754E-02 -6.79967E-02  2.96320E-03  1.91634E-01  9.55896E-02 -8.87423E-02
   1.24078E-01 -9.26552E-02  1.68395E-02  2.34967E-01 -1.29306E-01  3.56571E-01  2.03294E-01  3.95628E-02  1.51943E-01  1.13844E-01
   4.18398E-01  1.05512E-01 -8.61693E-02  6.81099E-02  3.01522E-01  2.36351E-01  7.25449E-02  7.34065E-02  1.92591E-01  1.66722E-01
  -1.28915E-01  7.92207E-03  1.98324E-01  7.45593E-02  5.16556E-02  2.72920E-01  2.91565E-01 -6.44412E-03 -2.03804E-01 -1.79047E-01
  -7.32512E-02 -2.07422E-02 -3.12652E-01 -1.17654E-01  3.28092E-02 -1.56550E-01 -1.75555E-02 -8.22595E-02  9.97857E-02  1.01543E-02
  -2.87674E-01 -5.88893E-03 -6.32342E-02 -4.14845E-01 -3.63760E-02  2.49493E-01  6.37514E-02 -1.07015E-01 -1.84543E-01 -3.79890E-01
  -3.84373E-03  3.50878E-01  1.24033E-01  3.37083E-01  8.35994E-02  2.23271E-01  2.87295E-01  7.44316E-02  2.05770E-02 -2.11991E-01
   4.22763E-03  3.01573E-01  1.08223E-01 -3.68116E-01 -5.67206E-03  2.26532E-02 -3.55263E-02  1.58650E-01  2.23749E-01  2.59441E-01
   7.05033E-02 -2.45799E-02  3.94522E-02  2.21433E-01  1.25048E-01  2.26878E-01  7.74707E-04 -5.74020E-02  1.26958E-01 -7.81354E-02
   5.47710E-02  3.47915E-02 -2.30168E-02 -6.23472E-02 -2.64292E-01 -1.97197E-01 -3.82353E-01 -3.94036E-01 -3.21212E-02 -1.70173E-01
  -3.79849E-01 -1.89733E-01 -2.09539E-01 -4.34811E-01 -1.91662E-01 -1.87483E-01 -2.72234E-01 -2.82290E-01 -8.62191E-02  6.82986E-03
  -1.81267E-01 -3.90371E-02 -6.17315E-03  3.41500E-02 -1.28344E-01  1.02414E-01  5.46394E-02 -2.40544E-01  1.99277E-03  1.23148E-01
   1.84965E-01  6.06183E-03  6.95628E-02 -1.51697E-01 -2.04149E-01  4.31256E-01  4.65423E-02 -1.63387E-01  1.18737E-01 -9.55178E-02
   1.92469E-01  3.28332E-02 -2.02398E-02  2.61291E-01  1.31157E-01  2.95068E-01  1.40442E-01  8.56239E-03 -8.96039E-02  1.34255E-01
   9.32333E-02 -4.42530E-01  1.96883E-01  1.90920E-01 -2.55494E-01 -1.43056E-01 -2.10359E-01 -8.00911E-02 -2.48402E-01  8.16892E-02
   1.70309E-01  1.13613E-01  3.48348E-01  2.31222E-01  2.86795E-01  3.94337E-01  4.09535E-01 -5.43301E-02 -7.89253E-02  1.33657E-01
   4.94195E-01  8.57435E-02 -3.61875E-02  2.93731E-01 -5.27230E-02 -1.47745E-02 -3.86322E-01  2.32546E-01  2.21692E-01 -1.85379E-01
   1.57063E-01  1.86990E-01  8.14178E-02 -4.90830E-02  7.83697E-02 -1.68819E-01  3.29935E-01  2.12805E-01 -2.19812E-01  5.43813E-02
   2.49855E-02  1.51196E-01  2.39483E-02 -1.68149E-01 -2.29022E-02 -3.38461E-03  1.78830E-01  2.94662E-01  3.28335E-02  7.63162E-02
   3.57132E-02  2.29793E-02  1.15940E-01  3.58777E-01  1.69329E-01  2.67300E-02  1.99125E-01 -1.29513E-01  7.00180E-02  1.10794E-01
   6.59634E-02  9.63185E-02  1.74916E-01  1.71941E-01 -7.88032E-02  6.66237E-02 -5.84326E-02  1.68700E-01  1.56723E-01 -1.68219E-01
  -1.10689E-01  5.61083E-02  7.36678E-02 -2.08333E-01  8.55610E-03 -9.89774E-02  1.37485E-01  1.16674E-01 -2.36895E-01  2.25296E-01
   9.00330E-02  2.10793E-02  2.22488E-01  3.43757E-01
 NY points of the fit to the data follow
   1.27984E-01  1.31256E-01  1.30632E-01  1.24415E-01  1.15510E-01  1.04094E-01  9.14039E-02  8.10605E-02  7.83060E-02  8.69036E-02
   1.05375E-01  1.28940E-01  1.54373E-01  1.82028E-01  2.12152E-01  2.41025E-01  2.62145E-01  2.70453E-01  2.60849E-01  2.32054E-01
   1.88130E-01  1.35592E-01  8.14907E-02  3.35963E-02 -2.38143E-03 -2.69359E-02 -4.28660E-02 -5.43666E-02 -6.55951E-02 -7.60387E-02
  -8.58504E-02 -9.55112E-02 -1.05062E-01 -1.14435E-01 -1.22451E-01 -1.28657E-01 -1.31842E-01 -1.31337E-01 -1.25365E-01 -1.12156E-01
  -9.07929E-02 -6.13454E-02 -2.49150E-02  1.61533E-02  5.87246E-02  9.93964E-02  1.34501E-01  1.61194E-01  1.77252E-01  1.82045E-01
   1.75668E-01  1.59201E-01  1.34315E-01  1.02748E-01  6.59920E-02  2.72190E-02 -1.05097E-02 -4.61584E-02 -7.76752E-02 -1.03746E-01
  -1.22951E-01 -1.32390E-01 -1.30239E-01 -1.15106E-01 -8.72037E-02 -4.86711E-02 -2.96303E-03  4.51007E-02  9.15491E-02  1.32237E-01
   1.63568E-01  1.83118E-01  1.87454E-01  1.74485E-01  1.44812E-01  1.03764E-01  5.72965E-02  1.01687E-02 -3.20222E-02 -6.52661E-02
  -8.50173E-02 -8.78968E-02 -7.39613E-02 -4.28016E-02  3.68956E-03  5.89264E-02  1.14876E-01  1.63195E-01  1.97133E-01  2.11463E-01
   2.08808E-01  1.90821E-01  1.60461E-01  1.21118E-01  7.48708E-02  2.50156E-02 -2.43407E-02 -7.08470E-02 -1.12189E-01 -1.44738E-01
  -1.63743E-01 -1.63403E-01 -1.40972E-01 -9.59823E-02 -3.37713E-02  3.70480E-02  1.06169E-01  1.64260E-01  2.05441E-01  2.28077E-01
   2.35994E-01  2.34090E-01  2.27604E-01  2.21381E-01  2.15601E-01  2.10573E-01  2.05126E-01  1.97449E-01  1.87298E-01  1.73637E-01
   1.56709E-01  1.35515E-01  1.08540E-01  7.39635E-02  3.06039E-02 -2.27052E-02 -8.30978E-02 -1.42170E-01 -1.96328E-01 -2.47777E-01
  -3.02979E-01 -3.63204E-01 -4.20678E-01 -4.65203E-01 -4.96110E-01 -5.20329E-01 -5.43332E-01 -5.64218E-01 -5.76970E-01 -5.74173E-01
  -5.45919E-01 -4.88231E-01 -4.05431E-01 -3.06070E-01 -2.04159E-01 -1.15622E-01 -5.00978E-02 -6.67356E-03  2.05350E-02  4.06629E-02
   5.92499E-02  7.59958E-02  9.14198E-02  1.06066E-01  1.20554E-01  1.35732E-01  1.52328E-01  1.65832E-01  1.79879E-01  1.99197E-01
   2.25067E-01  2.51567E-01  2.68329E-01  2.69929E-01  2.58642E-01  2.36894E-01  2.00429E-01  1.41873E-01  5.96067E-02 -3.92216E-02
  -1.45432E-01 -2.43377E-01 -3.18184E-01 -3.62309E-01 -3.74463E-01 -3.57864E-01 -3.23529E-01 -2.86792E-01 -2.55660E-01 -2.33745E-01
  -2.19182E-01 -2.05646E-01 -1.93116E-01 -1.81670E-01 -1.71244E-01 -1.61598E-01 -1.52567E-01 -1.43918E-01 -1.35616E-01 -1.27615E-01
  -1.19825E-01 -1.12151E-01 -1.04562E-01 -9.71041E-02 -8.98240E-02 -8.26948E-02 -7.56362E-02 -6.87320E-02 -6.21775E-02 -5.60823E-02
  -5.03967E-02 -4.50465E-02 -4.01153E-02 -3.58580E-02 -3.24238E-02 -2.98046E-02 -2.78550E-02 -2.64200E-02 -2.54166E-02 -2.47377E-02
  -2.42871E-02 -2.39339E-02 -2.35332E-02 -2.28820E-02 -2.14643E-02 -1.94028E-02 -1.71719E-02 -1.47383E-02 -1.09698E-02 -3.90603E-03
   6.66324E-03  1.89134E-02  3.22228E-02  4.82162E-02  6.93044E-02  9.52317E-02  1.22231E-01  1.46194E-01  1.64771E-01  1.77171E-01
   1.82769E-01  1.80524E-01  1.69881E-01  1.51083E-01  1.25248E-01  9.46010E-02  6.19386E-02  2.98593E-02  1.13168E-03 -2.12680E-02
  -3.63929E-02 -4.55701E-02 -5.11154E-02 -5.54965E-02 -5.96590E-02 -6.34822E-02 -6.63829E-02 -6.92467E-02 -7.29172E-02 -7.67702E-02
  -8.04211E-02 -8.29424E-02 -8.44839E-02 -8.46751E-02 -8.22303E-02 -7.57436E-02 -6.42485E-02 -4.81193E-02 -2.76083E-02 -2.93417E-03
   2.38127E-02  4.95306E-02  7.22629E-02  9.03105E-02  1.02511E-01  1.08747E-01  1.10100E-01  1.06964E-01  1.00100E-01  9.06963E-02
   7.86298E-02  6.50815E-02  4.98544E-02  3.26076E-02  1.38447E-02 -6.70142E-03 -2.81866E-02 -4.98338E-02 -7.01207E-02 -8.69525E-02
  -9.84254E-02 -1.02767E-01 -9.86046E-02 -8.50693E-02 -6.15803E-02 -2.89591E-02  1.04536E-02  5.29373E-02  9.34021E-02  1.27029E-01
   1.50423E-01  1.62232E-01  1.63358E-01  1.56997E-01  1.47379E-01  1.38055E-01  1.31742E-01  1.29323E-01  1.29933E-01  1.32382E-01
   1.35056E-01  1.36882E-01  1.37406E-01  1.36476E-01  1.34420E-01  1.31405E-01  1.27585E-01  1.22968E-01  1.17165E-01  1.09928E-01
   1.00715E-01  8.91988E-02  7.50230E-02  5.81470E-02  3.86616E-02  1.68512E-02 -6.79006E-03 -3.15458E-02 -5.63271E-02 -7.96901E-02
  -9.98620E-02 -1.15182E-01 -1.24459E-01 -1.26856E-01 -1.22433E-01 -1.11604E-01 -9.59420E-02 -7.73470E-02 -5.84200E-02 -4.16930E-02
  -2.96932E-02 -2.66091E-02 -3.34715E-02 -4.32973E-02 -5.44288E-02 -7.26015E-02 -1.07035E-01 -1.61367E-01 -2.28136E-01 -2.98553E-01
  -3.71939E-01 -4.53052E-01 -5.39961E-01 -6.19259E-01 -6.74390E-01 -6.90962E-01 -6.58158E-01 -5.78178E-01 -4.64864E-01 -3.36768E-01
  -2.14272E-01 -1.17414E-01 -5.47408E-02 -2.12191E-02 -7.00892E-03  1.47974E-04  6.52640E-03  1.07047E-02  1.28866E-02  1.34193E-02
   1.27028E-02  1.11832E-02  9.28493E-03  7.47111E-03  6.21959E-03  5.95198E-03  7.01476E-03  9.53072E-03  1.33985E-02  1.82889E-02
   2.38124E-02  2.95806E-02  3.52595E-02  4.06572E-02  4.55813E-02  5.00267E-02  5.40394E-02  5.76774E-02  6.10832E-02  6.42744E-02
   6.72880E-02  7.01258E-02  7.28183E-02  7.53788E-02  7.78352E-02  8.01968E-02  8.24578E-02  8.46124E-02  8.66348E-02  8.84914E-02
   9.01576E-02  9.16168E-02  9.27979E-02  9.35733E-02  9.37930E-02  9.33142E-02  9.20598E-02  8.99794E-02  8.71089E-02  8.35396E-02
   7.93820E-02  7.47400E-02  6.96647E-02  6.41959E-02  5.84009E-02  5.24155E-02  4.63760E-02  4.04326E-02  3.47119E-02  2.92930E-02
   2.42046E-02  1.94659E-02  1.51043E-02  1.11216E-02  7.51432E-03  4.27367E-03  1.37553E-03 -1.19001E-03 -3.42287E-03 -5.29737E-03
  -6.80159E-03 -7.88042E-03 -8.44897E-03 -8.41475E-03 -7.69606E-03 -6.29286E-03 -4.26364E-03 -1.69241E-03  1.38175E-03  4.93582E-03
   8.90144E-03  1.31418E-02  1.75746E-02  2.21740E-02  2.70026E-02  3.22191E-02  3.79548E-02  4.42971E-02  5.12836E-02  5.89133E-02
   6.71282E-02  7.58556E-02  8.50018E-02  9.44262E-02  1.03996E-01  1.13532E-01  1.22797E-01  1.31504E-01  1.39371E-01  1.46145E-01
   1.51598E-01  1.55542E-01  1.57843E-01  1.58450E-01  1.57403E-01  1.54851E-01  1.50894E-01  1.45641E-01  1.39205E-01  1.31732E-01
   1.23435E-01  1.14568E-01  1.05389E-01  9.61481E-02  8.71047E-02  7.84570E-02  7.03178E-02  6.27389E-02  5.57701E-02  4.94786E-02
   4.39303E-02  3.91892E-02  3.52906E-02  3.22411E-02  3.00701E-02  2.88321E-02  2.85644E-02  2.92718E-02  3.09149E-02  3.33676E-02
   3.64740E-02  4.00555E-02  4.39318E-02  4.79355E-02  5.19473E-02  5.58102E-02  5.93464E-02  6.24409E-02  6.50362E-02  6.71181E-02
   6.86684E-02  6.96806E-02  7.01549E-02  7.00758E-02  6.94201E-02  6.81564E-02  6.62839E-02  6.38874E-02  6.10989E-02  5.80296E-02
   5.47665E-02  5.13851E-02  4.79342E-02  4.44452E-02  4.09405E-02  3.74000E-02  3.38206E-02  3.02225E-02  2.66014E-02  2.29290E-02
   1.91468E-02  1.51808E-02  1.09585E-02  6.35012E-03  1.18410E-03 -4.72700E-03 -1.15294E-02 -1.92957E-02 -2.80431E-02 -3.77989E-02
  -4.85683E-02 -6.02976E-02 -7.28897E-02 -8.61836E-02 -9.99223E-02 -1.13714E-01 -1.27101E-01 -1.39665E-01 -1.51060E-01 -1.60992E-01
  -1.69210E-01 -1.75512E-01 -1.79775E-01 -1.82003E-01 -1.82244E-01 -1.80621E-01 -1.77334E-01 -1.72617E-01 -1.66751E-01 -1.60022E-01
  -1.52678E-01 -1.44852E-01 -1.36630E-01 -1.28072E-01 -1.19200E-01 -1.10004E-01 -1.00479E-01 -9.06575E-02 -8.06858E-02 -7.07494E-02
  -6.09864E-02 -5.14884E-02 -4.23198E-02 -3.35868E-02 -2.53566E-02 -1.76473E-02 -1.04505E-02 -3.76612E-03  2.36616E-03  7.93115E-03
   1.29505E-02  1.74486E-02  2.14464E-02  2.49660E-02  2.80272E-02  3.06618E-02  3.29475E-02  3.49695E-02  3.67682E-02  3.83959E-02
   3.99105E-02  4.13355E-02  4.27329E-02  4.41431E-02  4.55294E-02  4.68452E-02  4.80452E-02  4.90743E-02  4.98804E-02  5.04319E-02
   5.07394E-02  5.08727E-02  5.09508E-02  5.10433E-02  5.11214E-02  5.11444E-02  5.11406E-02  5.11399E-02  5.11370E-02  5.11064E-02
   5.09973E-02  5.07944E-02  5.05028E-02  5.01268E-02  4.97165E-02  4.93841E-02  4.91919E-02  4.91306E-02  4.91712E-02  4.92802E-02
   4.94322E-02  4.96569E-02  4.99928E-02  5.05038E-02  5.12337E-02  5.21517E-02  5.31773E-02  5.42083E-02  5.51681E-02  5.60351E-02
   5.67921E-02  5.74664E-02  5.80831E-02  5.86275E-02  5.91111E-02  5.95484E-02  6.00377E-02  6.07025E-02  6.15993E-02  6.27088E-02
   6.39392E-02  6.52017E-02  6.64584E-02  6.77065E-02  6.89393E-02  7.01088E-02  7.11244E-02  7.19235E-02  7.25422E-02  7.30305E-02
   7.34275E-02  7.37843E-02  7.41708E-02  7.46505E-02  7.52750E-02  7.59959E-02  7.67544E-02  7.75700E-02  7.84902E-02  7.95507E-02
   8.07428E-02  8.20611E-02  8.35363E-02  8.51729E-02  8.69974E-02  8.90157E-02  9.12198E-02  9.36336E-02  9.63010E-02  9.92356E-02
   1.02428E-01  1.05828E-01  1.09333E-01  1.12884E-01
 NY background values follow
     7.196E-02    7.180E-02    7.163E-02    7.147E-02    7.131E-02    7.115E-02    7.098E-02    7.082E-02    7.066E-02    7.050E-02
     7.033E-02    7.017E-02    7.001E-02    6.985E-02    6.968E-02    6.952E-02    6.936E-02    6.920E-02    6.903E-02    6.887E-02
     6.871E-02    6.854E-02    6.838E-02    6.822E-02    6.806E-02    6.789E-02    6.773E-02    6.757E-02    6.741E-02    6.724E-02
     6.708E-02    6.692E-02    6.676E-02    6.659E-02    6.643E-02    6.627E-02    6.610E-02    6.594E-02    6.578E-02    6.562E-02
     6.545E-02    6.529E-02    6.513E-02    6.497E-02    6.480E-02    6.464E-02    6.448E-02    6.431E-02    6.415E-02    6.399E-02
     6.383E-02    6.366E-02    6.350E-02    6.334E-02    6.317E-02    6.301E-02    6.285E-02    6.269E-02    6.252E-02    6.236E-02
     6.220E-02    6.203E-02    6.187E-02    6.171E-02    6.154E-02    6.138E-02    6.122E-02    6.106E-02    6.089E-02    6.073E-02
