 LCModel (Version 6.3-1N) Copyright: S.W. Provencher.          Ref.: Magn. Reson. Med. 30:672-679 (1993).                
 Slice_N1@14_14  02-Jun-2023 14:37:05
 27 lines in following concentration table = NCONC+1
    Conc.  %SD /Cr+PCr  Metabolite                                         
 1.79E-06  18% 2.4E-04 Mac                                                 
 3.58E-02  32%   4.876 Cr                                                  
 2.29E-02  52%   3.124 PCr                                                 
 7.45E-02  10%  10.145 Ins                                                 
 7.27E-02   9%   9.894 NAA                                                 
 2.99E-02  22%   4.070 Tau                                                 
 7.48E-03  62%   1.018 PCho                                                
 6.93E-03  65%   0.943 GPC                                                 
 5.10E-02  17%   6.939 Glu                                                 
 2.48E-02  26%   3.375 Gln                                                 
    0.000 999%   0.000 Ala                                                 
 2.20E-02  55%   2.990 Asc                                                 
 8.47E-03  81%   1.153 Asp                                                 
 1.02E-02  36%   1.391 GABA                                                
 7.04E-03  64%   0.958 Glc                                                 
 5.71E-03  62%   0.778 GSH                                                 
    0.000 999%   0.000 Lac                                                 
 5.48E-03  79%   0.745 NAAG                                                
 9.39E-03 109%   1.278 PE                                                  
 1.44E-02  19%   1.961 GPC+PCho                                            
 7.82E-02  10%  10.639 NAA+NAAG                                            
 7.58E-02  14%  10.315 Glu+Gln                                             
 5.88E-02  12%   8.000 Cr+PCr                                              
 7.82E-02  10%  10.639 NAA+NAAG                                            
 5.88E-02  12%   8.000 Cr+PCr                                              
 7.58E-02  14%  10.315 Glu+Gln                                             
   6 lines in following misc. output table
  FWHM = 0.023 ppm    S/N =   4                                            
  Data shift = 0.012 ppm                                                   
  Ph: -57 deg     -10.5 deg/ppm                                            
  alphaB,S = 3.1E+01,   4.2E+00                                            
   18 spline knots.   Ns = 5(1)                                            
   2 inflections.     1 extrema                                            
  654 points on ppm-axis = NY
      4.000000     3.994181     3.988363     3.982544     3.976726     3.970907     3.965088     3.959270     3.953451     3.947633
      3.941814     3.935995     3.930177     3.924358     3.918540     3.912721     3.906902     3.901084     3.895265     3.889446
      3.883628     3.877809     3.871991     3.866172     3.860353     3.854535     3.848716     3.842898     3.837079     3.831260
      3.825442     3.819623     3.813805     3.807986     3.802167     3.796349     3.790530     3.784712     3.778893     3.773074
      3.767256     3.761437     3.755619     3.749800     3.743981     3.738163     3.732344     3.726526     3.720707     3.714888
      3.709070     3.703251     3.697433     3.691614     3.685795     3.679977     3.674158     3.668339     3.662521     3.656702
      3.650884     3.645065     3.639246     3.633428     3.627609     3.621791     3.615972     3.610153     3.604335     3.598516
      3.592698     3.586879     3.581060     3.575242     3.569423     3.563605     3.557786     3.551967     3.546149     3.540330
      3.534512     3.528693     3.522874     3.517056     3.511237     3.505419     3.499600     3.493781     3.487963     3.482144
      3.476326     3.470507     3.464688     3.458870     3.453051     3.447232     3.441414     3.435595     3.429777     3.423958
      3.418139     3.412321     3.406502     3.400684     3.394865     3.389046     3.383228     3.377409     3.371591     3.365772
      3.359953     3.354135     3.348316     3.342498     3.336679     3.330860     3.325042     3.319223     3.313405     3.307586
      3.301767     3.295949     3.290130     3.284312     3.278493     3.272674     3.266856     3.261037     3.255219     3.249400
      3.243581     3.237763     3.231944     3.226125     3.220307     3.214488     3.208670     3.202851     3.197032     3.191214
      3.185395     3.179577     3.173758     3.167939     3.162121     3.156302     3.150484     3.144665     3.138846     3.133028
      3.127209     3.121391     3.115572     3.109753     3.103935     3.098116     3.092298     3.086479     3.080660     3.074842
      3.069023     3.063205     3.057386     3.051567     3.045749     3.039930     3.034111     3.028293     3.022474     3.016656
      3.010837     3.005018     2.999200     2.993381     2.987563     2.981744     2.975925     2.970107     2.964288     2.958470
      2.952651     2.946832     2.941014     2.935195     2.929377     2.923558     2.917739     2.911921     2.906102     2.900284
      2.894465     2.888646     2.882828     2.877009     2.871191     2.865372     2.859553     2.853735     2.847916     2.842098
      2.836279     2.830460     2.824642     2.818823     2.813004     2.807186     2.801367     2.795549     2.789730     2.783911
      2.778093     2.772274     2.766456     2.760637     2.754818     2.749000     2.743181     2.737363     2.731544     2.725725
      2.719907     2.714088     2.708270     2.702451     2.696632     2.690814     2.684995     2.679177     2.673358     2.667539
      2.661721     2.655902     2.650084     2.644265     2.638446     2.632628     2.626809     2.620991     2.615172     2.609353
      2.603535     2.597716     2.591897     2.586079     2.580260     2.574442     2.568623     2.562804     2.556986     2.551167
      2.545349     2.539530     2.533711     2.527893     2.522074     2.516256     2.510437     2.504618     2.498800     2.492981
      2.487163     2.481344     2.475525     2.469707     2.463888     2.458070     2.452251     2.446432     2.440614     2.434795
      2.428977     2.423158     2.417339     2.411521     2.405702     2.399884     2.394065     2.388246     2.382428     2.376609
      2.370790     2.364972     2.359153     2.353335     2.347516     2.341697     2.335879     2.330060     2.324242     2.318423
      2.312604     2.306786     2.300967     2.295149     2.289330     2.283511     2.277693     2.271874     2.266056     2.260237
      2.254418     2.248600     2.242781     2.236963     2.231144     2.225325     2.219507     2.213688     2.207870     2.202051
      2.196232     2.190414     2.184595     2.178777     2.172958     2.167139     2.161321     2.155502     2.149683     2.143865
      2.138046     2.132228     2.126409     2.120590     2.114772     2.108953     2.103135     2.097316     2.091497     2.085679
      2.079860     2.074042     2.068223     2.062404     2.056586     2.050767     2.044949     2.039130     2.033311     2.027493
      2.021674     2.015856     2.010037     2.004218     1.998400     1.992581     1.986763     1.980944     1.975126     1.969307
      1.963489     1.957670     1.951852     1.946033     1.940215     1.934397     1.928578     1.922760     1.916941     1.911123
      1.905304     1.899486     1.893667     1.887849     1.882030     1.876212     1.870393     1.864575     1.858756     1.852938
      1.847119     1.841301     1.835482     1.829664     1.823845     1.818027     1.812208     1.806390     1.800571     1.794753
      1.788934     1.783116     1.777297     1.771479     1.765660     1.759842     1.754023     1.748205     1.742386     1.736568
      1.730749     1.724931     1.719113     1.713294     1.707476     1.701657     1.695839     1.690020     1.684202     1.678383
      1.672565     1.666746     1.660928     1.655109     1.649291     1.643472     1.637654     1.631835     1.626017     1.620198
      1.614380     1.608561     1.602743     1.596924     1.591106     1.585287     1.579469     1.573650     1.567832     1.562013
      1.556195     1.550376     1.544558     1.538739     1.532921     1.527102     1.521284     1.515465     1.509647     1.503829
      1.498010     1.492192     1.486373     1.480555     1.474736     1.468918     1.463099     1.457281     1.451462     1.445644
      1.439825     1.434007     1.428188     1.422370     1.416551     1.410733     1.404914     1.399096     1.393277     1.387459
      1.381640     1.375822     1.370003     1.364185     1.358366     1.352548     1.346729     1.340911     1.335092     1.329274
      1.323455     1.317637     1.311818     1.306000     1.300182     1.294363     1.288545     1.282726     1.276908     1.271089
      1.265271     1.259452     1.253634     1.247815     1.241997     1.236178     1.230360     1.224541     1.218723     1.212904
      1.207086     1.201267     1.195449     1.189630     1.183812     1.177993     1.172175     1.166356     1.160538     1.154719
      1.148901     1.143082     1.137264     1.131445     1.125627     1.119808     1.113990     1.108171     1.102353     1.096534
      1.090716     1.084898     1.079079     1.073261     1.067442     1.061624     1.055805     1.049987     1.044168     1.038350
      1.032531     1.026713     1.020894     1.015076     1.009257     1.003439     0.997620     0.991802     0.985983     0.980165
      0.974346     0.968528     0.962709     0.956891     0.951072     0.945254     0.939435     0.933617     0.927798     0.921980
      0.916161     0.910343     0.904524     0.898706     0.892887     0.887069     0.881251     0.875432     0.869614     0.863795
      0.857977     0.852158     0.846340     0.840521     0.834703     0.828884     0.823066     0.817247     0.811429     0.805610
      0.799792     0.793973     0.788155     0.782336     0.776518     0.770699     0.764881     0.759062     0.753244     0.747425
      0.741607     0.735788     0.729970     0.724151     0.718333     0.712514     0.706696     0.700877     0.695059     0.689240
      0.683422     0.677603     0.671785     0.665967     0.660148     0.654330     0.648511     0.642693     0.636874     0.631056
      0.625237     0.619419     0.613600     0.607782     0.601963     0.596145     0.590326     0.584508     0.578689     0.572871
      0.567052     0.561234     0.555415     0.549597     0.543778     0.537960     0.532141     0.526323     0.520504     0.514686
      0.508867     0.503049     0.497230     0.491412     0.485593     0.479775     0.473956     0.468138     0.462319     0.456501
      0.450682     0.444864     0.439045     0.433227     0.427408     0.421590     0.415771     0.409953     0.404134     0.398316
      0.392497     0.386679     0.380860     0.375042     0.369223     0.363405     0.357586     0.351767     0.345949     0.340130
      0.334312     0.328493     0.322675     0.316856     0.311038     0.305219     0.299401     0.293582     0.287764     0.281945
      0.276127     0.270308     0.264490     0.258671     0.252853     0.247034     0.241216     0.235397     0.229579     0.223760
      0.217942     0.212123     0.206305     0.200486
 NY phased data points follow
  -9.85653E-02 -4.61541E-02  1.39208E-01 -1.83728E-01  1.01829E-01  1.09886E-01  1.34962E-01 -1.73193E-01 -2.20401E-01 -1.97685E-01
  -1.27621E-01  4.44124E-01  7.24570E-03  3.31314E-02  5.58019E-02  3.12529E-01  1.17758E-01  1.04319E-01  2.49308E-01  1.71449E-02
   1.62654E-01 -2.16775E-01 -1.34729E-01  2.21718E-01  7.42519E-02 -2.14872E-01 -1.69365E-01 -1.73008E-01  3.04975E-02  6.76448E-02
   1.56406E-01  2.24822E-01 -2.43638E-02 -1.24890E-01 -3.33752E-02 -2.08610E-01 -3.35184E-01 -1.85895E-01 -3.67528E-01 -8.21624E-02
  -1.58591E-02  1.43934E-01  2.83152E-01  2.90551E-01  1.96555E-01  1.80851E-01  2.46822E-01  3.96663E-01  3.73048E-01  1.64109E-01
   3.48896E-01 -1.77825E-02  1.13403E-01 -1.54762E-01  2.18072E-02 -7.17171E-02 -2.16899E-01  1.48895E-01 -1.99679E-01 -2.04804E-01
  -2.85194E-01 -1.49243E-01 -5.51376E-01 -5.39950E-01 -7.41317E-01 -4.78850E-01 -3.39645E-02 -1.80209E-02  2.00017E-01  3.56548E-02
   3.10174E-01  1.34107E-01  1.39124E-01 -1.96135E-01 -1.81096E-01  1.80278E-01 -1.14262E-01 -5.22575E-01 -1.90493E-01 -2.04779E-01
  -3.44797E-01  2.11670E-01  4.89681E-02  4.27864E-01  3.02882E-01  4.11360E-01  4.25923E-01  2.72462E-01  5.71387E-01  1.58597E-01
   1.58603E-01  1.41827E-01  2.01996E-01  3.08427E-01  3.92078E-01  2.76853E-01  1.03229E-01  1.57792E-01  9.65812E-02 -2.73290E-01
  -1.80215E-01  5.37670E-02  9.28298E-02  5.27993E-01  1.34199E-01  1.34923E-01  1.88425E-01 -6.36215E-02  4.66569E-01  4.94920E-01
   2.73192E-01  3.59974E-01  3.32740E-01  2.02682E-01  2.65410E-01  2.87452E-01  1.96131E-01  1.16858E-01  2.61026E-01  4.15614E-01
   2.37165E-01  9.85310E-02  9.80469E-02 -1.11550E-01 -3.24790E-01 -5.11626E-03 -1.73708E-01 -4.31469E-01 -1.47087E-01 -7.58788E-02
  -4.91991E-02 -3.40549E-01 -4.01787E-01 -2.59998E-01 -5.96051E-01 -7.84277E-01 -7.66375E-01 -9.34607E-01 -7.28556E-01 -3.81986E-01
  -4.43698E-01 -2.58879E-01 -1.84199E-01 -3.19257E-02  1.31694E-01 -4.64588E-02  3.39379E-02  3.99608E-02  1.40706E-01  2.09401E-01
   2.79417E-01  1.85430E-01 -2.44837E-01 -2.92055E-03  1.02604E-01  1.91490E-01  3.20487E-01  2.32002E-01  3.22991E-01  3.38510E-01
   7.04522E-01  3.83920E-01  3.69450E-01  9.24627E-01  7.10365E-01  7.62986E-01  9.52899E-01  1.08407E-01 -6.60584E-01 -7.56008E-01
  -1.12257E+00 -7.34533E-01 -5.78500E-01 -6.35459E-01 -5.71097E-01 -4.94854E-01 -2.84205E-01 -4.53220E-01 -3.66376E-01 -5.43143E-01
  -4.34882E-01 -3.04930E-01 -7.64049E-02 -8.80115E-02 -3.09769E-01 -2.43100E-01 -6.46823E-02 -1.32600E-01 -2.34199E-01  8.87302E-02
  -1.65256E-01  8.46672E-02 -8.26418E-02 -7.26715E-02  8.17921E-03 -1.49046E-01 -6.89534E-02 -2.04471E-01  5.67018E-02 -1.81958E-01
  -1.18427E-01 -4.19910E-01 -2.14194E-01 -5.60450E-02 -1.63548E-01  1.82530E-03 -9.90602E-02  6.39001E-02 -1.14798E-01  2.48233E-01
   2.74433E-01  2.49852E-01 -5.14000E-02  1.17988E-01 -4.51285E-02 -2.71103E-01  3.75337E-02 -3.74719E-01  2.38246E-01 -8.06010E-03
   1.84233E-01  8.97019E-02 -2.28172E-01  3.61756E-02 -1.75174E-01  2.97775E-01  1.55820E-01  3.22551E-01  3.46523E-01  2.73074E-01
   3.41320E-01  4.26890E-01  4.37525E-01  2.13429E-01  8.16731E-02 -5.50537E-02 -8.39795E-02 -2.56597E-01 -4.31290E-02 -2.11945E-01
  -1.97961E-01 -2.49958E-01 -3.40700E-01 -2.23733E-01 -3.57990E-01 -3.55756E-01 -5.17751E-02  1.81474E-01 -2.00428E-01 -2.84978E-01
  -2.38633E-01 -2.07744E-01 -5.82159E-02  2.07068E-01  7.06958E-02 -2.55207E-02 -9.67493E-02 -1.72758E-01 -3.00310E-01 -2.07191E-01
   6.63234E-02 -1.05220E-01  1.03622E-01 -2.05090E-01 -2.84992E-02  6.63923E-02  2.76356E-01  4.87093E-01  3.27750E-01  2.43340E-01
   2.83351E-02  4.46866E-01  1.59960E-01  3.23247E-01  6.37533E-02 -2.07241E-01 -1.61674E-02 -3.20566E-02  8.25588E-02 -2.31573E-01
  -2.23940E-01 -1.72161E-01 -1.71828E-01 -4.12660E-01 -1.07047E-01 -1.75239E-01 -9.83074E-02  3.96373E-01  7.75855E-02  3.61594E-01
   3.17496E-01  9.26809E-03  2.16484E-01 -1.31483E-02  1.12815E-04  3.86086E-01  2.23675E-01 -8.57441E-02  4.14793E-02  2.19796E-01
   2.55442E-01  1.67343E-01 -4.19335E-02  2.12547E-01  4.46182E-01  5.10670E-01  3.80915E-01  2.23539E-01  3.60739E-01  4.23843E-01
   7.20579E-02 -3.34428E-02  2.51879E-01  3.85969E-02  1.51263E-01  2.24152E-01  1.29872E-01  1.16908E-01  7.87760E-02 -1.88639E-01
   1.03643E-01  1.07739E-01 -3.96805E-01 -1.96347E-01 -1.64721E-01  3.04928E-02 -1.64344E-01 -1.15409E-02  9.86115E-02  9.39058E-02
   3.05090E-01  3.85215E-01  5.42198E-03 -9.13702E-02  1.48750E-01 -1.73583E-01 -6.24306E-02 -4.17055E-01 -1.29951E-01 -1.53321E-01
  -4.92256E-01 -7.68718E-01 -1.31979E+00 -1.44720E+00 -1.31825E+00 -1.00807E+00 -3.45474E-01  2.20079E-01 -1.52184E-01  2.58618E-01
   1.00310E-01  2.73317E-01  4.06562E-01 -9.57134E-02  8.98217E-02  2.49776E-01  1.26583E-01  5.20388E-02  8.86674E-02 -1.83033E-01
   2.83356E-01  1.28945E-01  2.44521E-02  1.55482E-01  9.11164E-02 -3.92605E-02  4.35127E-02  1.91245E-01 -4.00194E-02 -1.58533E-01
  -1.32073E-01  6.96132E-02  3.34830E-02  2.77340E-01  1.66880E-01  4.59835E-01  9.82264E-02 -9.53989E-02  4.52595E-02  3.51948E-02
   1.56194E-01 -1.73997E-01  2.44253E-01  4.71776E-02  1.00754E-01  2.15711E-01  1.50860E-01  2.94691E-01  1.93952E-01  1.28063E-01
   4.00431E-01  7.95302E-02 -1.81495E-01 -9.86892E-02 -3.91658E-02  3.33865E-01  2.41146E-03  2.00100E-01  3.68424E-03  8.80210E-02
   8.37760E-02 -2.62744E-01 -5.56197E-03  2.65020E-01  4.08676E-01  1.06404E-01  8.91792E-02  6.55218E-02  5.39304E-03 -1.22168E-01
  -9.28502E-02 -1.85865E-01 -1.26455E-01 -1.27512E-01 -1.84683E-01 -2.68784E-01 -2.27586E-01 -1.05260E-01 -7.67399E-02 -1.05987E-01
  -2.08009E-01 -1.68569E-01 -1.18453E-01  4.74175E-02 -3.91613E-01  7.21313E-02 -1.40250E-01 -1.11815E-01  1.41631E-01 -4.31981E-02
   9.52361E-02 -5.29906E-01 -1.61842E-01 -2.34791E-01 -5.95244E-02 -1.18354E-01 -1.13055E-01  5.03668E-02 -2.80907E-01 -1.64642E-01
  -2.94687E-01 -2.21041E-01 -1.76687E-01 -4.51116E-02  2.84405E-01  3.36098E-01 -6.87746E-02  2.99475E-01  1.48986E-01  2.08246E-01
   4.65545E-01  2.86748E-01  3.64625E-01  9.99506E-02  2.52178E-01 -2.78899E-01 -8.77625E-02  2.82191E-01 -3.86030E-01 -2.85428E-01
   2.09381E-01  1.33773E-01 -4.36079E-02 -1.49956E-01  3.21757E-02  1.65706E-01 -1.14838E-01 -1.73912E-01 -1.43653E-01 -3.63532E-02
  -9.60001E-02  3.32242E-02 -2.95744E-02 -2.76252E-02 -2.23685E-01 -2.78874E-01 -2.33672E-01 -3.05330E-01  1.48303E-01 -9.64852E-03
  -1.35646E-01 -1.23044E-01  9.60389E-02 -1.32659E-01  2.03728E-02  3.12329E-01  1.83091E-02  2.54962E-01  9.29742E-02  4.98788E-02
   7.80099E-02  9.45819E-02  2.33691E-02  8.69332E-02  1.52180E-02  5.78089E-02  1.27612E-01 -1.24726E-01  1.47227E-01  2.38524E-03
   9.08011E-02  1.22887E-01  1.22678E-01  2.15820E-01  8.13549E-02  7.34891E-02  7.19712E-02  2.03443E-01 -3.42143E-02 -4.59841E-02
   1.17658E-01  4.29631E-02 -3.86143E-02  3.39992E-01  1.35698E-01 -1.45096E-02  2.16634E-01 -3.02421E-02  2.34903E-01  7.01382E-02
  -1.37778E-02 -1.16953E-01 -1.16072E-01 -1.99750E-01 -2.53862E-01 -2.49157E-01 -5.92742E-01  8.46395E-02 -2.69633E-01 -4.93850E-01
  -3.72803E-01 -6.23677E-01 -7.05701E-02 -3.22070E-03 -7.67028E-02 -1.10769E-01 -1.27806E-01 -1.40824E-01 -2.30429E-01 -2.72507E-01
  -1.62925E-03  1.32713E-01  1.68148E-02  1.27261E-01  3.15775E-03 -3.03397E-01 -2.77807E-01  2.20846E-01  2.17599E-01  1.27978E-01
  -1.42185E-02 -2.56852E-01  7.77095E-02  1.20567E-01 -9.97702E-03  1.96245E-01  1.42126E-01  2.93528E-02  3.57652E-01 -1.56593E-02
  -5.06051E-02  1.32145E-01 -1.84039E-01  7.60471E-02  5.62869E-02  2.19973E-01  2.64381E-01 -6.68950E-02 -8.20925E-02  1.48140E-01
   1.51673E-01  2.98794E-01  1.51533E-01 -3.78102E-01  1.82786E-01  7.94682E-02 -1.42829E-01  2.48932E-01  6.52631E-02 -9.92711E-02
   6.03492E-02  8.23430E-02  1.62291E-01  7.70156E-02 -2.14664E-02  2.90514E-01 -8.12642E-02 -2.32620E-01  1.04488E-01  9.76213E-02
  -1.39216E-01  7.62941E-02 -2.90204E-02 -2.00703E-01 -1.33820E-01 -1.91941E-01  1.30312E-01 -1.54308E-01  8.88153E-02  3.37138E-02
  -1.95681E-01  1.55496E-01 -2.78323E-01 -2.31073E-01  2.17484E-01  1.26867E-01  5.07395E-02 -3.47825E-02 -3.11173E-02 -1.36949E-01
  -1.09450E-01  1.78522E-01  3.52008E-02  1.87803E-01 -2.74222E-01 -3.55483E-01 -2.82390E-02 -2.31352E-01 -5.94289E-02  2.15146E-01
   2.05265E-01 -1.73547E-01 -7.16856E-02 -5.79279E-02  7.26546E-02  1.32423E-01  1.39717E-01  8.01394E-02 -1.52934E-01 -7.78840E-02
   2.04939E-01  2.00736E-01  1.03628E-01  3.14112E-01  1.12795E-02  1.18941E-01  1.19100E-01 -9.90845E-03 -9.41475E-02 -4.05395E-02
   1.77700E-02  1.42843E-01  2.12189E-01 -1.60742E-01  1.24746E-01  1.08307E-02 -7.07738E-02  7.54642E-02  1.31391E-01  2.12993E-01
   4.12202E-02 -5.97765E-02  9.71913E-02  2.55465E-02
 NY points of the fit to the data follow
   1.08246E-01  1.07543E-01  1.01099E-01  9.24207E-02  8.31985E-02  6.88497E-02  5.17894E-02  2.90535E-02  2.68071E-02  6.70359E-02
   9.68700E-02  2.07080E-01  3.58163E-01  4.06806E-01  4.92596E-01  5.28914E-01  4.22675E-01  3.34796E-01  2.15646E-01  7.66018E-02
   4.70443E-02  3.86018E-02  5.78484E-03 -2.32906E-02 -4.77652E-02 -6.82616E-02 -8.44645E-02 -9.49962E-02 -1.06192E-01 -1.14903E-01
  -1.20885E-01 -1.30732E-01 -1.44339E-01 -1.63189E-01 -1.90171E-01 -2.20254E-01 -2.35489E-01 -2.34853E-01 -2.12611E-01 -1.52210E-01
  -7.56724E-02 -9.68419E-03  5.21552E-02  1.13308E-01  1.57536E-01  2.16628E-01  2.59902E-01  2.34082E-01  1.96642E-01  1.52722E-01
   9.02138E-02  5.75295E-02  2.42480E-02 -2.51918E-02 -6.12591E-02 -9.90447E-02 -1.36698E-01 -1.58061E-01 -1.70298E-01 -2.05025E-01
  -2.16245E-01 -2.66862E-01 -3.44756E-01 -2.78586E-01 -2.60934E-01 -2.08422E-01  1.07251E-02  1.10190E-01  2.28547E-01  3.85433E-01
   3.60330E-01  3.24466E-01  2.92519E-01  1.82851E-01  1.05250E-01  4.66786E-02 -7.03910E-02 -2.01483E-01 -2.90157E-01 -4.43803E-01
  -4.79069E-01 -3.01024E-01 -1.50562E-01  6.43434E-02  2.97917E-01  3.57804E-01  4.09526E-01  4.47297E-01  3.67473E-01  2.99004E-01
   2.77897E-01  2.54827E-01  2.30990E-01  2.13799E-01  1.75939E-01  1.43430E-01  7.73311E-02  9.08967E-03 -4.10604E-02 -9.61310E-02
  -6.68706E-02 -5.51056E-03  7.10352E-02  1.68691E-01  2.14702E-01  2.26835E-01  2.37717E-01  2.22523E-01  2.24415E-01  2.24718E-01
   2.23954E-01  2.23763E-01  2.22109E-01  2.19756E-01  2.18125E-01  2.16786E-01  2.16770E-01  2.17716E-01  2.23056E-01  1.97730E-01
   1.79737E-01  1.57627E-01  4.76284E-02  4.04336E-03 -4.65383E-02 -1.51096E-01 -1.65282E-01 -1.99337E-01 -2.55963E-01 -2.43415E-01
  -1.96549E-01 -2.21843E-01 -2.03853E-01 -2.68131E-01 -4.99500E-01 -6.97313E-01 -8.71067E-01 -8.72456E-01 -6.38139E-01 -3.95078E-01
  -1.91281E-01 -7.00467E-02 -5.89774E-02 -2.10873E-02  8.85586E-03  3.39879E-02  5.52557E-02  7.49853E-02  9.20062E-02  1.06851E-01
   1.21403E-01  1.35386E-01  1.49239E-01  1.64093E-01  1.80393E-01  1.97947E-01  2.17457E-01  2.39828E-01  2.64358E-01  2.93003E-01
   3.29771E-01  3.78209E-01  4.52295E-01  6.90069E-01  7.04165E-01  6.91102E-01  6.89525E-01  7.93499E-02 -4.82938E-01 -7.76506E-01
  -9.98067E-01 -7.56546E-01 -4.28581E-01 -4.35566E-01 -4.12684E-01 -3.74243E-01 -3.38607E-01 -3.09531E-01 -2.82105E-01 -2.68051E-01
  -2.52020E-01 -2.35489E-01 -2.19688E-01 -2.05759E-01 -1.98484E-01 -1.92540E-01 -1.83846E-01 -1.74597E-01 -1.66482E-01 -1.57997E-01
  -1.50211E-01 -1.42374E-01 -1.34286E-01 -1.25191E-01 -1.17197E-01 -1.10055E-01 -1.02768E-01 -9.58821E-02 -8.86337E-02 -8.01381E-02
  -7.14992E-02 -6.33390E-02 -5.63105E-02 -5.26067E-02 -5.22082E-02 -5.24204E-02 -5.10467E-02 -4.54238E-02 -4.17276E-02 -4.68311E-02
  -5.65291E-02 -6.47252E-02 -6.70685E-02 -6.12291E-02 -5.31546E-02 -4.86292E-02 -4.38271E-02 -3.91765E-02 -3.92779E-02 -4.01121E-02
  -4.23556E-02 -3.42179E-02 -6.37943E-03  3.08165E-02  8.24691E-02  1.35235E-01  1.84943E-01  2.13978E-01  2.05884E-01  2.34166E-01
   2.75495E-01  2.58320E-01  2.05096E-01  9.94942E-02 -1.13208E-02 -4.44967E-02 -4.73189E-02 -5.90580E-02 -6.66637E-02 -7.48200E-02
  -8.27262E-02 -8.87509E-02 -9.42491E-02 -9.76698E-02 -1.00352E-01 -1.04322E-01 -1.07119E-01 -1.10348E-01 -1.12697E-01 -1.16061E-01
  -1.20495E-01 -1.27440E-01 -1.50430E-01 -1.53028E-01 -1.51242E-01 -1.65460E-01 -1.04370E-01 -6.30665E-02 -3.89192E-02  2.76943E-02
   2.96979E-02  5.85874E-02  8.01611E-02  5.99376E-02  7.26906E-02  8.02752E-02  1.07229E-01  1.40533E-01  1.48358E-01  1.57976E-01
   1.55707E-01  1.37573E-01  1.06606E-01  6.54870E-02  3.62736E-02  4.94422E-03 -2.23539E-02 -5.22246E-02 -9.42339E-02 -1.37341E-01
  -1.82233E-01 -2.37547E-01 -2.47000E-01 -2.30277E-01 -1.74775E-01 -4.59044E-02  6.73077E-02  1.69918E-01  2.47541E-01  2.50351E-01
   2.18029E-01  1.76316E-01  1.33241E-01  1.12175E-01  1.26063E-01  1.47757E-01  1.65452E-01  1.85555E-01  1.89809E-01  1.81099E-01
   1.77276E-01  1.66229E-01  1.59004E-01  1.54124E-01  1.48635E-01  1.40631E-01  1.32722E-01  1.22254E-01  1.03976E-01  8.99708E-02
   7.15749E-02  5.25732E-02  4.31545E-02  2.88136E-02  1.29950E-02 -7.58266E-03 -4.18459E-02 -9.23238E-02 -1.45286E-01 -1.98903E-01
  -2.46094E-01 -2.67286E-01 -2.69496E-01 -2.49550E-01 -2.02801E-01 -1.46985E-01 -8.03561E-02 -1.50058E-02  3.46616E-02  6.80240E-02
   6.55863E-02  5.26117E-02  1.47258E-02 -4.36793E-02 -8.47106E-02 -1.32615E-01 -1.66423E-01 -1.30497E-01 -4.65281E-02 -2.47976E-01
  -4.04393E-01 -6.91172E-01 -1.37586E+00 -1.52789E+00 -1.31370E+00 -9.94788E-01 -3.63652E-01 -6.37545E-02 -1.45614E-01 -9.70035E-02
  -6.68494E-02 -4.43170E-02 -2.73384E-02 -1.32467E-02 -2.53812E-03  8.10805E-03  1.39985E-02  1.51671E-02  1.48906E-02  1.48516E-03
  -1.24155E-02 -2.86852E-02 -4.90356E-02 -5.83730E-02 -6.43263E-02 -6.33075E-02 -5.17303E-02 -4.05806E-02 -2.73096E-02 -1.41864E-02
  -5.29747E-03  4.00588E-03  1.19164E-02  1.82511E-02  2.34087E-02  2.80467E-02  3.15841E-02  3.55276E-02  3.99184E-02  4.32283E-02
   4.60924E-02  4.92547E-02  5.20042E-02  5.52335E-02  5.81032E-02  6.03281E-02  6.16869E-02  6.32923E-02  6.58830E-02  6.89060E-02
   7.26804E-02  7.59174E-02  7.73491E-02  7.77006E-02  7.66684E-02  7.47686E-02  7.32048E-02  7.13266E-02  6.92719E-02  6.64544E-02
   6.21309E-02  5.72630E-02  5.22088E-02  4.65033E-02  4.10750E-02  3.59315E-02  3.13779E-02  2.67845E-02  2.23946E-02  1.81863E-02
   1.37203E-02  1.05319E-02  8.04980E-03  4.91806E-03  2.56678E-03  9.81492E-05 -2.68980E-03 -4.60810E-03 -6.83262E-03 -8.54221E-03
  -9.52925E-03 -1.09725E-02 -1.13596E-02 -1.07625E-02 -9.97064E-03 -7.76934E-03 -4.72972E-03 -1.49585E-03  2.26663E-03  6.33818E-03
   9.30831E-03  1.11261E-02  1.31497E-02  1.58212E-02  2.00319E-02  2.61595E-02  3.23490E-02  3.82345E-02  4.39847E-02  5.03689E-02
   5.84033E-02  6.69319E-02  7.62599E-02  8.60863E-02  9.51177E-02  1.04802E-01  1.14347E-01  1.22312E-01  1.29160E-01  1.33874E-01
   1.36207E-01  1.37709E-01  1.38350E-01  1.38041E-01  1.36848E-01  1.33964E-01  1.29130E-01  1.22264E-01  1.14114E-01  1.05805E-01
   9.79703E-02  9.01962E-02  8.30993E-02  7.53896E-02  6.74237E-02  6.09350E-02  5.49274E-02  4.92615E-02  4.45135E-02  3.96875E-02
   3.51240E-02  3.16972E-02  2.88323E-02  2.62594E-02  2.52811E-02  2.60872E-02  2.72549E-02  2.95365E-02  3.23415E-02  3.51921E-02
   3.90582E-02  4.36029E-02  4.80940E-02  5.22140E-02  5.55643E-02  5.79870E-02  5.98728E-02  6.15139E-02  6.35578E-02  6.62452E-02
   6.79799E-02  6.93105E-02  6.94670E-02  6.75991E-02  6.62867E-02  6.44080E-02  6.16884E-02  5.93901E-02  5.68358E-02  5.45127E-02
   5.24744E-02  5.00067E-02  4.72583E-02  4.42216E-02  4.14011E-02  3.84699E-02  3.52425E-02  3.26209E-02  3.06556E-02  2.89515E-02
   2.70051E-02  2.43598E-02  2.09375E-02  1.66750E-02  1.18256E-02  6.45535E-03  3.13624E-04 -5.89079E-03 -1.34029E-02 -2.28247E-02
  -3.41556E-02 -4.77976E-02 -6.17400E-02 -7.53107E-02 -8.88082E-02 -1.01456E-01 -1.13548E-01 -1.25040E-01 -1.34661E-01 -1.43106E-01
  -1.49763E-01 -1.53344E-01 -1.54576E-01 -1.54264E-01 -1.52043E-01 -1.48739E-01 -1.44170E-01 -1.38528E-01 -1.33288E-01 -1.28654E-01
  -1.24371E-01 -1.19053E-01 -1.12565E-01 -1.05763E-01 -9.77976E-02 -8.94692E-02 -8.11927E-02 -7.28546E-02 -6.46400E-02 -5.65989E-02
  -4.93650E-02 -4.18451E-02 -3.44095E-02 -2.81052E-02 -2.16415E-02 -1.61847E-02 -1.13313E-02 -5.23958E-03 -9.59275E-04  2.58752E-03
   6.46343E-03  8.79305E-03  1.19544E-02  1.51814E-02  1.65185E-02  1.80325E-02  1.95133E-02  2.06637E-02  2.14414E-02  2.20545E-02
   2.35355E-02  2.51527E-02  2.71603E-02  2.94656E-02  3.10367E-02  3.18100E-02  3.22561E-02  3.26716E-02  3.22999E-02  3.21372E-02
   3.27636E-02  3.22444E-02  3.18423E-02  3.22420E-02  3.18550E-02  3.23069E-02  3.33517E-02  3.33491E-02  3.37934E-02  3.35517E-02
   3.13333E-02  2.97462E-02  2.89767E-02  2.91447E-02  3.01640E-02  3.01906E-02  2.97304E-02  2.89602E-02  2.80989E-02  2.75271E-02
   2.72063E-02  2.78099E-02  2.89860E-02  2.98219E-02  3.02119E-02  3.04632E-02  3.15187E-02  3.23967E-02  3.29734E-02  3.34153E-02
   3.34786E-02  3.33065E-02  3.22359E-02  3.13837E-02  3.10047E-02  3.12170E-02  3.25142E-02  3.33652E-02  3.36387E-02  3.43160E-02
   3.42978E-02  3.52499E-02  3.69931E-02  3.82571E-02  3.95539E-02  3.92111E-02  3.76508E-02  3.67174E-02  3.62013E-02  3.67912E-02
   3.73494E-02  3.67643E-02  3.62342E-02  3.53634E-02  3.46424E-02  3.51336E-02  3.50715E-02  3.41984E-02  3.43942E-02  3.49549E-02
   3.50229E-02  3.56079E-02  3.53390E-02  3.43132E-02  3.46487E-02  3.51369E-02  3.55498E-02  3.72595E-02  3.93773E-02  4.13759E-02
   4.25955E-02  4.30462E-02  4.31644E-02  4.31472E-02
 NY background values follow
     3.205E-02    3.197E-02    3.190E-02    3.182E-02    3.174E-02    3.166E-02    3.158E-02    3.151E-02    3.143E-02    3.135E-02
     3.127E-02    3.119E-02    3.112E-02    3.104E-02    3.096E-02    3.088E-02    3.080E-02    3.073E-02    3.065E-02    3.057E-02
     3.049E-02    3.041E-02    3.034E-02    3.026E-02    3.018E-02    3.010E-02    3.002E-02    2.994E-02    2.987E-02    2.979E-02
     2.971E-02    2.963E-02    2.955E-02    2.948E-02    2.940E-02    2.932E-02    2.924E-02    2.916E-02    2.908E-02    2.901E-02
     2.893E-02    2.885E-02    2.877E-02    2.869E-02    2.861E-02    2.854E-02    2.846E-02    2.838E-02    2.830E-02    2.822E-02
     2.814E-02    2.807E-02    2.799E-02    2.791E-02    2.783E-02    2.775E-02    2.767E-02    2.760E-02    2.752E-02    2.744E-02
     2.736E-02    2.728E-02    2.720E-02    2.712E-02    2.705E-02    2.697E-02    2.689E-02    2.681E-02    2.673E-02    2.665E-02
