 
 $NMID
 ID=''
 FMTDAT='(2E13.5)'
 TRAMP=   1.00000E+0
 VOLUME=   1.00000E+0
 $END
  -9.18924E+3   1.84072E+4
  -3.64020E+4   3.87861E+4
  -2.91588E+4   4.42230E+4
  -2.69115E+4   4.04488E+4
  -2.91145E+4   4.11234E+4
  -2.73905E+4   4.22671E+4
  -2.69258E+4   4.01705E+4
  -2.82395E+4   4.00151E+4
  -2.72286E+4   4.06108E+4
  -2.69529E+4   3.91992E+4
  -2.78568E+4   3.89565E+4
  -2.70284E+4   3.92989E+4
  -2.67158E+4   3.84834E+4
  -2.75579E+4   3.82285E+4
  -2.70113E+4   3.83188E+4
  -2.67209E+4   3.75590E+4
  -2.71361E+4   3.73842E+4
  -2.66946E+4   3.75148E+4
  -2.62739E+4   3.68522E+4
  -2.67641E+4   3.66560E+4
  -2.63209E+4   3.65515E+4
  -2.59788E+4   3.61774E+4
  -2.62171E+4   3.60677E+4
  -2.59744E+4   3.60295E+4
  -2.57093E+4   3.54642E+4
  -2.57404E+4   3.53036E+4
  -2.57012E+4   3.51390E+4
  -2.55152E+4   3.46677E+4
  -2.56428E+4   3.42616E+4
  -2.54402E+4   3.40871E+4
  -2.51486E+4   3.38210E+4
  -2.52018E+4   3.34697E+4
  -2.50844E+4   3.34090E+4
  -2.47742E+4   3.28667E+4
  -2.47084E+4   3.26493E+4
  -2.45073E+4   3.25079E+4
  -2.42667E+4   3.21885E+4
  -2.40535E+4   3.19906E+4
  -2.38150E+4   3.17905E+4
  -2.35584E+4   3.16723E+4
  -2.35046E+4   3.14030E+4
  -2.33282E+4   3.12457E+4
  -2.31594E+4   3.09640E+4
  -2.29399E+4   3.07097E+4
  -2.27104E+4   3.05910E+4
  -2.25496E+4   3.03511E+4
  -2.24484E+4   3.02079E+4
  -2.22977E+4   2.99689E+4
  -2.21583E+4   2.98189E+4
  -2.20010E+4   2.96683E+4
  -2.19312E+4   2.94471E+4
  -2.17450E+4   2.92294E+4
  -2.16219E+4   2.89991E+4
  -2.13844E+4   2.88477E+4
  -2.12816E+4   2.86345E+4
  -2.11793E+4   2.84917E+4
  -2.10849E+4   2.82824E+4
  -2.09906E+4   2.80421E+4
  -2.08713E+4   2.77513E+4
  -2.07168E+4   2.75684E+4
  -2.05908E+4   2.72398E+4
  -2.05242E+4   2.70710E+4
  -2.03769E+4   2.68704E+4
  -2.03048E+4   2.66675E+4
  -2.01785E+4   2.63364E+4
  -2.00796E+4   2.61370E+4
  -1.99781E+4   2.59376E+4
  -1.98755E+4   2.56887E+4
  -1.98055E+4   2.54043E+4
  -1.97478E+4   2.51972E+4
  -1.96099E+4   2.48979E+4
  -1.95878E+4   2.46246E+4
  -1.94356E+4   2.43327E+4
  -1.93511E+4   2.40230E+4
  -1.92000E+4   2.37405E+4
  -1.90849E+4   2.35261E+4
  -1.90085E+4   2.32901E+4
  -1.89073E+4   2.29912E+4
  -1.87906E+4   2.27299E+4
  -1.86487E+4   2.24251E+4
  -1.85439E+4   2.21891E+4
  -1.84514E+4   2.19657E+4
  -1.83329E+4   2.16868E+4
  -1.82098E+4   2.14994E+4
  -1.81840E+4   2.11608E+4
  -1.80037E+4   2.10444E+4
  -1.79021E+4   2.07072E+4
  -1.77660E+4   2.05290E+4
  -1.76322E+4   2.02590E+4
  -1.75283E+4   2.00355E+4
  -1.73998E+4   1.98298E+4
  -1.72807E+4   1.95904E+4
  -1.71078E+4   1.94283E+4
  -1.70389E+4   1.92415E+4
  -1.69623E+4   1.90661E+4
  -1.68418E+4   1.87970E+4
  -1.65851E+4   1.85858E+4
  -1.65109E+4   1.84840E+4
  -1.64072E+4   1.82304E+4
  -1.63200E+4   1.79498E+4
  -1.62229E+4   1.77714E+4
  -1.61059E+4   1.76191E+4
  -1.59663E+4   1.74396E+4
  -1.58326E+4   1.72393E+4
  -1.56904E+4   1.70198E+4
  -1.55465E+4   1.68404E+4
  -1.54882E+4   1.66426E+4
  -1.53453E+4   1.64925E+4
  -1.53355E+4   1.62979E+4
  -1.50996E+4   1.60751E+4
  -1.50126E+4   1.58989E+4
  -1.48620E+4   1.57810E+4
  -1.47674E+4   1.56416E+4
  -1.46934E+4   1.54688E+4
  -1.46065E+4   1.52979E+4
  -1.44434E+4   1.51419E+4
  -1.43728E+4   1.48937E+4
  -1.42565E+4   1.47426E+4
  -1.41450E+4   1.45344E+4
  -1.39665E+4   1.43025E+4
  -1.38705E+4   1.41936E+4
  -1.37666E+4   1.40216E+4
  -1.36816E+4   1.38945E+4
  -1.35509E+4   1.37861E+4
  -1.34872E+4   1.36693E+4
  -1.34091E+4   1.34333E+4
  -1.31853E+4   1.32699E+4
  -1.30733E+4   1.31324E+4
  -1.30184E+4   1.29942E+4
  -1.29315E+4   1.27858E+4
  -1.27866E+4   1.27018E+4
  -1.26624E+4   1.25048E+4
  -1.24820E+4   1.23783E+4
  -1.24162E+4   1.22971E+4
  -1.23156E+4   1.21528E+4
  -1.22335E+4   1.20304E+4
  -1.20873E+4   1.18473E+4
  -1.19455E+4   1.18141E+4
  -1.18463E+4   1.16301E+4
  -1.17972E+4   1.15174E+4
  -1.16215E+4   1.13513E+4
  -1.14942E+4   1.13041E+4
  -1.14628E+4   1.11657E+4
  -1.13000E+4   1.09913E+4
  -1.12215E+4   1.09528E+4
  -1.11044E+4   1.07946E+4
  -1.09803E+4   1.07420E+4
  -1.09405E+4   1.05523E+4
  -1.08029E+4   1.04226E+4
  -1.07493E+4   1.03553E+4
  -1.06033E+4   1.03094E+4
  -1.05739E+4   1.01009E+4
  -1.04692E+4   9.96977E+3
  -1.03224E+4   9.89512E+3
  -1.02456E+4   9.86697E+3
  -1.02115E+4   9.69786E+3
  -1.01393E+4   9.55847E+3
  -9.97932E+3   9.45394E+3
  -9.91846E+3   9.39911E+3
  -9.87660E+3   9.23339E+3
  -9.84586E+3   9.16279E+3
  -9.69788E+3   9.03615E+3
  -9.59674E+3   8.95672E+3
  -9.54275E+3   8.84779E+3
  -9.47302E+3   8.75165E+3
  -9.46060E+3   8.60800E+3
  -9.29511E+3   8.51039E+3
  -9.20013E+3   8.39549E+3
  -9.12414E+3   8.31552E+3
  -9.03676E+3   8.22400E+3
  -8.99711E+3   8.08489E+3
  -8.84361E+3   7.96525E+3
  -8.86172E+3   7.92034E+3
  -8.67743E+3   7.79317E+3
  -8.56779E+3   7.67546E+3
  -8.43454E+3   7.53749E+3
  -8.38959E+3   7.49745E+3
  -8.35498E+3   7.31524E+3
  -8.33831E+3   7.33320E+3
  -8.15905E+3   7.22652E+3
  -8.08130E+3   7.10644E+3
  -8.00830E+3   6.91583E+3
  -7.93151E+3   6.93232E+3
  -7.78996E+3   6.79146E+3
  -7.68719E+3   6.75642E+3
  -7.58882E+3   6.60740E+3
  -7.55455E+3   6.48989E+3
  -7.50525E+3   6.46421E+3
  -7.39349E+3   6.32195E+3
  -7.27998E+3   6.26004E+3
  -7.25656E+3   6.16155E+3
  -7.14309E+3   6.11674E+3
  -7.04881E+3   5.99114E+3
  -7.03074E+3   5.85106E+3
  -6.90524E+3   5.79730E+3
  -6.74912E+3   5.72319E+3
  -6.71277E+3   5.59966E+3
  -6.66437E+3   5.52897E+3
  -6.61852E+3   5.47553E+3
  -6.43563E+3   5.39075E+3
  -6.36886E+3   5.29255E+3
  -6.38250E+3   5.24777E+3
  -6.20769E+3   5.14169E+3
  -6.20794E+3   5.09290E+3
  -6.13772E+3   5.00970E+3
  -6.05932E+3   4.91239E+3
  -5.94601E+3   4.83196E+3
  -5.89895E+3   4.74289E+3
  -5.86272E+3   4.71673E+3
  -5.72648E+3   4.62703E+3
  -5.69090E+3   4.53598E+3
  -5.66189E+3   4.49884E+3
  -5.55245E+3   4.36647E+3
  -5.52869E+3   4.33526E+3
  -5.42239E+3   4.26973E+3
  -5.30984E+3   4.24523E+3
  -5.33453E+3   4.13728E+3
  -5.23868E+3   4.12845E+3
  -5.17956E+3   4.03053E+3
  -5.16457E+3   3.91223E+3
  -5.05026E+3   3.84393E+3
  -5.01720E+3   3.82096E+3
  -4.91695E+3   3.80033E+3
  -4.89548E+3   3.73619E+3
  -4.89067E+3   3.65670E+3
  -4.79426E+3   3.57970E+3
  -4.73678E+3   3.57711E+3
  -4.70476E+3   3.52781E+3
  -4.58233E+3   3.44714E+3
  -4.63025E+3   3.35456E+3
  -4.53969E+3   3.27962E+3
  -4.47846E+3   3.25914E+3
  -4.41275E+3   3.14527E+3
  -4.36965E+3   3.10692E+3
  -4.31872E+3   3.03105E+3
  -4.21837E+3   3.01229E+3
  -4.19168E+3   3.03281E+3
  -4.18378E+3   2.89960E+3
  -4.05939E+3   2.87718E+3
  -4.05773E+3   2.80192E+3
  -3.97129E+3   2.70377E+3
  -3.89069E+3   2.64517E+3
  -3.84124E+3   2.58665E+3
  -3.84897E+3   2.54174E+3
  -3.73323E+3   2.48921E+3
  -3.79679E+3   2.51375E+3
  -3.60881E+3   2.41447E+3
  -3.63964E+3   2.40918E+3
  -3.54459E+3   2.33598E+3
  -3.52502E+3   2.27189E+3
  -3.48290E+3   2.27223E+3
  -3.43638E+3   2.20867E+3
  -3.41304E+3   2.13882E+3
  -3.39080E+3   2.09774E+3
  -3.28431E+3   2.04520E+3
  -3.29163E+3   2.04208E+3
  -3.32543E+3   2.01107E+3
  -3.15643E+3   1.88562E+3
  -3.22637E+3   1.91034E+3
  -3.10940E+3   1.86395E+3
  -3.09502E+3   1.82208E+3
  -3.02289E+3   1.71334E+3
  -3.01620E+3   1.66098E+3
  -2.90931E+3   1.67540E+3
  -2.87539E+3   1.60540E+3
  -2.88143E+3   1.58727E+3
  -2.88456E+3   1.50871E+3
  -2.82494E+3   1.59314E+3
  -2.80635E+3   1.47008E+3
  -2.76670E+3   1.46654E+3
  -2.66334E+3   1.40707E+3
  -2.64484E+3   1.31810E+3
  -2.63243E+3   1.33239E+3
  -2.57492E+3   1.33339E+3
  -2.59794E+3   1.25112E+3
  -2.46411E+3   1.23502E+3
  -2.48161E+3   1.15617E+3
  -2.48473E+3   1.11036E+3
  -2.51274E+3   1.08311E+3
  -2.40982E+3   1.03560E+3
  -2.28015E+3   1.02957E+3
  -2.33833E+3   9.30863E+2
  -2.29342E+3   9.66578E+2
  -2.24413E+3   9.57280E+2
  -2.23724E+3   8.40848E+2
  -2.19000E+3   8.59431E+2
  -2.19500E+3   7.63534E+2
  -2.14925E+3   7.88585E+2
  -2.11124E+3   7.60052E+2
  -2.14152E+3   6.39981E+2
  -2.05490E+3   6.01132E+2
  -2.07963E+3   5.99093E+2
  -1.96325E+3   5.60559E+2
  -2.00315E+3   5.80662E+2
  -1.95785E+3   5.44138E+2
  -1.91797E+3   4.09019E+2
  -1.95016E+3   4.32933E+2
  -1.92468E+3   4.67411E+2
  -1.90750E+3   4.29717E+2
  -1.87904E+3   3.38063E+2
  -1.78753E+3   3.01182E+2
  -1.74150E+3   2.82653E+2
  -1.74115E+3   2.50664E+2
  -1.72670E+3   2.21856E+2
  -1.72646E+3   2.31013E+2
  -1.70820E+3   1.62443E+2
  -1.69082E+3   1.43872E+2
  -1.70621E+3   1.58136E+2
  -1.60648E+3   1.60634E+2
  -1.64821E+3   1.55004E+2
  -1.62448E+3   7.42641E+1
  -1.56703E+3   5.74050E+1
  -1.55464E+3   7.45778E+1
  -1.54293E+3   6.11667E+0
  -1.56192E+3  -1.57909E+1
  -1.47813E+3  -4.25136E+1
  -1.48196E+3  -1.52046E+2
  -1.51371E+3  -7.69654E+1
  -1.44349E+3  -8.67696E+1
  -1.47505E+3  -1.40774E+2
  -1.47720E+3  -1.19416E+2
  -1.38133E+3  -1.49363E+2
  -1.38558E+3  -1.71302E+2
  -1.39662E+3  -1.64922E+2
  -1.35224E+3  -2.07265E+2
  -1.34995E+3  -1.64900E+2
  -1.30241E+3  -2.26068E+2
  -1.36907E+3  -3.09048E+2
  -1.28977E+3  -2.87620E+2
  -1.20928E+3  -3.57233E+2
  -1.26106E+3  -3.99645E+2
  -1.27779E+3  -3.40607E+2
  -1.22419E+3  -3.74892E+2
  -1.21429E+3  -4.04262E+2
  -1.14742E+3  -3.51115E+2
  -1.12660E+3  -3.97831E+2
  -1.09074E+3  -4.55665E+2
  -1.20805E+3  -4.29475E+2
  -1.06452E+3  -4.54806E+2
  -1.11044E+3  -4.76729E+2
  -1.09405E+3  -4.75082E+2
  -1.07047E+3  -5.21784E+2
  -1.03652E+3  -4.89791E+2
  -1.03739E+3  -5.28322E+2
  -1.01408E+3  -4.82763E+2
  -9.80550E+2  -5.29455E+2
  -9.48405E+2  -5.78070E+2
  -9.58239E+2  -5.57331E+2
  -9.32153E+2  -5.87935E+2
  -9.84819E+2  -5.89044E+2
  -8.88406E+2  -6.56651E+2
  -9.45049E+2  -6.14267E+2
  -8.52357E+2  -6.29372E+2
  -8.74798E+2  -6.35452E+2
  -9.11324E+2  -6.13513E+2
  -8.93166E+2  -6.37236E+2
  -8.48959E+2  -6.21179E+2
  -8.49958E+2  -6.60932E+2
  -8.16191E+2  -6.83030E+2
  -8.37373E+2  -7.28010E+2
  -7.64356E+2  -6.35205E+2
  -7.31902E+2  -6.87127E+2
  -7.80152E+2  -6.43336E+2
  -7.09443E+2  -7.65423E+2
  -8.02495E+2  -7.15877E+2
  -7.70929E+2  -7.23217E+2
  -7.45415E+2  -6.70701E+2
