 
 $NMID
 ID=''
 FMTDAT='(2E13.5)'
 TRAMP=   1.00000E+0
 VOLUME=   1.00000E+0
 $END
  -1.06882E+4   3.45537E+3
  -2.91466E+4   7.16685E+2
  -2.88776E+4   5.92987E+3
  -2.70364E+4   5.59319E+3
  -2.83559E+4   5.00328E+3
  -2.82943E+4   6.21007E+3
  -2.74753E+4   5.63145E+3
  -2.80695E+4   5.06971E+3
  -2.78960E+4   5.82960E+3
  -2.72786E+4   5.46851E+3
  -2.75483E+4   4.97201E+3
  -2.74115E+4   5.46836E+3
  -2.69268E+4   5.34814E+3
  -2.71768E+4   4.90721E+3
  -2.69392E+4   5.17932E+3
  -2.64624E+4   5.07921E+3
  -2.65362E+4   4.88630E+3
  -2.63820E+4   5.05070E+3
  -2.60315E+4   5.00725E+3
  -2.60600E+4   4.78966E+3
  -2.59847E+4   4.97231E+3
  -2.55792E+4   5.00865E+3
  -2.57415E+4   5.01771E+3
  -2.56542E+4   4.92476E+3
  -2.53393E+4   4.84026E+3
  -2.54104E+4   4.75569E+3
  -2.54639E+4   4.65478E+3
  -2.51613E+4   4.42680E+3
  -2.51357E+4   4.17203E+3
  -2.49833E+4   4.11764E+3
  -2.46844E+4   4.02139E+3
  -2.45874E+4   3.86534E+3
  -2.44914E+4   3.74730E+3
  -2.41702E+4   3.62863E+3
  -2.39285E+4   3.54040E+3
  -2.37582E+4   3.59265E+3
  -2.34749E+4   3.54234E+3
  -2.32971E+4   3.55581E+3
  -2.31342E+4   3.67578E+3
  -2.30068E+4   3.70318E+3
  -2.28554E+4   3.65648E+3
  -2.28613E+4   3.66614E+3
  -2.26111E+4   3.55321E+3
  -2.24961E+4   3.55691E+3
  -2.23619E+4   3.49945E+3
  -2.23665E+4   3.55245E+3
  -2.22926E+4   3.50368E+3
  -2.21838E+4   3.48195E+3
  -2.21047E+4   3.51386E+3
  -2.19447E+4   3.31429E+3
  -2.18889E+4   3.28622E+3
  -2.17400E+4   3.27122E+3
  -2.16237E+4   3.28905E+3
  -2.15065E+4   3.33065E+3
  -2.13784E+4   3.20674E+3
  -2.13541E+4   3.18758E+3
  -2.12554E+4   3.11151E+3
  -2.10277E+4   3.07144E+3
  -2.09713E+4   3.03743E+3
  -2.07636E+4   3.00080E+3
  -2.06544E+4   2.94336E+3
  -2.05163E+4   2.92839E+3
  -2.04600E+4   3.00118E+3
  -2.04195E+4   2.87254E+3
  -2.02667E+4   2.81358E+3
  -2.01518E+4   2.83516E+3
  -2.00738E+4   2.79517E+3
  -2.00118E+4   2.72869E+3
  -1.98735E+4   2.64684E+3
  -1.97948E+4   2.59123E+3
  -1.96520E+4   2.57325E+3
  -1.96880E+4   2.46631E+3
  -1.95199E+4   2.49136E+3
  -1.93739E+4   2.48156E+3
  -1.92545E+4   2.39160E+3
  -1.91857E+4   2.46857E+3
  -1.90146E+4   2.41964E+3
  -1.89631E+4   2.35258E+3
  -1.88525E+4   2.36008E+3
  -1.87199E+4   2.36500E+3
  -1.86884E+4   2.26958E+3
  -1.85908E+4   2.35195E+3
  -1.84487E+4   2.34261E+3
  -1.83685E+4   2.30555E+3
  -1.82808E+4   2.28246E+3
  -1.82158E+4   2.22823E+3
  -1.80783E+4   2.22023E+3
  -1.79903E+4   2.17997E+3
  -1.79484E+4   2.20119E+3
  -1.77735E+4   2.19448E+3
  -1.77099E+4   2.18313E+3
  -1.76142E+4   2.11566E+3
  -1.75314E+4   2.21581E+3
  -1.74419E+4   2.15889E+3
  -1.73262E+4   2.16452E+3
  -1.71938E+4   2.13493E+3
  -1.70578E+4   2.11918E+3
  -1.69862E+4   2.18966E+3
  -1.68975E+4   2.15134E+3
  -1.68458E+4   2.08225E+3
  -1.67060E+4   2.08174E+3
  -1.65922E+4   2.04170E+3
  -1.65061E+4   2.16113E+3
  -1.64608E+4   2.12881E+3
  -1.63659E+4   2.10471E+3
  -1.62021E+4   2.04829E+3
  -1.61531E+4   2.06055E+3
  -1.61038E+4   2.06758E+3
  -1.59968E+4   2.06420E+3
  -1.58542E+4   1.95963E+3
  -1.56756E+4   2.01429E+3
  -1.55705E+4   2.00953E+3
  -1.54874E+4   2.04162E+3
  -1.54560E+4   2.01687E+3
  -1.53833E+4   2.04684E+3
  -1.52778E+4   1.95497E+3
  -1.51373E+4   1.94654E+3
  -1.49995E+4   1.93088E+3
  -1.48951E+4   1.94077E+3
  -1.47781E+4   1.90538E+3
  -1.47166E+4   1.94797E+3
  -1.46734E+4   1.94710E+3
  -1.45420E+4   1.91919E+3
  -1.42976E+4   1.86216E+3
  -1.42403E+4   1.89726E+3
  -1.41312E+4   1.81734E+3
  -1.40678E+4   1.87779E+3
  -1.39455E+4   1.85693E+3
  -1.38107E+4   1.86070E+3
  -1.37602E+4   1.91082E+3
  -1.36167E+4   1.84939E+3
  -1.34755E+4   1.82208E+3
  -1.33755E+4   1.78076E+3
  -1.33254E+4   1.80379E+3
  -1.32641E+4   1.80424E+3
  -1.31740E+4   1.90263E+3
  -1.30501E+4   1.85839E+3
  -1.29208E+4   1.85757E+3
  -1.28587E+4   1.88062E+3
  -1.27192E+4   1.81585E+3
  -1.26503E+4   1.89322E+3
  -1.25506E+4   1.86918E+3
  -1.24742E+4   1.91200E+3
  -1.23979E+4   1.89582E+3
  -1.22756E+4   1.87906E+3
  -1.22588E+4   1.84035E+3
  -1.21712E+4   1.89910E+3
  -1.20511E+4   1.87698E+3
  -1.19642E+4   1.82291E+3
  -1.18508E+4   1.78904E+3
  -1.17459E+4   1.82613E+3
  -1.16728E+4   1.80486E+3
  -1.15291E+4   1.88207E+3
  -1.14322E+4   1.84323E+3
  -1.13890E+4   1.81399E+3
  -1.13844E+4   1.89351E+3
  -1.12118E+4   1.85208E+3
  -1.11446E+4   1.89912E+3
  -1.10946E+4   1.86247E+3
  -1.10470E+4   1.88985E+3
  -1.09109E+4   1.87573E+3
  -1.08321E+4   1.86141E+3
  -1.07653E+4   1.81422E+3
  -1.07007E+4   1.84749E+3
  -1.06380E+4   1.89619E+3
  -1.05949E+4   1.85985E+3
  -1.04635E+4   1.86218E+3
  -1.03620E+4   1.92401E+3
  -1.02765E+4   1.88711E+3
  -1.02143E+4   1.87950E+3
  -1.02079E+4   1.78838E+3
  -1.00602E+4   1.77683E+3
  -1.00467E+4   1.90842E+3
  -1.00098E+4   1.85128E+3
  -9.90151E+3   1.85904E+3
  -9.79568E+3   1.93408E+3
  -9.70688E+3   1.85767E+3
  -9.64249E+3   1.95945E+3
  -9.58108E+3   1.84868E+3
  -9.52481E+3   1.90922E+3
  -9.48006E+3   1.83307E+3
  -9.34398E+3   1.93528E+3
  -9.27338E+3   1.89092E+3
  -9.25636E+3   1.89385E+3
  -9.20728E+3   1.87662E+3
  -9.14380E+3   1.91298E+3
  -9.10080E+3   1.91227E+3
  -9.07405E+3   1.89026E+3
  -8.99514E+3   1.96380E+3
  -8.86454E+3   1.86762E+3
  -8.87747E+3   1.91463E+3
  -8.74410E+3   1.95820E+3
  -8.73439E+3   1.99044E+3
  -8.62023E+3   1.95238E+3
  -8.54332E+3   1.91542E+3
  -8.51220E+3   1.92455E+3
  -8.44161E+3   1.93272E+3
  -8.43096E+3   1.93891E+3
  -8.31316E+3   1.89025E+3
  -8.34151E+3   1.95611E+3
  -8.26435E+3   1.97438E+3
  -8.23084E+3   1.87180E+3
  -8.09700E+3   1.92988E+3
  -7.98824E+3   1.90937E+3
  -8.02039E+3   1.88466E+3
  -7.95943E+3   1.93684E+3
  -7.97636E+3   1.88569E+3
  -7.91841E+3   1.93716E+3
  -7.76148E+3   1.92682E+3
  -7.74789E+3   1.97333E+3
  -7.68870E+3   1.96771E+3
  -7.61011E+3   1.93427E+3
  -7.58503E+3   1.93038E+3
  -7.54943E+3   1.98010E+3
  -7.47850E+3   2.01229E+3
  -7.45862E+3   2.03310E+3
  -7.39414E+3   1.98985E+3
  -7.36320E+3   2.05841E+3
  -7.29841E+3   2.00194E+3
  -7.24308E+3   2.02877E+3
  -7.24033E+3   1.97589E+3
  -7.16048E+3   2.05606E+3
  -7.09500E+3   2.08818E+3
  -7.06351E+3   2.06748E+3
  -6.97008E+3   2.04624E+3
  -6.92841E+3   2.12905E+3
  -6.87378E+3   2.07604E+3
  -6.80307E+3   2.08574E+3
  -6.79893E+3   2.10491E+3
  -6.71454E+3   2.02577E+3
  -6.72243E+3   2.08368E+3
  -6.65288E+3   2.06893E+3
  -6.59998E+3   2.07500E+3
  -6.53853E+3   2.06440E+3
  -6.47545E+3   2.08874E+3
  -6.47373E+3   2.10497E+3
  -6.34641E+3   2.09686E+3
  -6.39435E+3   2.11273E+3
  -6.35431E+3   2.18872E+3
  -6.32290E+3   2.13771E+3
  -6.16092E+3   2.15288E+3
  -6.20709E+3   2.16422E+3
  -6.14260E+3   2.11795E+3
  -6.04621E+3   2.13367E+3
  -6.00642E+3   2.15658E+3
  -6.00775E+3   2.17000E+3
  -5.95540E+3   2.16054E+3
  -5.93787E+3   2.14715E+3
  -5.83185E+3   2.17490E+3
  -5.78939E+3   2.19515E+3
  -5.74784E+3   2.23716E+3
  -5.73519E+3   2.20173E+3
  -5.68792E+3   2.21278E+3
  -5.57325E+3   2.23908E+3
  -5.57578E+3   2.22281E+3
  -5.54913E+3   2.16755E+3
  -5.41447E+3   2.26650E+3
  -5.45961E+3   2.22192E+3
  -5.41512E+3   2.22269E+3
  -5.38141E+3   2.25661E+3
  -5.36881E+3   2.23151E+3
  -5.27000E+3   2.18439E+3
  -5.18301E+3   2.25574E+3
  -5.20515E+3   2.25338E+3
  -5.18341E+3   2.18586E+3
  -5.05931E+3   2.20032E+3
  -5.05958E+3   2.21584E+3
  -4.95939E+3   2.25897E+3
  -5.00353E+3   2.23611E+3
  -4.83635E+3   2.22436E+3
  -4.87452E+3   2.18667E+3
  -4.86089E+3   2.22479E+3
  -4.81530E+3   2.22711E+3
  -4.72521E+3   2.17358E+3
  -4.75126E+3   2.27330E+3
  -4.69184E+3   2.21553E+3
  -4.60520E+3   2.23611E+3
  -4.62230E+3   2.26111E+3
  -4.58975E+3   2.21188E+3
  -4.45438E+3   2.21238E+3
  -4.44700E+3   2.19758E+3
  -4.46506E+3   2.24484E+3
  -4.41463E+3   2.23613E+3
  -4.39423E+3   2.15691E+3
  -4.27357E+3   2.13154E+3
  -4.28718E+3   2.20925E+3
  -4.23152E+3   2.29743E+3
  -4.21035E+3   2.21698E+3
  -4.19204E+3   2.20662E+3
  -4.11884E+3   2.21904E+3
  -4.01856E+3   2.18358E+3
  -3.98526E+3   2.27435E+3
  -4.03236E+3   2.26038E+3
  -3.96929E+3   2.25487E+3
  -3.92333E+3   2.21256E+3
  -3.96264E+3   2.18805E+3
  -3.88038E+3   2.22964E+3
  -3.84033E+3   2.21250E+3
  -3.80630E+3   2.21197E+3
  -3.76573E+3   2.17337E+3
  -3.74502E+3   2.22200E+3
  -3.72950E+3   2.16507E+3
  -3.65616E+3   2.18427E+3
  -3.68898E+3   2.27171E+3
  -3.55395E+3   2.18355E+3
  -3.56984E+3   2.12270E+3
  -3.54772E+3   2.14564E+3
  -3.42368E+3   2.15798E+3
  -3.54636E+3   2.17887E+3
  -3.46657E+3   2.19703E+3
  -3.44270E+3   2.13430E+3
  -3.33172E+3   2.19456E+3
  -3.38034E+3   2.16934E+3
  -3.31365E+3   2.14201E+3
  -3.25454E+3   2.11810E+3
  -3.22773E+3   2.11044E+3
  -3.26693E+3   2.10206E+3
  -3.19352E+3   2.08798E+3
  -3.23787E+3   2.08178E+3
  -3.14078E+3   2.06277E+3
  -3.10936E+3   2.07880E+3
  -3.09862E+3   2.08579E+3
  -3.05140E+3   2.08132E+3
  -3.05137E+3   1.96414E+3
  -3.02404E+3   2.00063E+3
  -3.02195E+3   1.99660E+3
  -2.96767E+3   2.05334E+3
  -2.90419E+3   2.03757E+3
  -2.87890E+3   2.03226E+3
  -2.83733E+3   2.03676E+3
  -2.84489E+3   2.04043E+3
  -2.90417E+3   2.01030E+3
  -2.86951E+3   1.94554E+3
  -2.77277E+3   1.94959E+3
  -2.74923E+3   2.01231E+3
  -2.73450E+3   1.93580E+3
  -2.63237E+3   1.93125E+3
  -2.65101E+3   1.95910E+3
  -2.63195E+3   1.98450E+3
  -2.59059E+3   1.88215E+3
  -2.57312E+3   1.97723E+3
  -2.54274E+3   1.97921E+3
  -2.52049E+3   1.88597E+3
  -2.50751E+3   1.95763E+3
  -2.47059E+3   1.90543E+3
  -2.49773E+3   1.89865E+3
  -2.46974E+3   1.84215E+3
  -2.41042E+3   1.82395E+3
  -2.37487E+3   1.90087E+3
  -2.31752E+3   1.85016E+3
  -2.30724E+3   1.83934E+3
  -2.30701E+3   1.82087E+3
  -2.32004E+3   1.87141E+3
  -2.22382E+3   1.75545E+3
  -2.15040E+3   1.81506E+3
  -2.17121E+3   1.77524E+3
  -2.16321E+3   1.75682E+3
  -2.16604E+3   1.81397E+3
  -2.12217E+3   1.79413E+3
  -2.08359E+3   1.78861E+3
  -2.03231E+3   1.83103E+3
  -2.04358E+3   1.74783E+3
  -2.08610E+3   1.78457E+3
  -1.97409E+3   1.85936E+3
  -2.04508E+3   1.73249E+3
  -1.91072E+3   1.79279E+3
  -1.95701E+3   1.75921E+3
