 LCModel (Version 6.3-1N) Copyright: S.W. Provencher.          Ref.: Magn. Reson. Med. 30:672-679 (1993).                
 Slice_N1@15_16  02-Jun-2023 14:37:29
 27 lines in following concentration table = NCONC+1
    Conc.  %SD /Cr+PCr  Metabolite                                         
 1.96E-06  16% 2.2E-04 Mac                                                 
 4.44E-02  14%   4.981 Cr                                                  
 2.69E-02  22%   3.019 PCr                                                 
 7.02E-02  10%   7.876 Ins                                                 
 8.56E-02   7%   9.599 NAA                                                 
 3.45E-02  18%   3.865 Tau                                                 
 1.27E-02  28%   1.429 PCho                                                
 4.89E-03  79%   0.548 GPC                                                 
 6.39E-02  13%   7.169 Glu                                                 
 1.60E-02  36%   1.792 Gln                                                 
    0.000 999%   0.000 Ala                                                 
 2.82E-02  40%   3.163 Asc                                                 
 1.04E-02  70%   1.170 Asp                                                 
 1.26E-02  30%   1.418 GABA                                                
 8.41E-03  59%   0.943 Glc                                                 
 9.58E-03  34%   1.074 GSH                                                 
    0.000 999%   0.000 Lac                                                 
 7.06E-03  57%   0.792 NAAG                                                
    0.000 999%   0.000 PE                                                  
 1.76E-02  11%   1.977 GPC+PCho                                            
 9.27E-02   7%  10.391 NAA+NAAG                                            
 7.99E-02  12%   8.960 Glu+Gln                                             
 7.13E-02   7%   8.000 Cr+PCr                                              
 9.27E-02   7%  10.391 NAA+NAAG                                            
 7.13E-02   7%   8.000 Cr+PCr                                              
 7.99E-02  12%   8.960 Glu+Gln                                             
   6 lines in following misc. output table
  FWHM = 0.017 ppm    S/N =   6                                            
  Data shift = 0.017 ppm                                                   
  Ph: -45 deg     -10.4 deg/ppm                                            
  alphaB,S = 1.8E+00,   7.3E+00                                            
   18 spline knots.   Ns = 5(1)                                            
  ( 4) 2 infls.   ( 4) 1 extrs.                                            
  654 points on ppm-axis = NY
      4.000000     3.994181     3.988363     3.982544     3.976726     3.970907     3.965088     3.959270     3.953451     3.947633
      3.941814     3.935995     3.930177     3.924358     3.918540     3.912721     3.906902     3.901084     3.895265     3.889446
      3.883628     3.877809     3.871991     3.866172     3.860353     3.854535     3.848716     3.842898     3.837079     3.831260
      3.825442     3.819623     3.813805     3.807986     3.802167     3.796349     3.790530     3.784712     3.778893     3.773074
      3.767256     3.761437     3.755619     3.749800     3.743981     3.738163     3.732344     3.726526     3.720707     3.714888
      3.709070     3.703251     3.697433     3.691614     3.685795     3.679977     3.674158     3.668339     3.662521     3.656702
      3.650884     3.645065     3.639246     3.633428     3.627609     3.621791     3.615972     3.610153     3.604335     3.598516
      3.592698     3.586879     3.581060     3.575242     3.569423     3.563605     3.557786     3.551967     3.546149     3.540330
      3.534512     3.528693     3.522874     3.517056     3.511237     3.505419     3.499600     3.493781     3.487963     3.482144
      3.476326     3.470507     3.464688     3.458870     3.453051     3.447232     3.441414     3.435595     3.429777     3.423958
      3.418139     3.412321     3.406502     3.400684     3.394865     3.389046     3.383228     3.377409     3.371591     3.365772
      3.359953     3.354135     3.348316     3.342498     3.336679     3.330860     3.325042     3.319223     3.313405     3.307586
      3.301767     3.295949     3.290130     3.284312     3.278493     3.272674     3.266856     3.261037     3.255219     3.249400
      3.243581     3.237763     3.231944     3.226125     3.220307     3.214488     3.208670     3.202851     3.197032     3.191214
      3.185395     3.179577     3.173758     3.167939     3.162121     3.156302     3.150484     3.144665     3.138846     3.133028
      3.127209     3.121391     3.115572     3.109753     3.103935     3.098116     3.092298     3.086479     3.080660     3.074842
      3.069023     3.063205     3.057386     3.051567     3.045749     3.039930     3.034111     3.028293     3.022474     3.016656
      3.010837     3.005018     2.999200     2.993381     2.987563     2.981744     2.975925     2.970107     2.964288     2.958470
      2.952651     2.946832     2.941014     2.935195     2.929377     2.923558     2.917739     2.911921     2.906102     2.900284
      2.894465     2.888646     2.882828     2.877009     2.871191     2.865372     2.859553     2.853735     2.847916     2.842098
      2.836279     2.830460     2.824642     2.818823     2.813004     2.807186     2.801367     2.795549     2.789730     2.783911
      2.778093     2.772274     2.766456     2.760637     2.754818     2.749000     2.743181     2.737363     2.731544     2.725725
      2.719907     2.714088     2.708270     2.702451     2.696632     2.690814     2.684995     2.679177     2.673358     2.667539
      2.661721     2.655902     2.650084     2.644265     2.638446     2.632628     2.626809     2.620991     2.615172     2.609353
      2.603535     2.597716     2.591897     2.586079     2.580260     2.574442     2.568623     2.562804     2.556986     2.551167
      2.545349     2.539530     2.533711     2.527893     2.522074     2.516256     2.510437     2.504618     2.498800     2.492981
      2.487163     2.481344     2.475525     2.469707     2.463888     2.458070     2.452251     2.446432     2.440614     2.434795
      2.428977     2.423158     2.417339     2.411521     2.405702     2.399884     2.394065     2.388246     2.382428     2.376609
      2.370790     2.364972     2.359153     2.353335     2.347516     2.341697     2.335879     2.330060     2.324242     2.318423
      2.312604     2.306786     2.300967     2.295149     2.289330     2.283511     2.277693     2.271874     2.266056     2.260237
      2.254418     2.248600     2.242781     2.236963     2.231144     2.225325     2.219507     2.213688     2.207870     2.202051
      2.196232     2.190414     2.184595     2.178777     2.172958     2.167139     2.161321     2.155502     2.149683     2.143865
      2.138046     2.132228     2.126409     2.120590     2.114772     2.108953     2.103135     2.097316     2.091497     2.085679
      2.079860     2.074042     2.068223     2.062404     2.056586     2.050767     2.044949     2.039130     2.033311     2.027493
      2.021674     2.015856     2.010037     2.004218     1.998400     1.992581     1.986763     1.980944     1.975126     1.969307
      1.963489     1.957670     1.951852     1.946033     1.940215     1.934397     1.928578     1.922760     1.916941     1.911123
      1.905304     1.899486     1.893667     1.887849     1.882030     1.876212     1.870393     1.864575     1.858756     1.852938
      1.847119     1.841301     1.835482     1.829664     1.823845     1.818027     1.812208     1.806390     1.800571     1.794753
      1.788934     1.783116     1.777297     1.771479     1.765660     1.759842     1.754023     1.748205     1.742386     1.736568
      1.730749     1.724931     1.719113     1.713294     1.707476     1.701657     1.695839     1.690020     1.684202     1.678383
      1.672565     1.666746     1.660928     1.655109     1.649291     1.643472     1.637654     1.631835     1.626017     1.620198
      1.614380     1.608561     1.602743     1.596924     1.591106     1.585287     1.579469     1.573650     1.567832     1.562013
      1.556195     1.550376     1.544558     1.538739     1.532921     1.527102     1.521284     1.515465     1.509647     1.503829
      1.498010     1.492192     1.486373     1.480555     1.474736     1.468918     1.463099     1.457281     1.451462     1.445644
      1.439825     1.434007     1.428188     1.422370     1.416551     1.410733     1.404914     1.399096     1.393277     1.387459
      1.381640     1.375822     1.370003     1.364185     1.358366     1.352548     1.346729     1.340911     1.335092     1.329274
      1.323455     1.317637     1.311818     1.306000     1.300182     1.294363     1.288545     1.282726     1.276908     1.271089
      1.265271     1.259452     1.253634     1.247815     1.241997     1.236178     1.230360     1.224541     1.218723     1.212904
      1.207086     1.201267     1.195449     1.189630     1.183812     1.177993     1.172175     1.166356     1.160538     1.154719
      1.148901     1.143082     1.137264     1.131445     1.125627     1.119808     1.113990     1.108171     1.102353     1.096534
      1.090716     1.084898     1.079079     1.073261     1.067442     1.061624     1.055805     1.049987     1.044168     1.038350
      1.032531     1.026713     1.020894     1.015076     1.009257     1.003439     0.997620     0.991802     0.985983     0.980165
      0.974346     0.968528     0.962709     0.956891     0.951072     0.945254     0.939435     0.933617     0.927798     0.921980
      0.916161     0.910343     0.904524     0.898706     0.892887     0.887069     0.881251     0.875432     0.869614     0.863795
      0.857977     0.852158     0.846340     0.840521     0.834703     0.828884     0.823066     0.817247     0.811429     0.805610
      0.799792     0.793973     0.788155     0.782336     0.776518     0.770699     0.764881     0.759062     0.753244     0.747425
      0.741607     0.735788     0.729970     0.724151     0.718333     0.712514     0.706696     0.700877     0.695059     0.689240
      0.683422     0.677603     0.671785     0.665967     0.660148     0.654330     0.648511     0.642693     0.636874     0.631056
      0.625237     0.619419     0.613600     0.607782     0.601963     0.596145     0.590326     0.584508     0.578689     0.572871
      0.567052     0.561234     0.555415     0.549597     0.543778     0.537960     0.532141     0.526323     0.520504     0.514686
      0.508867     0.503049     0.497230     0.491412     0.485593     0.479775     0.473956     0.468138     0.462319     0.456501
      0.450682     0.444864     0.439045     0.433227     0.427408     0.421590     0.415771     0.409953     0.404134     0.398316
      0.392497     0.386679     0.380860     0.375042     0.369223     0.363405     0.357586     0.351767     0.345949     0.340130
      0.334312     0.328493     0.322675     0.316856     0.311038     0.305219     0.299401     0.293582     0.287764     0.281945
      0.276127     0.270308     0.264490     0.258671     0.252853     0.247034     0.241216     0.235397     0.229579     0.223760
      0.217942     0.212123     0.206305     0.200486
 NY phased data points follow
  -1.67988E-01 -1.40492E-01 -9.33506E-02 -4.09279E-01 -1.62664E-01 -4.55098E-02 -2.35486E-01 -1.32242E-01 -1.29734E-01 -3.20537E-01
  -5.03782E-02  2.09220E-01  5.83245E-01  3.98265E-01  5.14552E-03  5.27356E-01  6.74215E-01  4.14594E-01  4.67861E-01  2.79249E-01
  -4.83710E-02  9.71576E-02  3.56369E-02  1.33317E-01  1.81134E-01 -2.41532E-01 -5.37919E-01 -3.08954E-01 -3.51980E-02 -3.75397E-02
  -1.17011E-02 -2.34951E-01  4.64419E-02 -1.84698E-01 -4.71227E-01  7.72127E-02 -1.60837E-01 -5.20730E-01 -4.39457E-01 -3.14443E-01
  -1.78358E-01  2.07029E-01  2.72532E-01  2.81976E-01  5.45120E-01  4.79598E-01  3.08844E-01  3.64494E-01  3.66583E-01  3.60744E-02
   7.37555E-02  2.22277E-01  2.11652E-01 -7.74453E-02 -1.05680E-01 -2.65605E-01 -2.19038E-01  5.21520E-02 -2.95666E-01 -1.66116E-01
  -2.88601E-01 -1.53628E-01 -3.02975E-01 -5.53660E-01 -2.78270E-01 -2.06842E-01 -2.28820E-02  2.16927E-01  1.44970E-01 -1.61134E-02
   2.40782E-01  5.72496E-02  8.48842E-02 -1.42590E-02  1.29436E-01  1.66626E-01 -5.93324E-02 -4.91533E-02 -3.01814E-01 -3.77367E-01
  -5.38292E-01 -7.22595E-02  2.14728E-01  1.03205E-01  3.96193E-03  2.85905E-01  3.59716E-01  4.41786E-02  1.07483E-01  2.76584E-01
   1.71017E-01  2.20892E-01  3.02204E-01  1.20980E-01  3.99727E-01  4.93350E-02  4.48945E-02  9.71758E-02 -3.62391E-02 -4.11957E-03
  -5.34050E-02 -2.13602E-02  5.21565E-02  3.10778E-01  2.57079E-01  3.82510E-01  4.64796E-01  5.08001E-01  3.06323E-01  4.87957E-01
   4.14553E-01  4.46976E-01  4.82373E-01  4.48620E-01  5.90609E-01  5.87459E-02  6.61586E-02  1.57954E-01  2.82560E-01  4.51413E-02
   2.43275E-01  2.62763E-01 -1.36113E-01 -7.17725E-02 -1.86091E-01 -2.94048E-01 -1.05637E-01 -2.32653E-01 -5.85854E-01 -3.01948E-01
  -1.30248E-01 -8.25448E-02 -5.48512E-01 -1.62203E-01 -2.23859E-01 -8.78627E-01 -1.19687E+00 -1.32096E+00 -7.39374E-01 -5.34118E-01
   5.62079E-02  3.16866E-03 -2.23705E-01 -4.20907E-02  1.27564E-01  3.50619E-02  1.30642E-01  2.86778E-01  1.72937E-01 -2.46670E-03
   1.03944E-01  3.09579E-01 -6.52027E-02  2.05098E-01  1.92992E-01  3.08877E-01  3.11920E-01  4.13400E-01  8.89782E-02 -7.54830E-02
   5.02630E-01  3.52292E-01  5.30788E-01  4.16189E-01  7.80864E-01  1.02794E+00  9.38492E-01  3.77515E-01 -5.83046E-01 -8.84370E-01
  -1.08146E+00 -8.86045E-01 -5.82321E-01 -6.55728E-01 -4.96669E-01 -3.80381E-01 -5.56043E-01 -2.24507E-01 -4.87239E-01 -5.26343E-01
  -4.48840E-01 -3.95957E-01 -1.77834E-01 -1.63967E-01 -4.36066E-02 -6.59413E-03 -4.68467E-02 -6.33173E-01 -3.42627E-01 -2.53964E-01
  -3.92492E-01 -2.31411E-01 -2.72193E-01 -2.32988E-01 -1.60745E-01  2.54734E-02 -6.57366E-02  4.66520E-02 -1.25380E-01 -2.59052E-01
  -3.79991E-01 -2.11826E-01 -5.88977E-02  8.81385E-02  7.98731E-02 -9.90091E-03  2.06974E-01 -1.61746E-01  1.40869E-01 -1.60574E-01
  -3.11990E-01 -1.80146E-01 -1.91631E-01  1.20769E-01 -2.85679E-01 -5.02292E-02  3.50372E-02  4.53020E-02 -7.58504E-02 -2.37636E-01
   4.10547E-02  8.58491E-02 -2.13125E-01 -1.43449E-01  3.19127E-01  1.09320E-01  4.31959E-01  1.77331E-01 -1.74557E-01  1.45482E-01
   1.32109E-01  3.17083E-01  1.94957E-01  1.72079E-01  3.20744E-03 -2.02939E-01 -1.37765E-01 -2.14032E-01 -5.59911E-02  6.12051E-02
  -1.92071E-01  7.18236E-02  1.92476E-01 -2.73831E-02  9.37948E-02  5.83172E-02  6.06926E-02 -1.72932E-01 -1.27526E-02 -1.57560E-01
  -1.99179E-01  2.99907E-01  9.28627E-02 -3.46442E-02 -1.71134E-01 -1.29730E-01  5.55735E-02  2.67671E-01  2.94694E-01  2.50907E-01
   3.49388E-01  7.50855E-02 -1.83973E-01 -1.91032E-01  3.05912E-03  1.73968E-01  1.37432E-01  3.57578E-01  3.78185E-01  1.26680E-01
   2.39731E-01  7.86773E-02  1.00949E-01  1.02774E-01  8.80375E-02 -2.26056E-02 -1.00832E-01 -1.51552E-01 -4.78511E-01 -1.98078E-01
   4.06676E-02 -1.79276E-01 -5.10795E-01 -1.04699E-01 -2.08142E-01  7.52048E-02  4.63179E-01  3.09989E-01  5.44713E-01  1.83344E-01
   1.99680E-01  2.03683E-01  2.33445E-01  2.96223E-02  2.18675E-01  1.13027E-01  1.07613E-01  2.32650E-01  4.51295E-02  5.62330E-01
   1.90342E-01  2.72182E-01  5.90930E-01  5.16204E-01  2.46323E-01  3.90677E-01  3.66727E-01  4.76325E-01  5.00980E-01  7.58692E-02
   5.15954E-01  3.70859E-01  3.05647E-01  3.25450E-01  1.36438E-01 -4.77394E-02  9.21639E-02 -7.69353E-02 -7.25768E-02  7.36160E-02
  -1.25593E-01 -1.92335E-01 -1.86444E-01  1.35593E-01 -8.99692E-02 -8.38607E-02 -7.01549E-02  1.32809E-03  1.20033E-01  1.77002E-01
  -4.62327E-02  3.87116E-02  1.52082E-02  1.50480E-01  2.03081E-01 -5.05173E-01 -3.60531E-01 -5.95623E-01 -2.93652E-01 -2.22388E-01
  -1.77438E-01 -6.45798E-01 -1.79970E+00 -2.07041E+00 -1.48565E+00 -5.22038E-01 -5.01743E-01 -1.35867E-01  2.06705E-01  1.78672E-01
   4.48382E-02  3.95660E-01  1.07487E-01 -1.46824E-01  1.31663E-01 -1.69209E-01 -4.86863E-02  1.58409E-01 -1.99083E-02 -6.82800E-02
   2.27303E-01 -4.36609E-02 -1.36312E-02  7.85365E-03 -1.34783E-01 -2.33853E-01 -1.03669E-01  2.80928E-01  2.90175E-01 -5.49624E-02
   1.22407E-01  1.37128E-02 -4.60354E-01  8.98146E-02  5.08095E-02  4.19709E-02  4.99979E-03 -2.60437E-02  4.43967E-02  2.26552E-01
   2.73712E-01  8.80677E-02 -5.24811E-02 -1.81369E-01  1.70049E-01 -1.18372E-02  8.00511E-02  2.30319E-01  6.69281E-02  2.61919E-01
   2.79774E-01  6.68035E-02  3.53878E-01 -4.60433E-02  3.03951E-01  3.62105E-01  1.21133E-01  4.42869E-01 -2.91782E-02  4.13729E-01
   1.54834E-01  2.96075E-01 -6.26182E-02 -1.21937E-01  9.51229E-02 -1.26051E-01  1.88669E-01  1.23012E-01  3.59894E-01 -7.84298E-02
   6.04137E-02 -2.75280E-01 -2.11818E-01  4.71464E-03 -2.76318E-01  1.60956E-02  7.75803E-02  5.70696E-02 -1.94879E-01 -3.51133E-01
  -2.23599E-01 -1.00535E-01 -2.00388E-01 -1.49393E-01 -1.02439E-01  2.86575E-03 -2.49589E-01  1.75444E-02 -1.71735E-01 -4.07306E-01
  -7.40563E-02 -9.02260E-02 -1.89834E-02 -3.31302E-02 -4.98484E-03 -1.01640E-01  7.47640E-02 -6.37629E-02  1.40440E-01  1.64381E-02
   3.01374E-03  1.68406E-01  4.81670E-02  1.87358E-01  1.40870E-01  8.56145E-02  8.61779E-02  3.07432E-01  1.31982E-01  2.57336E-01
   1.57494E-01  1.51463E-01  1.01117E-01 -1.93445E-03 -8.89177E-03 -8.14274E-02  6.09002E-02 -2.40307E-01 -1.38085E-01 -8.61883E-02
  -1.40541E-01  9.77679E-02 -1.79541E-01 -2.18770E-01  1.82746E-01 -8.99935E-02  1.10349E-02 -2.07222E-01 -1.64806E-01  1.08107E-01
  -9.80015E-02 -6.74280E-04 -2.30794E-02 -2.26063E-02 -2.72358E-01 -2.67878E-01 -4.10267E-01 -3.73902E-01 -2.63938E-01 -1.21017E-01
  -1.47296E-01 -3.38031E-02  2.20330E-01  2.36694E-01  7.64361E-02 -2.09223E-02  3.01969E-01  1.79286E-01  1.72244E-01 -1.39959E-01
   2.34320E-01  9.67126E-02 -1.77073E-01  2.02602E-01  1.22660E-03  4.97550E-02  1.22357E-01 -4.34110E-02  5.93453E-02  3.79659E-01
  -7.74076E-03  6.44705E-02  2.17328E-01  2.27197E-01 -1.76378E-01 -1.47173E-01  7.32637E-02  7.07321E-02  1.23333E-01 -1.67766E-01
   1.75874E-01  1.17603E-01  6.00377E-02  1.38231E-01  3.33486E-01 -9.98318E-02  6.85817E-02  3.26142E-01 -5.34272E-02  6.32911E-02
   1.30274E-01  7.70441E-02 -3.30735E-01 -1.42136E-01 -3.75042E-01 -3.68558E-01 -2.59095E-01 -3.94717E-01 -6.06105E-01 -5.66249E-01
  -6.14232E-02 -1.90517E-01 -6.80162E-02 -1.43608E-01 -3.05582E-01 -2.25062E-01 -8.94279E-02  5.59824E-02  1.83036E-02 -1.32567E-01
  -2.30368E-01 -2.25562E-01 -1.27991E-01 -2.45270E-01 -6.10674E-02  6.19368E-02 -9.90086E-02  6.20500E-02 -2.61446E-02  2.13169E-02
   8.10925E-02  1.08616E-01  1.29407E-01  3.00954E-01  2.42036E-01  1.35809E-01  2.94177E-01  4.64381E-02 -1.03923E-01 -1.67157E-02
  -6.75865E-02 -1.05423E-01 -1.40504E-02  1.99566E-01  1.17221E-01 -1.75732E-01  8.66152E-02 -1.82485E-02 -1.08902E-01  5.98214E-03
   4.84266E-02  1.07510E-01  2.12615E-01  2.79871E-01 -2.73249E-01 -4.70004E-01 -2.37305E-02  2.94036E-01 -7.32007E-02 -1.38420E-01
  -6.78777E-03 -1.06162E-01  1.86282E-02  8.83003E-02  7.65323E-02  2.13231E-02  2.86839E-02 -2.31060E-03 -7.89967E-02  7.40106E-02
   3.81924E-02 -3.97071E-02  2.07568E-01 -7.26397E-02  3.24910E-02  2.17383E-01 -5.68619E-02  6.96461E-02  1.66104E-01  7.36909E-03
  -7.58937E-02 -5.65018E-03  1.74319E-01 -8.44600E-02 -4.30212E-01  7.63110E-02  1.35926E-01  2.01180E-02  1.77698E-01  1.13767E-01
  -2.64748E-02 -2.45430E-03  1.04971E-01  1.56610E-01 -7.73524E-02 -1.55527E-01  3.16321E-01  1.30967E-01 -2.76531E-02  1.91333E-01
   1.49404E-01 -1.39211E-01 -1.06962E-01 -1.53335E-01  9.05993E-02  2.19086E-01  1.08275E-01  2.58510E-01 -1.49152E-01  2.76148E-02
   1.08975E-01  2.01766E-01  1.81596E-01 -1.29580E-02 -1.91319E-01 -1.48907E-02  3.60700E-01 -1.72497E-01  5.30020E-02  2.69231E-01
   2.53113E-01  2.43998E-01  4.90312E-02  9.46821E-02  2.39595E-01  2.14439E-01  3.28728E-02  1.75186E-01  1.24233E-01  6.75599E-02
  -7.71735E-02  7.88234E-03  8.37953E-02 -1.23937E-02
 NY points of the fit to the data follow
   7.06727E-02  3.12025E-02 -2.92506E-03 -3.14636E-02 -4.01074E-02 -3.33451E-02 -2.30269E-02  1.22845E-02  1.59810E-02 -1.83561E-02
   8.16980E-02  3.46554E-01  4.90151E-01  3.42893E-01  2.77808E-01  5.42833E-01  7.27555E-01  5.76641E-01  3.05687E-01  1.76966E-01
   7.24534E-02 -3.92560E-03  1.02902E-03 -2.60326E-02 -5.18465E-02 -7.51340E-02 -9.34599E-02 -1.06655E-01 -1.17835E-01 -1.30109E-01
  -1.40466E-01 -1.48206E-01 -1.64222E-01 -1.91286E-01 -2.21288E-01 -2.47331E-01 -2.66046E-01 -2.97825E-01 -3.14571E-01 -2.44553E-01
  -1.02935E-01  4.45606E-02  1.45294E-01  2.24639E-01  3.18824E-01  3.58075E-01  3.42420E-01  2.87034E-01  2.15212E-01  1.72606E-01
   1.17619E-01  6.95954E-02  4.52156E-02  1.17436E-02 -3.31118E-02 -8.07807E-02 -1.33199E-01 -1.80777E-01 -2.01519E-01 -2.08648E-01
  -2.49393E-01 -2.76916E-01 -2.28972E-01 -2.13843E-01 -2.16821E-01 -1.32247E-01  2.35771E-02  1.67983E-01  2.29264E-01  3.54623E-01
   4.46136E-01  3.42608E-01  2.60109E-01  1.92383E-01  9.04053E-02  7.23517E-03 -5.24321E-02 -9.25182E-02 -2.45456E-01 -4.60940E-01
  -4.94454E-01 -3.11224E-01 -9.69482E-02  3.14843E-02  2.17266E-01  4.13747E-01  4.23028E-01  3.75522E-01  3.39939E-01  2.77217E-01
   2.36218E-01  2.17277E-01  1.94199E-01  1.66424E-01  1.36909E-01  9.60169E-02  4.10866E-02 -3.57392E-02 -1.07032E-01 -1.38508E-01
  -9.92584E-02  1.13041E-02  1.22552E-01  2.12779E-01  2.44855E-01  2.41933E-01  2.41915E-01  2.32684E-01  2.30189E-01  2.32486E-01
   2.36175E-01  2.36506E-01  2.36384E-01  2.35351E-01  2.34386E-01  2.35028E-01  2.36602E-01  2.35770E-01  2.24862E-01  2.23176E-01
   2.21602E-01  1.70648E-01  1.01620E-01  2.66994E-02 -4.36953E-02 -9.50593E-02 -1.49906E-01 -1.68125E-01 -2.38270E-01 -3.04426E-01
  -2.88305E-01 -3.23499E-01 -2.29556E-01 -3.15901E-02 -1.63391E-01 -7.46083E-01 -1.28045E+00 -1.19528E+00 -7.16295E-01 -4.14963E-01
  -1.91290E-01 -3.15860E-02 -2.98334E-02 -1.52265E-02  9.77637E-03  3.48518E-02  5.83358E-02  7.94794E-02  9.85314E-02  1.15869E-01
   1.32281E-01  1.49504E-01  1.66615E-01  1.84006E-01  2.03577E-01  2.25315E-01  2.50853E-01  2.80419E-01  3.13313E-01  3.52335E-01
   4.06887E-01  4.92213E-01  5.45871E-01  5.61021E-01  6.83499E-01  8.86839E-01  8.65173E-01  3.11155E-01 -5.03120E-01 -9.76911E-01
  -1.02343E+00 -8.22343E-01 -6.29499E-01 -5.09055E-01 -4.33371E-01 -4.24153E-01 -3.80098E-01 -3.33522E-01 -3.19996E-01 -3.12449E-01
  -2.94260E-01 -2.69843E-01 -2.47676E-01 -2.35038E-01 -2.31131E-01 -2.28996E-01 -2.27635E-01 -2.15144E-01 -2.04366E-01 -1.98657E-01
  -1.90651E-01 -1.80297E-01 -1.69013E-01 -1.58737E-01 -1.47658E-01 -1.38728E-01 -1.30021E-01 -1.19619E-01 -1.09982E-01 -1.04091E-01
  -9.42351E-02 -7.64247E-02 -6.06919E-02 -6.14697E-02 -7.78093E-02 -8.22486E-02 -6.50820E-02 -4.82412E-02 -5.20728E-02 -7.49583E-02
  -9.10135E-02 -9.28373E-02 -9.01515E-02 -8.30248E-02 -7.60459E-02 -6.93977E-02 -5.84800E-02 -5.01316E-02 -5.16399E-02 -5.64905E-02
  -4.05175E-02 -1.45479E-02 -1.64010E-02 -1.54285E-04  9.65721E-02  2.38270E-01  2.93814E-01  1.97713E-01  1.27558E-01  2.12886E-01
   3.50615E-01  3.69938E-01  2.27405E-01  8.12288E-02 -1.18826E-03 -6.38504E-02 -7.99017E-02 -7.36017E-02 -7.98591E-02 -8.70894E-02
  -9.66790E-02 -1.05168E-01 -1.10865E-01 -1.13400E-01 -1.16159E-01 -1.20043E-01 -1.23371E-01 -1.28971E-01 -1.32582E-01 -1.33057E-01
  -1.30309E-01 -1.34034E-01 -1.35791E-01 -1.43442E-01 -1.89342E-01 -1.77529E-01 -7.90074E-02  3.76046E-03  1.97368E-02  2.36690E-02
   1.28689E-01  1.75864E-01  1.22566E-01  1.26277E-01  1.34695E-01  1.41695E-01  1.23591E-01  1.02784E-01  1.09392E-01  9.59113E-02
   9.09226E-02  6.91468E-02  3.54766E-02  2.34447E-03 -3.68557E-02 -6.97750E-02 -1.10891E-01 -1.48865E-01 -1.85455E-01 -2.42976E-01
  -3.00938E-01 -3.43182E-01 -3.38364E-01 -2.46818E-01 -1.00243E-01  8.55907E-02  2.42499E-01  3.29000E-01  3.63686E-01  3.08014E-01
   2.32927E-01  1.82951E-01  1.30441E-01  1.08256E-01  1.12667E-01  1.32682E-01  1.70182E-01  1.95137E-01  2.11013E-01  2.17456E-01
   2.04630E-01  1.94093E-01  1.84461E-01  1.74655E-01  1.67887E-01  1.59911E-01  1.50856E-01  1.36207E-01  1.18503E-01  9.81101E-02
   7.52813E-02  5.61953E-02  3.56245E-02  2.31836E-02  9.06283E-03 -1.87043E-02 -5.60866E-02 -1.13665E-01 -1.61488E-01 -1.98647E-01
  -2.30844E-01 -2.41960E-01 -2.44052E-01 -2.26427E-01 -1.93381E-01 -1.28679E-01 -4.61491E-02  2.88905E-02  7.64905E-02  8.44276E-02
   5.86409E-02  2.92819E-03 -5.61734E-02 -9.82421E-02 -1.22236E-01 -1.81863E-01 -2.44070E-01 -3.04059E-01 -3.51627E-01 -2.04321E-01
  -1.65940E-01 -7.65998E-01 -1.71412E+00 -2.06948E+00 -1.46780E+00 -7.27241E-01 -3.70366E-01 -9.78912E-02 -3.32445E-03 -5.95029E-02
  -4.97941E-02 -3.29647E-02 -1.67614E-02 -4.48608E-03  5.87044E-03  1.59765E-02  2.29712E-02  2.74085E-02  2.57388E-02  1.55710E-02
  -5.93763E-05 -2.55838E-02 -5.10911E-02 -7.46370E-02 -8.95356E-02 -8.56614E-02 -7.74158E-02 -5.67185E-02 -3.63425E-02 -2.09634E-02
  -5.99330E-03  3.67501E-03  1.43477E-02  2.20348E-02  2.71414E-02  3.10168E-02  3.56775E-02  4.06584E-02  4.56625E-02  4.98815E-02
   5.24921E-02  5.53250E-02  5.88531E-02  6.28079E-02  6.66737E-02  6.94510E-02  7.05504E-02  7.17976E-02  7.43811E-02  7.80376E-02
   8.21084E-02  8.58365E-02  8.85921E-02  8.85132E-02  8.68150E-02  8.44352E-02  8.20713E-02  8.04212E-02  7.82861E-02  7.46309E-02
   6.98414E-02  6.50266E-02  5.96608E-02  5.29140E-02  4.59328E-02  4.06837E-02  3.64010E-02  3.13779E-02  2.63411E-02  2.14856E-02
   1.71359E-02  1.36020E-02  1.07276E-02  8.25165E-03  5.20808E-03  2.58703E-03 -4.77080E-05 -3.11657E-03 -4.98104E-03 -5.92884E-03
  -7.31470E-03 -8.69049E-03 -9.19040E-03 -8.24653E-03 -6.39750E-03 -4.44564E-03 -1.59870E-03  1.84002E-03  6.02084E-03  1.17503E-02
   1.63369E-02  1.78308E-02  1.84674E-02  2.12475E-02  2.70176E-02  3.42038E-02  4.16227E-02  4.81678E-02  5.39568E-02  6.11855E-02
   7.01383E-02  8.02802E-02  9.08603E-02  1.00994E-01  1.11076E-01  1.21119E-01  1.31321E-01  1.41023E-01  1.48035E-01  1.52421E-01
   1.54771E-01  1.55227E-01  1.55088E-01  1.54114E-01  1.52376E-01  1.49772E-01  1.44656E-01  1.36268E-01  1.25964E-01  1.16049E-01
   1.07582E-01  9.98097E-02  9.18324E-02  8.30501E-02  7.43417E-02  6.70509E-02  6.13039E-02  5.54188E-02  4.93320E-02  4.46505E-02
   4.08102E-02  3.74381E-02  3.38945E-02  3.08725E-02  3.02320E-02  3.18396E-02  3.41137E-02  3.63595E-02  3.94973E-02  4.33875E-02
   4.71847E-02  5.21941E-02  5.79026E-02  6.23140E-02  6.59301E-02  6.88264E-02  7.04372E-02  7.11466E-02  7.29272E-02  7.61616E-02
   7.88876E-02  7.96930E-02  7.85762E-02  7.73133E-02  7.57230E-02  7.32967E-02  7.00469E-02  6.63714E-02  6.41931E-02  6.19875E-02
   5.91929E-02  5.64027E-02  5.32035E-02  5.03462E-02  4.74646E-02  4.39624E-02  3.99053E-02  3.66958E-02  3.52048E-02  3.34920E-02
   3.04324E-02  2.74805E-02  2.44811E-02  1.98886E-02  1.34844E-02  6.12513E-03 -8.43509E-04 -7.69796E-03 -1.55766E-02 -2.57938E-02
  -3.96854E-02 -5.53245E-02 -7.05485E-02 -8.51288E-02 -9.96101E-02 -1.14298E-01 -1.26863E-01 -1.37279E-01 -1.47605E-01 -1.57563E-01
  -1.64054E-01 -1.65704E-01 -1.65390E-01 -1.65029E-01 -1.62945E-01 -1.57723E-01 -1.51134E-01 -1.44536E-01 -1.38030E-01 -1.32690E-01
  -1.28004E-01 -1.21710E-01 -1.14086E-01 -1.06219E-01 -9.78624E-02 -8.81408E-02 -7.83476E-02 -6.92562E-02 -5.97541E-02 -5.11373E-02
  -4.36957E-02 -3.57041E-02 -2.65911E-02 -1.85373E-02 -1.36871E-02 -8.85523E-03 -1.66206E-03  5.09677E-03  9.42259E-03  1.21871E-02
   1.55821E-02  1.99665E-02  2.30194E-02  2.51172E-02  2.71289E-02  2.83217E-02  3.05708E-02  3.24100E-02  3.20385E-02  3.24458E-02
   3.42999E-02  3.64223E-02  3.83794E-02  4.10218E-02  4.36423E-02  4.41667E-02  4.42091E-02  4.45660E-02  4.43797E-02  4.41438E-02
   4.43355E-02  4.45938E-02  4.40214E-02  4.37629E-02  4.45157E-02  4.44584E-02  4.41479E-02  4.56913E-02  4.78714E-02  4.73325E-02
   4.35475E-02  4.05881E-02  4.15654E-02  4.30244E-02  4.21575E-02  4.20517E-02  4.32029E-02  4.31317E-02  4.11738E-02  3.94683E-02
   4.05830E-02  4.25806E-02  4.37452E-02  4.42111E-02  4.46222E-02  4.57822E-02  4.71221E-02  4.80826E-02  4.84022E-02  4.91794E-02
   5.06091E-02  5.03933E-02  4.86034E-02  4.74658E-02  4.75249E-02  4.83798E-02  4.94188E-02  5.13607E-02  5.29873E-02  5.30514E-02
   5.30278E-02  5.38814E-02  5.63409E-02  5.92980E-02  6.08166E-02  6.04217E-02  5.83385E-02  5.65765E-02  5.72971E-02  5.91666E-02
   6.03553E-02  6.01058E-02  5.88290E-02  5.83162E-02  5.91210E-02  6.03381E-02  6.04545E-02  5.93718E-02  5.99273E-02  6.24080E-02
   6.37655E-02  6.35311E-02  6.38337E-02  6.52356E-02  6.61380E-02  6.67325E-02  6.78693E-02  7.04874E-02  7.48439E-02  7.80229E-02
   8.00635E-02  8.20081E-02  8.29428E-02  8.40670E-02
 NY background values follow
     1.279E-02    1.284E-02    1.288E-02    1.292E-02    1.297E-02    1.301E-02    1.305E-02    1.310E-02    1.314E-02    1.319E-02
     1.323E-02    1.327E-02    1.332E-02    1.336E-02    1.340E-02    1.345E-02    1.349E-02    1.353E-02    1.358E-02    1.362E-02
     1.366E-02    1.371E-02    1.375E-02    1.379E-02    1.384E-02    1.388E-02    1.392E-02    1.396E-02    1.401E-02    1.405E-02
     1.409E-02    1.414E-02    1.418E-02    1.422E-02    1.426E-02    1.431E-02    1.435E-02    1.439E-02    1.443E-02    1.448E-02
     1.452E-02    1.456E-02    1.460E-02    1.464E-02    1.469E-02    1.473E-02    1.477E-02    1.481E-02    1.485E-02    1.490E-02
     1.494E-02    1.498E-02    1.502E-02    1.506E-02    1.510E-02    1.514E-02    1.518E-02    1.522E-02    1.527E-02    1.531E-02
     1.535E-02    1.539E-02    1.543E-02    1.547E-02    1.551E-02    1.555E-02    1.559E-02    1.563E-02    1.567E-02    1.571E-02
