 
 $NMID
 ID=''
 FMTDAT='(2E13.5)'
 TRAMP=   1.00000E+0
 VOLUME=   1.00000E+0
 $END
  -2.26374E+4  -3.22630E+3
  -5.38450E+4  -2.44189E+4
  -5.73238E+4  -1.45546E+4
  -5.28508E+4  -1.33212E+4
  -5.44354E+4  -1.51958E+4
  -5.51617E+4  -1.25781E+4
  -5.30381E+4  -1.25623E+4
  -5.33789E+4  -1.37797E+4
  -5.37337E+4  -1.23012E+4
  -5.22862E+4  -1.22428E+4
  -5.23616E+4  -1.30386E+4
  -5.25700E+4  -1.17096E+4
  -5.15404E+4  -1.14545E+4
  -5.18265E+4  -1.21239E+4
  -5.16587E+4  -1.13006E+4
  -5.09095E+4  -1.10414E+4
  -5.09135E+4  -1.13517E+4
  -5.09519E+4  -1.07545E+4
  -5.03589E+4  -1.03515E+4
  -5.03462E+4  -1.05550E+4
  -5.02759E+4  -9.93732E+3
  -4.97036E+4  -9.34676E+3
  -4.97686E+4  -9.42378E+3
  -4.96544E+4  -9.06989E+3
  -4.90856E+4  -8.71163E+3
  -4.90785E+4  -8.52800E+3
  -4.90453E+4  -8.33253E+3
  -4.84920E+4  -8.11270E+3
  -4.82975E+4  -8.13554E+3
  -4.81123E+4  -7.85560E+3
  -4.76921E+4  -7.48195E+3
  -4.76945E+4  -7.43742E+3
  -4.75466E+4  -7.26455E+3
  -4.70836E+4  -7.02195E+3
  -4.68891E+4  -6.91601E+3
  -4.66950E+4  -6.55709E+3
  -4.62423E+4  -6.33527E+3
  -4.59960E+4  -6.08498E+3
  -4.58456E+4  -5.74760E+3
  -4.55570E+4  -5.58116E+3
  -4.53052E+4  -5.41705E+3
  -4.51228E+4  -5.34932E+3
  -4.46693E+4  -5.26189E+3
  -4.43313E+4  -5.00037E+3
  -4.41269E+4  -4.79525E+3
  -4.37921E+4  -4.61265E+3
  -4.35383E+4  -4.45850E+3
  -4.33204E+4  -4.24987E+3
  -4.30473E+4  -4.00848E+3
  -4.27895E+4  -3.83621E+3
  -4.26018E+4  -3.64694E+3
  -4.23211E+4  -3.53684E+3
  -4.20006E+4  -3.30342E+3
  -4.18402E+4  -3.00288E+3
  -4.15835E+4  -2.88396E+3
  -4.13903E+4  -2.78339E+3
  -4.12124E+4  -2.59603E+3
  -4.09189E+4  -2.49401E+3
  -4.07655E+4  -2.38591E+3
  -4.03886E+4  -2.27466E+3
  -4.01427E+4  -2.03128E+3
  -3.98172E+4  -1.93810E+3
  -3.96754E+4  -1.72103E+3
  -3.94111E+4  -1.74723E+3
  -3.91270E+4  -1.56898E+3
  -3.89069E+4  -1.34757E+3
  -3.86927E+4  -1.21024E+3
  -3.85026E+4  -1.08110E+3
  -3.82342E+4  -1.00891E+3
  -3.80612E+4  -8.94510E+2
  -3.78152E+4  -7.26408E+2
  -3.75585E+4  -5.63899E+2
  -3.73405E+4  -4.07869E+2
  -3.70761E+4  -3.35263E+2
  -3.67873E+4  -1.91543E+2
  -3.65871E+4  -9.74756E+0
  -3.64653E+4   8.83330E+1
  -3.62403E+4   1.50590E+2
  -3.59938E+4   3.57534E+2
  -3.57732E+4   4.35896E+2
  -3.55932E+4   5.55932E+2
  -3.54352E+4   5.82076E+2
  -3.51352E+4   7.48100E+2
  -3.49460E+4   8.02683E+2
  -3.48481E+4   8.50950E+2
  -3.45378E+4   8.41963E+2
  -3.42732E+4   8.11546E+2
  -3.40466E+4   8.68013E+2
  -3.38522E+4   1.08698E+3
  -3.37317E+4   1.22764E+3
  -3.34038E+4   1.21283E+3
  -3.32149E+4   1.31917E+3
  -3.30719E+4   1.38848E+3
  -3.28351E+4   1.49523E+3
  -3.26005E+4   1.54469E+3
  -3.23873E+4   1.60508E+3
  -3.21303E+4   1.78316E+3
  -3.19902E+4   1.87020E+3
  -3.17786E+4   1.88858E+3
  -3.16041E+4   1.95239E+3
  -3.13900E+4   2.08821E+3
  -3.11375E+4   2.18392E+3
  -3.09223E+4   2.33251E+3
  -3.07994E+4   2.32053E+3
  -3.05840E+4   2.39966E+3
  -3.03942E+4   2.53887E+3
  -3.01795E+4   2.57551E+3
  -3.00553E+4   2.64462E+3
  -2.97964E+4   2.75237E+3
  -2.95820E+4   2.83757E+3
  -2.94491E+4   2.94150E+3
  -2.92317E+4   3.07361E+3
  -2.90470E+4   3.14409E+3
  -2.89119E+4   3.21061E+3
  -2.86538E+4   3.24089E+3
  -2.85373E+4   3.34550E+3
  -2.83291E+4   3.45947E+3
  -2.81407E+4   3.51276E+3
  -2.80455E+4   3.58806E+3
  -2.78153E+4   3.71106E+3
  -2.76701E+4   3.76727E+3
  -2.74938E+4   3.90132E+3
  -2.74081E+4   3.90515E+3
  -2.70791E+4   3.99382E+3
  -2.70255E+4   4.09596E+3
  -2.69112E+4   4.09772E+3
  -2.67416E+4   4.19408E+3
  -2.65515E+4   4.28992E+3
  -2.63838E+4   4.46227E+3
  -2.62359E+4   4.45740E+3
  -2.60270E+4   4.53906E+3
  -2.59211E+4   4.55606E+3
  -2.58022E+4   4.65617E+3
  -2.56589E+4   4.76772E+3
  -2.55490E+4   4.79499E+3
  -2.53932E+4   4.81195E+3
  -2.53180E+4   4.83304E+3
  -2.51036E+4   4.97106E+3
  -2.49271E+4   5.08936E+3
  -2.48054E+4   5.18342E+3
  -2.46262E+4   5.14116E+3
  -2.44617E+4   5.20683E+3
  -2.43788E+4   5.24895E+3
  -2.42238E+4   5.35013E+3
  -2.41136E+4   5.41486E+3
  -2.39793E+4   5.51746E+3
  -2.38670E+4   5.62429E+3
  -2.37089E+4   5.63312E+3
  -2.35201E+4   5.68894E+3
  -2.33954E+4   5.70441E+3
  -2.33814E+4   5.77543E+3
  -2.31940E+4   5.86508E+3
  -2.29471E+4   5.91180E+3
  -2.27797E+4   6.03168E+3
  -2.26026E+4   5.98377E+3
  -2.25781E+4   6.05545E+3
  -2.24051E+4   6.13178E+3
  -2.22452E+4   6.15281E+3
  -2.22107E+4   6.21955E+3
  -2.19638E+4   6.29089E+3
  -2.18415E+4   6.38828E+3
  -2.17603E+4   6.40111E+3
  -2.15374E+4   6.44546E+3
  -2.14126E+4   6.43155E+3
  -2.13168E+4   6.61553E+3
  -2.12027E+4   6.57994E+3
  -2.09889E+4   6.54620E+3
  -2.08762E+4   6.63636E+3
  -2.06983E+4   6.70494E+3
  -2.06336E+4   6.81209E+3
  -2.05148E+4   6.78469E+3
  -2.03144E+4   6.82132E+3
  -2.01919E+4   6.84402E+3
  -2.00726E+4   6.88614E+3
  -1.99543E+4   6.87786E+3
  -1.97421E+4   6.98091E+3
  -1.95817E+4   7.01613E+3
  -1.94809E+4   7.07103E+3
  -1.93651E+4   7.07095E+3
  -1.93129E+4   7.08557E+3
  -1.91396E+4   7.14515E+3
  -1.89533E+4   7.15794E+3
  -1.88994E+4   7.18181E+3
  -1.87023E+4   7.19464E+3
  -1.85832E+4   7.17385E+3
  -1.84139E+4   7.25323E+3
  -1.82780E+4   7.26834E+3
  -1.82220E+4   7.23456E+3
  -1.80328E+4   7.28557E+3
  -1.78693E+4   7.30751E+3
  -1.77169E+4   7.34625E+3
  -1.76064E+4   7.30198E+3
  -1.75221E+4   7.33183E+3
  -1.73887E+4   7.37161E+3
  -1.72298E+4   7.38947E+3
  -1.71087E+4   7.45928E+3
  -1.69602E+4   7.37261E+3
  -1.69237E+4   7.35197E+3
  -1.67273E+4   7.41222E+3
  -1.66472E+4   7.39195E+3
  -1.64697E+4   7.40309E+3
  -1.63412E+4   7.40209E+3
  -1.62482E+4   7.33598E+3
  -1.60830E+4   7.37895E+3
  -1.59110E+4   7.41172E+3
  -1.58706E+4   7.41778E+3
  -1.57410E+4   7.38275E+3
  -1.55952E+4   7.35291E+3
  -1.54153E+4   7.37030E+3
  -1.53320E+4   7.38737E+3
  -1.52227E+4   7.40364E+3
  -1.50610E+4   7.35791E+3
  -1.49195E+4   7.37865E+3
  -1.48173E+4   7.40175E+3
  -1.47379E+4   7.41931E+3
  -1.46045E+4   7.39619E+3
  -1.44771E+4   7.41055E+3
  -1.43741E+4   7.41482E+3
  -1.41927E+4   7.40649E+3
  -1.41376E+4   7.36924E+3
  -1.40106E+4   7.41369E+3
  -1.39506E+4   7.35712E+3
  -1.37667E+4   7.37101E+3
  -1.36639E+4   7.37959E+3
  -1.35863E+4   7.37619E+3
  -1.34295E+4   7.39452E+3
  -1.33333E+4   7.38218E+3
  -1.31931E+4   7.36908E+3
  -1.31249E+4   7.45766E+3
  -1.30664E+4   7.40700E+3
  -1.29754E+4   7.35799E+3
  -1.28239E+4   7.37540E+3
  -1.26976E+4   7.34959E+3
  -1.25834E+4   7.40092E+3
  -1.24864E+4   7.37243E+3
  -1.23513E+4   7.40832E+3
  -1.23234E+4   7.43445E+3
  -1.22366E+4   7.41431E+3
  -1.21288E+4   7.33565E+3
  -1.19965E+4   7.32456E+3
  -1.18357E+4   7.30771E+3
  -1.17661E+4   7.35067E+3
  -1.16973E+4   7.34659E+3
  -1.16599E+4   7.33134E+3
  -1.14910E+4   7.39290E+3
  -1.14093E+4   7.35211E+3
  -1.13638E+4   7.28629E+3
  -1.12046E+4   7.26350E+3
  -1.10792E+4   7.31672E+3
  -1.10476E+4   7.32612E+3
  -1.10430E+4   7.27954E+3
  -1.08649E+4   7.26759E+3
  -1.08097E+4   7.25441E+3
  -1.06970E+4   7.23743E+3
  -1.06513E+4   7.17314E+3
  -1.04931E+4   7.12920E+3
  -1.03938E+4   7.18292E+3
  -1.03360E+4   7.18785E+3
  -1.02755E+4   7.19065E+3
  -1.01367E+4   7.19222E+3
  -1.01344E+4   7.17131E+3
  -1.00043E+4   7.12063E+3
  -9.91682E+3   7.06338E+3
  -9.82484E+3   7.11200E+3
  -9.78546E+3   7.14555E+3
  -9.66005E+3   7.09312E+3
  -9.61781E+3   7.07594E+3
  -9.52246E+3   7.08147E+3
  -9.47081E+3   7.07700E+3
  -9.40701E+3   6.98109E+3
  -9.24593E+3   7.01074E+3
  -9.18228E+3   7.03053E+3
  -9.15784E+3   7.08182E+3
  -9.05868E+3   6.98992E+3
  -8.95164E+3   6.98255E+3
  -8.86852E+3   6.97840E+3
  -8.75643E+3   6.92708E+3
  -8.72858E+3   6.95570E+3
  -8.62857E+3   6.95417E+3
  -8.55851E+3   6.91935E+3
  -8.43054E+3   6.88858E+3
  -8.46396E+3   6.90905E+3
  -8.34352E+3   6.83943E+3
  -8.24376E+3   6.90914E+3
  -8.21188E+3   6.90619E+3
  -8.08597E+3   6.85324E+3
  -8.05074E+3   6.86290E+3
  -8.03299E+3   6.73433E+3
  -7.90098E+3   6.81349E+3
  -7.80539E+3   6.79180E+3
  -7.71478E+3   6.76428E+3
  -7.65887E+3   6.79266E+3
  -7.59749E+3   6.81470E+3
  -7.57442E+3   6.73448E+3
  -7.49988E+3   6.71228E+3
  -7.42216E+3   6.70876E+3
  -7.43519E+3   6.60842E+3
  -7.27792E+3   6.64356E+3
  -7.23820E+3   6.68647E+3
  -7.11456E+3   6.62580E+3
  -7.14933E+3   6.56319E+3
  -6.98023E+3   6.62612E+3
  -6.98904E+3   6.61217E+3
  -6.89326E+3   6.63026E+3
  -6.85368E+3   6.56702E+3
  -6.75702E+3   6.46013E+3
  -6.72906E+3   6.44378E+3
  -6.56886E+3   6.46970E+3
  -6.56106E+3   6.50954E+3
  -6.43772E+3   6.41625E+3
  -6.40801E+3   6.43665E+3
  -6.38451E+3   6.41167E+3
  -6.33439E+3   6.42822E+3
  -6.26519E+3   6.44646E+3
  -6.11029E+3   6.36797E+3
  -6.06771E+3   6.28819E+3
  -6.03915E+3   6.36637E+3
  -5.92078E+3   6.32773E+3
  -5.91490E+3   6.30187E+3
  -5.79109E+3   6.32198E+3
  -5.69487E+3   6.28334E+3
  -5.71415E+3   6.22849E+3
  -5.65486E+3   6.25901E+3
  -5.52411E+3   6.23732E+3
  -5.59257E+3   6.16603E+3
  -5.39030E+3   6.14142E+3
  -5.42159E+3   6.14416E+3
  -5.34714E+3   6.11306E+3
  -5.30423E+3   6.05778E+3
  -5.14884E+3   6.11543E+3
  -5.12972E+3   6.05169E+3
  -5.09287E+3   6.02224E+3
  -4.98391E+3   6.08495E+3
  -4.94703E+3   6.01192E+3
  -4.90770E+3   5.95917E+3
  -4.86675E+3   5.93299E+3
  -4.76102E+3   5.89813E+3
  -4.70593E+3   5.93141E+3
  -4.68148E+3   5.81787E+3
  -4.55832E+3   5.89289E+3
  -4.55967E+3   5.82006E+3
  -4.46105E+3   5.91984E+3
  -4.39029E+3   5.76214E+3
  -4.34220E+3   5.79037E+3
  -4.33359E+3   5.77833E+3
  -4.28725E+3   5.76221E+3
  -4.19631E+3   5.69550E+3
  -4.12162E+3   5.72916E+3
  -4.12538E+3   5.64559E+3
  -4.08349E+3   5.64509E+3
  -3.97523E+3   5.54198E+3
  -3.96782E+3   5.60567E+3
  -3.86742E+3   5.54582E+3
  -3.81909E+3   5.59406E+3
  -3.82516E+3   5.55039E+3
  -3.66691E+3   5.41430E+3
  -3.74779E+3   5.43326E+3
  -3.60271E+3   5.42115E+3
  -3.50487E+3   5.45545E+3
  -3.55711E+3   5.31872E+3
  -3.46943E+3   5.30729E+3
  -3.37546E+3   5.35416E+3
  -3.40973E+3   5.27387E+3
  -3.32778E+3   5.24279E+3
  -3.22690E+3   5.24484E+3
  -3.25352E+3   5.15304E+3
  -3.14843E+3   5.19066E+3
