 
 $NMID
 ID=''
 FMTDAT='(2E13.5)'
 TRAMP=   1.00000E+0
 VOLUME=   1.00000E+0
 $END
  -1.69617E+4   1.18695E+4
  -5.04707E+4   1.67980E+4
  -4.65752E+4   2.52203E+4
  -4.29282E+4   2.32298E+4
  -4.54116E+4   2.25561E+4
  -4.43874E+4   2.44147E+4
  -4.29984E+4   2.30197E+4
  -4.41529E+4   2.23927E+4
  -4.35382E+4   2.35777E+4
  -4.26391E+4   2.26224E+4
  -4.32924E+4   2.20896E+4
  -4.26406E+4   2.29972E+4
  -4.19105E+4   2.25231E+4
  -4.24731E+4   2.20184E+4
  -4.19884E+4   2.26637E+4
  -4.12402E+4   2.22619E+4
  -4.14196E+4   2.20024E+4
  -4.09338E+4   2.23104E+4
  -4.02318E+4   2.21804E+4
  -4.03766E+4   2.17965E+4
  -3.98591E+4   2.19835E+4
  -3.92064E+4   2.19010E+4
  -3.92327E+4   2.17560E+4
  -3.89720E+4   2.17562E+4
  -3.83186E+4   2.15326E+4
  -3.82648E+4   2.14302E+4
  -3.80051E+4   2.14755E+4
  -3.76256E+4   2.10813E+4
  -3.74726E+4   2.07910E+4
  -3.70944E+4   2.07905E+4
  -3.66739E+4   2.06765E+4
  -3.66225E+4   2.05629E+4
  -3.64643E+4   2.05301E+4
  -3.60887E+4   2.02375E+4
  -3.58491E+4   2.00756E+4
  -3.56141E+4   2.00761E+4
  -3.53298E+4   1.98861E+4
  -3.50662E+4   1.98167E+4
  -3.48087E+4   1.98751E+4
  -3.46546E+4   1.97639E+4
  -3.43992E+4   1.95961E+4
  -3.43087E+4   1.95077E+4
  -3.40883E+4   1.92226E+4
  -3.37334E+4   1.91273E+4
  -3.34863E+4   1.91204E+4
  -3.32132E+4   1.89125E+4
  -3.29717E+4   1.88493E+4
  -3.27534E+4   1.87953E+4
  -3.24958E+4   1.87782E+4
  -3.22627E+4   1.86050E+4
  -3.20427E+4   1.84956E+4
  -3.17640E+4   1.83535E+4
  -3.14730E+4   1.83123E+4
  -3.12692E+4   1.82882E+4
  -3.10738E+4   1.81796E+4
  -3.09094E+4   1.80342E+4
  -3.06729E+4   1.79697E+4
  -3.05094E+4   1.77795E+4
  -3.02245E+4   1.77014E+4
  -2.99016E+4   1.75637E+4
  -2.96780E+4   1.74209E+4
  -2.94174E+4   1.74026E+4
  -2.91782E+4   1.73190E+4
  -2.89307E+4   1.71794E+4
  -2.87311E+4   1.70891E+4
  -2.84790E+4   1.70068E+4
  -2.82950E+4   1.69641E+4
  -2.80491E+4   1.67989E+4
  -2.78229E+4   1.68171E+4
  -2.76334E+4   1.65828E+4
  -2.74166E+4   1.65211E+4
  -2.71993E+4   1.64116E+4
  -2.69975E+4   1.63947E+4
  -2.67942E+4   1.63094E+4
  -2.65526E+4   1.62266E+4
  -2.63441E+4   1.61628E+4
  -2.61484E+4   1.61313E+4
  -2.59228E+4   1.60329E+4
  -2.56900E+4   1.59507E+4
  -2.55163E+4   1.58599E+4
  -2.52934E+4   1.58300E+4
  -2.50957E+4   1.56534E+4
  -2.49355E+4   1.56255E+4
  -2.47868E+4   1.55105E+4
  -2.46213E+4   1.54696E+4
  -2.44188E+4   1.53318E+4
  -2.42946E+4   1.52025E+4
  -2.41334E+4   1.52252E+4
  -2.39167E+4   1.51553E+4
  -2.37598E+4   1.50563E+4
  -2.35859E+4   1.50680E+4
  -2.33480E+4   1.49602E+4
  -2.32188E+4   1.49387E+4
  -2.31656E+4   1.48665E+4
  -2.29357E+4   1.47906E+4
  -2.27750E+4   1.47238E+4
  -2.26439E+4   1.47265E+4
  -2.24552E+4   1.46092E+4
  -2.23047E+4   1.45393E+4
  -2.22100E+4   1.44631E+4
  -2.19890E+4   1.42778E+4
  -2.18428E+4   1.42534E+4
  -2.17134E+4   1.42483E+4
  -2.15151E+4   1.41768E+4
  -2.14848E+4   1.40709E+4
  -2.11864E+4   1.40630E+4
  -2.11367E+4   1.39646E+4
  -2.10321E+4   1.38856E+4
  -2.08688E+4   1.37538E+4
  -2.06901E+4   1.36838E+4
  -2.04923E+4   1.36014E+4
  -2.03273E+4   1.35407E+4
  -2.02138E+4   1.35340E+4
  -2.01668E+4   1.33885E+4
  -2.00028E+4   1.33472E+4
  -1.98511E+4   1.32534E+4
  -1.97416E+4   1.31488E+4
  -1.95717E+4   1.31259E+4
  -1.93783E+4   1.30067E+4
  -1.93398E+4   1.28589E+4
  -1.91580E+4   1.28431E+4
  -1.90906E+4   1.28047E+4
  -1.89160E+4   1.27232E+4
  -1.87720E+4   1.26125E+4
  -1.86522E+4   1.25313E+4
  -1.85749E+4   1.24056E+4
  -1.83820E+4   1.23516E+4
  -1.83363E+4   1.22110E+4
  -1.82021E+4   1.21598E+4
  -1.80202E+4   1.21235E+4
  -1.79465E+4   1.19855E+4
  -1.78144E+4   1.18735E+4
  -1.76369E+4   1.19135E+4
  -1.75455E+4   1.17696E+4
  -1.74243E+4   1.17775E+4
  -1.73716E+4   1.16657E+4
  -1.72414E+4   1.15682E+4
  -1.71281E+4   1.14720E+4
  -1.70131E+4   1.14239E+4
  -1.68135E+4   1.13883E+4
  -1.67089E+4   1.12963E+4
  -1.66429E+4   1.11891E+4
  -1.65683E+4   1.11260E+4
  -1.64246E+4   1.11059E+4
  -1.63064E+4   1.10496E+4
  -1.62563E+4   1.10278E+4
  -1.61735E+4   1.09592E+4
  -1.60619E+4   1.08296E+4
  -1.59313E+4   1.07303E+4
  -1.58788E+4   1.07874E+4
  -1.57470E+4   1.07658E+4
  -1.57226E+4   1.06170E+4
  -1.55821E+4   1.05046E+4
  -1.54845E+4   1.04689E+4
  -1.54044E+4   1.04596E+4
  -1.52699E+4   1.03294E+4
  -1.51965E+4   1.03058E+4
  -1.51267E+4   1.02774E+4
  -1.49293E+4   1.02401E+4
  -1.48515E+4   1.02026E+4
  -1.47395E+4   1.01474E+4
  -1.46609E+4   1.01129E+4
  -1.45285E+4   1.00106E+4
  -1.44518E+4   1.00347E+4
  -1.43101E+4   9.90037E+3
  -1.42568E+4   9.90599E+3
  -1.41376E+4   9.78693E+3
  -1.40110E+4   9.72047E+3
  -1.39276E+4   9.72437E+3
  -1.38473E+4   9.72505E+3
  -1.36956E+4   9.64896E+3
  -1.36895E+4   9.60355E+3
  -1.35923E+4   9.49194E+3
  -1.34517E+4   9.51262E+3
  -1.33846E+4   9.47811E+3
  -1.33313E+4   9.43677E+3
  -1.31427E+4   9.42062E+3
  -1.30919E+4   9.37295E+3
  -1.30366E+4   9.32685E+3
  -1.29541E+4   9.25658E+3
  -1.27842E+4   9.22796E+3
  -1.27445E+4   9.20864E+3
  -1.25872E+4   9.19259E+3
  -1.25274E+4   9.17286E+3
  -1.24494E+4   9.08327E+3
  -1.23692E+4   9.07978E+3
  -1.22851E+4   8.95895E+3
  -1.22647E+4   8.95377E+3
  -1.21612E+4   8.86602E+3
  -1.20151E+4   8.85778E+3
  -1.19114E+4   8.82106E+3
  -1.18980E+4   8.76113E+3
  -1.17659E+4   8.79056E+3
  -1.17861E+4   8.68659E+3
  -1.16499E+4   8.65943E+3
  -1.15496E+4   8.62756E+3
  -1.14769E+4   8.58187E+3
  -1.14188E+4   8.48664E+3
  -1.12838E+4   8.47542E+3
  -1.12997E+4   8.40146E+3
  -1.12623E+4   8.33071E+3
  -1.11758E+4   8.29424E+3
  -1.11233E+4   8.30548E+3
  -1.09378E+4   8.23141E+3
  -1.09393E+4   8.26586E+3
  -1.08336E+4   8.18660E+3
  -1.07746E+4   8.16253E+3
  -1.06458E+4   8.09443E+3
  -1.06014E+4   8.10250E+3
  -1.04947E+4   8.02195E+3
  -1.05204E+4   8.05130E+3
  -1.03247E+4   7.93798E+3
  -1.03262E+4   7.97886E+3
  -1.02545E+4   7.93475E+3
  -1.01611E+4   7.93926E+3
  -1.01156E+4   7.87452E+3
  -9.94262E+3   7.91505E+3
  -9.94653E+3   7.84901E+3
  -9.85962E+3   7.79258E+3
  -9.72436E+3   7.75481E+3
  -9.72420E+3   7.77675E+3
  -9.69707E+3   7.72463E+3
  -9.67383E+3   7.70571E+3
  -9.52732E+3   7.74114E+3
  -9.44398E+3   7.66926E+3
  -9.39644E+3   7.61793E+3
  -9.37012E+3   7.61184E+3
  -9.24505E+3   7.63625E+3
  -9.21041E+3   7.62057E+3
  -9.19338E+3   7.52951E+3
  -9.06679E+3   7.57330E+3
  -9.02621E+3   7.53961E+3
  -8.97910E+3   7.50088E+3
  -8.83895E+3   7.50667E+3
  -8.83233E+3   7.45568E+3
  -8.74271E+3   7.41909E+3
  -8.69518E+3   7.41832E+3
  -8.68531E+3   7.38765E+3
  -8.58907E+3   7.31619E+3
  -8.49682E+3   7.31876E+3
  -8.43249E+3   7.27087E+3
  -8.37980E+3   7.31067E+3
  -8.28939E+3   7.23440E+3
  -8.21531E+3   7.24606E+3
  -8.16987E+3   7.17046E+3
  -8.08486E+3   7.21112E+3
  -8.02553E+3   7.17108E+3
  -7.98534E+3   7.12177E+3
  -7.90663E+3   7.14691E+3
  -7.81307E+3   7.06981E+3
  -7.78592E+3   7.08292E+3
  -7.75900E+3   7.14548E+3
  -7.63281E+3   7.09227E+3
  -7.66483E+3   6.97028E+3
  -7.58945E+3   6.97645E+3
  -7.50539E+3   6.98903E+3
  -7.41093E+3   6.93142E+3
  -7.34703E+3   6.99603E+3
  -7.30849E+3   6.97697E+3
  -7.19505E+3   6.93887E+3
  -7.10572E+3   6.90472E+3
  -7.09376E+3   6.85814E+3
  -7.00085E+3   6.86235E+3
  -6.97774E+3   6.84294E+3
  -6.90642E+3   6.77620E+3
  -6.83342E+3   6.88524E+3
  -6.72761E+3   6.83845E+3
  -6.71831E+3   6.73686E+3
  -6.64922E+3   6.81298E+3
  -6.59197E+3   6.78916E+3
  -6.55215E+3   6.71100E+3
  -6.49034E+3   6.76101E+3
  -6.43821E+3   6.71724E+3
  -6.37088E+3   6.69714E+3
  -6.31904E+3   6.66675E+3
  -6.23321E+3   6.56302E+3
  -6.22213E+3   6.58128E+3
  -6.16317E+3   6.59665E+3
  -6.04991E+3   6.63206E+3
  -6.00689E+3   6.48923E+3
  -5.94930E+3   6.55892E+3
  -5.94501E+3   6.50268E+3
  -5.82683E+3   6.50320E+3
  -5.76148E+3   6.46323E+3
  -5.75564E+3   6.42376E+3
  -5.62843E+3   6.42591E+3
  -5.66497E+3   6.37346E+3
  -5.62457E+3   6.36648E+3
  -5.60079E+3   6.29905E+3
  -5.51372E+3   6.31164E+3
  -5.45321E+3   6.32461E+3
  -5.38559E+3   6.25951E+3
  -5.36773E+3   6.28428E+3
  -5.24551E+3   6.27024E+3
  -5.28177E+3   6.21537E+3
  -5.19999E+3   6.20057E+3
  -5.23346E+3   6.12281E+3
  -5.15040E+3   6.05808E+3
  -5.08910E+3   6.13564E+3
  -5.01082E+3   6.04274E+3
  -5.07951E+3   6.04032E+3
  -4.97503E+3   5.99030E+3
  -4.96806E+3   5.93786E+3
  -4.88651E+3   6.00518E+3
  -4.90146E+3   5.97614E+3
  -4.85912E+3   5.88652E+3
  -4.74149E+3   5.84178E+3
  -4.78713E+3   5.88236E+3
  -4.73536E+3   5.89685E+3
  -4.70697E+3   5.81370E+3
  -4.61093E+3   5.75198E+3
  -4.57442E+3   5.80297E+3
  -4.53553E+3   5.76486E+3
  -4.50353E+3   5.69987E+3
  -4.46371E+3   5.64234E+3
  -4.42809E+3   5.68625E+3
  -4.42404E+3   5.72235E+3
  -4.41380E+3   5.57892E+3
  -4.38684E+3   5.59506E+3
  -4.31371E+3   5.56762E+3
  -4.29279E+3   5.52853E+3
  -4.23891E+3   5.56425E+3
  -4.21087E+3   5.48398E+3
  -4.18147E+3   5.57810E+3
  -4.14166E+3   5.45799E+3
  -4.12720E+3   5.41983E+3
  -4.08849E+3   5.41946E+3
  -4.04213E+3   5.37080E+3
  -3.99151E+3   5.35802E+3
  -4.04788E+3   5.28971E+3
  -3.94946E+3   5.30225E+3
  -3.96340E+3   5.32500E+3
  -3.88146E+3   5.30592E+3
  -3.90229E+3   5.24947E+3
  -3.87439E+3   5.22285E+3
  -3.88007E+3   5.26879E+3
  -3.77999E+3   5.16111E+3
  -3.74264E+3   5.14607E+3
  -3.75143E+3   5.18747E+3
  -3.73184E+3   5.13416E+3
  -3.76359E+3   5.17100E+3
  -3.69834E+3   5.09085E+3
  -3.59708E+3   5.08353E+3
  -3.65778E+3   5.08218E+3
  -3.62326E+3   5.07668E+3
  -3.54587E+3   5.09317E+3
  -3.55695E+3   4.97383E+3
  -3.49751E+3   4.98349E+3
  -3.44160E+3   4.99255E+3
  -3.44196E+3   4.95743E+3
  -3.46348E+3   4.91687E+3
  -3.44826E+3   4.89161E+3
  -3.40029E+3   4.88207E+3
  -3.40646E+3   4.96774E+3
  -3.42054E+3   4.94694E+3
  -3.32245E+3   4.84832E+3
  -3.29438E+3   4.84313E+3
  -3.30569E+3   4.81531E+3
  -3.28728E+3   4.78081E+3
  -3.27086E+3   4.76670E+3
  -3.22900E+3   4.77608E+3
  -3.28361E+3   4.80713E+3
  -3.24747E+3   4.79989E+3
  -3.29029E+3   4.75871E+3
  -3.15366E+3   4.74954E+3
  -3.11784E+3   4.69422E+3
  -3.19165E+3   4.75216E+3
