 
 $NMID
 ID=''
 FMTDAT='(2E13.5)'
 TRAMP=   1.00000E+0
 VOLUME=   1.00000E+0
 $END
   1.29460E+2  -1.27276E+3
   1.47799E+3   9.00884E+2
  -1.43182E+3  -5.31165E+3
  -2.22161E+2   1.27630E+3
  -1.20036E+3   1.78374E+3
  -1.14514E+3  -2.23955E+1
   1.50403E+3   8.28150E+1
  -1.27824E+3   1.31488E+3
  -3.74311E+2  -4.24620E+3
   2.87189E+3  -2.84725E+3
   2.14765E+3   5.76801E+2
  -2.51531E+3  -1.50199E+3
   5.49066E+2  -7.43471E+2
   8.91793E+2   2.70806E+2
  -5.39253E+2   2.38077E+3
  -2.10575E+3  -4.53489E+2
   5.78975E+2  -3.86619E+3
   1.42040E+3  -2.94924E+3
   1.47685E+2   1.21606E+3
   2.04810E+3  -1.38600E+3
   3.81047E+3  -2.68689E+3
   5.24254E+3   3.97570E+3
  -5.48320E+3   5.99521E+3
  -6.09526E+3  -4.74515E+3
   3.48161E+3  -6.38206E+3
   6.87590E+3   3.89606E+3
  -3.29744E+3   2.28197E+3
  -6.09580E+2  -6.49069E+3
   6.39102E+3   6.21805E+2
   2.18388E+3   4.44678E+3
  -1.75893E+3  -1.89664E+2
   9.38169E+2  -3.53797E+2
  -4.75795E+2  -1.28305E+2
  -2.76083E+3   4.53259E+2
   4.76787E+2  -3.96760E+3
   8.62031E+2  -6.05290E+1
   1.40624E+2  -3.61790E+2
   4.89006E+2   1.69705E+3
   2.72447E+3  -2.06937E+3
  -2.46180E+2   3.90469E+3
  -6.07738E+3   2.66203E+3
  -7.15936E+3  -3.14681E+3
   6.88941E+2  -5.46902E+3
   2.50565E+2   2.76764E+2
  -1.62948E+3  -8.19776E+2
   2.22497E+3  -6.05626E+2
   2.71288E+3   2.70839E+3
  -6.39219E+3   4.82208E+3
  -1.12053E+3  -6.19914E+2
  -6.80077E+2   7.94823E+2
  -3.12815E+3   1.74389E+3
  -3.67656E+3  -1.94809E+3
   3.01244E+3  -3.75282E+2
   1.17274E+3   5.17835E+3
  -3.03990E+3   1.85167E+3
  -2.17052E+3  -4.04920E+2
  -1.72724E+2   1.28308E+3
  -4.11899E+3   3.50765E+2
  -2.43631E+3  -2.46759E+3
   2.53509E+3  -2.92929E+3
   2.67538E+3  -3.95475E+1
   1.63173E+3   2.14832E+3
   2.32906E+3   1.45283E+3
   2.33705E+3   2.87601E+3
   1.42494E+3  -1.81818E+2
   1.52149E+3   1.48449E+3
   1.89017E+3   1.35677E+3
  -1.51702E+3   1.97165E+3
  -9.39215E+2  -4.82310E+2
   8.54241E+2  -3.21551E+3
   3.02903E+3  -6.64080E+2
   1.32500E+3   3.07896E+3
  -1.82481E+3  -6.92585E+2
  -5.63943E+2  -2.09881E+2
   2.70216E+3  -5.57081E+2
   1.55587E+3  -5.39323E+2
   1.10185E+3  -1.83358E+3
   2.43791E+3   7.88061E+1
   1.52738E+3   1.76662E+3
  -2.25274E+2   1.52007E+3
   1.05503E+2   5.64025E+2
   6.50325E+2   1.74885E+3
  -1.63456E+3   1.53565E+3
   1.57191E+3  -2.94578E+2
  -1.98068E+2  -7.78318E+2
  -5.11218E+2   1.37127E+3
  -2.49856E+3  -3.12824E+3
   7.24240E+2   3.88175E+2
   2.57269E+3  -4.02195E+2
  -6.12485E+2   1.88347E+2
  -2.35820E+3  -1.18312E+3
   1.84531E+3  -5.73923E+2
  -1.47426E+2   3.05878E+2
  -4.44138E+3   4.31383E+2
  -8.01789E+2  -2.02041E+3
   1.23136E+3  -1.54336E+3
   4.46337E+2  -1.72781E+3
  -8.64707E+2   6.17247E+2
  -2.66033E+3   2.33983E+3
  -1.60651E+3  -2.91285E+2
  -2.65311E+3  -4.75281E+3
   3.07108E+3   1.84812E+2
   2.28217E+3   4.00050E+3
   3.83874E+2   4.02590E+3
  -1.49418E+3   1.55916E+2
   8.98971E+0   1.79284E+3
  -1.17342E+3   7.08134E+1
  -5.12068E+2   1.42625E+3
   1.40638E+2  -1.99103E+3
   5.41384E+2  -7.12518E+2
   2.68183E+3  -9.84932E+2
   2.37023E+3   6.66219E+2
   1.56434E+3  -1.13264E+3
  -1.15963E+3   6.77932E+2
  -8.78498E+2   1.63466E+3
   1.28968E+3  -2.68596E+3
   6.60337E+1  -1.98594E+3
  -5.61935E+2  -1.93005E+2
   1.45402E+3  -1.81407E+3
   3.73006E+2  -6.25093E+2
   2.55652E+2  -4.32476E+2
  -8.28322E+2  -9.26869E+2
   1.55150E+3   3.55142E+2
   4.92504E+1   1.20634E+2
  -1.63094E+3  -3.63131E+2
   1.74426E+2   1.23534E+3
  -5.26361E+2   5.86888E+1
  -1.14054E+3  -2.09541E+3
  -1.59626E+3   3.50485E+2
  -8.17540E+2  -1.86004E+2
  -2.74262E+2  -2.45671E+3
   1.44330E+3  -2.04181E+3
   3.60538E+2  -1.63487E+3
   5.93002E+2   5.13375E+1
   2.56021E+2   8.38144E+1
  -2.07043E+3  -7.72930E+2
  -2.18819E+3   7.78724E+2
   5.98734E+2  -5.34515E+2
   1.55083E+3   1.11646E+2
   1.14707E+3  -1.65370E+3
  -1.02145E+3  -2.03226E+2
  -4.41829E+2  -7.17561E+2
   1.18888E+2   6.44674E+1
   1.52772E+3  -2.41651E+1
  -1.51803E+3   2.00239E+2
  -1.36434E+3  -7.02796E+2
  -2.95067E+2  -1.13843E+3
   1.04335E+2  -6.53979E+2
   8.86357E+2  -1.29209E+3
   1.69034E+3  -6.34665E+2
  -2.36841E+3  -5.29543E+1
  -2.58276E+2   6.45106E+2
  -3.27829E+1  -3.59479E+3
   5.79726E+2  -6.20598E+2
   3.32031E+2  -3.74398E+2
   3.65982E+2  -8.03870E+2
  -6.88620E+2   3.67151E+2
   3.24377E+2   1.08243E+3
   1.55765E+3   1.54389E+3
   1.09855E+3   2.09156E+3
  -1.58042E+3   7.31918E+2
  -2.24737E+3   8.60969E+2
  -6.38086E+1   5.75572E+2
  -3.95972E+2   7.07101E+2
  -1.43401E+2  -2.94991E+2
  -6.00130E+2  -1.84580E+2
   1.42587E+3  -6.52465E+2
   1.42716E+3  -8.09287E+2
   4.92964E+2   2.05235E+3
  -7.14174E+2   3.20628E+3
   5.22188E+1  -3.03902E+2
  -9.13165E+2   1.09508E+3
   1.25742E+3  -2.69423E+2
  -7.03904E+2  -2.57417E+2
   1.02393E+3   1.27338E+3
   2.08796E+3   6.38869E+2
   1.00027E+3  -8.38544E+2
   2.23901E+2   1.27114E+2
  -1.35363E+2  -2.17579E+2
   7.50044E+2  -6.72159E+2
   4.42285E+2  -1.17067E+3
  -1.31315E+3  -1.39859E+1
  -3.19687E+2   1.70458E+3
  -2.03027E+2  -4.05829E+2
  -7.49090E+2  -3.60162E+2
  -7.24641E+2   6.74819E+2
  -1.31346E+3   3.58085E+2
  -2.29765E+3   1.03401E+3
   5.25345E+2  -1.58032E+3
   1.18465E+3  -1.34172E+3
   4.24200E+2   1.02814E+3
   1.06003E+3   9.81733E+2
   9.16277E+2   6.18389E+2
  -3.93354E+2  -3.94603E+2
   1.33958E+3   1.43347E+2
   1.19309E+3  -1.29305E+3
   1.97834E+3  -1.04738E+3
   1.33258E+3   3.12197E+3
   7.55307E+2  -3.48265E+2
  -1.97425E+1   8.81038E+2
  -1.52762E+3   2.38070E+3
  -1.06187E+3   3.94311E+2
  -4.03838E+2   7.32440E+2
  -1.07064E+3  -1.02997E+3
  -1.41952E+2  -1.63037E+2
  -4.52972E+2   1.11718E+3
   8.09032E+2  -1.16778E+3
   6.37876E+2   1.06472E+3
   2.79137E+2   2.71056E+3
   8.66445E+2   1.80064E+3
  -2.79224E+2  -3.00722E+2
  -3.09272E+2   1.21078E+3
   1.55533E+3   9.16967E+2
   1.10588E+3   1.47908E+2
   2.12844E+3  -1.21772E+3
  -1.73112E+1   8.51760E+2
   2.07110E+3  -9.24266E+2
  -1.62819E+2  -5.68574E+1
  -1.37528E+3   6.79058E+2
   4.45194E+2   2.34171E+2
   8.94775E+2  -6.52536E+2
  -1.22988E+3  -1.48156E+3
   1.18462E+2   1.83836E+3
   5.04744E+2   7.07670E+2
   1.15788E+3  -1.69700E+3
   6.53672E+2  -6.23240E+2
  -7.96239E+1   1.14696E+3
  -6.06197E+2   1.72295E+3
  -9.97445E+2   8.57285E+2
  -1.30536E+3  -7.26489E+1
   6.78530E+1  -2.29196E+3
   1.87335E+3   4.30558E+2
  -5.64335E+1  -1.31111E+3
   2.35191E+3  -8.35778E+2
   2.03912E+3   3.87446E+2
   1.41119E+2  -1.35040E+2
  -1.80928E+3   7.07386E+2
  -3.89502E+2  -6.99518E+2
  -9.51746E+2  -1.77578E+3
   7.60197E+1   6.32159E+2
   1.74625E+3   1.28216E+3
   2.24340E+3   1.52079E+3
   2.52666E+3   2.18492E+3
  -1.33779E+2  -8.30383E+2
  -1.63137E+3  -3.06517E+2
   7.77799E+2  -1.92764E+2
   1.16677E+3  -2.60637E+3
   9.00859E+2  -1.72537E+3
   8.44221E+2  -1.61009E+3
   1.26181E+3   7.99546E+2
  -1.18745E+3  -7.50066E+2
   1.69743E+3  -4.52216E+2
   1.50545E+3   3.04743E+1
   1.66381E+3   6.99246E+1
  -1.41687E+3  -1.64791E+3
   7.45750E+2  -6.57390E+2
   2.96777E+3  -9.14976E+2
   2.07240E+3   1.56413E+3
  -2.15168E+2   1.30185E+3
   7.43272E+2   2.13160E+3
   5.67256E+2   1.01654E+3
   2.59708E+2   4.56732E+2
   6.41572E+2   2.60145E+2
  -1.42742E+3   9.60167E+2
  -1.59337E+3  -7.85456E+2
   9.96507E+2  -1.94761E+3
  -8.80638E+2   3.89881E+2
   1.97722E+3  -1.45776E+3
  -9.37114E+2   2.19321E+3
  -1.05786E+2   2.08966E+3
  -1.43200E+3  -6.66690E+2
   3.81439E+2  -1.54711E+3
  -1.88007E+3   1.63654E+3
   3.85769E+2   9.33160E+2
   1.54522E+2   1.07518E+3
   1.28187E+2   2.73177E+1
  -1.42908E+3  -6.40377E+2
  -9.38955E+0  -5.71296E+2
   2.23394E+3  -1.62733E+3
  -9.11566E+2  -2.79909E+2
  -8.75124E+2   3.77846E+2
   1.87891E+3  -4.60839E+2
  -9.02548E+2  -7.92922E+2
  -5.43979E+2  -7.87043E+2
   7.25942E+2  -1.27633E+2
  -5.75977E+2   7.54357E+2
  -3.47193E+2  -2.16057E+3
  -4.42490E+2  -5.29087E+2
  -1.75856E+2  -2.06154E+2
   8.86824E+2  -8.77220E+2
  -6.78711E+2  -8.89066E+1
   1.68877E+2  -1.19263E+3
  -3.23018E+1  -7.09549E+2
  -1.03485E+3   4.42641E+1
  -8.42944E+2   2.34779E+2
   7.04784E+2  -8.75398E+2
  -2.47084E+2  -8.93522E+0
   2.79376E+3  -1.80118E+3
   2.28255E+2   2.16328E+2
  -8.13999E+1  -2.13516E+1
   1.27837E+3  -8.97825E+0
   1.81731E+3   4.34815E+2
   1.18519E+3  -1.30167E+3
  -6.53796E+2  -1.02273E+2
   2.73723E+1  -1.14641E+3
   7.51552E+2   1.99764E+0
  -1.79669E+2  -1.98921E+3
   1.66972E+3   5.90202E+2
  -5.59164E+2  -8.73803E+1
  -5.11834E+2  -1.55679E+3
  -1.21094E+3   2.24161E+3
   5.14772E+2   1.25689E+3
  -9.01304E+2   1.75253E+3
  -5.68301E+1  -5.37797E+2
   2.64320E+2  -1.89631E+3
  -2.38141E+2  -7.57495E+2
   6.27609E+2   2.47158E+2
  -3.01315E+2   6.09783E+2
   3.45640E+2  -9.28429E+2
   8.24796E+2  -9.51397E+2
   1.05996E+3  -1.18334E+3
  -5.29831E+2  -1.73429E+3
   5.16625E+1  -2.17445E+2
  -6.41472E+2   7.16609E-1
  -1.29508E+3  -1.86738E+3
   2.02642E+3   1.20448E+3
  -1.21385E+3   1.44976E+3
   8.91764E+2  -1.07994E+3
   6.64330E+2  -4.80538E+2
  -1.72894E+3  -2.90637E+2
  -1.31926E+1   8.30463E+2
  -1.76139E+3   1.31442E+2
   2.30072E+2   2.34544E+3
   1.96639E+3  -5.55824E+2
   8.77752E+2  -2.43032E+3
   8.58000E+2  -6.76888E+2
  -4.18508E+2  -1.48798E+3
   1.30982E+3  -7.67662E+2
   5.35167E+2  -2.33101E+3
   4.94875E+2   8.26302E+2
  -1.27515E+3  -1.64748E+3
  -6.95842E+2   2.35021E+3
  -1.08002E+2  -2.65213E+2
   1.21653E+2   3.34699E+2
   8.46868E+2  -9.82282E+2
  -7.76087E+2  -3.03463E+2
   8.33775E+1  -1.93743E+3
   8.87229E+2  -5.39011E+2
   3.28601E+2  -1.44649E+3
  -1.27543E+2  -8.93555E+2
   6.68148E+2  -1.03035E+2
  -6.17309E+2   7.73733E+2
   1.59996E+3   1.01487E+2
   1.11267E+3  -2.98098E+2
  -1.24100E+3   4.40371E+2
   6.93565E+2  -6.19175E+2
   8.91340E+2   8.23248E+2
  -9.98181E+2  -2.76181E+2
  -1.60752E+3  -1.06668E+3
   8.20425E+2  -1.78657E+3
  -5.26329E+1  -1.19731E+3
   3.92933E+1   6.70319E+2
   1.07210E+3  -9.99104E+2
  -1.00474E+3   7.78528E+2
   1.42950E+3  -1.24416E+3
  -3.43690E+2  -8.32540E+2
  -8.00345E+2   6.06520E+2
