 LCModel (Version 6.3-1N) Copyright: S.W. Provencher.          Ref.: Magn. Reson. Med. 30:672-679 (1993).                
 Slice_N1@13_13  02-Jun-2023 14:36:31
 27 lines in following concentration table = NCONC+1
    Conc.  %SD /Cr+PCr  Metabolite                                         
 2.10E-06  17% 2.7E-04 Mac                                                 
 3.61E-02  20%   4.635 Cr                                                  
 2.62E-02  27%   3.365 PCr                                                 
 8.64E-02  10%  11.083 Ins                                                 
 9.07E-02   7%  11.635 NAA                                                 
 4.40E-02  17%   5.645 Tau                                                 
 2.01E-03 229%   0.258 PCho                                                
 9.44E-03  46%   1.211 GPC                                                 
 5.82E-02  16%   7.461 Glu                                                 
 2.11E-02  33%   2.712 Gln                                                 
 6.44E-03 107%   0.827 Ala                                                 
 1.83E-02  73%   2.349 Asc                                                 
 2.08E-02  38%   2.668 Asp                                                 
 5.87E-03  71%   0.753 GABA                                                
 5.62E-03  92%   0.721 Glc                                                 
 7.46E-03  50%   0.957 GSH                                                 
    0.000 999%   0.000 Lac                                                 
 8.88E-03  53%   1.139 NAAG                                                
    0.000 999%   0.000 PE                                                  
 1.15E-02  17%   1.469 GPC+PCho                                            
    0.100   8%  12.774 NAA+NAAG                                            
 7.93E-02  15%  10.174 Glu+Gln                                             
 6.24E-02  10%   8.000 Cr+PCr                                              
    0.100   8%  12.774 NAA+NAAG                                            
 6.24E-02  10%   8.000 Cr+PCr                                              
 7.93E-02  15%  10.174 Glu+Gln                                             
   6 lines in following misc. output table
  FWHM = 0.017 ppm    S/N =   6                                            
  Data shift = 0.012 ppm                                                   
  Ph: -94 deg     -18.6 deg/ppm                                            
  alphaB,S = 3.1E+01,   7.2E+00                                            
   18 spline knots.   Ns = 5(1)                                            
   3 inflections.     1 extrema                                            
  654 points on ppm-axis = NY
      4.000000     3.994181     3.988363     3.982544     3.976726     3.970907     3.965088     3.959270     3.953451     3.947633
      3.941814     3.935995     3.930177     3.924358     3.918540     3.912721     3.906902     3.901084     3.895265     3.889446
      3.883628     3.877809     3.871991     3.866172     3.860353     3.854535     3.848716     3.842898     3.837079     3.831260
      3.825442     3.819623     3.813805     3.807986     3.802167     3.796349     3.790530     3.784712     3.778893     3.773074
      3.767256     3.761437     3.755619     3.749800     3.743981     3.738163     3.732344     3.726526     3.720707     3.714888
      3.709070     3.703251     3.697433     3.691614     3.685795     3.679977     3.674158     3.668339     3.662521     3.656702
      3.650884     3.645065     3.639246     3.633428     3.627609     3.621791     3.615972     3.610153     3.604335     3.598516
      3.592698     3.586879     3.581060     3.575242     3.569423     3.563605     3.557786     3.551967     3.546149     3.540330
      3.534512     3.528693     3.522874     3.517056     3.511237     3.505419     3.499600     3.493781     3.487963     3.482144
      3.476326     3.470507     3.464688     3.458870     3.453051     3.447232     3.441414     3.435595     3.429777     3.423958
      3.418139     3.412321     3.406502     3.400684     3.394865     3.389046     3.383228     3.377409     3.371591     3.365772
      3.359953     3.354135     3.348316     3.342498     3.336679     3.330860     3.325042     3.319223     3.313405     3.307586
      3.301767     3.295949     3.290130     3.284312     3.278493     3.272674     3.266856     3.261037     3.255219     3.249400
      3.243581     3.237763     3.231944     3.226125     3.220307     3.214488     3.208670     3.202851     3.197032     3.191214
      3.185395     3.179577     3.173758     3.167939     3.162121     3.156302     3.150484     3.144665     3.138846     3.133028
      3.127209     3.121391     3.115572     3.109753     3.103935     3.098116     3.092298     3.086479     3.080660     3.074842
      3.069023     3.063205     3.057386     3.051567     3.045749     3.039930     3.034111     3.028293     3.022474     3.016656
      3.010837     3.005018     2.999200     2.993381     2.987563     2.981744     2.975925     2.970107     2.964288     2.958470
      2.952651     2.946832     2.941014     2.935195     2.929377     2.923558     2.917739     2.911921     2.906102     2.900284
      2.894465     2.888646     2.882828     2.877009     2.871191     2.865372     2.859553     2.853735     2.847916     2.842098
      2.836279     2.830460     2.824642     2.818823     2.813004     2.807186     2.801367     2.795549     2.789730     2.783911
      2.778093     2.772274     2.766456     2.760637     2.754818     2.749000     2.743181     2.737363     2.731544     2.725725
      2.719907     2.714088     2.708270     2.702451     2.696632     2.690814     2.684995     2.679177     2.673358     2.667539
      2.661721     2.655902     2.650084     2.644265     2.638446     2.632628     2.626809     2.620991     2.615172     2.609353
      2.603535     2.597716     2.591897     2.586079     2.580260     2.574442     2.568623     2.562804     2.556986     2.551167
      2.545349     2.539530     2.533711     2.527893     2.522074     2.516256     2.510437     2.504618     2.498800     2.492981
      2.487163     2.481344     2.475525     2.469707     2.463888     2.458070     2.452251     2.446432     2.440614     2.434795
      2.428977     2.423158     2.417339     2.411521     2.405702     2.399884     2.394065     2.388246     2.382428     2.376609
      2.370790     2.364972     2.359153     2.353335     2.347516     2.341697     2.335879     2.330060     2.324242     2.318423
      2.312604     2.306786     2.300967     2.295149     2.289330     2.283511     2.277693     2.271874     2.266056     2.260237
      2.254418     2.248600     2.242781     2.236963     2.231144     2.225325     2.219507     2.213688     2.207870     2.202051
      2.196232     2.190414     2.184595     2.178777     2.172958     2.167139     2.161321     2.155502     2.149683     2.143865
      2.138046     2.132228     2.126409     2.120590     2.114772     2.108953     2.103135     2.097316     2.091497     2.085679
      2.079860     2.074042     2.068223     2.062404     2.056586     2.050767     2.044949     2.039130     2.033311     2.027493
      2.021674     2.015856     2.010037     2.004218     1.998400     1.992581     1.986763     1.980944     1.975126     1.969307
      1.963489     1.957670     1.951852     1.946033     1.940215     1.934397     1.928578     1.922760     1.916941     1.911123
      1.905304     1.899486     1.893667     1.887849     1.882030     1.876212     1.870393     1.864575     1.858756     1.852938
      1.847119     1.841301     1.835482     1.829664     1.823845     1.818027     1.812208     1.806390     1.800571     1.794753
      1.788934     1.783116     1.777297     1.771479     1.765660     1.759842     1.754023     1.748205     1.742386     1.736568
      1.730749     1.724931     1.719113     1.713294     1.707476     1.701657     1.695839     1.690020     1.684202     1.678383
      1.672565     1.666746     1.660928     1.655109     1.649291     1.643472     1.637654     1.631835     1.626017     1.620198
      1.614380     1.608561     1.602743     1.596924     1.591106     1.585287     1.579469     1.573650     1.567832     1.562013
      1.556195     1.550376     1.544558     1.538739     1.532921     1.527102     1.521284     1.515465     1.509647     1.503829
      1.498010     1.492192     1.486373     1.480555     1.474736     1.468918     1.463099     1.457281     1.451462     1.445644
      1.439825     1.434007     1.428188     1.422370     1.416551     1.410733     1.404914     1.399096     1.393277     1.387459
      1.381640     1.375822     1.370003     1.364185     1.358366     1.352548     1.346729     1.340911     1.335092     1.329274
      1.323455     1.317637     1.311818     1.306000     1.300182     1.294363     1.288545     1.282726     1.276908     1.271089
      1.265271     1.259452     1.253634     1.247815     1.241997     1.236178     1.230360     1.224541     1.218723     1.212904
      1.207086     1.201267     1.195449     1.189630     1.183812     1.177993     1.172175     1.166356     1.160538     1.154719
      1.148901     1.143082     1.137264     1.131445     1.125627     1.119808     1.113990     1.108171     1.102353     1.096534
      1.090716     1.084898     1.079079     1.073261     1.067442     1.061624     1.055805     1.049987     1.044168     1.038350
      1.032531     1.026713     1.020894     1.015076     1.009257     1.003439     0.997620     0.991802     0.985983     0.980165
      0.974346     0.968528     0.962709     0.956891     0.951072     0.945254     0.939435     0.933617     0.927798     0.921980
      0.916161     0.910343     0.904524     0.898706     0.892887     0.887069     0.881251     0.875432     0.869614     0.863795
      0.857977     0.852158     0.846340     0.840521     0.834703     0.828884     0.823066     0.817247     0.811429     0.805610
      0.799792     0.793973     0.788155     0.782336     0.776518     0.770699     0.764881     0.759062     0.753244     0.747425
      0.741607     0.735788     0.729970     0.724151     0.718333     0.712514     0.706696     0.700877     0.695059     0.689240
      0.683422     0.677603     0.671785     0.665967     0.660148     0.654330     0.648511     0.642693     0.636874     0.631056
      0.625237     0.619419     0.613600     0.607782     0.601963     0.596145     0.590326     0.584508     0.578689     0.572871
      0.567052     0.561234     0.555415     0.549597     0.543778     0.537960     0.532141     0.526323     0.520504     0.514686
      0.508867     0.503049     0.497230     0.491412     0.485593     0.479775     0.473956     0.468138     0.462319     0.456501
      0.450682     0.444864     0.439045     0.433227     0.427408     0.421590     0.415771     0.409953     0.404134     0.398316
      0.392497     0.386679     0.380860     0.375042     0.369223     0.363405     0.357586     0.351767     0.345949     0.340130
      0.334312     0.328493     0.322675     0.316856     0.311038     0.305219     0.299401     0.293582     0.287764     0.281945
      0.276127     0.270308     0.264490     0.258671     0.252853     0.247034     0.241216     0.235397     0.229579     0.223760
      0.217942     0.212123     0.206305     0.200486
 NY phased data points follow
  -4.61994E-01 -1.67889E-01 -3.41358E-01 -3.62828E-01 -3.92101E-01 -3.98279E-01 -7.56812E-02 -6.03781E-02  6.74704E-02  4.82821E-03
   7.68725E-02  5.99437E-01  6.34912E-01  1.11010E-01  2.60247E-01  5.31129E-01  2.87627E-01  2.64908E-01  4.07198E-01  4.61542E-01
   2.58368E-01  3.57274E-02  1.09552E-01 -5.43220E-02  7.06250E-02 -1.46792E-01 -3.38937E-03  1.75225E-01 -4.31873E-01  5.80349E-02
  -1.88021E-01 -1.30345E-01 -2.93978E-01 -5.74786E-01 -8.75699E-02 -2.79567E-01 -6.48870E-02 -2.40564E-01 -9.08069E-02  2.80706E-01
   1.35396E-01 -4.66053E-02  2.29522E-01  3.15338E-01  2.69774E-01  1.83320E-01  1.63693E-01  1.78661E-01 -3.89773E-02  2.10126E-01
  -1.34356E-02  1.65137E-01  1.70943E-01 -1.93441E-01 -6.29352E-01 -3.97329E-01 -6.56039E-02 -2.87814E-01 -1.92805E-01 -1.39640E-01
  -3.90833E-01 -6.28979E-01  2.30359E-01 -2.38860E-01 -4.02197E-01 -2.22461E-02 -7.65278E-02  2.28072E-01  4.43489E-01  2.87016E-01
  -1.93373E-01  1.85319E-01 -4.19782E-02  4.24685E-01  1.08192E-01 -2.57406E-01  4.36600E-03 -2.43366E-01 -3.28419E-01 -7.48831E-01
   2.25094E-02  3.40109E-01  5.29926E-01  5.62911E-01  6.49897E-01  7.65695E-01  3.06992E-01  4.37934E-01  6.25920E-01  3.53179E-01
  -2.55185E-01  2.20944E-02  1.27041E-01  2.22575E-01  2.74450E-01 -3.29103E-02  1.12737E-01 -2.21332E-01  1.33013E-01  2.00382E-01
  -6.10083E-01  4.70009E-01  5.84847E-01  1.64895E-01  7.07937E-01  7.98364E-02  2.06260E-01  3.91952E-01  4.08574E-01  5.84087E-01
   3.61017E-01  1.48515E-01  1.91328E-01  3.31629E-01  1.26501E-01  3.30729E-01  1.68094E-01 -1.01617E-01  4.47066E-02 -1.25335E-01
  -3.54087E-01 -2.19261E-01 -7.75769E-02 -2.15199E-01 -6.44808E-01 -2.62157E-01 -2.07923E-01 -7.77162E-01 -1.55508E-01 -4.36314E-01
  -8.28452E-01 -4.15706E-01 -5.22379E-01 -3.62478E-01 -4.00263E-01 -7.99446E-01 -5.71210E-01 -2.46526E-01 -2.85487E-01 -4.03919E-01
  -6.74478E-02  8.28431E-02  2.48035E-02  2.38156E-02 -4.12697E-01 -3.28449E-01 -1.72005E-01  1.92895E-01  6.22358E-02 -5.25922E-03
   3.49404E-01  1.81740E-01  1.31559E-01  5.54885E-02  1.47534E-01  7.21603E-03  2.47284E-01 -5.08770E-04  1.07621E-01  5.51776E-01
   1.57651E-01  4.96579E-01  4.40692E-01  5.14910E-01  8.66969E-01  3.72547E-01  1.74008E-01 -5.30637E-01 -1.27323E+00 -7.96101E-01
  -8.98841E-01 -6.58548E-01 -7.21630E-01 -7.99786E-01 -3.14626E-01 -3.95880E-01 -7.02712E-02 -4.78118E-01 -3.49884E-01 -4.47689E-01
  -5.87747E-01  1.18852E-01 -2.78253E-01 -1.48401E-01 -3.78680E-01 -5.65130E-01  4.07300E-02 -2.18275E-01 -1.14336E-01 -1.84635E-01
  -1.46274E-01 -1.40225E-01 -1.93943E-01  2.43094E-01 -4.05635E-01 -4.96705E-01 -5.60877E-01 -2.13825E-01  3.20001E-03 -4.99624E-01
   3.73896E-03  2.05969E-01  3.34376E-01  5.36215E-02 -6.36638E-02  5.45041E-03  1.91499E-01  2.32615E-01  3.49392E-03 -9.00592E-02
  -3.55176E-01 -1.91146E-01 -1.93316E-01  2.15629E-01 -5.11038E-02 -3.81003E-01  1.46319E-01  2.52781E-02  9.70125E-03 -3.40565E-02
  -4.84348E-02  2.39848E-01  1.28385E-01  1.81019E-01  2.91157E-01  4.07576E-01  4.60071E-01  1.92742E-01  4.75360E-01  3.34260E-01
   4.06317E-01  6.15293E-01  1.66124E-01 -1.90695E-01 -3.64146E-01 -1.07810E-01 -2.74033E-01 -1.37414E-01 -1.43690E-01 -3.14773E-01
  -1.34385E-01 -1.68321E-01 -2.50679E-03 -1.70037E-01 -2.13385E-01 -2.94514E-02  2.38690E-01 -5.38502E-02 -3.22281E-01  6.08288E-02
  -1.01475E-01 -2.36235E-01 -9.29353E-02  5.83770E-02  1.43063E-01  2.84975E-01  8.77018E-02  1.61056E-01  2.15659E-01 -2.67727E-02
   1.73383E-01  4.20579E-03  3.11685E-01  3.63842E-01  8.33583E-02  9.11180E-02  7.32532E-02  3.24129E-01  2.34657E-01  1.97300E-01
  -1.74454E-02  3.92700E-02  2.12905E-01 -8.11885E-02 -6.72961E-03  2.62130E-01  2.89691E-01 -4.40533E-01 -3.09943E-01  3.37521E-01
  -3.51916E-01 -3.70144E-01 -1.61099E-02  6.00947E-02  2.97058E-01  3.76390E-01  4.68898E-01  5.42034E-01  4.95570E-01  3.91870E-01
   4.25850E-01  1.54426E-01  1.62482E-01  1.37847E-01 -1.20194E-02 -2.20337E-01 -1.12428E-01  2.00880E-01  2.09694E-01  2.55243E-01
  -2.30098E-02  5.66204E-01  5.93499E-01  1.67913E-01  2.95126E-01  4.50245E-01  5.25787E-01  2.13480E-01  3.28699E-02  1.15486E-01
   3.06929E-01  9.22344E-02 -5.76597E-02 -4.09523E-02  3.73623E-01  3.13074E-01  6.72760E-02 -9.58482E-02 -3.29533E-01 -1.14871E-01
  -2.85423E-02 -2.02446E-01 -4.49507E-01 -2.27815E-01 -3.28222E-01 -1.30846E-01  8.95590E-02  2.13222E-01  3.04428E-01  3.92349E-01
   2.06593E-01 -1.83668E-01 -1.55842E-01 -5.31826E-01 -3.54201E-01 -3.59935E-01 -1.42032E-01 -2.65492E-01 -6.76237E-01 -3.74962E-01
  -2.65977E-01 -1.26269E+00 -2.70400E+00 -1.76699E+00 -7.67986E-01 -4.67303E-01  2.70265E-01  2.29153E-01 -3.45265E-02  1.14470E-01
   2.73413E-01 -8.51506E-02  7.50942E-02  5.76058E-01  1.58781E-01  1.07834E-02 -5.86712E-02  3.45065E-02  1.39625E-01 -1.27845E-01
   6.77499E-02  1.51233E-01  1.66994E-01 -9.61310E-03  3.28067E-01  8.13450E-02 -1.41770E-01  3.00684E-01 -1.77336E-01  1.99050E-02
   1.94514E-01 -6.93448E-02  1.33793E-01  2.47987E-01  1.48031E-01 -4.48173E-02  1.24170E-02  1.73366E-01 -7.87477E-02  2.25191E-01
   4.80417E-01  1.30663E-01  1.72754E-02 -9.30538E-02  8.82427E-02  2.77090E-01  1.39314E-02  1.74148E-01  1.57444E-01 -1.18603E-01
   2.49721E-01  1.73724E-01  3.86923E-01  1.54027E-01  6.78618E-02  1.03456E-01 -3.31951E-02  4.65821E-01  2.20918E-01  4.00951E-01
  -3.05192E-02 -1.41262E-02  1.01260E-01  8.87217E-02  3.55585E-01 -2.49491E-01  1.34414E-01  2.32785E-01  6.32921E-02  1.26314E-01
   7.00883E-02  2.36550E-01 -1.00419E-01 -5.17708E-01 -3.60273E-01 -1.66564E-01 -1.24425E-01 -4.16532E-01 -1.19027E-01 -1.65197E-01
  -3.47098E-01  4.96529E-02 -6.21086E-01 -4.74221E-01 -1.95477E-01 -3.07768E-01 -2.88459E-01 -1.82595E-01 -9.91018E-02 -6.34236E-02
   2.46202E-01 -4.47611E-02 -3.40716E-02  1.83195E-01  2.22291E-01  9.75343E-02 -9.87664E-02 -1.04668E-01  4.35432E-02 -3.58551E-02
   2.40279E-02 -3.19714E-02 -7.16379E-02  7.78754E-02 -1.10711E-01  2.12796E-01  2.18691E-01  2.64605E-01  2.69177E-01  2.04803E-01
   2.49625E-01 -7.79367E-02 -2.87398E-01 -2.82122E-01  1.61526E-01 -8.01849E-02 -3.21459E-01 -1.00953E-01  1.33362E-02 -5.06925E-02
  -7.75439E-02  3.87195E-01 -4.51645E-02 -8.71506E-02  1.66344E-01  2.94550E-02  3.28209E-02 -4.38405E-01 -2.52563E-01 -2.48700E-01
  -1.05841E-01 -1.06642E-01 -1.21642E-01  1.94285E-01 -2.30238E-01 -5.64492E-02 -1.44755E-01 -1.39026E-01  8.49341E-02  1.49088E-01
   2.02439E-01 -9.65738E-02 -1.82145E-01 -2.40832E-01 -1.31878E-01  1.02242E-01  1.88965E-01  8.41543E-02 -1.08501E-03 -8.85024E-02
   1.89220E-02  2.04499E-01  1.21449E-01 -4.00848E-02 -2.40282E-02  7.00632E-02  2.53790E-01  1.79123E-01  2.13142E-01  8.53426E-02
  -2.49019E-01  2.14391E-01  4.75623E-02  1.76034E-02  2.23530E-01  2.90611E-01  6.46332E-02 -1.12675E-01  2.94754E-01  1.08600E-01
   1.34039E-01  2.55995E-02  2.50279E-02 -6.62625E-02  3.40955E-01  3.60295E-01 -3.03840E-01  1.75436E-01 -9.79243E-02 -2.71361E-01
   1.08540E-01  6.21174E-02 -1.00112E-01 -1.88754E-03 -2.82967E-01 -5.67125E-01 -2.41304E-01 -3.98948E-01 -2.19658E-01 -2.39903E-01
  -6.30122E-01 -3.25035E-01  1.07787E-02 -1.07011E-01 -2.12254E-01 -5.62012E-02  3.02850E-02 -1.06237E-01 -9.41558E-02 -3.26291E-01
  -4.45560E-01 -8.18234E-02 -1.58915E-01 -1.05211E-01 -1.82909E-01 -2.24820E-02  8.05260E-02 -8.21731E-02  1.33324E-01 -3.40960E-02
  -1.45382E-01 -2.83539E-01 -1.88771E-01  9.57694E-02  5.19993E-02 -4.62486E-02 -9.57496E-02 -4.04262E-02  2.59995E-01  1.54237E-01
   1.19389E-01  1.61336E-01  2.57995E-01  3.95863E-01 -8.18087E-02  1.35494E-01 -1.84941E-01 -2.90368E-01  1.70944E-02  2.18383E-01
   1.57089E-01 -3.27012E-01  1.46667E-01  9.64612E-02 -1.60153E-01 -1.71192E-01  6.91003E-04 -4.79494E-02  2.06004E-01  1.02205E-01
  -2.58008E-01 -4.46754E-02 -2.00792E-01 -1.62053E-01 -3.48050E-01 -2.78024E-02  1.46411E-01  1.41395E-02  2.41038E-01  2.44120E-01
   1.64240E-01  1.82229E-01 -1.39737E-01  1.44766E-02  2.48355E-01 -1.28843E-01 -2.32637E-01 -1.93363E-01 -3.87883E-03 -2.23458E-01
   2.72020E-02 -2.94049E-01 -3.25228E-01  1.85165E-01  4.47340E-02  1.65897E-01 -7.57415E-03 -5.73162E-02  6.90181E-02  7.55464E-02
  -1.39719E-01  1.00843E-01  4.47021E-02  4.88161E-02  2.54715E-02 -4.50280E-02  1.28346E-01  3.56113E-01  5.09623E-01 -6.77418E-02
   9.64150E-02 -1.73402E-02  3.06499E-02  1.04940E-01 -4.47042E-02  1.45900E-01  1.15471E-01  1.89607E-01 -1.66800E-01 -5.97107E-02
   1.17728E-01 -1.06180E-01  1.40964E-02  1.13765E-01  6.61564E-02 -1.59098E-02 -3.54672E-02 -8.57768E-02  7.01527E-02  1.67262E-01
   2.32043E-02  3.01681E-01  1.88535E-01  6.16456E-02 -4.00214E-02 -8.18048E-03 -1.30693E-01 -2.74430E-01  2.67883E-01  3.33611E-01
   3.42559E-01 -9.39298E-02 -1.01356E-01  2.16458E-01
 NY points of the fit to the data follow
   3.79287E-02  2.03395E-02  3.26664E-03 -3.07893E-03  3.65080E-03  2.14805E-02  4.60768E-02  1.10968E-01  1.21970E-01  1.24729E-01
   3.01189E-01  5.62235E-01  4.63152E-01  2.83370E-01  4.13396E-01  5.78777E-01  4.58179E-01  2.67292E-01  1.57083E-01  5.77350E-02
   2.31242E-02 -3.43146E-03 -4.78906E-02 -7.89630E-02 -1.03002E-01 -1.19789E-01 -1.31438E-01 -1.43177E-01 -1.55621E-01 -1.67006E-01
  -1.75859E-01 -1.86453E-01 -2.05070E-01 -2.25700E-01 -2.42950E-01 -2.39049E-01 -2.32601E-01 -2.14293E-01 -1.42607E-01 -8.43208E-03
   8.27990E-02  1.34420E-01  1.89196E-01  2.19409E-01  2.33283E-01  2.47203E-01  2.04785E-01  1.17625E-01  7.19343E-02  2.60455E-02
  -3.15357E-02 -6.69027E-02 -1.08503E-01 -1.45332E-01 -1.71126E-01 -2.21646E-01 -2.73896E-01 -2.87567E-01 -2.38233E-01 -2.55357E-01
  -4.01336E-01 -3.59257E-01 -2.21309E-01 -3.34181E-01 -2.54048E-01  2.03242E-01  3.02012E-01  2.77629E-01  4.87240E-01  4.51436E-01
   3.07073E-01  2.37636E-01  1.13336E-01 -5.70294E-04 -1.07005E-01 -2.13325E-01 -2.49951E-01 -3.78438E-01 -5.82438E-01 -4.63068E-01
  -9.58028E-02  6.28205E-02  2.14409E-01  4.98321E-01  5.70936E-01  5.11145E-01  4.56883E-01  3.60241E-01  2.84448E-01  2.50561E-01
   2.27883E-01  1.98021E-01  1.55331E-01  1.09293E-01  5.19602E-02 -1.98218E-02 -9.96177E-02 -1.70520E-01 -2.00717E-01 -1.52547E-01
  -2.56848E-02  1.25450E-01  2.44475E-01  2.91669E-01  2.85064E-01  2.64235E-01  2.43495E-01  2.30803E-01  2.26439E-01  2.23356E-01
   2.19586E-01  2.16505E-01  2.11636E-01  2.05739E-01  2.00860E-01  1.96587E-01  1.90301E-01  1.60525E-01  1.40233E-01  1.31257E-01
   1.31498E-02 -9.66000E-02 -8.45706E-02 -2.06340E-01 -3.73116E-01 -3.20298E-01 -3.02472E-01 -4.34920E-01 -4.37326E-01 -4.62256E-01
  -4.47685E-01 -4.00587E-01 -2.98299E-01 -2.25726E-01 -5.10882E-01 -8.01699E-01 -6.68518E-01 -3.96045E-01 -1.92319E-01 -2.52888E-02
   3.02164E-02  3.08547E-02  4.57716E-02  6.41634E-02  8.22514E-02  9.97096E-02  1.15371E-01  1.29557E-01  1.42339E-01  1.53315E-01
   1.64817E-01  1.76962E-01  1.89262E-01  2.03618E-01  2.19935E-01  2.37415E-01  2.59527E-01  2.86266E-01  3.15928E-01  3.53010E-01
   4.09782E-01  5.01997E-01  5.31215E-01  4.91772E-01  5.15273E-01  5.24932E-01  1.40773E-01 -5.37311E-01 -9.85390E-01 -9.88309E-01
  -7.70952E-01 -5.54841E-01 -3.90882E-01 -3.38479E-01 -3.36412E-01 -3.07426E-01 -2.76797E-01 -2.63161E-01 -2.59436E-01 -2.45956E-01
  -2.24951E-01 -2.09470E-01 -1.99901E-01 -1.91486E-01 -1.87448E-01 -1.81219E-01 -1.69901E-01 -1.59330E-01 -1.50657E-01 -1.42700E-01
  -1.33011E-01 -1.23325E-01 -1.14112E-01 -1.04104E-01 -9.39818E-02 -8.56960E-02 -7.65705E-02 -6.33993E-02 -5.01496E-02 -4.14870E-02
  -3.06813E-02 -9.86185E-03  5.77171E-03 -1.98377E-03 -2.34887E-02 -3.02212E-02 -9.65434E-03  8.54582E-03 -9.91968E-03 -4.99126E-02
  -7.32999E-02 -7.59140E-02 -6.71359E-02 -5.34111E-02 -4.28818E-02 -3.20244E-02 -1.88149E-02 -1.53120E-02 -2.39199E-02 -2.08039E-02
   1.47658E-02  5.46450E-02  7.14976E-02  1.08775E-01  2.18044E-01  3.51971E-01  3.75726E-01  2.71976E-01  2.45809E-01  3.83699E-01
   4.17908E-01  2.56815E-01  1.07528E-01 -9.19241E-03 -9.00246E-02 -9.69293E-02 -9.17056E-02 -9.51928E-02 -9.85437E-02 -1.05255E-01
  -1.12233E-01 -1.18248E-01 -1.20970E-01 -1.22911E-01 -1.25000E-01 -1.28630E-01 -1.28654E-01 -1.31735E-01 -1.37698E-01 -1.36798E-01
  -1.37317E-01 -1.53341E-01 -1.44166E-01 -1.39232E-01 -1.73979E-01 -1.10930E-01  1.98168E-02  4.09999E-02  3.38228E-02  1.14242E-01
   1.60325E-01  1.69111E-01  1.33627E-01  1.03320E-01  1.55963E-01  1.52088E-01  1.41197E-01  1.42341E-01  1.28653E-01  1.27259E-01
   1.03126E-01  7.24079E-02  3.32160E-02 -6.04861E-03 -3.72731E-02 -6.96471E-02 -1.05212E-01 -1.51972E-01 -1.90586E-01 -2.29520E-01
  -2.74252E-01 -2.87369E-01 -2.55751E-01 -1.70998E-01  6.30298E-06  1.85654E-01  2.97936E-01  3.76976E-01  3.72351E-01  2.92309E-01
   2.32483E-01  1.82941E-01  1.53103E-01  1.44875E-01  1.47534E-01  1.56799E-01  1.60127E-01  1.64833E-01  1.61462E-01  1.52236E-01
   1.46807E-01  1.39364E-01  1.30942E-01  1.23964E-01  1.12844E-01  1.01884E-01  8.78564E-02  6.31179E-02  4.17488E-02  2.38995E-02
   1.92338E-03 -1.10589E-02 -1.59756E-02 -3.75407E-02 -5.14522E-02 -7.35760E-02 -1.24109E-01 -1.78870E-01 -2.22524E-01 -2.56689E-01
  -2.77108E-01 -2.74217E-01 -2.48826E-01 -2.12241E-01 -1.53186E-01 -9.23441E-02 -3.13546E-02  2.35623E-02  4.81324E-02  4.12794E-02
   3.11090E-03 -6.48464E-02 -1.33409E-01 -1.61616E-01 -2.05413E-01 -2.94421E-01 -2.90938E-01 -2.76110E-01 -5.50265E-01 -5.38149E-01
  -5.02004E-01 -1.42482E+00 -2.48812E+00 -1.94299E+00 -9.68388E-01 -4.79562E-01 -1.27109E-02  6.12586E-02 -4.29304E-02 -4.36769E-02
  -3.12913E-02 -1.77063E-02 -6.93353E-03  6.52960E-04  7.48533E-03  1.28400E-02  1.43595E-02  1.45241E-02  8.44471E-03 -2.06986E-03
  -1.45724E-02 -2.56522E-02 -3.80035E-02 -4.27174E-02 -4.29828E-02 -3.81302E-02 -2.55553E-02 -1.37569E-02 -2.12262E-03  7.50272E-03
   1.51732E-02  2.27800E-02  3.03300E-02  3.60291E-02  3.91569E-02  4.21956E-02  4.52410E-02  4.89959E-02  5.36434E-02  5.69347E-02
   5.90232E-02  6.11310E-02  6.38044E-02  6.70337E-02  7.00613E-02  7.18507E-02  7.28498E-02  7.37362E-02  7.63933E-02  7.97669E-02
   8.26207E-02  8.52140E-02  8.59697E-02  8.42620E-02  8.10126E-02  7.81839E-02  7.53539E-02  7.20642E-02  6.86808E-02  6.35915E-02
   5.70874E-02  5.14271E-02  4.56888E-02  3.79964E-02  3.08450E-02  2.59194E-02  2.11466E-02  1.52187E-02  1.01674E-02  6.02815E-03
   1.32845E-03 -2.14735E-03 -4.08990E-03 -6.76741E-03 -9.37248E-03 -1.14573E-02 -1.41502E-02 -1.67697E-02 -1.82916E-02 -1.87307E-02
  -1.89974E-02 -1.94762E-02 -1.83149E-02 -1.53251E-02 -1.24631E-02 -8.04032E-03 -2.30587E-03  3.16477E-03  1.12971E-02  3.00547E-02
   4.05740E-02  5.18382E-02  8.10598E-02  1.11510E-01  1.17777E-01  1.18243E-01  9.71415E-02  5.98592E-02  4.83810E-02  5.01520E-02
   5.94390E-02  7.55071E-02  8.91049E-02  1.00245E-01  1.10538E-01  1.20983E-01  1.30389E-01  1.38475E-01  1.44395E-01  1.47190E-01
   1.47477E-01  1.46914E-01  1.45190E-01  1.42054E-01  1.38790E-01  1.33668E-01  1.25873E-01  1.16371E-01  1.04945E-01  9.42930E-02
   8.46394E-02  7.59217E-02  6.73701E-02  5.82016E-02  4.91838E-02  4.25422E-02  3.65958E-02  3.01477E-02  2.47493E-02  2.01171E-02
   1.65261E-02  1.36690E-02  1.11239E-02  9.26200E-03  9.33429E-03  1.19769E-02  1.50404E-02  1.82657E-02  2.24921E-02  2.65629E-02
   3.07158E-02  3.67465E-02  4.27880E-02  4.66076E-02  4.98643E-02  5.25769E-02  5.38132E-02  5.44147E-02  5.66191E-02  5.94736E-02
   6.08291E-02  6.06595E-02  5.85899E-02  5.61771E-02  5.43894E-02  5.12744E-02  4.67939E-02  4.35192E-02  4.08832E-02  3.78809E-02
   3.45379E-02  3.10912E-02  2.78599E-02  2.41873E-02  2.06625E-02  1.71552E-02  1.27481E-02  9.38861E-03  8.23865E-03  5.89715E-03
   1.71204E-03 -2.21904E-03 -6.08498E-03 -1.14528E-02 -1.87599E-02 -2.67904E-02 -3.49747E-02 -4.39723E-02 -5.35037E-02 -6.51817E-02
  -8.10952E-02 -9.88188E-02 -1.14895E-01 -1.29529E-01 -1.44070E-01 -1.58085E-01 -1.70455E-01 -1.80255E-01 -1.88882E-01 -1.97451E-01
  -2.02047E-01 -2.00846E-01 -1.98263E-01 -1.96417E-01 -1.92160E-01 -1.84716E-01 -1.76743E-01 -1.69494E-01 -1.61770E-01 -1.55327E-01
  -1.49753E-01 -1.41825E-01 -1.31965E-01 -1.22942E-01 -1.13499E-01 -1.02473E-01 -9.19970E-02 -8.23714E-02 -7.26212E-02 -6.26892E-02
  -5.50486E-02 -4.71173E-02 -3.75406E-02 -2.95927E-02 -2.40465E-02 -1.89789E-02 -1.24785E-02 -5.25216E-03 -1.30309E-03  8.81711E-04
   5.06683E-03  8.64159E-03  1.12292E-02  1.41756E-02  1.54038E-02  1.56374E-02  1.81356E-02  2.04230E-02  1.98650E-02  1.99967E-02
   2.24659E-02  2.43927E-02  2.58051E-02  2.89536E-02  3.11954E-02  3.10613E-02  3.10682E-02  3.15338E-02  3.10845E-02  3.08167E-02
   3.11490E-02  3.07604E-02  3.06056E-02  3.09429E-02  3.06442E-02  3.09347E-02  3.13772E-02  3.16588E-02  3.35290E-02  3.31459E-02
   2.86058E-02  2.62868E-02  2.82644E-02  2.97463E-02  2.92328E-02  2.89056E-02  2.89490E-02  2.85716E-02  2.68240E-02  2.57107E-02
   2.67258E-02  2.93751E-02  3.11022E-02  3.14675E-02  3.21100E-02  3.30691E-02  3.45861E-02  3.58122E-02  3.59548E-02  3.67791E-02
   3.83551E-02  3.81068E-02  3.59999E-02  3.54373E-02  3.63699E-02  3.72733E-02  3.84206E-02  4.02557E-02  4.22417E-02  4.25998E-02
   4.19700E-02  4.41454E-02  4.75402E-02  4.95278E-02  5.13283E-02  5.03469E-02  4.72986E-02  4.67614E-02  4.77383E-02  4.97934E-02
   5.12914E-02  5.08352E-02  5.02955E-02  5.01713E-02  5.09548E-02  5.28115E-02  5.32759E-02  5.22951E-02  5.41248E-02  5.69912E-02
   5.78889E-02  5.84151E-02  5.94064E-02  6.08200E-02  6.28674E-02  6.47306E-02  6.66460E-02  7.09256E-02  7.59049E-02  7.89636E-02
   8.14695E-02  8.36170E-02  8.58610E-02  8.82421E-02
 NY background values follow
     3.497E-02    3.483E-02    3.468E-02    3.453E-02    3.438E-02    3.423E-02    3.409E-02    3.394E-02    3.379E-02    3.364E-02
     3.349E-02    3.335E-02    3.320E-02    3.305E-02    3.290E-02    3.275E-02    3.261E-02    3.246E-02    3.231E-02    3.216E-02
     3.201E-02    3.186E-02    3.172E-02    3.157E-02    3.142E-02    3.127E-02    3.112E-02    3.097E-02    3.082E-02    3.068E-02
     3.053E-02    3.038E-02    3.023E-02    3.008E-02    2.993E-02    2.978E-02    2.963E-02    2.949E-02    2.934E-02    2.919E-02
     2.904E-02    2.889E-02    2.874E-02    2.859E-02    2.844E-02    2.829E-02    2.815E-02    2.800E-02    2.785E-02    2.770E-02
     2.755E-02    2.740E-02    2.725E-02    2.710E-02    2.695E-02    2.680E-02    2.665E-02    2.651E-02    2.636E-02    2.621E-02
     2.606E-02    2.591E-02    2.576E-02    2.561E-02    2.546E-02    2.531E-02    2.516E-02    2.501E-02    2.486E-02    2.471E-02
