 LCModel (Version 6.3-1N) Copyright: S.W. Provencher.          Ref.: Magn. Reson. Med. 30:672-679 (1993).                
 Slice_N1@12_12  02-Jun-2023 14:36:36
 27 lines in following concentration table = NCONC+1
    Conc.  %SD /Cr+PCr  Metabolite                                         
 3.51E-06  15% 3.5E-04 Mac                                                 
 5.72E-02  23%   5.661 Cr                                                  
 2.36E-02  56%   2.339 PCr                                                 
    0.107  12%  10.627 Ins                                                 
    0.113   8%  11.170 NAA                                                 
 9.05E-02  12%   8.953 Tau                                                 
 1.38E-02  43%   1.363 PCho                                                
 5.84E-03  96%   0.578 GPC                                                 
 9.80E-02  14%   9.692 Glu                                                 
 5.59E-02  20%   5.525 Gln                                                 
 5.21E-03 198%   0.515 Ala                                                 
 1.44E-02 130%   1.428 Asc                                                 
 1.32E-02  81%   1.304 Asp                                                 
 1.80E-02  32%   1.781 GABA                                                
 7.45E-03  93%   0.737 Glc                                                 
 1.59E-02  41%   1.577 GSH                                                 
    0.000 999%   0.000 Lac                                                 
 2.91E-02  23%   2.878 NAAG                                                
    0.000 999%   0.000 PE                                                  
 1.96E-02  15%   1.941 GPC+PCho                                            
    0.142   8%  14.047 NAA+NAAG                                            
    0.154  11%  15.218 Glu+Gln                                             
 8.09E-02  11%   8.000 Cr+PCr                                              
    0.142   8%  14.047 NAA+NAAG                                            
 8.09E-02  11%   8.000 Cr+PCr                                              
    0.154  11%  15.218 Glu+Gln                                             
   6 lines in following misc. output table
  FWHM = 0.023 ppm    S/N =   4                                            
  Data shift = 0.017 ppm                                                   
  Ph: -91 deg      -7.2 deg/ppm                                            
  alphaB,S = 4.9E-01,   1.2E+01                                            
   18 spline knots.   Ns = 5(1)                                            
  ( 6) 3 infls.   ( 2) 2 extrs.                                            
  654 points on ppm-axis = NY
      4.000000     3.994181     3.988363     3.982544     3.976726     3.970907     3.965088     3.959270     3.953451     3.947633
      3.941814     3.935995     3.930177     3.924358     3.918540     3.912721     3.906902     3.901084     3.895265     3.889446
      3.883628     3.877809     3.871991     3.866172     3.860353     3.854535     3.848716     3.842898     3.837079     3.831260
      3.825442     3.819623     3.813805     3.807986     3.802167     3.796349     3.790530     3.784712     3.778893     3.773074
      3.767256     3.761437     3.755619     3.749800     3.743981     3.738163     3.732344     3.726526     3.720707     3.714888
      3.709070     3.703251     3.697433     3.691614     3.685795     3.679977     3.674158     3.668339     3.662521     3.656702
      3.650884     3.645065     3.639246     3.633428     3.627609     3.621791     3.615972     3.610153     3.604335     3.598516
      3.592698     3.586879     3.581060     3.575242     3.569423     3.563605     3.557786     3.551967     3.546149     3.540330
      3.534512     3.528693     3.522874     3.517056     3.511237     3.505419     3.499600     3.493781     3.487963     3.482144
      3.476326     3.470507     3.464688     3.458870     3.453051     3.447232     3.441414     3.435595     3.429777     3.423958
      3.418139     3.412321     3.406502     3.400684     3.394865     3.389046     3.383228     3.377409     3.371591     3.365772
      3.359953     3.354135     3.348316     3.342498     3.336679     3.330860     3.325042     3.319223     3.313405     3.307586
      3.301767     3.295949     3.290130     3.284312     3.278493     3.272674     3.266856     3.261037     3.255219     3.249400
      3.243581     3.237763     3.231944     3.226125     3.220307     3.214488     3.208670     3.202851     3.197032     3.191214
      3.185395     3.179577     3.173758     3.167939     3.162121     3.156302     3.150484     3.144665     3.138846     3.133028
      3.127209     3.121391     3.115572     3.109753     3.103935     3.098116     3.092298     3.086479     3.080660     3.074842
      3.069023     3.063205     3.057386     3.051567     3.045749     3.039930     3.034111     3.028293     3.022474     3.016656
      3.010837     3.005018     2.999200     2.993381     2.987563     2.981744     2.975925     2.970107     2.964288     2.958470
      2.952651     2.946832     2.941014     2.935195     2.929377     2.923558     2.917739     2.911921     2.906102     2.900284
      2.894465     2.888646     2.882828     2.877009     2.871191     2.865372     2.859553     2.853735     2.847916     2.842098
      2.836279     2.830460     2.824642     2.818823     2.813004     2.807186     2.801367     2.795549     2.789730     2.783911
      2.778093     2.772274     2.766456     2.760637     2.754818     2.749000     2.743181     2.737363     2.731544     2.725725
      2.719907     2.714088     2.708270     2.702451     2.696632     2.690814     2.684995     2.679177     2.673358     2.667539
      2.661721     2.655902     2.650084     2.644265     2.638446     2.632628     2.626809     2.620991     2.615172     2.609353
      2.603535     2.597716     2.591897     2.586079     2.580260     2.574442     2.568623     2.562804     2.556986     2.551167
      2.545349     2.539530     2.533711     2.527893     2.522074     2.516256     2.510437     2.504618     2.498800     2.492981
      2.487163     2.481344     2.475525     2.469707     2.463888     2.458070     2.452251     2.446432     2.440614     2.434795
      2.428977     2.423158     2.417339     2.411521     2.405702     2.399884     2.394065     2.388246     2.382428     2.376609
      2.370790     2.364972     2.359153     2.353335     2.347516     2.341697     2.335879     2.330060     2.324242     2.318423
      2.312604     2.306786     2.300967     2.295149     2.289330     2.283511     2.277693     2.271874     2.266056     2.260237
      2.254418     2.248600     2.242781     2.236963     2.231144     2.225325     2.219507     2.213688     2.207870     2.202051
      2.196232     2.190414     2.184595     2.178777     2.172958     2.167139     2.161321     2.155502     2.149683     2.143865
      2.138046     2.132228     2.126409     2.120590     2.114772     2.108953     2.103135     2.097316     2.091497     2.085679
      2.079860     2.074042     2.068223     2.062404     2.056586     2.050767     2.044949     2.039130     2.033311     2.027493
      2.021674     2.015856     2.010037     2.004218     1.998400     1.992581     1.986763     1.980944     1.975126     1.969307
      1.963489     1.957670     1.951852     1.946033     1.940215     1.934397     1.928578     1.922760     1.916941     1.911123
      1.905304     1.899486     1.893667     1.887849     1.882030     1.876212     1.870393     1.864575     1.858756     1.852938
      1.847119     1.841301     1.835482     1.829664     1.823845     1.818027     1.812208     1.806390     1.800571     1.794753
      1.788934     1.783116     1.777297     1.771479     1.765660     1.759842     1.754023     1.748205     1.742386     1.736568
      1.730749     1.724931     1.719113     1.713294     1.707476     1.701657     1.695839     1.690020     1.684202     1.678383
      1.672565     1.666746     1.660928     1.655109     1.649291     1.643472     1.637654     1.631835     1.626017     1.620198
      1.614380     1.608561     1.602743     1.596924     1.591106     1.585287     1.579469     1.573650     1.567832     1.562013
      1.556195     1.550376     1.544558     1.538739     1.532921     1.527102     1.521284     1.515465     1.509647     1.503829
      1.498010     1.492192     1.486373     1.480555     1.474736     1.468918     1.463099     1.457281     1.451462     1.445644
      1.439825     1.434007     1.428188     1.422370     1.416551     1.410733     1.404914     1.399096     1.393277     1.387459
      1.381640     1.375822     1.370003     1.364185     1.358366     1.352548     1.346729     1.340911     1.335092     1.329274
      1.323455     1.317637     1.311818     1.306000     1.300182     1.294363     1.288545     1.282726     1.276908     1.271089
      1.265271     1.259452     1.253634     1.247815     1.241997     1.236178     1.230360     1.224541     1.218723     1.212904
      1.207086     1.201267     1.195449     1.189630     1.183812     1.177993     1.172175     1.166356     1.160538     1.154719
      1.148901     1.143082     1.137264     1.131445     1.125627     1.119808     1.113990     1.108171     1.102353     1.096534
      1.090716     1.084898     1.079079     1.073261     1.067442     1.061624     1.055805     1.049987     1.044168     1.038350
      1.032531     1.026713     1.020894     1.015076     1.009257     1.003439     0.997620     0.991802     0.985983     0.980165
      0.974346     0.968528     0.962709     0.956891     0.951072     0.945254     0.939435     0.933617     0.927798     0.921980
      0.916161     0.910343     0.904524     0.898706     0.892887     0.887069     0.881251     0.875432     0.869614     0.863795
      0.857977     0.852158     0.846340     0.840521     0.834703     0.828884     0.823066     0.817247     0.811429     0.805610
      0.799792     0.793973     0.788155     0.782336     0.776518     0.770699     0.764881     0.759062     0.753244     0.747425
      0.741607     0.735788     0.729970     0.724151     0.718333     0.712514     0.706696     0.700877     0.695059     0.689240
      0.683422     0.677603     0.671785     0.665967     0.660148     0.654330     0.648511     0.642693     0.636874     0.631056
      0.625237     0.619419     0.613600     0.607782     0.601963     0.596145     0.590326     0.584508     0.578689     0.572871
      0.567052     0.561234     0.555415     0.549597     0.543778     0.537960     0.532141     0.526323     0.520504     0.514686
      0.508867     0.503049     0.497230     0.491412     0.485593     0.479775     0.473956     0.468138     0.462319     0.456501
      0.450682     0.444864     0.439045     0.433227     0.427408     0.421590     0.415771     0.409953     0.404134     0.398316
      0.392497     0.386679     0.380860     0.375042     0.369223     0.363405     0.357586     0.351767     0.345949     0.340130
      0.334312     0.328493     0.322675     0.316856     0.311038     0.305219     0.299401     0.293582     0.287764     0.281945
      0.276127     0.270308     0.264490     0.258671     0.252853     0.247034     0.241216     0.235397     0.229579     0.223760
      0.217942     0.212123     0.206305     0.200486
 NY phased data points follow
  -1.67590E-01 -2.40817E-01 -6.64007E-02 -4.24304E-01  1.19407E-01  7.50538E-02 -5.29341E-01  1.44130E-01 -7.72103E-02 -2.07233E-01
  -2.44687E-03  4.35224E-01  3.64851E-01 -1.44592E-02  1.21375E-01  6.56521E-01  5.17819E-01  1.08477E-01  2.74623E-01  2.16345E-01
   3.23049E-01 -1.85670E-01 -9.07230E-02 -1.45338E-01 -4.22071E-01 -2.14807E-01 -9.62274E-02  2.24832E-01 -3.86883E-01 -5.72932E-01
  -2.12378E-01  7.75718E-02 -3.53443E-01 -4.20359E-01 -7.12564E-02 -4.18518E-01 -3.82018E-01 -2.34257E-01  1.96166E-02 -3.18750E-01
   4.24856E-01  1.04980E+00  2.13770E-01  1.50957E-01  6.47679E-01  7.40349E-01  6.30555E-01  4.62778E-01  1.54863E-01  9.53185E-01
   2.25276E-01 -4.91955E-01 -2.08209E-01 -4.91360E-01 -2.15025E-01 -2.91416E-01 -1.01110E-01 -4.43699E-01 -4.29367E-01  5.24060E-02
  -4.47999E-01 -7.90900E-01 -6.59275E-01 -5.23349E-01 -2.73697E-01 -1.62131E-01  1.98442E-01  1.03841E-01  2.76638E-01  9.30571E-01
  -1.09192E-01 -2.72791E-01 -4.71499E-02  4.34960E-01  2.65114E-01 -1.48226E-01  4.90256E-02 -5.02814E-01 -2.41013E-01 -5.33145E-01
  -6.17113E-01 -2.39937E-02  6.02179E-01  1.20420E-01  5.48060E-01  8.76278E-01  1.46095E-01  1.16954E+00  8.04809E-01 -5.42989E-02
  -3.73958E-02  2.75518E-01  3.49542E-01  3.80544E-01  1.72289E-01 -2.30831E-01 -2.49070E-01 -2.50947E-01 -3.04527E-01 -1.85382E-01
   2.14493E-01 -4.57217E-01 -1.45957E-01  3.69542E-01  4.16401E-01  7.66141E-01  2.69603E-01  4.48051E-01  7.13610E-01  4.05805E-01
   5.20544E-01  4.51293E-01  5.65485E-01  7.23787E-01  3.29095E-01  4.37572E-01  5.20405E-01  5.37449E-01  3.49023E-01  6.35280E-01
   6.05775E-01  1.21280E-01  1.16349E-01 -2.20117E-01 -1.45558E-01 -8.48542E-01 -5.41815E-01 -6.72648E-01 -1.36250E+00 -4.67502E-01
  -1.27563E+00 -7.99149E-01 -4.06864E-01 -1.25999E+00 -2.87976E-01 -4.35340E-01 -1.05065E+00 -1.32640E+00 -1.19322E+00 -3.82055E-01
  -3.24874E-01 -3.47638E-01 -6.89681E-01 -2.89106E-01  3.81123E-01 -1.58606E-03 -2.95579E-02 -2.13497E-01 -1.88698E-01 -1.29367E-01
  -3.14744E-01  2.64030E-01 -7.41438E-02 -9.09058E-02  4.13198E-01  4.69743E-03 -7.05661E-02  3.78307E-03  7.75042E-01  7.90102E-01
   7.57135E-01  9.28430E-01  5.04457E-01  1.13316E+00  1.07662E+00  8.50533E-01  9.18583E-01  4.70314E-01 -7.51955E-01 -1.39950E+00
  -1.33830E+00 -1.15630E+00 -6.27568E-01 -9.14438E-01 -8.76567E-01 -5.97258E-01 -5.70156E-01 -7.13016E-01 -6.59025E-01 -7.21309E-01
  -2.96692E-01 -3.85689E-01 -1.24587E+00 -5.38783E-01 -4.49923E-01 -5.50057E-01 -2.38494E-02  2.86599E-01  6.08222E-02 -4.83475E-01
  -2.51734E-01 -1.71349E-01 -9.60379E-01 -4.08848E-01  4.06340E-01  2.44649E-02  1.14596E-01 -7.08446E-02  2.97429E-01 -4.67296E-02
  -6.24135E-02  5.80306E-01 -1.40875E-01 -1.88806E-01 -2.46644E-01 -2.77940E-01 -9.21774E-02 -1.20334E-01 -3.18450E-01 -1.80597E-01
   9.57298E-03  4.78594E-02  4.18865E-02 -4.41465E-01 -2.08480E-01  3.69225E-02 -3.71846E-01 -1.27368E-01  5.06830E-01  3.34037E-01
   7.84750E-02 -1.17847E-01 -1.04394E-01  5.79490E-01  4.14560E-01  3.69402E-02  5.24492E-01  4.23219E-01  3.71347E-01  2.79119E-01
   2.29172E-01  7.35183E-01  2.67506E-01  1.71462E-01  1.53125E-01 -1.60305E-01 -1.15345E-01 -1.43743E-01 -7.13920E-02 -1.94609E-01
  -3.68352E-01 -4.35819E-02  1.28844E-01  1.11746E-01  1.00038E-01 -1.81866E-01 -4.58208E-02 -4.28524E-01 -2.87294E-01  1.43033E-02
  -2.43425E-01 -7.57036E-02  1.23096E-01  3.08743E-01  3.52667E-01  2.20577E-01  4.00779E-02  1.81022E-01  1.11563E-01  6.56441E-01
   1.45008E-01 -2.26056E-01  3.52034E-01  2.26172E-01  2.77139E-01 -9.44432E-02  1.02295E-01  1.52815E-01  4.04747E-01  7.63148E-01
   6.93149E-01  6.34392E-01  1.51912E-01 -7.22054E-02  2.93887E-01 -1.32853E-01 -4.42230E-01 -1.94506E-01 -4.87803E-01 -5.72835E-02
  -3.70429E-01 -2.53755E-01 -3.86596E-01 -2.65639E-01  6.33121E-01  1.96757E-01  7.80983E-01  1.38093E+00  7.43391E-01  3.50043E-01
   6.07783E-01  3.99077E-01  4.06562E-02  2.46953E-02  4.60507E-01  8.18874E-02 -1.40717E-01  2.99604E-01  5.83916E-01  9.33452E-01
   3.07418E-01  4.85521E-01  6.51870E-01  4.41426E-01  4.97187E-01  5.95244E-01  5.33065E-01  6.67964E-01  3.08258E-01  6.18176E-02
   2.96934E-01 -1.13896E-01  4.97732E-01  7.27435E-02  2.19767E-01  2.99569E-01 -2.53439E-01  3.58351E-01 -4.38532E-01 -4.20842E-01
   2.00729E-01 -7.98543E-01 -9.86058E-01 -1.89394E-01 -6.21296E-01 -3.42792E-01  4.00664E-01  1.33375E-01 -1.42338E-01  8.03234E-02
   4.10881E-01  4.43515E-01  3.79582E-01 -2.25509E-01 -2.55126E-01 -3.98255E-01 -1.01582E+00 -1.08621E+00 -5.90030E-01 -3.73803E-01
  -8.51443E-01 -1.03117E+00 -2.20262E+00 -2.70004E+00 -1.56929E+00 -1.23021E+00  9.49962E-02  8.61480E-01 -3.35184E-02  5.24380E-01
   4.69159E-01  4.23663E-01  5.54300E-01  7.08694E-03  3.37436E-01  5.73145E-02  3.21499E-01  3.35231E-01 -2.81306E-01 -9.48142E-02
  -1.31886E-01 -1.00711E-01  2.27801E-01 -1.82159E-02 -1.98938E-01  2.87294E-01  1.72708E-02 -1.92790E-01 -4.08925E-01 -1.51967E-01
   3.36448E-02  3.48372E-01  4.66767E-01 -2.74909E-01  9.36991E-01  5.60080E-01 -3.86166E-01  9.41172E-02  5.00966E-01  6.45829E-01
   1.74823E-01 -4.80849E-02 -2.58550E-01  2.49697E-01  4.83674E-02 -4.19895E-01  8.16345E-02  4.77666E-01 -8.96960E-02  4.13156E-03
   4.95378E-01  3.27040E-01  5.52941E-02 -1.55881E-01  4.74059E-01 -1.14184E-01  1.84331E-01  5.00806E-01  1.66914E-01  4.35360E-01
  -2.45689E-01  3.42060E-02 -2.52834E-01 -5.26622E-01 -1.52428E-01 -5.36838E-01 -5.06009E-01 -3.86842E-01 -5.15765E-01 -3.43906E-01
  -2.38921E-01 -4.41212E-02 -1.27522E-01 -5.99816E-01 -3.46070E-01 -1.89693E-01 -1.28999E-01 -3.05215E-01 -5.49334E-02  3.12924E-02
  -4.10699E-01  2.31826E-01 -2.48095E-01 -6.22572E-01 -1.91013E-01 -9.80986E-03  3.00268E-01 -3.22289E-01 -2.21692E-01  2.29723E-01
  -2.39372E-01 -1.39527E-01  4.10548E-02 -2.36529E-01  1.66536E-01  2.77605E-01  1.82980E-01  2.68140E-01  2.97684E-01  3.77077E-01
   2.07927E-01  5.55402E-01  1.13131E-01  2.91260E-01  3.24018E-01  1.68927E-01  1.00095E+00  6.68059E-01  6.61919E-01  4.51241E-01
   4.79154E-01  4.59573E-01  1.58995E-01  2.03247E-01  4.73393E-01  9.22141E-01  1.39606E-01  1.72104E-01  1.60028E-01 -3.97567E-01
  -1.28622E-01  2.24908E-01  4.17530E-01 -2.09383E-01 -3.71782E-01 -1.54429E-01  1.46893E-01  2.47419E-01 -6.48634E-01 -3.60338E-01
  -2.06273E-01 -6.09032E-02 -2.15863E-02 -4.14493E-01 -2.67631E-02 -4.21664E-01  6.02496E-02  4.92664E-02 -5.93892E-01 -2.31815E-02
  -1.51718E-02 -2.00605E-01  5.20749E-02 -1.14039E-01  3.08759E-01  3.29944E-01 -4.31013E-01  2.04029E-02  1.64707E-01 -8.00002E-02
  -4.41606E-01  6.50070E-02  1.17493E-01 -3.72457E-01 -2.02828E-02 -4.00959E-02  1.46629E-01  2.39683E-01  1.44436E-01  8.41950E-02
   2.69668E-01  4.20385E-01  6.15916E-01 -1.42881E-01 -7.33312E-02  5.10282E-01 -7.40560E-02  1.46193E-01  2.56359E-01  2.80183E-01
   3.25448E-01  2.79259E-01  3.42144E-02  1.95038E-01  6.87316E-01  3.53396E-01 -2.01948E-03  9.78078E-02 -3.56291E-01 -2.17787E-01
  -1.04254E-01 -4.66515E-01 -1.26419E-01 -3.21648E-01 -3.74901E-01 -8.98979E-01 -6.24944E-01 -2.07672E-01 -5.40254E-01 -6.59202E-01
  -7.76673E-01 -2.71532E-01 -1.52515E-01 -1.11343E-01  1.77481E-02 -1.89508E-01 -3.93232E-01  1.06292E-01 -2.03694E-01 -1.06325E-01
   1.84768E-01 -1.32016E-01  3.98789E-01  9.72722E-02 -3.78165E-01 -2.55543E-01  3.62692E-01  5.36563E-01  2.81996E-01  4.90371E-02
   1.69930E-01  4.59204E-01  2.92168E-01 -4.01741E-02 -5.23655E-02  3.82776E-01  8.31719E-02  1.06393E-01  3.76467E-02 -5.43514E-02
   1.89831E-01  2.82502E-01  3.08379E-01 -9.22110E-02  2.64271E-01  4.42006E-01  6.49769E-01  4.93133E-01 -1.91953E-01  2.50288E-01
   4.07754E-01  6.85809E-01  4.69012E-02 -4.71516E-01  3.93125E-01  1.46139E-01  3.08010E-01  2.30324E-03 -2.67238E-01  3.79946E-01
  -1.70454E-01 -8.85484E-02  1.90998E-01 -2.49089E-01  9.74090E-02  2.59945E-01 -3.34164E-01 -3.02636E-01  5.94406E-01  3.21751E-01
  -4.08733E-01  1.38456E-01  2.51465E-03 -9.89326E-02  1.25254E-02 -1.20686E-01 -6.30460E-02 -2.52173E-02  3.38327E-01 -3.32655E-01
  -3.94003E-01  3.54185E-01  9.76375E-02 -4.37158E-02  1.56666E-02  2.50566E-02  3.40424E-01 -9.88262E-02 -5.30251E-01  2.12078E-01
   2.87115E-01  1.29034E-01  9.64276E-02  9.54603E-02  1.24517E-01  1.60530E-01  4.27356E-01  1.25114E-01  2.59286E-01  8.48415E-03
  -1.83722E-01  2.16608E-01 -9.98960E-03 -1.55971E-01 -2.41203E-01 -1.62772E-01 -6.22528E-02 -1.47925E-01 -2.86415E-01  2.08644E-01
  -4.88657E-02 -4.36870E-02  7.27838E-01  2.30155E-01  2.80915E-01  1.11672E-01  1.53336E-01 -2.87556E-02 -5.07505E-01 -2.19673E-01
  -2.93061E-01  4.44856E-02  5.38036E-01  3.99453E-01 -1.04678E-01  1.22863E-02 -2.62727E-01 -1.99236E-02  1.64841E-01 -3.49980E-01
  -3.61126E-01 -1.79393E-01  7.77194E-02 -2.67058E-01
 NY points of the fit to the data follow
   1.40189E-02  1.82406E-03 -1.33497E-02 -2.72609E-02 -3.34848E-02 -3.27742E-02 -2.85257E-02 -7.43194E-03  2.01967E-02  5.45983E-02
   1.25010E-01  2.76926E-01  4.31666E-01  4.98845E-01  5.58781E-01  6.85625E-01  7.07199E-01  5.31027E-01  2.92564E-01  5.76574E-02
  -8.41173E-02 -7.45054E-02 -7.36950E-02 -1.05121E-01 -1.39930E-01 -1.67830E-01 -1.90647E-01 -2.10289E-01 -2.28521E-01 -2.47607E-01
  -2.68490E-01 -2.92750E-01 -3.26909E-01 -3.71621E-01 -4.18220E-01 -4.45979E-01 -4.46017E-01 -4.04113E-01 -2.94953E-01 -9.44772E-02
   1.41266E-01  3.24119E-01  4.27695E-01  4.71147E-01  4.77962E-01  4.65687E-01  4.28076E-01  3.33818E-01  2.11470E-01  1.23554E-01
   4.90444E-02 -4.57171E-03 -4.63829E-02 -9.98749E-02 -1.55453E-01 -2.13238E-01 -2.81787E-01 -3.53843E-01 -4.00113E-01 -4.42488E-01
  -5.11094E-01 -5.35800E-01 -4.90544E-01 -3.82667E-01 -2.91108E-01 -1.01981E-01  2.28163E-01  3.67089E-01  4.80734E-01  6.13924E-01
   5.14286E-01  4.21518E-01  3.14949E-01  1.23481E-01 -1.48338E-02 -1.48973E-01 -2.87557E-01 -4.29918E-01 -5.85451E-01 -6.81392E-01
  -5.62859E-01 -2.35554E-01  7.19391E-02  3.57782E-01  5.96801E-01  6.45900E-01  6.27116E-01  5.54708E-01  4.20911E-01  3.38233E-01
   3.00889E-01  2.68853E-01  2.18013E-01  1.40548E-01  3.13871E-02 -1.13381E-01 -2.82288E-01 -4.54969E-01 -5.72909E-01 -5.76212E-01
  -4.18952E-01 -1.29347E-01  1.81175E-01  4.12314E-01  5.01389E-01  4.81040E-01  4.27038E-01  3.80743E-01  3.65702E-01  3.65992E-01
   3.68921E-01  3.70485E-01  3.69895E-01  3.68723E-01  3.69418E-01  3.72465E-01  3.76700E-01  3.70879E-01  3.53577E-01  3.30422E-01
   2.71299E-01  1.80995E-01  7.73295E-02 -3.08803E-02 -1.56638E-01 -3.23669E-01 -3.92761E-01 -5.56255E-01 -7.62383E-01 -8.47233E-01
  -9.09185E-01 -7.70688E-01 -5.85009E-01 -4.73296E-01 -4.46207E-01 -7.21737E-01 -1.10537E+00 -1.28209E+00 -1.03811E+00 -6.13492E-01
  -2.10680E-01  1.77901E-02  1.76576E-02  6.53152E-03  3.08143E-02  6.07955E-02  9.01481E-02  1.17114E-01  1.41478E-01  1.63054E-01
   1.84502E-01  2.06642E-01  2.29423E-01  2.54583E-01  2.81620E-01  3.10996E-01  3.44608E-01  3.81708E-01  4.22697E-01  4.73417E-01
   5.44883E-01  6.54255E-01  8.13520E-01  9.06123E-01  9.28953E-01  8.88878E-01  7.26317E-01  1.62398E-01 -7.22490E-01 -1.24825E+00
  -1.30492E+00 -1.04846E+00 -6.26244E-01 -4.58056E-01 -4.68326E-01 -4.73876E-01 -4.34529E-01 -3.98847E-01 -3.76002E-01 -3.63294E-01
  -3.46785E-01 -3.24135E-01 -3.07010E-01 -2.92458E-01 -2.90571E-01 -2.88903E-01 -2.76048E-01 -2.61235E-01 -2.46396E-01 -2.33744E-01
  -2.20839E-01 -2.06374E-01 -1.90751E-01 -1.73943E-01 -1.59379E-01 -1.47280E-01 -1.34897E-01 -1.21018E-01 -1.07133E-01 -9.42503E-02
  -8.19465E-02 -6.87507E-02 -5.65286E-02 -5.37952E-02 -5.97910E-02 -6.40088E-02 -5.91190E-02 -4.77852E-02 -4.78369E-02 -6.28626E-02
  -7.87792E-02 -8.42071E-02 -7.16541E-02 -4.87092E-02 -2.62842E-02 -6.53330E-03  1.87895E-02  4.33309E-02  4.45100E-02  2.73333E-02
   3.13676E-02  6.66891E-02  1.22644E-01  1.75457E-01  2.29677E-01  3.12947E-01  3.73000E-01  3.70309E-01  3.45081E-01  3.67811E-01
   4.53883E-01  4.44266E-01  2.96527E-01  1.08634E-01 -5.94863E-02 -1.24504E-01 -1.05720E-01 -9.71265E-02 -1.03285E-01 -1.14628E-01
  -1.27952E-01 -1.39254E-01 -1.46383E-01 -1.52133E-01 -1.55975E-01 -1.61960E-01 -1.64718E-01 -1.63751E-01 -1.65092E-01 -1.63208E-01
  -1.66568E-01 -1.69291E-01 -1.67872E-01 -1.71897E-01 -1.62237E-01 -1.38676E-01 -6.28459E-02  4.06232E-02  6.59361E-02  1.01938E-01
   1.53873E-01  1.42562E-01  1.52467E-01  1.23266E-01  1.16868E-01  1.75860E-01  2.26821E-01  3.09381E-01  3.50013E-01  3.73688E-01
   3.81264E-01  3.24349E-01  2.56925E-01  1.64811E-01  8.84929E-02  2.39348E-02 -4.04255E-02 -1.16098E-01 -2.03011E-01 -2.97315E-01
  -3.86654E-01 -4.49672E-01 -4.56326E-01 -3.52294E-01 -1.51562E-01  1.43865E-01  4.34981E-01  6.09835E-01  6.90622E-01  6.27438E-01
   4.88887E-01  3.74204E-01  2.77652E-01  2.50062E-01  2.63915E-01  3.00724E-01  3.50641E-01  3.82618E-01  4.08657E-01  4.08797E-01
   3.88051E-01  3.68572E-01  3.43292E-01  3.24474E-01  3.03725E-01  2.75117E-01  2.38207E-01  1.84728E-01  1.23175E-01  5.49310E-02
   3.35648E-03 -3.82125E-02 -4.99217E-02 -3.46419E-02 -3.82535E-02 -4.92696E-02 -1.00080E-01 -2.04046E-01 -3.17055E-01 -4.24654E-01
  -4.95960E-01 -5.25452E-01 -4.83703E-01 -4.00951E-01 -2.74399E-01 -1.22507E-01  1.27133E-02  1.34764E-01  2.08409E-01  2.25190E-01
   1.88130E-01  8.97808E-02 -6.31751E-02 -2.30269E-01 -3.68471E-01 -5.13876E-01 -6.86839E-01 -7.72140E-01 -7.68963E-01 -7.59459E-01
  -8.71269E-01 -1.27723E+00 -2.09815E+00 -2.50522E+00 -1.90767E+00 -1.02084E+00 -2.13111E-01  2.60588E-01  1.44798E-01  2.76946E-02
   2.57776E-02  4.17834E-02  5.93665E-02  7.63484E-02  9.30003E-02  1.07321E-01  1.16148E-01  1.19186E-01  1.07332E-01  8.20527E-02
   3.74720E-02 -1.45477E-02 -6.46803E-02 -1.10294E-01 -1.27119E-01 -1.24404E-01 -1.03663E-01 -6.40184E-02 -3.08112E-02  2.32735E-03
   2.72875E-02  4.83607E-02  6.76309E-02  8.14347E-02  9.14910E-02  9.88094E-02  1.05566E-01  1.13596E-01  1.22351E-01  1.29056E-01
   1.34443E-01  1.39817E-01  1.45457E-01  1.51906E-01  1.57437E-01  1.61368E-01  1.64504E-01  1.68085E-01  1.74065E-01  1.80895E-01
   1.87132E-01  1.91655E-01  1.92405E-01  1.90109E-01  1.85986E-01  1.81570E-01  1.77140E-01  1.72334E-01  1.66376E-01  1.57950E-01
   1.47943E-01  1.37837E-01  1.26942E-01  1.15177E-01  1.04417E-01  9.49362E-02  8.59366E-02  7.70530E-02  6.84707E-02  6.03755E-02
   5.29716E-02  4.74101E-02  4.28427E-02  3.76918E-02  3.26831E-02  2.76759E-02  2.19690E-02  1.72211E-02  1.37945E-02  1.13179E-02
   9.77456E-03  8.92990E-03  9.85227E-03  1.27309E-02  1.69669E-02  2.28202E-02  2.95492E-02  3.62526E-02  4.43096E-02  5.50455E-02
   6.65369E-02  7.91120E-02  9.68925E-02  1.21225E-01  1.50637E-01  1.70897E-01  1.77233E-01  1.70653E-01  1.52643E-01  1.45255E-01
   1.54026E-01  1.71120E-01  1.96432E-01  2.18771E-01  2.37641E-01  2.55309E-01  2.71336E-01  2.84697E-01  2.93571E-01  2.98093E-01
   2.98924E-01  2.97941E-01  2.95600E-01  2.91277E-01  2.85563E-01  2.75779E-01  2.62344E-01  2.45799E-01  2.27293E-01  2.09700E-01
   1.93991E-01  1.79287E-01  1.64967E-01  1.50264E-01  1.36135E-01  1.24359E-01  1.13802E-01  1.03719E-01  9.49157E-02  8.65919E-02
   8.01120E-02  7.48369E-02  7.07230E-02  6.84421E-02  6.92381E-02  7.31693E-02  7.85439E-02  8.45027E-02  9.12396E-02  9.84266E-02
   1.06679E-01  1.16580E-01  1.25295E-01  1.31847E-01  1.36885E-01  1.40025E-01  1.42371E-01  1.45014E-01  1.48854E-01  1.52690E-01
   1.54740E-01  1.54235E-01  1.51024E-01  1.46789E-01  1.42549E-01  1.37280E-01  1.31191E-01  1.25910E-01  1.21010E-01  1.16296E-01
   1.11507E-01  1.05875E-01  1.00101E-01  9.42134E-02  8.82976E-02  8.23597E-02  7.63913E-02  7.20009E-02  6.91144E-02  6.49171E-02
   5.92617E-02  5.26369E-02  4.43463E-02  3.44880E-02  2.24952E-02  8.89548E-03 -5.74009E-03 -2.17728E-02 -4.01714E-02 -6.34363E-02
  -9.18155E-02 -1.21922E-01 -1.50678E-01 -1.77225E-01 -2.02367E-01 -2.26147E-01 -2.47861E-01 -2.66462E-01 -2.82067E-01 -2.94516E-01
  -3.01065E-01 -3.01329E-01 -2.98355E-01 -2.93340E-01 -2.85806E-01 -2.75699E-01 -2.64213E-01 -2.52684E-01 -2.42456E-01 -2.33673E-01
  -2.24229E-01 -2.11702E-01 -1.97172E-01 -1.82212E-01 -1.65834E-01 -1.49100E-01 -1.32885E-01 -1.16754E-01 -1.01369E-01 -8.67243E-02
  -7.35969E-02 -6.01377E-02 -4.62216E-02 -3.46829E-02 -2.47739E-02 -1.55011E-02 -6.06025E-03  3.41318E-03  1.03771E-02  1.53622E-02
   2.07328E-02  2.55767E-02  3.02960E-02  3.42642E-02  3.58229E-02  3.72376E-02  4.01449E-02  4.18879E-02  4.23577E-02  4.37117E-02
   4.65092E-02  4.99284E-02  5.39813E-02  5.81026E-02  5.99852E-02  6.02209E-02  6.00780E-02  5.93943E-02  5.86248E-02  5.82021E-02
   5.79943E-02  5.71700E-02  5.66090E-02  5.65906E-02  5.63994E-02  5.68804E-02  5.75608E-02  5.79516E-02  5.80492E-02  5.51406E-02
   4.98731E-02  4.72935E-02  4.81505E-02  4.93263E-02  4.97389E-02  4.83567E-02  4.61282E-02  4.40536E-02  4.19721E-02  4.11556E-02
   4.23133E-02  4.52118E-02  4.75112E-02  4.81451E-02  4.85194E-02  4.90841E-02  5.08351E-02  5.21042E-02  5.24047E-02  5.26871E-02
   5.24384E-02  5.05381E-02  4.77149E-02  4.61462E-02  4.64209E-02  4.75544E-02  4.96177E-02  5.12947E-02  5.19854E-02  5.23772E-02
   5.27526E-02  5.53983E-02  5.89695E-02  6.07358E-02  6.09216E-02  5.69959E-02  5.23352E-02  5.08875E-02  5.12436E-02  5.29746E-02
   5.36212E-02  5.16991E-02  4.93407E-02  4.78594E-02  4.75651E-02  4.80437E-02  4.72823E-02  4.59982E-02  4.67685E-02  4.78218E-02
   4.79600E-02  4.73262E-02  4.64630E-02  4.62253E-02  4.72459E-02  4.90719E-02  5.11397E-02  5.54235E-02  5.94143E-02  6.15279E-02
   6.24785E-02  6.19254E-02  6.20529E-02  6.32967E-02
 NY background values follow
     5.165E-03    5.664E-03    6.164E-03    6.663E-03    7.163E-03    7.662E-03    8.162E-03    8.661E-03    9.161E-03    9.660E-03
     1.016E-02    1.066E-02    1.116E-02    1.166E-02    1.215E-02    1.265E-02    1.315E-02    1.365E-02    1.415E-02    1.464E-02
     1.514E-02    1.564E-02    1.613E-02    1.663E-02    1.713E-02    1.762E-02    1.812E-02    1.861E-02    1.910E-02    1.960E-02
     2.009E-02    2.058E-02    2.108E-02    2.157E-02    2.206E-02    2.255E-02    2.304E-02    2.353E-02    2.401E-02    2.450E-02
     2.499E-02    2.548E-02    2.596E-02    2.645E-02    2.693E-02    2.741E-02    2.790E-02    2.838E-02    2.886E-02    2.934E-02
     2.982E-02    3.030E-02    3.077E-02    3.125E-02    3.173E-02    3.220E-02    3.267E-02    3.315E-02    3.362E-02    3.409E-02
     3.456E-02    3.503E-02    3.550E-02    3.597E-02    3.643E-02    3.690E-02    3.736E-02    3.782E-02    3.829E-02    3.875E-02
