 
 $NMID
 ID=''
 FMTDAT='(2E13.5)'
 TRAMP=   1.00000E+0
 VOLUME=   1.00000E+0
 $END
  -1.65916E+4   1.34823E+4
  -5.08608E+4   2.10352E+4
  -4.62674E+4   2.92780E+4
  -4.27996E+4   2.65069E+4
  -4.53465E+4   2.60194E+4
  -4.43085E+4   2.77101E+4
  -4.30944E+4   2.57348E+4
  -4.44439E+4   2.49558E+4
  -4.38768E+4   2.58004E+4
  -4.30547E+4   2.44105E+4
  -4.37011E+4   2.36362E+4
  -4.30681E+4   2.41758E+4
  -4.23047E+4   2.33198E+4
  -4.30531E+4   2.24573E+4
  -4.25517E+4   2.25973E+4
  -4.20102E+4   2.17232E+4
  -4.22997E+4   2.11565E+4
  -4.19672E+4   2.11321E+4
  -4.14686E+4   2.05910E+4
  -4.17107E+4   1.99780E+4
  -4.12547E+4   1.99283E+4
  -4.07253E+4   1.95112E+4
  -4.09913E+4   1.90288E+4
  -4.06930E+4   1.87432E+4
  -4.01196E+4   1.81911E+4
  -4.01025E+4   1.78450E+4
  -3.99093E+4   1.75759E+4
  -3.94875E+4   1.70182E+4
  -3.93983E+4   1.63628E+4
  -3.89952E+4   1.61065E+4
  -3.85512E+4   1.57457E+4
  -3.85051E+4   1.53841E+4
  -3.82534E+4   1.50246E+4
  -3.77826E+4   1.45230E+4
  -3.75974E+4   1.42918E+4
  -3.72263E+4   1.40610E+4
  -3.67734E+4   1.37120E+4
  -3.64909E+4   1.33523E+4
  -3.61999E+4   1.32058E+4
  -3.58680E+4   1.29401E+4
  -3.56343E+4   1.26606E+4
  -3.53976E+4   1.22630E+4
  -3.49834E+4   1.17899E+4
  -3.45386E+4   1.14974E+4
  -3.42720E+4   1.13309E+4
  -3.39273E+4   1.09939E+4
  -3.36575E+4   1.05805E+4
  -3.33453E+4   1.03882E+4
  -3.29633E+4   1.01435E+4
  -3.27110E+4   9.82408E+3
  -3.23215E+4   9.56014E+3
  -3.19230E+4   9.29575E+3
  -3.16063E+4   9.07634E+3
  -3.12558E+4   8.96780E+3
  -3.09894E+4   8.59873E+3
  -3.06573E+4   8.40500E+3
  -3.03110E+4   8.18669E+3
  -3.00028E+4   7.77628E+3
  -2.96021E+4   7.62308E+3
  -2.92282E+4   7.31610E+3
  -2.88424E+4   7.10734E+3
  -2.85721E+4   6.91567E+3
  -2.82263E+4   6.85103E+3
  -2.79100E+4   6.55347E+3
  -2.75504E+4   6.37741E+3
  -2.72072E+4   6.14345E+3
  -2.68710E+4   5.95911E+3
  -2.65849E+4   5.79456E+3
  -2.61710E+4   5.63227E+3
  -2.59696E+4   5.46173E+3
  -2.56370E+4   5.30012E+3
  -2.53034E+4   5.09247E+3
  -2.50340E+4   4.96618E+3
  -2.46942E+4   4.78403E+3
  -2.43487E+4   4.64519E+3
  -2.40775E+4   4.48703E+3
  -2.37604E+4   4.31852E+3
  -2.34975E+4   4.14146E+3
  -2.31835E+4   4.01766E+3
  -2.28804E+4   3.87315E+3
  -2.25943E+4   3.61219E+3
  -2.23420E+4   3.48973E+3
  -2.20366E+4   3.26678E+3
  -2.17189E+4   3.18311E+3
  -2.13698E+4   3.06720E+3
  -2.11115E+4   2.77957E+3
  -2.07517E+4   2.61545E+3
  -2.04145E+4   2.55045E+3
  -2.01895E+4   2.32831E+3
  -1.98113E+4   2.21729E+3
  -1.95852E+4   2.02379E+3
  -1.92271E+4   1.92276E+3
  -1.89841E+4   1.84991E+3
  -1.86815E+4   1.68419E+3
  -1.84468E+4   1.55841E+3
  -1.80440E+4   1.51020E+3
  -1.78115E+4   1.36232E+3
  -1.75787E+4   1.22488E+3
  -1.72663E+4   1.14593E+3
  -1.69536E+4   9.57510E+2
  -1.67066E+4   8.95614E+2
  -1.63665E+4   8.40315E+2
  -1.61607E+4   8.32118E+2
  -1.58724E+4   6.16551E+2
  -1.56821E+4   4.48315E+2
  -1.53830E+4   4.05118E+2
  -1.50690E+4   2.74323E+2
  -1.48552E+4   2.22357E+2
  -1.45765E+4   7.01915E+1
  -1.43578E+4  -2.63384E+1
  -1.41016E+4  -4.30071E+1
  -1.38994E+4  -1.41214E+2
  -1.36241E+4  -2.86946E+2
  -1.33757E+4  -4.12198E+2
  -1.31242E+4  -5.23991E+2
  -1.29125E+4  -6.36556E+2
  -1.26504E+4  -7.06290E+2
  -1.24666E+4  -8.10516E+2
  -1.21862E+4  -9.50526E+2
  -1.19972E+4  -9.72874E+2
  -1.18227E+4  -1.11167E+3
  -1.15798E+4  -1.15947E+3
  -1.13290E+4  -1.38344E+3
  -1.11031E+4  -1.44042E+3
  -1.09066E+4  -1.50177E+3
  -1.06973E+4  -1.61849E+3
  -1.04914E+4  -1.70681E+3
  -1.03120E+4  -1.84235E+3
  -1.00417E+4  -1.93798E+3
  -9.87304E+3  -2.00617E+3
  -9.66536E+3  -2.11786E+3
  -9.50797E+3  -2.18541E+3
  -9.21388E+3  -2.34049E+3
  -9.04240E+3  -2.30970E+3
  -8.88776E+3  -2.49160E+3
  -8.66373E+3  -2.54233E+3
  -8.50552E+3  -2.68346E+3
  -8.23865E+3  -2.77961E+3
  -8.12023E+3  -2.80321E+3
  -7.96648E+3  -2.93939E+3
  -7.65510E+3  -3.02741E+3
  -7.51164E+3  -3.01922E+3
  -7.38879E+3  -3.20593E+3
  -7.11233E+3  -3.32383E+3
  -6.98912E+3  -3.36846E+3
  -6.78286E+3  -3.38907E+3
  -6.59048E+3  -3.42373E+3
  -6.41732E+3  -3.57849E+3
  -6.15833E+3  -3.58416E+3
  -5.94288E+3  -3.65902E+3
  -5.79552E+3  -3.69466E+3
  -5.64714E+3  -3.78501E+3
  -5.33408E+3  -3.85542E+3
  -5.22728E+3  -3.89064E+3
  -4.97236E+3  -3.95396E+3
  -4.82864E+3  -3.93279E+3
  -4.58777E+3  -4.00264E+3
  -4.45024E+3  -4.07363E+3
  -4.20400E+3  -4.12666E+3
  -4.10312E+3  -4.07428E+3
  -3.89736E+3  -4.15079E+3
  -3.71947E+3  -4.14873E+3
  -3.48679E+3  -4.19172E+3
  -3.33175E+3  -4.23349E+3
  -3.22350E+3  -4.24063E+3
  -3.09529E+3  -4.31618E+3
  -2.84176E+3  -4.27590E+3
  -2.64676E+3  -4.30408E+3
  -2.47455E+3  -4.28839E+3
  -2.39936E+3  -4.29920E+3
  -2.20208E+3  -4.31091E+3
  -2.07334E+3  -4.28267E+3
  -1.88069E+3  -4.17594E+3
  -1.73394E+3  -4.13389E+3
  -1.65933E+3  -4.20627E+3
  -1.43557E+3  -4.19100E+3
  -1.33251E+3  -4.16013E+3
  -1.24444E+3  -4.08086E+3
  -1.13099E+3  -4.08242E+3
  -9.56406E+2  -4.02973E+3
  -8.68226E+2  -4.02339E+3
  -7.58285E+2  -4.01339E+3
  -6.88713E+2  -3.97256E+3
  -5.90121E+2  -3.89222E+3
  -4.01718E+2  -3.90797E+3
  -3.25674E+2  -3.82125E+3
  -2.47532E+2  -3.78494E+3
  -1.45284E+2  -3.79646E+3
  -5.82319E+1  -3.71497E+3
   2.42223E+1  -3.70210E+3
   8.46537E+1  -3.65696E+3
   1.81206E+2  -3.63682E+3
   2.29720E+2  -3.54042E+3
   3.37866E+2  -3.56688E+3
   3.40932E+2  -3.48701E+3
   3.56960E+2  -3.40533E+3
   4.98051E+2  -3.37814E+3
   5.30745E+2  -3.34063E+3
   6.73682E+2  -3.33940E+3
   6.24249E+2  -3.31828E+3
   6.98767E+2  -3.27981E+3
   7.23477E+2  -3.24775E+3
   7.73823E+2  -3.12308E+3
   8.57403E+2  -3.10006E+3
   8.85536E+2  -3.10608E+3
   9.09527E+2  -3.01157E+3
   9.33772E+2  -2.94076E+3
   9.34264E+2  -2.92025E+3
   1.01412E+3  -2.94109E+3
   1.02278E+3  -2.82128E+3
   1.07532E+3  -2.81667E+3
   1.05379E+3  -2.79279E+3
   1.06144E+3  -2.67805E+3
   1.12372E+3  -2.66371E+3
   1.10768E+3  -2.57822E+3
   1.16877E+3  -2.53689E+3
   1.17641E+3  -2.48897E+3
   1.19115E+3  -2.44097E+3
   1.13068E+3  -2.39332E+3
   1.14318E+3  -2.41832E+3
   1.12539E+3  -2.26950E+3
   1.20848E+3  -2.28184E+3
   1.18784E+3  -2.18803E+3
   1.19365E+3  -2.23848E+3
   1.17919E+3  -2.17489E+3
   1.18472E+3  -2.16981E+3
   1.22069E+3  -2.09278E+3
   1.22279E+3  -2.09000E+3
   1.23273E+3  -2.08558E+3
   1.15542E+3  -1.95998E+3
   1.14491E+3  -1.94460E+3
   1.14329E+3  -1.91455E+3
   1.21591E+3  -1.81055E+3
   1.16351E+3  -1.87857E+3
   1.09083E+3  -1.81031E+3
   1.12477E+3  -1.72925E+3
   1.09885E+3  -1.74360E+3
   1.07717E+3  -1.68581E+3
   1.06438E+3  -1.61897E+3
   1.07789E+3  -1.59889E+3
   1.05380E+3  -1.57140E+3
   1.04874E+3  -1.54356E+3
   9.85684E+2  -1.48792E+3
   9.81871E+2  -1.45536E+3
   9.27486E+2  -1.48326E+3
   8.89960E+2  -1.46466E+3
   8.74016E+2  -1.41810E+3
   8.84092E+2  -1.29761E+3
   8.33781E+2  -1.39191E+3
   8.38691E+2  -1.29990E+3
   8.14692E+2  -1.28719E+3
   7.69360E+2  -1.27005E+3
   7.79993E+2  -1.25322E+3
   7.14772E+2  -1.22918E+3
   6.87067E+2  -1.17493E+3
   6.55142E+2  -1.16238E+3
   6.35929E+2  -1.15964E+3
   6.72531E+2  -1.17015E+3
   5.92866E+2  -1.13154E+3
   5.68252E+2  -1.08781E+3
   5.79230E+2  -1.11594E+3
   5.78856E+2  -1.04068E+3
   4.99732E+2  -1.06060E+3
   4.76246E+2  -1.00040E+3
   5.11595E+2  -9.93023E+2
   5.09352E+2  -9.96923E+2
   3.93445E+2  -9.50122E+2
   4.31596E+2  -9.63211E+2
   4.05723E+2  -9.17618E+2
   4.06147E+2  -8.11079E+2
   3.81041E+2  -8.64180E+2
   3.22459E+2  -8.35738E+2
   2.76845E+2  -7.58703E+2
   2.58354E+2  -7.53548E+2
   2.39050E+2  -7.07126E+2
   2.51160E+2  -7.26582E+2
   2.05028E+2  -6.55969E+2
   1.62864E+2  -6.45358E+2
   1.47678E+2  -6.74432E+2
   9.18157E+1  -6.76966E+2
   1.46656E+2  -6.05327E+2
   1.34637E+2  -6.03799E+2
   1.08919E+2  -5.41436E+2
   8.92032E+1  -5.74029E+2
   1.37753E+2  -5.63659E+2
   3.90120E+0  -4.58426E+2
   2.11888E+1  -4.92268E+2
   4.19673E+1  -4.75297E+2
   1.13122E+1  -4.45275E+2
   1.82082E+1  -4.43326E+2
  -8.52055E+1  -4.18709E+2
  -9.32118E+1  -3.74946E+2
  -4.88795E+1  -4.18107E+2
  -1.30663E+2  -3.74527E+2
  -1.97305E+2  -3.82656E+2
  -1.59212E+2  -3.27761E+2
  -1.96086E+2  -3.25107E+2
  -2.22725E+2  -3.18846E+2
  -2.51139E+2  -2.72541E+2
  -2.61508E+2  -3.28059E+2
  -2.58914E+2  -2.68030E+2
  -2.65916E+2  -2.71934E+2
  -3.02340E+2  -3.06297E+2
  -2.34130E+2  -1.97261E+2
  -3.71312E+2  -2.21581E+2
  -3.78154E+2  -1.88694E+2
  -3.57387E+2  -1.62841E+2
  -3.36574E+2  -2.21025E+2
  -3.86030E+2  -1.81554E+2
  -3.56411E+2  -1.88941E+2
  -3.44990E+2  -1.83212E+2
  -3.02901E+2  -1.78485E+2
  -3.88392E+2  -1.22268E+2
  -4.37559E+2  -1.16220E+2
  -4.62290E+2  -4.11928E+1
  -4.73561E+2  -7.74078E+1
  -4.31846E+2  -3.80301E+1
  -4.32821E+2  -6.91942E+1
  -4.64910E+2  -2.08126E+1
  -4.76701E+2  -8.52045E+1
  -4.79184E+2   1.59734E+1
  -4.84538E+2  -6.13748E+1
  -4.85962E+2   2.29217E+1
  -4.43506E+2  -6.62146E+0
  -4.30206E+2  -2.21923E+1
  -4.82505E+2   2.41175E+1
  -4.77327E+2  -1.84986E+1
  -4.93254E+2  -1.52277E+1
  -4.79302E+2   3.73274E+1
  -5.55843E+2   5.29956E+1
  -4.74616E+2   4.11528E+0
  -5.28748E+2   1.40700E+1
  -4.67583E+2   1.02892E+2
  -4.91888E+2   1.02422E+2
  -4.72849E+2   1.29290E+2
  -4.55624E+2   1.29553E+2
  -4.99247E+2   8.12303E+1
  -5.06955E+2   8.14849E+1
  -4.86244E+2   9.40156E+1
  -5.06326E+2   7.98564E+1
  -5.67602E+2   1.09729E+2
  -5.50653E+2   1.24581E+2
  -5.06867E+2   1.34266E+2
  -4.82824E+2   1.40161E+2
  -4.96996E+2   1.39842E+2
  -5.18483E+2   1.78408E+2
  -4.91914E+2   1.73831E+2
  -5.84013E+2   1.62222E+2
  -5.63804E+2   1.13729E+2
  -4.70882E+2   1.65180E+2
  -5.11026E+2   9.97719E+1
  -5.69431E+2   2.00282E+2
  -5.38496E+2   1.79117E+2
  -6.09416E+2   2.29971E+2
  -5.45191E+2   1.87340E+2
  -5.67760E+2   1.83941E+2
  -5.96671E+2   2.10476E+2
  -5.45768E+2   2.19848E+2
  -6.09805E+2   2.39138E+2
  -4.91026E+2   2.71962E+2
  -4.84137E+2   2.01801E+2
  -4.73765E+2   2.31476E+2
  -5.18306E+2   2.23183E+2
  -5.53902E+2   2.10500E+2
  -5.05399E+2   2.12908E+2
  -4.90330E+2   2.32025E+2
  -5.54481E+2   2.65791E+2
