 
 $NMID
 ID=''
 FMTDAT='(2E13.5)'
 TRAMP=   1.00000E+0
 VOLUME=   1.00000E+0
 $END
   7.88857E+2   1.29948E+2
  -1.38339E+3   1.28695E+3
   3.93989E+3  -2.74304E+3
  -7.64215E+2  -2.96878E+2
  -9.36724E+2   1.08005E+3
   2.90959E+3   6.81620E+2
  -5.49136E+2   1.43300E+3
  -6.27483E+2  -6.89569E+2
   2.80945E+3  -3.49320E+3
  -9.70060E+2  -4.61895E+3
   1.78853E+3  -1.76902E+2
   3.05857E+3   2.21568E+3
  -1.79399E+2   2.91229E+3
  -4.19591E+3  -1.38905E+2
  -3.31484E+3  -2.90315E+3
   2.02516E+3  -6.87500E+2
   2.85438E+3   1.15047E+2
   1.02364E+3   1.25012E+3
  -2.96789E+2   4.84060E+2
   1.39137E+2  -1.11767E+3
   2.55417E+3  -1.11886E+3
   1.50899E+3   3.31566E+3
  -5.38679E+3  -2.32331E+2
   1.91934E+3  -6.07135E+3
   3.46766E+3  -2.51883E+2
  -3.83700E+2   2.59226E+3
  -4.32502E+3  -8.45955E+2
  -1.86442E+3  -4.98445E+3
   1.08425E+3  -4.19624E+3
   3.30163E+3  -3.76953E+2
   1.26664E+3   6.67096E+3
  -4.97006E+3   3.99009E+3
  -2.84285E+3  -4.15103E+3
   1.72829E+3  -2.76967E+3
   3.90900E+2   2.77772E+2
  -2.96558E+2  -3.99665E+3
   4.89897E+3  -7.10633E+2
   1.54138E+3   3.07466E+3
  -1.42956E+3   3.12148E+3
  -3.57524E+3  -9.45359E+1
  -4.93721E+3  -5.08827E+2
  -4.04953E+3  -3.53619E+3
   1.93002E+3  -3.83236E+3
   5.32329E+3   6.86633E+2
   2.00102E+3   4.85418E+3
   1.70470E+3   2.67317E+3
   6.54162E+2   4.99131E+3
  -1.40699E+3   2.63983E+3
  -1.68751E+3   2.78993E+3
  -4.99621E+2  -1.30802E+3
   1.65196E+3  -1.24619E+2
   1.69513E+3   1.31451E+3
  -4.91843E+2   4.75786E+3
  -2.25063E+3   3.03223E+3
  -3.86634E+3  -2.61364E+2
  -4.83548E+3  -2.26053E+3
  -5.29271E+3  -1.87143E+3
   2.85201E+2  -6.38662E+3
   3.86134E+3  -3.66344E+3
   4.64667E+3   6.53286E+2
   4.22920E+3   4.57111E+3
   1.26016E+3   5.22309E+3
  -2.11998E+3   4.00375E+2
  -1.10158E+3  -1.80815E+3
   1.75242E+3   1.39283E+3
  -1.03576E+3   2.87096E+3
  -4.89960E+3  -1.83600E+3
  -1.39942E+3  -3.29567E+3
   3.84407E+2  -1.31912E+3
   2.48527E+2  -1.15854E+3
  -1.40844E+3   9.28807E+2
  -1.53618E+3   1.59503E+3
   2.20931E+3   2.44095E+3
   3.32513E+3   2.80616E+1
   1.28213E+3   2.25463E+3
  -1.45007E+3  -9.40674E+2
   1.66308E+3  -8.79115E+2
   2.41078E+3  -1.92052E+3
  -2.09788E+3  -3.21402E+2
  -1.20082E+3  -1.47409E+1
  -1.57235E+3  -2.25925E+3
  -9.80488E+2  -9.44275E+2
  -1.42524E+3  -1.53096E+3
  -2.87909E+3   1.14081E+3
   4.71482E+0  -3.08562E+3
   4.37731E+3  -1.74054E+3
   4.99810E+3  -1.62681E+3
   2.54051E+3   3.00433E+3
  -6.54710E+2   3.82343E+3
  -9.38476E+1  -3.76093E+2
   2.86454E+3   1.85923E+3
  -4.39853E+2   1.44461E+3
  -1.53468E+3  -8.77838E+2
  -2.34387E+2  -3.62031E+3
   2.68679E+3  -2.89346E+3
   2.46503E+3   2.22497E+3
  -6.59912E+2   3.14351E+3
  -1.25730E+3   1.81789E+3
   1.46001E+3  -3.87339E+3
   5.65628E+3  -1.52487E+3
   2.16536E+3   2.04319E+3
  -1.32089E+3   2.68442E+3
  -3.93565E+3  -2.43479E+3
  -4.48986E+2  -4.25969E+3
   1.14927E+3  -3.44934E+3
  -4.44768E+2   8.66702E+2
   9.76689E+1  -1.51078E+3
   2.57996E+3   8.84754E+1
   3.29482E+3   1.63265E+3
   2.73871E+3   3.65503E+3
  -3.31483E+1   3.60801E+3
  -2.04475E+3   2.54230E+3
  -2.61694E+3  -8.64976E+2
  -1.31463E+3  -2.94745E+3
  -1.34985E+3  -1.33431E+3
  -1.35068E+2   1.19349E+2
  -8.52440E+2   4.09235E+2
  -6.34564E+2  -1.68677E+3
  -2.96858E+3  -4.85989E+2
  -2.09970E+3  -8.06859E+2
  -1.12622E+3  -3.15465E+3
   3.02390E+2  -1.46427E+3
   1.92921E+3   3.30479E+2
   1.26098E+3   2.27086E+3
   6.99888E+2  -1.73264E+3
   2.44263E+3   1.94181E+3
  -7.84508E+2   6.69298E+2
  -4.35712E+2   5.97505E+2
  -2.14401E+2  -1.75095E+3
   2.58092E+3  -1.57078E+3
   1.51514E+3   1.62636E+3
   1.70987E+3   6.36757E+1
  -2.43298E+3  -6.81363E+1
  -1.74523E+3  -1.64760E+3
   7.33318E+2  -1.45303E+3
  -6.47828E+1   2.08346E+3
  -7.02349E+2   2.78169E+3
   5.00400E+2   1.75439E+3
  -5.66408E+1   1.08949E+3
  -4.86483E+2  -2.11410E+2
   2.33874E+3   2.02482E+2
  -9.73795E+2   7.23044E+2
  -2.13535E+2  -2.15658E+3
  -2.38596E+2  -1.25356E+3
   1.69337E+2   2.21096E+2
   1.14388E+3  -5.74403E+1
  -9.95461E+2  -1.30263E+3
  -9.24896E+2  -1.62407E+3
   1.40452E+3  -2.80588E+3
  -1.05575E+3  -1.04826E+2
   6.73968E+2  -1.80077E+3
   5.55984E+2   6.29033E+2
  -1.76659E+3   1.81227E+3
  -1.45586E+3   1.01442E+3
  -1.66486E+3   4.79121E+2
  -2.36221E+3  -1.45205E+3
   1.29904E+3  -9.10578E+2
  -4.88363E+2   2.01763E+3
  -1.56644E+3  -4.20730E+2
  -1.02734E+3   9.94715E+2
   3.03365E+3   8.31146E+2
   1.08877E+3   1.43095E+3
  -1.44875E+3   1.90742E+3
  -2.99459E+2  -3.69053E+2
   1.48820E+3   9.51631E+2
   1.63552E+3   1.42558E+3
  -2.41556E+3   2.70773E+3
  -1.96914E+3  -1.24225E+3
  -1.69418E+3  -1.08405E+3
  -1.58434E+3   2.74969E+2
   4.90905E+2   1.12848E+3
  -5.86670E+2   1.11654E+3
  -2.37639E+3   3.30882E+3
  -1.83965E+3  -6.36534E+2
  -1.56650E+2  -4.19602E+1
   6.77185E+2   7.82975E+2
  -1.98669E+3  -2.51221E+3
  -1.02095E+3  -2.90978E+3
   3.84753E+2  -2.45818E+3
  -2.02782E+1  -3.00641E+2
   1.07648E+3  -1.59892E+3
  -1.15693E+3  -9.53658E+2
  -2.82347E+2  -1.98305E+3
  -5.48405E+2   8.56847E+2
  -2.04603E+3  -1.29291E+3
  -1.55026E+3  -7.66140E+1
   5.71138E+2  -5.31563E+2
   2.26134E+3   3.82632E+2
   2.14634E+3   1.07315E+3
  -3.87181E+2   5.99882E+2
   8.80607E+1   6.85031E+2
   2.12843E+3  -2.84935E+3
   7.43784E+2   1.13165E+2
  -2.12058E+3   1.50951E+3
  -4.88159E+2  -1.83481E+3
  -1.41205E+3  -4.06324E+1
   4.29365E+2   1.50646E+2
  -1.70582E+3   1.27459E+3
   7.61586E+2  -1.85531E+3
  -4.61728E+1  -1.92140E+3
   1.78406E+3   3.05902E+2
   1.69945E+3   6.40498E+2
  -2.76095E+3   1.82394E+3
  -2.00119E+3  -1.74857E+3
  -1.07301E+3  -3.71775E+2
  -3.36245E+2   1.03736E+3
   2.89743E+2  -1.46481E+2
   2.18273E+3   1.06587E+3
   9.53008E+2   1.13305E+2
   1.27783E+3  -2.72840E+2
   8.96955E+2   1.67482E+3
   2.39055E+2   8.50746E+2
   2.86155E+2  -1.34921E+2
  -8.35767E+2  -1.75536E+3
   9.74683E+2   5.51919E+2
  -6.32329E+2   1.97761E+3
   9.43048E+1  -1.23808E+3
  -2.24054E+2   9.63588E+2
  -3.48151E+2  -2.11237E+2
  -5.93750E+2   1.45245E+3
   1.27852E+3  -1.01699E+2
  -2.98801E+2   3.07126E+2
   1.03115E+3   9.13216E+2
   2.44592E+3  -4.65169E+2
   9.69921E+2  -3.33537E+2
   1.29526E+3  -1.20046E+3
  -1.26306E+3  -8.95355E+2
   6.99580E+2   6.77129E+2
   2.07242E+3   1.50433E+2
  -9.61859E+2  -1.36566E+2
  -1.81785E+3   1.65088E+2
   2.14171E+3   1.66805E+3
  -1.30930E+3   5.47855E+2
  -8.65545E+2   4.70500E+2
   1.09085E+3   6.06079E+2
   1.82470E+3   3.16780E+2
   1.15774E+2   6.39286E+1
   3.87807E+2  -2.42705E+2
  -6.66745E+2   1.69985E+3
  -1.15041E+3  -1.69236E+3
   7.08721E+2  -1.54446E+1
   1.22184E+3   1.96416E+3
   1.84164E+2   1.40297E+3
  -9.84424E+2   1.93667E+3
   9.79001E+2   8.09597E+2
   1.50392E+3  -1.63957E+3
   1.28047E+3  -4.84211E+2
   2.05590E+3   3.49528E+2
   1.15572E+3   5.20667E+2
  -1.26812E+3  -5.54220E+2
  -4.62094E+2   3.08165E+3
  -2.88594E+2   9.13436E+2
  -1.25827E+2  -1.08940E+3
   8.95180E+2  -5.47640E+2
  -9.20589E+2  -1.62292E+2
  -4.79192E+2   5.41698E+2
  -9.98222E+2   7.28414E+2
   1.43011E+3  -5.30965E+2
   2.50524E+2   1.53873E+2
  -3.49518E+2   9.99586E+2
  -1.49894E+2  -1.34169E+2
  -2.56881E+2   8.39910E+2
   1.76652E+3  -3.12479E+2
   2.20782E+3  -8.43001E+2
   8.38725E+2   1.38539E+3
  -6.74327E+2   5.03299E+2
  -1.78773E+2   1.72435E+3
   4.48515E+2  -7.95294E+2
  -1.86842E+3   6.30632E+2
   5.31447E+2  -8.16663E+2
   2.53547E+2  -7.54541E+2
  -1.17286E+3  -1.29587E+3
   1.09717E+3  -1.99215E+1
   1.53468E+3   3.26432E+2
   3.08970E+2   4.10247E+2
   1.93343E+3  -5.53206E+2
   2.03836E+2   2.02305E+3
  -1.90762E+3   6.81484E+2
   7.40080E+2  -8.31654E+2
   2.14598E+3  -1.27569E+3
   2.04826E+3  -8.16309E+2
   9.88613E+2   7.48680E+2
   2.49160E+2  -3.88764E+2
   1.79141E+3  -2.42697E+3
   7.57389E+2   5.68542E+2
  -2.34691E+2   1.75652E+2
   9.45067E+1  -1.56210E+3
  -1.18911E+3  -1.70473E+3
   3.56066E+2  -5.78747E+2
   4.04344E+2  -3.60084E+2
   6.03071E+2  -4.27260E+2
   9.36453E+2   1.10701E+3
   1.59507E+3  -1.24263E+1
   6.75077E+2  -9.76485E+2
   6.94661E+2  -2.02297E+2
  -1.15154E+3  -4.80078E+2
  -1.54178E+2   1.20734E+3
   6.44750E+2   1.86564E+2
  -1.17977E+3   3.98654E+2
  -2.04099E+3   3.23576E+1
  -2.95593E+2  -1.00337E+3
  -6.43846E+2   5.71312E+2
   7.04591E+1  -6.63588E+2
   4.21378E+2   2.26781E+3
  -1.67712E+3  -1.03320E+3
   1.23079E+3  -1.36093E+3
  -4.62660E+2  -1.72850E+3
   9.02955E+2  -1.82630E+2
   9.70597E+2  -5.33235E+2
   2.64440E+2  -1.26001E+3
   4.51413E+2   1.30230E+3
   7.95914E+2  -1.75994E+3
   7.60676E+2   1.46070E+3
  -1.61652E+2  -1.22299E+3
   6.78215E+2   2.21328E+1
  -9.87613E+2  -4.69783E+2
  -7.11996E+2  -5.41397E+2
  -4.96135E+1  -1.25937E+3
   7.60987E+1  -4.44754E+2
   6.63886E+2  -1.33114E+3
  -9.02812E+2  -3.85962E+2
   1.58079E+3  -1.21195E+3
  -4.81110E+2   7.87329E+2
   2.62379E+2   4.31318E+2
   1.36766E+2  -1.46999E+3
   1.25344E+3  -1.16426E+3
   3.40724E+2   6.55197E+2
  -3.12063E+1   4.62821E+2
  -1.26068E+3  -9.32200E+2
  -7.08363E+2  -6.19443E+1
  -5.04730E+1   1.54669E+2
  -1.22486E+3   9.41509E+2
  -1.59145E+3  -4.65755E+2
  -1.13018E+3   5.41606E+2
  -1.01467E+3  -1.91391E+3
  -3.37527E+2  -1.01272E+3
  -7.10253E+1   3.07780E+2
  -7.84199E+1  -1.76012E+3
   8.55970E+2  -8.77622E+2
   1.26141E+3   1.69031E+3
   2.10954E+3  -1.16187E+3
  -3.06955E+2   4.75393E+2
   2.00848E+3  -4.40333E+2
   4.22028E+2  -7.83853E+2
   1.71349E+3  -1.72930E+3
   3.29529E+2   5.67753E+1
   9.90572E+2   2.68462E+1
  -2.35346E+3   2.33747E+2
   3.62537E+2   4.34369E+2
  -4.87108E+2  -3.89116E+2
   3.80641E+2   1.35575E+3
  -1.91866E+3  -1.60937E+2
  -1.19705E+3  -1.24022E+1
  -4.27143E+2  -8.42839E+2
  -7.17618E+2   2.99317E+2
  -1.36801E+3  -9.59097E+2
   7.39237E+2  -1.01220E+1
  -4.73263E+2   1.47813E+2
  -1.19280E+3  -6.26012E+1
   1.15652E+2   2.89948E+2
  -6.26097E+2   1.07228E+3
  -1.56605E+3  -7.08815E+1
   1.68265E+3   8.98234E+2
  -2.40496E+2   9.63596E+2
   1.06711E+3   1.19188E+3
   5.43043E+2  -3.86980E+2
   2.74599E+3  -1.99553E+2
