 
 $NMID
 ID=''
 FMTDAT='(2E13.5)'
 TRAMP=   1.00000E+0
 VOLUME=   1.00000E+0
 $END
   1.32110E+2  -3.96219E+2
   2.26315E+3   6.75923E+2
  -1.91578E+3  -4.01323E+3
  -4.63127E+2  -2.15547E+3
  -1.60246E+3   4.17686E+2
  -1.16025E+3  -1.76262E+3
   5.24684E+2   1.80069E+3
  -1.44309E+3   1.80951E+3
  -2.73181E+3  -5.56857E+2
  -2.41724E+3  -1.23653E+3
  -2.17812E+3  -2.59651E+3
   2.42176E+3  -1.55733E+3
   4.16202E+3   1.21301E+3
  -1.09762E+3   4.70433E+3
  -3.04189E+3   2.18573E+3
  -1.95414E+3  -3.34829E+3
   1.84478E+2  -1.73927E+3
   1.78177E+3   5.54854E+2
  -3.12372E+2   2.50849E+3
  -1.17303E+3   2.49523E+2
   1.04538E+3  -3.40159E+3
   5.62356E+3   1.12657E+2
   1.21612E+3   5.52889E+3
  -3.65165E+3   4.82268E+2
  -2.90587E+2  -3.45154E+3
   3.02871E+3  -2.91792E+2
  -6.50569E+2   3.23008E+3
  -1.99826E+3  -5.08469E+2
  -3.40824E+3  -3.75084E+3
   7.21391E+2  -2.46069E+3
   5.66267E+3  -1.85731E+3
   2.78147E+3   5.54658E+3
  -4.18229E+3   4.49626E+3
  -9.61858E+2  -1.45447E+3
   3.03483E+1  -2.29669E+2
  -5.41109E+3   1.08405E+3
  -3.82525E+3  -2.77230E+3
   4.30294E+3  -1.11088E+3
   3.59882E+3   2.69570E+3
   2.26849E+3  -5.91953E+2
  -1.39794E+1   3.56638E+3
   3.03287E+1   4.74328E+3
  -5.69263E+3  -1.80910E+3
   3.67892E+2  -7.51746E+3
   3.05632E+3  -2.05358E+3
   3.20918E+3  -4.23317E+3
   2.10380E+3  -2.40618E+3
   1.67581E+3   1.24534E+3
   1.42359E+3   1.76094E+3
   9.14385E+2   1.95218E+3
  -3.21945E+3  -2.15958E+2
  -2.76508E+3  -1.55138E+2
   1.56586E+2  -4.59176E+3
   1.69057E+3  -2.56246E+2
   1.65863E+3   2.68478E+3
   9.29937E+2   2.16108E+3
   1.37875E+3   2.28145E+3
  -4.72724E+3   2.58901E+3
  -5.06221E+3   4.13684E+2
  -4.17307E+3  -1.77110E+3
  -1.41656E+2  -2.52277E+3
   2.10935E+3  -3.81493E+3
   2.22735E+3  -1.17811E+3
  -2.16122E+3   2.88896E+2
  -2.20062E+3   3.39222E+2
   1.42599E+3  -2.20862E+2
   3.04861E+3   1.82208E+3
   2.73346E+2   4.88334E+3
  -6.54673E+2  -7.00845E+2
  -1.10186E+3  -1.16600E+3
  -4.28870E+2   8.91933E+2
   2.54938E+3   1.40258E+3
   6.43277E+2   9.54874E+2
  -4.57198E+2  -1.80302E+3
   9.08979E+1  -3.73589E+1
   4.60049E+2  -9.57693E+2
   1.29584E+3  -6.71124E+2
  -1.41402E+3  -2.45814E+3
  -2.24329E+2  -2.06085E+3
   1.66262E+3  -1.78446E+3
  -4.63082E+2   3.00452E+3
  -7.19926E+2  -5.96321E+2
   1.62456E+3   6.75531E+2
   1.60062E+3   2.75757E+1
  -1.14077E+3   1.48475E+3
  -1.71879E+3   9.36761E+2
  -2.01538E+3   4.02301E+2
   3.25625E+2  -3.29452E+3
   2.71008E+3  -2.32528E+3
   4.56429E+2  -7.75339E+2
   3.47456E+2  -1.36741E+3
   1.60089E+3  -2.70458E+3
   5.17752E+3  -4.74312E+2
   6.67798E+2   3.17293E+3
  -2.59057E+3   3.65493E+3
  -1.51528E+3  -6.69855E+2
   6.61400E+2  -1.94074E+3
   2.15649E+3  -1.33498E+3
   1.16581E+3   2.61204E+3
  -1.09050E+3   8.35993E+2
  -2.67057E+3  -1.48173E+3
   6.59861E+2  -2.42051E+3
   2.73760E+3  -2.51098E+3
   1.61429E+3  -3.62996E+2
   9.41178E+2   2.91185E+3
  -1.37986E+3   1.33455E+2
   8.30294E+2   3.67173E+1
  -8.48874E+2   2.05054E+3
  -1.26844E+3   2.06810E+3
  -1.88193E+3   1.07220E+3
   1.59985E+2  -2.92993E+3
   1.69060E+3  -8.57498E+2
  -1.07231E+2  -4.46286E+2
   6.23580E+2   4.60587E+1
  -7.66089E+2   3.34624E+3
  -4.83692E+2   3.89181E+2
  -4.83900E+2   1.36674E+0
  -2.59994E+3  -2.28385E+3
  -1.68888E+3  -2.88598E+3
  -1.65748E+1  -1.88406E+3
   1.32578E+3   5.74769E+2
   7.49241E+2  -2.39444E+2
  -1.01121E+3  -6.80587E+2
  -4.24772E+2  -1.46324E+3
  -5.40388E+1   5.09079E+2
   4.09126E+2   9.28961E+1
  -9.13303E+2  -1.87199E+3
   2.23385E+3  -5.71807E+2
   1.37672E+3   9.84115E+2
   1.48869E+3   1.68362E+3
  -9.37525E+1   1.48220E+3
  -6.30535E+2   1.41853E+3
   1.87522E+3  -2.75558E+3
   1.47573E+3  -9.87048E+1
   1.12128E+3   2.24827E+3
  -6.76298E+2   7.81593E+2
   8.94463E+2   1.91904E+3
  -2.72134E+3  -1.50661E+3
  -1.57465E+3   7.64917E+2
  -7.08571E+2   1.01246E+3
  -3.35274E+2  -6.35473E+0
   1.86174E+2   1.50140E+2
   3.19348E+2  -7.77906E+2
   9.60716E+2   5.29957E+2
  -1.23235E+3   1.51233E+3
  -1.14554E+3   6.25203E+2
   1.40142E+2  -9.43891E+2
   7.06225E+2   3.93587E+2
   1.03449E+2  -2.26077E+3
  -2.42889E+2  -2.53204E+1
   4.06365E+2   1.74817E+3
  -2.06990E+3  -1.88149E+2
   7.99929E+2   1.06234E+3
  -1.76431E+3   8.36737E+2
  -3.92359E+2   1.18606E+3
   1.05787E+3  -1.41536E+3
  -3.64855E+2   1.24907E+3
   2.66745E+3  -3.81101E+2
   1.22801E+3  -2.44656E+2
  -4.81037E+2  -2.76160E+2
   1.34531E+3  -7.37165E+2
  -3.57360E+2   3.37523E+0
  -5.69943E+2  -1.57331E+3
  -1.18340E+3   3.72610E+2
  -1.47911E+3   1.26193E+3
   1.34544E+3   1.70754E+3
   1.97620E+3  -8.96736E+2
   7.50364E+2   2.01435E+2
   1.13753E+3   9.96556E+2
   2.26824E+3  -2.16846E+2
   9.31387E+2  -1.46503E+2
   1.84653E+3   1.72673E+3
   4.86927E+2   8.76502E+2
   1.14917E+3   4.56087E+2
   1.76145E+2   2.63198E+3
  -1.25735E+3   1.38432E+3
   1.20652E+3  -2.72995E+2
   2.87466E+2   9.27087E+2
  -3.26835E+1   9.23883E+2
  -3.95199E+2   1.05433E+3
  -1.52881E+3   1.53671E+3
  -6.32595E+2   7.68232E+2
  -7.24736E+2  -7.47503E+2
  -7.87229E+2   9.53816E+2
   6.13832E+2   2.77501E+3
  -1.34117E+2  -3.49190E+2
   3.80604E+2   1.30245E+3
  -4.74019E+2   1.18449E+3
  -3.61154E+2   1.77311E+3
  -3.86646E+2   6.56167E+2
  -5.83004E+2   1.51756E+2
  -1.59861E+3   9.76146E+2
  -1.77504E+3   2.90296E+2
   1.27861E+3  -2.41522E+2
  -2.41986E+2  -1.92767E+2
  -2.03704E+3  -1.22405E+2
   2.01190E+2   5.52817E+2
  -6.48975E+1   7.65269E+2
   3.18272E+2   1.38197E+3
  -2.05262E+2  -6.50493E+2
   8.14335E+2   6.89034E+2
   4.39104E+2   9.19986E+2
   3.12418E+2  -6.10816E+2
  -1.95600E+3   2.07134E+3
  -1.72734E+3  -1.21450E+3
   1.03481E+3  -7.56656E+2
   7.18664E+2  -7.31959E+2
  -2.65060E+2  -3.51241E+1
   6.89594E+2  -5.20399E+2
   1.92504E+3  -7.85517E+2
  -1.33193E+2   8.35732E+2
  -1.04770E+3   3.59412E+2
   1.56379E+1   3.17685E+2
   1.27258E+3  -3.03258E+3
   8.81407E+2  -8.99172E+2
   1.14989E+3  -6.25001E+2
   5.40684E+2   5.97288E+2
   7.97270E+2  -4.49168E+2
   1.42913E+3  -8.10733E+2
  -4.95193E+2  -3.34020E+1
   7.96885E+2   8.85621E+1
   1.81995E+3   3.98743E+2
   2.85320E+2  -1.31023E+3
  -8.14802E+2   6.75647E+2
   5.87130E+1   3.95475E+2
  -6.82334E+2  -1.43235E+2
   4.44720E+2  -3.21382E+2
   1.81698E+3  -7.52375E+2
   3.60736E+2   9.56408E+2
  -1.89266E+3   8.67941E+2
  -1.14295E+3  -1.24211E+2
   9.62783E+2  -1.43157E+3
  -3.48612E+1   1.11406E+3
  -1.31092E+3  -4.01225E+2
  -1.70932E+3  -6.45339E+2
   4.14772E+2   8.87340E+1
  -6.05144E+1  -1.96753E+3
  -4.15027E+2  -7.17031E+2
   1.45933E+3  -6.20020E+2
  -1.08123E+3  -3.33569E+2
   9.30251E+2  -1.62475E+3
  -1.26264E+3   3.40108E+2
   1.06416E+3   5.30247E+2
  -8.29515E+2  -9.01515E+2
  -1.22034E+2  -9.60048E+1
  -1.43507E+2   7.66418E+2
   9.73804E+2  -1.05035E+3
  -2.37365E+3   4.13521E+2
  -4.90624E+2   8.60304E+2
  -1.70778E+2  -2.85073E+2
   4.33891E+2   2.73013E+2
  -1.22279E+3  -1.51508E+2
  -1.08324E+3   1.58128E+3
   9.40890E+2  -1.27342E+3
   6.11668E+2   9.17422E+2
  -1.24596E+3   1.82156E+3
  -1.69440E+3   1.51267E+2
  -1.01343E+3  -2.42158E+3
  -1.51639E+3  -5.76722E+2
  -4.43876E+2  -2.05289E+3
   1.32517E+3   9.38719E+2
  -2.40983E+3   1.33765E+3
  -1.00046E+3   9.44948E+2
   1.57831E+1  -7.53524E+2
  -1.45931E+3   6.76196E+2
   5.61592E+2   1.31415E+3
   1.20076E+3   8.53173E+2
   5.22482E+2  -1.16466E+3
  -7.25630E+2   6.46907E+2
   1.01205E+2   1.63772E+3
   3.70458E+2  -6.56329E+2
  -6.12758E+2  -1.27619E+3
  -5.98702E+2  -1.62210E+3
  -8.11565E+2   4.03268E+2
  -3.83675E+2   2.66352E+3
  -2.13023E+3   1.54822E+3
  -6.93069E+2   1.02378E+3
   3.35832E+2   8.85777E+1
   2.14689E+2   3.05270E+2
  -2.09910E+3   7.25247E+2
   5.88682E+1   1.83727E+2
   1.13185E+3   8.99970E+2
   3.59006E+2   3.59949E+2
   9.68109E+1  -6.47097E+2
  -5.50352E+2  -1.00153E+3
  -7.26120E+2   1.09828E+3
  -8.36570E+2   6.01416E+2
  -5.86071E+2   1.78770E+2
  -5.65611E+2  -7.51973E+2
  -5.34902E+2   1.96110E+3
  -5.46722E+2   3.68132E+2
  -5.63133E+2   1.91257E+3
   5.89029E+2   1.43037E+3
   6.33809E+1  -5.22598E+2
  -2.69994E+2  -8.23904E+2
  -1.37461E+2  -7.35333E+2
   1.13094E+2   1.96536E+2
  -4.38473E+2  -5.12311E+1
   3.12479E+2  -1.41962E+3
  -4.67918E+2   5.43826E+2
   2.03504E+3  -3.05296E+1
  -1.68462E+3   3.82498E+2
  -2.25673E+2  -1.78373E+3
   6.95690E+2  -5.50797E+1
   1.81825E+3   2.71375E+2
  -5.48276E+2  -5.72816E+2
   1.42156E+3  -1.47796E+3
   3.59218E+1  -7.17110E+1
  -1.37022E+3  -8.29547E+2
  -1.44729E+2   1.84560E+3
   3.55342E+2  -3.25121E+2
  -3.97404E+0   4.59316E+2
  -2.42128E+2  -1.39679E+3
   1.42642E+3   2.30724E+2
   4.38183E+2  -1.10425E+3
   1.27270E+3   1.33088E+3
   3.49425E+2  -8.31417E+2
  -3.66696E+1  -4.49657E+2
  -1.28852E+3   1.09538E+3
  -4.60215E+2  -2.66898E+2
  -1.51065E+3  -7.72433E+2
   1.75310E+3   9.54657E+2
   1.00640E+3  -1.13119E+3
   3.17358E+2   1.32214E+3
   4.32855E+2   6.48903E+2
   2.76275E+2   1.71061E+3
  -2.04007E+2   1.18216E+3
  -4.07090E+2   7.46549E+2
  -4.38490E+2  -1.02159E+3
  -1.40857E+3  -1.02706E+3
   2.47290E+2   2.00608E+1
   1.19856E+3   9.64334E+2
   3.89173E+2  -7.88975E+2
   9.98906E+2  -6.49733E+2
   7.72620E+2   4.81986E+2
  -5.37647E+2  -1.03073E+3
   9.19567E+2   4.37548E+2
  -2.51233E+3   1.32861E+3
   1.75763E+3  -6.11982E+2
   1.12865E+3  -3.58658E+2
   5.41037E+2  -6.70715E+2
  -1.26153E+3  -3.56047E+2
   1.92344E+2  -1.16386E+3
   4.24289E+0   5.16937E+2
   1.76182E+2   2.08364E+3
  -1.70764E+3  -1.78298E+3
  -5.08930E+2  -2.55836E+2
  -1.64603E+3   5.46142E+2
   5.95218E+2   1.15341E+2
   4.97708E+2   4.12659E+2
  -1.61162E+3  -1.19650E+3
  -2.13799E+3  -1.85205E+2
   1.03152E+2  -1.68325E+3
   5.14083E+2   1.13727E+3
   1.81300E+3  -2.55580E+3
  -3.99638E+2  -3.92964E+2
  -3.22763E+2  -1.18317E+3
  -8.37336E+1  -8.73614E+2
  -7.32988E+2  -4.88876E+2
   1.71777E+2   1.59836E+3
  -1.85521E+2   1.32205E+3
   1.79949E+2  -2.04643E+2
   1.16779E+3  -2.72131E+2
   2.48016E+2   1.17793E+3
   6.51114E+2  -5.48196E+1
  -1.53647E+3  -6.16853E+2
  -3.37241E+2   3.15472E+2
