 
 $NMID
 ID=''
 FMTDAT='(2E13.5)'
 TRAMP=   1.00000E+0
 VOLUME=   1.00000E+0
 $END
   3.65381E+2   4.06301E+2
   3.28727E+2   1.09859E+3
  -1.89762E+2  -5.78962E+3
  -4.66801E+3  -1.35429E+3
  -2.64825E+3   4.44019E+3
   3.06732E+3   4.86682E+3
   2.25451E+3   4.74373E+3
   2.18705E+3   1.88131E+3
   1.43824E+3  -3.52943E+3
   4.02447E+1  -6.42817E+3
   2.30712E+3  -6.38112E+3
   4.26686E+3   1.35387E+3
  -4.26787E+3   5.38048E+3
  -6.36437E+3   2.75544E+3
  -3.30424E+3  -3.50824E+3
   4.71658E+3  -4.06282E+2
   4.64436E+3   5.50482E+3
  -1.16138E+3   7.41629E+2
  -9.64392E+2  -2.74194E+3
   1.24995E+3  -5.08689E+3
   2.38586E+3   2.37683E+2
  -6.00668E+2   3.39398E+3
  -4.50705E+3   3.84911E+3
  -2.59009E+3  -1.85617E+3
   2.52551E+3  -7.36258E+1
   4.42667E+2   2.40888E+3
  -2.08555E+2   2.09865E+3
  -2.98775E+3  -2.01456E+3
   5.89575E+2  -4.37560E+3
   3.06116E+3  -1.68267E+3
   4.34388E+3   3.18212E+3
  -3.83308E+3   5.04757E+3
  -5.99741E+3  -9.01152E+2
  -1.49716E+3  -1.82273E+3
  -1.59828E+3  -5.80405E+2
  -3.29968E+3  -5.35631E+3
   1.25299E+3  -5.11011E+3
   5.35247E+3   1.44014E+3
   2.03590E+3   3.42677E+3
  -2.81108E+3   4.52327E+3
  -5.35526E+2   3.82973E+3
  -5.29209E+3   1.81883E+3
  -4.03637E+3  -2.13427E+3
   1.40272E+3  -6.22198E+3
   3.16828E+3  -3.66580E+3
   2.78688E+3  -3.96715E+3
   4.31826E+3  -1.30422E+3
   3.82685E+3  -7.94615E+2
   9.85704E+2   7.69530E+2
   5.54020E+2   1.29796E+3
  -3.96084E+3  -2.00406E+2
  -2.10113E+3  -2.98265E+3
   1.62573E+3   4.77646E+2
   1.17449E+3   3.29440E+3
   8.10443E+2   4.04084E+3
  -9.15983E+1   5.97713E+3
  -3.51536E+2   5.68057E+3
  -4.55231E+3   1.50923E+3
  -5.59986E+3  -9.29416E+2
   1.73679E+3  -3.42920E+3
   2.33198E+3  -2.38225E+3
   3.89264E+3  -2.22873E+3
   3.70997E+3   3.35291E+2
   2.28882E+2   2.65016E+3
  -1.82268E+3  -7.05070E+2
   3.10072E+2   6.14047E+2
   1.43078E+3   4.43129E+3
  -2.55014E+3   5.37354E+3
  -2.98055E+3   1.26248E+3
   1.01185E+3  -7.29729E+2
   9.70850E+2   1.72563E+3
   8.55250E+2   9.27411E+2
  -1.92002E+3   1.08078E+3
  -1.30678E+3  -2.24268E+3
   2.37075E+3  -1.59798E+3
   5.82479E+2  -2.35508E+3
   3.08361E+2  -3.32437E+3
  -2.83961E+2  -2.32465E+3
   2.36852E+3  -6.67723E+3
   3.29088E+3  -2.98736E+2
   3.33414E+3  -2.25505E+3
   8.72549E+2  -1.04513E+3
   2.96624E+3  -1.81097E+3
   7.83700E+2  -3.90952E+2
  -8.23116E+2   1.53039E+3
  -1.34621E+3   1.44813E+3
  -2.04970E+3  -2.55301E+3
  -1.01154E+3  -2.40545E+3
  -8.41569E+1  -1.40474E+3
   1.42661E+3   6.09303E+2
   3.33532E+2   5.11536E+2
   2.20617E+3  -2.88499E+2
   2.94032E+3   4.81328E+2
  -1.93633E+3   7.79780E+2
  -2.91309E+3   2.49748E+2
  -3.65099E+3  -3.01672E+3
   2.62783E+2  -2.30525E+3
   2.01522E+3  -1.94293E+3
   9.67631E+2   2.69939E+1
  -5.76718E+2   1.43302E+3
  -3.02291E+3  -1.83833E+3
  -8.77382E+2  -3.21277E+3
   2.03319E+3   2.02038E+2
   1.02376E+3   8.83775E+2
   1.12625E+3   8.97208E+2
  -3.63100E+3   5.71391E+1
   1.35315E+3   1.32108E+3
  -1.37086E+3   1.50047E+3
  -2.03107E+3   3.50183E+3
  -1.80694E+3  -8.69378E+2
  -1.82715E+3   5.79700E+1
   3.31015E+2   1.58634E+3
   1.08760E+3   5.67204E+2
   1.65452E+3   1.11476E+3
   6.91069E+2   1.43634E+3
   1.07345E+2   1.37325E+3
   2.33728E+2   1.27939E+3
   1.28327E+3  -3.39206E+2
  -2.81750E+3   7.24187E+2
   9.98541E+2   6.56175E+2
  -7.21609E+2   1.69358E+3
  -3.89234E+2   1.73258E+3
  -6.62272E+2   3.08423E+3
  -1.13279E+3  -3.25821E+2
   7.92281E+2   7.88550E+2
  -6.89736E+2   2.04295E+3
  -2.26047E+3   6.19222E+2
  -8.37603E+2  -1.37754E+2
   8.64263E+2   1.10250E+3
   1.83161E+3   1.76080E+3
   4.48104E+2   1.60883E+3
  -1.38484E+3   3.21069E+3
  -1.88720E+3  -2.93736E+3
   1.10201E+3  -4.73620E+2
   1.15694E+3   1.45511E+2
   1.79288E+3   2.01278E+3
   1.33139E+3   2.13704E+3
   8.20797E+2   1.25490E+3
  -1.33066E+3  -8.35299E+2
   1.02294E+3  -2.27181E+2
  -1.12919E+3   7.78883E+2
  -2.10572E+3  -2.02569E+3
  -2.34655E+2  -1.81655E+3
   1.61104E+3  -7.85058E+2
  -3.65169E+2  -5.78884E+2
  -8.90873E+2  -1.19756E+3
  -2.41636E+2   1.12674E+3
   6.92903E+2  -9.11516E+2
  -8.94266E+2  -1.44119E+3
  -1.58736E+3  -1.26017E+2
   4.96619E+2  -2.15316E+2
  -1.20758E+2   2.26694E+3
  -1.49986E+3  -2.57178E+1
  -2.72980E+3  -1.11235E+3
   5.37921E+2   6.22422E+2
  -1.43444E+3   2.39454E+2
   1.23143E+3  -2.04285E+3
   3.21425E+2  -1.22270E+3
   3.19719E+2  -4.80209E+2
   6.06519E+1   6.31233E+1
   1.37121E+3  -4.77159E+2
   6.40608E+2  -6.84537E+2
   3.86608E+2   2.51535E+2
  -1.93986E+2  -1.18597E+3
  -2.78644E+2  -2.81616E+3
   1.26359E+3   1.94304E+3
  -1.54623E+3   1.13233E+3
  -1.95591E+3  -4.45309E+2
  -1.74816E+3  -6.55909E+2
  -9.52805E+2  -4.27843E+3
   8.07593E+2  -1.05147E+1
   2.21678E+3   6.89930E+2
   9.65957E+1   7.14193E+2
  -2.34713E+3  -3.74793E+2
   1.14945E+2  -3.13543E+2
   5.77722E+1  -3.86577E+2
   9.93110E+2   2.76068E+2
   1.08445E+3  -2.37483E+3
  -1.50689E+3  -1.80152E+3
  -8.54280E+2  -4.37195E+1
  -6.16523E+2   1.33578E+3
   4.92943E+2   6.27527E+2
  -1.89091E+3  -2.02231E+3
   1.56449E+3   1.01681E+3
   8.07704E+2  -1.15773E+3
  -1.27751E+3   1.33358E+2
  -1.42551E+2  -9.65860E+2
  -6.46445E+2  -1.49470E+3
   1.43501E+3  -1.24594E+3
   8.74578E+2   1.11987E+3
  -2.30628E+2   4.33626E+2
   4.02394E+2   6.52727E+2
   1.34745E+3  -1.28581E+3
   7.77253E+2   5.87246E+2
   2.90602E+3   3.53019E+1
   2.26064E+3   5.74047E+2
  -5.17128E+2  -7.71839E+2
   1.27255E+3   4.92048E+2
  -2.29616E+3  -7.10220E+2
  -1.53743E+3  -1.06460E+3
  -5.15053E+1  -1.88957E+3
   7.47435E+2  -1.18845E+3
   1.89972E+3   1.45464E+3
  -6.87166E+2   3.51983E+1
   5.35418E+2   8.30969E+2
  -1.25691E+3  -1.48832E+2
  -2.15311E+3   3.82746E+2
  -9.42794E+2   3.92378E+2
  -1.23515E+3  -3.00155E+2
  -1.97695E+2  -1.36230E+3
   8.74553E+2  -1.90379E+3
   2.43138E+2   5.09807E+2
  -3.32876E+2  -4.64518E+2
  -1.71484E+3   4.96398E+2
  -1.66283E+3  -5.29653E+0
   8.91483E+2  -1.55185E+3
  -1.40970E+2  -8.11039E+2
   1.28233E+3  -6.28758E+2
  -1.21966E+3  -1.00521E+3
   8.80601E+1  -1.18317E+3
  -7.28599E+2  -7.68138E+2
   6.33695E+2   4.89414E+2
  -1.02218E+3  -1.18076E+3
   4.55038E+1  -1.78012E+2
  -1.11409E+3  -4.07993E+2
  -2.64901E+2   3.10369E+1
  -6.40498E+2   4.24814E+2
   2.85652E+2   1.25803E+3
   1.94237E+3  -3.72107E+1
   9.37319E+2   1.18204E+2
   1.37153E+3  -2.28469E+3
  -5.82624E+2   1.54304E+3
  -5.68507E+2  -1.01095E+3
  -7.79510E+2   7.60991E+2
  -2.12747E+3   2.25561E+2
  -1.16407E+3   1.24678E+3
  -1.43737E+3   1.30271E+3
  -1.96053E+3  -1.65071E+3
   2.49507E+3  -2.38282E+2
   9.89959E+2   1.24547E+3
  -1.60408E+3   7.54850E+2
  -7.34830E+2   6.76856E+2
   9.12711E+2  -1.54881E+2
   9.71652E+2  -6.09054E+1
  -2.10637E+3   6.22193E+2
   1.94321E+2  -1.51945E+2
  -1.75340E+3   2.46818E+3
   2.16423E+2   8.91646E+2
   2.74363E+2   5.93524E+2
   1.15326E+3   1.50264E+3
   7.58260E+2   6.43603E+2
  -2.38191E+2  -9.98116E+2
   9.04051E+2  -1.70669E+3
   1.17424E+3  -1.92433E+2
   3.48762E+2  -1.19189E+2
  -1.48929E+3   1.84042E+3
   3.34278E+2   2.49781E+2
  -7.41313E+2  -1.48062E+3
  -1.62242E+3   1.06571E+3
   6.55161E+2   5.42542E+2
   3.86148E+2   4.75368E+2
   7.92472E+2   6.88806E+2
  -1.16763E+3   1.08129E+3
  -1.42531E+3   1.63702E+3
   2.72694E+2   8.90730E+2
  -5.56336E+2  -7.67740E+2
   3.37484E+2  -9.39348E+2
   1.13096E+3  -9.15852E+2
  -3.82486E+2  -1.03047E+3
   1.04067E+3  -1.25562E+3
   1.07845E+3  -7.33393E+2
  -5.50422E+2   1.24123E+3
   3.83176E+1   1.29077E+3
  -5.32831E+1  -2.49757E+2
   1.57954E+2  -5.90489E+2
  -7.76450E+2  -1.94403E+2
   1.19746E+3  -2.14956E+2
   7.54613E+2  -1.30454E+3
  -2.39785E+3  -7.04941E+1
  -3.11302E+2  -3.64647E+2
   3.74336E+2  -2.51186E+3
   1.28666E+3  -4.05254E+2
   4.70560E+2   8.34903E+2
  -1.15768E+3  -2.52357E+2
   9.73020E+1   1.24340E+3
   8.45521E+2  -5.82952E+2
  -3.14351E+2  -3.30258E+2
   4.77265E+2   7.29648E+2
  -3.95904E+2   4.63483E+2
   4.76788E+2   1.25300E+3
   6.08024E+2  -8.84405E+2
   3.01727E+3  -1.63601E+3
  -6.59389E+2  -7.39074E+2
   1.64273E+3  -2.35440E+3
   9.90628E+2  -1.01533E+2
   2.36945E+3  -8.71846E+2
   1.32263E+2   1.90392E+3
   5.77018E+2   1.30727E+3
   7.46260E+2  -1.09666E+3
   6.98878E+2  -1.70633E+3
  -2.53981E+3  -9.91483E+2
   3.13528E+2   1.65375E+3
   1.87110E+3   6.81532E+1
   3.30229E+2   9.15863E+2
   9.82964E+2  -1.33615E+3
   9.87145E+2   2.07241E+3
   2.36258E+2  -8.06488E+2
   2.29592E+2  -4.37132E+1
   5.01605E+1  -9.61705E+2
  -2.65973E+1  -6.41767E+2
  -6.31324E+2   7.25103E+1
  -9.89493E+2   1.47891E+2
   4.76751E+2   1.03429E+3
   1.28394E+3  -7.45735E+2
   9.54629E+2   1.35627E+2
  -5.31295E+2  -6.27713E+2
  -1.16358E+3  -1.19562E+3
   1.12610E+3   3.05515E+2
  -2.11991E+2  -1.04992E+3
   2.15718E+2  -1.27416E+3
  -7.08472E+2   2.62367E+3
  -1.66294E+3  -1.16391E+3
  -3.40209E+1  -1.60389E+3
   6.70170E+2  -1.46376E+2
   5.41919E+2  -1.37388E+3
   1.23471E+2  -7.90181E+2
  -1.05548E+3  -1.13137E+3
  -7.83287E+2   5.36227E+2
  -1.58674E+3  -5.51035E+1
   7.31643E+2   1.03350E+3
   7.60681E+2  -1.43008E+3
   3.61383E+1   9.94976E+2
  -2.74750E+2   1.52665E+2
  -6.19625E+2  -8.47164E+2
  -1.02755E+3   6.80013E+2
   3.57355E+2   1.22170E+3
   8.48086E+1  -2.46293E+2
   1.29413E+3   1.50791E+3
   8.55668E+2   1.16046E+3
   4.16643E+2   2.14943E+3
  -1.31431E+3   4.52780E+2
   1.18297E+3   5.43654E+2
  -6.42667E+2  -5.15644E+2
  -1.51837E+3  -4.69481E+2
  -5.20955E+1   5.32983E+2
   1.00260E+3  -6.33375E+2
  -1.61735E+3  -1.00610E+3
   1.06419E+2   2.16804E+3
  -1.83883E+2   7.34938E+2
   5.88462E+2   2.90595E+1
  -1.24000E+3   5.54989E+2
   1.36641E+2   2.05069E+3
   6.72331E+2   1.57319E+2
   3.99930E+2   1.77171E+3
   5.95473E+2   4.82910E+2
  -2.02079E+3   4.51108E+2
  -3.32856E+2   4.74848E+2
  -1.24323E+3   1.88905E+3
  -3.80603E+2   4.33287E+2
   1.29248E+3  -1.38515E+2
  -1.65563E+1  -2.54123E+2
   1.10755E+3   8.68314E+2
   6.97959E+2   1.26652E+2
  -1.93176E+3   7.62590E+2
   6.17587E+2  -3.77410E+2
   9.87897E+2  -8.15965E+2
  -9.66397E+2   3.94683E+2
