 
 $NMID
 ID=''
 FMTDAT='(2E13.5)'
 TRAMP=   1.00000E+0
 VOLUME=   1.00000E+0
 $END
   2.85466E+2   2.88401E+2
  -1.47977E+3   3.46939E+3
   6.06097E+3   3.04267E+3
   8.14076E+3   1.74874E+3
   5.42629E+3  -5.24283E+3
   4.24988E+3  -8.82672E+3
  -4.23011E+3  -6.59962E+3
  -5.71744E+3  -5.43931E+3
  -3.05588E+3   3.11032E+2
   2.15195E+2   2.52899E+3
   3.80164E+3   4.35448E+3
   4.04866E+3   3.06343E+3
   2.72597E+3   3.16976E+3
   4.01315E+1  -2.33461E+3
   5.47904E+2  -1.91258E+3
   5.12369E+3  -4.13168E+3
   5.01606E+3  -7.32165E+2
   2.35741E+3   7.40496E+2
  -1.40952E+3   1.38715E+3
  -2.72925E+2  -3.61088E+3
   5.13686E+3  -1.15279E+3
   2.57050E+2   5.30038E+3
  -4.70229E+3   2.82753E+3
  -1.76068E+3  -4.40896E+3
   4.07988E+3  -2.39969E+3
   3.26677E+3   3.55804E+3
  -2.85516E+3   6.96200E+1
  -2.00572E+3  -3.17406E+3
   1.55220E+3  -7.62520E+3
   6.68965E+3  -3.00481E+3
   1.30121E+3   6.43060E+3
  -7.01262E+3   3.33846E+3
  -9.50875E+3  -4.29889E+3
  -4.18407E+3  -5.09526E+3
  -3.96888E+3  -3.05505E+2
  -4.41800E+3  -5.00710E+3
   2.40792E+3  -4.54224E+3
   3.29045E+3   3.50297E+3
  -8.65641E+2   4.97244E+3
  -2.08479E+3   5.19326E+3
  -4.93168E+2   7.94928E+3
  -3.28743E+3   3.15674E+3
   6.59498E+2  -5.84005E+3
   7.96525E+3  -7.09025E+2
   7.92252E+3   3.09722E+3
   7.36356E+3   1.69286E+3
   6.04153E+3   2.94206E+3
   4.62245E+3   5.52278E+2
   2.75589E+3   1.25644E+3
   3.72125E+1  -1.12573E+2
   5.45629E+2  -4.93077E+3
   2.22475E+2  -2.37895E+3
   3.70328E+3   1.10505E+3
  -2.08676E+2   2.57115E+3
  -2.62529E+3   1.48020E+3
  -3.97756E+3   4.39752E+3
  -6.82715E+3   3.49864E+3
  -7.44809E+3  -4.36027E+3
  -2.04949E+3  -6.60783E+3
   1.26498E+3  -4.53237E+3
   5.26923E+3   1.77659E+3
   3.09864E+3   3.13927E+3
   1.82725E+3   3.09276E+3
  -2.96857E+3  -1.13967E+2
   1.72773E+3  -1.61976E+3
   2.64170E+3   4.82981E+2
  -2.34830E+3   4.39678E+3
  -4.27350E+3   8.32235E+2
   1.12949E+3  -5.20520E+2
   4.24513E+2   4.47801E+2
  -1.31374E+3  -7.60474E+2
  -1.18131E+3   7.72968E+2
   1.27914E+3  -1.15689E+3
   1.06471E+3  -5.21508E+2
   1.08411E+3   1.23595E+3
   1.38899E+3   3.78614E+2
  -7.19546E+1   3.68830E+2
  -5.84931E+2  -1.79062E+3
   3.22521E+3   7.87738E+2
   3.61716E+2   2.05107E+3
  -3.32596E+3  -1.15909E+3
  -1.38038E+3  -1.71064E+3
   6.15773E+2   1.99928E+3
  -1.62163E+3   2.70912E+3
  -4.35358E+3   3.31988E+3
  -2.48762E+3  -2.27133E+3
   2.12303E+2  -5.09442E+3
   3.23179E+3   4.17333E+1
   4.29272E+3   2.71252E+3
   5.35733E+2   1.04047E+3
   1.69078E+3  -1.27722E+3
   8.21108E+2  -5.61479E+2
  -9.58616E+2   2.29520E+3
  -2.92973E+3   1.64739E+3
  -2.94306E+3  -8.99665E+2
   3.13371E+3  -3.88597E+3
   4.34948E+3  -7.23049E+2
   1.13862E+3   4.35982E+3
  -3.10779E+3   2.20604E+3
  -1.39158E+3  -2.51210E+3
   2.70523E+3  -4.56260E+3
   5.53742E+3   1.38128E+3
   1.60631E+3   5.80829E+3
  -1.21770E+3   2.91717E+3
  -3.17045E+3   1.81780E+3
  -1.87245E+3   1.35714E+3
  -3.32008E+3   1.26994E+3
  -2.93065E+3  -2.16319E+3
   1.27881E+2  -3.47707E+3
   2.02176E+3  -4.33176E+3
   3.70460E+3  -6.62686E+2
   1.49695E+3   2.33368E+3
  -1.80109E+3   4.11794E+3
  -1.54164E+3   3.07719E+3
  -3.55775E+3   1.11965E+3
  -3.99423E+3  -1.10246E+3
  -1.99922E+3  -1.61644E+3
  -1.96526E+2  -5.16401E+2
  -1.10727E+3   2.00532E+2
   9.42486E+2  -1.32486E+3
  -1.36512E+3   2.67061E+3
  -2.53335E+3   1.75969E+3
   6.41217E+2  -2.62063E+3
   1.10765E+3   1.94393E+2
   2.06949E+3   1.19952E+3
  -3.62185E+2  -5.82743E+2
   3.80958E+2  -2.48432E+3
   2.07178E+3  -9.10450E+2
  -1.46387E+3   2.17467E+3
  -1.02275E+3   6.88836E+1
  -1.33976E+2   5.26143E+2
   1.73218E+3  -6.79103E+2
   2.35752E+3   2.12716E+3
   6.93834E+1   5.27931E+3
  -2.97371E+3   2.02540E+3
  -5.48959E+3  -1.01567E+3
   1.93920E+2  -2.38801E+3
   2.90468E+2  -1.87028E+3
   6.21336E+2  -1.35746E+3
  -9.16031E+2  -3.91127E+2
   1.15422E+3   9.01612E+2
   1.18359E+3  -9.59573E+2
  -1.69782E+2   7.47533E+1
  -1.50065E+3   5.41119E+2
  -2.00227E+3   5.86239E+2
  -1.65442E+3  -1.01236E+3
  -1.02438E+3   4.87659E+2
  -1.51537E+2   9.98303E+2
  -5.91540E+2   9.56061E+2
  -1.75293E+3   5.68630E+0
  -2.36413E+3  -1.24875E+3
  -1.36141E+3  -1.39069E+3
   2.39874E+2  -2.77787E+3
   2.73900E+3  -1.72932E+3
   1.98037E+3  -2.42025E+3
   5.81706E+2   1.31864E+3
  -6.63973E+2   2.36445E+2
  -2.20462E+3  -2.34642E+1
   1.13200E+2  -5.58559E+2
   1.63981E+3  -1.02743E+3
  -1.85004E+3  -2.27377E+2
  -1.22976E+3  -6.63929E+2
  -8.70898E+2  -1.14654E+3
   7.77342E+2  -1.05612E+3
   4.86725E+2  -3.41841E+2
  -6.71612E+2   3.42396E+2
  -2.07438E+3  -2.42360E+3
   2.27701E+3  -1.06905E+3
   2.41078E+3   2.54887E+3
  -1.72689E+3   1.06437E+3
  -2.17339E+3  -2.46864E+3
  -9.87698E+2  -2.94546E+3
  -5.05697E+1  -1.55970E+3
   1.22603E+3  -6.98909E+2
   1.82752E+3   4.34750E+2
   1.19508E+3  -1.03266E+3
   2.43225E+3   2.10930E+3
   1.60860E+3   3.62692E+3
  -3.02065E+3   1.85713E+3
  -3.45088E+3  -1.00992E+3
  -1.40435E+3  -4.45271E+2
   8.73737E+2  -2.67868E+2
  -1.87418E+3  -1.72701E+3
   2.20593E+3   5.29741E+2
   1.99907E+3  -1.80936E+3
   1.08427E+3   4.11139E+2
  -1.46313E+3  -1.56135E+2
  -4.10168E+3  -9.54217E+1
   9.26754E+1  -2.41979E+3
   2.41348E+3  -1.49572E+3
   1.54010E+3  -1.14855E+3
   1.41612E+2   1.97831E+2
  -4.67286E+2   1.86438E+3
   2.99071E+2  -2.91801E+2
   9.30322E+2  -9.54936E+2
  -1.75566E+2   6.96096E+2
  -3.38046E+2  -6.04333E+2
   8.45818E+2  -5.70378E+2
   2.44838E+3  -3.85742E+2
   7.31580E+2   2.52825E+3
  -2.77115E+3   3.30722E+3
  -2.69180E+3  -2.85523E+3
   6.97524E+2  -4.84639E+3
   1.92174E+3  -2.68977E+3
   2.01308E+3   7.42488E+2
  -1.16600E+2   1.78461E+3
   3.77135E+2  -3.12571E+2
   6.82706E+2   1.12979E+2
   1.33509E+3   1.97027E+3
  -4.05330E+3   4.97064E+2
  -1.01685E+3  -3.53379E+3
   9.77832E+2  -1.80464E+3
   2.43675E+3  -1.10696E+2
   1.95032E+3   1.92431E+3
  -3.25314E+3   2.00703E+3
  -1.68173E+3  -5.24541E+2
   1.07508E+3  -1.61938E+3
  -1.28116E+2  -2.79461E+3
   4.59398E+2  -1.73609E+3
  -2.00983E+2  -9.49731E+2
   9.98412E+2  -1.51812E+3
   8.38601E+2  -4.55603E+1
  -1.27176E+3  -2.18832E+2
  -1.68029E+3  -2.28160E+2
   6.02857E+2  -2.46158E+3
   3.28209E+3  -2.87343E+2
   7.58226E+1   2.74935E+3
   1.33003E+2   1.68026E+3
  -1.42588E+3   2.01276E+3
  -1.31009E+3  -2.21632E+3
   3.64710E+2  -6.84413E+2
   3.55114E+2   1.06722E+3
  -2.80548E+3  -7.79035E+2
   1.63270E+3  -1.11317E+3
   3.61700E+3  -1.08319E+3
   1.29940E+3   2.62602E+3
  -1.23564E+3   1.44305E+3
  -3.45678E+3  -1.88895E+3
   1.50876E+3  -6.54486E+2
   2.77775E+3  -1.06652E+3
  -6.43741E+2   1.10697E+3
  -1.11452E+3   1.60232E+3
  -1.08892E+2  -2.19167E+3
   1.01224E+3  -4.38976E+2
  -1.95523E+2   3.61689E+2
  -2.16226E+3   1.58644E+3
  -8.47535E+2  -1.68845E+3
   2.54265E+3  -1.10652E+3
   1.89445E+3   5.78725E+2
   1.63756E+3   3.82282E+3
  -3.47232E+2   1.34448E+3
  -1.39327E+3  -1.47499E+3
   2.80758E+2  -9.60726E+1
  -5.48894E+2  -1.30052E+3
   6.52239E+2  -1.95321E+3
  -2.53658E+3  -6.92408E+2
   1.85842E+3   8.59637E+2
   2.29371E+3   1.12671E+3
  -1.73545E+3   1.62329E+3
  -1.42235E+3  -1.52000E+3
   1.85407E+2  -1.03600E+3
   2.76228E+3  -1.04388E+3
   3.42179E+3   1.27300E+3
  -3.90577E+2   1.63027E+3
  -7.95621E+2  -9.47048E+2
  -7.98254E+2  -1.90752E+2
  -5.09168E+2  -4.37241E+2
   1.20402E+2   2.19397E+2
  -2.38551E+2  -2.60731E+3
   1.01619E+3  -1.39480E+3
   3.55442E+3  -1.76346E+2
   2.59697E+3   5.14639E+2
   1.42278E+3   2.13724E+3
  -3.45993E+2   1.35248E+2
  -2.41619E+3  -3.67573E+3
  -7.38677E+2  -1.62504E+3
  -4.63544E+2   1.78054E+3
   1.38242E+3   2.96564E+2
   1.67044E+3  -3.89699E+2
   7.53528E+2  -1.15757E+3
  -4.83358E+2   1.17259E+3
   1.06309E+1   2.36142E+3
  -1.43275E+3  -1.80454E+3
   1.10496E+2  -1.60526E+3
   7.59449E+2  -6.93665E+2
  -2.12266E+3   8.92463E+2
  -1.01438E+2   9.00997E+2
  -4.31554E+1  -1.97615E+3
   1.92890E+3  -1.07457E+3
   1.17157E+3  -1.91073E+2
   1.73776E+3   2.44702E+3
   1.94026E+3  -3.10921E+2
  -8.23089E+2  -1.12000E+3
   4.90619E+2   8.72185E+2
  -2.42830E+3   7.13460E+2
  -3.15340E+3  -8.07287E+2
  -8.04708E+2  -3.46569E+3
   8.33716E+2  -7.12483E+1
   2.03056E+3   4.45935E+2
  -2.79934E+2   2.01720E+3
  -1.19640E+3   1.96701E+3
  -1.38612E+3  -1.87662E+3
   1.08217E+3   1.72988E+2
  -1.21593E+3   5.28989E+1
  -7.16366E+2  -1.96205E+3
   3.31822E+3  -2.04701E+3
   2.89132E+3   1.30685E+3
   1.60432E+3   7.34642E+2
   2.30088E+2   4.02308E+2
  -1.34111E+3  -2.23846E+2
  -6.02249E+2  -1.26419E+3
   1.01079E+2  -6.44616E+2
   9.58932E+2   1.86879E+3
  -2.00057E+2   6.36813E+2
   1.46931E+3  -1.37563E+3
   6.04187E+2   1.48340E+3
  -1.25921E+3   6.44776E+2
  -7.35140E+2  -1.16641E+3
  -3.22171E+3  -1.09998E+3
   4.94797E+2  -2.11291E+3
   1.85734E+3   5.24294E+2
   8.85978E+2   2.13945E+3
  -2.32343E+3   6.27436E+2
  -1.27502E+3  -4.09495E+2
   1.07575E+3   1.59838E+2
   1.47596E+3  -4.51022E+2
   9.53229E+2  -1.90995E+3
   3.63224E+2  -1.73837E+3
   1.69428E+3   2.38855E+3
   8.66561E+2   3.28679E+3
  -1.33907E+3   8.38733E+2
  -2.12941E+2  -2.70635E+2
  -1.79996E+3  -1.00661E+3
  -3.80134E+2  -3.99001E+2
  -3.05537E+2  -5.55312E+2
  -9.14115E+2  -2.30328E+3
   2.13301E+3  -1.36544E+3
   7.74256E+2  -4.45829E+2
  -1.72700E+2   3.02656E+3
  -1.91821E+3  -8.16248E+2
  -2.05653E+3  -1.53189E+3
   1.96092E+3  -1.34267E+3
   2.23168E+3  -3.28548E+3
  -1.07345E+3   7.74942E+2
  -9.27070E+2   1.01908E+3
  -1.87705E+3  -1.42978E+1
   4.03051E+2  -5.53516E+2
  -2.80377E+2  -4.76094E+2
  -1.36902E+3   8.42884E+2
   7.17065E+2  -1.14181E+3
   1.74841E+3   1.00369E+3
  -3.01307E+2   1.91958E+2
   1.80421E+2  -2.35727E+2
  -5.37636E+1   9.81649E+2
   4.83471E+2  -2.15929E+3
   1.67505E+3  -8.10910E+2
  -1.71005E+2   1.21832E+3
   2.87530E+2   1.53352E+3
   1.00295E+2  -3.67711E+2
  -1.08782E+3  -9.44193E+2
  -9.73551E+2  -8.65311E+2
  -5.08403E+1  -1.03506E+3
  -1.45501E+3  -5.34723E+2
  -8.37934E+2  -9.62191E+2
   1.15200E+3  -1.23583E+3
   1.85145E+3   9.08056E+2
   6.60220E+2   1.57359E+3
