 LCModel (Version 6.3-1N) Copyright: S.W. Provencher.          Ref.: Magn. Reson. Med. 30:672-679 (1993).                
 Slice_N1@20_12  02-Jun-2023 14:37:24
 27 lines in following concentration table = NCONC+1
    Conc.  %SD /Cr+PCr  Metabolite                                         
 1.86E-06  17% 2.4E-04 Mac                                                 
 3.99E-02  22%   5.159 Cr                                                  
 2.20E-02  43%   2.841 PCr                                                 
 7.34E-02  11%   9.504 Ins                                                 
 6.45E-02  10%   8.341 NAA                                                 
 6.11E-02  12%   7.911 Tau                                                 
 9.05E-03  26%   1.171 PCho                                                
 7.36E-03  33%   0.952 GPC                                                 
 5.71E-02  15%   7.394 Glu                                                 
 1.40E-02  43%   1.808 Gln                                                 
 1.09E-02  59%   1.407 Ala                                                 
 2.50E-02  47%   3.241 Asc                                                 
 2.95E-03 238%   0.382 Asp                                                 
 7.97E-03  48%   1.032 GABA                                                
 1.33E-02  35%   1.719 Glc                                                 
 5.76E-03  56%   0.745 GSH                                                 
    0.000 999%   0.000 Lac                                                 
 1.17E-02  36%   1.512 NAAG                                                
    0.000 999%   0.000 PE                                                  
 1.64E-02  11%   2.123 GPC+PCho                                            
 7.61E-02  10%   9.853 NAA+NAAG                                            
 7.11E-02  14%   9.202 Glu+Gln                                             
 6.18E-02  10%   8.000 Cr+PCr                                              
 7.61E-02  10%   9.853 NAA+NAAG                                            
 6.18E-02  10%   8.000 Cr+PCr                                              
 7.11E-02  14%   9.202 Glu+Gln                                             
   6 lines in following misc. output table
  FWHM = 0.017 ppm    S/N =   4                                            
  Data shift = 0.017 ppm                                                   
  Ph: -20 deg       2.8 deg/ppm                                            
  alphaB,S = 1.4E+00,   3.8E-01                                            
   18 spline knots.   Ns = 5(1)                                            
   2 inflections.     1 extrema                                            
  654 points on ppm-axis = NY
      4.000000     3.994181     3.988363     3.982544     3.976726     3.970907     3.965088     3.959270     3.953451     3.947633
      3.941814     3.935995     3.930177     3.924358     3.918540     3.912721     3.906902     3.901084     3.895265     3.889446
      3.883628     3.877809     3.871991     3.866172     3.860353     3.854535     3.848716     3.842898     3.837079     3.831260
      3.825442     3.819623     3.813805     3.807986     3.802167     3.796349     3.790530     3.784712     3.778893     3.773074
      3.767256     3.761437     3.755619     3.749800     3.743981     3.738163     3.732344     3.726526     3.720707     3.714888
      3.709070     3.703251     3.697433     3.691614     3.685795     3.679977     3.674158     3.668339     3.662521     3.656702
      3.650884     3.645065     3.639246     3.633428     3.627609     3.621791     3.615972     3.610153     3.604335     3.598516
      3.592698     3.586879     3.581060     3.575242     3.569423     3.563605     3.557786     3.551967     3.546149     3.540330
      3.534512     3.528693     3.522874     3.517056     3.511237     3.505419     3.499600     3.493781     3.487963     3.482144
      3.476326     3.470507     3.464688     3.458870     3.453051     3.447232     3.441414     3.435595     3.429777     3.423958
      3.418139     3.412321     3.406502     3.400684     3.394865     3.389046     3.383228     3.377409     3.371591     3.365772
      3.359953     3.354135     3.348316     3.342498     3.336679     3.330860     3.325042     3.319223     3.313405     3.307586
      3.301767     3.295949     3.290130     3.284312     3.278493     3.272674     3.266856     3.261037     3.255219     3.249400
      3.243581     3.237763     3.231944     3.226125     3.220307     3.214488     3.208670     3.202851     3.197032     3.191214
      3.185395     3.179577     3.173758     3.167939     3.162121     3.156302     3.150484     3.144665     3.138846     3.133028
      3.127209     3.121391     3.115572     3.109753     3.103935     3.098116     3.092298     3.086479     3.080660     3.074842
      3.069023     3.063205     3.057386     3.051567     3.045749     3.039930     3.034111     3.028293     3.022474     3.016656
      3.010837     3.005018     2.999200     2.993381     2.987563     2.981744     2.975925     2.970107     2.964288     2.958470
      2.952651     2.946832     2.941014     2.935195     2.929377     2.923558     2.917739     2.911921     2.906102     2.900284
      2.894465     2.888646     2.882828     2.877009     2.871191     2.865372     2.859553     2.853735     2.847916     2.842098
      2.836279     2.830460     2.824642     2.818823     2.813004     2.807186     2.801367     2.795549     2.789730     2.783911
      2.778093     2.772274     2.766456     2.760637     2.754818     2.749000     2.743181     2.737363     2.731544     2.725725
      2.719907     2.714088     2.708270     2.702451     2.696632     2.690814     2.684995     2.679177     2.673358     2.667539
      2.661721     2.655902     2.650084     2.644265     2.638446     2.632628     2.626809     2.620991     2.615172     2.609353
      2.603535     2.597716     2.591897     2.586079     2.580260     2.574442     2.568623     2.562804     2.556986     2.551167
      2.545349     2.539530     2.533711     2.527893     2.522074     2.516256     2.510437     2.504618     2.498800     2.492981
      2.487163     2.481344     2.475525     2.469707     2.463888     2.458070     2.452251     2.446432     2.440614     2.434795
      2.428977     2.423158     2.417339     2.411521     2.405702     2.399884     2.394065     2.388246     2.382428     2.376609
      2.370790     2.364972     2.359153     2.353335     2.347516     2.341697     2.335879     2.330060     2.324242     2.318423
      2.312604     2.306786     2.300967     2.295149     2.289330     2.283511     2.277693     2.271874     2.266056     2.260237
      2.254418     2.248600     2.242781     2.236963     2.231144     2.225325     2.219507     2.213688     2.207870     2.202051
      2.196232     2.190414     2.184595     2.178777     2.172958     2.167139     2.161321     2.155502     2.149683     2.143865
      2.138046     2.132228     2.126409     2.120590     2.114772     2.108953     2.103135     2.097316     2.091497     2.085679
      2.079860     2.074042     2.068223     2.062404     2.056586     2.050767     2.044949     2.039130     2.033311     2.027493
      2.021674     2.015856     2.010037     2.004218     1.998400     1.992581     1.986763     1.980944     1.975126     1.969307
      1.963489     1.957670     1.951852     1.946033     1.940215     1.934397     1.928578     1.922760     1.916941     1.911123
      1.905304     1.899486     1.893667     1.887849     1.882030     1.876212     1.870393     1.864575     1.858756     1.852938
      1.847119     1.841301     1.835482     1.829664     1.823845     1.818027     1.812208     1.806390     1.800571     1.794753
      1.788934     1.783116     1.777297     1.771479     1.765660     1.759842     1.754023     1.748205     1.742386     1.736568
      1.730749     1.724931     1.719113     1.713294     1.707476     1.701657     1.695839     1.690020     1.684202     1.678383
      1.672565     1.666746     1.660928     1.655109     1.649291     1.643472     1.637654     1.631835     1.626017     1.620198
      1.614380     1.608561     1.602743     1.596924     1.591106     1.585287     1.579469     1.573650     1.567832     1.562013
      1.556195     1.550376     1.544558     1.538739     1.532921     1.527102     1.521284     1.515465     1.509647     1.503829
      1.498010     1.492192     1.486373     1.480555     1.474736     1.468918     1.463099     1.457281     1.451462     1.445644
      1.439825     1.434007     1.428188     1.422370     1.416551     1.410733     1.404914     1.399096     1.393277     1.387459
      1.381640     1.375822     1.370003     1.364185     1.358366     1.352548     1.346729     1.340911     1.335092     1.329274
      1.323455     1.317637     1.311818     1.306000     1.300182     1.294363     1.288545     1.282726     1.276908     1.271089
      1.265271     1.259452     1.253634     1.247815     1.241997     1.236178     1.230360     1.224541     1.218723     1.212904
      1.207086     1.201267     1.195449     1.189630     1.183812     1.177993     1.172175     1.166356     1.160538     1.154719
      1.148901     1.143082     1.137264     1.131445     1.125627     1.119808     1.113990     1.108171     1.102353     1.096534
      1.090716     1.084898     1.079079     1.073261     1.067442     1.061624     1.055805     1.049987     1.044168     1.038350
      1.032531     1.026713     1.020894     1.015076     1.009257     1.003439     0.997620     0.991802     0.985983     0.980165
      0.974346     0.968528     0.962709     0.956891     0.951072     0.945254     0.939435     0.933617     0.927798     0.921980
      0.916161     0.910343     0.904524     0.898706     0.892887     0.887069     0.881251     0.875432     0.869614     0.863795
      0.857977     0.852158     0.846340     0.840521     0.834703     0.828884     0.823066     0.817247     0.811429     0.805610
      0.799792     0.793973     0.788155     0.782336     0.776518     0.770699     0.764881     0.759062     0.753244     0.747425
      0.741607     0.735788     0.729970     0.724151     0.718333     0.712514     0.706696     0.700877     0.695059     0.689240
      0.683422     0.677603     0.671785     0.665967     0.660148     0.654330     0.648511     0.642693     0.636874     0.631056
      0.625237     0.619419     0.613600     0.607782     0.601963     0.596145     0.590326     0.584508     0.578689     0.572871
      0.567052     0.561234     0.555415     0.549597     0.543778     0.537960     0.532141     0.526323     0.520504     0.514686
      0.508867     0.503049     0.497230     0.491412     0.485593     0.479775     0.473956     0.468138     0.462319     0.456501
      0.450682     0.444864     0.439045     0.433227     0.427408     0.421590     0.415771     0.409953     0.404134     0.398316
      0.392497     0.386679     0.380860     0.375042     0.369223     0.363405     0.357586     0.351767     0.345949     0.340130
      0.334312     0.328493     0.322675     0.316856     0.311038     0.305219     0.299401     0.293582     0.287764     0.281945
      0.276127     0.270308     0.264490     0.258671     0.252853     0.247034     0.241216     0.235397     0.229579     0.223760
      0.217942     0.212123     0.206305     0.200486
 NY phased data points follow
  -6.31317E-03 -1.86529E-01 -2.11778E-01 -7.20909E-03 -1.27550E-01 -1.62122E-02 -2.65010E-01 -3.76077E-01 -1.60984E-01 -1.30899E-01
  -1.13638E-01  1.05296E-01  4.28205E-01  5.45697E-02  8.97360E-02 -1.34995E-02  6.56783E-01  5.40555E-01  1.92508E-01  3.82587E-01
  -2.40531E-01  2.19575E-01  6.57078E-02 -1.22864E-01 -4.33321E-03 -2.17029E-02 -1.05594E-01  1.02370E-01  1.13104E-01 -2.51676E-01
  -1.86067E-01  1.16378E-01  1.14101E-01 -1.78366E-01  2.32909E-02 -9.33840E-02 -8.66129E-02 -5.16620E-01 -3.69883E-01 -1.93447E-01
  -2.12364E-01 -7.50171E-02 -1.11001E-01  4.19650E-01  2.38347E-01  2.25230E-01  7.86556E-02  1.68109E-01  2.73359E-01  1.18342E-01
   1.82321E-01  5.71896E-02  1.11513E-01  3.49711E-01  4.38597E-02  2.94488E-02  1.20011E-01 -3.07212E-01 -1.25422E-01 -2.02617E-01
  -1.95110E-01 -2.66382E-01 -3.32633E-01 -5.23327E-01 -2.88728E-01 -2.59004E-02 -1.56346E-01  2.76153E-01  1.24120E-01  2.93945E-01
   2.94412E-01  3.97423E-02  2.38595E-01  1.49470E-01  1.77823E-01  2.83938E-01 -1.21928E-01 -2.30748E-01 -4.10951E-01 -2.91408E-01
  -3.24275E-01 -4.78982E-01 -5.68618E-02  2.40403E-01  4.75300E-01  1.64429E-01  5.89728E-01  2.56140E-01 -1.36584E-01  1.04623E-01
  -3.96346E-03 -4.13570E-02 -2.72869E-01 -2.69799E-02  1.50855E-02  4.89639E-02  1.60068E-01  2.79227E-01 -2.13397E-01 -2.88335E-01
  -1.32577E-01 -1.19867E-01  3.01761E-02  4.45585E-02  3.06022E-01  2.27095E-01  3.90679E-01  4.92987E-01  4.25439E-01  3.83650E-01
   5.39027E-01  5.35247E-01  6.82310E-01  5.13961E-01  2.18343E-01  5.23201E-01  3.51417E-01  3.55068E-01  4.76194E-01  2.57918E-01
   1.08823E-01  2.87915E-01  1.27436E-01 -3.89072E-02 -2.63630E-01 -2.59718E-01 -8.63863E-03 -1.75846E-01 -1.48309E-01 -4.10451E-01
  -6.33328E-01 -6.12378E-01 -5.09859E-01 -3.74483E-01 -6.14300E-01 -6.75559E-01 -7.49047E-01 -1.13797E+00 -1.09810E+00 -5.63834E-01
  -3.48226E-01 -3.28618E-01 -1.98114E-01 -2.35158E-01 -1.32051E-01 -2.41881E-02 -6.16840E-02 -2.30578E-01  3.31985E-01  4.88908E-01
   2.67598E-01  4.67651E-01 -8.05402E-02  1.94032E-01  1.35405E-02  1.21217E-01  4.17483E-01  2.97933E-02  2.32784E-01  3.42924E-01
   3.50344E-01  4.72822E-02  3.71230E-01  6.20464E-01  7.13813E-01  8.32613E-01  1.14905E+00  6.67426E-01 -4.48562E-01 -4.61696E-01
  -5.15340E-01 -6.75409E-01 -6.36899E-01 -4.08046E-01 -3.63594E-01 -5.55859E-01 -5.93969E-01 -1.66199E-01 -3.75135E-01 -4.92093E-01
  -3.51528E-01 -4.75527E-01 -2.40278E-01 -2.86776E-01 -3.46716E-01 -3.34417E-01 -2.35807E-01 -2.20691E-01 -4.33537E-01 -5.20335E-01
  -1.59390E-01 -1.73112E-01 -1.51382E-01  1.39742E-01  1.92176E-01 -1.71954E-01 -1.44689E-01  3.36429E-02 -3.93169E-01 -1.83017E-01
  -1.90441E-01 -1.70475E-01 -2.36066E-01 -1.58799E-01 -1.85901E-01 -4.13194E-01 -1.33633E-01 -2.29511E-02 -2.70917E-02  6.05133E-02
   1.00927E-01 -1.02896E-01 -9.86708E-02 -7.27713E-02  1.66402E-01 -1.87262E-01 -1.68327E-01  3.32056E-02 -7.43952E-02  1.64134E-01
  -2.40731E-01  3.73005E-02  1.95274E-01 -2.27066E-01  6.25906E-02  2.11504E-01  2.42128E-02  1.55515E-01  9.04704E-02  1.25218E-01
   2.42539E-01  4.44068E-01  3.94419E-01 -4.10325E-02 -7.76149E-02 -4.26773E-02  9.32111E-04  5.62869E-02 -9.26719E-02 -3.15634E-01
   2.75106E-01  1.59227E-01 -3.75598E-01 -2.45349E-01 -2.81740E-02  3.07644E-01  5.01304E-02  6.14733E-02  2.11592E-02 -1.85409E-01
   1.62142E-01  2.02124E-01  1.39692E-02  1.38727E-01  1.73416E-01  6.11967E-02 -4.51750E-02  1.33521E-01  6.70273E-02 -1.66529E-01
   1.22544E-01 -5.58949E-02 -8.60080E-03  3.34910E-01 -1.04978E-03  2.76106E-01  4.89657E-01  3.43140E-01  5.32573E-01  2.66584E-01
   2.81970E-01  2.27730E-01  2.43248E-01  1.16527E-01 -2.58772E-01  1.15026E-01  1.88645E-01  9.85790E-03 -3.80348E-02 -1.21521E-01
  -1.14390E-01 -3.59017E-01 -6.38951E-01 -2.88672E-01 -1.77032E-01  2.52115E-01  4.63876E-01  5.14313E-01  6.35092E-01  1.59723E-01
   1.90560E-01  1.49784E-01  4.43462E-01  2.61704E-01  9.53916E-02  3.49936E-02 -1.97418E-01  1.89614E-01 -8.05339E-02  6.30057E-02
   2.57511E-01  1.42798E-02  3.11760E-01  2.50669E-01  2.31580E-01  1.91520E-01 -6.61511E-03  5.39323E-01  2.77747E-01  3.71982E-01
   5.29244E-01  1.19037E-01  2.60061E-01 -4.36290E-02  8.68413E-02  1.48153E-01  1.60737E-01  2.16742E-01 -1.61799E-01  1.84870E-02
   8.36023E-03 -2.98049E-01 -8.62530E-02 -2.12072E-01 -2.62112E-01 -1.47491E-01  8.57677E-02  4.21250E-01  1.69089E-01  4.53835E-02
  -4.85797E-02  1.67283E-01  8.46028E-02 -1.80748E-01 -2.47966E-01 -3.55274E-01 -3.65116E-01 -4.02865E-01 -1.57800E-01 -8.14689E-02
  -3.55182E-01 -5.19137E-01 -8.39022E-01 -1.54384E+00 -1.19456E+00 -5.07008E-01 -5.81570E-01 -4.11490E-01 -2.75408E-02 -3.87398E-03
  -5.03519E-02 -8.09802E-02  6.43841E-02  1.42128E-01  2.37605E-02 -4.98144E-02 -1.24161E-01  1.71272E-01  2.80477E-01  2.17893E-01
   1.30504E-02  1.01150E-01 -4.51021E-02 -1.27283E-02  8.59263E-02 -1.95624E-02  2.66550E-01  3.39499E-04 -8.68324E-02 -1.10511E-01
   2.14174E-01  7.47580E-02 -6.91248E-03  5.97414E-02  1.57875E-03  2.11585E-01 -5.71848E-02  2.22957E-01  5.26884E-02 -2.88197E-02
   1.77649E-01  1.57351E-01  2.37842E-01  4.67747E-01  3.32271E-01 -5.38124E-02  1.90117E-01  1.62302E-01  7.62567E-02  1.12761E-01
   1.48504E-01  3.93219E-02 -6.01306E-02  1.97306E-01 -3.94767E-02 -2.91247E-01  1.77697E-01  1.14485E-01 -2.42008E-01 -3.51015E-01
  -2.54392E-01  2.11051E-01  1.81099E-01 -1.89768E-01 -1.26013E-01  1.84872E-02 -7.49274E-02 -4.38945E-02 -2.60867E-02  2.27105E-01
   4.09727E-03 -2.88442E-01 -1.70183E-01 -3.55686E-01 -3.05608E-01 -1.04534E-01  7.25407E-02 -1.76810E-01 -3.93597E-01 -2.71288E-01
  -2.35136E-01 -2.30515E-01  9.50113E-02  1.07738E-01 -2.72632E-01 -2.32339E-02 -1.74031E-01 -1.46869E-01  2.21157E-01 -4.66478E-04
  -3.82887E-02  8.41417E-02  1.11386E-01  9.04717E-02  3.19046E-01  1.58764E-01  7.25026E-02  2.84772E-01  5.41656E-02  2.00556E-01
   5.08494E-02 -1.67184E-02  9.22940E-02  1.39268E-01  1.71894E-01  1.14412E-02  2.45360E-01  3.94888E-01  4.99684E-01  1.38797E-01
   2.92872E-01  3.20300E-01  2.41264E-02  3.10284E-01 -8.60414E-02  1.41312E-01  9.01413E-02 -2.04612E-01  2.75995E-01  2.56579E-01
   3.31912E-01  2.68649E-01  1.75302E-01  2.28300E-01 -2.10038E-02 -3.31444E-01 -4.27049E-01 -1.12225E-01 -1.14563E-01 -3.18322E-01
  -3.52035E-01 -2.36743E-01 -1.53616E-01 -7.22281E-02 -6.03575E-02 -2.70048E-01 -1.81386E-01 -1.12966E-01 -3.19036E-01 -1.49661E-01
   1.68609E-01  5.71118E-02  6.89535E-02 -6.59035E-02 -1.17607E-01 -2.09062E-01  8.56496E-02 -3.08129E-02 -4.57823E-01  1.68558E-01
  -1.35899E-01 -2.80748E-03  1.93720E-01  1.24566E-01  1.98106E-01 -1.39298E-02  4.20169E-02  3.43131E-01  2.72915E-01 -1.34445E-01
   3.22178E-01 -2.72403E-01  1.14400E-01  5.37679E-01  3.36055E-02  2.38865E-01  1.18975E-01  3.39766E-01  1.32696E-01 -1.85147E-04
   3.26429E-02  1.86539E-01  1.93527E-01  3.01706E-01  2.36661E-01 -1.74686E-01 -1.73544E-01 -1.46188E-02  5.35654E-03 -2.25515E-01
  -1.38384E-01 -1.65582E-01 -3.06060E-02 -2.51719E-01 -3.09111E-01 -3.27358E-01 -4.42811E-01 -1.66326E-01 -2.97312E-01 -3.61705E-01
  -3.97252E-01 -2.90547E-01 -2.88281E-01 -3.70686E-01 -1.35384E-01  1.85746E-02 -8.94655E-02  1.40924E-01  1.25760E-01  5.32403E-02
  -1.98878E-01 -3.13219E-01  1.17623E-01 -2.85189E-01 -5.33420E-02  1.56356E-01 -6.56925E-02  1.52512E-01  1.19620E-01  4.56641E-02
   2.73335E-01  2.53385E-01 -1.86302E-02  2.76014E-01  3.16076E-01  1.34570E-01 -4.13694E-02 -1.00166E-01  1.00554E-02  2.25168E-01
   1.27453E-01  2.79987E-02  1.09497E-02 -1.41298E-01  4.29711E-01  6.53566E-02 -4.18397E-02  1.95237E-01 -1.79676E-02  1.37225E-01
  -1.29043E-01 -5.05846E-03  7.58279E-02  6.03541E-02 -6.86981E-02  1.74697E-01  1.58751E-01 -2.30929E-01  1.40647E-01  1.99207E-01
   1.72404E-01 -2.80176E-02  5.07988E-02  2.34364E-01  1.70386E-01  2.60052E-02 -3.06613E-02  1.75822E-02 -1.04086E-01  2.87059E-02
   1.53578E-01 -1.87526E-03 -7.37304E-02  1.21276E-01 -1.85201E-01  4.76703E-02  1.69963E-01  4.00061E-02  8.34078E-02 -1.89627E-01
  -5.58785E-02 -3.44152E-02  3.13850E-01  1.97478E-01  2.24322E-02  1.06935E-01  1.60773E-02  1.45590E-01  1.43654E-01  2.52074E-02
  -6.00328E-02  6.22725E-02  2.85901E-03  1.32466E-01  1.66815E-03  1.39325E-02  7.37500E-02  6.18584E-02  3.25618E-01 -3.86889E-02
  -1.55204E-01  9.23882E-03  9.51996E-03 -2.36889E-02 -3.31352E-02 -2.94599E-02  7.41976E-02  7.47596E-02 -1.66670E-03  2.16127E-01
  -1.84049E-02 -1.87144E-01  1.23811E-02  6.73607E-02  2.85304E-01  2.99147E-01 -5.58650E-02 -1.45834E-01  1.25002E-01 -1.48235E-02
  -1.57405E-01  7.37440E-02  1.00460E-01  1.23013E-01  8.51744E-02  3.07098E-02  2.89971E-02  2.07944E-02  1.73543E-02  6.78092E-02
  -1.42069E-01 -2.06884E-01  1.37749E-01  1.57382E-01
 NY points of the fit to the data follow
   8.89171E-02  7.14168E-02  4.77160E-02  1.83945E-02 -1.18215E-03 -5.67938E-03 -6.84376E-03 -1.70760E-02 -1.86080E-02  3.93611E-03
   3.30075E-02  1.27287E-01  2.93233E-01  2.93909E-01  2.62037E-01  4.88160E-01  6.54982E-01  4.63213E-01  2.98109E-01  2.60078E-01
   1.45354E-01  6.89940E-02  5.39011E-02  1.82649E-02 -1.22369E-02 -3.38414E-02 -6.02606E-02 -7.82442E-02 -8.37407E-02 -9.67726E-02
  -1.04491E-01 -1.02472E-01 -1.16426E-01 -1.42922E-01 -1.71514E-01 -2.05195E-01 -2.41843E-01 -2.66175E-01 -2.72070E-01 -2.46908E-01
  -1.39764E-01 -5.83713E-03  6.99007E-02  1.49417E-01  1.99442E-01  2.09653E-01  2.15333E-01  2.06333E-01  1.80382E-01  1.71270E-01
   1.49870E-01  9.61871E-02  7.20622E-02  4.94760E-02 -4.94118E-03 -5.74496E-02 -1.06259E-01 -1.44775E-01 -1.70022E-01 -1.95850E-01
  -2.74671E-01 -3.46514E-01 -3.01598E-01 -3.06614E-01 -3.03328E-01 -2.21347E-02  1.25122E-01  1.08057E-01  3.46839E-01  4.49990E-01
   3.40595E-01  3.21555E-01  2.77459E-01  1.91870E-01  1.32800E-01  4.75041E-02 -6.59885E-02 -1.94820E-01 -4.00762E-01 -5.39233E-01
  -3.62779E-01 -1.74611E-01 -1.26621E-01  1.07708E-01  3.37860E-01  3.54427E-01  3.51014E-01  3.47925E-01  3.06723E-01  2.60922E-01
   2.25626E-01  2.11764E-01  1.90909E-01  1.62794E-01  1.39098E-01  8.69764E-02 -1.19132E-02 -1.47497E-01 -2.91921E-01 -3.93203E-01
  -3.68600E-01 -2.40193E-01 -6.85981E-02  9.82724E-02  1.90677E-01  2.31254E-01  2.63256E-01  2.71457E-01  2.67439E-01  2.74330E-01
   2.80546E-01  2.80812E-01  2.81381E-01  2.81091E-01  2.81385E-01  2.83043E-01  2.87085E-01  2.93463E-01  2.90583E-01  2.86867E-01
   2.64917E-01  1.82077E-01  1.12586E-01  9.22030E-02 -8.41599E-03 -2.74349E-02  2.19029E-02 -1.29363E-01 -2.91800E-01 -3.70035E-01
  -5.23821E-01 -4.94873E-01 -3.60354E-01 -2.74029E-01 -3.38704E-01 -6.38159E-01 -8.26879E-01 -1.02560E+00 -9.39192E-01 -5.88468E-01
  -4.51214E-01 -3.01911E-01 -1.46471E-01 -1.00672E-01 -6.09918E-02 -2.59411E-02  3.28888E-03  2.78095E-02  5.01739E-02  6.90478E-02
   8.59637E-02  1.03203E-01  1.18922E-01  1.34581E-01  1.51856E-01  1.70169E-01  1.90123E-01  2.11957E-01  2.34723E-01  2.58610E-01
   2.88257E-01  3.26649E-01  3.86020E-01  5.15788E-01  6.55946E-01  7.83266E-01  9.21351E-01  6.17372E-01 -2.72261E-01 -7.14125E-01
  -6.39253E-01 -6.79976E-01 -6.40313E-01 -4.84832E-01 -4.12758E-01 -3.84728E-01 -3.47129E-01 -3.09441E-01 -2.91805E-01 -2.78843E-01
  -2.59417E-01 -2.37199E-01 -2.20540E-01 -2.10569E-01 -1.98114E-01 -1.91481E-01 -1.86944E-01 -1.76204E-01 -1.66784E-01 -1.61743E-01
  -1.55225E-01 -1.45496E-01 -1.37556E-01 -1.29767E-01 -1.20446E-01 -1.13084E-01 -1.06409E-01 -9.88045E-02 -9.19056E-02 -8.61706E-02
  -8.00763E-02 -7.28225E-02 -6.59314E-02 -6.35173E-02 -6.40016E-02 -6.29024E-02 -5.89871E-02 -5.30453E-02 -5.16296E-02 -5.54127E-02
  -5.71247E-02 -5.56101E-02 -5.33503E-02 -5.01266E-02 -4.34432E-02 -3.41930E-02 -2.24868E-02 -7.47785E-03 -4.58230E-03 -1.61069E-02
  -1.78136E-02 -4.52769E-03  6.14572E-03  1.53609E-02  4.90578E-02  1.16924E-01  1.57184E-01  1.39996E-01  1.11948E-01  1.53957E-01
   2.73335E-01  2.96075E-01  1.86295E-01  1.12282E-01  6.81973E-02  6.34017E-03 -2.48309E-02 -3.32138E-02 -4.23696E-02 -5.06761E-02
  -5.97413E-02 -6.74581E-02 -7.27948E-02 -7.69090E-02 -8.08990E-02 -8.51323E-02 -9.07795E-02 -9.47899E-02 -9.72121E-02 -1.00934E-01
  -9.73779E-02 -9.10014E-02 -1.04760E-01 -1.19051E-01 -1.15819E-01 -1.28856E-01 -1.01121E-01 -1.37554E-02 -1.30383E-02 -1.42282E-02
   7.70020E-02  9.95014E-02  8.63047E-02  8.15133E-02  8.34587E-02  1.08998E-01  9.37136E-02  8.85889E-02  9.93086E-02  1.01006E-01
   9.48092E-02  7.61592E-02  5.56767E-02  2.63800E-02 -2.26897E-03 -3.04142E-02 -5.95626E-02 -9.28484E-02 -1.37859E-01 -1.92616E-01
  -2.72895E-01 -3.39118E-01 -3.43293E-01 -2.96620E-01 -1.45604E-01  4.74598E-02  1.72817E-01  2.88651E-01  3.30058E-01  2.85783E-01
   2.58336E-01  2.16749E-01  1.68645E-01  1.46427E-01  1.27842E-01  1.26596E-01  1.45253E-01  1.55327E-01  1.69279E-01  1.80564E-01
   1.76273E-01  1.73492E-01  1.68348E-01  1.61222E-01  1.57476E-01  1.49686E-01  1.39433E-01  1.27798E-01  1.03149E-01  7.37380E-02
   5.45373E-02  2.67414E-02  9.85252E-03  2.09511E-02  1.49805E-02  1.26874E-02  2.35458E-03 -4.70990E-02 -8.87464E-02 -1.25747E-01
  -1.64738E-01 -1.95873E-01 -2.00612E-01 -1.95455E-01 -1.68170E-01 -1.15210E-01 -5.66057E-02  5.32498E-03  5.16714E-02  6.14838E-02
   4.17610E-02  1.56381E-02 -3.17105E-02 -7.74069E-02 -1.20613E-01 -1.88248E-01 -2.94299E-01 -3.27771E-01 -1.76071E-01 -1.21590E-01
  -1.85908E-01 -3.59773E-01 -1.01367E+00 -1.57464E+00 -1.17215E+00 -7.07189E-01 -6.03007E-01 -3.23774E-01 -1.20127E-01 -9.79527E-02
  -6.81985E-02 -4.32323E-02 -2.36062E-02 -8.92794E-03  3.40794E-03  1.45127E-02  2.52228E-02  3.30111E-02  3.71611E-02  3.69654E-02
   2.65598E-02  8.67718E-03 -8.70541E-03 -3.42652E-02 -4.90565E-02 -5.39662E-02 -5.62296E-02 -4.60417E-02 -3.42896E-02 -2.23789E-02
  -9.75398E-03  1.25021E-03  1.30572E-02  2.19679E-02  2.74392E-02  3.28550E-02  3.83443E-02  4.29492E-02  4.79930E-02  5.19814E-02
   5.46360E-02  5.77751E-02  6.15928E-02  6.53335E-02  6.85237E-02  7.10516E-02  7.25681E-02  7.36544E-02  7.64179E-02  8.02722E-02
   8.35630E-02  8.73758E-02  9.01578E-02  9.05452E-02  8.98149E-02  8.88138E-02  8.74101E-02  8.56870E-02  8.38667E-02  8.11041E-02
   7.69214E-02  7.26604E-02  6.81139E-02  6.19922E-02  5.55726E-02  5.08160E-02  4.64661E-02  4.09833E-02  3.57326E-02  3.16035E-02
   2.72304E-02  2.31092E-02  2.09161E-02  1.81902E-02  1.48451E-02  1.26292E-02  9.86796E-03  6.92222E-03  5.10199E-03  3.56083E-03
   2.35933E-03  1.02933E-03  2.59354E-04  1.54058E-03  2.85536E-03  4.27672E-03  7.81045E-03  1.18507E-02  1.62704E-02  2.08463E-02
   2.95918E-02  4.14851E-02  5.95711E-02  1.10013E-01  1.74083E-01  1.90124E-01  1.92492E-01  1.75483E-01  1.18883E-01  8.84544E-02
   8.17052E-02  7.47682E-02  7.99657E-02  9.06150E-02  1.00567E-01  1.10435E-01  1.20655E-01  1.30378E-01  1.37804E-01  1.43287E-01
   1.46468E-01  1.48440E-01  1.49636E-01  1.49656E-01  1.49396E-01  1.47534E-01  1.43166E-01  1.36781E-01  1.28014E-01  1.19378E-01
   1.11712E-01  1.03688E-01  9.55019E-02  8.75113E-02  7.90617E-02  7.19094E-02  6.60116E-02  5.94712E-02  5.35524E-02  4.88848E-02
   4.45908E-02  4.03261E-02  3.65995E-02  3.35334E-02  3.17555E-02  3.26659E-02  3.41749E-02  3.49563E-02  3.75634E-02  4.11683E-02
   4.42990E-02  4.92462E-02  5.48228E-02  5.88976E-02  6.23275E-02  6.52881E-02  6.72795E-02  6.85245E-02  7.07292E-02  7.38898E-02
   7.61512E-02  7.69738E-02  7.69658E-02  7.63616E-02  7.51068E-02  7.32577E-02  7.00343E-02  6.71878E-02  6.52267E-02  6.27194E-02
   6.00163E-02  5.73667E-02  5.49073E-02  5.19094E-02  4.85502E-02  4.56239E-02  4.19348E-02  3.86355E-02  3.73961E-02  3.55859E-02
   3.25956E-02  3.02432E-02  2.78633E-02  2.38769E-02  1.80662E-02  1.21764E-02  6.81110E-03  7.12644E-04 -6.22515E-03 -1.53464E-02
  -2.77964E-02 -4.16587E-02 -5.55221E-02 -6.90446E-02 -8.30820E-02 -9.71530E-02 -1.09883E-01 -1.21242E-01 -1.32054E-01 -1.42415E-01
  -1.49841E-01 -1.52883E-01 -1.54305E-01 -1.55869E-01 -1.54743E-01 -1.49802E-01 -1.44328E-01 -1.39557E-01 -1.33753E-01 -1.28312E-01
  -1.24050E-01 -1.18411E-01 -1.10925E-01 -1.04078E-01 -9.68625E-02 -8.76025E-02 -7.82468E-02 -7.00015E-02 -6.15256E-02 -5.23114E-02
  -4.47424E-02 -3.75237E-02 -2.83559E-02 -2.08443E-02 -1.56853E-02 -9.85350E-03 -3.41234E-03  3.29237E-03  7.84985E-03  1.01062E-02
   1.47254E-02  1.94914E-02  2.13463E-02  2.40968E-02  2.67342E-02  2.76453E-02  2.99972E-02  3.20087E-02  3.15276E-02  3.14643E-02
   3.36464E-02  3.57625E-02  3.68627E-02  3.95707E-02  4.23908E-02  4.29279E-02  4.30576E-02  4.40275E-02  4.43330E-02  4.36665E-02
   4.40052E-02  4.44266E-02  4.36217E-02  4.33788E-02  4.35138E-02  4.37394E-02  4.46361E-02  4.54057E-02  4.65851E-02  4.66756E-02
   4.32970E-02  4.09776E-02  4.26164E-02  4.33992E-02  4.22664E-02  4.21245E-02  4.27307E-02  4.25431E-02  4.06066E-02  3.93710E-02
   4.04518E-02  4.22817E-02  4.28959E-02  4.29685E-02  4.40331E-02  4.49981E-02  4.59565E-02  4.72574E-02  4.79634E-02  4.88841E-02
   5.03148E-02  5.01499E-02  4.83570E-02  4.75419E-02  4.82098E-02  4.85642E-02  4.92493E-02  5.08242E-02  5.18631E-02  5.20880E-02
   5.19454E-02  5.38585E-02  5.70747E-02  5.87047E-02  6.00374E-02  5.98734E-02  5.78947E-02  5.77131E-02  5.85380E-02  5.96054E-02
   6.07774E-02  6.03519E-02  5.98582E-02  6.04130E-02  6.05406E-02  6.12017E-02  6.18888E-02  6.10899E-02  6.19340E-02  6.45611E-02
   6.53672E-02  6.52062E-02  6.64397E-02  6.75055E-02  6.81277E-02  6.94164E-02  7.06186E-02  7.36838E-02  7.78426E-02  8.05171E-02
   8.26519E-02  8.46324E-02  8.67120E-02  8.83740E-02
 NY background values follow
     2.726E-02    2.729E-02    2.732E-02    2.735E-02    2.739E-02    2.742E-02    2.745E-02    2.748E-02    2.752E-02    2.755E-02
     2.758E-02    2.761E-02    2.764E-02    2.768E-02    2.771E-02    2.774E-02    2.777E-02    2.781E-02    2.784E-02    2.787E-02
     2.790E-02    2.793E-02    2.797E-02    2.800E-02    2.803E-02    2.806E-02    2.809E-02    2.812E-02    2.816E-02    2.819E-02
     2.822E-02    2.825E-02    2.828E-02    2.831E-02    2.834E-02    2.837E-02    2.840E-02    2.844E-02    2.847E-02    2.850E-02
     2.853E-02    2.856E-02    2.859E-02    2.862E-02    2.865E-02    2.868E-02    2.871E-02    2.874E-02    2.877E-02    2.880E-02
     2.883E-02    2.886E-02    2.888E-02    2.891E-02    2.894E-02    2.897E-02    2.900E-02    2.903E-02    2.906E-02    2.908E-02
     2.911E-02    2.914E-02    2.917E-02    2.920E-02    2.922E-02    2.925E-02    2.928E-02    2.930E-02    2.933E-02    2.936E-02
