 LCModel (Version 6.3-1N) Copyright: S.W. Provencher.          Ref.: Magn. Reson. Med. 30:672-679 (1993).                
 Slice_N1@26_19  02-Jun-2023 14:38:00
 27 lines in following concentration table = NCONC+1
    Conc.  %SD /Cr+PCr  Metabolite                                         
 1.58E-06  26% 3.2E-04 Mac                                                 
 3.93E-02  24%   8.000 Cr                                                  
    0.000 999%   0.000 PCr                                                 
 8.33E-02  17%  16.944 Ins                                                 
 5.93E-02  19%  12.069 NAA                                                 
 4.52E-02  29%   9.201 Tau                                                 
 1.01E-02  35%   2.052 PCho                                                
    0.000 999%   0.000 GPC                                                 
 2.92E-02  48%   5.932 Glu                                                 
 5.32E-03 169%   1.081 Gln                                                 
 1.09E-03 999%   0.222 Ala                                                 
 3.09E-02  66%   6.289 Asc                                                 
 4.48E-03 105%   0.912 Asp                                                 
 5.02E-03  55%   1.021 GABA                                                
 3.05E-03  94%   0.621 Glc                                                 
 2.22E-03 179%   0.451 GSH                                                 
    0.000 999%   0.000 Lac                                                 
 1.07E-04 999% 2.2E-02 NAAG                                                
    0.000 999%   0.000 PE                                                  
 1.01E-02  35%   2.052 GPC+PCho                                            
 5.94E-02  18%  12.091 NAA+NAAG                                            
 3.45E-02  48%   7.013 Glu+Gln                                             
 3.93E-02  24%   8.000 Cr+PCr                                              
 5.94E-02  18%  12.091 NAA+NAAG                                            
 3.93E-02  24%   8.000 Cr+PCr                                              
 3.45E-02  48%   7.013 Glu+Gln                                             
   6 lines in following misc. output table
  FWHM = 0.070 ppm    S/N =   1                                            
  Data shift = 0.035 ppm                                                   
  Ph:  55 deg     -17.3 deg/ppm                                            
  alphaB,S = 3.1E+01,   2.0E+02                                            
   18 spline knots.   Ns =10(1)                                            
   2 inflections.     1 extrema                                            
  654 points on ppm-axis = NY
      4.000000     3.994181     3.988363     3.982544     3.976726     3.970907     3.965088     3.959270     3.953451     3.947633
      3.941814     3.935995     3.930177     3.924358     3.918540     3.912721     3.906902     3.901084     3.895265     3.889446
      3.883628     3.877809     3.871991     3.866172     3.860353     3.854535     3.848716     3.842898     3.837079     3.831260
      3.825442     3.819623     3.813805     3.807986     3.802167     3.796349     3.790530     3.784712     3.778893     3.773074
      3.767256     3.761437     3.755619     3.749800     3.743981     3.738163     3.732344     3.726526     3.720707     3.714888
      3.709070     3.703251     3.697433     3.691614     3.685795     3.679977     3.674158     3.668339     3.662521     3.656702
      3.650884     3.645065     3.639246     3.633428     3.627609     3.621791     3.615972     3.610153     3.604335     3.598516
      3.592698     3.586879     3.581060     3.575242     3.569423     3.563605     3.557786     3.551967     3.546149     3.540330
      3.534512     3.528693     3.522874     3.517056     3.511237     3.505419     3.499600     3.493781     3.487963     3.482144
      3.476326     3.470507     3.464688     3.458870     3.453051     3.447232     3.441414     3.435595     3.429777     3.423958
      3.418139     3.412321     3.406502     3.400684     3.394865     3.389046     3.383228     3.377409     3.371591     3.365772
      3.359953     3.354135     3.348316     3.342498     3.336679     3.330860     3.325042     3.319223     3.313405     3.307586
      3.301767     3.295949     3.290130     3.284312     3.278493     3.272674     3.266856     3.261037     3.255219     3.249400
      3.243581     3.237763     3.231944     3.226125     3.220307     3.214488     3.208670     3.202851     3.197032     3.191214
      3.185395     3.179577     3.173758     3.167939     3.162121     3.156302     3.150484     3.144665     3.138846     3.133028
      3.127209     3.121391     3.115572     3.109753     3.103935     3.098116     3.092298     3.086479     3.080660     3.074842
      3.069023     3.063205     3.057386     3.051567     3.045749     3.039930     3.034111     3.028293     3.022474     3.016656
      3.010837     3.005018     2.999200     2.993381     2.987563     2.981744     2.975925     2.970107     2.964288     2.958470
      2.952651     2.946832     2.941014     2.935195     2.929377     2.923558     2.917739     2.911921     2.906102     2.900284
      2.894465     2.888646     2.882828     2.877009     2.871191     2.865372     2.859553     2.853735     2.847916     2.842098
      2.836279     2.830460     2.824642     2.818823     2.813004     2.807186     2.801367     2.795549     2.789730     2.783911
      2.778093     2.772274     2.766456     2.760637     2.754818     2.749000     2.743181     2.737363     2.731544     2.725725
      2.719907     2.714088     2.708270     2.702451     2.696632     2.690814     2.684995     2.679177     2.673358     2.667539
      2.661721     2.655902     2.650084     2.644265     2.638446     2.632628     2.626809     2.620991     2.615172     2.609353
      2.603535     2.597716     2.591897     2.586079     2.580260     2.574442     2.568623     2.562804     2.556986     2.551167
      2.545349     2.539530     2.533711     2.527893     2.522074     2.516256     2.510437     2.504618     2.498800     2.492981
      2.487163     2.481344     2.475525     2.469707     2.463888     2.458070     2.452251     2.446432     2.440614     2.434795
      2.428977     2.423158     2.417339     2.411521     2.405702     2.399884     2.394065     2.388246     2.382428     2.376609
      2.370790     2.364972     2.359153     2.353335     2.347516     2.341697     2.335879     2.330060     2.324242     2.318423
      2.312604     2.306786     2.300967     2.295149     2.289330     2.283511     2.277693     2.271874     2.266056     2.260237
      2.254418     2.248600     2.242781     2.236963     2.231144     2.225325     2.219507     2.213688     2.207870     2.202051
      2.196232     2.190414     2.184595     2.178777     2.172958     2.167139     2.161321     2.155502     2.149683     2.143865
      2.138046     2.132228     2.126409     2.120590     2.114772     2.108953     2.103135     2.097316     2.091497     2.085679
      2.079860     2.074042     2.068223     2.062404     2.056586     2.050767     2.044949     2.039130     2.033311     2.027493
      2.021674     2.015856     2.010037     2.004218     1.998400     1.992581     1.986763     1.980944     1.975126     1.969307
      1.963489     1.957670     1.951852     1.946033     1.940215     1.934397     1.928578     1.922760     1.916941     1.911123
      1.905304     1.899486     1.893667     1.887849     1.882030     1.876212     1.870393     1.864575     1.858756     1.852938
      1.847119     1.841301     1.835482     1.829664     1.823845     1.818027     1.812208     1.806390     1.800571     1.794753
      1.788934     1.783116     1.777297     1.771479     1.765660     1.759842     1.754023     1.748205     1.742386     1.736568
      1.730749     1.724931     1.719113     1.713294     1.707476     1.701657     1.695839     1.690020     1.684202     1.678383
      1.672565     1.666746     1.660928     1.655109     1.649291     1.643472     1.637654     1.631835     1.626017     1.620198
      1.614380     1.608561     1.602743     1.596924     1.591106     1.585287     1.579469     1.573650     1.567832     1.562013
      1.556195     1.550376     1.544558     1.538739     1.532921     1.527102     1.521284     1.515465     1.509647     1.503829
      1.498010     1.492192     1.486373     1.480555     1.474736     1.468918     1.463099     1.457281     1.451462     1.445644
      1.439825     1.434007     1.428188     1.422370     1.416551     1.410733     1.404914     1.399096     1.393277     1.387459
      1.381640     1.375822     1.370003     1.364185     1.358366     1.352548     1.346729     1.340911     1.335092     1.329274
      1.323455     1.317637     1.311818     1.306000     1.300182     1.294363     1.288545     1.282726     1.276908     1.271089
      1.265271     1.259452     1.253634     1.247815     1.241997     1.236178     1.230360     1.224541     1.218723     1.212904
      1.207086     1.201267     1.195449     1.189630     1.183812     1.177993     1.172175     1.166356     1.160538     1.154719
      1.148901     1.143082     1.137264     1.131445     1.125627     1.119808     1.113990     1.108171     1.102353     1.096534
      1.090716     1.084898     1.079079     1.073261     1.067442     1.061624     1.055805     1.049987     1.044168     1.038350
      1.032531     1.026713     1.020894     1.015076     1.009257     1.003439     0.997620     0.991802     0.985983     0.980165
      0.974346     0.968528     0.962709     0.956891     0.951072     0.945254     0.939435     0.933617     0.927798     0.921980
      0.916161     0.910343     0.904524     0.898706     0.892887     0.887069     0.881251     0.875432     0.869614     0.863795
      0.857977     0.852158     0.846340     0.840521     0.834703     0.828884     0.823066     0.817247     0.811429     0.805610
      0.799792     0.793973     0.788155     0.782336     0.776518     0.770699     0.764881     0.759062     0.753244     0.747425
      0.741607     0.735788     0.729970     0.724151     0.718333     0.712514     0.706696     0.700877     0.695059     0.689240
      0.683422     0.677603     0.671785     0.665967     0.660148     0.654330     0.648511     0.642693     0.636874     0.631056
      0.625237     0.619419     0.613600     0.607782     0.601963     0.596145     0.590326     0.584508     0.578689     0.572871
      0.567052     0.561234     0.555415     0.549597     0.543778     0.537960     0.532141     0.526323     0.520504     0.514686
      0.508867     0.503049     0.497230     0.491412     0.485593     0.479775     0.473956     0.468138     0.462319     0.456501
      0.450682     0.444864     0.439045     0.433227     0.427408     0.421590     0.415771     0.409953     0.404134     0.398316
      0.392497     0.386679     0.380860     0.375042     0.369223     0.363405     0.357586     0.351767     0.345949     0.340130
      0.334312     0.328493     0.322675     0.316856     0.311038     0.305219     0.299401     0.293582     0.287764     0.281945
      0.276127     0.270308     0.264490     0.258671     0.252853     0.247034     0.241216     0.235397     0.229579     0.223760
      0.217942     0.212123     0.206305     0.200486
 NY phased data points follow
   1.66267E-01  2.84832E-01  1.05791E-01 -8.43750E-02 -3.99410E-01  6.84235E-02  7.57939E-02 -2.36542E-01 -1.16905E-02  1.98012E-02
  -1.21526E-01 -5.10137E-01 -1.83633E-01  2.62445E-01 -1.49572E-01 -1.95837E-01  2.00879E-01  2.94120E-01  2.70705E-01  4.20685E-01
   3.39063E-01  2.18294E-01 -2.08472E-01 -7.54339E-02  3.09053E-02  6.25849E-02 -1.20456E-03 -4.67255E-01 -1.99983E-01 -2.16064E-01
   4.42350E-02 -1.74590E-01  5.10491E-02  3.10843E-01 -1.86022E-01  3.83311E-01  2.25258E-01  1.91423E-01  2.14329E-02 -1.41770E-01
   2.31646E-01 -4.96472E-02 -2.59177E-01 -3.10119E-01  1.96335E-02 -1.10871E-01  3.16122E-02  5.29232E-01  4.40255E-02  1.55070E-01
   3.24569E-01  3.00863E-01  1.19545E-01 -4.17874E-01 -1.54019E-01 -2.56451E-01 -7.97343E-02  2.56193E-03 -3.04068E-01 -1.46844E-02
  -1.04086E-01 -4.60304E-01 -6.24188E-01 -1.28946E-01 -3.46305E-02  9.25833E-02 -2.46189E-02  2.10108E-01  2.77166E-01 -2.50849E-01
   3.13834E-01 -6.66403E-02  2.46413E-01  2.95547E-01 -8.15505E-02  3.72544E-01  8.79486E-02 -6.23763E-02 -1.55198E-01 -2.91785E-03
   2.76382E-02 -2.23522E-01 -3.44835E-01  1.07665E-01  5.33313E-02 -4.57578E-02  3.70857E-02 -7.81627E-02  1.78239E-01  3.17273E-01
   3.22608E-01 -3.54787E-02  1.42139E-01 -3.23737E-01 -1.13505E-01  4.10659E-01 -1.60513E-01  1.29058E-01  1.21852E-01  3.45452E-01
   2.17902E-01 -1.06378E-01 -1.09611E-01 -1.27223E-01  4.97426E-01  3.25060E-01  4.69854E-01  6.41126E-01  3.38077E-01  3.72110E-01
   3.81440E-01  5.23220E-01  1.13923E-01  3.25866E-01  3.47174E-02  2.19118E-02  3.30802E-01 -8.60128E-02  2.38083E-01  6.38229E-02
   4.87469E-02 -4.45607E-01 -1.87841E-01 -3.29723E-01 -6.92127E-01  2.57666E-01 -4.05456E-01 -6.99318E-01 -1.56229E-01 -2.29670E-01
  -4.20806E-01 -8.42961E-02 -5.53437E-01 -1.27295E-01  2.35578E-01 -5.83643E-01 -2.03254E-01 -3.62087E-01 -5.18891E-01 -1.68067E-01
  -5.38891E-01 -4.41650E-01  4.88148E-01 -1.78097E-01 -9.28474E-02  7.79511E-02 -4.01940E-01  2.87896E-01  1.65688E-01 -4.58453E-02
   6.16356E-02  6.60430E-01 -6.15518E-02 -2.02665E-01  3.00128E-01  1.10873E-01  4.90695E-01 -1.58545E-01  1.18583E-01  2.98233E-01
  -5.48664E-02  2.32987E-01  8.00334E-02  1.33965E-01  3.94480E-01  4.52067E-01  1.49721E-01  8.54599E-02  2.65658E-01  1.16393E-01
   8.21615E-03 -2.13330E-01 -3.29229E-01 -1.85710E-01 -8.38361E-02 -8.56821E-02 -5.56328E-01 -3.42262E-01 -1.36737E-01 -1.55007E-01
   1.39369E-01 -4.04560E-01 -4.00923E-01 -1.71425E-01 -3.09733E-01 -7.83149E-03 -1.16952E-01 -4.30564E-01 -3.78309E-01 -4.54544E-01
  -5.06428E-01 -2.29951E-01 -2.11816E-02  9.99194E-02 -1.74592E-01 -2.52937E-01  1.65980E-01  2.49722E-01 -2.03246E-03  8.52570E-02
  -1.26210E-02 -2.48703E-01 -9.86109E-02 -2.80235E-01  3.50941E-02 -1.02552E-01 -8.66204E-02 -6.98141E-02 -5.20326E-01 -1.93954E-01
  -2.19286E-01  1.78399E-01  5.36772E-03 -1.02228E-01  8.80280E-02  4.74784E-02 -1.10839E-02 -2.11165E-02  1.82581E-02 -7.64305E-02
   6.69178E-01  1.26749E-01 -1.33310E-01  2.42946E-01  1.21250E-01  2.92294E-01 -2.58697E-02 -7.33961E-02  3.92847E-01  1.63022E-01
   2.51646E-01  4.59113E-01 -1.51345E-01  2.04733E-01  2.28358E-01  2.28167E-01  3.72257E-01  1.74308E-01 -1.89340E-01 -1.67488E-01
   1.08328E-03 -4.44665E-02  2.33912E-01 -1.24799E-01  2.08335E-02  1.11686E-01  3.68830E-01  2.99716E-02 -9.45408E-02  1.30341E-01
  -5.37709E-02  1.82752E-01 -2.72863E-01 -1.35582E-01 -2.32362E-01 -3.07482E-01 -3.30674E-01 -2.69204E-01  3.48669E-02 -1.54868E-01
  -1.59090E-02  2.18970E-01  2.17256E-01  1.19995E-02  1.04037E-01  3.72868E-01  1.51812E-01 -2.33560E-01  2.32248E-01  1.93885E-01
  -2.00519E-01 -1.15161E-01 -8.89796E-02  2.54282E-01 -3.75390E-02 -1.30888E-01  3.59701E-02 -2.44680E-01  1.69321E-01 -1.66586E-01
   1.23121E-01  7.26459E-01 -2.15543E-01 -1.54282E-01 -1.72643E-01 -1.70288E-01  2.22306E-01 -3.69339E-02 -7.25181E-03  2.78908E-01
   1.63657E-01  2.61217E-01  3.28296E-01  1.89998E-01  1.46919E-01  8.29832E-02  7.68002E-03 -3.14558E-01  1.94042E-01  4.59690E-02
   2.87519E-01  4.17995E-01  5.45642E-02  4.91450E-01  8.79691E-02  6.88893E-02  2.09507E-01  4.91688E-01  9.98643E-02 -2.19684E-01
   1.57718E-01  2.20952E-01  7.65578E-02 -2.03504E-01  1.06537E-01  3.68285E-01  1.47425E-01 -5.05667E-02  1.74715E-02  1.30939E-01
   3.36018E-01 -4.89568E-02 -1.22904E-01  1.22689E-02 -1.53917E-01 -2.18221E-01 -1.00348E-01  2.52050E-01  1.39715E-01  1.60892E-01
  -4.43194E-03  3.89900E-02  2.20476E-01 -1.79632E-01  1.18488E-01  1.60762E-02 -5.38466E-01 -1.44584E-01 -1.04542E-01 -1.78377E-01
  -6.81871E-01 -5.61641E-01 -3.04852E-01 -3.84062E-01 -3.21103E-01 -5.10987E-01  1.67239E-01 -5.56190E-01 -4.65805E-01 -3.01479E-01
  -3.16124E-01  3.30234E-01 -4.30346E-03  3.51798E-01 -5.58134E-02 -1.39140E-01 -1.65186E-01 -1.81243E-01  1.93975E-01  1.61235E-01
  -3.61235E-02 -2.95027E-01  1.85363E-01 -2.56771E-02 -2.56917E-01 -1.48106E-01 -1.73760E-01 -1.78820E-01 -7.42569E-01 -6.50011E-02
  -1.13320E-01 -5.83826E-01  5.32935E-02  3.18377E-02  3.24442E-01 -3.49292E-01  5.93993E-02  2.90215E-01 -1.51798E-01  2.70033E-01
   8.25290E-02  5.64323E-01  6.92179E-02 -8.22702E-02  3.76540E-02  2.49610E-01  4.21225E-01  1.93187E-01  2.21989E-01 -2.01352E-02
   3.43434E-01  2.88605E-01 -2.14598E-01 -1.05288E-01  1.88713E-01 -2.34646E-01  6.49947E-02  4.18327E-02  7.91728E-02  3.82350E-01
   8.36880E-02  2.31825E-01  3.66216E-02  1.70258E-01  7.11396E-02  3.44772E-01  1.63298E-01 -4.80505E-01  1.18968E-01  2.09808E-01
  -1.35776E-01 -4.00911E-02 -5.23412E-02  1.05418E-01  3.03398E-01 -7.88055E-02 -4.00471E-03 -4.79302E-02 -2.73704E-01 -1.20450E-01
  -1.69166E-01 -3.25814E-01 -4.64316E-01 -1.29484E-01 -1.52594E-01 -2.44450E-01  1.60985E-01  4.22820E-02 -2.07945E-02 -3.55015E-02
  -1.41417E-01  7.80265E-02 -2.05722E-02 -2.91238E-01  7.75988E-02  1.01062E-01  1.23110E-01  2.53945E-01 -1.47984E-01 -4.47438E-02
  -2.41323E-01  2.21546E-01  2.12632E-01 -2.15753E-01  2.30534E-01  2.25662E-02  1.44051E-01  4.79984E-02  2.32240E-01  1.52070E-01
  -7.09945E-02  1.82604E-01  3.27983E-03  1.22367E-01  6.30479E-02  4.48411E-01  2.97598E-01 -8.13613E-02  2.94146E-01 -1.78465E-01
  -2.34087E-01  1.14946E-02  4.77515E-02  1.22257E-01 -3.03323E-01  3.21800E-03  1.32124E-01  5.10091E-02  1.95806E-01 -1.10257E-01
   2.40266E-01  2.63253E-01 -2.50142E-01 -4.47741E-01 -3.37462E-01 -1.08757E-01 -5.12176E-01 -2.21540E-01  8.82639E-02 -2.87850E-01
  -2.62901E-02 -2.33761E-01 -2.47812E-01 -8.24317E-02  2.25777E-02  1.14327E-01 -2.01025E-01  3.37971E-01  6.77759E-01 -6.11807E-02
  -3.53904E-01  2.32001E-02 -2.73433E-01 -2.44377E-02  7.01789E-02 -7.56101E-02  1.77787E-01  2.93383E-02  3.40869E-01  3.11641E-02
  -6.72466E-02 -3.00702E-02  1.80993E-01  1.27198E-01 -2.71161E-01  5.13926E-01  2.99054E-01 -2.02846E-01 -9.00078E-02  2.59758E-01
  -4.37268E-02 -4.25362E-01  2.22895E-01  7.99649E-02  9.17447E-02  2.51677E-01  8.77594E-02  9.47803E-02  2.26693E-01  2.84338E-01
   2.33986E-01  1.16025E-01 -7.01933E-02  1.60322E-01 -4.29092E-02 -2.58707E-01 -4.20939E-01 -4.43639E-03  8.67655E-02 -2.27738E-01
  -1.98447E-01 -3.50706E-01  8.67846E-02 -3.08820E-01 -4.13495E-01 -3.75095E-01 -1.26025E-01 -2.06729E-01 -3.75123E-01  3.15369E-01
   1.00081E-01 -2.05735E-01 -6.11054E-01  5.22493E-02 -5.22511E-02 -4.53631E-01  1.42273E-01  1.12098E-01  1.51676E-01 -2.14704E-01
  -1.02979E-01  2.98261E-01 -3.05657E-01  1.01664E-01  5.76084E-01 -3.25759E-01  3.00449E-01  1.17513E-02 -4.16347E-01  2.41456E-01
  -2.17168E-02  5.05888E-02 -1.10232E-01  3.15804E-01  5.92912E-01  1.13528E-01 -5.01572E-02 -1.23820E-01 -3.33179E-01 -2.72417E-01
   7.33054E-02  9.63948E-02  1.12621E-01  2.83061E-01  1.34748E-01 -1.68727E-01  9.24933E-02  2.32957E-01 -9.80718E-02 -9.19392E-02
   7.23195E-02 -1.45656E-01 -1.53175E-01 -1.26139E-01 -1.21748E-02  8.12218E-02 -3.10027E-01 -2.51793E-01  1.00253E-01  4.13063E-02
   1.59967E-02  9.17086E-02  6.70005E-02 -1.53045E-01 -5.01106E-02  1.31405E-01  1.80469E-02  3.39071E-01  6.62143E-02 -2.74480E-01
  -3.57754E-01 -2.78172E-01 -1.06470E-02 -1.07810E-01 -1.64152E-01 -5.22507E-02  9.12043E-02 -1.81191E-01 -1.02523E-01 -8.37150E-02
   7.63852E-02  2.46414E-02 -8.02978E-02  7.18501E-02 -5.19052E-02  3.80295E-01  4.86701E-01  1.97944E-01  1.93912E-02 -2.02587E-02
   5.47549E-02 -1.30721E-01 -1.00716E-01  1.80174E-01  9.18456E-02  4.73004E-01  6.49282E-02 -2.42059E-01  1.52999E-01  1.22127E-01
   1.64122E-01 -3.73452E-01 -1.35267E-02  1.41068E-01  7.63569E-02 -2.94181E-02 -3.36318E-01  1.35214E-02  4.12268E-02 -1.91308E-01
   4.72781E-02  9.31382E-02 -1.14438E-01  2.47111E-01 -8.96157E-02 -1.13036E-01  3.57794E-02  2.09717E-01  1.75033E-02 -7.95514E-02
  -5.30062E-02 -2.14150E-01  2.08555E-01 -1.05593E-01
 NY points of the fit to the data follow
   5.85416E-02  5.38318E-02  5.03154E-02  4.56388E-02  3.91481E-02  3.30883E-02  3.24610E-02  3.69606E-02  4.59661E-02  5.87417E-02
   7.42686E-02  9.19032E-02  1.11019E-01  1.30157E-01  1.47185E-01  1.60102E-01  1.67580E-01  1.68377E-01  1.61306E-01  1.46071E-01
   1.23238E-01  9.42077E-02  6.15043E-02  2.79212E-02 -3.93121E-03 -3.17272E-02 -5.40689E-02 -7.06828E-02 -8.27801E-02 -9.35268E-02
  -1.03265E-01 -1.12246E-01 -1.20152E-01 -1.26755E-01 -1.31664E-01 -1.34097E-01 -1.33671E-01 -1.29228E-01 -1.20979E-01 -1.08641E-01
  -9.23605E-02 -7.28471E-02 -5.09242E-02 -2.76440E-02 -4.49204E-03  1.68667E-02  3.47821E-02  4.76699E-02  5.41686E-02  5.32115E-02
   4.42297E-02  2.73230E-02  2.87532E-03 -2.74461E-02 -6.11997E-02 -9.84557E-02 -1.34602E-01 -1.66139E-01 -1.92915E-01 -2.10621E-01
  -2.17720E-01 -2.13730E-01 -1.98713E-01 -1.73119E-01 -1.38191E-01 -9.58965E-02 -4.87338E-02  1.40685E-05  4.56704E-02  8.27933E-02
   1.05294E-01  1.11807E-01  1.03635E-01  8.10613E-02  4.77404E-02  9.04242E-03 -3.05750E-02 -6.64469E-02 -9.25157E-02 -1.06046E-01
  -1.05479E-01 -8.87572E-02 -5.72120E-02 -1.37447E-02  3.76942E-02  9.25253E-02  1.44952E-01  1.88337E-01  2.18525E-01  2.30709E-01
   2.25671E-01  2.05191E-01  1.74426E-01  1.39572E-01  1.04496E-01  7.18194E-02  4.49999E-02  2.57860E-02  1.48968E-02  1.29475E-02
   2.00588E-02  3.58408E-02  5.90235E-02  8.75873E-02  1.18870E-01  1.49761E-01  1.77404E-01  1.99547E-01  2.14827E-01  2.23223E-01
   2.26064E-01  2.24733E-01  2.21364E-01  2.15316E-01  2.07895E-01  1.97676E-01  1.83637E-01  1.65275E-01  1.41284E-01  1.09928E-01
   7.20660E-02  2.84494E-02 -1.89481E-02 -6.77373E-02 -1.15509E-01 -1.60135E-01 -2.04571E-01 -2.47992E-01 -2.86955E-01 -3.18623E-01
  -3.40729E-01 -3.52508E-01 -3.55314E-01 -3.51011E-01 -3.41018E-01 -3.26483E-01 -3.08248E-01 -2.87783E-01 -2.64805E-01 -2.38625E-01
  -2.08806E-01 -1.74570E-01 -1.35765E-01 -9.42362E-02 -5.21367E-02 -1.25005E-02  2.18520E-02  4.91090E-02  6.88515E-02  8.42877E-02
   9.76847E-02  1.09941E-01  1.21641E-01  1.33297E-01  1.45441E-01  1.58784E-01  1.74469E-01  1.94656E-01  2.14876E-01  2.29719E-01
   2.37503E-01  2.37758E-01  2.30477E-01  2.16008E-01  1.93418E-01  1.61373E-01  1.19857E-01  7.04750E-02  1.54184E-02 -4.28880E-02
  -1.00900E-01 -1.54370E-01 -1.99308E-01 -2.32199E-01 -2.50965E-01 -2.55676E-01 -2.47960E-01 -2.30985E-01 -2.09052E-01 -1.86730E-01
  -1.68397E-01 -1.54083E-01 -1.41956E-01 -1.31276E-01 -1.21736E-01 -1.13032E-01 -1.05057E-01 -9.76237E-02 -9.05992E-02 -8.39062E-02
  -7.75088E-02 -7.13616E-02 -6.53630E-02 -5.94807E-02 -5.37722E-02 -4.82963E-02 -4.30615E-02 -3.80109E-02 -3.31232E-02 -2.85020E-02
  -2.42621E-02 -2.05032E-02 -1.72707E-02 -1.45435E-02 -1.23192E-02 -1.05869E-02 -9.32490E-03 -8.49365E-03 -8.01433E-03 -7.80269E-03
  -7.75481E-03 -7.77302E-03 -7.74459E-03 -7.54699E-03 -6.96267E-03 -4.93965E-03 -8.60088E-04  5.05516E-03  1.23574E-02  2.08880E-02
   3.16217E-02  4.53260E-02  6.12315E-02  7.83113E-02  9.53374E-02  1.11292E-01  1.25513E-01  1.37282E-01  1.45597E-01  1.49514E-01
   1.48502E-01  1.42531E-01  1.31898E-01  1.17189E-01  9.94145E-02  7.98032E-02  5.96846E-02  4.04012E-02  2.25733E-02  6.78535E-03
  -6.24664E-03 -1.61390E-02 -2.31043E-02 -2.83199E-02 -3.30322E-02 -3.77313E-02 -4.28085E-02 -4.70287E-02 -5.04470E-02 -5.33721E-02
  -5.47695E-02 -5.43865E-02 -5.18088E-02 -4.71063E-02 -3.97988E-02 -2.97730E-02 -1.72766E-02 -2.48977E-03  1.39432E-02  3.12139E-02
   4.83419E-02  6.44775E-02  7.85020E-02  8.94781E-02  9.67762E-02  1.00071E-01  9.94919E-02  9.54460E-02  8.85871E-02  7.96468E-02
   6.86693E-02  5.61441E-02  4.25596E-02  2.79143E-02  1.23564E-02 -3.31458E-03 -1.77243E-02 -3.01953E-02 -3.97869E-02 -4.59933E-02
  -4.85617E-02 -4.71696E-02 -4.18193E-02 -3.23965E-02 -1.93073E-02 -2.88902E-03  1.60120E-02  3.62784E-02  5.65416E-02  7.53396E-02
   9.13078E-02  1.03479E-01  1.11506E-01  1.15554E-01  1.16456E-01  1.15452E-01  1.13763E-01  1.12529E-01  1.12223E-01  1.12769E-01
   1.13873E-01  1.14920E-01  1.15509E-01  1.15380E-01  1.14397E-01  1.12600E-01  1.09939E-01  1.06469E-01  1.01938E-01  9.62267E-02
   8.91203E-02  8.05704E-02  7.05117E-02  5.91202E-02  4.65080E-02  3.31136E-02  1.93604E-02  5.92343E-03 -6.59985E-03 -1.75161E-02
  -2.62648E-02 -3.25833E-02 -3.61582E-02 -3.72298E-02 -3.58217E-02 -3.24275E-02 -2.74415E-02 -2.14629E-02 -1.51491E-02 -9.05757E-03
  -3.79661E-03 -1.45981E-04 -4.94961E-03 -2.45980E-02 -5.63729E-02 -9.69195E-02 -1.43074E-01 -1.92272E-01 -2.43647E-01 -2.96470E-01
  -3.48149E-01 -3.94571E-01 -4.32093E-01 -4.57822E-01 -4.68587E-01 -4.61762E-01 -4.36536E-01 -3.94096E-01 -3.37833E-01 -2.73548E-01
  -2.07753E-01 -1.46835E-01 -9.64020E-02 -5.98652E-02 -3.79307E-02 -2.62297E-02 -1.88532E-02 -1.41135E-02 -1.11726E-02 -9.51204E-03
  -8.72267E-03 -8.46531E-03 -8.43192E-03 -8.33017E-03 -7.90373E-03 -6.97191E-03 -5.41658E-03 -3.18220E-03 -2.91176E-04  3.16439E-03
   7.03384E-03  1.11332E-02  1.52605E-02  1.92864E-02  2.31023E-02  2.66604E-02  2.99628E-02  3.30080E-02  3.58390E-02  3.84808E-02
   4.09732E-02  4.33480E-02  4.56380E-02  4.78603E-02  5.00180E-02  5.20943E-02  5.40707E-02  5.59260E-02  5.76470E-02  5.92122E-02
   6.05936E-02  6.17397E-02  6.25968E-02  6.31190E-02  6.32490E-02  6.29346E-02  6.21440E-02  6.08634E-02  5.90838E-02  5.68231E-02
   5.41246E-02  5.10444E-02  4.76378E-02  4.39854E-02  4.01514E-02  3.61955E-02  3.21837E-02  2.81767E-02  2.42346E-02  2.04118E-02
   1.67512E-02  1.32866E-02  1.00275E-02  6.98131E-03  4.16631E-03  1.58543E-03 -7.56335E-04 -2.83866E-03 -4.64094E-03 -6.15106E-03
  -7.32632E-03 -8.13575E-03 -8.56244E-03 -8.59495E-03 -8.16094E-03 -7.21794E-03 -5.74422E-03 -3.73207E-03 -1.27044E-03  1.56316E-03
   4.71004E-03  8.13603E-03  1.18036E-02  1.56839E-02  1.97390E-02  2.39411E-02  2.82863E-02  3.27824E-02  3.74577E-02  4.23311E-02
   4.74351E-02  5.27757E-02  5.83595E-02  6.41658E-02  7.01398E-02  7.62111E-02  8.22631E-02  8.80992E-02  9.35059E-02  9.82563E-02
   1.02158E-01  1.05096E-01  1.07005E-01  1.07848E-01  1.07628E-01  1.06355E-01  1.04102E-01  1.00957E-01  9.70278E-02  9.24312E-02
   8.72915E-02  8.17395E-02  7.59135E-02  6.99456E-02  6.39692E-02  5.81040E-02  5.24669E-02  4.71629E-02  4.22607E-02  3.78116E-02
   3.38627E-02  3.04421E-02  2.76010E-02  2.53836E-02  2.38104E-02  2.28831E-02  2.25904E-02  2.29010E-02  2.37656E-02  2.51232E-02
   2.69124E-02  2.90504E-02  3.14412E-02  3.39786E-02  3.65483E-02  3.90558E-02  4.14206E-02  4.35597E-02  4.54170E-02  4.69454E-02
   4.81173E-02  4.89178E-02  4.93431E-02  4.93969E-02  4.90938E-02  4.84411E-02  4.74546E-02  4.61529E-02  4.45610E-02  4.27407E-02
   4.07482E-02  3.86369E-02  3.64483E-02  3.42123E-02  3.19462E-02  2.96495E-02  2.73092E-02  2.49142E-02  2.24389E-02  1.98619E-02
   1.71562E-02  1.42516E-02  1.10478E-02  7.44969E-03  3.37350E-03 -1.26539E-03 -6.54290E-03 -1.25183E-02 -1.92207E-02 -2.66485E-02
  -3.47778E-02 -4.35434E-02 -5.28301E-02 -6.24834E-02 -7.23298E-02 -8.21705E-02 -9.17799E-02 -1.00919E-01 -1.09361E-01 -1.16896E-01
  -1.23372E-01 -1.28693E-01 -1.32811E-01 -1.35690E-01 -1.37353E-01 -1.37845E-01 -1.37241E-01 -1.35647E-01 -1.33177E-01 -1.29964E-01
  -1.26114E-01 -1.21751E-01 -1.16969E-01 -1.11820E-01 -1.06343E-01 -1.00606E-01 -9.46608E-02 -8.85522E-02 -8.23082E-02 -7.59940E-02
  -6.97017E-02 -6.35015E-02 -5.74595E-02 -5.16352E-02 -4.60635E-02 -4.07753E-02 -3.58178E-02 -3.11992E-02 -2.69180E-02 -2.29840E-02
  -1.94161E-02 -1.62061E-02 -1.33309E-02 -1.07828E-02 -8.51800E-03 -6.49523E-03 -4.69566E-03 -3.10100E-03 -1.66764E-03 -3.66786E-04
   8.21312E-04  1.91285E-03  2.92255E-03  3.85972E-03  4.73030E-03  5.51846E-03  6.20980E-03  6.79671E-03  7.27196E-03  7.64820E-03
   7.92905E-03  8.08800E-03  8.11713E-03  8.05569E-03  7.93395E-03  7.77027E-03  7.57839E-03  7.35952E-03  7.10897E-03  6.80639E-03
   6.45198E-03  6.03500E-03  5.57314E-03  5.08345E-03  4.57783E-03  4.06924E-03  3.57612E-03  3.11729E-03  2.71662E-03  2.38650E-03
   2.13236E-03  1.96082E-03  1.86829E-03  1.82914E-03  1.84030E-03  1.90414E-03  1.99754E-03  2.09798E-03  2.19376E-03  2.26428E-03
   2.29246E-03  2.24372E-03  2.13015E-03  1.98951E-03  1.84420E-03  1.72201E-03  1.63381E-03  1.56520E-03  1.52225E-03  1.50940E-03
   1.53706E-03  1.60014E-03  1.67436E-03  1.71937E-03  1.70339E-03  1.59732E-03  1.40434E-03  1.12286E-03  7.27753E-04  2.30489E-04
  -3.45987E-04 -9.81143E-04 -1.66156E-03 -2.36816E-03 -3.07552E-03 -3.77477E-03 -4.46749E-03 -5.16523E-03 -5.86545E-03 -6.54707E-03
  -7.18556E-03 -7.76421E-03 -8.28893E-03 -8.76461E-03 -9.20569E-03 -9.61173E-03 -9.96749E-03 -1.02720E-02 -1.05319E-02 -1.07596E-02
  -1.09807E-02 -1.12120E-02 -1.14746E-02 -1.17845E-02
 NY background values follow
     5.177E-02    5.166E-02    5.155E-02    5.143E-02    5.132E-02    5.121E-02    5.109E-02    5.098E-02    5.087E-02    5.075E-02
     5.064E-02    5.053E-02    5.042E-02    5.030E-02    5.019E-02    5.007E-02    4.996E-02    4.985E-02    4.973E-02    4.962E-02
     4.951E-02    4.939E-02    4.928E-02    4.917E-02    4.905E-02    4.894E-02    4.883E-02    4.871E-02    4.860E-02    4.848E-02
     4.837E-02    4.826E-02    4.814E-02    4.803E-02    4.791E-02    4.780E-02    4.769E-02    4.757E-02    4.746E-02    4.734E-02
     4.723E-02    4.712E-02    4.700E-02    4.689E-02    4.677E-02    4.666E-02    4.654E-02    4.643E-02    4.631E-02    4.620E-02
     4.609E-02    4.597E-02    4.586E-02    4.574E-02    4.563E-02    4.551E-02    4.540E-02    4.528E-02    4.517E-02    4.505E-02
     4.494E-02    4.483E-02    4.471E-02    4.460E-02    4.448E-02    4.437E-02    4.425E-02    4.414E-02    4.402E-02    4.391E-02
