 LCModel (Version 6.3-1N) Copyright: S.W. Provencher.          Ref.: Magn. Reson. Med. 30:672-679 (1993).                
 Slice_N1@20_16  02-Jun-2023 14:37:11
 27 lines in following concentration table = NCONC+1
    Conc.  %SD /Cr+PCr  Metabolite                                         
 2.65E-06  12% 3.2E-04 Mac                                                 
 4.03E-02  14%   4.897 Cr                                                  
 2.55E-02  20%   3.103 PCr                                                 
 7.25E-02  10%   8.812 Ins                                                 
 8.07E-02   7%   9.808 NAA                                                 
 6.75E-02   9%   8.204 Tau                                                 
 4.82E-03  51%   0.586 PCho                                                
 8.35E-03  30%   1.014 GPC                                                 
 5.65E-02  14%   6.865 Glu                                                 
 1.71E-02  32%   2.074 Gln                                                 
    0.000 999%   0.000 Ala                                                 
 2.72E-02  40%   3.308 Asc                                                 
 1.19E-02  59%   1.442 Asp                                                 
 1.19E-02  31%   1.447 GABA                                                
 9.61E-03  50%   1.167 Glc                                                 
 6.81E-03  43%   0.828 GSH                                                 
    0.000 999%   0.000 Lac                                                 
 9.89E-03  39%   1.202 NAAG                                                
    0.000 999%   0.000 PE                                                  
 1.32E-02  12%   1.600 GPC+PCho                                            
 9.06E-02   7%  11.010 NAA+NAAG                                            
 7.36E-02  13%   8.938 Glu+Gln                                             
 6.59E-02   8%   8.000 Cr+PCr                                              
 9.06E-02   7%  11.010 NAA+NAAG                                            
 6.59E-02   8%   8.000 Cr+PCr                                              
 7.36E-02  13%   8.938 Glu+Gln                                             
   6 lines in following misc. output table
  FWHM = 0.023 ppm    S/N =   6                                            
  Data shift = 0.017 ppm                                                   
  Ph: -39 deg     -15.6 deg/ppm                                            
  alphaB,S = 3.3E-01,   1.4E+01                                            
   18 spline knots.   Ns = 5(1)                                            
  ( 4) 3 infls.   ( 4) 2 extrs.                                            
  654 points on ppm-axis = NY
      4.000000     3.994181     3.988363     3.982544     3.976726     3.970907     3.965088     3.959270     3.953451     3.947633
      3.941814     3.935995     3.930177     3.924358     3.918540     3.912721     3.906902     3.901084     3.895265     3.889446
      3.883628     3.877809     3.871991     3.866172     3.860353     3.854535     3.848716     3.842898     3.837079     3.831260
      3.825442     3.819623     3.813805     3.807986     3.802167     3.796349     3.790530     3.784712     3.778893     3.773074
      3.767256     3.761437     3.755619     3.749800     3.743981     3.738163     3.732344     3.726526     3.720707     3.714888
      3.709070     3.703251     3.697433     3.691614     3.685795     3.679977     3.674158     3.668339     3.662521     3.656702
      3.650884     3.645065     3.639246     3.633428     3.627609     3.621791     3.615972     3.610153     3.604335     3.598516
      3.592698     3.586879     3.581060     3.575242     3.569423     3.563605     3.557786     3.551967     3.546149     3.540330
      3.534512     3.528693     3.522874     3.517056     3.511237     3.505419     3.499600     3.493781     3.487963     3.482144
      3.476326     3.470507     3.464688     3.458870     3.453051     3.447232     3.441414     3.435595     3.429777     3.423958
      3.418139     3.412321     3.406502     3.400684     3.394865     3.389046     3.383228     3.377409     3.371591     3.365772
      3.359953     3.354135     3.348316     3.342498     3.336679     3.330860     3.325042     3.319223     3.313405     3.307586
      3.301767     3.295949     3.290130     3.284312     3.278493     3.272674     3.266856     3.261037     3.255219     3.249400
      3.243581     3.237763     3.231944     3.226125     3.220307     3.214488     3.208670     3.202851     3.197032     3.191214
      3.185395     3.179577     3.173758     3.167939     3.162121     3.156302     3.150484     3.144665     3.138846     3.133028
      3.127209     3.121391     3.115572     3.109753     3.103935     3.098116     3.092298     3.086479     3.080660     3.074842
      3.069023     3.063205     3.057386     3.051567     3.045749     3.039930     3.034111     3.028293     3.022474     3.016656
      3.010837     3.005018     2.999200     2.993381     2.987563     2.981744     2.975925     2.970107     2.964288     2.958470
      2.952651     2.946832     2.941014     2.935195     2.929377     2.923558     2.917739     2.911921     2.906102     2.900284
      2.894465     2.888646     2.882828     2.877009     2.871191     2.865372     2.859553     2.853735     2.847916     2.842098
      2.836279     2.830460     2.824642     2.818823     2.813004     2.807186     2.801367     2.795549     2.789730     2.783911
      2.778093     2.772274     2.766456     2.760637     2.754818     2.749000     2.743181     2.737363     2.731544     2.725725
      2.719907     2.714088     2.708270     2.702451     2.696632     2.690814     2.684995     2.679177     2.673358     2.667539
      2.661721     2.655902     2.650084     2.644265     2.638446     2.632628     2.626809     2.620991     2.615172     2.609353
      2.603535     2.597716     2.591897     2.586079     2.580260     2.574442     2.568623     2.562804     2.556986     2.551167
      2.545349     2.539530     2.533711     2.527893     2.522074     2.516256     2.510437     2.504618     2.498800     2.492981
      2.487163     2.481344     2.475525     2.469707     2.463888     2.458070     2.452251     2.446432     2.440614     2.434795
      2.428977     2.423158     2.417339     2.411521     2.405702     2.399884     2.394065     2.388246     2.382428     2.376609
      2.370790     2.364972     2.359153     2.353335     2.347516     2.341697     2.335879     2.330060     2.324242     2.318423
      2.312604     2.306786     2.300967     2.295149     2.289330     2.283511     2.277693     2.271874     2.266056     2.260237
      2.254418     2.248600     2.242781     2.236963     2.231144     2.225325     2.219507     2.213688     2.207870     2.202051
      2.196232     2.190414     2.184595     2.178777     2.172958     2.167139     2.161321     2.155502     2.149683     2.143865
      2.138046     2.132228     2.126409     2.120590     2.114772     2.108953     2.103135     2.097316     2.091497     2.085679
      2.079860     2.074042     2.068223     2.062404     2.056586     2.050767     2.044949     2.039130     2.033311     2.027493
      2.021674     2.015856     2.010037     2.004218     1.998400     1.992581     1.986763     1.980944     1.975126     1.969307
      1.963489     1.957670     1.951852     1.946033     1.940215     1.934397     1.928578     1.922760     1.916941     1.911123
      1.905304     1.899486     1.893667     1.887849     1.882030     1.876212     1.870393     1.864575     1.858756     1.852938
      1.847119     1.841301     1.835482     1.829664     1.823845     1.818027     1.812208     1.806390     1.800571     1.794753
      1.788934     1.783116     1.777297     1.771479     1.765660     1.759842     1.754023     1.748205     1.742386     1.736568
      1.730749     1.724931     1.719113     1.713294     1.707476     1.701657     1.695839     1.690020     1.684202     1.678383
      1.672565     1.666746     1.660928     1.655109     1.649291     1.643472     1.637654     1.631835     1.626017     1.620198
      1.614380     1.608561     1.602743     1.596924     1.591106     1.585287     1.579469     1.573650     1.567832     1.562013
      1.556195     1.550376     1.544558     1.538739     1.532921     1.527102     1.521284     1.515465     1.509647     1.503829
      1.498010     1.492192     1.486373     1.480555     1.474736     1.468918     1.463099     1.457281     1.451462     1.445644
      1.439825     1.434007     1.428188     1.422370     1.416551     1.410733     1.404914     1.399096     1.393277     1.387459
      1.381640     1.375822     1.370003     1.364185     1.358366     1.352548     1.346729     1.340911     1.335092     1.329274
      1.323455     1.317637     1.311818     1.306000     1.300182     1.294363     1.288545     1.282726     1.276908     1.271089
      1.265271     1.259452     1.253634     1.247815     1.241997     1.236178     1.230360     1.224541     1.218723     1.212904
      1.207086     1.201267     1.195449     1.189630     1.183812     1.177993     1.172175     1.166356     1.160538     1.154719
      1.148901     1.143082     1.137264     1.131445     1.125627     1.119808     1.113990     1.108171     1.102353     1.096534
      1.090716     1.084898     1.079079     1.073261     1.067442     1.061624     1.055805     1.049987     1.044168     1.038350
      1.032531     1.026713     1.020894     1.015076     1.009257     1.003439     0.997620     0.991802     0.985983     0.980165
      0.974346     0.968528     0.962709     0.956891     0.951072     0.945254     0.939435     0.933617     0.927798     0.921980
      0.916161     0.910343     0.904524     0.898706     0.892887     0.887069     0.881251     0.875432     0.869614     0.863795
      0.857977     0.852158     0.846340     0.840521     0.834703     0.828884     0.823066     0.817247     0.811429     0.805610
      0.799792     0.793973     0.788155     0.782336     0.776518     0.770699     0.764881     0.759062     0.753244     0.747425
      0.741607     0.735788     0.729970     0.724151     0.718333     0.712514     0.706696     0.700877     0.695059     0.689240
      0.683422     0.677603     0.671785     0.665967     0.660148     0.654330     0.648511     0.642693     0.636874     0.631056
      0.625237     0.619419     0.613600     0.607782     0.601963     0.596145     0.590326     0.584508     0.578689     0.572871
      0.567052     0.561234     0.555415     0.549597     0.543778     0.537960     0.532141     0.526323     0.520504     0.514686
      0.508867     0.503049     0.497230     0.491412     0.485593     0.479775     0.473956     0.468138     0.462319     0.456501
      0.450682     0.444864     0.439045     0.433227     0.427408     0.421590     0.415771     0.409953     0.404134     0.398316
      0.392497     0.386679     0.380860     0.375042     0.369223     0.363405     0.357586     0.351767     0.345949     0.340130
      0.334312     0.328493     0.322675     0.316856     0.311038     0.305219     0.299401     0.293582     0.287764     0.281945
      0.276127     0.270308     0.264490     0.258671     0.252853     0.247034     0.241216     0.235397     0.229579     0.223760
      0.217942     0.212123     0.206305     0.200486
 NY phased data points follow
  -2.15643E-01 -2.29593E-01 -1.73636E-01 -2.12564E-01 -2.02746E-01  9.13006E-02 -7.39267E-02 -1.10084E-01 -3.75081E-02  9.19741E-02
   1.50110E-01  3.13454E-01  4.27570E-01  2.45877E-01  6.52331E-02  4.67604E-01  6.27300E-01  2.87794E-01  2.11160E-01  1.00085E-01
   1.14925E-01  1.39933E-01  9.81819E-02 -7.68078E-02 -6.59195E-02 -1.44758E-01 -9.16119E-02  8.58561E-02 -4.61146E-02 -1.37360E-01
  -1.43233E-01 -3.80870E-01 -1.25551E-01  4.85491E-02 -2.41860E-01 -6.83153E-02 -1.84474E-01 -2.21422E-01 -4.63619E-01 -1.34279E-01
   3.16612E-02 -1.09837E-02  1.88635E-01 -2.83850E-01  2.07365E-01  1.64998E-01  1.73561E-01  4.12211E-01  8.27506E-02  2.91911E-01
   4.42575E-02  1.77351E-01  3.15893E-01 -9.93425E-02 -1.40142E-01 -8.11972E-02 -1.02568E-02 -1.74279E-01 -1.60085E-01 -1.56607E-01
   6.70977E-02 -9.27005E-02 -3.86982E-01  1.82797E-02 -2.10323E-01 -2.90656E-01 -1.15002E-01  1.49129E-01  2.31208E-01  2.45316E-01
   3.95305E-01  2.07649E-01 -9.62069E-03  2.11839E-01  4.19135E-01 -5.11236E-02 -9.86436E-02 -5.98586E-02 -4.53749E-01 -7.97136E-01
  -4.13959E-01 -3.12043E-01 -1.92094E-01  1.96012E-01  3.20436E-01  7.19712E-01  3.34085E-01  2.20168E-01  3.41294E-01 -4.15974E-02
   3.40179E-02  1.14587E-01  7.20944E-02  2.93371E-01  1.08693E-01  9.87237E-02  2.53733E-01 -8.84678E-02 -8.82050E-02 -1.25916E-01
  -4.85820E-01 -3.23194E-01  1.10239E-01  3.03060E-01  2.79125E-01  4.70513E-01  6.81259E-01  3.02988E-01  4.76848E-01  6.55847E-01
   5.10281E-01  1.45672E-01  1.81751E-01  3.02300E-01  4.69316E-02  2.93268E-01  2.58396E-01  3.03372E-01  1.00244E-01  1.08295E-01
   1.96578E-01  1.86832E-01 -1.33631E-02 -2.50715E-03  4.18857E-02 -4.05596E-01 -3.34337E-01 -3.59703E-01 -6.12637E-01 -9.81261E-01
  -8.71375E-01 -8.09277E-01 -5.78520E-01 -6.29974E-01 -5.22242E-01 -4.26833E-01 -8.43227E-01 -7.65616E-01 -6.86051E-01 -3.97744E-01
  -1.62106E-01 -9.74151E-02 -3.73744E-01 -1.32227E-03  5.44382E-02  4.27342E-02  3.40018E-02 -1.90926E-01  1.15232E-01  3.64107E-02
   1.64406E-01  2.92542E-01  1.75168E-01 -6.86212E-02  2.48895E-01  2.63036E-01  3.10248E-01  3.95852E-01  3.21788E-01  5.41503E-01
   5.02213E-01  7.84044E-01  5.45459E-01  3.60602E-01  8.38316E-01  8.91218E-01  7.52037E-01  2.48638E-01 -5.10309E-01 -7.29706E-01
  -1.09741E+00 -8.62653E-01 -5.43795E-01 -4.51298E-01 -2.77676E-01 -3.32640E-01 -3.65018E-01 -5.43152E-01 -1.22547E-01 -2.48522E-01
  -5.26396E-01 -3.59653E-01 -4.99788E-01 -3.32348E-01 -8.05551E-02 -2.23631E-01 -4.23240E-02 -1.33315E-01 -4.50148E-01 -4.28523E-01
  -3.10407E-01 -3.18396E-01 -2.98768E-01  9.31282E-02 -2.66561E-01 -4.68071E-01 -1.72591E-01 -6.71053E-02 -4.44650E-01 -2.47836E-01
  -1.95323E-01 -2.85854E-01  2.38509E-01  3.92057E-02  7.14503E-02 -1.34816E-01 -1.11588E-01 -3.86746E-02 -4.06896E-02 -9.52357E-02
  -8.44778E-02  1.04965E-01 -4.49906E-02  1.62410E-01 -5.04513E-03 -4.20119E-02  2.59078E-02 -1.24078E-01 -3.20751E-03 -1.64865E-02
   2.11584E-02 -4.03124E-02 -8.59246E-02  3.06905E-01 -5.56950E-02  1.85631E-01  4.96261E-01  3.99070E-01  6.21575E-01  4.19600E-01
   6.67209E-01  3.25969E-01  2.20773E-01  3.42985E-02 -9.80692E-02  2.07546E-01  1.07784E-01  1.03170E-01 -1.97540E-02  1.64474E-01
   1.04215E-01 -9.76684E-02 -3.30168E-02 -6.46056E-02 -1.04831E-01 -2.47305E-02 -4.84628E-02  5.20919E-02  3.41864E-02 -4.42220E-02
  -1.08814E-02 -1.67025E-02  3.97639E-02  8.60714E-02 -1.96332E-01 -2.38637E-01  1.28463E-01  7.06542E-02  1.70000E-01  2.71840E-01
   3.03866E-01  1.28080E-01  1.54392E-01  1.86197E-01  2.47165E-01  6.46902E-02 -1.96722E-01  2.31892E-02  1.06695E-01  1.78729E-01
   3.73238E-02  2.69035E-01 -3.06254E-03  2.57345E-01  2.10032E-01  2.19174E-02  1.70342E-01 -2.40673E-01 -7.79215E-02 -3.81716E-01
  -8.83254E-02 -2.19186E-01 -1.48224E-01 -1.37857E-01 -2.77497E-01  2.99442E-01  9.02057E-02  3.72011E-01  5.14495E-01  2.34565E-01
  -3.97291E-02  4.19591E-01  3.91683E-01 -1.61513E-01  8.68131E-02  2.03533E-01  2.89758E-01  1.16101E-01  3.40711E-01  3.59800E-01
   1.75330E-01  3.46845E-01  1.23172E-01  1.95472E-01  3.05462E-01  1.01169E-01  2.99934E-01  5.13585E-01  3.56667E-01  1.09904E-01
   5.27586E-02  3.84747E-01  3.03309E-01  3.23511E-02  2.23043E-01  4.10366E-01  1.35351E-01 -1.08150E-01 -8.66291E-02 -1.89990E-01
  -2.27668E-01 -3.11886E-01 -2.97245E-01 -1.87982E-01 -1.77328E-02 -2.93690E-01 -6.73466E-02  2.34041E-01  1.63744E-01  2.73742E-01
  -1.65879E-01 -4.59472E-02 -1.25436E-01 -6.78033E-03 -8.70633E-02 -3.39262E-01 -2.64427E-01 -4.90355E-01 -3.57137E-01 -3.85478E-01
  -2.91640E-01 -5.64290E-01 -1.47029E+00 -2.31494E+00 -1.35161E+00 -4.13518E-01 -1.87424E-01  1.39975E-01 -3.79868E-03  4.40119E-01
   1.48840E-01  1.03765E-01  2.77485E-01 -1.00817E-01  9.88325E-02  2.26232E-01  1.20157E-01  2.34044E-01  2.26015E-01  2.69771E-01
  -3.93547E-02 -3.05150E-01 -6.43415E-02  6.33991E-02  1.26085E-01 -1.66785E-01  5.44959E-02  7.98716E-02  1.15548E-01  4.31469E-02
  -2.41430E-01  1.05677E-01  1.22576E-01  6.74465E-02 -1.03915E-01  1.49293E-01  2.89518E-01  1.40990E-01  9.02363E-02 -1.30419E-01
   2.20501E-01  1.20632E-01  1.31151E-01  4.18889E-01 -4.14188E-02  7.28142E-02  2.72476E-02 -1.27333E-01  2.24092E-01  2.36297E-01
   1.90054E-01  2.64006E-01  2.84292E-01  2.35268E-01  1.66457E-01 -1.15666E-01  2.36475E-03  2.61944E-01 -1.32021E-04 -1.89237E-01
   6.93312E-02  2.27662E-01  1.66619E-01 -5.90535E-02 -1.56437E-01 -1.16908E-01 -2.64346E-01 -2.80279E-01  2.23549E-03  2.14135E-02
  -2.48681E-01 -1.15864E-02 -7.69378E-02  8.70104E-02 -9.58533E-03 -1.29683E-01  7.15418E-02 -1.28256E-01 -8.36399E-02 -7.15476E-02
  -2.49391E-01 -2.56727E-01 -2.27551E-02 -3.09843E-01 -9.86443E-02 -2.80009E-01 -1.61943E-01 -6.49306E-02 -2.83415E-01  7.16441E-02
  -8.50240E-02  4.27899E-02 -6.93029E-02 -8.31878E-02 -2.82273E-02  9.09553E-03 -1.23153E-01  2.00458E-01  2.50420E-01  1.55500E-01
   7.52550E-02  1.63324E-01  3.04351E-01  7.72276E-02  3.76297E-01 -4.68243E-03  2.59578E-01  1.76551E-01  4.66765E-01  3.44292E-01
   7.15543E-02  1.20776E-01 -3.24020E-02  5.36997E-01  1.53049E-01 -1.41992E-02 -1.93859E-01 -4.07086E-02 -2.05571E-01  8.55727E-02
   1.59758E-01 -3.91079E-02  1.80511E-01 -3.54266E-02  1.25734E-01  1.21757E-01  2.84771E-01 -1.37469E-01 -3.27215E-01 -1.99888E-01
  -1.64649E-01 -1.17524E-01 -5.04900E-01 -3.65556E-01  3.72879E-02 -3.58386E-01 -1.62702E-01 -2.74414E-01 -3.43500E-01 -1.26928E-01
  -2.32352E-01 -5.53611E-02 -2.99685E-01  1.15122E-01 -7.83874E-02  3.37119E-01  3.38460E-01  2.17849E-01  2.78318E-01 -1.55043E-01
   4.89689E-03 -1.63530E-01  1.85001E-01  8.58767E-03  4.53001E-02 -2.27224E-01 -1.96410E-01  7.98443E-02  1.39644E-01  1.30925E-01
   2.25242E-02  2.04058E-01  9.48977E-02  2.93306E-01  2.10796E-01  2.02264E-01  1.35216E-01  2.58002E-01  1.07928E-01  1.35740E-01
   1.03561E-01  2.02603E-01  3.60146E-01 -1.11552E-01 -8.38173E-02 -6.92411E-02  9.31780E-02  2.59763E-01  3.12885E-01 -1.30064E-01
  -1.49709E-01  5.67191E-03 -2.16688E-01  7.23660E-02 -3.72018E-02 -5.03415E-01 -3.29790E-01 -2.11423E-01 -3.73415E-01 -4.12915E-01
  -5.54580E-01 -3.86371E-01 -1.78042E-01 -3.35009E-01 -1.67508E-01 -4.19779E-02 -3.03245E-01 -5.06557E-02 -2.64083E-01 -2.18963E-01
  -1.57192E-01 -2.74499E-01 -1.16793E-01 -2.52849E-01 -1.87434E-01  6.36174E-03  2.32464E-01  4.63584E-02  2.63107E-01  5.35499E-03
  -6.31351E-02  4.04906E-02 -1.38688E-01  1.56314E-01  2.32013E-01  7.89159E-02 -2.28121E-01 -3.64579E-02  2.01494E-01  4.41102E-02
  -9.03212E-02  4.86143E-02  8.50096E-02  4.09518E-01  2.75229E-01  2.93572E-01  2.77246E-01  1.33959E-01  2.23654E-01  5.51120E-02
   3.60172E-01  4.62363E-02 -3.33349E-02  9.12749E-03  1.21767E-01 -1.25823E-01 -1.67117E-01 -5.55902E-04 -1.36206E-01  1.44899E-01
   6.65539E-02  2.49576E-01  1.79049E-01 -3.88763E-02  2.44407E-02  1.09403E-01  1.66117E-02  1.59100E-01  4.85966E-03  1.53176E-01
   2.71971E-02 -4.08748E-01 -9.15932E-02 -5.97814E-02  1.25402E-01 -2.03868E-01 -7.70696E-02 -1.14852E-01 -2.11425E-01  1.40434E-01
   4.01053E-02  1.01476E-01 -9.32673E-02  1.27888E-01  1.93847E-01  1.29010E-01  1.04955E-01 -1.61633E-01  2.30180E-01  1.95878E-01
   1.17782E-01  2.86531E-01  7.57033E-02  1.12516E-01 -9.46808E-03  4.88160E-03 -1.74756E-01 -7.81651E-03  8.17177E-02 -3.64435E-02
   2.49515E-01  2.13916E-02  2.52632E-01  8.27108E-02 -2.32353E-01 -5.79457E-02  3.30235E-02  1.75062E-01  7.08559E-02  5.35963E-02
   1.36982E-01  8.82074E-02  9.92296E-02  7.91872E-04  5.50456E-02  3.91056E-02 -2.47858E-01 -8.11801E-02  1.00607E-01 -3.36300E-02
  -3.13100E-01 -5.80594E-02 -9.66266E-02  9.37212E-02  1.86717E-01 -1.60469E-01  5.47409E-02 -1.49139E-01  5.07969E-02  2.42262E-02
   8.03908E-02 -3.23616E-02 -1.82750E-01  7.23750E-02
 NY points of the fit to the data follow
   6.91638E-02  3.92749E-02  5.37663E-03 -2.32049E-02 -3.54629E-02 -2.93341E-02 -9.95802E-03  2.71293E-02  3.42993E-02  4.59337E-02
   1.49013E-01  3.60129E-01  4.38844E-01  3.36509E-01  3.12343E-01  4.94535E-01  6.25978E-01  5.24624E-01  3.08314E-01  1.47222E-01
   4.61461E-02  9.25581E-03 -1.03843E-03 -3.42342E-02 -6.50399E-02 -8.97375E-02 -1.07433E-01 -1.20023E-01 -1.31943E-01 -1.43850E-01
  -1.52338E-01 -1.60775E-01 -1.77573E-01 -2.03291E-01 -2.33541E-01 -2.54477E-01 -2.74534E-01 -2.90479E-01 -2.76979E-01 -2.03998E-01
  -1.07709E-01 -3.17396E-02  2.20193E-02  7.62891E-02  1.47589E-01  2.28622E-01  2.73888E-01  2.57018E-01  2.04100E-01  1.54199E-01
   1.04757E-01  5.17617E-02  1.36403E-02 -2.23192E-02 -6.12455E-02 -1.05464E-01 -1.57470E-01 -1.90798E-01 -1.92821E-01 -1.70866E-01
  -1.97419E-01 -2.85392E-01 -3.23466E-01 -3.08997E-01 -2.89279E-01 -2.32643E-01 -7.48058E-02  1.24123E-01  2.41990E-01  3.22340E-01
   3.81847E-01  3.31789E-01  2.39876E-01  1.57757E-01  6.21764E-02 -3.79358E-02 -1.18169E-01 -1.73370E-01 -3.03389E-01 -4.88154E-01
  -5.25758E-01 -3.45499E-01 -1.16458E-01  5.25005E-02  2.38170E-01  4.06861E-01  4.43702E-01  4.01372E-01  3.37959E-01  2.61157E-01
   2.13950E-01  1.89746E-01  1.56761E-01  1.05933E-01  5.13160E-02 -3.27734E-02 -1.40174E-01 -2.78532E-01 -4.10469E-01 -4.72148E-01
  -4.04003E-01 -2.07331E-01  3.60852E-02  2.18996E-01  3.10991E-01  3.18095E-01  2.95520E-01  2.77306E-01  2.64265E-01  2.64611E-01
   2.66182E-01  2.66352E-01  2.65847E-01  2.64026E-01  2.62280E-01  2.62391E-01  2.64407E-01  2.65668E-01  2.51573E-01  2.46372E-01
   2.44273E-01  1.87609E-01  1.09865E-01  3.16441E-02 -2.70098E-02 -1.47200E-01 -2.64779E-01 -3.73792E-01 -5.24424E-01 -6.87664E-01
  -7.54507E-01 -7.04401E-01 -5.43493E-01 -3.70711E-01 -3.56003E-01 -5.89833E-01 -8.40479E-01 -8.33055E-01 -6.04862E-01 -3.23646E-01
  -1.30408E-01 -3.37136E-02 -3.01883E-03  1.00114E-02  3.41284E-02  5.91704E-02  8.30228E-02  1.04895E-01  1.24468E-01  1.41801E-01
   1.58677E-01  1.75892E-01  1.93082E-01  2.11168E-01  2.31257E-01  2.53569E-01  2.79748E-01  3.10280E-01  3.44538E-01  3.85318E-01
   4.43895E-01  5.35265E-01  5.82973E-01  6.48444E-01  7.25471E-01  7.80439E-01  6.30926E-01  1.63128E-01 -4.57216E-01 -9.04770E-01
  -9.90490E-01 -7.92414E-01 -5.92021E-01 -4.59833E-01 -3.97684E-01 -3.86990E-01 -3.49947E-01 -3.17657E-01 -3.00699E-01 -2.88335E-01
  -2.72907E-01 -2.52382E-01 -2.34683E-01 -2.21045E-01 -2.11697E-01 -2.04758E-01 -1.95663E-01 -1.82828E-01 -1.71166E-01 -1.61696E-01
  -1.51999E-01 -1.41517E-01 -1.30515E-01 -1.19316E-01 -1.08325E-01 -9.85321E-02 -8.90300E-02 -7.82215E-02 -6.71616E-02 -5.78641E-02
  -4.89610E-02 -3.64108E-02 -2.16132E-02 -1.41464E-02 -2.00191E-02 -2.91125E-02 -2.51487E-02 -9.75090E-03 -2.31039E-03 -1.37879E-02
  -3.22054E-02 -4.14806E-02 -3.84692E-02 -2.95051E-02 -2.00655E-02 -9.71396E-03  3.75852E-03  1.35020E-02  1.16979E-02  4.67271E-03
   1.60553E-02  4.26024E-02  6.05896E-02  7.99472E-02  1.40304E-01  2.49369E-01  3.20743E-01  2.84507E-01  2.35893E-01  2.87028E-01
   3.84496E-01  3.82137E-01  2.57147E-01  1.15984E-01  1.83300E-02 -3.02638E-02 -3.39306E-02 -2.98745E-02 -3.46378E-02 -4.16945E-02
  -5.04860E-02 -5.86022E-02 -6.34881E-02 -6.65010E-02 -6.90386E-02 -7.23791E-02 -7.50601E-02 -7.78569E-02 -8.24973E-02 -8.44782E-02
  -8.43198E-02 -9.10057E-02 -9.07593E-02 -9.89923E-02 -1.21305E-01 -1.01300E-01 -3.28375E-02  3.84385E-02  6.16605E-02  8.58170E-02
   1.49151E-01  1.79594E-01  1.67925E-01  1.51112E-01  1.50074E-01  1.67905E-01  1.71597E-01  1.64005E-01  1.65684E-01  1.59547E-01
   1.48130E-01  1.22945E-01  8.90379E-02  5.23030E-02  1.96863E-02 -8.70764E-03 -4.06279E-02 -7.89703E-02 -1.16800E-01 -1.56796E-01
  -2.03806E-01 -2.42893E-01 -2.60703E-01 -2.26006E-01 -1.24622E-01  2.47346E-02  1.81168E-01  2.94085E-01  3.51267E-01  3.38147E-01
   2.73097E-01  2.04874E-01  1.57559E-01  1.38232E-01  1.57261E-01  1.95559E-01  2.33836E-01  2.55606E-01  2.61044E-01  2.49789E-01
   2.36977E-01  2.28084E-01  2.19083E-01  2.13804E-01  2.06146E-01  1.96887E-01  1.84845E-01  1.65956E-01  1.44018E-01  1.18214E-01
   9.42224E-02  7.28211E-02  5.86323E-02  5.02096E-02  4.25503E-02  2.89806E-02  4.16600E-04 -4.92475E-02 -9.94565E-02 -1.41456E-01
  -1.71088E-01 -1.84688E-01 -1.78565E-01 -1.57118E-01 -1.23344E-01 -7.78830E-02 -2.33030E-02  3.53243E-02  8.24281E-02  1.02076E-01
   9.32084E-02  4.71448E-02 -1.70591E-02 -6.96054E-02 -1.17160E-01 -1.93883E-01 -2.70020E-01 -3.08447E-01 -3.84702E-01 -3.30976E-01
  -3.13784E-01 -7.62142E-01 -1.58799E+00 -1.96897E+00 -1.49099E+00 -7.29619E-01 -2.40874E-01  2.20363E-02  5.06841E-02 -1.52991E-02
  -8.89531E-03  6.25795E-03  2.08958E-02  3.14822E-02  4.11124E-02  4.73466E-02  5.19732E-02  4.98032E-02  4.00155E-02  2.12715E-02
  -3.26230E-03 -2.77931E-02 -4.73690E-02 -5.88251E-02 -5.79684E-02 -4.89451E-02 -3.34180E-02 -1.54136E-02  6.06981E-04  1.46470E-02
   2.56463E-02  3.63569E-02  4.68250E-02  5.52842E-02  6.08207E-02  6.49981E-02  6.93357E-02  7.44988E-02  7.98615E-02  8.43452E-02
   8.74028E-02  9.04104E-02  9.40322E-02  9.81143E-02  1.02300E-01  1.04923E-01  1.06063E-01  1.07390E-01  1.10342E-01  1.14526E-01
   1.19187E-01  1.23101E-01  1.25098E-01  1.23928E-01  1.20556E-01  1.16220E-01  1.12355E-01  1.09187E-01  1.05312E-01  9.93976E-02
   9.19916E-02  8.41809E-02  7.60460E-02  6.66460E-02  5.71354E-02  4.95730E-02  4.31263E-02  3.63407E-02  2.92814E-02  2.24972E-02
   1.64647E-02  1.14891E-02  7.36103E-03  3.53303E-03 -5.17042E-04 -4.18477E-03 -7.96787E-03 -1.18310E-02 -1.45913E-02 -1.63670E-02
  -1.81736E-02 -1.98659E-02 -2.03757E-02 -1.89477E-02 -1.64526E-02 -1.31184E-02 -8.74815E-03 -4.01312E-03  1.60139E-03  8.32271E-03
   1.36600E-02  1.59836E-02  1.73870E-02  2.12892E-02  2.87718E-02  3.86228E-02  4.88832E-02  5.76763E-02  6.59345E-02  7.57908E-02
   8.77754E-02  1.01361E-01  1.15481E-01  1.29201E-01  1.42398E-01  1.55337E-01  1.68236E-01  1.79478E-01  1.87562E-01  1.92231E-01
   1.93916E-01  1.93522E-01  1.92168E-01  1.89488E-01  1.85661E-01  1.80177E-01  1.71594E-01  1.59154E-01  1.44886E-01  1.31240E-01
   1.19112E-01  1.08224E-01  9.72021E-02  8.53221E-02  7.35836E-02  6.39556E-02  5.61209E-02  4.83932E-02  4.07137E-02  3.42738E-02
   2.90650E-02  2.48235E-02  2.07508E-02  1.76462E-02  1.73518E-02  1.96981E-02  2.30155E-02  2.67854E-02  3.15774E-02  3.67050E-02
   4.21329E-02  4.87794E-02  5.57701E-02  6.15186E-02  6.59554E-02  6.93353E-02  7.11981E-02  7.22067E-02  7.44657E-02  7.80262E-02
   8.10946E-02  8.14990E-02  7.94945E-02  7.66715E-02  7.37111E-02  7.02215E-02  6.54345E-02  6.05561E-02  5.70375E-02  5.37387E-02
   4.99259E-02  4.56545E-02  4.10278E-02  3.67521E-02  3.25731E-02  2.77151E-02  2.22952E-02  1.79957E-02  1.54874E-02  1.28502E-02
   8.79110E-03  3.97796E-03 -1.37830E-03 -8.21807E-03 -1.70369E-02 -2.71034E-02 -3.72202E-02 -4.77795E-02 -5.96242E-02 -7.46156E-02
  -9.35668E-02 -1.14986E-01 -1.36119E-01 -1.55908E-01 -1.75036E-01 -1.93646E-01 -2.09754E-01 -2.23168E-01 -2.35490E-01 -2.46586E-01
  -2.53536E-01 -2.54676E-01 -2.52547E-01 -2.49654E-01 -2.45085E-01 -2.37396E-01 -2.27900E-01 -2.18017E-01 -2.08811E-01 -2.01247E-01
  -1.93987E-01 -1.84989E-01 -1.74180E-01 -1.62597E-01 -1.50379E-01 -1.37089E-01 -1.23965E-01 -1.11282E-01 -9.87218E-02 -8.73112E-02
  -7.70670E-02 -6.63932E-02 -5.50460E-02 -4.50035E-02 -3.79737E-02 -3.13432E-02 -2.28951E-02 -1.46505E-02 -8.89559E-03 -5.20588E-03
  -1.15969E-03  3.51921E-03  7.34258E-03  1.03569E-02  1.22520E-02  1.35204E-02  1.57897E-02  1.74617E-02  1.76547E-02  1.83274E-02
   2.04169E-02  2.30341E-02  2.55872E-02  2.86481E-02  3.10711E-02  3.15589E-02  3.13789E-02  3.11408E-02  3.05426E-02  3.01609E-02
   3.01968E-02  2.99041E-02  2.91182E-02  2.90703E-02  2.96363E-02  2.94031E-02  2.91092E-02  3.03821E-02  3.20642E-02  3.09174E-02
   2.63596E-02  2.26280E-02  2.30604E-02  2.45224E-02  2.44708E-02  2.43987E-02  2.48768E-02  2.43136E-02  2.20651E-02  2.03099E-02
   2.10360E-02  2.31630E-02  2.49992E-02  2.58939E-02  2.62726E-02  2.74329E-02  2.90207E-02  3.01507E-02  3.02784E-02  3.09153E-02
   3.19154E-02  3.14497E-02  2.94587E-02  2.79162E-02  2.79429E-02  2.92069E-02  3.08557E-02  3.30068E-02  3.48038E-02  3.52842E-02
   3.53350E-02  3.62749E-02  3.90951E-02  4.25384E-02  4.43560E-02  4.36527E-02  4.08805E-02  3.85431E-02  3.90610E-02  4.12368E-02
   4.26680E-02  4.22901E-02  4.07988E-02  3.99837E-02  4.08822E-02  4.25810E-02  4.28035E-02  4.18566E-02  4.28000E-02  4.56106E-02
   4.74976E-02  4.77339E-02  4.82229E-02  4.96104E-02  5.13208E-02  5.28789E-02  5.49514E-02  5.90069E-02  6.47210E-02  6.92465E-02
   7.24414E-02  7.47415E-02  7.63459E-02  7.85220E-02
 NY background values follow
    -1.322E-02   -1.269E-02   -1.216E-02   -1.163E-02   -1.110E-02   -1.058E-02   -1.005E-02   -9.519E-03   -8.990E-03   -8.463E-03
    -7.935E-03   -7.407E-03   -6.880E-03   -6.354E-03   -5.828E-03   -5.302E-03   -4.777E-03   -4.253E-03   -3.729E-03   -3.206E-03
    -2.683E-03   -2.162E-03   -1.641E-03   -1.121E-03   -6.018E-04   -8.379E-05    4.332E-04    9.492E-04    1.464E-03    1.978E-03
     2.490E-03    3.001E-03    3.511E-03    4.020E-03    4.527E-03    5.033E-03    5.537E-03    6.040E-03    6.541E-03    7.041E-03
     7.538E-03    8.035E-03    8.529E-03    9.022E-03    9.512E-03    1.000E-02    1.049E-02    1.097E-02    1.146E-02    1.194E-02
     1.242E-02    1.289E-02    1.337E-02    1.384E-02    1.431E-02    1.478E-02    1.525E-02    1.571E-02    1.618E-02    1.664E-02
     1.710E-02    1.755E-02    1.801E-02    1.846E-02    1.891E-02    1.935E-02    1.980E-02    2.024E-02    2.068E-02    2.112E-02
