 LCModel (Version 6.3-1N) Copyright: S.W. Provencher.          Ref.: Magn. Reson. Med. 30:672-679 (1993).                
 Slice_N1@18_24  02-Jun-2023 14:36:53
 27 lines in following concentration table = NCONC+1
    Conc.  %SD /Cr+PCr  Metabolite                                         
 1.45E-06  26% 2.1E-04 Mac                                                 
 1.13E-02  86%   1.636 Cr                                                  
 4.41E-02  22%   6.364 PCr                                                 
 4.73E-02  18%   6.821 Ins                                                 
 8.19E-02   8%  11.821 NAA                                                 
 5.73E-02  14%   8.261 Tau                                                 
 5.61E-03  87%   0.810 PCho                                                
 1.75E-03 279%   0.252 GPC                                                 
 4.52E-02  21%   6.515 Glu                                                 
 2.97E-02  26%   4.284 Gln                                                 
    0.000 999%   0.000 Ala                                                 
 4.60E-03 287%   0.663 Asc                                                 
 9.65E-03  61%   1.393 Asp                                                 
 6.20E-03  53%   0.895 GABA                                                
 5.15E-03  72%   0.743 Glc                                                 
 1.30E-02  34%   1.876 GSH                                                 
 8.72E-03  87%   1.259 Lac                                                 
    0.000 999%   0.000 NAAG                                                
    0.000 999%   0.000 PE                                                  
 7.36E-03  29%   1.062 GPC+PCho                                            
 8.19E-02   8%  11.821 NAA+NAAG                                            
 7.48E-02  16%  10.799 Glu+Gln                                             
 5.54E-02  11%   8.000 Cr+PCr                                              
 8.19E-02   8%  11.821 NAA+NAAG                                            
 5.54E-02  11%   8.000 Cr+PCr                                              
 7.48E-02  16%  10.799 Glu+Gln                                             
   6 lines in following misc. output table
  FWHM = 0.029 ppm    S/N =   4                                            
  Data shift =-0.035 ppm                                                   
  Ph:  39 deg     -13.7 deg/ppm                                            
  alphaB,S = 6.2E+00,   1.3E+01                                            
   18 spline knots.   Ns = 5(1)                                            
   3 inflections.     2 extrema                                            
  654 points on ppm-axis = NY
      4.000000     3.994181     3.988363     3.982544     3.976726     3.970907     3.965088     3.959270     3.953451     3.947633
      3.941814     3.935995     3.930177     3.924358     3.918540     3.912721     3.906902     3.901084     3.895265     3.889446
      3.883628     3.877809     3.871991     3.866172     3.860353     3.854535     3.848716     3.842898     3.837079     3.831260
      3.825442     3.819623     3.813805     3.807986     3.802167     3.796349     3.790530     3.784712     3.778893     3.773074
      3.767256     3.761437     3.755619     3.749800     3.743981     3.738163     3.732344     3.726526     3.720707     3.714888
      3.709070     3.703251     3.697433     3.691614     3.685795     3.679977     3.674158     3.668339     3.662521     3.656702
      3.650884     3.645065     3.639246     3.633428     3.627609     3.621791     3.615972     3.610153     3.604335     3.598516
      3.592698     3.586879     3.581060     3.575242     3.569423     3.563605     3.557786     3.551967     3.546149     3.540330
      3.534512     3.528693     3.522874     3.517056     3.511237     3.505419     3.499600     3.493781     3.487963     3.482144
      3.476326     3.470507     3.464688     3.458870     3.453051     3.447232     3.441414     3.435595     3.429777     3.423958
      3.418139     3.412321     3.406502     3.400684     3.394865     3.389046     3.383228     3.377409     3.371591     3.365772
      3.359953     3.354135     3.348316     3.342498     3.336679     3.330860     3.325042     3.319223     3.313405     3.307586
      3.301767     3.295949     3.290130     3.284312     3.278493     3.272674     3.266856     3.261037     3.255219     3.249400
      3.243581     3.237763     3.231944     3.226125     3.220307     3.214488     3.208670     3.202851     3.197032     3.191214
      3.185395     3.179577     3.173758     3.167939     3.162121     3.156302     3.150484     3.144665     3.138846     3.133028
      3.127209     3.121391     3.115572     3.109753     3.103935     3.098116     3.092298     3.086479     3.080660     3.074842
      3.069023     3.063205     3.057386     3.051567     3.045749     3.039930     3.034111     3.028293     3.022474     3.016656
      3.010837     3.005018     2.999200     2.993381     2.987563     2.981744     2.975925     2.970107     2.964288     2.958470
      2.952651     2.946832     2.941014     2.935195     2.929377     2.923558     2.917739     2.911921     2.906102     2.900284
      2.894465     2.888646     2.882828     2.877009     2.871191     2.865372     2.859553     2.853735     2.847916     2.842098
      2.836279     2.830460     2.824642     2.818823     2.813004     2.807186     2.801367     2.795549     2.789730     2.783911
      2.778093     2.772274     2.766456     2.760637     2.754818     2.749000     2.743181     2.737363     2.731544     2.725725
      2.719907     2.714088     2.708270     2.702451     2.696632     2.690814     2.684995     2.679177     2.673358     2.667539
      2.661721     2.655902     2.650084     2.644265     2.638446     2.632628     2.626809     2.620991     2.615172     2.609353
      2.603535     2.597716     2.591897     2.586079     2.580260     2.574442     2.568623     2.562804     2.556986     2.551167
      2.545349     2.539530     2.533711     2.527893     2.522074     2.516256     2.510437     2.504618     2.498800     2.492981
      2.487163     2.481344     2.475525     2.469707     2.463888     2.458070     2.452251     2.446432     2.440614     2.434795
      2.428977     2.423158     2.417339     2.411521     2.405702     2.399884     2.394065     2.388246     2.382428     2.376609
      2.370790     2.364972     2.359153     2.353335     2.347516     2.341697     2.335879     2.330060     2.324242     2.318423
      2.312604     2.306786     2.300967     2.295149     2.289330     2.283511     2.277693     2.271874     2.266056     2.260237
      2.254418     2.248600     2.242781     2.236963     2.231144     2.225325     2.219507     2.213688     2.207870     2.202051
      2.196232     2.190414     2.184595     2.178777     2.172958     2.167139     2.161321     2.155502     2.149683     2.143865
      2.138046     2.132228     2.126409     2.120590     2.114772     2.108953     2.103135     2.097316     2.091497     2.085679
      2.079860     2.074042     2.068223     2.062404     2.056586     2.050767     2.044949     2.039130     2.033311     2.027493
      2.021674     2.015856     2.010037     2.004218     1.998400     1.992581     1.986763     1.980944     1.975126     1.969307
      1.963489     1.957670     1.951852     1.946033     1.940215     1.934397     1.928578     1.922760     1.916941     1.911123
      1.905304     1.899486     1.893667     1.887849     1.882030     1.876212     1.870393     1.864575     1.858756     1.852938
      1.847119     1.841301     1.835482     1.829664     1.823845     1.818027     1.812208     1.806390     1.800571     1.794753
      1.788934     1.783116     1.777297     1.771479     1.765660     1.759842     1.754023     1.748205     1.742386     1.736568
      1.730749     1.724931     1.719113     1.713294     1.707476     1.701657     1.695839     1.690020     1.684202     1.678383
      1.672565     1.666746     1.660928     1.655109     1.649291     1.643472     1.637654     1.631835     1.626017     1.620198
      1.614380     1.608561     1.602743     1.596924     1.591106     1.585287     1.579469     1.573650     1.567832     1.562013
      1.556195     1.550376     1.544558     1.538739     1.532921     1.527102     1.521284     1.515465     1.509647     1.503829
      1.498010     1.492192     1.486373     1.480555     1.474736     1.468918     1.463099     1.457281     1.451462     1.445644
      1.439825     1.434007     1.428188     1.422370     1.416551     1.410733     1.404914     1.399096     1.393277     1.387459
      1.381640     1.375822     1.370003     1.364185     1.358366     1.352548     1.346729     1.340911     1.335092     1.329274
      1.323455     1.317637     1.311818     1.306000     1.300182     1.294363     1.288545     1.282726     1.276908     1.271089
      1.265271     1.259452     1.253634     1.247815     1.241997     1.236178     1.230360     1.224541     1.218723     1.212904
      1.207086     1.201267     1.195449     1.189630     1.183812     1.177993     1.172175     1.166356     1.160538     1.154719
      1.148901     1.143082     1.137264     1.131445     1.125627     1.119808     1.113990     1.108171     1.102353     1.096534
      1.090716     1.084898     1.079079     1.073261     1.067442     1.061624     1.055805     1.049987     1.044168     1.038350
      1.032531     1.026713     1.020894     1.015076     1.009257     1.003439     0.997620     0.991802     0.985983     0.980165
      0.974346     0.968528     0.962709     0.956891     0.951072     0.945254     0.939435     0.933617     0.927798     0.921980
      0.916161     0.910343     0.904524     0.898706     0.892887     0.887069     0.881251     0.875432     0.869614     0.863795
      0.857977     0.852158     0.846340     0.840521     0.834703     0.828884     0.823066     0.817247     0.811429     0.805610
      0.799792     0.793973     0.788155     0.782336     0.776518     0.770699     0.764881     0.759062     0.753244     0.747425
      0.741607     0.735788     0.729970     0.724151     0.718333     0.712514     0.706696     0.700877     0.695059     0.689240
      0.683422     0.677603     0.671785     0.665967     0.660148     0.654330     0.648511     0.642693     0.636874     0.631056
      0.625237     0.619419     0.613600     0.607782     0.601963     0.596145     0.590326     0.584508     0.578689     0.572871
      0.567052     0.561234     0.555415     0.549597     0.543778     0.537960     0.532141     0.526323     0.520504     0.514686
      0.508867     0.503049     0.497230     0.491412     0.485593     0.479775     0.473956     0.468138     0.462319     0.456501
      0.450682     0.444864     0.439045     0.433227     0.427408     0.421590     0.415771     0.409953     0.404134     0.398316
      0.392497     0.386679     0.380860     0.375042     0.369223     0.363405     0.357586     0.351767     0.345949     0.340130
      0.334312     0.328493     0.322675     0.316856     0.311038     0.305219     0.299401     0.293582     0.287764     0.281945
      0.276127     0.270308     0.264490     0.258671     0.252853     0.247034     0.241216     0.235397     0.229579     0.223760
      0.217942     0.212123     0.206305     0.200486
 NY phased data points follow
  -3.91469E-01 -3.13948E-02 -3.68449E-01 -2.64777E-01 -2.43951E-01 -7.03802E-01 -1.78036E-01  1.58010E-01 -1.76704E-01 -2.93884E-01
  -4.45847E-02  4.36678E-01  2.92665E-01  6.33565E-01  6.78879E-01  2.13070E-01  6.10001E-02  2.42226E-02  2.07607E-01 -1.24986E-01
   2.66719E-02  2.85208E-02  7.37395E-02  1.91810E-01 -3.54861E-02  2.76178E-03  2.98244E-01  1.36611E-01 -1.99155E-01  1.68250E-01
  -8.79852E-02 -3.01831E-01 -1.11690E-01  6.49178E-02 -4.43399E-01 -4.80000E-01 -4.44984E-01 -7.68910E-01  5.19429E-02 -9.27403E-02
  -9.12456E-02  2.09276E-01  1.49304E-01  5.21101E-01  3.91831E-01  1.15478E-01  1.60297E-01  2.88021E-01  1.82718E-01  6.97021E-04
   3.43663E-01  1.73848E-01 -2.61527E-01  1.08728E-01 -8.81533E-02 -1.44025E-01 -1.55593E-01 -2.70754E-01  7.03820E-02 -4.29048E-02
  -4.34069E-01 -3.46578E-01 -7.38045E-02 -1.56281E-01  8.84792E-03 -2.53353E-02 -8.01149E-02  1.10917E-01  1.39030E-01  4.14995E-02
   9.06100E-02 -8.97560E-02  1.73642E-01  5.01663E-01 -2.18094E-01 -2.00232E-01  3.70539E-01  3.31535E-01 -1.10498E-01 -1.84867E-01
  -2.12122E-01 -1.91592E-01 -1.74104E-01  1.48842E-01  4.82559E-01  3.16960E-01  3.44683E-01 -2.93275E-02 -2.01216E-01  3.54795E-02
   1.81131E-01  1.98618E-01  2.80255E-01 -1.73623E-01 -7.07823E-02 -1.87727E-01 -4.25138E-01  2.30906E-01 -1.39600E-01 -2.08599E-01
  -1.82860E-01 -3.66863E-01 -3.15038E-01  3.51993E-02 -3.32250E-02  1.23377E-01  4.02976E-01  4.07993E-01  4.35576E-01 -1.49887E-01
   4.84915E-01  4.16905E-01  6.56843E-02  2.71825E-01  1.69796E-02  3.30011E-01  2.59669E-01  4.88840E-02  2.75390E-01  1.78373E-01
   3.32511E-01  1.72623E-01 -1.92578E-01 -3.58283E-02 -1.16414E-01 -1.88747E-01 -2.83070E-01  3.78691E-04 -2.66402E-01 -2.58126E-01
  -3.91033E-01 -4.34779E-01 -4.91955E-01 -7.01247E-01 -3.22581E-01 -1.01407E+00 -2.91974E-01 -2.29252E-01 -3.41246E-01 -1.62706E-01
  -4.63155E-01 -8.49334E-02 -2.36405E-01  2.37989E-01 -2.62059E-02 -1.34381E-01  4.60237E-01  9.23210E-02 -1.11626E-01  3.18116E-01
   1.12551E-01  4.55025E-02  7.50746E-02  1.75196E-01  2.85734E-01  2.43335E-01  1.87297E-02 -2.30646E-01  7.15516E-01  5.95274E-01
   3.72601E-01  3.36223E-01  4.22591E-01  6.91780E-01  4.35214E-01  4.98353E-01  5.69944E-01  1.83484E-01 -2.86856E-01 -5.13278E-01
  -1.37100E+00 -6.09040E-01 -1.23396E-01 -2.72117E-01 -2.77809E-01 -3.86556E-01 -4.59100E-02 -8.42286E-01 -3.08021E-01 -1.82702E-01
  -3.81941E-01 -7.01676E-02 -5.69774E-01 -4.94975E-01 -6.39066E-01 -4.76277E-01 -1.98291E-01 -4.70212E-01 -2.92746E-01 -2.25935E-01
  -5.32331E-01 -1.62300E-01 -1.15445E-01 -2.86562E-01 -9.82665E-02 -3.63301E-02  8.45713E-02 -1.28795E-01  1.44063E-02  3.03884E-02
  -4.62727E-03  2.20109E-02 -8.58926E-02  2.16257E-01 -6.30208E-02 -1.34253E-01 -1.08774E-01 -2.65166E-01  1.01630E-01  2.62849E-01
   1.55062E-01  6.85431E-02  1.02601E-02  8.54866E-02  1.14706E-01  6.94514E-02 -2.13658E-01 -3.93545E-01  1.47559E-01  1.72993E-01
  -4.00724E-02  3.76781E-02 -6.84653E-02 -1.15776E-01  3.69013E-02  6.72617E-02  3.19400E-01  6.69825E-01  3.86625E-01  3.73510E-01
   1.78519E-01  5.32318E-03  1.84095E-01  3.56107E-01  1.66136E-01 -3.32938E-02  4.95463E-02 -1.30560E-01 -5.30412E-02 -1.47590E-01
  -6.75307E-02  5.43882E-02 -6.70814E-02 -1.66840E-01  1.57395E-01  1.41503E-01  7.49411E-03  1.77917E-01 -1.77240E-01  4.56369E-02
   9.90018E-02  5.30502E-02  3.04220E-02 -6.97864E-02 -2.17242E-01 -3.83583E-01 -6.21213E-02 -1.88321E-01 -1.41341E-01  3.33337E-01
   2.02968E-01 -6.03889E-02  2.37292E-01  2.87157E-01  3.50662E-01  9.77940E-02  2.00693E-01  4.22823E-01 -2.02844E-01  2.78026E-02
   2.03226E-01  4.54380E-01  2.21118E-01 -5.88218E-02  4.15100E-01  1.24956E-01  1.62314E-03 -1.57052E-01 -6.79313E-03 -1.49864E-01
  -2.32945E-01  9.35337E-02 -3.24481E-01 -2.50162E-01 -9.00542E-03  4.97622E-02  1.42063E-01  4.03165E-01  3.99314E-01  5.81114E-01
   3.41081E-01  5.30730E-02  3.20726E-01 -9.12455E-02  4.62238E-01 -1.28671E-01 -4.57561E-01  3.30590E-01 -2.91924E-03  5.44203E-01
   2.24220E-01  1.02327E-01  2.55668E-01 -2.56102E-01  1.74706E-01  1.30150E-01  1.27811E-01 -4.05736E-03 -1.10310E-01  2.82814E-01
   3.36507E-01  2.65617E-01  9.26737E-02  1.16024E-01 -2.56969E-02 -7.75358E-02  5.05764E-02  1.76348E-01  2.97664E-03 -2.57519E-01
  -1.83969E-01 -3.63704E-01 -2.32875E-01 -2.78346E-01 -3.65861E-01 -2.02478E-01 -4.11966E-01 -1.35081E-01  9.97421E-02  2.14883E-02
   2.26471E-01  2.12096E-01  1.91890E-01  4.24907E-03  1.81170E-01  2.72751E-02 -1.78154E-01  2.05403E-01 -3.33604E-01 -2.24369E-01
  -3.61427E-01 -8.70572E-01 -7.02161E-01 -1.26317E+00 -1.65337E+00 -1.19496E+00 -7.04687E-01  2.01358E-01  6.84422E-01  1.23011E-01
   1.36761E-01  3.41159E-01  7.74257E-02  7.83910E-03  2.64812E-01 -1.69780E-01  8.81039E-02  1.27992E-02 -7.87383E-02  2.17855E-01
   1.53461E-01  4.39502E-01 -1.75827E-01 -5.17013E-03 -1.85134E-01  2.22465E-01  9.31351E-02 -1.03881E-01  1.75358E-01 -5.54634E-02
   6.42727E-01  2.28869E-01  3.29557E-01  1.49565E-02  3.89936E-01  2.10575E-01  1.39970E-02  4.75570E-01 -1.22880E-01  1.44575E-01
   6.55640E-02  1.46792E-01 -3.99356E-02  1.91348E-01  1.62459E-01  1.71634E-01  1.78614E-01  1.98720E-02 -4.32489E-02 -1.24734E-02
   4.90080E-01 -3.33085E-01  1.44005E-01  6.09318E-01  1.63659E-01  3.60030E-01  2.77051E-01  2.00749E-01 -8.53158E-02 -9.31472E-02
   4.36304E-01  4.95898E-01  3.79989E-02 -2.84817E-01 -2.62350E-01 -2.62478E-01 -2.59009E-01 -2.47359E-01 -4.30724E-01 -2.45947E-01
  -1.06555E-01 -2.18798E-01 -2.47028E-01 -6.64557E-03 -1.69831E-01 -1.57182E-01  2.26220E-02 -2.42277E-01 -9.42137E-02 -5.69545E-02
  -2.09533E-01 -2.51804E-02  1.68755E-02 -6.05184E-01 -2.53976E-01 -1.19564E-01 -4.24607E-01 -1.44973E-01 -5.12531E-01 -3.99764E-01
  -1.12188E-01 -1.84021E-01 -2.81184E-01 -1.98956E-01 -1.06356E-01 -3.38715E-02  7.49673E-02 -7.59626E-02  1.81367E-01  5.70406E-02
   5.30687E-02  2.47995E-01 -2.87155E-01 -6.53297E-02  1.50133E-01  1.34224E-01  3.96699E-02 -7.89846E-03  4.03736E-01  3.69586E-01
   2.37312E-01 -1.36882E-02  2.73390E-01  5.02154E-01  4.55194E-01  2.17435E-01 -1.26679E-01 -1.76800E-01 -4.08307E-01 -5.59905E-02
   1.25455E-01 -2.55610E-02 -1.05217E-02 -1.20722E-01  2.94888E-01  5.14247E-01 -3.77702E-02  2.64899E-01  2.54497E-01  2.82025E-01
   2.37091E-01 -1.65654E-01  2.79803E-01 -2.31151E-01 -1.72014E-01 -4.63230E-02 -1.01099E-01  1.25646E-01  1.39408E-02 -1.30417E-01
  -2.17179E-01  1.89888E-01 -1.11229E-02  2.42191E-01  3.35861E-02  3.47947E-02  3.47989E-01 -7.88364E-02  3.07505E-01  1.67250E-01
   1.26467E-01  1.48040E-01  1.16506E-01 -4.97019E-02 -1.70497E-01  1.59592E-01 -2.09068E-01 -3.77795E-02 -4.93398E-02  5.53662E-03
   1.66017E-01 -1.21130E-01 -9.95779E-02  8.92211E-02  1.61599E-01  6.67792E-02  3.19285E-01 -4.85874E-02 -1.65190E-02  3.72107E-02
  -2.84106E-01 -2.74106E-01 -2.20384E-01  3.21523E-02  1.37294E-01  3.91219E-02 -2.04095E-01 -1.35487E-02  7.22799E-02  3.70929E-01
   1.61213E-01  1.87693E-01  2.06081E-01 -2.14767E-01  1.19514E-01 -2.71572E-01 -3.22439E-01 -3.04365E-01 -2.85629E-01 -3.02953E-01
  -4.50512E-01  2.22945E-02  1.09281E-02 -6.46273E-02 -8.30382E-02 -4.20597E-01 -3.37138E-01 -1.27584E-01 -1.21113E-01  6.72353E-03
   1.28647E-01  1.06833E-01 -2.19283E-04  4.01699E-02 -2.02268E-02  1.79729E-01  2.33205E-01  3.72807E-01  2.18064E-01  1.18495E-01
   2.33138E-01  1.49720E-02  2.29428E-01 -1.38967E-01  3.25690E-01  2.01395E-01 -2.04435E-01  1.11449E-01  1.21276E-01  4.24622E-01
  -2.21669E-01  4.63210E-02  7.70811E-02 -1.32279E-01  3.45052E-01 -1.01818E-01  3.00935E-01  4.28873E-01  9.40578E-02  2.15034E-01
   1.02235E-01  1.25515E-01  6.14220E-02  1.24823E-01 -2.17232E-01 -1.43301E-01  1.80708E-01 -1.92192E-01 -1.33016E-01 -2.44648E-01
  -8.31898E-02  6.65026E-03 -1.05481E-01  2.49316E-01 -6.15283E-02 -1.01610E-01  3.13450E-02 -3.10291E-01  1.69483E-01  3.48470E-01
   2.22391E-01  4.28847E-01  1.31168E-03 -2.49883E-01  3.71434E-02  9.66522E-02 -2.71288E-01 -1.87884E-01  1.85740E-01 -8.19782E-02
  -1.39314E-01  9.68479E-02 -2.74034E-01 -4.09152E-02  6.39551E-02  3.65631E-02  1.39703E-01 -1.51117E-01  1.88146E-01 -1.56126E-01
  -1.39426E-01  1.10607E-01  4.29805E-02  5.02980E-02  1.04302E-01  2.41930E-01  2.43688E-01 -1.22691E-02 -2.09701E-01  2.16944E-01
  -2.64355E-01 -4.65232E-02  1.42501E-01  1.56360E-01  2.98434E-02 -1.17600E-01  5.34005E-01  2.05536E-01  4.15433E-02 -2.30492E-02
   2.66453E-01  1.49241E-02 -2.18441E-01  1.02645E-01 -2.31292E-01 -2.47691E-01  1.13551E-01  4.55897E-03  1.07095E-01  4.64881E-01
   3.10749E-02 -1.79872E-01 -1.24985E-01  9.01811E-02  1.35167E-01  3.37204E-01  6.94601E-02 -9.74004E-02  2.23931E-01 -1.51354E-01
   9.87546E-02  4.93084E-01  2.71922E-01  1.55844E-01
 NY points of the fit to the data follow
   1.07853E-02  1.23018E-02  1.04826E-02  8.18533E-03  7.06111E-03  9.39611E-03  1.66009E-02  3.76756E-02  7.59309E-02  1.25896E-01
   2.13445E-01  3.20303E-01  4.30122E-01  5.48624E-01  5.56770E-01  3.89307E-01  1.67834E-01  7.02052E-02  1.01351E-01  4.12743E-02
  -8.90366E-04  2.23658E-03 -1.59301E-02 -3.37750E-02 -5.22250E-02 -7.16093E-02 -8.54264E-02 -9.44665E-02 -1.01297E-01 -1.07714E-01
  -1.13678E-01 -1.20910E-01 -1.30252E-01 -1.42148E-01 -1.56197E-01 -1.71648E-01 -1.80725E-01 -1.78380E-01 -1.48525E-01 -8.60883E-02
   7.99568E-03  1.39335E-01  2.67803E-01  3.29692E-01  3.10318E-01  2.65887E-01  2.52669E-01  2.16096E-01  1.64974E-01  1.11417E-01
   6.94426E-02  3.58526E-02  1.75545E-02 -1.75714E-03 -2.49851E-02 -4.74640E-02 -7.19009E-02 -1.00501E-01 -1.27230E-01 -1.49965E-01
  -1.71980E-01 -1.86061E-01 -1.87290E-01 -1.87635E-01 -1.51473E-01 -8.16987E-02 -2.81986E-02  4.59187E-02  1.45255E-01  2.29914E-01
   2.31812E-01  1.93544E-01  2.08424E-01  1.44993E-01  4.74502E-02  3.95280E-03 -4.48135E-02 -9.84873E-02 -1.58790E-01 -2.07797E-01
  -2.33696E-01 -2.26501E-01 -1.39343E-01  1.35786E-02  1.47845E-01  2.11743E-01  2.38657E-01  2.71549E-01  2.36053E-01  1.65454E-01
   1.32666E-01  1.10184E-01  8.90157E-02  6.56132E-02  3.47323E-02 -6.90953E-03 -6.51952E-02 -1.33506E-01 -2.16689E-01 -3.01410E-01
  -3.60267E-01 -3.69068E-01 -2.89259E-01 -1.31503E-01  5.07472E-02  2.01853E-01  2.58962E-01  2.65203E-01  2.24947E-01  2.02275E-01
   1.95295E-01  1.90146E-01  1.85321E-01  1.80683E-01  1.75223E-01  1.70352E-01  1.65675E-01  1.60904E-01  1.54252E-01  1.45469E-01
   1.29395E-01  1.03269E-01  7.37179E-02  3.00600E-02 -2.15300E-02 -6.09086E-02 -1.02371E-01 -1.57980E-01 -2.10466E-01 -2.75031E-01
  -3.82578E-01 -5.18564E-01 -5.81325E-01 -5.46639E-01 -4.74170E-01 -3.95051E-01 -3.27949E-01 -3.88736E-01 -4.10533E-01 -3.60426E-01
  -1.77864E-01 -1.28659E-02  2.68233E-02  3.12392E-02  4.84119E-02  6.51099E-02  8.02240E-02  9.41979E-02  1.07456E-01  1.19585E-01
   1.30849E-01  1.41692E-01  1.52864E-01  1.64773E-01  1.78090E-01  1.92681E-01  2.09588E-01  2.29812E-01  2.53891E-01  2.83633E-01
   3.22519E-01  3.77420E-01  4.38159E-01  4.80959E-01  5.26703E-01  4.98377E-01  3.65130E-01  1.50146E-01 -2.76205E-01 -8.00061E-01
  -1.05451E+00 -8.17421E-01 -3.79195E-01 -3.14133E-01 -3.05290E-01 -2.89990E-01 -2.72754E-01 -2.51196E-01 -2.32954E-01 -2.14568E-01
  -2.12793E-01 -2.14273E-01 -2.02044E-01 -1.82252E-01 -1.70886E-01 -1.75451E-01 -1.78675E-01 -1.75123E-01 -1.68456E-01 -1.59954E-01
  -1.51282E-01 -1.45598E-01 -1.37837E-01 -1.28137E-01 -1.17587E-01 -1.09644E-01 -1.02104E-01 -9.45704E-02 -8.68219E-02 -7.91636E-02
  -7.09611E-02 -6.26076E-02 -5.54580E-02 -4.87341E-02 -4.50175E-02 -4.67800E-02 -5.19431E-02 -5.37688E-02 -4.73593E-02 -4.33868E-02
  -5.20048E-02 -6.85809E-02 -7.97272E-02 -7.61251E-02 -6.78744E-02 -6.36713E-02 -6.13710E-02 -5.96633E-02 -5.78657E-02 -5.52538E-02
  -4.88520E-02 -3.37444E-02 -1.20837E-02  2.26960E-02  7.25628E-02  1.30665E-01  2.01475E-01  2.58841E-01  2.60126E-01  2.08630E-01
   1.70057E-01  2.12285E-01  2.50646E-01  1.91550E-01  5.63524E-02 -6.29861E-02 -9.42289E-02 -8.40988E-02 -9.08298E-02 -9.45733E-02
  -1.00301E-01 -1.05867E-01 -1.10594E-01 -1.13311E-01 -1.14030E-01 -1.12644E-01 -1.11049E-01 -1.10196E-01 -1.08820E-01 -1.09090E-01
  -1.11313E-01 -1.17758E-01 -1.30004E-01 -1.38722E-01 -1.51386E-01 -1.43869E-01 -1.20302E-01 -8.52884E-02 -1.57515E-02  5.61793E-02
   8.93509E-02  8.99790E-02  1.05031E-01  1.58341E-01  1.31532E-01  9.64224E-02  1.18313E-01  1.41009E-01  1.45474E-01  1.37341E-01
   1.58719E-01  1.75524E-01  1.60181E-01  1.39902E-01  9.67150E-02  5.35629E-02  2.20661E-02 -1.47935E-02 -4.49345E-02 -8.17130E-02
  -1.19064E-01 -1.53884E-01 -1.77799E-01 -1.85512E-01 -1.55444E-01 -8.45131E-02  2.63353E-02  1.51963E-01  2.46802E-01  2.93088E-01
   2.75246E-01  2.32017E-01  1.82388E-01  1.35163E-01  1.25437E-01  1.24959E-01  1.32088E-01  1.43654E-01  1.49443E-01  1.51713E-01
   1.42332E-01  1.36352E-01  1.26404E-01  1.20052E-01  1.14684E-01  1.08816E-01  1.02835E-01  9.62936E-02  8.79360E-02  7.73900E-02
   6.42146E-02  4.69232E-02  2.38928E-02 -3.91453E-03 -3.89328E-02 -8.05853E-02 -1.26292E-01 -1.75194E-01 -2.20090E-01 -2.60623E-01
  -2.94149E-01 -3.11442E-01 -3.17886E-01 -3.00294E-01 -2.65516E-01 -2.09012E-01 -1.35679E-01 -6.85709E-02 -4.77711E-03  3.71277E-02
   5.39551E-02  5.30240E-02  2.52037E-02 -3.51725E-03 -3.71680E-02 -5.63225E-02 -6.73086E-02 -8.87019E-02 -1.44436E-01 -2.39772E-01
  -4.14730E-01 -6.89199E-01 -9.89609E-01 -1.34557E+00 -1.57850E+00 -1.34211E+00 -6.50806E-01 -1.18202E-02  5.64220E-02 -2.07529E-02
  -1.44640E-02 -1.70757E-03  9.59895E-03  1.78380E-02  2.45201E-02  2.95184E-02  3.24187E-02  3.39586E-02  3.37734E-02  3.07329E-02
   2.51337E-02  1.74927E-02  9.91680E-03  3.74717E-03 -5.62316E-04 -7.90488E-05  2.26167E-03  9.56692E-03  1.78962E-02  2.53350E-02
   3.28004E-02  3.66829E-02  4.14782E-02  4.47852E-02  4.81732E-02  5.09882E-02  5.32843E-02  5.48754E-02  5.67297E-02  5.91858E-02
   6.14371E-02  6.32396E-02  6.47417E-02  6.60246E-02  6.76819E-02  6.94260E-02  7.09184E-02  7.17979E-02  7.25866E-02  7.32814E-02
   7.49684E-02  7.69922E-02  7.87328E-02  7.95664E-02  7.90606E-02  7.77514E-02  7.52490E-02  7.28643E-02  7.05103E-02  6.82628E-02
   6.53560E-02  6.15162E-02  5.70228E-02  5.23761E-02  4.77815E-02  4.32514E-02  3.86994E-02  3.45051E-02  3.11736E-02  2.80101E-02
   2.42174E-02  2.08671E-02  1.81715E-02  1.61179E-02  1.40547E-02  1.22180E-02  1.05720E-02  8.70813E-03  7.12200E-03  5.73938E-03
   4.56127E-03  3.87843E-03  3.66826E-03  3.63036E-03  4.16919E-03  5.56861E-03  7.87040E-03  1.04159E-02  1.30304E-02  1.62026E-02
   1.93729E-02  2.21551E-02  2.46552E-02  2.65442E-02  2.83577E-02  3.12562E-02  3.62218E-02  4.18208E-02  4.70487E-02  5.18718E-02
   5.66875E-02  6.23903E-02  6.91459E-02  7.64189E-02  8.34945E-02  9.03100E-02  9.66776E-02  1.02685E-01  1.07827E-01  1.11924E-01
   1.14145E-01  1.14406E-01  1.13377E-01  1.11182E-01  1.08114E-01  1.04176E-01  1.00308E-01  9.74815E-02  9.59394E-02  1.01884E-01
   1.13142E-01  1.33405E-01  1.65507E-01  1.90865E-01  1.95105E-01  1.68711E-01  1.25108E-01  9.06957E-02  6.01906E-02  5.99875E-02
   5.51065E-02  4.99451E-02  4.62680E-02  4.31870E-02  4.08736E-02  3.93664E-02  3.91599E-02  4.02833E-02  4.21660E-02  4.41501E-02
   4.63116E-02  4.90886E-02  5.21933E-02  5.51855E-02  5.83281E-02  6.10153E-02  6.27393E-02  6.36809E-02  6.46006E-02  6.55466E-02
   6.64138E-02  6.76170E-02  6.83347E-02  6.78314E-02  6.60361E-02  6.39103E-02  6.20456E-02  5.98801E-02  5.74023E-02  5.47669E-02
   5.23519E-02  5.06625E-02  4.84003E-02  4.56818E-02  4.30787E-02  4.06179E-02  3.81629E-02  3.54949E-02  3.29682E-02  3.07445E-02
   2.90349E-02  2.73577E-02  2.49452E-02  2.15718E-02  1.78195E-02  1.38607E-02  9.02265E-03  3.32870E-03 -2.71020E-03 -9.02287E-03
  -1.64940E-02 -2.55954E-02 -3.60908E-02 -4.73945E-02 -5.84664E-02 -6.85751E-02 -7.77547E-02 -8.63081E-02 -9.42960E-02 -1.00628E-01
  -1.05606E-01 -1.09303E-01 -1.11328E-01 -1.10808E-01 -1.08252E-01 -1.04936E-01 -1.01546E-01 -9.70047E-02 -9.10310E-02 -8.52432E-02
  -8.04387E-02 -7.58045E-02 -7.08000E-02 -6.51045E-02 -5.85195E-02 -5.14028E-02 -4.41799E-02 -3.71358E-02 -2.98524E-02 -2.26729E-02
  -1.63052E-02 -9.98066E-03 -4.01658E-03  1.72109E-03  7.27389E-03  1.23592E-02  1.69283E-02  2.05677E-02  2.44998E-02  2.86678E-02
   3.19696E-02  3.40146E-02  3.58894E-02  3.82519E-02  4.07405E-02  4.19999E-02  4.28961E-02  4.39805E-02  4.47906E-02  4.58422E-02
   4.67119E-02  4.73227E-02  4.83963E-02  5.01236E-02  5.18809E-02  5.29822E-02  5.38750E-02  5.45832E-02  5.44603E-02  5.42693E-02
   5.44657E-02  5.45994E-02  5.45941E-02  5.46392E-02  5.48150E-02  5.48901E-02  5.52183E-02  5.57387E-02  5.59967E-02  5.62914E-02
   5.66044E-02  5.60712E-02  5.47308E-02  5.35305E-02  5.36824E-02  5.52392E-02  5.61698E-02  5.56680E-02  5.53634E-02  5.55079E-02
   5.52727E-02  5.49920E-02  5.55454E-02  5.72685E-02  5.86941E-02  5.94295E-02  6.00501E-02  6.08564E-02  6.20914E-02  6.30219E-02
   6.36703E-02  6.40793E-02  6.45450E-02  6.49253E-02  6.46952E-02  6.44334E-02  6.51723E-02  6.66287E-02  6.82817E-02  6.92743E-02
   7.03984E-02  7.14736E-02  7.23874E-02  7.36237E-02  7.55827E-02  7.75760E-02  7.87296E-02  7.83359E-02  7.77359E-02  7.78159E-02
   7.86408E-02  8.04392E-02  8.16814E-02  8.19694E-02  8.21091E-02  8.27274E-02  8.40708E-02  8.54464E-02  8.66331E-02  8.75748E-02
   8.88192E-02  9.08661E-02  9.31145E-02  9.44488E-02  9.53875E-02  9.73206E-02  9.98447E-02  1.02406E-01  1.05234E-01  1.08820E-01
   1.12884E-01  1.16799E-01  1.19660E-01  1.22073E-01
 NY background values follow
     1.904E-02    1.897E-02    1.890E-02    1.883E-02    1.876E-02    1.869E-02    1.862E-02    1.855E-02    1.848E-02    1.841E-02
     1.834E-02    1.827E-02    1.820E-02    1.813E-02    1.806E-02    1.798E-02    1.791E-02    1.784E-02    1.777E-02    1.770E-02
     1.763E-02    1.756E-02    1.749E-02    1.742E-02    1.735E-02    1.728E-02    1.721E-02    1.714E-02    1.707E-02    1.700E-02
     1.693E-02    1.686E-02    1.679E-02    1.671E-02    1.664E-02    1.657E-02    1.650E-02    1.643E-02    1.636E-02    1.629E-02
     1.622E-02    1.615E-02    1.608E-02    1.601E-02    1.594E-02    1.586E-02    1.579E-02    1.572E-02    1.565E-02    1.558E-02
     1.551E-02    1.544E-02    1.537E-02    1.530E-02    1.523E-02    1.515E-02    1.508E-02    1.501E-02    1.494E-02    1.487E-02
     1.480E-02    1.473E-02    1.466E-02    1.459E-02    1.451E-02    1.444E-02    1.437E-02    1.430E-02    1.423E-02    1.416E-02
