 LCModel (Version 6.3-1N) Copyright: S.W. Provencher.          Ref.: Magn. Reson. Med. 30:672-679 (1993).                
 Slice_N1@19_13  02-Jun-2023 14:37:08
 27 lines in following concentration table = NCONC+1
    Conc.  %SD /Cr+PCr  Metabolite                                         
 2.88E-06  12% 3.2E-04 Mac                                                 
 3.06E-02  15%   3.369 Cr                                                  
 4.20E-02  12%   4.631 PCr                                                 
 6.67E-02  10%   7.352 Ins                                                 
 7.43E-02   8%   8.190 NAA                                                 
 6.78E-02   9%   7.470 Tau                                                 
 6.34E-03  31%   0.698 PCho                                                
 5.55E-03  35%   0.612 GPC                                                 
 8.68E-02  10%   9.562 Glu                                                 
 2.66E-02  23%   2.930 Gln                                                 
 5.88E-03  88%   0.648 Ala                                                 
 7.47E-03 138%   0.823 Asc                                                 
 2.63E-02  27%   2.897 Asp                                                 
 1.31E-02  28%   1.444 GABA                                                
 6.76E-03  73%   0.745 Glc                                                 
 1.33E-02  27%   1.464 GSH                                                 
 8.53E-03  68%   0.940 Lac                                                 
 9.24E-03  37%   1.018 NAAG                                                
    0.000 999%   0.000 PE                                                  
 1.19E-02  14%   1.310 GPC+PCho                                            
 8.36E-02   8%   9.208 NAA+NAAG                                            
    0.113   9%  12.492 Glu+Gln                                             
 7.26E-02   8%   8.000 Cr+PCr                                              
 8.36E-02   8%   9.208 NAA+NAAG                                            
 7.26E-02   8%   8.000 Cr+PCr                                              
    0.113   9%  12.492 Glu+Gln                                             
   6 lines in following misc. output table
  FWHM = 0.012 ppm    S/N =   8                                            
  Data shift = 0.023 ppm                                                   
  Ph: -65 deg     -18.9 deg/ppm                                            
  alphaB,S = 2.0E-01,   4.0E-01                                            
   18 spline knots.   Ns = 5(1)                                            
   2 inflections.     2 extrema                                            
  654 points on ppm-axis = NY
      4.000000     3.994181     3.988363     3.982544     3.976726     3.970907     3.965088     3.959270     3.953451     3.947633
      3.941814     3.935995     3.930177     3.924358     3.918540     3.912721     3.906902     3.901084     3.895265     3.889446
      3.883628     3.877809     3.871991     3.866172     3.860353     3.854535     3.848716     3.842898     3.837079     3.831260
      3.825442     3.819623     3.813805     3.807986     3.802167     3.796349     3.790530     3.784712     3.778893     3.773074
      3.767256     3.761437     3.755619     3.749800     3.743981     3.738163     3.732344     3.726526     3.720707     3.714888
      3.709070     3.703251     3.697433     3.691614     3.685795     3.679977     3.674158     3.668339     3.662521     3.656702
      3.650884     3.645065     3.639246     3.633428     3.627609     3.621791     3.615972     3.610153     3.604335     3.598516
      3.592698     3.586879     3.581060     3.575242     3.569423     3.563605     3.557786     3.551967     3.546149     3.540330
      3.534512     3.528693     3.522874     3.517056     3.511237     3.505419     3.499600     3.493781     3.487963     3.482144
      3.476326     3.470507     3.464688     3.458870     3.453051     3.447232     3.441414     3.435595     3.429777     3.423958
      3.418139     3.412321     3.406502     3.400684     3.394865     3.389046     3.383228     3.377409     3.371591     3.365772
      3.359953     3.354135     3.348316     3.342498     3.336679     3.330860     3.325042     3.319223     3.313405     3.307586
      3.301767     3.295949     3.290130     3.284312     3.278493     3.272674     3.266856     3.261037     3.255219     3.249400
      3.243581     3.237763     3.231944     3.226125     3.220307     3.214488     3.208670     3.202851     3.197032     3.191214
      3.185395     3.179577     3.173758     3.167939     3.162121     3.156302     3.150484     3.144665     3.138846     3.133028
      3.127209     3.121391     3.115572     3.109753     3.103935     3.098116     3.092298     3.086479     3.080660     3.074842
      3.069023     3.063205     3.057386     3.051567     3.045749     3.039930     3.034111     3.028293     3.022474     3.016656
      3.010837     3.005018     2.999200     2.993381     2.987563     2.981744     2.975925     2.970107     2.964288     2.958470
      2.952651     2.946832     2.941014     2.935195     2.929377     2.923558     2.917739     2.911921     2.906102     2.900284
      2.894465     2.888646     2.882828     2.877009     2.871191     2.865372     2.859553     2.853735     2.847916     2.842098
      2.836279     2.830460     2.824642     2.818823     2.813004     2.807186     2.801367     2.795549     2.789730     2.783911
      2.778093     2.772274     2.766456     2.760637     2.754818     2.749000     2.743181     2.737363     2.731544     2.725725
      2.719907     2.714088     2.708270     2.702451     2.696632     2.690814     2.684995     2.679177     2.673358     2.667539
      2.661721     2.655902     2.650084     2.644265     2.638446     2.632628     2.626809     2.620991     2.615172     2.609353
      2.603535     2.597716     2.591897     2.586079     2.580260     2.574442     2.568623     2.562804     2.556986     2.551167
      2.545349     2.539530     2.533711     2.527893     2.522074     2.516256     2.510437     2.504618     2.498800     2.492981
      2.487163     2.481344     2.475525     2.469707     2.463888     2.458070     2.452251     2.446432     2.440614     2.434795
      2.428977     2.423158     2.417339     2.411521     2.405702     2.399884     2.394065     2.388246     2.382428     2.376609
      2.370790     2.364972     2.359153     2.353335     2.347516     2.341697     2.335879     2.330060     2.324242     2.318423
      2.312604     2.306786     2.300967     2.295149     2.289330     2.283511     2.277693     2.271874     2.266056     2.260237
      2.254418     2.248600     2.242781     2.236963     2.231144     2.225325     2.219507     2.213688     2.207870     2.202051
      2.196232     2.190414     2.184595     2.178777     2.172958     2.167139     2.161321     2.155502     2.149683     2.143865
      2.138046     2.132228     2.126409     2.120590     2.114772     2.108953     2.103135     2.097316     2.091497     2.085679
      2.079860     2.074042     2.068223     2.062404     2.056586     2.050767     2.044949     2.039130     2.033311     2.027493
      2.021674     2.015856     2.010037     2.004218     1.998400     1.992581     1.986763     1.980944     1.975126     1.969307
      1.963489     1.957670     1.951852     1.946033     1.940215     1.934397     1.928578     1.922760     1.916941     1.911123
      1.905304     1.899486     1.893667     1.887849     1.882030     1.876212     1.870393     1.864575     1.858756     1.852938
      1.847119     1.841301     1.835482     1.829664     1.823845     1.818027     1.812208     1.806390     1.800571     1.794753
      1.788934     1.783116     1.777297     1.771479     1.765660     1.759842     1.754023     1.748205     1.742386     1.736568
      1.730749     1.724931     1.719113     1.713294     1.707476     1.701657     1.695839     1.690020     1.684202     1.678383
      1.672565     1.666746     1.660928     1.655109     1.649291     1.643472     1.637654     1.631835     1.626017     1.620198
      1.614380     1.608561     1.602743     1.596924     1.591106     1.585287     1.579469     1.573650     1.567832     1.562013
      1.556195     1.550376     1.544558     1.538739     1.532921     1.527102     1.521284     1.515465     1.509647     1.503829
      1.498010     1.492192     1.486373     1.480555     1.474736     1.468918     1.463099     1.457281     1.451462     1.445644
      1.439825     1.434007     1.428188     1.422370     1.416551     1.410733     1.404914     1.399096     1.393277     1.387459
      1.381640     1.375822     1.370003     1.364185     1.358366     1.352548     1.346729     1.340911     1.335092     1.329274
      1.323455     1.317637     1.311818     1.306000     1.300182     1.294363     1.288545     1.282726     1.276908     1.271089
      1.265271     1.259452     1.253634     1.247815     1.241997     1.236178     1.230360     1.224541     1.218723     1.212904
      1.207086     1.201267     1.195449     1.189630     1.183812     1.177993     1.172175     1.166356     1.160538     1.154719
      1.148901     1.143082     1.137264     1.131445     1.125627     1.119808     1.113990     1.108171     1.102353     1.096534
      1.090716     1.084898     1.079079     1.073261     1.067442     1.061624     1.055805     1.049987     1.044168     1.038350
      1.032531     1.026713     1.020894     1.015076     1.009257     1.003439     0.997620     0.991802     0.985983     0.980165
      0.974346     0.968528     0.962709     0.956891     0.951072     0.945254     0.939435     0.933617     0.927798     0.921980
      0.916161     0.910343     0.904524     0.898706     0.892887     0.887069     0.881251     0.875432     0.869614     0.863795
      0.857977     0.852158     0.846340     0.840521     0.834703     0.828884     0.823066     0.817247     0.811429     0.805610
      0.799792     0.793973     0.788155     0.782336     0.776518     0.770699     0.764881     0.759062     0.753244     0.747425
      0.741607     0.735788     0.729970     0.724151     0.718333     0.712514     0.706696     0.700877     0.695059     0.689240
      0.683422     0.677603     0.671785     0.665967     0.660148     0.654330     0.648511     0.642693     0.636874     0.631056
      0.625237     0.619419     0.613600     0.607782     0.601963     0.596145     0.590326     0.584508     0.578689     0.572871
      0.567052     0.561234     0.555415     0.549597     0.543778     0.537960     0.532141     0.526323     0.520504     0.514686
      0.508867     0.503049     0.497230     0.491412     0.485593     0.479775     0.473956     0.468138     0.462319     0.456501
      0.450682     0.444864     0.439045     0.433227     0.427408     0.421590     0.415771     0.409953     0.404134     0.398316
      0.392497     0.386679     0.380860     0.375042     0.369223     0.363405     0.357586     0.351767     0.345949     0.340130
      0.334312     0.328493     0.322675     0.316856     0.311038     0.305219     0.299401     0.293582     0.287764     0.281945
      0.276127     0.270308     0.264490     0.258671     0.252853     0.247034     0.241216     0.235397     0.229579     0.223760
      0.217942     0.212123     0.206305     0.200486
 NY phased data points follow
  -2.08900E-01 -4.68704E-01 -3.85253E-01 -1.03671E-01  1.36478E-01 -8.00921E-02 -3.35398E-01 -3.55249E-02  4.97665E-03 -4.46685E-02
   4.42846E-01  1.14294E+00  6.27584E-01  1.10101E-01  2.71730E-01  7.96651E-01  1.53855E-01  1.09228E-03  1.93365E-01 -3.65692E-02
   3.85427E-01  3.94415E-02  5.60897E-02  4.51808E-03 -9.04187E-03 -1.80007E-01 -1.50832E-01  3.48668E-02 -3.66035E-01 -1.25950E-01
  -1.02952E-01 -2.77636E-01 -2.35251E-01 -3.67167E-01 -3.98601E-01 -4.16997E-01 -5.23136E-01 -4.04522E-01 -4.11346E-01 -2.70688E-02
   2.95520E-01  3.49443E-01  5.71001E-01  4.55355E-01  4.97880E-01  7.02844E-01  6.54908E-01  3.71099E-01  2.10988E-01 -4.70414E-02
  -8.03009E-02  1.10059E-01 -6.11872E-02 -1.21310E-01 -1.02218E-01 -8.93160E-02 -7.63756E-02 -2.25154E-01 -2.80060E-01 -5.00322E-01
  -4.93017E-01 -4.18919E-01 -2.92093E-01 -1.85680E-02 -4.93465E-01 -7.16313E-02  3.24436E-01 -7.09008E-02  2.00004E-01  2.91268E-01
   7.11326E-02  8.23795E-02  1.28063E-01  1.61113E-02  8.06274E-03 -1.50403E-01 -1.43648E-01 -2.73378E-01 -3.91409E-01 -4.13998E-01
  -4.31146E-01  4.42757E-02  2.64408E-01  4.84821E-01  6.54678E-01  8.17082E-01  5.16003E-01  6.11595E-02  2.00995E-02  1.79900E-01
   3.95478E-01 -1.67356E-01 -1.09350E-01  6.18357E-02 -7.07335E-02  1.44060E-01 -7.22322E-02 -3.14252E-01 -3.09636E-01 -3.03611E-01
  -4.56137E-01 -2.57005E-02  4.21673E-01  4.73573E-01  3.78168E-01  3.90520E-01  5.16427E-01  5.19692E-01  6.63654E-01  3.08984E-01
   1.97504E-01  2.13033E-01  3.96926E-01  5.44357E-01  4.02148E-01  2.83201E-01  1.31050E-01  3.16364E-01  1.54489E-01  4.79761E-01
   2.00155E-01 -2.70063E-01  1.68197E-01  1.28582E-02 -2.87978E-01 -1.59746E-01 -4.12103E-02 -5.44031E-01 -6.69609E-01 -7.29230E-01
  -8.39096E-01 -7.04172E-01 -7.85856E-01 -5.54306E-01 -5.49887E-01 -9.32032E-01 -9.31712E-01 -6.64006E-01 -4.04661E-01 -1.21113E-01
  -1.15957E-01 -1.57480E-01 -3.44659E-01 -1.30108E-01  1.91181E-01  1.32616E-01  2.16769E-01  1.45789E-01  2.74473E-01  1.58310E-01
   1.34606E-01  2.76555E-01  2.81294E-01  3.68253E-01  3.26965E-01  2.86365E-01  2.14119E-01  4.38946E-01  4.73919E-01  4.48045E-01
   4.87610E-01  4.78917E-01  6.65967E-01  8.64176E-01  1.27301E+00  1.49968E+00  6.04756E-01 -8.30496E-01 -1.42429E+00 -1.19247E+00
  -8.01156E-01 -6.19493E-01 -2.75727E-01 -5.66673E-01 -5.38785E-01 -2.57738E-01 -6.18201E-01 -3.99787E-01 -4.19598E-01 -9.13228E-02
  -2.71367E-01 -3.11600E-01 -7.34657E-03 -3.53647E-01 -2.31821E-01 -4.06776E-01 -1.20540E-01 -2.97354E-01 -3.53025E-01  1.09197E-01
  -1.48562E-01 -8.82382E-02  3.40472E-02 -1.09332E-01 -1.44784E-01  5.21081E-02 -1.96041E-01 -1.70250E-03  2.01898E-03 -2.48266E-01
  -4.68601E-03 -2.93843E-01  3.19445E-01  2.86369E-01 -1.42374E-01  3.04054E-01 -5.54777E-02  2.67940E-01  3.60352E-01 -5.79423E-02
   4.16269E-02  1.24607E-02 -1.84705E-01 -1.97340E-01  1.06553E-02 -2.07581E-01 -2.75020E-02  1.39831E-02  9.99853E-02  2.48108E-01
   8.07525E-02  3.20006E-02  1.66321E-01  2.36263E-01  7.27456E-02  7.60701E-01  5.26496E-01  2.03523E-01  5.41474E-01  4.41874E-01
   5.45814E-01  1.53333E-01 -2.74876E-01 -7.72096E-02  9.63993E-03 -6.79932E-02 -1.14336E-01 -4.10755E-01 -1.33534E-01 -1.63002E-01
  -1.04526E-01  1.15132E-01 -2.17562E-01 -1.08998E-01 -2.36754E-02 -8.20850E-02 -2.97849E-01 -9.58893E-02 -1.62176E-02  3.34928E-03
   1.68335E-01 -5.24931E-02 -2.54242E-01 -1.55862E-01 -2.17230E-01 -3.95096E-01  1.25930E-01  1.58151E-01 -7.90782E-02  7.30690E-02
   1.50006E-01  5.01823E-02 -1.30249E-01  1.02480E-01  3.76685E-01 -1.47591E-01 -1.09922E-01  2.10498E-01  1.62618E-01  3.90332E-01
  -5.85083E-02 -2.14595E-01 -2.09679E-01 -1.31446E-01 -9.53285E-02 -3.33546E-01 -1.81012E-01  7.94357E-03 -3.07798E-01 -4.52693E-01
  -2.61735E-01 -5.28581E-01 -2.60308E-01 -9.80601E-02  4.67297E-01  4.70179E-01  3.77627E-01  8.29063E-01  4.00126E-01  4.69585E-01
   1.75555E-01  2.98258E-03  2.37488E-01  1.72993E-01 -7.95109E-02  1.27391E-02  2.13960E-01  2.47797E-01  1.36347E-01  1.91080E-01
   3.45102E-01  5.83443E-04  4.22346E-01  4.68483E-01  5.75265E-01  4.03451E-01  8.54728E-03  5.39402E-01  4.03048E-01  2.12536E-01
   2.19549E-01  4.15875E-02  1.83371E-01 -3.86314E-02 -3.99845E-01  2.17669E-01  1.62534E-01 -2.64177E-01 -3.42306E-01 -2.81513E-01
  -3.61445E-01 -3.23901E-01 -1.16358E-01 -6.79135E-01 -1.55889E-01  1.43322E-01  8.82627E-03  2.20372E-01  5.94396E-02  2.93452E-01
   3.34870E-01  2.05363E-01  2.21097E-02 -2.74572E-01 -3.60827E-01 -2.19837E-01 -4.45004E-01 -6.86013E-01 -3.49855E-01 -1.58494E-01
  -2.83854E-01 -1.62441E+00 -3.00032E+00 -1.47283E+00 -1.75112E-01 -2.05058E-01  3.12964E-01  1.10726E-01 -4.79930E-02  2.32444E-01
   2.86538E-01  2.03626E-01  4.41466E-01  3.24058E-01  1.34969E-01  1.69411E-01 -1.08886E-01  3.13995E-01  1.97024E-01 -6.18905E-02
   3.37725E-01  1.95869E-01  7.43561E-02  5.05167E-02  4.01695E-02  3.35403E-02 -1.30959E-01  1.07968E-01  2.57956E-01  6.90718E-02
   1.77576E-02 -7.63285E-02  5.08874E-02  3.20757E-01  4.90460E-04  1.37976E-02  4.14822E-01  1.08914E-01  1.08182E-01  2.71249E-01
   5.28815E-02  2.98786E-03  1.48713E-01  1.89360E-01  3.20566E-01  4.12092E-01  1.41742E-01  1.69275E-01  2.73223E-01  3.71548E-01
   3.35872E-01  3.15607E-01  3.37293E-01  2.50592E-01  2.13150E-01  2.62811E-03  2.44530E-01  4.13022E-01  2.22663E-01  7.87501E-02
  -6.70716E-02 -1.08284E-01 -2.34124E-01 -1.61623E-01 -1.27800E-01 -1.10997E-01  6.54572E-02 -4.92384E-02 -1.05559E-01  1.95342E-02
   1.39615E-01 -2.08043E-01 -2.74849E-01 -5.50134E-02 -2.09757E-01 -7.51689E-02 -2.64780E-01 -1.21482E-01 -6.39832E-02 -3.72546E-01
  -1.98873E-01 -2.81850E-01 -3.29471E-01 -2.07584E-01 -2.71253E-01 -4.24957E-01 -1.77713E-01 -1.46455E-01 -8.31022E-02  6.76875E-02
  -2.30491E-01 -2.43537E-01 -1.36422E-01  9.29466E-02  1.84837E-01  1.14993E-01  1.08893E-01 -1.29111E-01 -3.49688E-01 -4.84007E-02
  -3.10981E-02 -1.84010E-01  1.11239E-02  4.54899E-02  3.19501E-01  1.03698E-01  1.41032E-01  4.08313E-01  1.83600E-01  3.67744E-01
   2.52807E-01  1.42658E-01  2.77121E-01  1.11985E-01  2.63741E-02  1.50988E-01 -4.21642E-02 -2.28066E-01 -3.77005E-01 -1.71451E-01
   2.83276E-01  3.19167E-01  3.48575E-01  3.06571E-02  4.32534E-02 -3.69202E-02 -2.47408E-01 -1.55037E-01 -2.32482E-01 -2.57649E-01
  -2.12035E-01 -4.86157E-02 -1.49849E-01 -3.17447E-01 -3.26793E-01 -1.64650E-02 -2.10716E-01 -2.92778E-01  1.22164E-02 -2.34124E-01
  -2.45828E-01 -2.61636E-02  2.01296E-01  5.68603E-02  5.75038E-02  2.27149E-01 -4.69994E-03  1.34256E-01  6.74048E-02 -1.33014E-01
   3.19198E-01 -4.05760E-04  5.15234E-02  2.53337E-01 -1.83259E-01 -4.84470E-02 -1.33504E-01  1.06659E-01 -6.96053E-02 -3.73700E-02
   5.23583E-02 -1.42644E-01  5.15684E-01  7.85723E-02 -1.89353E-01  4.14951E-01  1.34634E-01  5.04436E-02  2.26015E-01  2.32600E-01
   2.76760E-01  4.00603E-02  4.45629E-01  3.46535E-01  3.13282E-02  1.49395E-01 -1.97975E-01 -6.24857E-02  3.59309E-02 -1.63115E-01
  -1.77256E-02  4.69611E-02 -1.05289E-01  1.05833E-02 -8.61800E-02 -2.24636E-01 -5.02371E-01 -5.63974E-01 -5.44140E-01 -6.58603E-01
  -5.44722E-01 -4.83684E-01 -1.50919E-01 -2.23820E-01  4.67898E-03 -6.61712E-02 -3.06833E-01 -5.21366E-02 -2.61172E-02 -1.89338E-01
  -2.08509E-01 -1.22972E-02 -2.41814E-02  1.87111E-01 -1.27345E-01 -1.97424E-01  8.46822E-02  1.89894E-01  8.70326E-02 -5.00488E-02
   1.16454E-01  2.71768E-02  1.47423E-01  1.68187E-01  2.74103E-01  2.85741E-01  2.04852E-01 -3.45352E-02 -4.04159E-02  3.45858E-01
   1.63530E-01  2.64110E-02 -5.63767E-02  1.32777E-01  2.57499E-01  2.02322E-01  2.53004E-01  7.97875E-02  9.83874E-02  1.05052E-02
   4.49982E-02  4.21416E-01  2.22055E-01 -1.09024E-01 -1.48866E-03  9.58615E-02  2.23245E-01  2.51348E-01  2.23908E-01  7.29971E-02
  -8.87394E-02 -3.68718E-02 -5.59646E-02 -1.77300E-02 -2.56639E-02  2.68065E-02 -9.01477E-02 -2.60947E-01 -2.15871E-02  7.01544E-02
  -2.20275E-02  1.70288E-01  1.40428E-01  1.64273E-01  6.02730E-02 -2.36035E-01 -9.16428E-03 -1.99651E-01 -8.28310E-03  4.84485E-02
   3.22334E-02  1.01350E-01 -1.03334E-01  2.15024E-01  7.65427E-02  1.67162E-01  7.24959E-02 -9.23289E-02 -1.73553E-01 -1.66656E-01
   1.51428E-01  5.19091E-02  3.51969E-02  1.28437E-01  9.66315E-02  1.66748E-01 -2.54659E-03  7.00509E-02  3.65723E-01 -1.08181E-01
   1.42917E-01 -3.85949E-02 -6.17562E-02 -7.12009E-03  1.23690E-02  2.57848E-01 -2.20090E-01  3.44279E-01  1.24742E-01 -5.61918E-02
   6.53686E-02  1.51886E-01 -1.41981E-02 -9.48733E-02  2.04306E-02 -5.89751E-02  3.85700E-01  1.57520E-01  8.29135E-02 -1.57911E-01
   8.24329E-02 -5.49756E-03  6.33941E-02  3.32394E-01  5.66275E-02  3.16402E-02 -1.44185E-01 -9.02722E-02 -1.41590E-01  1.24787E-01
  -6.79543E-02 -1.44032E-01 -1.57862E-01 -1.00934E-01
 NY points of the fit to the data follow
  -3.75729E-02 -4.28899E-02 -4.60849E-02 -5.71204E-02 -5.42996E-02 -3.77512E-02 -1.55062E-03  3.41470E-02  3.27635E-02  6.23063E-02
   4.85110E-01  9.06309E-01  5.55788E-01  1.61375E-01  4.55872E-01  6.38393E-01  2.65399E-01  1.13258E-01  1.33463E-01  2.94792E-02
   5.30212E-02  3.44418E-02 -3.65633E-02 -9.25708E-02 -1.27031E-01 -1.51864E-01 -1.70734E-01 -1.86895E-01 -1.92933E-01 -2.06400E-01
  -2.23680E-01 -2.31403E-01 -2.46205E-01 -2.84953E-01 -3.24641E-01 -3.51243E-01 -3.77440E-01 -3.89280E-01 -3.41966E-01 -9.12971E-02
   2.37923E-01  2.98653E-01  3.77006E-01  4.88448E-01  4.49545E-01  4.36620E-01  2.83774E-01  1.40173E-01  8.75104E-02  4.47714E-02
   3.36955E-02 -1.54926E-02 -2.73863E-02 -4.96834E-02 -9.14027E-02 -1.45823E-01 -1.89717E-01 -1.96687E-01 -1.96718E-01 -2.20149E-01
  -3.01130E-01 -4.14978E-01 -2.96456E-01 -1.50974E-01 -3.88179E-01 -1.19825E-01  3.93192E-01  1.76002E-01  2.76111E-01  5.31134E-01
   3.08828E-01  2.15859E-01  1.60098E-01  4.62101E-02 -1.74577E-02 -9.36482E-02 -1.58531E-01 -2.49065E-01 -5.05008E-01 -6.91350E-01
  -3.08447E-01  5.68727E-02 -1.52662E-02  2.66118E-01  5.78599E-01  4.63373E-01  3.97757E-01  3.36490E-01  2.37674E-01  2.09447E-01
   1.87262E-01  1.71334E-01  1.38813E-01  8.83266E-02  3.56421E-02 -4.63223E-02 -1.86220E-01 -3.90128E-01 -5.46520E-01 -5.97028E-01
  -4.40099E-01 -9.89534E-02  1.85912E-01  3.74501E-01  3.98013E-01  3.31549E-01  2.96643E-01  2.64164E-01  2.59311E-01  2.58617E-01
   2.64558E-01  2.66499E-01  2.63630E-01  2.61199E-01  2.60151E-01  2.59696E-01  2.62789E-01  2.59212E-01  2.48459E-01  2.47042E-01
   2.28656E-01  9.09143E-02  1.02090E-02  9.59990E-02 -1.18206E-01 -2.78317E-01 -3.82498E-02 -3.32719E-01 -6.11786E-01 -6.85789E-01
  -9.31265E-01 -6.40037E-01 -4.31408E-01 -2.13315E-01 -3.35759E-01 -9.67641E-01 -9.52359E-01 -6.78541E-01 -3.36512E-01 -7.86163E-02
   3.57452E-03  5.37799E-02  5.02306E-02  6.47565E-02  8.72765E-02  1.13509E-01  1.35630E-01  1.56979E-01  1.78056E-01  1.92702E-01
   2.10459E-01  2.31456E-01  2.48616E-01  2.68607E-01  2.93325E-01  3.21325E-01  3.52834E-01  3.93256E-01  4.37317E-01  4.85767E-01
   5.65767E-01  6.76782E-01  7.62684E-01  8.25926E-01  1.06392E+00  1.31603E+00  5.92153E-01 -1.03173E+00 -1.64212E+00 -1.13498E+00
  -7.95704E-01 -5.06530E-01 -3.29633E-01 -3.64931E-01 -3.86120E-01 -3.82138E-01 -3.16223E-01 -2.94674E-01 -2.98608E-01 -3.03757E-01
  -2.60166E-01 -2.29097E-01 -2.35304E-01 -2.22545E-01 -2.27481E-01 -2.26020E-01 -2.07844E-01 -1.91948E-01 -1.81737E-01 -1.75210E-01
  -1.60062E-01 -1.45264E-01 -1.31787E-01 -1.18119E-01 -1.04311E-01 -9.38390E-02 -8.33971E-02 -6.80256E-02 -5.29204E-02 -3.89892E-02
  -2.64299E-02 -1.95138E-03  4.66281E-02  7.08158E-02  2.23677E-02 -3.06391E-02 -1.02119E-02  6.38134E-02  1.05652E-01  2.82709E-02
  -6.51039E-02 -7.20888E-02 -6.45368E-02 -5.27385E-02 -2.97805E-02 -1.76152E-02 -1.40566E-03  1.58224E-02  4.04700E-03 -1.59121E-02
   4.55307E-04  4.26161E-02  7.01729E-02  7.71245E-02  2.35577E-01  4.97276E-01  4.15655E-01  1.83198E-01  2.35541E-01  3.54396E-01
   4.18501E-01  3.26719E-01  1.19190E-01  4.96091E-02 -1.47862E-02 -6.29361E-02 -4.41541E-02 -5.31248E-02 -5.68083E-02 -6.40221E-02
  -7.66853E-02 -8.25773E-02 -8.46073E-02 -8.50644E-02 -8.32895E-02 -9.11596E-02 -8.67622E-02 -8.11586E-02 -7.89044E-02 -7.00883E-02
  -8.73662E-02 -8.29644E-02 -9.82065E-02 -1.26906E-01 -1.31237E-01 -1.45090E-01  1.96218E-02  1.11835E-01 -1.07001E-02  7.52292E-02
   2.08835E-01  1.67915E-01  3.86722E-02  4.64319E-02  1.76699E-01  8.42656E-02  8.22834E-02  1.59111E-01  1.39379E-01  2.06198E-01
   1.72250E-01  1.14932E-01  6.85799E-02 -1.53018E-02 -4.69082E-02 -1.04200E-01 -1.50183E-01 -2.09010E-01 -2.78657E-01 -3.49015E-01
  -4.86280E-01 -5.28802E-01 -4.05682E-01 -2.66641E-01  1.06760E-01  4.32349E-01  5.25835E-01  6.88878E-01  5.99987E-01  4.05985E-01
   3.44394E-01  2.36072E-01  1.91882E-01  1.87142E-01  1.68412E-01  2.21892E-01  2.73934E-01  2.86047E-01  3.24075E-01  3.12267E-01
   2.85016E-01  2.80719E-01  2.57622E-01  2.51388E-01  2.46328E-01  2.30844E-01  2.16308E-01  2.00821E-01  1.67021E-01  1.26557E-01
   1.00245E-01  5.37149E-02  2.63504E-02  1.23772E-02 -2.81938E-02 -6.38421E-02 -1.41982E-01 -2.25248E-01 -2.93598E-01 -3.30062E-01
  -3.80877E-01 -4.03644E-01 -3.52011E-01 -3.35992E-01 -2.31944E-01 -9.94819E-02  2.75267E-02  1.40620E-01  1.70579E-01  1.28383E-01
   4.35715E-02 -3.33717E-02 -1.67323E-01 -2.08580E-01 -2.32455E-01 -2.83447E-01 -4.34811E-01 -5.78575E-01 -3.96898E-01 -2.49875E-01
  -2.46596E-01 -1.74638E+00 -2.98799E+00 -1.38334E+00 -3.47158E-01 -1.65710E-01  2.98737E-01  1.55370E-01  6.15575E-02  5.01565E-02
   5.39555E-02  6.55523E-02  7.56517E-02  8.06674E-02  8.43849E-02  9.25480E-02  9.78467E-02  9.66750E-02  8.93426E-02  7.73115E-02
   3.78089E-02  9.44671E-03 -2.11293E-02 -6.64541E-02 -5.80192E-02 -5.67073E-02 -3.48443E-02  2.36280E-03  1.22820E-02  3.52300E-02
   4.43616E-02  5.47891E-02  6.80454E-02  7.60554E-02  7.59914E-02  7.97721E-02  8.43340E-02  8.84420E-02  9.56326E-02  9.82917E-02
   9.85956E-02  1.01506E-01  1.05918E-01  1.09577E-01  1.14298E-01  1.15737E-01  1.13503E-01  1.13247E-01  1.17586E-01  1.23326E-01
   1.27031E-01  1.33288E-01  1.33473E-01  1.29338E-01  1.23893E-01  1.16514E-01  1.12733E-01  1.09505E-01  1.04755E-01  9.69306E-02
   8.66451E-02  7.71842E-02  6.88138E-02  5.59284E-02  4.28008E-02  3.64178E-02  3.06501E-02  2.16462E-02  1.18170E-02  5.24775E-03
  -1.71760E-03 -8.50415E-03 -1.02958E-02 -1.62207E-02 -2.17246E-02 -2.44258E-02 -3.05154E-02 -3.50775E-02 -3.75823E-02 -3.98670E-02
  -4.08734E-02 -4.47523E-02 -4.63725E-02 -4.12294E-02 -3.93209E-02 -3.67164E-02 -2.92434E-02 -2.33326E-02 -1.52823E-02  9.24039E-05
   1.30623E-02  1.61380E-02  2.82850E-02  9.17997E-02  1.26060E-01  1.12805E-01  1.16793E-01  5.90414E-02  2.09419E-02  4.08610E-02
   4.91368E-02  7.44421E-02  9.33002E-02  1.10383E-01  1.24006E-01  1.36822E-01  1.53821E-01  1.65065E-01  1.71270E-01  1.74848E-01
   1.72758E-01  1.70001E-01  1.67241E-01  1.62110E-01  1.55773E-01  1.48175E-01  1.39714E-01  1.25822E-01  1.06011E-01  1.06129E-01
   1.76834E-01  2.22857E-01  2.21666E-01  2.25119E-01  1.30557E-01  6.35035E-02  5.88227E-02  2.77004E-02  2.67657E-02  2.33871E-02
   1.78009E-02  1.28532E-02  7.65268E-03  2.48137E-03  2.50808E-03  9.16581E-03  1.22218E-02  1.41860E-02  2.20150E-02  2.76328E-02
   3.24166E-02  4.18964E-02  5.09394E-02  5.69022E-02  6.04518E-02  6.40864E-02  6.55381E-02  6.48654E-02  6.78505E-02  7.52814E-02
   7.96253E-02  7.73087E-02  7.53506E-02  7.13076E-02  6.81684E-02  6.65050E-02  5.76916E-02  5.27434E-02  5.15607E-02  4.80273E-02
   4.42025E-02  3.90874E-02  3.51729E-02  3.05708E-02  2.66060E-02  2.19077E-02  1.42582E-02  1.03387E-02  1.10467E-02  9.07300E-03
   3.51785E-03 -1.26109E-03 -5.39701E-03 -1.29885E-02 -2.47751E-02 -3.57313E-02 -4.54884E-02 -5.55366E-02 -6.69367E-02 -8.50792E-02
  -1.07780E-01 -1.33204E-01 -1.57249E-01 -1.75685E-01 -1.97312E-01 -2.18819E-01 -2.34343E-01 -2.47119E-01 -2.60111E-01 -2.73661E-01
  -2.80476E-01 -2.76025E-01 -2.69856E-01 -2.69380E-01 -2.63581E-01 -2.50211E-01 -2.38019E-01 -2.26949E-01 -2.16208E-01 -2.08890E-01
  -2.02442E-01 -1.91926E-01 -1.77050E-01 -1.64953E-01 -1.52262E-01 -1.34529E-01 -1.19928E-01 -1.06888E-01 -9.25991E-02 -7.91946E-02
  -6.97327E-02 -5.87885E-02 -4.19989E-02 -3.24402E-02 -2.80622E-02 -2.04900E-02 -1.04149E-02  2.44928E-03  6.46870E-03  4.75748E-03
   1.37927E-02  2.04343E-02  2.09415E-02  2.68264E-02  2.73215E-02  2.72257E-02  3.26184E-02  3.39669E-02  3.20021E-02  3.13207E-02
   3.65691E-02  4.07653E-02  4.13623E-02  4.69171E-02  5.09404E-02  4.90925E-02  4.73593E-02  4.87651E-02  4.82048E-02  4.52621E-02
   4.78572E-02  4.80073E-02  4.38010E-02  4.57690E-02  4.72821E-02  4.53040E-02  4.60432E-02  4.80685E-02  5.18985E-02  5.09125E-02
   3.87594E-02  3.34626E-02  4.07781E-02  4.29226E-02  3.99971E-02  3.95023E-02  4.21449E-02  4.23052E-02  3.52135E-02  3.28120E-02
   3.69715E-02  4.06721E-02  4.18823E-02  4.13195E-02  4.21537E-02  4.32074E-02  4.59504E-02  4.74551E-02  4.55501E-02  4.70606E-02
   4.98447E-02  4.79780E-02  4.28440E-02  4.01990E-02  4.30186E-02  4.40620E-02  4.58895E-02  4.97116E-02  5.05188E-02  5.06608E-02
   4.86903E-02  4.99422E-02  5.65048E-02  6.04789E-02  6.16370E-02  5.93597E-02  5.25630E-02  5.05134E-02  5.29967E-02  5.71015E-02
   5.94011E-02  5.52374E-02  5.30055E-02  5.34557E-02  5.36717E-02  5.75017E-02  5.75384E-02  5.19329E-02  5.44925E-02  6.25093E-02
   6.21072E-02  5.93259E-02  6.16865E-02  6.27866E-02  6.45370E-02  6.62754E-02  6.60584E-02  7.30745E-02  8.22930E-02  8.59012E-02
   8.76075E-02  8.95772E-02  9.16464E-02  9.18452E-02
 NY background values follow
    -5.108E-02   -5.003E-02   -4.898E-02   -4.793E-02   -4.688E-02   -4.583E-02   -4.478E-02   -4.374E-02   -4.269E-02   -4.165E-02
    -4.060E-02   -3.956E-02   -3.852E-02   -3.748E-02   -3.644E-02   -3.540E-02   -3.437E-02   -3.333E-02   -3.230E-02   -3.127E-02
    -3.024E-02   -2.922E-02   -2.819E-02   -2.717E-02   -2.615E-02   -2.513E-02   -2.411E-02   -2.310E-02   -2.208E-02   -2.107E-02
    -2.007E-02   -1.906E-02   -1.806E-02   -1.706E-02   -1.607E-02   -1.507E-02   -1.408E-02   -1.310E-02   -1.211E-02   -1.113E-02
    -1.016E-02   -9.183E-03   -8.213E-03   -7.246E-03   -6.283E-03   -5.324E-03   -4.368E-03   -3.417E-03   -2.469E-03   -1.525E-03
    -5.846E-04    3.514E-04    1.283E-03    2.211E-03    3.134E-03    4.053E-03    4.968E-03    5.878E-03    6.784E-03    7.685E-03
     8.581E-03    9.473E-03    1.036E-02    1.124E-02    1.212E-02    1.299E-02    1.386E-02    1.472E-02    1.558E-02    1.643E-02
