 LCModel (Version 6.3-1N) Copyright: S.W. Provencher.          Ref.: Magn. Reson. Med. 30:672-679 (1993).                
 Slice_N1@26_11  02-Jun-2023 14:38:18
 27 lines in following concentration table = NCONC+1
    Conc.  %SD /Cr+PCr  Metabolite                                         
 2.97E-06  11% 5.1E-04 Mac                                                 
    0.000 999%   0.000 Cr                                                  
 4.69E-02  16%   8.000 PCr                                                 
 5.50E-02  20%   9.377 Ins                                                 
 9.54E-02   9%  16.267 NAA                                                 
 6.45E-02  16%  11.002 Tau                                                 
 1.00E-02  27%   1.711 PCho                                                
    0.000 999%   0.000 GPC                                                 
 3.61E-02  31%   6.152 Glu                                                 
 2.67E-02  31%   4.550 Gln                                                 
 1.72E-02  49%   2.926 Ala                                                 
    0.124  13%  21.187 Asc                                                 
 2.97E-03 218%   0.507 Asp                                                 
 5.93E-03  62%   1.011 GABA                                                
 5.01E-03  82%   0.854 Glc                                                 
 1.24E-02  40%   2.115 GSH                                                 
    0.000 999%   0.000 Lac                                                 
    0.000 999%   0.000 NAAG                                                
    0.000 999%   0.000 PE                                                  
 1.00E-02  27%   1.711 GPC+PCho                                            
 9.54E-02   9%  16.267 NAA+NAAG                                            
 6.28E-02  22%  10.702 Glu+Gln                                             
 4.69E-02  16%   8.000 Cr+PCr                                              
 9.54E-02   9%  16.267 NAA+NAAG                                            
 4.69E-02  16%   8.000 Cr+PCr                                              
 6.28E-02  22%  10.702 Glu+Gln                                             
   6 lines in following misc. output table
  FWHM = 0.064 ppm    S/N =   2                                            
  Data shift = 0.169 ppm                                                   
  Ph: -46 deg      -8.5 deg/ppm                                            
  alphaB,S = 1.6E+01,   5.4E+01                                            
   18 spline knots.   Ns =10(1)                                            
  ( 8) 3 infls.   ( 2) 2 extrs.                                            
  654 points on ppm-axis = NY
      4.000000     3.994181     3.988363     3.982544     3.976726     3.970907     3.965088     3.959270     3.953451     3.947633
      3.941814     3.935995     3.930177     3.924358     3.918540     3.912721     3.906902     3.901084     3.895265     3.889446
      3.883628     3.877809     3.871991     3.866172     3.860353     3.854535     3.848716     3.842898     3.837079     3.831260
      3.825442     3.819623     3.813805     3.807986     3.802167     3.796349     3.790530     3.784712     3.778893     3.773074
      3.767256     3.761437     3.755619     3.749800     3.743981     3.738163     3.732344     3.726526     3.720707     3.714888
      3.709070     3.703251     3.697433     3.691614     3.685795     3.679977     3.674158     3.668339     3.662521     3.656702
      3.650884     3.645065     3.639246     3.633428     3.627609     3.621791     3.615972     3.610153     3.604335     3.598516
      3.592698     3.586879     3.581060     3.575242     3.569423     3.563605     3.557786     3.551967     3.546149     3.540330
      3.534512     3.528693     3.522874     3.517056     3.511237     3.505419     3.499600     3.493781     3.487963     3.482144
      3.476326     3.470507     3.464688     3.458870     3.453051     3.447232     3.441414     3.435595     3.429777     3.423958
      3.418139     3.412321     3.406502     3.400684     3.394865     3.389046     3.383228     3.377409     3.371591     3.365772
      3.359953     3.354135     3.348316     3.342498     3.336679     3.330860     3.325042     3.319223     3.313405     3.307586
      3.301767     3.295949     3.290130     3.284312     3.278493     3.272674     3.266856     3.261037     3.255219     3.249400
      3.243581     3.237763     3.231944     3.226125     3.220307     3.214488     3.208670     3.202851     3.197032     3.191214
      3.185395     3.179577     3.173758     3.167939     3.162121     3.156302     3.150484     3.144665     3.138846     3.133028
      3.127209     3.121391     3.115572     3.109753     3.103935     3.098116     3.092298     3.086479     3.080660     3.074842
      3.069023     3.063205     3.057386     3.051567     3.045749     3.039930     3.034111     3.028293     3.022474     3.016656
      3.010837     3.005018     2.999200     2.993381     2.987563     2.981744     2.975925     2.970107     2.964288     2.958470
      2.952651     2.946832     2.941014     2.935195     2.929377     2.923558     2.917739     2.911921     2.906102     2.900284
      2.894465     2.888646     2.882828     2.877009     2.871191     2.865372     2.859553     2.853735     2.847916     2.842098
      2.836279     2.830460     2.824642     2.818823     2.813004     2.807186     2.801367     2.795549     2.789730     2.783911
      2.778093     2.772274     2.766456     2.760637     2.754818     2.749000     2.743181     2.737363     2.731544     2.725725
      2.719907     2.714088     2.708270     2.702451     2.696632     2.690814     2.684995     2.679177     2.673358     2.667539
      2.661721     2.655902     2.650084     2.644265     2.638446     2.632628     2.626809     2.620991     2.615172     2.609353
      2.603535     2.597716     2.591897     2.586079     2.580260     2.574442     2.568623     2.562804     2.556986     2.551167
      2.545349     2.539530     2.533711     2.527893     2.522074     2.516256     2.510437     2.504618     2.498800     2.492981
      2.487163     2.481344     2.475525     2.469707     2.463888     2.458070     2.452251     2.446432     2.440614     2.434795
      2.428977     2.423158     2.417339     2.411521     2.405702     2.399884     2.394065     2.388246     2.382428     2.376609
      2.370790     2.364972     2.359153     2.353335     2.347516     2.341697     2.335879     2.330060     2.324242     2.318423
      2.312604     2.306786     2.300967     2.295149     2.289330     2.283511     2.277693     2.271874     2.266056     2.260237
      2.254418     2.248600     2.242781     2.236963     2.231144     2.225325     2.219507     2.213688     2.207870     2.202051
      2.196232     2.190414     2.184595     2.178777     2.172958     2.167139     2.161321     2.155502     2.149683     2.143865
      2.138046     2.132228     2.126409     2.120590     2.114772     2.108953     2.103135     2.097316     2.091497     2.085679
      2.079860     2.074042     2.068223     2.062404     2.056586     2.050767     2.044949     2.039130     2.033311     2.027493
      2.021674     2.015856     2.010037     2.004218     1.998400     1.992581     1.986763     1.980944     1.975126     1.969307
      1.963489     1.957670     1.951852     1.946033     1.940215     1.934397     1.928578     1.922760     1.916941     1.911123
      1.905304     1.899486     1.893667     1.887849     1.882030     1.876212     1.870393     1.864575     1.858756     1.852938
      1.847119     1.841301     1.835482     1.829664     1.823845     1.818027     1.812208     1.806390     1.800571     1.794753
      1.788934     1.783116     1.777297     1.771479     1.765660     1.759842     1.754023     1.748205     1.742386     1.736568
      1.730749     1.724931     1.719113     1.713294     1.707476     1.701657     1.695839     1.690020     1.684202     1.678383
      1.672565     1.666746     1.660928     1.655109     1.649291     1.643472     1.637654     1.631835     1.626017     1.620198
      1.614380     1.608561     1.602743     1.596924     1.591106     1.585287     1.579469     1.573650     1.567832     1.562013
      1.556195     1.550376     1.544558     1.538739     1.532921     1.527102     1.521284     1.515465     1.509647     1.503829
      1.498010     1.492192     1.486373     1.480555     1.474736     1.468918     1.463099     1.457281     1.451462     1.445644
      1.439825     1.434007     1.428188     1.422370     1.416551     1.410733     1.404914     1.399096     1.393277     1.387459
      1.381640     1.375822     1.370003     1.364185     1.358366     1.352548     1.346729     1.340911     1.335092     1.329274
      1.323455     1.317637     1.311818     1.306000     1.300182     1.294363     1.288545     1.282726     1.276908     1.271089
      1.265271     1.259452     1.253634     1.247815     1.241997     1.236178     1.230360     1.224541     1.218723     1.212904
      1.207086     1.201267     1.195449     1.189630     1.183812     1.177993     1.172175     1.166356     1.160538     1.154719
      1.148901     1.143082     1.137264     1.131445     1.125627     1.119808     1.113990     1.108171     1.102353     1.096534
      1.090716     1.084898     1.079079     1.073261     1.067442     1.061624     1.055805     1.049987     1.044168     1.038350
      1.032531     1.026713     1.020894     1.015076     1.009257     1.003439     0.997620     0.991802     0.985983     0.980165
      0.974346     0.968528     0.962709     0.956891     0.951072     0.945254     0.939435     0.933617     0.927798     0.921980
      0.916161     0.910343     0.904524     0.898706     0.892887     0.887069     0.881251     0.875432     0.869614     0.863795
      0.857977     0.852158     0.846340     0.840521     0.834703     0.828884     0.823066     0.817247     0.811429     0.805610
      0.799792     0.793973     0.788155     0.782336     0.776518     0.770699     0.764881     0.759062     0.753244     0.747425
      0.741607     0.735788     0.729970     0.724151     0.718333     0.712514     0.706696     0.700877     0.695059     0.689240
      0.683422     0.677603     0.671785     0.665967     0.660148     0.654330     0.648511     0.642693     0.636874     0.631056
      0.625237     0.619419     0.613600     0.607782     0.601963     0.596145     0.590326     0.584508     0.578689     0.572871
      0.567052     0.561234     0.555415     0.549597     0.543778     0.537960     0.532141     0.526323     0.520504     0.514686
      0.508867     0.503049     0.497230     0.491412     0.485593     0.479775     0.473956     0.468138     0.462319     0.456501
      0.450682     0.444864     0.439045     0.433227     0.427408     0.421590     0.415771     0.409953     0.404134     0.398316
      0.392497     0.386679     0.380860     0.375042     0.369223     0.363405     0.357586     0.351767     0.345949     0.340130
      0.334312     0.328493     0.322675     0.316856     0.311038     0.305219     0.299401     0.293582     0.287764     0.281945
      0.276127     0.270308     0.264490     0.258671     0.252853     0.247034     0.241216     0.235397     0.229579     0.223760
      0.217942     0.212123     0.206305     0.200486
 NY phased data points follow
   9.38211E-02  3.55623E-01  2.70147E-01 -7.95995E-02  1.94138E-01  1.43793E-01 -2.13483E-03  4.01310E-01  1.24255E-01  8.13485E-02
   1.31260E-02  2.33368E-01  4.94201E-01  4.95788E-02  2.08595E-01  3.56440E-01  3.36169E-01  4.17688E-01  2.87237E-01 -2.03400E-01
  -2.55616E-01 -9.32969E-02 -1.89410E-01 -7.45882E-02 -8.45041E-02 -1.91239E-01 -5.25674E-01 -2.55201E-01 -1.90544E-01 -5.11639E-01
  -7.82330E-01 -2.38724E-01 -6.11056E-02 -5.10459E-01  2.72905E-02 -6.37030E-01 -3.66056E-01 -2.26061E-01 -4.68794E-01 -2.50978E-01
  -5.76832E-01 -8.80172E-02 -2.42221E-01  7.88299E-02  2.76348E-01  3.69130E-01  4.95829E-01  3.19483E-01  5.04157E-01  5.18528E-01
   6.46364E-01  3.42682E-01  4.93687E-01  8.78651E-01  3.38427E-01  2.17992E-01  4.56685E-01  3.23346E-01  4.55314E-01  2.88505E-01
   7.52964E-02  1.20735E-01  6.24778E-02 -2.06268E-01  6.91112E-03 -1.02308E-01 -1.59088E-01  2.56429E-01 -9.58581E-02  1.67766E-01
  -1.96316E-02 -5.63166E-02  1.65683E-01 -1.92527E-02 -1.54879E-03  2.52556E-01 -4.18800E-02 -1.46890E-01  3.67578E-01 -8.96146E-02
  -7.72986E-02 -1.54930E-01 -3.25533E-02 -1.34165E-01 -1.92210E-01 -6.67754E-02 -7.16833E-03  1.55303E-02 -2.24904E-01  2.04610E-01
   1.07421E-01  3.14801E-01  2.38527E-01  3.96427E-01  1.69337E-01 -1.93748E-01 -1.45737E-01 -1.56264E-01  3.23842E-02 -3.31450E-01
  -2.24454E-01 -2.68029E-01  1.40313E-01  7.25575E-02 -1.22923E-01  9.35609E-02 -1.09816E-01 -1.31899E-04  1.85405E-01  7.94597E-02
   7.49286E-02  3.06289E-01 -9.56320E-03  3.24844E-02  2.04794E-01  3.87142E-01  3.08812E-01  2.97744E-01  5.15740E-01  3.25135E-01
   3.12008E-01  1.54034E-01  2.06025E-01  2.51759E-01 -1.45753E-01 -1.20100E-01 -2.03579E-01 -2.79898E-02  6.17481E-02 -4.06906E-01
  -1.92900E-01 -5.03504E-01 -4.09166E-01 -4.41483E-01 -5.05201E-01 -5.19531E-01 -8.42136E-01 -2.72316E-01 -6.55817E-01 -5.56951E-01
  -2.99337E-01 -1.33344E-01 -1.48977E-01 -3.23775E-01 -4.34422E-02 -5.00272E-01 -5.07095E-01 -9.98708E-02  1.79491E-01 -1.13039E-01
  -1.01630E-01  3.00976E-01  6.57824E-02  1.21068E-01  1.34139E-01 -1.92022E-02 -2.61828E-02 -1.27630E-01  2.57381E-01  3.85484E-01
   5.58671E-01  2.46045E-01  9.33105E-02  6.36414E-01  2.51854E-01  4.41464E-01  1.75142E-01  2.36012E-01  1.88002E-01 -9.89167E-02
   6.30786E-02 -3.39527E-01 -1.20040E-01 -8.89017E-02 -9.07216E-02 -4.65687E-01 -4.75026E-01 -5.63350E-01 -4.83633E-01 -1.38241E-01
  -3.32877E-01 -1.15951E-01 -3.46587E-01 -2.59319E-01 -4.95487E-02 -1.91609E-01 -5.30790E-01 -3.12125E-01 -1.69314E-01 -4.75023E-01
  -4.72243E-01 -4.45263E-01 -1.06026E-01  9.29032E-02 -2.25771E-01 -5.30474E-01 -1.57521E-01 -7.58985E-02 -6.44527E-02 -2.66507E-01
  -3.45929E-01 -1.66011E-01 -5.25578E-01 -8.02634E-02  6.18660E-02 -3.69975E-02  1.20611E-01 -1.73381E-01 -1.22791E-01 -2.19085E-01
  -3.11093E-01 -5.19698E-02 -2.72614E-01 -3.48912E-01 -2.75540E-01 -3.75464E-01 -2.13978E-01 -2.41024E-01 -2.96339E-01 -5.81611E-02
   4.17057E-02 -5.08060E-02 -1.38670E-01 -1.70951E-01 -5.02448E-02  1.57455E-01  2.18802E-01  1.21800E-01  2.39994E-01  4.08642E-01
   2.34362E-01  2.55763E-01  2.90459E-01  1.78964E-03  2.28942E-01  3.60115E-01  2.61542E-01  9.44406E-02 -6.44632E-02  2.14894E-01
  -3.87764E-01 -7.00368E-02  4.16419E-01 -4.35206E-02 -2.35708E-02 -1.55447E-01  1.02032E-01 -3.92172E-02 -2.37779E-02 -1.80362E-01
  -1.56103E-01  3.50310E-01  7.73603E-02 -7.62518E-03  3.43064E-03  2.71527E-01  1.96906E-02 -4.49050E-01 -3.57846E-01 -2.54874E-02
  -1.43029E-01 -1.42186E-01  5.06363E-02  6.52886E-02  5.57382E-01  2.89775E-01  2.22737E-01  3.06241E-01  1.49661E-01  2.17532E-01
   2.64304E-01  2.94116E-01  1.24518E-01  2.66702E-01  2.27526E-01  1.40544E-01  1.42665E-01 -5.19385E-02 -1.21619E-01 -1.79045E-02
   5.41885E-02  1.57970E-01  2.15170E-01  7.60884E-02 -2.88699E-01 -1.78537E-01  1.89150E-01  5.48667E-02  1.94239E-01  3.77789E-01
   2.85571E-01  6.98334E-02  1.20452E-02  2.34378E-01  3.58253E-01  2.54554E-01  3.11529E-01  1.51550E-01 -3.87710E-03  3.42486E-01
   2.46320E-01  8.43084E-04 -1.24014E-01  1.15362E-01  5.85597E-01  4.80254E-01  2.62291E-01  1.26771E-01  1.48442E-02  5.78319E-01
   4.11993E-01  4.17913E-02  5.42581E-01  3.17515E-01  1.88288E-01  3.98773E-01  2.88726E-01  1.47899E-01  2.39951E-01 -1.67426E-01
  -5.65860E-01 -3.59016E-01 -9.94241E-02 -1.69657E-01 -3.03137E-01  1.62919E-01 -7.43989E-02 -3.40801E-01 -7.72773E-02  2.84186E-02
   6.09381E-02  1.51453E-01  1.04157E-01 -9.92711E-02  2.42015E-01  3.49903E-01 -7.88853E-02 -2.47993E-02 -3.23814E-01 -5.41198E-01
  -3.71175E-01 -7.81028E-01 -6.67254E-01 -6.91798E-01 -9.15392E-01 -1.06602E+00 -6.43669E-01 -6.73661E-01 -8.78177E-01 -3.48812E-01
  -1.95109E-01 -2.27848E-01 -5.94193E-01 -7.43184E-02 -2.54920E-01  2.13255E-02  9.81286E-02 -1.21080E-01  3.99597E-01  2.55152E-01
   2.91045E-01 -7.83323E-02  6.97868E-02 -1.82017E-01  1.16974E-01  3.80495E-02  5.91952E-02  3.63721E-01 -1.85752E-01 -1.91790E-01
   3.38016E-02  1.94610E-01 -3.23036E-01  2.99615E-01  1.27617E-01  3.11071E-02  1.56005E-01 -4.55083E-02  3.31930E-01  1.12503E-01
   3.91635E-02 -1.72436E-01 -3.67728E-02  1.52441E-01  3.77814E-01 -1.37476E-01 -1.66189E-01  1.18222E-01 -1.76942E-01 -1.12795E-01
  -3.27315E-01 -5.87498E-02  2.33621E-01  1.72502E-02  2.29766E-01 -2.44637E-03 -1.39371E-01  5.47533E-01  2.30826E-01 -6.17236E-02
  -2.91507E-02 -4.44405E-02 -2.75634E-01 -7.42180E-02 -5.47769E-02  3.78434E-02  2.48029E-01  2.64624E-02  3.76481E-01 -6.17676E-02
   2.72618E-01 -5.30212E-02 -1.07416E-01 -2.31740E-02 -5.07259E-01  1.52056E-01  1.02799E-01 -6.72888E-02 -2.65333E-01  1.34772E-02
   4.80211E-02 -3.06885E-01 -3.37225E-01  2.43219E-03 -6.05140E-02 -1.71496E-01 -2.54017E-01 -1.97391E-01  2.05326E-01  5.65570E-02
   7.98897E-02 -3.16138E-01 -3.71676E-02  2.83378E-01  1.17471E-01 -3.91740E-02  4.43401E-03  1.70894E-01  2.23672E-01  2.01003E-01
  -4.56629E-02  3.21487E-02  5.86230E-03  1.62605E-01  3.96495E-02 -6.45239E-04 -1.56176E-01 -1.96543E-01 -7.08504E-02  1.54816E-01
   3.33821E-01 -3.15528E-02  8.96432E-02  9.87833E-02 -1.32459E-01  4.91185E-02  3.15056E-01  1.19103E-02  7.79025E-02  1.11464E-01
  -5.17676E-03  9.92734E-02  5.49973E-02 -7.95598E-02  1.22911E-01  2.61384E-01 -1.73424E-01 -1.25926E-01 -8.13328E-02 -2.03636E-01
  -3.34822E-01 -2.31933E-01 -3.54536E-01 -2.01496E-01 -1.47467E-01 -2.89653E-01 -9.32398E-02 -2.09844E-01  6.48363E-02 -1.92815E-01
  -3.80637E-01 -1.15031E-01 -4.78661E-02  6.95870E-02  3.70643E-01  1.49873E-01 -6.84075E-02  2.44714E-01  3.93049E-02  1.75558E-01
   2.49925E-01  1.82341E-02  3.11245E-01  2.60757E-01  2.90573E-01  3.76031E-01 -7.48691E-02  1.16909E-01 -5.64459E-02 -4.18923E-02
   2.14632E-01 -1.38510E-01 -1.26844E-01  2.17046E-02  2.27822E-01 -1.00838E-01 -2.92312E-01 -1.26314E-01  7.76666E-02  2.16182E-01
   4.14739E-02  3.42318E-02 -6.50622E-02 -1.61063E-01  3.34990E-01  2.15898E-01 -6.97479E-02 -2.99255E-02 -3.33905E-01 -8.20010E-02
  -1.31870E-01 -1.06860E-01 -1.94269E-01 -2.22562E-01 -3.10775E-03 -3.28301E-01 -2.98768E-01 -3.03866E-01 -4.37723E-01 -4.07843E-01
  -3.84337E-01 -4.57731E-01 -2.81327E-01 -4.72478E-01 -5.46236E-01 -1.62377E-01 -3.82226E-01 -4.43520E-01 -3.53062E-01 -3.93450E-01
  -3.34053E-01 -2.95556E-01 -4.40652E-03 -2.17174E-01 -3.67126E-01 -1.46963E-01 -1.58281E-01 -1.47290E-01 -2.55481E-01 -2.33344E-02
  -2.42758E-01 -1.92109E-01 -3.32034E-03  5.01120E-03 -2.32542E-01 -5.75029E-01 -1.78085E-02  1.16588E-01 -6.99482E-02 -4.19292E-01
  -2.99726E-03  8.06505E-02 -1.61388E-01  8.85543E-02 -1.07013E-01  2.14952E-01  3.76965E-01  4.87144E-02  1.24451E-02  1.09012E-01
   3.22557E-01  3.47025E-01  1.68214E-01  1.71463E-01 -4.33298E-02  3.88262E-01  3.38068E-02 -2.44116E-01  6.36227E-02 -1.52305E-01
  -7.25491E-02 -2.14002E-01  2.89366E-01  7.33612E-02 -2.95658E-01  2.72881E-02  1.95043E-01  5.26836E-03 -1.30165E-01  2.91124E-02
   1.59889E-01 -7.32051E-02 -1.89912E-02  9.21574E-02 -3.68330E-01  2.98835E-01  1.18137E-01  3.22952E-02  2.16110E-01  1.28958E-01
   3.88601E-02 -2.20371E-01  8.70938E-02  1.21577E-01  3.39738E-01  9.23407E-02  2.26027E-01  7.82638E-02  7.65519E-02  3.15625E-01
   1.69438E-01  1.60524E-01 -2.83357E-02 -1.64576E-01 -2.81624E-01  1.90848E-01  5.69902E-02 -7.01710E-02  1.48730E-01  1.29594E-01
   7.97393E-02 -3.16534E-02 -1.41680E-01  5.18003E-02  2.92690E-01 -4.12544E-02 -7.02941E-02  1.47974E-01  1.41444E-01  1.47992E-01
   2.07537E-01  1.58419E-02 -1.79604E-01  1.26587E-01  3.97743E-01  1.06793E-02  1.53830E-01  1.35897E-01  3.24642E-01  6.68353E-01
   1.94770E-02  3.03023E-02 -7.49538E-02 -1.63025E-01  7.54779E-02  3.74733E-01  1.91036E-01 -1.50473E-01  2.37886E-01 -2.40647E-02
   4.84615E-02  2.26378E-01 -8.05166E-02  6.99666E-02
 NY points of the fit to the data follow
   3.50611E-01  3.22874E-01  2.70629E-01  2.12901E-01  1.71719E-01  1.56605E-01  1.59987E-01  1.67069E-01  1.72093E-01  1.77107E-01
   1.86812E-01  2.03898E-01  2.18546E-01  2.31562E-01  2.36567E-01  2.27299E-01  2.04519E-01  1.73323E-01  1.36479E-01  9.75215E-02
   5.97139E-02  1.91077E-02 -2.99040E-02 -7.86822E-02 -1.09114E-01 -1.29484E-01 -1.47556E-01 -1.64801E-01 -1.84643E-01 -2.05696E-01
  -2.38462E-01 -2.78779E-01 -3.18112E-01 -3.46164E-01 -3.70462E-01 -3.88601E-01 -4.12000E-01 -4.27299E-01 -4.19671E-01 -3.83908E-01
  -3.23574E-01 -2.41545E-01 -1.42375E-01 -3.44976E-02  7.72373E-02  1.90558E-01  2.97299E-01  3.92628E-01  4.73351E-01  5.30041E-01
   5.59456E-01  5.63142E-01  5.51097E-01  5.22487E-01  4.78643E-01  4.18341E-01  3.51609E-01  2.74333E-01  2.00504E-01  1.30094E-01
   6.50787E-02  1.26168E-02 -2.62163E-02 -4.76534E-02 -4.96336E-02 -3.68050E-02 -1.20102E-02  1.89886E-02  5.46027E-02  9.55421E-02
   1.37245E-01  1.78570E-01  2.07731E-01  2.10952E-01  1.90817E-01  1.55215E-01  1.11095E-01  6.01603E-02  7.68338E-03 -3.17115E-02
  -5.84933E-02 -7.60523E-02 -7.86974E-02 -6.69764E-02 -4.02700E-02 -3.66614E-03  3.78643E-02  8.54680E-02  1.32030E-01  1.74802E-01
   2.02513E-01  2.10237E-01  1.85461E-01  1.30258E-01  6.56524E-02  3.12647E-03 -5.55396E-02 -1.03766E-01 -1.37522E-01 -1.56100E-01
  -1.59476E-01 -1.47123E-01 -1.20061E-01 -8.15892E-02 -3.58946E-02  1.21753E-02  5.90155E-02  1.03105E-01  1.43653E-01  1.78295E-01
   2.04965E-01  2.18245E-01  2.23275E-01  2.20348E-01  2.19575E-01  2.19212E-01  2.19690E-01  2.21307E-01  2.27672E-01  2.34030E-01
   2.41070E-01  2.32151E-01  2.00112E-01  1.41734E-01  6.39423E-02 -2.32383E-02 -9.80996E-02 -1.50612E-01 -2.00846E-01 -2.65167E-01
  -3.41592E-01 -4.16323E-01 -4.76038E-01 -5.14265E-01 -5.34807E-01 -5.43609E-01 -5.40803E-01 -5.24737E-01 -4.99503E-01 -4.60676E-01
  -4.08360E-01 -3.50164E-01 -2.97324E-01 -2.45364E-01 -2.00434E-01 -1.57220E-01 -1.06987E-01 -5.08497E-02 -6.57448E-03  2.17376E-02
   4.42170E-02  6.33149E-02  7.97410E-02  9.37408E-02  1.05535E-01  1.14298E-01  1.17270E-01  1.28907E-01  1.82713E-01  2.65001E-01
   3.40222E-01  3.79469E-01  3.84088E-01  3.66741E-01  3.36139E-01  2.93258E-01  2.32902E-01  1.58079E-01  7.52901E-02 -1.42147E-02
  -1.03672E-01 -1.81279E-01 -2.44427E-01 -2.93287E-01 -3.27163E-01 -3.51696E-01 -3.72322E-01 -3.77568E-01 -3.53416E-01 -3.17321E-01
  -2.96642E-01 -2.82588E-01 -2.71579E-01 -2.61827E-01 -2.53227E-01 -2.44762E-01 -2.37099E-01 -2.30220E-01 -2.22933E-01 -2.14601E-01
  -2.05675E-01 -1.97314E-01 -1.89050E-01 -1.80234E-01 -1.70819E-01 -1.60901E-01 -1.50678E-01 -1.41109E-01 -1.32325E-01 -1.23866E-01
  -1.15410E-01 -1.07410E-01 -1.00398E-01 -9.46307E-02 -8.98547E-02 -8.60035E-02 -8.27936E-02 -7.99521E-02 -7.74472E-02 -7.51237E-02
  -7.31223E-02 -7.13708E-02 -7.00145E-02 -6.89531E-02 -6.84995E-02 -7.31944E-02 -8.23721E-02 -8.82332E-02 -8.29176E-02 -6.77553E-02
  -5.53483E-02 -4.98754E-02 -3.82988E-02 -1.01366E-02  3.27679E-02  7.90649E-02  1.20780E-01  1.55740E-01  1.83000E-01  2.01747E-01
   2.10932E-01  2.11391E-01  2.04497E-01  1.88677E-01  1.62679E-01  1.27219E-01  8.67284E-02  4.94499E-02  1.92856E-02 -8.46074E-03
  -3.92991E-02 -7.01264E-02 -9.05609E-02 -9.96209E-02 -1.04522E-01 -1.07158E-01 -1.08397E-01 -1.17693E-01 -1.31018E-01 -1.41033E-01
  -1.50343E-01 -1.58883E-01 -1.67211E-01 -1.67383E-01 -1.61495E-01 -1.50611E-01 -1.36242E-01 -1.18234E-01 -9.31803E-02 -6.38910E-02
  -3.40571E-02 -3.35759E-03  2.99364E-02  6.31368E-02  9.43739E-02  1.23096E-01  1.46619E-01  1.61249E-01  1.69337E-01  1.77517E-01
   1.78055E-01  1.70997E-01  1.61214E-01  1.46565E-01  1.25994E-01  9.44800E-02  5.82804E-02  2.04247E-02 -1.50606E-02 -4.46890E-02
  -6.51300E-02 -7.36867E-02 -7.27890E-02 -6.31644E-02 -4.63592E-02 -2.54690E-02 -2.09275E-03  2.20530E-02  4.49789E-02  6.59462E-02
   8.41172E-02  9.87707E-02  1.09492E-01  1.16137E-01  1.19761E-01  1.19740E-01  1.17408E-01  1.15039E-01  1.12477E-01  1.11700E-01
   1.13196E-01  1.15735E-01  1.19069E-01  1.22830E-01  1.26613E-01  1.29481E-01  1.31007E-01  1.31061E-01  1.29217E-01  1.23710E-01
   1.13835E-01  9.76868E-02  7.45362E-02  4.46329E-02  8.10689E-03 -3.35870E-02 -7.86878E-02 -1.24204E-01 -1.66609E-01 -2.02320E-01
  -2.28320E-01 -2.43220E-01 -2.46746E-01 -2.38750E-01 -2.22096E-01 -1.98138E-01 -1.71120E-01 -1.42273E-01 -1.15321E-01 -9.10339E-02
  -7.09094E-02 -5.18393E-02 -2.72446E-03  9.14464E-02  1.57691E-01  1.37744E-01  3.05636E-02 -1.16583E-01 -2.64523E-01 -4.01776E-01
  -5.31065E-01 -6.54852E-01 -7.59821E-01 -8.37942E-01 -8.91386E-01 -9.07108E-01 -8.75215E-01 -8.10672E-01 -7.25469E-01 -6.29932E-01
  -5.36294E-01 -4.44218E-01 -3.32440E-01 -2.04396E-01 -1.12847E-01 -7.63883E-02 -5.57435E-02 -4.29138E-02 -3.50093E-02 -3.04839E-02
  -2.80909E-02 -2.70155E-02 -2.67272E-02 -2.67669E-02 -2.66101E-02 -2.57582E-02 -2.40718E-02 -2.13751E-02 -1.77598E-02 -1.33239E-02
  -8.24531E-03 -2.45038E-03  3.67518E-03  1.00593E-02  1.64342E-02  2.24632E-02  2.83041E-02  3.36568E-02  3.89499E-02  4.38566E-02
   4.84139E-02  5.24871E-02  5.62319E-02  5.97253E-02  6.32396E-02  6.70630E-02  7.10848E-02  7.50235E-02  7.87399E-02  8.21484E-02
   8.53832E-02  8.84777E-02  9.12590E-02  9.34169E-02  9.49172E-02  9.55955E-02  9.53835E-02  9.40722E-02  9.17300E-02  8.84287E-02
   8.40634E-02  7.87843E-02  7.25445E-02  6.55502E-02  5.80284E-02  5.02217E-02  4.22239E-02  3.41608E-02  2.62276E-02  1.85329E-02
   1.11039E-02  4.06122E-03 -2.49730E-03 -8.62602E-03 -1.43112E-02 -1.95436E-02 -2.44910E-02 -2.90850E-02 -3.32374E-02 -3.68035E-02
  -3.99681E-02 -4.25510E-02 -4.43754E-02 -4.61391E-02 -5.20467E-02 -5.64949E-02 -5.76659E-02 -4.94297E-02 -3.05501E-02 -4.13526E-03
   2.45059E-02  5.11121E-02  7.52806E-02  9.62415E-02  1.13599E-01  1.27721E-01  1.36959E-01  1.40557E-01  1.39639E-01  1.34857E-01
   1.27930E-01  1.21700E-01  1.17512E-01  1.14231E-01  1.11072E-01  1.09732E-01  1.13056E-01  1.18884E-01  1.30238E-01  1.42498E-01
   1.53532E-01  1.62681E-01  1.69542E-01  1.74066E-01  1.76243E-01  1.76257E-01  1.73871E-01  1.69158E-01  1.62402E-01  1.53952E-01
   1.44133E-01  1.33228E-01  1.21561E-01  1.09414E-01  9.71290E-02  8.48415E-02  7.25474E-02  6.06340E-02  4.94071E-02  3.90590E-02
   2.96406E-02  2.12659E-02  1.39686E-02  7.78083E-03  2.94102E-03 -4.13879E-04 -2.22487E-03 -2.57714E-03 -1.34358E-03  1.09241E-03
   4.36307E-03  8.31715E-03  1.29470E-02  1.82275E-02  2.40119E-02  2.98145E-02  3.53657E-02  4.06599E-02  4.55753E-02  4.98220E-02
   5.32500E-02  5.59170E-02  5.77385E-02  5.86027E-02  5.85833E-02  5.77648E-02  5.62351E-02  5.41762E-02  5.15787E-02  4.82612E-02
   4.42271E-02  3.98224E-02  3.53230E-02  3.07432E-02  2.61363E-02  2.16015E-02  1.72371E-02  1.30931E-02  8.91427E-03  4.53634E-03
   1.09866E-04 -4.24269E-03 -8.49165E-03 -1.30487E-02 -1.83000E-02 -2.45502E-02 -3.19647E-02 -4.07537E-02 -5.11357E-02 -6.32811E-02
  -7.70639E-02 -9.23448E-02 -1.09309E-01 -1.27886E-01 -1.47430E-01 -1.67209E-01 -1.86881E-01 -2.06191E-01 -2.24570E-01 -2.41313E-01
  -2.55804E-01 -2.67590E-01 -2.76545E-01 -2.82847E-01 -2.86581E-01 -2.87814E-01 -2.86719E-01 -2.83556E-01 -2.78562E-01 -2.71827E-01
  -2.63602E-01 -2.54048E-01 -2.43647E-01 -2.32560E-01 -2.20651E-01 -2.07968E-01 -1.94803E-01 -1.81369E-01 -1.67888E-01 -1.54268E-01
  -1.40464E-01 -1.26659E-01 -1.13173E-01 -1.00287E-01 -8.79326E-02 -7.60607E-02 -6.48687E-02 -5.44406E-02 -4.48707E-02 -3.60000E-02
  -2.77757E-02 -2.03924E-02 -1.38487E-02 -8.20228E-03 -3.32529E-03  9.58247E-04  4.80651E-03  8.25137E-03  1.13049E-02  1.41949E-02
   1.70520E-02  1.96029E-02  2.19518E-02  2.42651E-02  2.63837E-02  2.83645E-02  3.02190E-02  3.17761E-02  3.29400E-02  3.38090E-02
   3.45857E-02  3.54507E-02  3.64284E-02  3.72217E-02  3.75238E-02  3.75080E-02  3.75293E-02  3.75393E-02  3.75053E-02  3.75547E-02
   3.76830E-02  3.77200E-02  3.74345E-02  3.69325E-02  3.63949E-02  3.60247E-02  3.57953E-02  3.55135E-02  3.52362E-02  3.50852E-02
   3.51236E-02  3.55433E-02  3.62363E-02  3.71773E-02  3.83704E-02  3.97656E-02  4.11179E-02  4.23097E-02  4.34192E-02  4.46178E-02
   4.58147E-02  4.70252E-02  4.81467E-02  4.89637E-02  4.96100E-02  5.01762E-02  5.10439E-02  5.24108E-02  5.41587E-02  5.60405E-02
   5.77286E-02  5.92977E-02  6.10055E-02  6.29686E-02  6.50596E-02  6.69062E-02  6.84551E-02  6.98138E-02  7.11220E-02  7.22571E-02
   7.31969E-02  7.40872E-02  7.50654E-02  7.59491E-02  7.68264E-02  7.77976E-02  7.89289E-02  8.04189E-02  8.19649E-02  8.32623E-02
   8.45203E-02  8.60624E-02  8.81568E-02  9.06412E-02  9.35014E-02  9.65427E-02  9.97374E-02  1.03201E-01  1.07040E-01  1.11183E-01
   1.15585E-01  1.20354E-01  1.25342E-01  1.30349E-01
 NY background values follow
     4.166E-02    4.144E-02    4.123E-02    4.102E-02    4.080E-02    4.059E-02    4.038E-02    4.016E-02    3.995E-02    3.974E-02
     3.952E-02    3.931E-02    3.910E-02    3.888E-02    3.867E-02    3.846E-02    3.824E-02    3.803E-02    3.782E-02    3.761E-02
     3.739E-02    3.718E-02    3.697E-02    3.675E-02    3.654E-02    3.633E-02    3.611E-02    3.590E-02    3.569E-02    3.547E-02
     3.526E-02    3.505E-02    3.483E-02    3.462E-02    3.441E-02    3.419E-02    3.398E-02    3.377E-02    3.355E-02    3.334E-02
     3.313E-02    3.291E-02    3.270E-02    3.249E-02    3.227E-02    3.206E-02    3.185E-02    3.163E-02    3.142E-02    3.121E-02
     3.099E-02    3.078E-02    3.057E-02    3.035E-02    3.014E-02    2.993E-02    2.971E-02    2.950E-02    2.929E-02    2.907E-02
     2.886E-02    2.865E-02    2.843E-02    2.822E-02    2.801E-02    2.779E-02    2.758E-02    2.737E-02    2.715E-02    2.694E-02
