 
 $NMID
 ID=''
 FMTDAT='(2E13.5)'
 TRAMP=   1.00000E+0
 VOLUME=   1.00000E+0
 $END
   5.89768E+2  -3.18198E+2
   9.68712E+2   1.33565E+3
   2.06940E+3  -5.73164E+3
  -1.96550E+3  -1.68160E+3
  -1.89130E+3  -1.42128E+3
  -1.04331E+3  -7.14852E+2
  -2.57350E+3   8.26084E+2
  -4.28175E+3   3.36751E+2
  -1.31030E+3   1.20654E+3
  -1.54518E+3  -9.21306E+2
   1.94361E+3  -1.56596E+3
   2.03032E+3  -2.18172E+2
   8.03583E+2   1.73640E+3
  -1.61635E+3   1.67974E+3
  -3.58508E+3  -1.32387E+3
  -2.03408E+3  -3.45589E+2
  -4.17361E+1  -1.09363E+3
   2.07898E+2   2.54601E+2
  -3.43021E+2   1.47960E+3
   1.12927E+3   1.08442E+3
   2.85876E+2   3.46283E+1
   3.71408E+3   2.98563E+3
   7.31633E+2   3.06238E+3
  -9.77504E+2  -1.77194E+3
   1.22965E+3  -2.33895E+3
   1.46027E+3   1.79063E+3
   2.07994E+3   1.74450E+3
  -1.34946E+3  -1.11184E+3
  -1.20135E+3  -2.48041E+3
   3.14939E+3  -2.81443E+3
   6.10087E+3  -8.34357E+2
   6.81071E+2   5.04322E+3
  -4.11496E+3   1.09671E+3
  -2.94633E+3  -1.11567E+3
  -2.69561E+3  -7.44517E+2
  -1.85233E+3  -2.47331E+2
  -1.93108E+2  -4.77863E+3
   1.64908E+3  -1.41838E+3
   7.61594E+2  -4.67794E+2
  -1.47486E+3   3.08744E+2
   1.47425E+3   1.38089E+3
  -2.78374E+3   2.99060E+2
  -5.70254E+3  -4.75401E+3
  -1.56695E+3  -4.95166E+3
   8.08513E+2  -1.27983E+3
  -9.54093E+1   1.45004E+3
  -1.15503E+3  -7.36029E+2
   1.84682E+3   2.59511E+3
  -2.04448E+3   3.90713E+3
  -2.69186E+3   1.51093E+3
  -1.59670E+3   4.71489E+1
  -1.01471E+3  -2.28395E+3
   2.44828E+3  -4.29766E+3
   4.24070E+3  -4.06954E+2
   3.41240E+3  -1.92434E+2
   2.86486E+3   1.26731E+3
  -3.92619E+2   2.88070E+3
  -2.16529E+3   2.85673E+3
  -2.04919E+3  -5.12590E+2
   2.20395E+2  -1.32529E+3
   1.18675E+3  -3.10119E+3
   1.83072E+3  -2.86297E+2
   3.44434E+2   3.05073E+3
  -1.15791E+3   4.49840E+3
  -1.62839E+3   1.01227E+3
   9.83009E+2   1.02663E+3
   3.02444E+2   1.14810E+3
   1.27170E+2   6.92556E+2
  -1.13036E+3  -1.61994E+3
  -1.80925E+3  -3.16820E+3
   2.52840E+3  -1.38694E+2
   3.50649E+2  -1.72688E+3
   3.41381E+2  -8.68705E+2
  -5.23694E+2  -1.88937E+3
   1.49883E+3  -5.32223E+2
   1.64854E+3  -1.20587E+1
   6.89894E+2  -3.56554E+2
  -4.17414E+2  -1.03975E+3
   1.28743E+3  -1.23793E+3
   2.29290E+3   5.63414E+2
   1.27706E+3   8.33040E+2
   1.01446E+3   1.19122E+3
   2.48224E+3   5.88939E+2
   1.09850E+3   1.03698E+3
  -2.34659E+3   1.08474E+3
  -2.34470E+3   1.64288E+3
  -2.18103E+3  -1.78089E+3
   1.41589E+3  -2.67749E+3
   1.42017E+3  -2.19593E+3
   2.03347E+3   3.57157E+2
   3.34615E+2  -1.42149E+3
   1.62504E+3   1.18692E+2
   3.38737E+3   1.47848E+3
  -9.97561E+2   1.58571E+3
  -1.29068E+3   1.22719E+3
  -2.00420E+3   6.89653E+2
   4.67878E+2  -4.60409E+2
   9.28741E+2   8.89763E+1
   2.11205E+3   2.05096E+3
  -1.48807E+3   2.78121E+2
  -2.29695E+3  -3.25902E+3
  -1.22879E+2  -2.28131E+3
   3.44592E+3  -7.87725E+2
  -1.00908E+2   5.20378E+2
  -1.14932E+3   8.70284E+2
   1.41199E+2   1.57752E+3
   9.15024E+2  -7.59324E+1
  -2.11762E+3   2.43757E+1
  -2.81546E+3   9.58463E+1
  -8.63853E+2  -1.02595E+3
  -1.02386E+3  -4.55863E+2
   1.42642E+3  -4.14511E+2
   2.82603E+3  -2.45534E+2
   8.73520E+2   7.12682E+2
   3.23414E+2  -1.23426E+2
  -4.23469E+2   1.68421E+3
  -7.90415E+2  -7.50062E+1
  -1.19693E+3   5.95202E+2
   3.15255E+2   9.73532E+2
   8.04167E+2  -8.49704E+2
  -2.85835E+2  -1.65165E+3
   7.57925E+2   1.97239E+3
  -2.92803E+2   6.26116E+2
   2.39030E+2  -2.85144E+2
   1.19757E+3  -6.40861E+2
  -5.80068E+2  -1.42248E+3
   6.80865E+2  -7.77756E+2
   2.65659E+3  -1.06395E+2
   1.63202E+3  -1.43038E+3
   1.86358E+3   5.12277E+2
  -2.10959E+2   1.00459E+3
  -1.18527E+3   3.52091E+2
   1.87895E+3  -1.98856E+3
   1.93962E+3  -9.85162E+2
   1.29180E+3   3.96220E+2
  -5.47187E+2   3.50708E+2
   2.04460E+2   3.35089E+2
   1.38452E+2  -2.05329E+3
   1.26296E+3   3.90669E+2
  -1.26813E+2  -1.05658E+3
  -1.42181E+3   2.82973E+2
   1.13565E+3   2.57697E+2
   7.65147E+2  -1.21757E+3
   2.14726E+2   9.48858E+2
   1.09897E+3  -1.72175E+3
  -2.54054E+3   7.28192E+2
   1.12396E+3   3.67429E+2
  -1.32936E+3  -1.98596E+3
   6.55776E+2  -1.93035E+3
   3.14253E+2   2.71837E+2
  -8.24061E+2   3.87131E+2
   1.34001E+2  -6.77249E+2
  -4.13047E+2   3.12662E+2
  -1.62772E+3  -1.35889E+3
   8.91677E+2   1.03059E+2
  -2.87361E+2  -6.91029E+1
   1.64564E+3  -1.00833E+3
   2.39150E+2   1.85146E+3
  -5.80811E+2   4.96096E+1
   4.85896E+2   2.56058E+3
   3.71561E+2  -5.17633E+1
  -8.68857E+2  -8.92971E+2
  -2.80961E+2   7.07764E+2
  -8.22843E+2  -7.28277E+2
  -1.77288E+2   2.01216E+3
   2.95404E+2  -3.45943E+2
  -1.09717E+3  -1.31532E+3
  -5.41464E+2   9.07833E+2
   1.09299E+3   2.01113E+2
   7.32874E+2   6.48912E+2
  -7.95590E+2   4.55780E+2
  -1.55193E+3   1.14403E+3
  -2.58133E+2   1.63623E+3
   4.05533E+2   2.68495E+2
  -3.89284E+2   7.85248E+2
  -2.73934E+2   2.25263E+3
  -2.72149E+3  -1.24296E+2
  -1.82118E+3  -1.71261E+2
   1.42812E+3  -1.13386E+2
   1.03993E+3  -1.49893E+2
   3.77387E+2   1.75289E+3
  -1.99440E+3   3.47387E+2
   8.98349E+2   8.66213E+2
   1.68133E+2   7.76164E+2
  -1.63465E+2   8.64848E+2
  -1.34474E+3   1.08949E+3
   1.21910E+2   3.52579E+2
  -1.30479E+2   1.13042E+3
  -1.44797E+3   1.44584E+3
  -1.62612E+3  -3.78711E+2
  -1.29866E+3  -1.73704E+2
   1.03866E+3   1.17681E+3
  -1.24555E+3  -9.22553E+2
   1.05759E+3  -4.29993E+2
  -1.49577E+2  -4.06149E+2
  -8.80231E+1   1.58033E+3
   1.37562E+3  -2.67505E+2
  -2.83314E+2   6.69533E+2
   4.57011E+2  -1.75198E+3
   5.56454E+2  -3.33640E+2
   1.00565E+3   1.37243E+3
   7.99229E+2   1.36950E+3
   2.89012E+2   4.80951E+2
   8.92124E+2   7.94780E+2
  -1.25827E+3   1.35178E+2
   2.33925E+3   7.02895E+1
   4.86042E+2   1.01973E+3
   2.36958E+2   1.46015E+3
   1.42131E+3  -1.46067E+3
  -2.25630E+1   1.29835E+3
   1.80542E+3   1.30708E+3
   1.12867E+2   1.47988E+3
  -9.02848E+2   6.20688E+2
   4.67238E+2   7.94466E+2
   4.97018E+2  -9.34583E+2
   2.58379E+2  -3.90674E+2
   5.32618E+2   1.47915E+3
   1.42735E+2  -1.46490E+2
  -2.29460E+3  -4.17219E+2
  -9.57366E+2   7.14216E+2
  -5.83078E+2  -5.22025E+2
  -1.58244E+3  -7.34626E+2
  -1.43478E+3   3.29896E+3
  -8.52920E+2  -1.50359E+2
   2.35797E+3   7.76227E+2
  -9.31108E+2  -6.09301E+2
   5.44147E+2  -1.25833E+3
   1.34110E+3  -9.86202E+2
   1.71151E+3   7.12739E+2
  -5.09654E+2   1.18170E+3
  -1.15941E+3  -1.57786E+3
   6.82052E+2   7.95731E+2
   3.39918E+2  -1.22648E+1
  -3.29314E+2   2.17208E+3
  -8.01361E+2  -7.02736E+2
   1.35227E+3  -1.10461E+3
   1.08027E+3   3.88662E+2
   1.95139E+3   1.46376E+3
  -6.63084E+2   1.23064E+3
  -8.23167E+1  -8.54738E+2
   5.25064E+2  -1.20137E+3
   9.92225E+2  -8.85573E+2
   1.21719E+3   6.59356E+2
   1.00399E+3   1.81026E+3
   7.45175E+2  -9.29090E+2
   1.32542E+3   1.13646E+3
  -1.17438E+3   1.55811E+3
  -1.13384E+3  -4.94521E+2
  -4.47209E+0  -8.80756E+2
   4.92622E+2   4.41502E+2
  -5.75188E+0  -1.25820E+3
   9.92575E+2   5.80056E+2
   2.20674E+2  -2.85089E+2
  -3.49630E+2  -3.25409E+2
  -1.75384E+2  -1.49213E+2
  -3.17574E+2   8.43471E+1
   1.51460E+2   7.69193E+2
   4.43645E+2  -1.29511E+3
   3.69718E+2  -7.12249E+2
   1.82651E+2  -2.74746E+2
  -1.11639E+3   8.77337E+2
  -5.51759E+1   8.45228E+2
  -1.64067E+3  -1.35909E+3
   2.39668E+2  -5.51168E+2
   2.00570E+3   2.44018E+2
   3.62256E+2  -1.61039E+3
   8.21583E+2   6.41160E+2
   7.66602E+2   5.04380E+2
   8.33534E+2   1.09286E+3
  -9.46462E+2   3.66085E+2
  -9.35126E+2   1.10995E+3
   1.10635E+3   1.82882E+2
   1.02186E+3   1.09407E+2
   8.35451E+2   6.88843E+2
   2.83238E+3   1.46872E+3
   2.73720E+2   1.49249E+3
   3.31602E+2  -2.65472E+2
  -1.41969E+3  -2.30275E+2
  -9.04135E+2  -4.98094E+2
   6.79120E+2   3.45476E+2
  -1.89174E+3  -3.28618E+2
   2.34376E+3  -1.28471E+3
  -1.68785E+3  -1.11533E+3
  -7.35180E+2  -1.54861E+2
   1.65481E+3  -1.46088E+3
   3.28644E+2  -1.38916E+2
  -2.04642E+2  -4.57806E+2
  -1.16964E+2   1.49564E+3
   3.42490E+1   6.33894E+2
  -4.57796E+0   9.95421E+1
  -1.07770E+3  -2.33302E+2
   1.93557E+2  -4.33865E+2
   3.69854E+2   4.38875E+2
   1.83452E+2  -9.30915E+2
  -1.05792E+3   7.51193E+1
  -4.06406E+2   4.20185E+2
  -1.04339E+3   1.27179E+3
  -1.16872E+3   9.37876E+2
  -1.70102E+3  -2.23297E+2
   2.13023E+3   5.70111E+2
  -6.99931E+2  -1.69533E+2
  -1.60102E+3  -4.64013E+2
  -2.04250E+3   5.71901E+2
   5.46494E+2  -4.93921E+1
   4.82934E+2  -1.07744E+3
   1.77163E+2  -1.11512E+3
  -1.32477E+1   6.54744E+2
  -2.32697E+3  -5.72744E+2
   1.85536E+3   1.61450E+3
   7.65509E+2  -5.05046E+2
   8.12514E+2  -9.97807E+2
  -7.61795E+2   7.92830E+1
  -1.97504E+3   5.22633E+2
  -1.29197E+3  -7.79223E+2
  -6.79997E+2   1.14160E+2
  -7.01888E+2  -2.17175E+3
   1.01512E+3  -4.43387E+2
  -8.22585E+1   1.34475E+3
  -5.22793E+2  -4.45536E+2
  -1.43785E+3  -1.23068E+3
  -6.90026E+2  -1.37091E+2
  -4.03487E+2  -5.64738E+2
   5.66252E+2   1.57581E+2
  -7.45744E+2  -6.24299E+2
  -1.13513E+3  -2.03804E+3
  -8.24798E+2   1.90863E+3
   1.32339E+3   6.46317E+2
  -1.41940E+3   1.79642E+3
  -1.55649E+3   2.44925E+1
   5.47185E+2  -1.44192E+2
  -2.52383E+3   6.83491E+2
   1.66086E+3  -1.03319E+3
   1.97920E+3   1.72977E+3
  -1.74040E+3  -1.61069E+2
   9.71423E+2   8.46586E+2
  -2.86613E+2   5.34797E+2
   7.86022E+2   7.61953E+2
  -1.29923E+2  -6.55359E+2
   8.34357E+2   9.82337E+2
   4.49026E+2   2.16139E+3
   5.89025E+2  -2.15541E+2
  -2.06206E+3   1.17588E+3
  -5.69880E+1  -1.63379E+3
   6.70837E+2  -7.45961E+2
  -6.12028E+2  -1.91972E+3
   7.41226E+2   1.27089E+3
   1.49027E+3   7.67599E+2
  -3.45129E+2   1.24993E+3
  -2.87688E+2   4.99324E+2
   2.79393E+2   1.73967E+3
  -4.88096E+2   5.18800E+2
   4.04503E+2  -2.79296E+2
  -8.57296E+2   6.38573E+2
   3.67813E+2   5.34351E+2
  -1.63733E+3   1.94485E+3
  -1.23438E+3   1.76628E+3
  -7.39179E+2  -4.22519E+2
  -7.39994E+1  -7.33567E+2
   1.70194E+2  -8.52533E+2
  -2.00699E+3  -1.58887E+3
  -1.06723E+2   2.61459E+3
   1.01420E+3   1.07547E+3
   1.96272E+3  -9.22586E+2
  -2.20373E+2  -1.01460E+3
  -4.28080E+1   1.68375E+2
  -4.94206E+2  -1.07776E+3
   1.42065E+3   2.06225E+2
