 
 $NMID
 ID=''
 FMTDAT='(2E13.5)'
 TRAMP=   1.00000E+0
 VOLUME=   1.00000E+0
 $END
  -1.87262E+4   9.29734E+3
  -5.30709E+4   9.22533E+3
  -5.05181E+4   1.82688E+4
  -4.66031E+4   1.68246E+4
  -4.88236E+4   1.60265E+4
  -4.80735E+4   1.81006E+4
  -4.63425E+4   1.67326E+4
  -4.73209E+4   1.58141E+4
  -4.66414E+4   1.69128E+4
  -4.56094E+4   1.60553E+4
  -4.60789E+4   1.50846E+4
  -4.54854E+4   1.58454E+4
  -4.46693E+4   1.53522E+4
  -4.51332E+4   1.44624E+4
  -4.46578E+4   1.47160E+4
  -4.38654E+4   1.41974E+4
  -4.41189E+4   1.36881E+4
  -4.38354E+4   1.38496E+4
  -4.31631E+4   1.35149E+4
  -4.34145E+4   1.30393E+4
  -4.29613E+4   1.32132E+4
  -4.24458E+4   1.30977E+4
  -4.25793E+4   1.29399E+4
  -4.23420E+4   1.28833E+4
  -4.17442E+4   1.26617E+4
  -4.18259E+4   1.25110E+4
  -4.16218E+4   1.24651E+4
  -4.12460E+4   1.20552E+4
  -4.11469E+4   1.17809E+4
  -4.08793E+4   1.17361E+4
  -4.04794E+4   1.16731E+4
  -4.03739E+4   1.14272E+4
  -4.02863E+4   1.12767E+4
  -3.97627E+4   1.10046E+4
  -3.95586E+4   1.09003E+4
  -3.94085E+4   1.08373E+4
  -3.89719E+4   1.06197E+4
  -3.87589E+4   1.05158E+4
  -3.84991E+4   1.04376E+4
  -3.82098E+4   1.03214E+4
  -3.80685E+4   1.00874E+4
  -3.78595E+4   9.79915E+3
  -3.75327E+4   9.50371E+3
  -3.72296E+4   9.37999E+3
  -3.69398E+4   9.22497E+3
  -3.67589E+4   9.00134E+3
  -3.65629E+4   8.84253E+3
  -3.62817E+4   8.68171E+3
  -3.61008E+4   8.53950E+3
  -3.59186E+4   8.37676E+3
  -3.57629E+4   8.06130E+3
  -3.54908E+4   7.98055E+3
  -3.52594E+4   7.79100E+3
  -3.50399E+4   7.70513E+3
  -3.49433E+4   7.52039E+3
  -3.46777E+4   7.31475E+3
  -3.45495E+4   7.07482E+3
  -3.43009E+4   6.81853E+3
  -3.41497E+4   6.58715E+3
  -3.38779E+4   6.34069E+3
  -3.36724E+4   6.20479E+3
  -3.35101E+4   6.09342E+3
  -3.34078E+4   5.92149E+3
  -3.31775E+4   5.71810E+3
  -3.30384E+4   5.58352E+3
  -3.28145E+4   5.43155E+3
  -3.26492E+4   5.33399E+3
  -3.24634E+4   5.14948E+3
  -3.22596E+4   4.89064E+3
  -3.20641E+4   4.72150E+3
  -3.18288E+4   4.53317E+3
  -3.17273E+4   4.39055E+3
  -3.15555E+4   4.15501E+3
  -3.12270E+4   3.97431E+3
  -3.11299E+4   3.80679E+3
  -3.08188E+4   3.67902E+3
  -3.07159E+4   3.54827E+3
  -3.04834E+4   3.38924E+3
  -3.02707E+4   3.22440E+3
  -3.01122E+4   3.10867E+3
  -2.98782E+4   2.89718E+3
  -2.96910E+4   2.81054E+3
  -2.94668E+4   2.64951E+3
  -2.92395E+4   2.52507E+3
  -2.91794E+4   2.31834E+3
  -2.89320E+4   2.19084E+3
  -2.87164E+4   1.99589E+3
  -2.84204E+4   1.90854E+3
  -2.82494E+4   1.76810E+3
  -2.81575E+4   1.62950E+3
  -2.78978E+4   1.54075E+3
  -2.76771E+4   1.35355E+3
  -2.75074E+4   1.36001E+3
  -2.74003E+4   1.13874E+3
  -2.72065E+4   1.12744E+3
  -2.69325E+4   9.58132E+2
  -2.67367E+4   8.59877E+2
  -2.65608E+4   8.29274E+2
  -2.63969E+4   6.49099E+2
  -2.62184E+4   5.20110E+2
  -2.59744E+4   4.34161E+2
  -2.57760E+4   3.71984E+2
  -2.56192E+4   2.71473E+2
  -2.54374E+4   2.68772E+2
  -2.53116E+4   1.75447E+2
  -2.51074E+4   9.40999E+1
  -2.48583E+4  -7.21271E+1
  -2.48155E+4  -1.25923E+2
  -2.46165E+4  -2.30899E+2
  -2.44259E+4  -3.14053E+2
  -2.42254E+4  -3.61183E+2
  -2.41278E+4  -3.06325E+2
  -2.39861E+4  -4.29000E+2
  -2.37932E+4  -5.63208E+2
  -2.36705E+4  -5.96332E+2
  -2.35756E+4  -7.48914E+2
  -2.33265E+4  -7.87785E+2
  -2.31893E+4  -8.12991E+2
  -2.29909E+4  -9.39730E+2
  -2.28134E+4  -9.58758E+2
  -2.27015E+4  -1.07718E+3
  -2.25488E+4  -1.08079E+3
  -2.25116E+4  -1.10674E+3
  -2.23520E+4  -1.24649E+3
  -2.21596E+4  -1.25608E+3
  -2.20139E+4  -1.27296E+3
  -2.18524E+4  -1.34931E+3
  -2.17274E+4  -1.45253E+3
  -2.16279E+4  -1.45759E+3
  -2.14895E+4  -1.47208E+3
  -2.13427E+4  -1.49428E+3
  -2.12090E+4  -1.57852E+3
  -2.09911E+4  -1.60844E+3
  -2.08914E+4  -1.55521E+3
  -2.08360E+4  -1.62240E+3
  -2.06389E+4  -1.73273E+3
  -2.05140E+4  -1.67566E+3
  -2.03647E+4  -1.70191E+3
  -2.02367E+4  -1.74516E+3
  -2.01127E+4  -1.71307E+3
  -2.00023E+4  -1.74845E+3
  -1.99032E+4  -1.80927E+3
  -1.97835E+4  -1.82732E+3
  -1.96464E+4  -1.84935E+3
  -1.95108E+4  -1.79189E+3
  -1.93640E+4  -1.89056E+3
  -1.92934E+4  -1.81931E+3
  -1.91334E+4  -1.85440E+3
  -1.90908E+4  -1.87236E+3
  -1.88990E+4  -1.91440E+3
  -1.88064E+4  -1.98003E+3
  -1.86541E+4  -1.96722E+3
  -1.85419E+4  -1.97879E+3
  -1.83474E+4  -1.96399E+3
  -1.82965E+4  -1.97291E+3
  -1.81399E+4  -1.98128E+3
  -1.81000E+4  -2.01965E+3
  -1.79766E+4  -2.05644E+3
  -1.77942E+4  -2.05085E+3
  -1.77939E+4  -2.07742E+3
  -1.76603E+4  -2.04590E+3
  -1.75334E+4  -2.09274E+3
  -1.74481E+4  -2.10444E+3
  -1.72562E+4  -2.13933E+3
  -1.71896E+4  -2.13249E+3
  -1.70280E+4  -2.11659E+3
  -1.68966E+4  -2.18406E+3
  -1.67722E+4  -2.15194E+3
  -1.66749E+4  -2.12333E+3
  -1.65874E+4  -2.10780E+3
  -1.64828E+4  -2.17172E+3
  -1.63423E+4  -2.13108E+3
  -1.62480E+4  -2.23178E+3
  -1.61337E+4  -2.21946E+3
  -1.60332E+4  -2.24221E+3
  -1.58578E+4  -2.18940E+3
  -1.58133E+4  -2.15721E+3
  -1.57620E+4  -2.23810E+3
  -1.55901E+4  -2.17199E+3
  -1.54439E+4  -2.19500E+3
  -1.53690E+4  -2.23479E+3
  -1.52423E+4  -2.26437E+3
  -1.52002E+4  -2.26107E+3
  -1.49971E+4  -2.26948E+3
  -1.49316E+4  -2.19135E+3
  -1.47589E+4  -2.25631E+3
  -1.47112E+4  -2.26625E+3
  -1.45786E+4  -2.26916E+3
  -1.44681E+4  -2.26901E+3
  -1.43794E+4  -2.23617E+3
  -1.42647E+4  -2.33188E+3
  -1.40534E+4  -2.22785E+3
  -1.40065E+4  -2.24825E+3
  -1.38928E+4  -2.25313E+3
  -1.37959E+4  -2.33777E+3
  -1.36856E+4  -2.28638E+3
  -1.37013E+4  -2.32362E+3
  -1.35082E+4  -2.30482E+3
  -1.33807E+4  -2.29939E+3
  -1.32273E+4  -2.37833E+3
  -1.31327E+4  -2.32097E+3
  -1.30783E+4  -2.39023E+3
  -1.30366E+4  -2.37517E+3
  -1.27846E+4  -2.38720E+3
  -1.27764E+4  -2.36283E+3
  -1.27342E+4  -2.33618E+3
  -1.26134E+4  -2.38851E+3
  -1.23645E+4  -2.33381E+3
  -1.23620E+4  -2.39924E+3
  -1.22610E+4  -2.43780E+3
  -1.22052E+4  -2.41022E+3
  -1.20532E+4  -2.48165E+3
  -1.19715E+4  -2.44143E+3
  -1.18657E+4  -2.50972E+3
  -1.18844E+4  -2.45116E+3
  -1.17677E+4  -2.48473E+3
  -1.16603E+4  -2.56067E+3
  -1.15257E+4  -2.47920E+3
  -1.14938E+4  -2.53138E+3
  -1.13555E+4  -2.54410E+3
  -1.12775E+4  -2.50521E+3
  -1.12031E+4  -2.52165E+3
  -1.11110E+4  -2.49935E+3
  -1.11022E+4  -2.55939E+3
  -1.09812E+4  -2.59645E+3
  -1.09364E+4  -2.59524E+3
  -1.08500E+4  -2.55839E+3
  -1.07926E+4  -2.53653E+3
  -1.07172E+4  -2.58104E+3
  -1.06388E+4  -2.66601E+3
  -1.05682E+4  -2.65450E+3
  -1.04451E+4  -2.66820E+3
  -1.04106E+4  -2.66240E+3
  -1.02906E+4  -2.71116E+3
  -1.02530E+4  -2.63305E+3
  -1.02477E+4  -2.70325E+3
  -1.01908E+4  -2.65517E+3
  -1.00809E+4  -2.67240E+3
  -1.00431E+4  -2.66191E+3
  -9.92726E+3  -2.66036E+3
  -9.91350E+3  -2.73181E+3
  -9.81790E+3  -2.67423E+3
  -9.87961E+3  -2.66605E+3
  -9.69037E+3  -2.71176E+3
  -9.70996E+3  -2.74636E+3
  -9.65363E+3  -2.69643E+3
  -9.60570E+3  -2.74061E+3
  -9.55709E+3  -2.75605E+3
  -9.42578E+3  -2.77729E+3
  -9.42207E+3  -2.70900E+3
  -9.37065E+3  -2.66861E+3
  -9.33130E+3  -2.68782E+3
  -9.31520E+3  -2.70620E+3
  -9.18103E+3  -2.75391E+3
  -9.17762E+3  -2.70864E+3
  -9.19365E+3  -2.72065E+3
  -9.10047E+3  -2.72288E+3
  -9.01124E+3  -2.66768E+3
  -8.99284E+3  -2.73309E+3
  -8.97433E+3  -2.74627E+3
  -8.93672E+3  -2.73255E+3
  -8.86728E+3  -2.82140E+3
  -8.76492E+3  -2.69893E+3
  -8.79453E+3  -2.72391E+3
  -8.74394E+3  -2.76779E+3
  -8.69491E+3  -2.74611E+3
  -8.68146E+3  -2.66435E+3
  -8.61789E+3  -2.72218E+3
  -8.65392E+3  -2.81561E+3
  -8.49167E+3  -2.76350E+3
  -8.47421E+3  -2.63813E+3
  -8.40975E+3  -2.69223E+3
  -8.36751E+3  -2.64971E+3
  -8.38502E+3  -2.65430E+3
  -8.33566E+3  -2.63663E+3
  -8.23627E+3  -2.62925E+3
  -8.21282E+3  -2.70513E+3
  -8.16937E+3  -2.61319E+3
  -8.08726E+3  -2.63471E+3
  -8.11490E+3  -2.63950E+3
  -8.06439E+3  -2.54587E+3
  -8.07735E+3  -2.48024E+3
  -7.99327E+3  -2.61988E+3
  -7.95039E+3  -2.57114E+3
  -7.88122E+3  -2.61208E+3
  -7.82013E+3  -2.55436E+3
  -7.81042E+3  -2.50468E+3
  -7.75959E+3  -2.50015E+3
  -7.76190E+3  -2.48473E+3
  -7.64201E+3  -2.48660E+3
  -7.69793E+3  -2.47308E+3
  -7.55335E+3  -2.49794E+3
  -7.55275E+3  -2.38835E+3
  -7.56177E+3  -2.44174E+3
  -7.47568E+3  -2.45346E+3
  -7.42004E+3  -2.44213E+3
  -7.41899E+3  -2.48605E+3
  -7.32782E+3  -2.36358E+3
  -7.30650E+3  -2.38918E+3
  -7.39477E+3  -2.35845E+3
  -7.26077E+3  -2.38368E+3
  -7.21283E+3  -2.36057E+3
  -7.23278E+3  -2.28356E+3
  -7.10181E+3  -2.31126E+3
  -7.06635E+3  -2.25961E+3
  -7.03777E+3  -2.30182E+3
  -7.02568E+3  -2.25959E+3
  -6.94886E+3  -2.19869E+3
  -6.90766E+3  -2.21317E+3
  -6.86943E+3  -2.19430E+3
  -6.84703E+3  -2.17673E+3
  -6.79998E+3  -2.13342E+3
  -6.75121E+3  -2.13236E+3
  -6.71945E+3  -2.22399E+3
  -6.64968E+3  -2.16098E+3
  -6.65583E+3  -2.07245E+3
  -6.64539E+3  -2.08758E+3
  -6.59266E+3  -2.08068E+3
  -6.48572E+3  -2.08710E+3
  -6.47972E+3  -2.04389E+3
  -6.43665E+3  -1.99504E+3
  -6.42781E+3  -2.04035E+3
  -6.40777E+3  -2.05823E+3
  -6.34162E+3  -2.04563E+3
  -6.27705E+3  -1.99283E+3
  -6.28091E+3  -1.98594E+3
  -6.23995E+3  -2.01617E+3
  -6.17662E+3  -2.01269E+3
  -6.13477E+3  -1.93550E+3
  -6.11832E+3  -1.91568E+3
  -5.99817E+3  -1.99306E+3
  -5.99861E+3  -1.93837E+3
  -5.98769E+3  -1.96205E+3
  -5.91892E+3  -1.87313E+3
  -5.90153E+3  -1.87655E+3
  -5.84585E+3  -1.86236E+3
  -5.82600E+3  -1.88125E+3
  -5.75825E+3  -1.87936E+3
  -5.76219E+3  -1.88742E+3
  -5.70293E+3  -1.83554E+3
  -5.69427E+3  -1.81845E+3
  -5.58015E+3  -1.86321E+3
  -5.48920E+3  -1.79157E+3
  -5.52928E+3  -1.77169E+3
  -5.47651E+3  -1.72428E+3
  -5.46579E+3  -1.79607E+3
  -5.38136E+3  -1.79872E+3
  -5.32074E+3  -1.82742E+3
  -5.31325E+3  -1.71900E+3
  -5.28785E+3  -1.72222E+3
  -5.21082E+3  -1.71483E+3
  -5.22680E+3  -1.76641E+3
  -5.15517E+3  -1.71568E+3
  -5.16384E+3  -1.73956E+3
  -5.10741E+3  -1.70388E+3
  -5.09042E+3  -1.74864E+3
  -5.02866E+3  -1.68831E+3
  -4.95442E+3  -1.72675E+3
  -4.96129E+3  -1.68477E+3
  -4.92578E+3  -1.60665E+3
  -4.90817E+3  -1.68244E+3
  -4.82844E+3  -1.60590E+3
  -4.77059E+3  -1.66039E+3
  -4.82476E+3  -1.66026E+3
  -4.75747E+3  -1.65902E+3
  -4.68566E+3  -1.59879E+3
  -4.72208E+3  -1.60062E+3
