 
 $NMID
 ID=''
 FMTDAT='(2E13.5)'
 TRAMP=   1.00000E+0
 VOLUME=   1.00000E+0
 $END
  -1.39007E+4  -9.06492E+3
  -2.63490E+4  -3.48951E+4
  -2.86199E+4  -3.20138E+4
  -2.30831E+4  -3.23284E+4
  -2.02604E+4  -3.60393E+4
  -1.78196E+4  -3.60380E+4
  -1.28074E+4  -3.64559E+4
  -9.14456E+3  -3.81282E+4
  -6.30675E+3  -3.75382E+4
  -1.94676E+3  -3.71120E+4
   1.51856E+3  -3.72623E+4
   4.10966E+3  -3.59693E+4
   7.75334E+3  -3.47401E+4
   1.09696E+4  -3.39605E+4
   1.34757E+4  -3.18180E+4
   1.64227E+4  -2.97499E+4
   1.90089E+4  -2.80992E+4
   2.09186E+4  -2.55053E+4
   2.31270E+4  -2.29757E+4
   2.50061E+4  -2.07250E+4
   2.62727E+4  -1.77567E+4
   2.77016E+4  -1.49517E+4
   2.88067E+4  -1.22598E+4
   2.93389E+4  -8.88836E+3
   2.98850E+4  -5.80064E+3
   3.00592E+4  -3.11417E+3
   2.98578E+4   4.27688E+1
   2.94906E+4   3.13218E+3
   2.88748E+4   5.95560E+3
   2.77504E+4   8.78700E+3
   2.67426E+4   1.12932E+4
   2.54879E+4   1.37520E+4
   2.36804E+4   1.63100E+4
   2.19564E+4   1.83582E+4
   2.00002E+4   2.01884E+4
   1.78482E+4   2.19550E+4
   1.56549E+4   2.34921E+4
   1.33587E+4   2.47475E+4
   1.10417E+4   2.57326E+4
   8.63786E+3   2.66951E+4
   6.11030E+3   2.72687E+4
   3.44163E+3   2.76731E+4
   9.22478E+2   2.78640E+4
  -1.47334E+3   2.76809E+4
  -3.84062E+3   2.74358E+4
  -6.13403E+3   2.69008E+4
  -8.52691E+3   2.62262E+4
  -1.06702E+4   2.53383E+4
  -1.26931E+4   2.42924E+4
  -1.46310E+4   2.31401E+4
  -1.64943E+4   2.17431E+4
  -1.81125E+4   2.02323E+4
  -1.95060E+4   1.86612E+4
  -2.09184E+4   1.70532E+4
  -2.20632E+4   1.52537E+4
  -2.31047E+4   1.34587E+4
  -2.39028E+4   1.14955E+4
  -2.46638E+4   9.53079E+3
  -2.50865E+4   7.47373E+3
  -2.53612E+4   5.51452E+3
  -2.54402E+4   3.53064E+3
  -2.54388E+4   1.61865E+3
  -2.53287E+4  -2.70750E+2
  -2.50057E+4  -2.24968E+3
  -2.43275E+4  -4.04879E+3
  -2.37832E+4  -5.81507E+3
  -2.30771E+4  -7.49298E+3
  -2.20714E+4  -9.08741E+3
  -2.11104E+4  -1.06074E+4
  -1.98531E+4  -1.19817E+4
  -1.87168E+4  -1.32441E+4
  -1.73156E+4  -1.42824E+4
  -1.59411E+4  -1.53258E+4
  -1.45657E+4  -1.61192E+4
  -1.30903E+4  -1.68427E+4
  -1.15017E+4  -1.74264E+4
  -1.00410E+4  -1.78944E+4
  -8.49407E+3  -1.80851E+4
  -7.04177E+3  -1.82894E+4
  -5.53974E+3  -1.83880E+4
  -4.07605E+3  -1.83439E+4
  -2.62713E+3  -1.81287E+4
  -1.28278E+3  -1.77992E+4
   1.14227E+1  -1.73936E+4
   1.29216E+3  -1.68182E+4
   2.42340E+3  -1.62357E+4
   3.59510E+3  -1.55593E+4
   4.50467E+3  -1.48436E+4
   5.41314E+3  -1.40556E+4
   6.31812E+3  -1.31526E+4
   7.07456E+3  -1.22295E+4
   7.68315E+3  -1.13627E+4
   8.18536E+3  -1.04745E+4
   8.64294E+3  -9.52011E+3
   9.06196E+3  -8.57363E+3
   9.33210E+3  -7.57714E+3
   9.46237E+3  -6.62778E+3
   9.70510E+3  -5.81080E+3
   9.85177E+3  -4.84401E+3
   9.84526E+3  -3.97129E+3
   9.73686E+3  -3.15371E+3
   9.61758E+3  -2.37812E+3
   9.40048E+3  -1.54908E+3
   9.23518E+3  -8.26547E+2
   8.96435E+3  -1.07326E+2
   8.72166E+3   4.94403E+2
   8.34410E+3   1.04848E+3
   8.03396E+3   1.54112E+3
   7.70472E+3   2.09367E+3
   7.15388E+3   2.50303E+3
   6.85569E+3   2.85333E+3
   6.44321E+3   3.22065E+3
   6.07130E+3   3.55198E+3
   5.59303E+3   3.83054E+3
   5.25809E+3   4.01704E+3
   4.85219E+3   4.21115E+3
   4.47029E+3   4.43450E+3
   4.09385E+3   4.51874E+3
   3.82014E+3   4.63830E+3
   3.55113E+3   4.66769E+3
   3.14852E+3   4.65065E+3
   2.88514E+3   4.69940E+3
   2.63082E+3   4.72301E+3
   2.34979E+3   4.72101E+3
   2.15672E+3   4.72825E+3
   1.90113E+3   4.66843E+3
   1.82601E+3   4.65823E+3
   1.60544E+3   4.59518E+3
   1.43257E+3   4.53316E+3
   1.22090E+3   4.49501E+3
   1.12954E+3   4.43612E+3
   1.02038E+3   4.35603E+3
   9.87951E+2   4.31097E+3
   8.54105E+2   4.25380E+3
   7.99861E+2   4.25574E+3
   7.39943E+2   4.27651E+3
   6.25354E+2   4.15854E+3
   6.69471E+2   4.18193E+3
   5.59712E+2   4.16974E+3
   4.67079E+2   4.14515E+3
   5.17617E+2   4.08207E+3
   3.87626E+2   4.18476E+3
   4.27848E+2   4.11250E+3
   2.75795E+2   4.14779E+3
   2.82187E+2   4.14155E+3
   2.04846E+2   4.18577E+3
   1.90884E+2   4.16030E+3
   8.11707E+1   4.15813E+3
   4.17908E+1   4.19874E+3
   1.00117E+1   4.20874E+3
  -8.79228E+1   4.16666E+3
  -1.97666E+2   4.19469E+3
  -2.74850E+2   4.19020E+3
  -2.83843E+2   4.12914E+3
  -3.22644E+2   4.17996E+3
  -4.34291E+2   4.11184E+3
  -5.37213E+2   4.09862E+3
  -6.82712E+2   4.12097E+3
  -7.06860E+2   4.04687E+3
  -7.53116E+2   3.98182E+3
  -8.25116E+2   4.01816E+3
  -8.78551E+2   3.91294E+3
  -9.45130E+2   3.89387E+3
  -9.92928E+2   3.82969E+3
  -1.04968E+3   3.76958E+3
  -1.06685E+3   3.63243E+3
  -1.15039E+3   3.61273E+3
  -1.14642E+3   3.54011E+3
  -1.13033E+3   3.44096E+3
  -1.16696E+3   3.35530E+3
  -1.18827E+3   3.34394E+3
  -1.22440E+3   3.22461E+3
  -1.16981E+3   3.13061E+3
  -1.17842E+3   3.03791E+3
  -1.14649E+3   3.01479E+3
  -1.14940E+3   2.89896E+3
  -1.10670E+3   2.87236E+3
  -9.71835E+2   2.78599E+3
  -1.06480E+3   2.75554E+3
  -9.79475E+2   2.73343E+3
  -9.31344E+2   2.64796E+3
  -9.15703E+2   2.69955E+3
  -9.24154E+2   2.56613E+3
  -8.10088E+2   2.52673E+3
  -7.70999E+2   2.58570E+3
  -7.55427E+2   2.58932E+3
  -7.56860E+2   2.47677E+3
  -7.31464E+2   2.48009E+3
  -6.40403E+2   2.53975E+3
  -5.81638E+2   2.49453E+3
  -5.53660E+2   2.48895E+3
  -5.22042E+2   2.52928E+3
  -4.99557E+2   2.51773E+3
  -5.23004E+2   2.49626E+3
  -4.85436E+2   2.54885E+3
  -4.89265E+2   2.59527E+3
  -4.63235E+2   2.50695E+3
  -4.76660E+2   2.50903E+3
  -5.15566E+2   2.49885E+3
  -4.61740E+2   2.62861E+3
  -5.07136E+2   2.55868E+3
  -4.96122E+2   2.58310E+3
  -5.07278E+2   2.53116E+3
  -5.01712E+2   2.54931E+3
  -5.27608E+2   2.51901E+3
  -5.15732E+2   2.55861E+3
  -6.05536E+2   2.50179E+3
  -6.26702E+2   2.54499E+3
  -6.35636E+2   2.51445E+3
  -6.43720E+2   2.54841E+3
  -6.94903E+2   2.55461E+3
  -7.28223E+2   2.52097E+3
  -6.87777E+2   2.46168E+3
  -6.81483E+2   2.42651E+3
  -7.14043E+2   2.48196E+3
  -7.45025E+2   2.43968E+3
  -7.63247E+2   2.39704E+3
  -7.51609E+2   2.36304E+3
  -8.11825E+2   2.36671E+3
  -7.93743E+2   2.34013E+3
  -8.33825E+2   2.29661E+3
  -8.12234E+2   2.29142E+3
  -7.90523E+2   2.20834E+3
  -7.75805E+2   2.19974E+3
  -8.41971E+2   2.17569E+3
  -8.80277E+2   2.16588E+3
  -8.40785E+2   2.11562E+3
  -8.35353E+2   2.14334E+3
  -7.58731E+2   2.10904E+3
  -8.29432E+2   2.09603E+3
  -8.41769E+2   2.05565E+3
  -8.29118E+2   1.98107E+3
  -8.36955E+2   2.03519E+3
  -8.05956E+2   1.87258E+3
  -8.18330E+2   1.96780E+3
  -8.21069E+2   1.96483E+3
  -8.04781E+2   1.91577E+3
  -8.47393E+2   1.96805E+3
  -8.18121E+2   1.92583E+3
  -8.49528E+2   1.90979E+3
  -7.77387E+2   1.82614E+3
  -8.12045E+2   1.82294E+3
  -8.40443E+2   1.85871E+3
  -8.02571E+2   1.85528E+3
  -8.27848E+2   1.77538E+3
  -8.27578E+2   1.75173E+3
  -8.80140E+2   1.74203E+3
  -8.41808E+2   1.74035E+3
  -8.89577E+2   1.71546E+3
  -9.08987E+2   1.70285E+3
  -8.82299E+2   1.71397E+3
  -8.79097E+2   1.70696E+3
  -9.12553E+2   1.64913E+3
  -9.14077E+2   1.66343E+3
  -8.73299E+2   1.57398E+3
  -8.27008E+2   1.59818E+3
  -8.76453E+2   1.57239E+3
  -8.74737E+2   1.53372E+3
  -8.89060E+2   1.48790E+3
  -8.38913E+2   1.49124E+3
  -8.47170E+2   1.48016E+3
  -8.40123E+2   1.41492E+3
  -8.55038E+2   1.42230E+3
  -8.94304E+2   1.35494E+3
  -8.85592E+2   1.38902E+3
  -8.87340E+2   1.34436E+3
  -7.95934E+2   1.32349E+3
  -7.59027E+2   1.25075E+3
  -8.49012E+2   1.19785E+3
  -7.62262E+2   1.22951E+3
  -7.99282E+2   1.16143E+3
  -7.28612E+2   1.20045E+3
  -7.12075E+2   1.21158E+3
  -7.60163E+2   1.19243E+3
  -6.49969E+2   1.14058E+3
  -6.92789E+2   1.14196E+3
  -7.35841E+2   1.15777E+3
  -6.95496E+2   1.14706E+3
  -6.20887E+2   1.09483E+3
  -6.14949E+2   1.09085E+3
  -6.69400E+2   1.13768E+3
  -5.71356E+2   1.04434E+3
  -6.31578E+2   1.08467E+3
  -5.92515E+2   1.11344E+3
  -5.80170E+2   1.11672E+3
  -5.94979E+2   1.10714E+3
  -5.78317E+2   1.10978E+3
  -5.54562E+2   1.06496E+3
  -5.65065E+2   1.10706E+3
  -5.91662E+2   1.06767E+3
  -5.09100E+2   1.11936E+3
  -5.80272E+2   1.11568E+3
  -5.69345E+2   1.06744E+3
  -5.42230E+2   1.06646E+3
  -5.31411E+2   1.10530E+3
  -5.27799E+2   1.10003E+3
  -5.67172E+2   1.00738E+3
  -5.45619E+2   1.08262E+3
  -5.58970E+2   1.06177E+3
  -5.06327E+2   1.08348E+3
  -5.49832E+2   1.05835E+3
  -5.36495E+2   1.04727E+3
  -5.83086E+2   1.08787E+3
  -5.05756E+2   1.04271E+3
  -5.43388E+2   1.05762E+3
  -5.48672E+2   9.86905E+2
  -5.37111E+2   1.00829E+3
  -5.21782E+2   1.02481E+3
  -5.61259E+2   9.97224E+2
  -5.28091E+2   9.58698E+2
  -5.25153E+2   9.98271E+2
  -5.40749E+2   9.69741E+2
  -5.71469E+2   8.87266E+2
  -5.35670E+2   9.09164E+2
  -4.17203E+2   8.90073E+2
  -4.59226E+2   9.25493E+2
  -4.78912E+2   8.96053E+2
  -4.31578E+2   8.36370E+2
  -4.34426E+2   8.29636E+2
  -4.94515E+2   8.30365E+2
  -4.04992E+2   8.68674E+2
  -4.02005E+2   8.47431E+2
  -4.58375E+2   8.34256E+2
  -3.57562E+2   7.67882E+2
  -3.00921E+2   8.69494E+2
  -3.94502E+2   8.20112E+2
  -3.43494E+2   8.01774E+2
  -3.33744E+2   8.72794E+2
  -2.51952E+2   8.05531E+2
  -3.26590E+2   7.60978E+2
  -2.96724E+2   7.77494E+2
  -3.45444E+2   7.75529E+2
  -2.84552E+2   8.04494E+2
  -2.35877E+2   7.30752E+2
  -2.25385E+2   7.79896E+2
  -1.66032E+2   7.72118E+2
  -2.78217E+2   8.37495E+2
  -2.17327E+2   7.98337E+2
  -2.36925E+2   8.14289E+2
  -2.62557E+2   8.01298E+2
  -1.45812E+2   7.33817E+2
  -2.28453E+2   7.74063E+2
  -2.09302E+2   8.32457E+2
  -1.75771E+2   8.17097E+2
  -1.79843E+2   8.31451E+2
  -2.50088E+2   7.68940E+2
  -1.67416E+2   8.22568E+2
  -2.57669E+2   8.03426E+2
  -1.51461E+2   7.76225E+2
  -2.14904E+2   7.92880E+2
  -1.74353E+2   7.38407E+2
  -1.60346E+2   6.92033E+2
  -2.12280E+2   7.75547E+2
  -2.16185E+2   7.62431E+2
  -1.24138E+2   7.29550E+2
  -1.81271E+2   7.12003E+2
  -1.46534E+2   8.44255E+2
  -1.26034E+2   7.73210E+2
  -1.90186E+2   7.68788E+2
  -1.06290E+2   7.45417E+2
  -1.41859E+2   7.19296E+2
  -1.80845E+2   7.42348E+2
  -1.34765E+2   6.58959E+2
  -1.12251E+2   6.59771E+2
  -1.15084E+2   6.75244E+2
  -1.07857E+2   6.96966E+2
  -9.69974E+1   6.41114E+2
