 
 $NMID
 ID=''
 FMTDAT='(2E13.5)'
 TRAMP=   1.00000E+0
 VOLUME=   1.00000E+0
 $END
  -2.16025E+4   4.97265E+3
  -5.72084E+4  -3.59078E+3
  -5.69903E+4   6.32264E+3
  -5.26047E+4   5.64472E+3
  -5.47623E+4   4.26313E+3
  -5.44686E+4   6.62426E+3
  -5.24181E+4   5.59006E+3
  -5.30594E+4   4.41125E+3
  -5.27742E+4   5.66490E+3
  -5.13162E+4   5.00709E+3
  -5.15662E+4   4.10041E+3
  -5.12018E+4   4.93949E+3
  -5.01936E+4   4.54498E+3
  -5.04588E+4   3.51306E+3
  -5.01400E+4   3.87530E+3
  -4.92068E+4   3.42091E+3
  -4.93710E+4   2.84387E+3
  -4.91232E+4   3.15985E+3
  -4.84015E+4   2.87781E+3
  -4.85267E+4   2.39216E+3
  -4.81220E+4   2.56183E+3
  -4.75588E+4   2.50783E+3
  -4.76312E+4   2.19886E+3
  -4.74383E+4   2.26614E+3
  -4.67576E+4   2.08008E+3
  -4.67882E+4   1.76904E+3
  -4.66181E+4   1.78856E+3
  -4.60297E+4   1.44966E+3
  -4.58197E+4   1.07925E+3
  -4.55722E+4   1.08788E+3
  -4.51248E+4   9.36007E+2
  -4.49629E+4   6.90461E+2
  -4.47687E+4   6.06776E+2
  -4.42383E+4   2.64331E+2
  -4.39563E+4   1.63320E+2
  -4.36903E+4   1.26744E+2
  -4.32252E+4  -4.65866E+1
  -4.29000E+4  -2.01593E+2
  -4.24918E+4  -1.91690E+2
  -4.21478E+4  -2.87612E+2
  -4.19043E+4  -5.54071E+2
  -4.15733E+4  -8.56550E+2
  -4.10738E+4  -1.06712E+3
  -4.07660E+4  -1.30355E+3
  -4.03537E+4  -1.37837E+3
  -4.00539E+4  -1.54160E+3
  -3.97822E+4  -1.77715E+3
  -3.95118E+4  -1.88137E+3
  -3.91934E+4  -2.03700E+3
  -3.88329E+4  -2.17102E+3
  -3.85711E+4  -2.38101E+3
  -3.82558E+4  -2.57008E+3
  -3.78679E+4  -2.63869E+3
  -3.75722E+4  -2.68948E+3
  -3.73580E+4  -2.79972E+3
  -3.70247E+4  -2.99344E+3
  -3.67762E+4  -3.23787E+3
  -3.65463E+4  -3.36924E+3
  -3.61499E+4  -3.48343E+3
  -3.58159E+4  -3.71916E+3
  -3.54749E+4  -3.71918E+3
  -3.52754E+4  -3.87204E+3
  -3.50449E+4  -3.87705E+3
  -3.47723E+4  -3.99240E+3
  -3.45371E+4  -4.14674E+3
  -3.42068E+4  -4.27710E+3
  -3.39066E+4  -4.26073E+3
  -3.37142E+4  -4.35661E+3
  -3.33987E+4  -4.45789E+3
  -3.31329E+4  -4.66275E+3
  -3.28695E+4  -4.70392E+3
  -3.26626E+4  -4.76582E+3
  -3.24371E+4  -4.82190E+3
  -3.21423E+4  -4.95234E+3
  -3.18727E+4  -5.04893E+3
  -3.15900E+4  -5.06253E+3
  -3.13806E+4  -5.16037E+3
  -3.11163E+4  -5.31880E+3
  -3.08761E+4  -5.29373E+3
  -3.06324E+4  -5.37441E+3
  -3.04515E+4  -5.48217E+3
  -3.01992E+4  -5.62160E+3
  -2.99084E+4  -5.61037E+3
  -2.96757E+4  -5.79077E+3
  -2.94716E+4  -5.83376E+3
  -2.91989E+4  -5.94812E+3
  -2.89494E+4  -6.08935E+3
  -2.86700E+4  -6.12243E+3
  -2.84719E+4  -6.25380E+3
  -2.82097E+4  -6.29454E+3
  -2.79616E+4  -6.40138E+3
  -2.77607E+4  -6.46434E+3
  -2.74659E+4  -6.56585E+3
  -2.72049E+4  -6.60889E+3
  -2.70238E+4  -6.78331E+3
  -2.66972E+4  -6.85410E+3
  -2.65012E+4  -6.83623E+3
  -2.62083E+4  -6.88267E+3
  -2.60812E+4  -7.00398E+3
  -2.57538E+4  -7.14675E+3
  -2.54691E+4  -7.15213E+3
  -2.51846E+4  -7.24056E+3
  -2.49328E+4  -7.26522E+3
  -2.47660E+4  -7.32807E+3
  -2.44858E+4  -7.50990E+3
  -2.42540E+4  -7.50529E+3
  -2.40096E+4  -7.47993E+3
  -2.36826E+4  -7.56377E+3
  -2.35001E+4  -7.57286E+3
  -2.32030E+4  -7.67526E+3
  -2.28749E+4  -7.67713E+3
  -2.27198E+4  -7.66183E+3
  -2.25118E+4  -7.73020E+3
  -2.22318E+4  -7.70435E+3
  -2.20296E+4  -7.80752E+3
  -2.18861E+4  -7.86581E+3
  -2.15741E+4  -7.89908E+3
  -2.13526E+4  -7.92252E+3
  -2.10648E+4  -7.95055E+3
  -2.08432E+4  -7.92375E+3
  -2.06028E+4  -7.86384E+3
  -2.04088E+4  -8.00910E+3
  -2.02491E+4  -7.98004E+3
  -2.00072E+4  -8.04645E+3
  -1.97805E+4  -8.06136E+3
  -1.95980E+4  -8.03769E+3
  -1.94138E+4  -8.05952E+3
  -1.91596E+4  -8.05623E+3
  -1.90035E+4  -8.00534E+3
  -1.87416E+4  -8.03636E+3
  -1.85566E+4  -8.08327E+3
  -1.84019E+4  -8.07893E+3
  -1.81399E+4  -8.08695E+3
  -1.80270E+4  -8.05714E+3
  -1.78701E+4  -8.06228E+3
  -1.76265E+4  -8.04241E+3
  -1.74820E+4  -8.13064E+3
  -1.72936E+4  -8.10985E+3
  -1.71188E+4  -8.07342E+3
  -1.68629E+4  -8.05960E+3
  -1.67966E+4  -8.17352E+3
  -1.65497E+4  -8.09828E+3
  -1.63554E+4  -8.08117E+3
  -1.61962E+4  -8.08045E+3
  -1.60327E+4  -8.09991E+3
  -1.58680E+4  -8.09835E+3
  -1.57156E+4  -8.19305E+3
  -1.55327E+4  -8.15042E+3
  -1.53733E+4  -8.13047E+3
  -1.52169E+4  -8.17097E+3
  -1.51226E+4  -8.16309E+3
  -1.48576E+4  -8.19943E+3
  -1.47044E+4  -8.18206E+3
  -1.45131E+4  -8.20470E+3
  -1.43807E+4  -8.24263E+3
  -1.42338E+4  -8.25515E+3
  -1.40328E+4  -8.26252E+3
  -1.38907E+4  -8.24512E+3
  -1.37207E+4  -8.31204E+3
  -1.35685E+4  -8.24616E+3
  -1.34511E+4  -8.23209E+3
  -1.33381E+4  -8.31327E+3
  -1.31186E+4  -8.31950E+3
  -1.29079E+4  -8.34041E+3
  -1.28446E+4  -8.31926E+3
  -1.26619E+4  -8.39665E+3
  -1.24980E+4  -8.38368E+3
  -1.23598E+4  -8.30949E+3
  -1.21768E+4  -8.40564E+3
  -1.21029E+4  -8.37176E+3
  -1.18565E+4  -8.40339E+3
  -1.17712E+4  -8.42357E+3
  -1.16247E+4  -8.40617E+3
  -1.14485E+4  -8.41917E+3
  -1.12837E+4  -8.44741E+3
  -1.12017E+4  -8.45467E+3
  -1.10288E+4  -8.43540E+3
  -1.09105E+4  -8.46353E+3
  -1.07593E+4  -8.45123E+3
  -1.06321E+4  -8.48481E+3
  -1.05765E+4  -8.48157E+3
  -1.03416E+4  -8.50585E+3
  -1.02100E+4  -8.44195E+3
  -1.01658E+4  -8.56982E+3
  -9.98447E+3  -8.50700E+3
  -9.86994E+3  -8.51694E+3
  -9.80391E+3  -8.44753E+3
  -9.64129E+3  -8.50736E+3
  -9.53655E+3  -8.45643E+3
  -9.32094E+3  -8.49155E+3
  -9.23246E+3  -8.48423E+3
  -9.15228E+3  -8.47857E+3
  -9.02137E+3  -8.51493E+3
  -8.95912E+3  -8.49357E+3
  -8.79597E+3  -8.51629E+3
  -8.66138E+3  -8.47505E+3
  -8.61596E+3  -8.48302E+3
  -8.45541E+3  -8.53956E+3
  -8.36167E+3  -8.50586E+3
  -8.25177E+3  -8.46861E+3
  -8.12915E+3  -8.53134E+3
  -8.03473E+3  -8.54464E+3
  -7.90252E+3  -8.50430E+3
  -7.77575E+3  -8.49109E+3
  -7.66425E+3  -8.46566E+3
  -7.60535E+3  -8.46527E+3
  -7.55183E+3  -8.50017E+3
  -7.35730E+3  -8.43534E+3
  -7.30541E+3  -8.46270E+3
  -7.22355E+3  -8.42476E+3
  -7.09436E+3  -8.42559E+3
  -6.97072E+3  -8.38330E+3
  -6.89222E+3  -8.30554E+3
  -6.78906E+3  -8.32843E+3
  -6.71945E+3  -8.33794E+3
  -6.61738E+3  -8.32574E+3
  -6.49779E+3  -8.31455E+3
  -6.48262E+3  -8.37502E+3
  -6.37374E+3  -8.29331E+3
  -6.26574E+3  -8.28474E+3
  -6.15162E+3  -8.28796E+3
  -6.04366E+3  -8.19869E+3
  -5.95714E+3  -8.24650E+3
  -5.91540E+3  -8.23143E+3
  -5.71585E+3  -8.27763E+3
  -5.77517E+3  -8.21525E+3
  -5.71274E+3  -8.15104E+3
  -5.62205E+3  -8.17370E+3
  -5.51393E+3  -8.17145E+3
  -5.46382E+3  -8.17273E+3
  -5.31775E+3  -8.13991E+3
  -5.28497E+3  -8.17257E+3
  -5.16193E+3  -8.10527E+3
  -5.08234E+3  -8.11317E+3
  -4.97026E+3  -8.07350E+3
  -4.96497E+3  -8.06757E+3
  -4.92222E+3  -8.00785E+3
  -4.76993E+3  -7.95916E+3
  -4.77378E+3  -8.02727E+3
  -4.70355E+3  -7.97558E+3
  -4.66775E+3  -7.97798E+3
  -4.54171E+3  -7.90184E+3
  -4.49943E+3  -7.90764E+3
  -4.37258E+3  -7.87328E+3
  -4.35291E+3  -7.82318E+3
  -4.26183E+3  -7.85088E+3
  -4.25486E+3  -7.74533E+3
  -4.17926E+3  -7.82070E+3
  -4.10485E+3  -7.76466E+3
  -4.04708E+3  -7.74893E+3
  -4.03232E+3  -7.78584E+3
  -3.91979E+3  -7.71913E+3
  -3.86823E+3  -7.70962E+3
  -3.81262E+3  -7.67293E+3
  -3.74915E+3  -7.64259E+3
  -3.65294E+3  -7.63123E+3
  -3.64319E+3  -7.54580E+3
  -3.65056E+3  -7.56519E+3
  -3.52890E+3  -7.49112E+3
  -3.47548E+3  -7.54136E+3
  -3.42512E+3  -7.49815E+3
  -3.40710E+3  -7.47831E+3
  -3.31977E+3  -7.49864E+3
  -3.25517E+3  -7.41893E+3
  -3.23068E+3  -7.47307E+3
  -3.19383E+3  -7.46520E+3
  -3.10171E+3  -7.35343E+3
  -3.03996E+3  -7.36142E+3
  -3.07075E+3  -7.32459E+3
  -2.96541E+3  -7.29731E+3
  -2.89078E+3  -7.26486E+3
  -2.88129E+3  -7.20561E+3
  -2.85112E+3  -7.19759E+3
  -2.80849E+3  -7.19107E+3
  -2.68365E+3  -7.15339E+3
  -2.77325E+3  -7.19093E+3
  -2.71224E+3  -7.07853E+3
  -2.57887E+3  -7.16135E+3
  -2.53080E+3  -7.03617E+3
  -2.53639E+3  -7.01882E+3
  -2.48344E+3  -6.97516E+3
  -2.44921E+3  -6.92586E+3
  -2.37423E+3  -6.97845E+3
  -2.32035E+3  -6.95775E+3
  -2.28428E+3  -6.82569E+3
  -2.27110E+3  -6.94626E+3
  -2.23891E+3  -6.85510E+3
  -2.17479E+3  -6.85312E+3
  -2.11933E+3  -6.73087E+3
  -2.12974E+3  -6.68092E+3
  -2.05021E+3  -6.67816E+3
  -2.08359E+3  -6.64834E+3
  -1.96944E+3  -6.65554E+3
  -1.94643E+3  -6.63101E+3
  -1.98088E+3  -6.63072E+3
  -1.88277E+3  -6.60188E+3
  -1.82453E+3  -6.61815E+3
  -1.81667E+3  -6.55215E+3
  -1.77128E+3  -6.50371E+3
  -1.76279E+3  -6.43591E+3
  -1.77486E+3  -6.42213E+3
  -1.68792E+3  -6.48631E+3
  -1.63976E+3  -6.43587E+3
  -1.66558E+3  -6.37814E+3
  -1.61162E+3  -6.34186E+3
  -1.56825E+3  -6.32035E+3
  -1.45589E+3  -6.28472E+3
  -1.46855E+3  -6.22086E+3
  -1.48298E+3  -6.24851E+3
  -1.38754E+3  -6.19085E+3
  -1.31249E+3  -6.23412E+3
  -1.39244E+3  -6.15029E+3
  -1.32321E+3  -6.06853E+3
  -1.31951E+3  -6.09436E+3
  -1.31493E+3  -6.09644E+3
  -1.23920E+3  -5.98802E+3
  -1.25202E+3  -6.02470E+3
  -1.19157E+3  -5.99900E+3
  -1.20207E+3  -5.92382E+3
  -1.16105E+3  -5.94575E+3
  -1.06240E+3  -5.89181E+3
  -1.10918E+3  -5.87666E+3
  -1.11754E+3  -5.78256E+3
  -1.04853E+3  -5.82440E+3
  -1.03502E+3  -5.84834E+3
  -9.67385E+2  -5.75652E+3
  -1.01140E+3  -5.73078E+3
  -9.82476E+2  -5.67511E+3
  -9.30784E+2  -5.59637E+3
  -9.07236E+2  -5.58744E+3
  -9.19173E+2  -5.59641E+3
  -8.68574E+2  -5.55942E+3
  -8.97811E+2  -5.55097E+3
  -7.87713E+2  -5.51257E+3
  -7.74669E+2  -5.48115E+3
  -8.20559E+2  -5.40215E+3
  -8.45817E+2  -5.41547E+3
  -8.04483E+2  -5.39567E+3
  -7.62254E+2  -5.35631E+3
  -7.65987E+2  -5.31667E+3
  -7.15385E+2  -5.22581E+3
  -7.04495E+2  -5.20876E+3
  -6.17927E+2  -5.23170E+3
  -6.90139E+2  -5.23127E+3
  -5.61816E+2  -5.15727E+3
  -6.36285E+2  -5.13477E+3
  -6.21111E+2  -5.14619E+3
  -5.67090E+2  -5.06401E+3
  -6.13788E+2  -5.09863E+3
  -5.15476E+2  -4.95137E+3
  -4.82018E+2  -4.96187E+3
  -4.76866E+2  -4.94625E+3
  -4.79867E+2  -4.89553E+3
  -4.43525E+2  -4.85419E+3
  -4.25164E+2  -4.84870E+3
  -4.52098E+2  -4.84017E+3
  -3.72660E+2  -4.79947E+3
  -3.78663E+2  -4.82449E+3
  -3.33592E+2  -4.75579E+3
  -3.80584E+2  -4.70782E+3
  -3.74712E+2  -4.68652E+3
  -3.37612E+2  -4.61992E+3
  -3.40617E+2  -4.56397E+3
  -2.19636E+2  -4.62440E+3
  -2.53641E+2  -4.57973E+3
  -2.98406E+2  -4.52654E+3
  -2.41224E+2  -4.50984E+3
