 LCModel (Version 6.3-1N) Copyright: S.W. Provencher.          Ref.: Magn. Reson. Med. 30:672-679 (1993).                
 Slice_N1@23_11  02-Jun-2023 14:37:33
 27 lines in following concentration table = NCONC+1
    Conc.  %SD /Cr+PCr  Metabolite                                         
 2.40E-06  13% 3.3E-04 Mac                                                 
 9.23E-04 999%   0.125 Cr                                                  
 5.82E-02  28%   7.875 PCr                                                 
 7.03E-02  11%   9.520 Ins                                                 
    0.110   6%  14.876 NAA                                                 
 5.74E-02  13%   7.772 Tau                                                 
 1.34E-02  15%   1.808 PCho                                                
    0.000 999%   0.000 GPC                                                 
    0.101   9%  13.615 Glu                                                 
 2.70E-02  25%   3.659 Gln                                                 
    0.000 999%   0.000 Ala                                                 
    0.000 999%   0.000 Asc                                                 
 4.41E-03 174%   0.597 Asp                                                 
 9.41E-03  43%   1.273 GABA                                                
 8.65E-03  59%   1.171 Glc                                                 
 6.60E-03  59%   0.893 GSH                                                 
    0.000 999%   0.000 Lac                                                 
    0.000 999%   0.000 NAAG                                                
    0.000 999%   0.000 PE                                                  
 1.34E-02  15%   1.808 GPC+PCho                                            
    0.110   6%  14.876 NAA+NAAG                                            
    0.128   9%  17.275 Glu+Gln                                             
 5.91E-02  10%   8.000 Cr+PCr                                              
    0.110   6%  14.876 NAA+NAAG                                            
 5.91E-02  10%   8.000 Cr+PCr                                              
    0.128   9%  17.275 Glu+Gln                                             
   6 lines in following misc. output table
  FWHM = 0.035 ppm    S/N =   4                                            
  Data shift = 0.064 ppm                                                   
  Ph: -27 deg      -2.6 deg/ppm                                            
  alphaB,S = 9.0E-01,   2.2E+01                                            
   18 spline knots.   Ns = 7(1)                                            
  ( 5) 2 infls.   ( 2) 2 extrs.                                            
  654 points on ppm-axis = NY
      4.000000     3.994181     3.988363     3.982544     3.976726     3.970907     3.965088     3.959270     3.953451     3.947633
      3.941814     3.935995     3.930177     3.924358     3.918540     3.912721     3.906902     3.901084     3.895265     3.889446
      3.883628     3.877809     3.871991     3.866172     3.860353     3.854535     3.848716     3.842898     3.837079     3.831260
      3.825442     3.819623     3.813805     3.807986     3.802167     3.796349     3.790530     3.784712     3.778893     3.773074
      3.767256     3.761437     3.755619     3.749800     3.743981     3.738163     3.732344     3.726526     3.720707     3.714888
      3.709070     3.703251     3.697433     3.691614     3.685795     3.679977     3.674158     3.668339     3.662521     3.656702
      3.650884     3.645065     3.639246     3.633428     3.627609     3.621791     3.615972     3.610153     3.604335     3.598516
      3.592698     3.586879     3.581060     3.575242     3.569423     3.563605     3.557786     3.551967     3.546149     3.540330
      3.534512     3.528693     3.522874     3.517056     3.511237     3.505419     3.499600     3.493781     3.487963     3.482144
      3.476326     3.470507     3.464688     3.458870     3.453051     3.447232     3.441414     3.435595     3.429777     3.423958
      3.418139     3.412321     3.406502     3.400684     3.394865     3.389046     3.383228     3.377409     3.371591     3.365772
      3.359953     3.354135     3.348316     3.342498     3.336679     3.330860     3.325042     3.319223     3.313405     3.307586
      3.301767     3.295949     3.290130     3.284312     3.278493     3.272674     3.266856     3.261037     3.255219     3.249400
      3.243581     3.237763     3.231944     3.226125     3.220307     3.214488     3.208670     3.202851     3.197032     3.191214
      3.185395     3.179577     3.173758     3.167939     3.162121     3.156302     3.150484     3.144665     3.138846     3.133028
      3.127209     3.121391     3.115572     3.109753     3.103935     3.098116     3.092298     3.086479     3.080660     3.074842
      3.069023     3.063205     3.057386     3.051567     3.045749     3.039930     3.034111     3.028293     3.022474     3.016656
      3.010837     3.005018     2.999200     2.993381     2.987563     2.981744     2.975925     2.970107     2.964288     2.958470
      2.952651     2.946832     2.941014     2.935195     2.929377     2.923558     2.917739     2.911921     2.906102     2.900284
      2.894465     2.888646     2.882828     2.877009     2.871191     2.865372     2.859553     2.853735     2.847916     2.842098
      2.836279     2.830460     2.824642     2.818823     2.813004     2.807186     2.801367     2.795549     2.789730     2.783911
      2.778093     2.772274     2.766456     2.760637     2.754818     2.749000     2.743181     2.737363     2.731544     2.725725
      2.719907     2.714088     2.708270     2.702451     2.696632     2.690814     2.684995     2.679177     2.673358     2.667539
      2.661721     2.655902     2.650084     2.644265     2.638446     2.632628     2.626809     2.620991     2.615172     2.609353
      2.603535     2.597716     2.591897     2.586079     2.580260     2.574442     2.568623     2.562804     2.556986     2.551167
      2.545349     2.539530     2.533711     2.527893     2.522074     2.516256     2.510437     2.504618     2.498800     2.492981
      2.487163     2.481344     2.475525     2.469707     2.463888     2.458070     2.452251     2.446432     2.440614     2.434795
      2.428977     2.423158     2.417339     2.411521     2.405702     2.399884     2.394065     2.388246     2.382428     2.376609
      2.370790     2.364972     2.359153     2.353335     2.347516     2.341697     2.335879     2.330060     2.324242     2.318423
      2.312604     2.306786     2.300967     2.295149     2.289330     2.283511     2.277693     2.271874     2.266056     2.260237
      2.254418     2.248600     2.242781     2.236963     2.231144     2.225325     2.219507     2.213688     2.207870     2.202051
      2.196232     2.190414     2.184595     2.178777     2.172958     2.167139     2.161321     2.155502     2.149683     2.143865
      2.138046     2.132228     2.126409     2.120590     2.114772     2.108953     2.103135     2.097316     2.091497     2.085679
      2.079860     2.074042     2.068223     2.062404     2.056586     2.050767     2.044949     2.039130     2.033311     2.027493
      2.021674     2.015856     2.010037     2.004218     1.998400     1.992581     1.986763     1.980944     1.975126     1.969307
      1.963489     1.957670     1.951852     1.946033     1.940215     1.934397     1.928578     1.922760     1.916941     1.911123
      1.905304     1.899486     1.893667     1.887849     1.882030     1.876212     1.870393     1.864575     1.858756     1.852938
      1.847119     1.841301     1.835482     1.829664     1.823845     1.818027     1.812208     1.806390     1.800571     1.794753
      1.788934     1.783116     1.777297     1.771479     1.765660     1.759842     1.754023     1.748205     1.742386     1.736568
      1.730749     1.724931     1.719113     1.713294     1.707476     1.701657     1.695839     1.690020     1.684202     1.678383
      1.672565     1.666746     1.660928     1.655109     1.649291     1.643472     1.637654     1.631835     1.626017     1.620198
      1.614380     1.608561     1.602743     1.596924     1.591106     1.585287     1.579469     1.573650     1.567832     1.562013
      1.556195     1.550376     1.544558     1.538739     1.532921     1.527102     1.521284     1.515465     1.509647     1.503829
      1.498010     1.492192     1.486373     1.480555     1.474736     1.468918     1.463099     1.457281     1.451462     1.445644
      1.439825     1.434007     1.428188     1.422370     1.416551     1.410733     1.404914     1.399096     1.393277     1.387459
      1.381640     1.375822     1.370003     1.364185     1.358366     1.352548     1.346729     1.340911     1.335092     1.329274
      1.323455     1.317637     1.311818     1.306000     1.300182     1.294363     1.288545     1.282726     1.276908     1.271089
      1.265271     1.259452     1.253634     1.247815     1.241997     1.236178     1.230360     1.224541     1.218723     1.212904
      1.207086     1.201267     1.195449     1.189630     1.183812     1.177993     1.172175     1.166356     1.160538     1.154719
      1.148901     1.143082     1.137264     1.131445     1.125627     1.119808     1.113990     1.108171     1.102353     1.096534
      1.090716     1.084898     1.079079     1.073261     1.067442     1.061624     1.055805     1.049987     1.044168     1.038350
      1.032531     1.026713     1.020894     1.015076     1.009257     1.003439     0.997620     0.991802     0.985983     0.980165
      0.974346     0.968528     0.962709     0.956891     0.951072     0.945254     0.939435     0.933617     0.927798     0.921980
      0.916161     0.910343     0.904524     0.898706     0.892887     0.887069     0.881251     0.875432     0.869614     0.863795
      0.857977     0.852158     0.846340     0.840521     0.834703     0.828884     0.823066     0.817247     0.811429     0.805610
      0.799792     0.793973     0.788155     0.782336     0.776518     0.770699     0.764881     0.759062     0.753244     0.747425
      0.741607     0.735788     0.729970     0.724151     0.718333     0.712514     0.706696     0.700877     0.695059     0.689240
      0.683422     0.677603     0.671785     0.665967     0.660148     0.654330     0.648511     0.642693     0.636874     0.631056
      0.625237     0.619419     0.613600     0.607782     0.601963     0.596145     0.590326     0.584508     0.578689     0.572871
      0.567052     0.561234     0.555415     0.549597     0.543778     0.537960     0.532141     0.526323     0.520504     0.514686
      0.508867     0.503049     0.497230     0.491412     0.485593     0.479775     0.473956     0.468138     0.462319     0.456501
      0.450682     0.444864     0.439045     0.433227     0.427408     0.421590     0.415771     0.409953     0.404134     0.398316
      0.392497     0.386679     0.380860     0.375042     0.369223     0.363405     0.357586     0.351767     0.345949     0.340130
      0.334312     0.328493     0.322675     0.316856     0.311038     0.305219     0.299401     0.293582     0.287764     0.281945
      0.276127     0.270308     0.264490     0.258671     0.252853     0.247034     0.241216     0.235397     0.229579     0.223760
      0.217942     0.212123     0.206305     0.200486
 NY phased data points follow
  -2.70397E-01 -1.42811E-01 -1.82240E-01 -3.17835E-01 -2.07861E-01  9.42007E-02 -1.76626E-01 -2.91980E-01  2.47060E-01  8.49292E-02
   1.49742E-01  1.55640E-01  2.73204E-01  3.29774E-01  6.03938E-01  7.32967E-01  2.44011E-01  2.90106E-01  2.97791E-01  7.46273E-02
  -2.20907E-02  8.26261E-02 -5.13329E-02  6.50457E-02 -5.47484E-02 -1.24156E-01 -1.19079E-01 -2.71987E-01 -4.88848E-01 -4.19471E-01
   7.26280E-02 -2.97119E-01 -9.51581E-02 -1.09006E-01 -2.71574E-01 -1.46056E-01 -3.25517E-01 -4.70794E-02 -2.47629E-01 -3.02937E-01
  -1.36664E-01 -1.43711E-01  1.00959E-01  2.59493E-01  4.04166E-01  3.48870E-01  3.80293E-01  5.30707E-01  3.39597E-01  2.10900E-01
   3.96139E-01  3.94221E-01 -5.06729E-03  1.73894E-01  3.82444E-02 -9.82153E-02  1.68078E-01 -2.22985E-01 -3.37715E-01 -1.48174E-01
  -1.88068E-01 -3.68668E-01 -3.79362E-01 -3.75099E-01 -2.39364E-01 -2.37820E-01 -7.55616E-02  6.44270E-02 -7.80067E-02  1.44414E-02
   1.91194E-01  3.57953E-01  2.95058E-01  1.26278E-01  8.13318E-02  1.40743E-01 -9.65084E-02 -7.46649E-03 -2.22188E-01 -3.61760E-01
  -3.75299E-01 -1.50166E-01 -5.80691E-02 -4.03901E-01  1.52104E-01  1.18921E-02  2.31773E-01  1.98441E-01 -1.78363E-02  3.97970E-01
   3.59449E-02 -1.26572E-01  1.84545E-01  2.58537E-01  7.54930E-02  9.74733E-02  1.38421E-01  3.05142E-01  9.42787E-02 -2.99255E-01
  -1.58227E-01  2.39516E-02  3.35507E-02  1.59698E-01 -3.74804E-02 -3.93434E-02  1.36576E-01  2.48156E-01  1.53484E-01  3.26410E-01
   6.84943E-01  3.85658E-01  3.54320E-01  2.12747E-01  4.35769E-01  8.34748E-02  2.82590E-01  4.08093E-01  7.28727E-02  5.67372E-01
   4.57127E-01  4.48805E-01  1.52466E-01  1.48563E-01  1.66982E-01  4.95787E-01  3.44875E-01 -2.20284E-01 -3.55068E-01 -4.61941E-01
  -3.06585E-01 -3.93623E-01 -6.46118E-01 -5.46673E-01 -3.86788E-01 -7.16294E-01 -3.34911E-01 -5.33885E-01 -4.71131E-01 -6.03331E-01
  -4.65713E-01 -1.59400E-01 -6.00003E-01 -2.21589E-01 -1.76490E-01  7.52977E-02 -6.92840E-02  1.90540E-01  8.67018E-02  9.83751E-03
   1.20138E-01 -1.09466E-01  4.15989E-02 -1.46674E-01  1.27980E-02  7.05502E-02  2.99289E-01  2.08073E-01  3.20980E-01  3.35540E-02
   9.25109E-02  5.67881E-01  4.10362E-01  7.53337E-01  6.43882E-01  7.05297E-01  5.73416E-01  3.21678E-01  2.70025E-01 -2.04897E-01
  -3.81205E-01 -2.93415E-01 -4.44373E-01 -6.58523E-01 -4.71180E-01 -5.63108E-01 -5.23843E-01 -2.13147E-01 -4.06770E-01 -3.57363E-01
  -5.44505E-01 -5.91817E-01 -4.20868E-01 -3.92190E-01 -1.28991E-01 -3.25216E-01 -2.87150E-01 -9.74300E-02 -1.22890E-01 -3.55358E-01
  -4.63885E-01 -2.12857E-01 -7.35842E-02 -4.32690E-02 -2.95142E-02 -3.26120E-01 -3.21105E-01  1.46404E-01 -1.46299E-01 -3.30118E-01
  -2.52295E-01 -5.70704E-02  3.61966E-02 -1.08761E-01 -1.31273E-01 -2.67097E-01 -1.48518E-01 -2.72422E-01 -5.04540E-02  3.25135E-01
  -1.29041E-01  2.91151E-02  2.91552E-01 -7.69078E-02 -1.92864E-02 -1.28625E-01 -3.30760E-01  9.37301E-02  3.96007E-01  3.80015E-02
   1.80490E-02  5.15540E-02 -7.53790E-02 -7.56998E-02 -2.41781E-01 -1.73875E-02  2.06135E-01  2.03486E-01  1.96464E-01  5.36552E-01
   4.69620E-01  3.50894E-01  4.26414E-01  2.52171E-01  3.35832E-01  5.10237E-02  8.24330E-02  3.08096E-01  2.32930E-01  1.55827E-01
  -9.73010E-03 -1.88875E-01 -1.12995E-01 -8.89929E-02 -2.91562E-01 -2.50369E-01 -3.12586E-01 -9.68500E-02  9.22162E-02 -1.38730E-01
   4.32048E-02 -1.72065E-02 -4.07591E-01 -4.21274E-01 -3.23461E-01 -2.49686E-01 -2.49261E-01 -9.11630E-02  1.27133E-01  1.80418E-01
   9.53779E-02  1.45716E-01  1.67755E-01  1.34032E-01  6.80667E-02 -1.94259E-01  2.73266E-01  4.70737E-01  3.36980E-02  1.75502E-01
   1.59076E-01  2.01679E-01  3.65729E-01  9.54935E-02  2.22570E-01 -7.70443E-02 -2.76479E-01  2.31008E-02 -4.38445E-02  1.08512E-01
  -7.10456E-02 -3.88375E-01 -5.92851E-01 -4.87218E-01 -3.18127E-01 -1.86181E-01  6.80649E-02  1.39153E-01  3.69077E-01  4.07933E-01
   4.20958E-01  4.55963E-01  2.25319E-01  1.68381E-01  3.20096E-01  4.81002E-01  5.38578E-01  2.13517E-01  2.37641E-01  4.45612E-01
   4.09972E-01  2.54711E-01  1.15666E-01  3.02082E-01  4.59620E-01  3.55826E-01  1.58187E-01  2.56851E-01  4.91913E-01  4.20177E-01
   7.15938E-02  5.01930E-01  5.61095E-01  4.56649E-01  5.23224E-01  2.36112E-01  4.40480E-01  7.44626E-02  3.23086E-02 -5.50909E-02
  -2.37797E-01 -2.50748E-01 -2.76235E-01 -2.30156E-01 -4.86410E-01 -2.22247E-01 -4.07493E-01 -3.63850E-01 -1.22401E-01  9.58051E-02
   4.49491E-01  1.22615E-01  9.81965E-02 -6.25155E-02 -3.59567E-01 -1.29154E-01  3.94670E-02  1.90073E-02 -2.61848E-01 -5.21964E-01
  -5.76288E-01 -9.35561E-01 -1.32365E+00 -1.46557E+00 -1.64829E+00 -1.35177E+00 -7.56379E-01 -7.18133E-01 -5.47162E-01 -1.91560E-01
  -8.15481E-02 -8.63941E-02  1.96530E-03  1.88586E-01 -8.29737E-02  6.68747E-02  2.18441E-01  1.76931E-01  3.33398E-01 -4.32688E-03
   3.02803E-01  2.28121E-01  1.11409E-01  1.93278E-01 -1.22263E-01  2.68180E-01  6.25056E-02  2.16434E-01  3.12076E-01 -2.88903E-01
  -1.94631E-01  1.70245E-01  1.46899E-01  2.14222E-01  1.50743E-01 -5.50115E-02  4.22401E-01  1.39470E-01  9.09297E-02  1.82391E-01
   1.74166E-01  3.05359E-01  9.12109E-02  2.13144E-01  1.61298E-01  2.99507E-01  2.64358E-01  3.33757E-01  1.58314E-01 -1.47958E-01
  -1.27996E-02  1.14942E-01  1.36293E-01  3.18932E-02  2.20932E-01  2.77088E-01  3.12433E-01  1.53495E-01  5.07869E-02 -1.24610E-02
  -1.08883E-01  2.01133E-01 -3.89493E-02  2.63592E-02  1.95127E-01 -2.50895E-01 -2.93005E-01 -1.27381E-01  2.34449E-01 -7.89627E-02
  -8.30718E-02 -8.36762E-02 -3.86690E-01 -9.37891E-02 -2.76697E-01 -1.18265E-01 -2.34303E-01 -1.10376E-01 -2.22203E-01 -2.39167E-01
   2.41974E-01 -1.12211E-01 -7.76961E-02 -1.63291E-01 -3.95295E-01 -2.23886E-01 -7.42792E-02 -5.08682E-02 -3.62778E-02 -7.70383E-02
   2.01272E-02 -1.70315E-01  3.84740E-03 -8.37692E-02 -3.86317E-01 -2.76578E-02  1.01272E-01  6.53249E-02  3.25412E-02  2.42086E-01
  -1.29382E-01 -7.35176E-02 -6.56040E-02  1.80984E-01  2.80879E-01 -2.32783E-01 -8.90153E-02 -2.22067E-02  4.62711E-01  3.28782E-01
   2.56860E-01  3.72097E-01  2.85558E-01  2.34690E-01 -9.13669E-04  6.53744E-02  2.02809E-01  1.50296E-01  1.03091E-01  6.61640E-02
  -7.76940E-03  1.67065E-01  1.59126E-01  1.66978E-01 -1.85861E-01  2.51545E-02  3.10924E-01  7.38027E-03 -4.73816E-03 -6.96960E-02
  -2.53048E-01 -3.13543E-01 -1.56630E-01 -2.61956E-01 -2.25174E-03 -3.14438E-02 -3.03874E-01 -1.48578E-01 -3.01432E-02 -2.70796E-02
  -1.97661E-01 -3.81426E-01 -2.37939E-01  9.25422E-03 -1.87339E-01 -1.86354E-01  7.01985E-02 -1.61034E-02 -5.48645E-02  2.00624E-01
   3.13056E-02  8.74841E-02  1.77934E-01 -1.64197E-01 -1.20995E-02  2.15376E-01  3.08226E-02 -4.90097E-02  6.61626E-02  1.40017E-01
   1.67795E-01  2.26708E-02  3.24251E-01  2.05486E-01 -2.43186E-02  2.42636E-01 -3.98015E-02  1.55371E-01  3.20213E-01  2.51467E-02
   2.89444E-02  3.96795E-01  3.87482E-01 -4.04351E-02  1.53803E-01 -3.05984E-02 -1.06727E-02  2.92002E-01  8.55256E-02 -2.63561E-01
  -1.55289E-01  4.69998E-02 -1.41325E-01  1.43616E-01 -3.95206E-01 -5.36571E-01 -4.08827E-01 -4.49110E-01 -4.02492E-01 -5.71281E-01
  -2.89307E-01 -4.92931E-01 -1.80223E-01 -3.06851E-01 -3.91014E-01 -3.24040E-01 -3.61301E-01 -8.38773E-02 -1.26193E-01 -3.20632E-02
  -3.86695E-02 -2.56047E-01 -2.10925E-01  2.17886E-01 -2.98655E-01 -1.81860E-01 -4.11163E-02 -1.28295E-01  2.69148E-03 -4.10667E-02
   1.82308E-01  2.19591E-01  3.58410E-01  4.31805E-02  2.15255E-01  1.60284E-01  2.47737E-01  2.61583E-01  4.65912E-02  3.64044E-01
   2.40636E-01 -4.31156E-02 -2.23337E-01 -1.33251E-02  3.53451E-02 -5.94076E-02 -7.48463E-02  1.14122E-01  3.15119E-02  1.30852E-01
   1.17472E-01 -1.68425E-01  7.13391E-02 -7.47871E-02 -1.87577E-01 -4.14649E-02 -8.74462E-02  7.82419E-02  1.64635E-01 -1.82717E-01
  -2.00406E-01  6.18207E-03  2.51923E-01 -1.44668E-02 -2.48011E-01 -1.66342E-02  1.12175E-01  1.84222E-01  5.18273E-02 -9.39264E-02
  -2.06477E-01  5.08522E-02 -5.84586E-02 -9.95637E-02  2.95141E-01  7.20072E-02 -2.31528E-01  3.06463E-03  1.31507E-01  1.43689E-02
  -5.85735E-02  9.21950E-02  7.01558E-02 -1.47449E-01  1.41349E-01 -1.29958E-01  5.21472E-02  3.55903E-01 -2.01342E-01 -9.71967E-02
  -1.03226E-01 -2.65843E-01  7.57044E-02  1.67487E-01 -9.17438E-02  3.42023E-02  1.69385E-01  2.04814E-01  1.18749E-01 -8.52099E-02
   2.14084E-01  6.27200E-02 -2.19376E-03  1.27547E-01  2.28558E-02  1.58933E-01  1.58171E-02  2.14611E-01  1.89574E-02 -3.47844E-02
   1.29295E-01 -7.59035E-02  1.48607E-01  9.71804E-02  5.40952E-02  9.28817E-02  3.53618E-01  1.70431E-01  8.32264E-03  1.15839E-01
   1.33150E-01  5.23695E-02 -9.75279E-03  2.58442E-01 -2.55821E-02  3.71437E-02 -1.60182E-01 -7.65424E-02  4.70005E-03 -1.63735E-01
   1.28158E-01  8.71116E-03  5.99050E-02 -2.18822E-01
 NY points of the fit to the data follow
   1.12547E-02  1.41218E-02  1.71138E-02  1.96777E-02  1.99838E-02  5.69709E-03 -2.72924E-02 -3.08848E-02  1.60071E-02  9.30943E-02
   1.73675E-01  2.70983E-01  3.80511E-01  4.70476E-01  5.12339E-01  4.72659E-01  3.72959E-01  2.87108E-01  2.30287E-01  1.65059E-01
   1.03056E-01  5.47672E-02  2.80998E-02  6.39384E-03 -1.43171E-02 -3.52157E-02 -5.37661E-02 -6.79795E-02 -7.97694E-02 -8.99094E-02
  -9.90091E-02 -1.08351E-01 -1.21365E-01 -1.43159E-01 -1.73740E-01 -2.09326E-01 -2.45556E-01 -2.74461E-01 -2.83712E-01 -2.57164E-01
  -1.89130E-01 -8.62652E-02  3.36802E-02  1.53274E-01  2.60198E-01  3.36259E-01  3.67036E-01  3.54882E-01  3.13926E-01  2.63410E-01
   2.14096E-01  1.65870E-01  1.21602E-01  8.40523E-02  5.05532E-02  1.53329E-02 -2.27504E-02 -7.13089E-02 -1.21166E-01 -1.64602E-01
  -2.15927E-01 -2.66270E-01 -2.96098E-01 -2.98244E-01 -2.85278E-01 -2.41153E-01 -1.64720E-01 -8.05062E-02  2.12903E-02  1.27637E-01
   1.96616E-01  2.41379E-01  2.69171E-01  2.67872E-01  2.36821E-01  1.61090E-01  6.63154E-02 -3.16226E-02 -1.36316E-01 -2.42505E-01
  -3.12108E-01 -3.22260E-01 -2.74275E-01 -1.68640E-01 -4.59903E-02  5.89519E-02  1.65030E-01  2.57679E-01  2.98250E-01  3.04241E-01
   3.02328E-01  2.95367E-01  2.75917E-01  2.40101E-01  1.86211E-01  1.11266E-01  2.24723E-02 -6.90271E-02 -1.49776E-01 -2.04476E-01
  -2.19877E-01 -1.88469E-01 -1.17267E-01 -2.66381E-02  5.98400E-02  1.31152E-01  1.83007E-01  2.19578E-01  2.42766E-01  2.53945E-01
   2.57421E-01  2.57682E-01  2.57480E-01  2.56767E-01  2.56000E-01  2.56082E-01  2.63344E-01  2.68004E-01  2.65514E-01  2.64962E-01
   2.58821E-01  2.47541E-01  2.18414E-01  1.89987E-01  1.31404E-01  5.13783E-02 -4.75338E-02 -1.63071E-01 -2.82919E-01 -3.56546E-01
  -3.78079E-01 -3.93519E-01 -4.10769E-01 -4.19613E-01 -4.19515E-01 -4.60493E-01 -5.20141E-01 -5.94263E-01 -6.24834E-01 -5.75369E-01
  -4.60268E-01 -3.61928E-01 -2.83366E-01 -1.96926E-01 -1.12122E-01 -4.70797E-02 -5.56396E-03  2.64983E-02  5.27250E-02  7.49058E-02
   9.44398E-02  1.12097E-01  1.28969E-01  1.45590E-01  1.61884E-01  1.78088E-01  1.94788E-01  2.11806E-01  2.28008E-01  2.40546E-01
   2.51828E-01  3.56681E-01  5.12869E-01  6.29454E-01  6.55446E-01  6.51267E-01  5.97217E-01  4.36860E-01  1.88709E-01 -1.22987E-01
  -3.92180E-01 -4.95281E-01 -4.96457E-01 -5.29232E-01 -5.28749E-01 -4.92631E-01 -4.25046E-01 -3.81960E-01 -3.48386E-01 -3.23487E-01
  -3.02428E-01 -2.83978E-01 -2.65136E-01 -2.48415E-01 -2.35454E-01 -2.24582E-01 -2.14125E-01 -2.04094E-01 -1.94846E-01 -1.85554E-01
  -1.76924E-01 -1.68399E-01 -1.59599E-01 -1.49947E-01 -1.40873E-01 -1.32379E-01 -1.24076E-01 -1.15366E-01 -1.06443E-01 -9.79890E-02
  -9.09172E-02 -8.47258E-02 -7.85039E-02 -7.24170E-02 -6.79304E-02 -6.55686E-02 -6.38653E-02 -6.17894E-02 -6.01798E-02 -5.98574E-02
  -6.08447E-02 -6.16389E-02 -6.11091E-02 -5.97072E-02 -5.84757E-02 -5.77973E-02 -5.73662E-02 -5.84443E-02 -6.97521E-02 -8.33582E-02
  -7.79903E-02 -4.82026E-02 -1.27532E-02  1.71949E-02  5.65047E-02  1.21058E-01  1.98806E-01  2.59659E-01  2.85627E-01  3.00159E-01
   3.25670E-01  3.39175E-01  3.12530E-01  2.43777E-01  1.65926E-01  1.07563E-01  6.16292E-02  1.57296E-02 -2.26935E-02 -4.91643E-02
  -6.51231E-02 -7.75788E-02 -8.79382E-02 -9.66041E-02 -1.03680E-01 -1.09564E-01 -1.14559E-01 -1.18984E-01 -1.23514E-01 -1.29866E-01
  -1.52645E-01 -1.78630E-01 -1.95718E-01 -2.10198E-01 -2.29211E-01 -2.33503E-01 -2.03129E-01 -1.60110E-01 -1.10139E-01 -5.42127E-02
  -6.38649E-03  4.12177E-02  8.83560E-02  1.12222E-01  1.19530E-01  1.32103E-01  1.52439E-01  1.57528E-01  1.52911E-01  1.56624E-01
   1.56590E-01  1.45496E-01  1.24451E-01  9.39416E-02  6.30012E-02  2.28910E-02 -2.55012E-02 -8.50993E-02 -1.61611E-01 -2.51771E-01
  -3.42787E-01 -4.15430E-01 -4.52280E-01 -4.35222E-01 -3.55180E-01 -2.26279E-01 -6.49915E-02  1.09387E-01  2.52785E-01  3.49278E-01
   3.99215E-01  4.05422E-01  3.89148E-01  3.64504E-01  3.38332E-01  3.16843E-01  3.02888E-01  2.98528E-01  2.97005E-01  2.94362E-01
   2.92075E-01  2.86900E-01  2.81309E-01  2.74499E-01  2.67801E-01  2.61099E-01  2.54521E-01  2.47496E-01  2.39512E-01  2.30552E-01
   2.19951E-01  2.06872E-01  1.90432E-01  1.67314E-01  1.36795E-01  9.53621E-02  4.18826E-02 -2.40478E-02 -1.01713E-01 -1.84775E-01
  -2.66406E-01 -3.32687E-01 -3.76443E-01 -3.90168E-01 -3.68587E-01 -3.16986E-01 -2.39790E-01 -1.56566E-01 -7.87721E-02 -2.66832E-02
   7.22210E-04 -3.83762E-03 -2.94701E-02 -6.84330E-02 -9.98643E-02 -3.28561E-02  4.83172E-02  6.81985E-03 -1.81996E-01 -4.01153E-01
  -6.50701E-01 -9.67847E-01 -1.29262E+00 -1.53189E+00 -1.57111E+00 -1.33226E+00 -9.99570E-01 -7.76483E-01 -5.78046E-01 -3.76769E-01
  -2.00707E-01 -1.05723E-01 -5.93262E-02 -2.88390E-02 -6.89699E-03  9.41157E-03  2.18086E-02  2.99929E-02  3.42096E-02  3.33668E-02
   2.91046E-02  2.20049E-02  1.35980E-02  5.61829E-03 -4.77647E-04 -3.40343E-03 -1.93866E-03  2.85094E-03  1.02800E-02  1.93201E-02
   2.81952E-02  3.74296E-02  4.55684E-02  5.31255E-02  5.96557E-02  6.52692E-02  6.99374E-02  7.43533E-02  7.87376E-02  8.28146E-02
   8.66731E-02  9.01844E-02  9.33997E-02  9.65366E-02  9.94552E-02  1.02092E-01  1.04404E-01  1.06933E-01  1.09701E-01  1.12770E-01
   1.15969E-01  1.18920E-01  1.21126E-01  1.22595E-01  1.23070E-01  1.22418E-01  1.20927E-01  1.18849E-01  1.16025E-01  1.12088E-01
   1.07262E-01  1.01718E-01  9.55378E-02  8.87517E-02  8.16276E-02  7.41619E-02  6.67992E-02  5.97937E-02  5.30681E-02  4.64503E-02
   4.03662E-02  3.49453E-02  2.99312E-02  2.52018E-02  2.09167E-02  1.68605E-02  1.28787E-02  9.13911E-03  5.65829E-03  2.63328E-03
   3.70182E-05 -2.03108E-03 -3.59218E-03 -4.43898E-03 -4.18066E-03 -2.53354E-03 -1.24297E-04  2.66817E-03  5.91999E-03  9.42412E-03
   1.31443E-02  1.68463E-02  2.04330E-02  2.41293E-02  2.85935E-02  3.40678E-02  4.03270E-02  4.70086E-02  5.42688E-02  6.23468E-02
   7.13524E-02  8.14386E-02  9.23814E-02  1.04202E-01  1.16352E-01  1.28707E-01  1.40794E-01  1.52082E-01  1.62003E-01  1.70197E-01
   1.76514E-01  1.81173E-01  1.84134E-01  1.85336E-01  1.84574E-01  1.81870E-01  1.77309E-01  1.70809E-01  1.62507E-01  1.52775E-01
   1.42235E-01  1.31521E-01  1.20811E-01  1.09863E-01  9.91460E-02  8.89495E-02  7.95660E-02  7.08642E-02  6.26846E-02  5.47781E-02
   4.77743E-02  4.17754E-02  3.66293E-02  3.23417E-02  2.92525E-02  2.75470E-02  2.72133E-02  2.83129E-02  3.04627E-02  3.35119E-02
   3.77101E-02  4.26228E-02  4.76328E-02  5.24815E-02  5.70485E-02  6.11577E-02  6.48116E-02  6.80394E-02  7.08433E-02  7.34193E-02
   7.57237E-02  7.73569E-02  7.78189E-02  7.73025E-02  7.60760E-02  7.41436E-02  7.14677E-02  6.82497E-02  6.47480E-02  6.12727E-02
   5.78537E-02  5.40472E-02  4.99486E-02  4.57780E-02  4.17677E-02  3.75925E-02  3.33627E-02  2.95096E-02  2.60747E-02  2.28563E-02
   1.95529E-02  1.57314E-02  1.14149E-02  6.85011E-03  1.78089E-03 -4.23951E-03 -1.15326E-02 -1.97996E-02 -2.92446E-02 -4.04055E-02
  -5.36902E-02 -6.89176E-02 -8.53902E-02 -1.02393E-01 -1.19842E-01 -1.37622E-01 -1.54977E-01 -1.71037E-01 -1.85508E-01 -1.98454E-01
  -2.09215E-01 -2.17228E-01 -2.22072E-01 -2.24071E-01 -2.23739E-01 -2.21563E-01 -2.17364E-01 -2.11535E-01 -2.05098E-01 -1.98566E-01
  -1.91552E-01 -1.83792E-01 -1.75518E-01 -1.66467E-01 -1.56631E-01 -1.46349E-01 -1.35787E-01 -1.24615E-01 -1.13228E-01 -1.02086E-01
  -9.14714E-02 -8.11021E-02 -7.09306E-02 -6.10711E-02 -5.19119E-02 -4.37090E-02 -3.60356E-02 -2.86071E-02 -2.16624E-02 -1.56288E-02
  -1.06373E-02 -6.15068E-03 -1.48522E-03  2.47465E-03  5.23924E-03  7.57443E-03  9.70606E-03  1.13922E-02  1.27968E-02  1.41401E-02
   1.55223E-02  1.72134E-02  1.93630E-02  2.15128E-02  2.32909E-02  2.49523E-02  2.63044E-02  2.70801E-02  2.74872E-02  2.77037E-02
   2.76561E-02  2.72715E-02  2.69050E-02  2.68360E-02  2.71421E-02  2.74589E-02  2.74770E-02  2.74850E-02  2.76395E-02  2.74354E-02
   2.66202E-02  2.55894E-02  2.47402E-02  2.44887E-02  2.42697E-02  2.35496E-02  2.26931E-02  2.22361E-02  2.19609E-02  2.15120E-02
   2.11433E-02  2.14247E-02  2.23602E-02  2.32171E-02  2.39073E-02  2.48728E-02  2.64570E-02  2.78721E-02  2.89191E-02  2.96907E-02
   3.02409E-02  3.05207E-02  3.04785E-02  3.03394E-02  3.02624E-02  3.04534E-02  3.09052E-02  3.15233E-02  3.24658E-02  3.38886E-02
   3.55135E-02  3.71553E-02  3.87476E-02  4.04698E-02  4.19460E-02  4.28106E-02  4.32520E-02  4.34153E-02  4.36192E-02  4.41538E-02
   4.48470E-02  4.54145E-02  4.56561E-02  4.56537E-02  4.61285E-02  4.69369E-02  4.76657E-02  4.83522E-02  4.92243E-02  5.04299E-02
   5.19032E-02  5.32345E-02  5.42000E-02  5.54077E-02  5.72930E-02  5.95276E-02  6.20266E-02  6.50517E-02  6.84187E-02  7.20301E-02
   7.56155E-02  7.90090E-02  8.24716E-02  8.61146E-02
 NY background values follow
     4.465E-02    4.475E-02    4.486E-02    4.497E-02    4.507E-02    4.518E-02    4.528E-02    4.539E-02    4.550E-02    4.560E-02
     4.571E-02    4.581E-02    4.592E-02    4.602E-02    4.613E-02    4.624E-02    4.634E-02    4.645E-02    4.655E-02    4.666E-02
     4.676E-02    4.687E-02    4.697E-02    4.708E-02    4.718E-02    4.729E-02    4.739E-02    4.750E-02    4.760E-02    4.770E-02
     4.781E-02    4.791E-02    4.801E-02    4.812E-02    4.822E-02    4.832E-02    4.843E-02    4.853E-02    4.863E-02    4.873E-02
     4.883E-02    4.894E-02    4.904E-02    4.914E-02    4.924E-02    4.934E-02    4.944E-02    4.954E-02    4.964E-02    4.974E-02
     4.984E-02    4.994E-02    5.003E-02    5.013E-02    5.023E-02    5.033E-02    5.042E-02    5.052E-02    5.062E-02    5.071E-02
     5.081E-02    5.090E-02    5.100E-02    5.109E-02    5.118E-02    5.128E-02    5.137E-02    5.146E-02    5.155E-02    5.164E-02
