 LCModel (Version 6.3-1N) Copyright: S.W. Provencher.          Ref.: Magn. Reson. Med. 30:672-679 (1993).                
 Slice_N1@23_22  02-Jun-2023 14:37:44
 27 lines in following concentration table = NCONC+1
    Conc.  %SD /Cr+PCr  Metabolite                                         
 2.04E-06  19% 2.5E-04 Mac                                                 
 6.52E-02  13%   8.000 Cr                                                  
    0.000 999%   0.000 PCr                                                 
 8.93E-02  13%  10.953 Ins                                                 
 9.23E-02   9%  11.317 NAA                                                 
 7.67E-02  14%   9.407 Tau                                                 
 1.01E-02  98%   1.244 PCho                                                
 5.45E-03 171%   0.669 GPC                                                 
 8.32E-02  14%  10.203 Glu                                                 
 2.35E-02  38%   2.885 Gln                                                 
 1.45E-02  62%   1.782 Ala                                                 
 4.99E-02  35%   6.120 Asc                                                 
 1.67E-02  43%   2.053 Asp                                                 
 9.36E-03  44%   1.148 GABA                                                
 6.35E-03  72%   0.779 Glc                                                 
 8.18E-03  67%   1.004 GSH                                                 
    0.000 999%   0.000 Lac                                                 
    0.000 999%   0.000 NAAG                                                
    0.000 999%   0.000 PE                                                  
 1.56E-02  18%   1.913 GPC+PCho                                            
 9.23E-02   9%  11.317 NAA+NAAG                                            
    0.107  14%  13.088 Glu+Gln                                             
 6.52E-02  13%   8.000 Cr+PCr                                              
 9.23E-02   9%  11.317 NAA+NAAG                                            
 6.52E-02  13%   8.000 Cr+PCr                                              
    0.107  14%  13.088 Glu+Gln                                             
   6 lines in following misc. output table
  FWHM = 0.035 ppm    S/N =   2                                            
  Data shift = 0.064 ppm                                                   
  Ph:  34 deg      -1.3 deg/ppm                                            
  alphaB,S = 3.1E+01,   5.5E+01                                            
   18 spline knots.   Ns = 8(1)                                            
   2 inflections.     1 extrema                                            
  654 points on ppm-axis = NY
      4.000000     3.994181     3.988363     3.982544     3.976726     3.970907     3.965088     3.959270     3.953451     3.947633
      3.941814     3.935995     3.930177     3.924358     3.918540     3.912721     3.906902     3.901084     3.895265     3.889446
      3.883628     3.877809     3.871991     3.866172     3.860353     3.854535     3.848716     3.842898     3.837079     3.831260
      3.825442     3.819623     3.813805     3.807986     3.802167     3.796349     3.790530     3.784712     3.778893     3.773074
      3.767256     3.761437     3.755619     3.749800     3.743981     3.738163     3.732344     3.726526     3.720707     3.714888
      3.709070     3.703251     3.697433     3.691614     3.685795     3.679977     3.674158     3.668339     3.662521     3.656702
      3.650884     3.645065     3.639246     3.633428     3.627609     3.621791     3.615972     3.610153     3.604335     3.598516
      3.592698     3.586879     3.581060     3.575242     3.569423     3.563605     3.557786     3.551967     3.546149     3.540330
      3.534512     3.528693     3.522874     3.517056     3.511237     3.505419     3.499600     3.493781     3.487963     3.482144
      3.476326     3.470507     3.464688     3.458870     3.453051     3.447232     3.441414     3.435595     3.429777     3.423958
      3.418139     3.412321     3.406502     3.400684     3.394865     3.389046     3.383228     3.377409     3.371591     3.365772
      3.359953     3.354135     3.348316     3.342498     3.336679     3.330860     3.325042     3.319223     3.313405     3.307586
      3.301767     3.295949     3.290130     3.284312     3.278493     3.272674     3.266856     3.261037     3.255219     3.249400
      3.243581     3.237763     3.231944     3.226125     3.220307     3.214488     3.208670     3.202851     3.197032     3.191214
      3.185395     3.179577     3.173758     3.167939     3.162121     3.156302     3.150484     3.144665     3.138846     3.133028
      3.127209     3.121391     3.115572     3.109753     3.103935     3.098116     3.092298     3.086479     3.080660     3.074842
      3.069023     3.063205     3.057386     3.051567     3.045749     3.039930     3.034111     3.028293     3.022474     3.016656
      3.010837     3.005018     2.999200     2.993381     2.987563     2.981744     2.975925     2.970107     2.964288     2.958470
      2.952651     2.946832     2.941014     2.935195     2.929377     2.923558     2.917739     2.911921     2.906102     2.900284
      2.894465     2.888646     2.882828     2.877009     2.871191     2.865372     2.859553     2.853735     2.847916     2.842098
      2.836279     2.830460     2.824642     2.818823     2.813004     2.807186     2.801367     2.795549     2.789730     2.783911
      2.778093     2.772274     2.766456     2.760637     2.754818     2.749000     2.743181     2.737363     2.731544     2.725725
      2.719907     2.714088     2.708270     2.702451     2.696632     2.690814     2.684995     2.679177     2.673358     2.667539
      2.661721     2.655902     2.650084     2.644265     2.638446     2.632628     2.626809     2.620991     2.615172     2.609353
      2.603535     2.597716     2.591897     2.586079     2.580260     2.574442     2.568623     2.562804     2.556986     2.551167
      2.545349     2.539530     2.533711     2.527893     2.522074     2.516256     2.510437     2.504618     2.498800     2.492981
      2.487163     2.481344     2.475525     2.469707     2.463888     2.458070     2.452251     2.446432     2.440614     2.434795
      2.428977     2.423158     2.417339     2.411521     2.405702     2.399884     2.394065     2.388246     2.382428     2.376609
      2.370790     2.364972     2.359153     2.353335     2.347516     2.341697     2.335879     2.330060     2.324242     2.318423
      2.312604     2.306786     2.300967     2.295149     2.289330     2.283511     2.277693     2.271874     2.266056     2.260237
      2.254418     2.248600     2.242781     2.236963     2.231144     2.225325     2.219507     2.213688     2.207870     2.202051
      2.196232     2.190414     2.184595     2.178777     2.172958     2.167139     2.161321     2.155502     2.149683     2.143865
      2.138046     2.132228     2.126409     2.120590     2.114772     2.108953     2.103135     2.097316     2.091497     2.085679
      2.079860     2.074042     2.068223     2.062404     2.056586     2.050767     2.044949     2.039130     2.033311     2.027493
      2.021674     2.015856     2.010037     2.004218     1.998400     1.992581     1.986763     1.980944     1.975126     1.969307
      1.963489     1.957670     1.951852     1.946033     1.940215     1.934397     1.928578     1.922760     1.916941     1.911123
      1.905304     1.899486     1.893667     1.887849     1.882030     1.876212     1.870393     1.864575     1.858756     1.852938
      1.847119     1.841301     1.835482     1.829664     1.823845     1.818027     1.812208     1.806390     1.800571     1.794753
      1.788934     1.783116     1.777297     1.771479     1.765660     1.759842     1.754023     1.748205     1.742386     1.736568
      1.730749     1.724931     1.719113     1.713294     1.707476     1.701657     1.695839     1.690020     1.684202     1.678383
      1.672565     1.666746     1.660928     1.655109     1.649291     1.643472     1.637654     1.631835     1.626017     1.620198
      1.614380     1.608561     1.602743     1.596924     1.591106     1.585287     1.579469     1.573650     1.567832     1.562013
      1.556195     1.550376     1.544558     1.538739     1.532921     1.527102     1.521284     1.515465     1.509647     1.503829
      1.498010     1.492192     1.486373     1.480555     1.474736     1.468918     1.463099     1.457281     1.451462     1.445644
      1.439825     1.434007     1.428188     1.422370     1.416551     1.410733     1.404914     1.399096     1.393277     1.387459
      1.381640     1.375822     1.370003     1.364185     1.358366     1.352548     1.346729     1.340911     1.335092     1.329274
      1.323455     1.317637     1.311818     1.306000     1.300182     1.294363     1.288545     1.282726     1.276908     1.271089
      1.265271     1.259452     1.253634     1.247815     1.241997     1.236178     1.230360     1.224541     1.218723     1.212904
      1.207086     1.201267     1.195449     1.189630     1.183812     1.177993     1.172175     1.166356     1.160538     1.154719
      1.148901     1.143082     1.137264     1.131445     1.125627     1.119808     1.113990     1.108171     1.102353     1.096534
      1.090716     1.084898     1.079079     1.073261     1.067442     1.061624     1.055805     1.049987     1.044168     1.038350
      1.032531     1.026713     1.020894     1.015076     1.009257     1.003439     0.997620     0.991802     0.985983     0.980165
      0.974346     0.968528     0.962709     0.956891     0.951072     0.945254     0.939435     0.933617     0.927798     0.921980
      0.916161     0.910343     0.904524     0.898706     0.892887     0.887069     0.881251     0.875432     0.869614     0.863795
      0.857977     0.852158     0.846340     0.840521     0.834703     0.828884     0.823066     0.817247     0.811429     0.805610
      0.799792     0.793973     0.788155     0.782336     0.776518     0.770699     0.764881     0.759062     0.753244     0.747425
      0.741607     0.735788     0.729970     0.724151     0.718333     0.712514     0.706696     0.700877     0.695059     0.689240
      0.683422     0.677603     0.671785     0.665967     0.660148     0.654330     0.648511     0.642693     0.636874     0.631056
      0.625237     0.619419     0.613600     0.607782     0.601963     0.596145     0.590326     0.584508     0.578689     0.572871
      0.567052     0.561234     0.555415     0.549597     0.543778     0.537960     0.532141     0.526323     0.520504     0.514686
      0.508867     0.503049     0.497230     0.491412     0.485593     0.479775     0.473956     0.468138     0.462319     0.456501
      0.450682     0.444864     0.439045     0.433227     0.427408     0.421590     0.415771     0.409953     0.404134     0.398316
      0.392497     0.386679     0.380860     0.375042     0.369223     0.363405     0.357586     0.351767     0.345949     0.340130
      0.334312     0.328493     0.322675     0.316856     0.311038     0.305219     0.299401     0.293582     0.287764     0.281945
      0.276127     0.270308     0.264490     0.258671     0.252853     0.247034     0.241216     0.235397     0.229579     0.223760
      0.217942     0.212123     0.206305     0.200486
 NY phased data points follow
  -6.80787E-02 -2.31091E-01 -4.80528E-01 -1.60644E-01 -2.17714E-01 -1.24433E-02 -2.40186E-01  1.72384E-01  8.83483E-03 -5.66183E-02
   4.56031E-02  1.54359E-01  2.81054E-01 -2.36377E-02  6.74392E-01  4.62312E-01  3.20884E-01  5.52129E-02  5.63518E-01  5.37354E-01
   1.82313E-01  3.66650E-01 -1.03086E-02  2.35391E-01  3.35133E-02 -1.78766E-01 -1.93141E-01  1.36228E-01 -2.61403E-01 -5.77224E-01
  -1.86296E-01 -1.36818E-01 -3.80122E-01 -3.71909E-01 -2.92315E-01 -3.62106E-01 -3.76390E-01 -3.72561E-01 -2.44692E-01 -5.94622E-01
  -5.08335E-01 -1.36103E-01  1.34871E-01  1.06872E-01  3.23364E-01  5.79921E-01  5.33170E-01  1.68201E-01  2.87434E-01  6.62824E-01
   1.76234E-01  1.68145E-01  7.10276E-02 -1.73522E-01 -2.11103E-01  9.16477E-02  2.46388E-01  6.60530E-02 -2.04515E-01  2.31900E-02
  -9.88383E-02 -5.26114E-01 -3.44010E-01 -3.77097E-01 -1.37446E-01 -1.32113E-02 -2.67117E-02  2.11303E-01  3.32738E-01  1.04888E-01
   1.89418E-01 -1.45175E-01  5.65072E-02  7.41029E-02  2.79570E-01  3.47434E-01 -1.28140E-01  3.22420E-01 -3.12849E-01  6.08111E-02
  -2.92350E-01 -2.52198E-01  1.21447E-01 -6.66515E-02  4.61655E-01  2.76150E-02  2.15271E-01  2.45961E-01  4.02127E-01  8.64468E-02
  -3.23185E-02  9.20250E-02  1.22538E-01  2.78550E-01  1.29670E-01  2.36149E-01 -5.87880E-03 -9.72342E-02 -2.02099E-01 -3.01950E-01
  -3.73389E-01 -1.44297E-01  4.65877E-02  4.39052E-02  4.92284E-02  2.20846E-01  1.67009E-01  1.66147E-01  4.44970E-01  2.80535E-01
   2.38145E-01  1.35762E-01  2.30202E-01  4.24410E-01  3.42437E-01  1.90315E-01  2.01027E-01  5.23592E-01  4.00781E-01  1.89201E-01
   3.43234E-01 -1.16312E-01  5.06287E-02 -4.34708E-02 -2.92773E-01 -1.33312E-01 -5.49483E-01  2.16030E-03 -3.72325E-01 -7.75898E-01
  -4.32100E-01 -5.70547E-01 -6.15631E-01 -5.73166E-01 -3.57940E-01 -5.43509E-01 -4.29319E-01 -4.88499E-01 -8.14722E-01 -4.39196E-01
  -4.51305E-01 -4.44697E-01 -1.45623E-01 -3.94147E-01 -3.34613E-01 -5.95498E-02  2.58837E-01  4.30141E-02 -9.28224E-02  1.14328E-01
  -1.16309E-01  7.70936E-02  3.38863E-01  4.52960E-01  4.35307E-01  1.52506E-01  1.71887E-01  6.11285E-01  4.25028E-01  4.58295E-01
   4.50964E-01  2.73365E-01  5.05453E-01  5.90184E-01  7.76510E-01  3.36804E-01  1.54728E-01  3.57159E-01 -7.60750E-02 -5.13250E-01
  -3.53471E-01 -3.68217E-01 -2.16200E-01 -3.82360E-01 -5.63286E-01 -2.48498E-01 -4.79204E-01 -4.32910E-01 -4.90074E-01 -5.18473E-01
  -5.17520E-01 -6.21758E-01 -2.58203E-01  1.26290E-01 -3.98562E-01 -3.44875E-01 -3.68364E-01 -5.22227E-01  1.16510E-01 -5.77874E-02
   2.48514E-01 -2.94707E-01 -4.34315E-01 -1.59154E-01 -2.79654E-01  2.36938E-01 -6.67817E-02 -1.10642E-01 -4.03436E-01 -6.82959E-02
   1.90603E-01 -3.14902E-01  6.58638E-02  1.95306E-01  1.07223E-01  1.25687E-01  1.72924E-01 -1.97321E-02  1.98094E-02  2.88429E-01
   2.24237E-01  1.16466E-01 -4.40114E-01 -1.82212E-01  1.11176E-01 -1.24593E-02  3.82913E-01 -9.35388E-02 -7.24238E-02  3.02918E-02
  -4.99157E-02  2.49732E-01 -1.13719E-01  1.30734E-01  3.61706E-01  1.09612E-01  3.23791E-01  4.70660E-01  1.77511E-01  4.00100E-01
   6.53864E-01  2.09501E-01  2.33067E-01  5.26383E-01  4.30815E-01 -6.31720E-02 -5.80694E-02  6.13171E-02 -1.40067E-01 -2.25520E-02
  -9.10889E-02 -1.99746E-01 -5.25524E-02 -7.72561E-02 -3.51516E-01 -1.11089E-01 -2.83289E-01 -2.26416E-01 -4.42087E-02 -2.85490E-01
  -8.02954E-02  5.78669E-02  5.13514E-01 -7.43526E-02 -1.83026E-01 -4.94136E-02 -2.30243E-01 -1.54219E-02 -2.05413E-01  8.85610E-02
  -1.34781E-03  6.36138E-02  9.89433E-02  1.88938E-01 -5.98158E-02  2.62879E-02  2.16571E-01  5.25743E-02  6.15007E-01  2.07810E-01
   8.87521E-02  4.42354E-01  3.05219E-01 -5.98514E-02 -1.27924E-01 -3.19536E-02 -2.17789E-01 -1.77471E-01  3.79596E-02 -2.48720E-01
  -3.08104E-01 -3.08925E-01 -6.55996E-01 -3.48172E-01 -3.82353E-01 -6.66785E-02  2.55017E-01  2.64926E-01  3.28054E-01 -8.19405E-02
   1.53827E-01  4.13924E-01  1.34950E-01  6.88417E-01  5.03680E-01  1.13040E-01  6.40694E-01  1.26988E-01  2.27116E-01  2.19988E-01
  -7.51109E-02  2.87118E-01  5.46158E-01  3.09032E-01  1.73202E-01  3.75526E-01  2.66410E-01  4.02234E-01  3.30965E-01  2.59582E-01
   4.38641E-03  3.53941E-01  3.18307E-01 -2.62040E-02 -4.32666E-02  2.80168E-02  5.58451E-03 -4.61219E-01  5.29131E-02 -2.45763E-01
  -3.38084E-01 -1.49652E-01 -3.36606E-01 -2.64162E-01 -3.91589E-01 -1.31910E-01  9.27346E-02  1.20025E-01 -6.49698E-02  5.86739E-02
   1.69279E-01  1.05634E-02  8.61587E-02  3.54796E-01  1.36477E-01 -3.33937E-01 -3.30439E-01 -1.13529E-01 -9.95547E-02 -2.59060E-01
  -7.56937E-01 -7.56010E-01 -7.65377E-01 -1.33792E+00 -9.20323E-01 -7.96894E-01 -6.17677E-01 -3.77904E-01 -2.96636E-01  6.62274E-02
   8.73827E-02  1.16574E-01  2.18517E-01  4.25156E-01  2.92523E-01  1.91219E-01  9.13971E-02  1.89571E-01  1.26988E-02 -1.79114E-01
  -2.72800E-02  1.77625E-02  1.94070E-01 -8.59554E-02  2.94657E-02 -4.48486E-02 -2.67210E-01  1.29281E-01 -7.66075E-02  5.37377E-02
   2.00414E-01 -1.45363E-02  3.58611E-01  3.35191E-02  4.71118E-02 -1.41396E-01 -1.90578E-01  5.10508E-01 -1.12286E-01  2.04444E-01
   4.94703E-01 -6.63094E-02 -2.07603E-01  3.88233E-02  4.02565E-01  1.09825E-01 -2.90137E-02 -1.94568E-02  2.35827E-01  1.15037E-01
   5.91392E-02  3.18623E-01  3.08345E-02  6.35892E-02  1.42099E-01  6.97547E-02  3.31426E-01  1.33194E-01  6.24629E-02  4.23893E-01
  -2.27369E-02 -1.10961E-01  1.69893E-01 -2.26025E-02 -7.93610E-02 -1.80390E-02 -3.96611E-01 -4.87969E-01 -2.18707E-01 -3.64150E-01
  -2.22768E-02 -1.02287E-01 -2.24532E-01  9.95070E-02 -2.36627E-02 -1.21774E-01 -9.67191E-02 -2.73851E-02 -1.20196E-01  1.59623E-01
  -1.32643E-01 -2.95065E-01  1.39597E-01 -3.12261E-01 -2.64302E-01  8.58010E-02 -3.51643E-02 -1.80923E-01 -3.20000E-02 -3.66916E-02
   3.12691E-01  4.27078E-01 -1.77051E-01  5.71381E-02 -1.40089E-03  1.79506E-02  2.40962E-01  4.71627E-01  4.05670E-01 -5.54047E-02
   9.85927E-02  2.32026E-01  2.84188E-01  1.95746E-01  2.42157E-01  2.15403E-01  4.40776E-01  4.59402E-01  2.79152E-01  1.25404E-01
   2.67383E-01  2.33037E-01 -3.34438E-02  5.09629E-01  1.64075E-01  1.00477E-01 -2.38004E-01 -4.55128E-01 -1.96248E-01 -3.01615E-01
  -3.75946E-01 -4.21683E-01  1.08636E-01 -1.11607E-01 -1.70773E-01 -3.54508E-01 -4.15568E-01 -4.05256E-01 -4.12061E-02  5.02893E-02
  -5.62453E-01 -2.18225E-01 -3.02038E-01 -3.19335E-01 -2.17506E-01 -1.77869E-01 -1.15539E-01  1.59367E-01  1.23055E-01 -1.45154E-01
   1.07888E-01  9.59054E-02 -1.67942E-01 -2.92326E-01 -1.35757E-01  2.85497E-01  3.20792E-01  1.41304E-02 -3.25517E-03 -2.95509E-01
   3.39054E-01  4.75652E-01  8.55109E-02  4.07868E-01  7.48733E-02  1.80088E-01  3.66523E-01 -1.67070E-01 -6.29609E-02  1.37832E-01
   1.83471E-01  9.87988E-02  1.76521E-02  3.89911E-01 -2.76922E-01  3.33529E-01  3.66780E-01 -3.58758E-01  4.89630E-02  2.63731E-01
   2.78161E-01 -1.76966E-01  3.47308E-01  1.55561E-01 -2.02783E-02 -3.38589E-01 -8.52190E-02  2.10267E-02 -3.99552E-01 -8.25596E-02
  -3.67571E-01  2.29605E-01 -1.34449E-01 -4.53872E-01 -3.34018E-01 -5.83441E-01 -3.89643E-01 -5.11074E-02 -1.53736E-01 -3.44859E-01
  -2.29476E-01 -3.30981E-01 -5.46083E-01 -3.48495E-01 -3.17866E-02 -4.27242E-01 -2.21522E-01 -8.07749E-02  1.04445E-01 -5.60280E-03
  -5.21921E-02 -1.66019E-02 -9.22514E-02 -6.16396E-02  9.38286E-02  1.58998E-01 -3.16558E-01  1.62164E-01 -8.32233E-02 -2.03830E-01
  -8.98372E-02  1.12912E-01  1.94871E-01 -9.03405E-02  2.68260E-01  3.29601E-01  1.15730E-01  1.43215E-01  1.51542E-01 -9.03529E-02
   2.46249E-01  2.42525E-01  8.92713E-02 -2.50316E-01  1.97456E-01  3.59425E-01  7.40068E-02  2.91798E-01  6.70707E-02 -1.14060E-01
  -3.62287E-01  4.56700E-02 -1.00521E-02  1.35938E-02  2.80346E-01  1.19575E-01 -1.25231E-03  4.03658E-01  3.06419E-01  1.24589E-01
   4.14518E-02 -2.18736E-01  2.99106E-01 -3.58060E-02  1.07396E-02  2.98749E-01  8.27300E-02 -1.71565E-02  1.11573E-01 -1.17350E-01
  -1.56725E-01 -8.08368E-02  4.46123E-02  1.79346E-01  1.54095E-01  2.03394E-01 -4.00918E-01  1.47905E-01 -1.52671E-01 -2.47980E-01
   1.30220E-01 -1.16306E-01  3.05151E-01  8.47944E-03  1.34295E-01  1.39754E-01 -2.59556E-01 -6.95342E-02  6.32612E-02 -1.19377E-01
  -9.31967E-02  2.48599E-01  1.87489E-01  8.93626E-02  6.08218E-01  1.78160E-01  8.46879E-03  2.14935E-01 -2.07466E-03  1.27337E-01
  -6.03407E-02  2.15389E-01  2.03062E-01 -3.40536E-02 -2.21337E-01  4.41021E-01  6.81464E-01 -8.64948E-02  1.14949E-01 -1.05935E-01
  -3.07026E-02  2.89713E-01  1.01343E-01  1.42832E-01  8.45535E-02  8.08107E-02  9.39034E-02  4.48724E-02 -6.75854E-02 -1.64701E-01
   1.62902E-02 -1.81998E-01 -9.01818E-02  2.31343E-01  3.78714E-02 -1.81609E-01  2.13789E-01  2.64234E-01 -5.93729E-01 -2.62415E-01
   3.70381E-01  1.25741E-02 -7.82009E-02 -2.74515E-03
 NY points of the fit to the data follow
   1.01401E-01  8.35384E-02  6.12204E-02  3.88338E-02  2.01183E-02  5.88355E-03 -1.71116E-03  1.15308E-02  2.39817E-02  2.68597E-02
   4.59487E-02  1.04664E-01  1.96675E-01  3.02782E-01  3.95970E-01  4.55011E-01  4.60567E-01  4.10637E-01  3.35184E-01  2.52144E-01
   1.76005E-01  1.09922E-01  4.75796E-02 -9.04293E-03 -6.02070E-02 -9.14904E-02 -1.16861E-01 -1.38814E-01 -1.58095E-01 -1.76068E-01
  -1.93294E-01 -2.10228E-01 -2.27330E-01 -2.43821E-01 -2.59458E-01 -2.74174E-01 -2.79821E-01 -2.71981E-01 -2.43717E-01 -1.93679E-01
  -1.22018E-01 -2.93758E-02  7.69350E-02  1.81662E-01  2.74433E-01  3.44278E-01  3.83630E-01  3.92431E-01  3.72486E-01  3.33691E-01
   2.82711E-01  2.25784E-01  1.66086E-01  1.03032E-01  4.13253E-02 -1.63348E-02 -6.63518E-02 -1.19669E-01 -1.61843E-01 -1.90988E-01
  -2.21424E-01 -2.40845E-01 -2.35918E-01 -2.09087E-01 -1.58526E-01 -8.46743E-02  1.01503E-02  1.12876E-01  2.00124E-01  2.67094E-01
   3.04281E-01  3.03936E-01  2.72066E-01  2.24670E-01  1.67274E-01  8.45872E-02 -8.25941E-03 -9.71675E-02 -1.75733E-01 -2.22257E-01
  -2.22658E-01 -1.70198E-01 -7.56122E-02  3.54815E-02  1.44937E-01  2.37177E-01  3.00816E-01  3.36573E-01  3.46627E-01  3.35130E-01
   3.03985E-01  2.65398E-01  2.19105E-01  1.64991E-01  1.03336E-01  3.00311E-02 -5.48107E-02 -1.40471E-01 -2.09370E-01 -2.40619E-01
  -2.24862E-01 -1.64806E-01 -7.41552E-02  2.40111E-02  1.14738E-01  1.86855E-01  2.39526E-01  2.76371E-01  2.98013E-01  3.10238E-01
   3.10998E-01  3.08004E-01  3.01427E-01  2.95093E-01  2.87768E-01  2.79057E-01  2.71634E-01  2.59789E-01  2.42769E-01  2.22222E-01
   1.85158E-01  1.34458E-01  7.11481E-02  3.77173E-03 -6.62705E-02 -1.43324E-01 -2.30186E-01 -3.22731E-01 -4.26059E-01 -5.17058E-01
  -5.59185E-01 -5.53533E-01 -5.29825E-01 -5.25909E-01 -5.45362E-01 -5.84377E-01 -6.19919E-01 -6.21086E-01 -5.76904E-01 -4.86995E-01
  -3.85503E-01 -2.84447E-01 -1.98586E-01 -1.24214E-01 -5.71709E-02  2.47316E-03  4.83132E-02  7.83143E-02  1.02050E-01  1.22343E-01
   1.40519E-01  1.57497E-01  1.74098E-01  1.91131E-01  2.09206E-01  2.28867E-01  2.51052E-01  2.77538E-01  3.11685E-01  3.48224E-01
   3.63833E-01  3.84666E-01  4.38397E-01  4.96799E-01  5.07407E-01  4.42169E-01  2.97857E-01  9.64622E-02 -1.26347E-01 -3.16795E-01
  -4.35621E-01 -4.92697E-01 -5.05208E-01 -4.95524E-01 -4.75395E-01 -4.43800E-01 -4.01335E-01 -3.51264E-01 -3.17658E-01 -2.91785E-01
  -2.70208E-01 -2.51160E-01 -2.34873E-01 -2.20585E-01 -2.08724E-01 -1.98498E-01 -1.89393E-01 -1.80319E-01 -1.71449E-01 -1.62612E-01
  -1.53887E-01 -1.45010E-01 -1.35640E-01 -1.26107E-01 -1.15875E-01 -1.05915E-01 -9.67921E-02 -8.77456E-02 -7.73258E-02 -6.53825E-02
  -5.38598E-02 -4.52115E-02 -3.93333E-02 -3.46753E-02 -3.07346E-02 -2.77473E-02 -2.62884E-02 -2.72111E-02 -3.12793E-02 -3.85147E-02
  -4.68098E-02 -5.37326E-02 -5.79457E-02 -5.97061E-02 -6.02877E-02 -6.01559E-02 -5.89051E-02 -5.27982E-02 -4.41562E-02 -3.77764E-02
  -2.95484E-02 -1.03664E-02  2.57778E-02  7.30297E-02  1.17041E-01  1.54175E-01  1.87437E-01  2.16168E-01  2.39854E-01  2.55970E-01
   2.59656E-01  2.45164E-01  2.08192E-01  1.55849E-01  9.97264E-02  5.03267E-02  1.08815E-02 -2.15633E-02 -4.90651E-02 -7.20235E-02
  -8.81571E-02 -9.80620E-02 -1.05572E-01 -1.11582E-01 -1.16981E-01 -1.21855E-01 -1.26454E-01 -1.30961E-01 -1.35922E-01 -1.37875E-01
  -1.41679E-01 -1.52211E-01 -1.60939E-01 -1.62006E-01 -1.56410E-01 -1.43954E-01 -1.20377E-01 -8.52536E-02 -4.65317E-02 -1.08609E-02
   2.33165E-02  5.37938E-02  7.68315E-02  9.31468E-02  1.02440E-01  1.08925E-01  1.11229E-01  1.13695E-01  1.13086E-01  1.05692E-01
   9.47736E-02  7.62358E-02  5.17063E-02  1.96174E-02 -1.70681E-02 -5.52508E-02 -9.70003E-02 -1.38418E-01 -1.80187E-01 -2.22955E-01
  -2.62831E-01 -2.90060E-01 -2.93729E-01 -2.61365E-01 -1.89593E-01 -8.63063E-02  3.07923E-02  1.39422E-01  2.24295E-01  2.77501E-01
   3.00319E-01  3.02518E-01  2.92455E-01  2.78795E-01  2.64680E-01  2.53215E-01  2.45840E-01  2.39751E-01  2.36029E-01  2.31949E-01
   2.26735E-01  2.20790E-01  2.13548E-01  2.06095E-01  1.97464E-01  1.88704E-01  1.79053E-01  1.68367E-01  1.56185E-01  1.41642E-01
   1.24101E-01  1.03086E-01  7.81666E-02  4.83351E-02  1.22919E-02 -3.00885E-02 -7.84501E-02 -1.30002E-01 -1.81556E-01 -2.28009E-01
  -2.64973E-01 -2.87831E-01 -2.94050E-01 -2.83310E-01 -2.55785E-01 -2.16160E-01 -1.68151E-01 -1.20380E-01 -7.94805E-02 -5.24467E-02
  -4.14273E-02 -4.60816E-02 -6.18821E-02 -8.37907E-02 -1.26605E-01 -1.77857E-01 -2.01295E-01 -2.13958E-01 -2.79432E-01 -4.23179E-01
  -6.22680E-01 -8.29937E-01 -9.90394E-01 -1.05967E+00 -1.00720E+00 -8.66241E-01 -6.91770E-01 -5.24008E-01 -3.84098E-01 -2.68001E-01
  -1.69652E-01 -8.61679E-02 -3.25358E-02 -7.81353E-03  7.55729E-03  1.75791E-02  2.38440E-02  2.67919E-02  2.66608E-02  2.38095E-02
   1.87066E-02  1.23418E-02  6.22880E-03  1.31331E-03 -1.11633E-03 -6.56805E-04  2.40479E-03  7.78463E-03  1.44122E-02  2.19991E-02
   2.95934E-02  3.69508E-02  4.36676E-02  4.94852E-02  5.46865E-02  5.91670E-02  6.32940E-02  6.69985E-02  7.03770E-02  7.34726E-02
   7.63705E-02  7.91693E-02  8.18667E-02  8.44211E-02  8.67341E-02  8.87960E-02  9.06935E-02  9.26068E-02  9.46646E-02  9.67756E-02
   9.86481E-02  1.00045E-01  1.00738E-01  1.00681E-01  9.99429E-02  9.85192E-02  9.64550E-02  9.37581E-02  9.04900E-02  8.65643E-02
   8.19766E-02  7.69040E-02  7.15094E-02  6.58801E-02  6.01677E-02  5.45184E-02  4.89717E-02  4.35940E-02  3.84634E-02  3.36744E-02
   2.92916E-02  2.53483E-02  2.18357E-02  1.86156E-02  1.56082E-02  1.28891E-02  1.04793E-02  8.35116E-03  6.59190E-03  5.30012E-03
   4.51286E-03  4.35971E-03  4.93395E-03  6.24166E-03  8.36609E-03  1.15577E-02  1.64875E-02  2.46444E-02  3.28325E-02  4.23693E-02
   5.46306E-02  7.15985E-02  9.60252E-02  1.27160E-01  1.58615E-01  1.83502E-01  1.95388E-01  1.92994E-01  1.80117E-01  1.61200E-01
   1.43871E-01  1.30954E-01  1.22888E-01  1.19433E-01  1.18968E-01  1.22783E-01  1.27734E-01  1.34916E-01  1.41298E-01  1.46253E-01
   1.49688E-01  1.51667E-01  1.52318E-01  1.51601E-01  1.49395E-01  1.45679E-01  1.40434E-01  1.33969E-01  1.26557E-01  1.18498E-01
   1.10028E-01  1.01403E-01  9.28202E-02  8.43945E-02  7.62823E-02  6.86271E-02  6.15569E-02  5.51241E-02  4.93172E-02  4.41065E-02
   3.95144E-02  3.57092E-02  3.27237E-02  3.07296E-02  2.97514E-02  2.97911E-02  3.07246E-02  3.24595E-02  3.49390E-02  3.80624E-02
   4.17330E-02  4.57899E-02  4.99345E-02  5.38025E-02  5.72396E-02  6.02717E-02  6.29813E-02  6.53970E-02  6.74304E-02  6.90657E-02
   7.01801E-02  7.06813E-02  7.04882E-02  6.96074E-02  6.81565E-02  6.62280E-02  6.38856E-02  6.12219E-02  5.83819E-02  5.54107E-02
   5.23994E-02  4.93177E-02  4.60826E-02  4.27245E-02  3.93570E-02  3.60581E-02  3.27790E-02  2.95458E-02  2.64184E-02  2.33049E-02
   1.99754E-02  1.62395E-02  1.19163E-02  6.90289E-03  1.21805E-03 -5.11704E-03 -1.22577E-02 -2.04620E-02 -2.98673E-02 -4.05327E-02
  -5.24236E-02 -6.53369E-02 -7.88512E-02 -9.24505E-02 -1.05840E-01 -1.18903E-01 -1.31323E-01 -1.42620E-01 -1.52361E-01 -1.60374E-01
  -1.66502E-01 -1.70588E-01 -1.72624E-01 -1.72723E-01 -1.70996E-01 -1.67733E-01 -1.63308E-01 -1.58038E-01 -1.52150E-01 -1.45825E-01
  -1.39134E-01 -1.31918E-01 -1.24142E-01 -1.15922E-01 -1.07292E-01 -9.82865E-02 -8.91271E-02 -7.99540E-02 -7.08042E-02 -6.17087E-02
  -5.28438E-02 -4.44482E-02 -3.64042E-02 -2.87094E-02 -2.14921E-02 -1.48015E-02 -8.60334E-03 -2.91482E-03  2.25624E-03  6.94019E-03
   1.10911E-02  1.47189E-02  1.79462E-02  2.08532E-02  2.33267E-02  2.54002E-02  2.71875E-02  2.87725E-02  3.01478E-02  3.14624E-02
   3.29011E-02  3.44810E-02  3.60985E-02  3.76741E-02  3.90753E-02  4.01931E-02  4.10503E-02  4.16882E-02  4.21572E-02  4.24475E-02
   4.26232E-02  4.27222E-02  4.26533E-02  4.25539E-02  4.26802E-02  4.30141E-02  4.33022E-02  4.33692E-02  4.32163E-02  4.28986E-02
   4.24109E-02  4.19146E-02  4.16106E-02  4.15469E-02  4.14774E-02  4.12291E-02  4.08535E-02  4.05205E-02  4.03680E-02  4.04673E-02
   4.07900E-02  4.13054E-02  4.20463E-02  4.28854E-02  4.37162E-02  4.45760E-02  4.55658E-02  4.66449E-02  4.75861E-02  4.83358E-02
   4.88427E-02  4.91729E-02  4.93294E-02  4.95130E-02  4.99862E-02  5.06758E-02  5.14597E-02  5.22940E-02  5.31320E-02  5.41406E-02
   5.54461E-02  5.69838E-02  5.85383E-02  5.98050E-02  6.06725E-02  6.12579E-02  6.16740E-02  6.21398E-02  6.26997E-02  6.32529E-02
   6.37510E-02  6.42412E-02  6.47595E-02  6.52499E-02  6.58377E-02  6.65760E-02  6.74109E-02  6.83492E-02  6.93838E-02  7.06105E-02
   7.19924E-02  7.34035E-02  7.48180E-02  7.63741E-02  7.82122E-02  8.04343E-02  8.30320E-02  8.59390E-02  8.90864E-02  9.22478E-02
   9.53730E-02  9.84791E-02  1.01707E-01  1.05203E-01
 NY background values follow
     4.574E-02    4.557E-02    4.540E-02    4.522E-02    4.505E-02    4.488E-02    4.471E-02    4.454E-02    4.437E-02    4.420E-02
     4.403E-02    4.386E-02    4.369E-02    4.352E-02    4.334E-02    4.317E-02    4.300E-02    4.283E-02    4.266E-02    4.249E-02
     4.232E-02    4.215E-02    4.198E-02    4.180E-02    4.163E-02    4.146E-02    4.129E-02    4.112E-02    4.095E-02    4.078E-02
     4.060E-02    4.043E-02    4.026E-02    4.009E-02    3.992E-02    3.975E-02    3.958E-02    3.940E-02    3.923E-02    3.906E-02
     3.889E-02    3.872E-02    3.855E-02    3.837E-02    3.820E-02    3.803E-02    3.786E-02    3.769E-02    3.751E-02    3.734E-02
     3.717E-02    3.700E-02    3.683E-02    3.665E-02    3.648E-02    3.631E-02    3.614E-02    3.597E-02    3.579E-02    3.562E-02
     3.545E-02    3.528E-02    3.511E-02    3.493E-02    3.476E-02    3.459E-02    3.442E-02    3.424E-02    3.407E-02    3.390E-02
