 LCModel (Version 6.3-1N) Copyright: S.W. Provencher.          Ref.: Magn. Reson. Med. 30:672-679 (1993).                
 Slice_N1@25_10  02-Jun-2023 14:38:03
 27 lines in following concentration table = NCONC+1
    Conc.  %SD /Cr+PCr  Metabolite                                         
 3.95E-06   9% 1.2E-03 Mac                                                 
 1.27E-02  56%   3.730 Cr                                                  
 1.45E-02  46%   4.270 PCr                                                 
 2.65E-02  35%   7.815 Ins                                                 
 8.10E-02  12%  23.860 NAA                                                 
 3.85E-02  21%  11.355 Tau                                                 
 1.37E-03 151%   0.403 PCho                                                
    0.000 999%   0.000 GPC                                                 
 6.43E-02  16%  18.954 Glu                                                 
 1.82E-02  33%   5.372 Gln                                                 
 2.62E-02  28%   7.717 Ala                                                 
 3.81E-03 300%   1.124 Asc                                                 
 6.75E-03  78%   1.989 Asp                                                 
 1.98E-03 152%   0.583 GABA                                                
 3.32E-03 101%   0.978 Glc                                                 
 5.03E-03  68%   1.484 GSH                                                 
    0.000 999%   0.000 Lac                                                 
    0.000 999%   0.000 NAAG                                                
    0.000 999%   0.000 PE                                                  
 1.37E-03 151%   0.403 GPC+PCho                                            
 8.10E-02  12%  23.860 NAA+NAAG                                            
 8.25E-02  15%  24.327 Glu+Gln                                             
 2.71E-02  23%   8.000 Cr+PCr                                              
 8.10E-02  12%  23.860 NAA+NAAG                                            
 2.71E-02  23%   8.000 Cr+PCr                                              
 8.25E-02  15%  24.327 Glu+Gln                                             
   6 lines in following misc. output table
  FWHM = 0.081 ppm    S/N =   2                                            
  Data shift = 0.175 ppm                                                   
  Ph: -97 deg     -24.3 deg/ppm                                            
  alphaB,S = 4.4E-01,   9.7E+00                                            
   18 spline knots.   Ns = 6(2)                                            
  ( 8) 4 infls.   ( 6) 4 extrs.                                            
  654 points on ppm-axis = NY
      4.000000     3.994181     3.988363     3.982544     3.976726     3.970907     3.965088     3.959270     3.953451     3.947633
      3.941814     3.935995     3.930177     3.924358     3.918540     3.912721     3.906902     3.901084     3.895265     3.889446
      3.883628     3.877809     3.871991     3.866172     3.860353     3.854535     3.848716     3.842898     3.837079     3.831260
      3.825442     3.819623     3.813805     3.807986     3.802167     3.796349     3.790530     3.784712     3.778893     3.773074
      3.767256     3.761437     3.755619     3.749800     3.743981     3.738163     3.732344     3.726526     3.720707     3.714888
      3.709070     3.703251     3.697433     3.691614     3.685795     3.679977     3.674158     3.668339     3.662521     3.656702
      3.650884     3.645065     3.639246     3.633428     3.627609     3.621791     3.615972     3.610153     3.604335     3.598516
      3.592698     3.586879     3.581060     3.575242     3.569423     3.563605     3.557786     3.551967     3.546149     3.540330
      3.534512     3.528693     3.522874     3.517056     3.511237     3.505419     3.499600     3.493781     3.487963     3.482144
      3.476326     3.470507     3.464688     3.458870     3.453051     3.447232     3.441414     3.435595     3.429777     3.423958
      3.418139     3.412321     3.406502     3.400684     3.394865     3.389046     3.383228     3.377409     3.371591     3.365772
      3.359953     3.354135     3.348316     3.342498     3.336679     3.330860     3.325042     3.319223     3.313405     3.307586
      3.301767     3.295949     3.290130     3.284312     3.278493     3.272674     3.266856     3.261037     3.255219     3.249400
      3.243581     3.237763     3.231944     3.226125     3.220307     3.214488     3.208670     3.202851     3.197032     3.191214
      3.185395     3.179577     3.173758     3.167939     3.162121     3.156302     3.150484     3.144665     3.138846     3.133028
      3.127209     3.121391     3.115572     3.109753     3.103935     3.098116     3.092298     3.086479     3.080660     3.074842
      3.069023     3.063205     3.057386     3.051567     3.045749     3.039930     3.034111     3.028293     3.022474     3.016656
      3.010837     3.005018     2.999200     2.993381     2.987563     2.981744     2.975925     2.970107     2.964288     2.958470
      2.952651     2.946832     2.941014     2.935195     2.929377     2.923558     2.917739     2.911921     2.906102     2.900284
      2.894465     2.888646     2.882828     2.877009     2.871191     2.865372     2.859553     2.853735     2.847916     2.842098
      2.836279     2.830460     2.824642     2.818823     2.813004     2.807186     2.801367     2.795549     2.789730     2.783911
      2.778093     2.772274     2.766456     2.760637     2.754818     2.749000     2.743181     2.737363     2.731544     2.725725
      2.719907     2.714088     2.708270     2.702451     2.696632     2.690814     2.684995     2.679177     2.673358     2.667539
      2.661721     2.655902     2.650084     2.644265     2.638446     2.632628     2.626809     2.620991     2.615172     2.609353
      2.603535     2.597716     2.591897     2.586079     2.580260     2.574442     2.568623     2.562804     2.556986     2.551167
      2.545349     2.539530     2.533711     2.527893     2.522074     2.516256     2.510437     2.504618     2.498800     2.492981
      2.487163     2.481344     2.475525     2.469707     2.463888     2.458070     2.452251     2.446432     2.440614     2.434795
      2.428977     2.423158     2.417339     2.411521     2.405702     2.399884     2.394065     2.388246     2.382428     2.376609
      2.370790     2.364972     2.359153     2.353335     2.347516     2.341697     2.335879     2.330060     2.324242     2.318423
      2.312604     2.306786     2.300967     2.295149     2.289330     2.283511     2.277693     2.271874     2.266056     2.260237
      2.254418     2.248600     2.242781     2.236963     2.231144     2.225325     2.219507     2.213688     2.207870     2.202051
      2.196232     2.190414     2.184595     2.178777     2.172958     2.167139     2.161321     2.155502     2.149683     2.143865
      2.138046     2.132228     2.126409     2.120590     2.114772     2.108953     2.103135     2.097316     2.091497     2.085679
      2.079860     2.074042     2.068223     2.062404     2.056586     2.050767     2.044949     2.039130     2.033311     2.027493
      2.021674     2.015856     2.010037     2.004218     1.998400     1.992581     1.986763     1.980944     1.975126     1.969307
      1.963489     1.957670     1.951852     1.946033     1.940215     1.934397     1.928578     1.922760     1.916941     1.911123
      1.905304     1.899486     1.893667     1.887849     1.882030     1.876212     1.870393     1.864575     1.858756     1.852938
      1.847119     1.841301     1.835482     1.829664     1.823845     1.818027     1.812208     1.806390     1.800571     1.794753
      1.788934     1.783116     1.777297     1.771479     1.765660     1.759842     1.754023     1.748205     1.742386     1.736568
      1.730749     1.724931     1.719113     1.713294     1.707476     1.701657     1.695839     1.690020     1.684202     1.678383
      1.672565     1.666746     1.660928     1.655109     1.649291     1.643472     1.637654     1.631835     1.626017     1.620198
      1.614380     1.608561     1.602743     1.596924     1.591106     1.585287     1.579469     1.573650     1.567832     1.562013
      1.556195     1.550376     1.544558     1.538739     1.532921     1.527102     1.521284     1.515465     1.509647     1.503829
      1.498010     1.492192     1.486373     1.480555     1.474736     1.468918     1.463099     1.457281     1.451462     1.445644
      1.439825     1.434007     1.428188     1.422370     1.416551     1.410733     1.404914     1.399096     1.393277     1.387459
      1.381640     1.375822     1.370003     1.364185     1.358366     1.352548     1.346729     1.340911     1.335092     1.329274
      1.323455     1.317637     1.311818     1.306000     1.300182     1.294363     1.288545     1.282726     1.276908     1.271089
      1.265271     1.259452     1.253634     1.247815     1.241997     1.236178     1.230360     1.224541     1.218723     1.212904
      1.207086     1.201267     1.195449     1.189630     1.183812     1.177993     1.172175     1.166356     1.160538     1.154719
      1.148901     1.143082     1.137264     1.131445     1.125627     1.119808     1.113990     1.108171     1.102353     1.096534
      1.090716     1.084898     1.079079     1.073261     1.067442     1.061624     1.055805     1.049987     1.044168     1.038350
      1.032531     1.026713     1.020894     1.015076     1.009257     1.003439     0.997620     0.991802     0.985983     0.980165
      0.974346     0.968528     0.962709     0.956891     0.951072     0.945254     0.939435     0.933617     0.927798     0.921980
      0.916161     0.910343     0.904524     0.898706     0.892887     0.887069     0.881251     0.875432     0.869614     0.863795
      0.857977     0.852158     0.846340     0.840521     0.834703     0.828884     0.823066     0.817247     0.811429     0.805610
      0.799792     0.793973     0.788155     0.782336     0.776518     0.770699     0.764881     0.759062     0.753244     0.747425
      0.741607     0.735788     0.729970     0.724151     0.718333     0.712514     0.706696     0.700877     0.695059     0.689240
      0.683422     0.677603     0.671785     0.665967     0.660148     0.654330     0.648511     0.642693     0.636874     0.631056
      0.625237     0.619419     0.613600     0.607782     0.601963     0.596145     0.590326     0.584508     0.578689     0.572871
      0.567052     0.561234     0.555415     0.549597     0.543778     0.537960     0.532141     0.526323     0.520504     0.514686
      0.508867     0.503049     0.497230     0.491412     0.485593     0.479775     0.473956     0.468138     0.462319     0.456501
      0.450682     0.444864     0.439045     0.433227     0.427408     0.421590     0.415771     0.409953     0.404134     0.398316
      0.392497     0.386679     0.380860     0.375042     0.369223     0.363405     0.357586     0.351767     0.345949     0.340130
      0.334312     0.328493     0.322675     0.316856     0.311038     0.305219     0.299401     0.293582     0.287764     0.281945
      0.276127     0.270308     0.264490     0.258671     0.252853     0.247034     0.241216     0.235397     0.229579     0.223760
      0.217942     0.212123     0.206305     0.200486
 NY phased data points follow
  -2.83347E-01  1.62137E-01 -2.41229E-01 -3.22322E-01 -3.80375E-01 -3.38791E-01 -9.09276E-02 -2.43236E-02  1.55840E-01  2.45110E-01
   2.84528E-01  2.78197E-01 -1.58131E-01 -4.04479E-02 -1.64390E-01  2.07362E-01  4.12008E-01 -2.48000E-01 -6.67141E-03  1.75299E-01
   2.18552E-01  1.91379E-01  2.74534E-01  2.38703E-01  9.75028E-02 -7.53904E-02  1.82660E-01  1.62009E-01 -9.10493E-02 -1.68262E-01
  -3.19125E-01 -7.81376E-02  1.22328E-02 -1.49244E-01 -5.49806E-01 -4.38834E-01 -5.86956E-01 -2.36102E-01 -1.23185E-02 -1.29527E-01
   2.50681E-02 -3.75409E-01 -1.11954E-01  1.03475E-01 -1.41534E-01 -3.97745E-02  3.55211E-01  2.53760E-01  2.63443E-01  3.78338E-01
   4.25818E-01  3.50861E-01  4.37322E-01  4.23323E-01  3.89882E-01  1.85354E-01  6.46982E-02  7.09630E-01 -2.26377E-01 -4.13459E-01
  -1.12555E-01  2.94968E-02  2.47639E-01 -2.68192E-01 -1.25744E-03  8.73276E-02  3.80687E-01  1.61787E-01 -8.88316E-02  1.31701E-01
  -1.60001E-01 -9.57629E-02  1.82614E-01 -1.79978E-01 -2.75445E-01  1.59709E-01  3.94182E-02 -2.16632E-01 -1.60100E-01 -1.30463E-01
  -1.22545E-01  3.20555E-01  3.57221E-01  2.11387E-01  1.07887E-01  9.04098E-02  2.55347E-01  2.60641E-01  5.27917E-02  8.05425E-02
   3.75111E-01  5.88132E-02  1.62880E-01 -3.63084E-02  1.71538E-01  2.22776E-01 -2.41435E-01 -9.52533E-02 -1.51192E-01  5.35494E-02
  -7.79049E-01 -5.04835E-01  1.06157E-01 -2.44293E-01  1.41035E-01  2.05419E-02 -5.03631E-02 -5.40536E-02 -7.83857E-03  3.29288E-02
   1.45459E-01  2.30735E-01  2.16117E-01  3.14210E-01  3.40198E-01  4.01138E-01  4.97351E-01  4.50392E-01  2.28230E-01  1.48741E-01
   2.60187E-01  4.29715E-01  6.36994E-02  1.40874E-01  3.15000E-02 -2.38190E-01 -2.25929E-01 -5.16397E-01 -3.13168E-01 -1.88468E-01
  -4.93397E-01 -6.99090E-01 -4.35287E-01 -4.13527E-01 -2.31625E-01 -2.69117E-01 -4.81206E-01 -8.06668E-01 -7.38041E-01 -4.83119E-01
  -5.84415E-01 -2.43415E-01 -8.97680E-01 -5.72099E-01 -1.35655E-01 -1.35932E-01  9.56537E-02 -8.80560E-02 -1.46870E-01 -3.90474E-01
  -2.24665E-01 -2.77623E-01 -1.66680E-01 -4.22639E-01 -3.98259E-01  1.19656E-01  7.22037E-02 -1.98203E-01  4.01626E-01  4.91040E-01
  -5.88796E-02  6.09928E-01  5.67446E-01  4.02617E-01  4.34919E-01  6.73124E-01  3.08219E-01  2.10007E-01  2.13238E-01 -3.60176E-01
  -3.43635E-02 -5.51217E-02 -8.06293E-02 -1.72552E-01  2.19180E-01 -1.33423E-01 -3.94961E-01 -5.70741E-01 -5.80694E-01 -1.00760E-01
  -7.48932E-01 -5.16924E-01 -4.19673E-01 -2.11307E-01 -5.00333E-01 -3.19654E-01 -2.55700E-01 -8.01952E-01 -3.45390E-01 -4.11372E-01
  -3.01478E-01 -6.00040E-01 -1.64330E-01 -4.67886E-01 -4.59698E-01  8.74468E-02 -4.19314E-01 -6.69317E-02 -2.74635E-01 -2.58830E-01
  -2.56351E-01 -1.77041E-01 -5.11715E-01 -6.20084E-01 -2.67233E-01 -1.73645E-01  2.14893E-01 -2.88165E-04  4.31427E-01  3.30826E-01
   1.75258E-01 -1.16416E-01 -2.70651E-01 -1.62534E-01 -3.13953E-01 -1.53250E-01 -6.47863E-01  1.37224E-01  4.62635E-02 -3.45327E-01
  -1.27617E-01 -3.61316E-01 -6.37253E-02 -1.81882E-01 -1.58876E-01 -4.19915E-02  3.04197E-01  1.69846E-01  2.16218E-01  3.57890E-01
   3.09273E-01  1.57333E-01  3.03487E-01  8.26073E-01  3.44151E-01  3.70882E-02  1.08237E-01  7.42508E-01  2.68712E-01  7.23336E-02
   1.55130E-01 -1.00960E-01  1.83701E-01 -8.25668E-02  2.94092E-01 -2.42501E-02 -1.57888E-01 -1.00392E-02 -1.08559E-01 -3.30651E-01
   1.78445E-02  2.16712E-01 -1.35537E-01 -3.58852E-03 -1.70530E-01  1.90299E-01 -1.72111E-01  1.29422E-01  6.35785E-02  3.46036E-03
   5.33397E-01 -3.77411E-01 -4.44169E-01  4.42428E-02  2.55601E-01 -1.03093E-02 -1.23408E-01  1.67488E-01  3.34897E-01  2.76155E-01
   1.93245E-01  2.82953E-01  3.25281E-01  3.85759E-02  3.45027E-02 -9.75255E-02 -2.83973E-01 -1.35986E-01 -2.62591E-01 -2.04094E-01
  -2.10509E-01 -2.69841E-01 -2.53110E-01  4.23771E-02 -4.02623E-01 -1.69540E-01  9.39246E-02  2.60743E-01  2.57407E-01 -3.10939E-01
   3.44780E-01  1.19101E-01  6.43461E-01  5.03914E-01  1.03600E-01  4.12214E-01  1.76614E-01  2.15215E-01  9.72459E-02  3.53908E-01
   1.07433E-01  2.47669E-01  3.50267E-01  3.35678E-01  3.81972E-01  2.12957E-01  6.93471E-01  6.77020E-01  4.31345E-01  9.44684E-01
   5.65314E-01  4.81918E-01  8.63639E-01  6.05417E-01  8.30375E-01  6.10257E-01  3.24140E-01  3.92358E-01  5.64555E-01  4.89438E-02
   1.11777E-01  3.37980E-03 -4.82200E-01 -3.18821E-01 -2.85239E-01 -3.30211E-01 -5.82437E-01  1.82295E-01  4.93141E-02 -7.75199E-02
   1.63085E-01  8.07508E-02  6.61279E-01  4.68373E-01  1.96026E-01  2.06206E-01 -4.48716E-02  3.22944E-01  2.18443E-01 -2.26402E-01
  -3.36034E-01 -8.41923E-01 -8.61855E-01 -1.29377E+00 -1.09910E+00 -1.03188E+00 -9.45637E-01 -5.40330E-01 -1.13313E+00 -1.24723E+00
  -7.36376E-01 -5.85970E-01 -7.52924E-01 -2.50512E-01 -4.31139E-01 -3.56110E-01 -4.23601E-01 -2.84941E-01 -1.81241E-01 -3.91378E-01
  -1.30268E-01 -2.49394E-01  3.12176E-01  2.06955E-01  6.35508E-02 -2.87032E-02  1.10451E-01  3.33205E-01  2.00436E-01  4.17085E-01
  -3.04355E-01 -4.91124E-01  5.59385E-01  3.02059E-01  1.32556E-02 -3.61395E-02 -2.29168E-01  4.42269E-01  2.25228E-02 -2.65796E-01
   5.93100E-02  1.02045E-01  1.09106E-01  3.38040E-01  1.77773E-01  6.91416E-02 -2.15432E-01  1.15158E-02  3.79224E-01 -9.18818E-03
   3.34204E-01 -1.24976E-01  1.36522E-01  1.96056E-01  4.90749E-01  3.48142E-01  7.21952E-02  5.00176E-01 -2.22836E-02  5.47108E-02
  -1.20326E-01  7.03504E-01  4.40893E-01 -2.37829E-01  1.91850E-02 -1.57026E-01  5.84459E-02  2.57714E-01  2.42281E-02  1.29874E-01
  -6.21577E-03 -2.20984E-01  4.82318E-02 -7.03677E-01 -2.70476E-01 -8.14683E-02 -3.86364E-01 -1.54139E-01 -1.72355E-01 -1.48152E-01
  -2.08187E-01 -2.54406E-01 -2.91309E-01 -3.21486E-01 -5.62795E-01 -3.92632E-01 -4.09954E-01 -3.72296E-01 -4.86713E-01 -3.93514E-01
  -4.86811E-01 -9.08804E-02  3.49340E-01  8.48807E-03  1.81714E-02 -5.65343E-02  4.62492E-02  2.77963E-02  1.53237E-01 -4.90237E-01
  -1.31955E-01  3.92188E-01  1.71608E-01  3.51676E-01 -1.55556E-01 -4.25860E-02  2.56458E-01  3.37895E-01  2.18912E-01  8.83656E-02
   2.46342E-01  1.03798E-01  1.07773E-01  2.93681E-01 -3.55966E-02  2.54669E-01  2.98488E-01  1.94840E-01  5.37812E-01  7.08234E-02
   1.57902E-01  3.65149E-02 -4.57959E-02  3.17555E-01  2.24378E-01  1.17280E-01 -1.70427E-01 -4.68481E-02 -7.75158E-02 -3.85471E-01
   1.86327E-01  1.45285E-01 -1.55939E-01 -2.00953E-02 -2.65973E-01 -4.34469E-01 -4.95483E-01 -2.74919E-01 -4.25052E-01 -5.39906E-01
  -2.66642E-01 -3.63911E-01 -2.42410E-01  5.40373E-02 -1.32361E-01  1.74184E-01  1.59512E-01 -3.70858E-01 -8.06657E-03 -3.33975E-02
   1.37912E-01  1.45434E-01 -2.72204E-01  2.27236E-01  3.70926E-01  9.73494E-03 -1.77346E-01 -1.72824E-01 -3.06150E-02 -1.40630E-01
   1.26491E-01  2.62088E-01  9.83827E-02  1.91800E-01 -3.22943E-02 -1.90844E-02  4.45563E-01  4.23383E-01  1.20633E-01  2.19942E-01
  -2.48819E-01 -2.21166E-01  3.42578E-02 -1.69368E-02  1.86927E-01 -6.49437E-02 -7.08750E-02  2.42470E-01  3.92435E-01  1.09259E-01
  -4.49800E-02 -2.56503E-01  2.10629E-01  3.15537E-01 -2.55601E-02 -2.58361E-01 -4.38452E-01 -1.19203E-01 -4.98827E-01 -2.71014E-01
  -5.68160E-01 -6.28221E-01 -3.33885E-01 -7.61904E-01 -4.95757E-01 -3.86635E-01 -7.82344E-01 -6.90170E-01 -4.63312E-01 -5.21892E-01
  -4.24385E-01 -5.02718E-01 -1.23321E-01 -4.44921E-01 -3.73160E-01 -8.95327E-02 -6.77186E-01 -4.68175E-01 -3.77589E-01 -4.97593E-01
  -4.64542E-01 -2.80963E-01 -2.11279E-01 -2.24182E-01 -9.97463E-02 -1.27910E-01 -3.64005E-01 -2.86183E-01  5.04927E-02  8.82411E-02
  -3.72337E-01 -3.76031E-01 -1.02615E-01 -1.77939E-02  4.54706E-03 -1.10131E-02  9.64655E-02  8.72076E-02  3.82883E-01 -2.55338E-01
  -2.86403E-01 -1.64386E-01 -3.11339E-01 -1.74810E-01 -3.18203E-01  7.48907E-02 -3.18103E-01 -1.04213E-01 -1.34851E-01 -6.24337E-01
  -3.29514E-01  1.22534E-01 -8.58635E-02 -2.15095E-01  1.88567E-01 -7.94348E-02 -1.15520E-01 -1.41217E-01  2.38496E-01  9.72699E-02
  -3.65441E-01 -1.40931E-01 -6.86927E-02  6.19253E-02  5.51658E-01  2.06732E-01 -4.06364E-01  1.17205E-01 -3.03711E-01 -2.44329E-01
   3.33814E-01 -1.64011E-01 -9.79520E-02  5.13549E-02 -3.72659E-02 -8.84001E-02 -3.91841E-01 -2.16971E-01 -7.66199E-02 -1.52857E-01
   6.64278E-02 -6.97601E-02 -4.30047E-02  5.93190E-02 -1.99780E-01 -2.79304E-01 -6.13086E-02  1.49531E-01  2.66764E-01  1.53105E-01
   3.05959E-01  6.21171E-03 -2.37261E-01  2.13622E-01 -1.54080E-02  5.29931E-02 -2.13350E-01  7.02735E-02  4.74869E-01 -6.08483E-02
   4.19736E-02  3.89633E-01  2.80137E-01 -2.98421E-01 -2.70501E-02  9.71092E-02  2.43721E-01  1.78588E-01  1.03837E-01  2.46917E-01
   1.77992E-01  6.64581E-01 -1.39172E-01 -3.02424E-01 -1.12935E-02 -8.34260E-02  3.23134E-01  1.56242E-01 -5.31604E-02  2.06120E-01
   2.98486E-01 -8.50867E-02  2.70473E-01  3.45330E-01
 NY points of the fit to the data follow
   2.04216E-02  4.26090E-02 -2.14918E-02  2.27193E-03 -3.85937E-02  1.20939E-04 -1.02507E-02  4.26937E-02  6.87296E-02  1.04330E-01
   1.77971E-01  1.75812E-01  2.73888E-01  2.41363E-01  3.21131E-01  2.80499E-01  3.32635E-01  2.88827E-01  3.43852E-01  2.66951E-01
   2.99358E-01  2.40938E-01  2.56600E-01  1.99642E-01  1.94147E-01  1.42121E-01  8.50829E-02  7.73412E-02 -3.58449E-02 -4.55521E-02
  -1.86348E-01 -2.10005E-01 -3.09607E-01 -3.77117E-01 -3.94069E-01 -4.72133E-01 -3.93980E-01 -4.64905E-01 -3.10041E-01 -3.61686E-01
  -1.82555E-01 -1.90218E-01 -4.64778E-02 -1.41902E-02  7.62474E-02  1.12716E-01  1.81267E-01  2.01687E-01  2.56501E-01  2.81066E-01
   3.15415E-01  3.22596E-01  3.24458E-01  3.25272E-01  2.21664E-01  2.46571E-01  1.09309E-01  9.15397E-02 -4.12918E-03 -4.18170E-02
  -1.04874E-01 -1.12065E-01 -1.45623E-01 -1.47636E-01 -1.20991E-01 -1.32445E-01 -5.78219E-02 -4.08931E-02  1.25807E-02  2.44200E-02
   5.08925E-02  1.25209E-02  3.77728E-02 -2.14735E-02 -2.04902E-02 -5.90815E-02 -6.91455E-02 -1.08002E-01 -1.21349E-01 -1.18559E-01
  -1.53659E-01 -1.05203E-01 -1.07079E-01 -6.77297E-02 -3.83939E-02  6.95728E-03  3.08068E-02  1.42317E-01  8.83718E-02  2.17211E-01
   1.08869E-01  1.88050E-01  8.04925E-02  1.01035E-01  2.09209E-02 -4.60794E-02 -6.81437E-02 -1.95963E-01 -1.41441E-01 -2.93917E-01
  -1.50053E-01 -2.82962E-01 -1.21819E-01 -2.35450E-01 -9.91096E-02 -2.13985E-01 -7.57210E-02 -1.69868E-01 -3.04027E-02 -8.39876E-02
   4.01242E-02  1.19077E-02  9.92999E-02  1.22731E-01  1.29108E-01  1.80087E-01  1.94048E-01  2.13910E-01  3.00688E-01  2.50909E-01
   3.39350E-01  2.30826E-01  2.75274E-01  1.45475E-01  1.73582E-01  4.43260E-02  4.25999E-03 -7.36866E-02 -2.26900E-01 -2.08446E-01
  -3.98348E-01 -3.25632E-01 -4.73941E-01 -3.86570E-01 -5.33844E-01 -4.34615E-01 -5.84019E-01 -4.57857E-01 -5.69287E-01 -4.20249E-01
  -4.86993E-01 -3.59631E-01 -3.78778E-01 -2.85514E-01 -2.64768E-01 -2.11226E-01 -1.83569E-01 -1.49128E-01 -1.25761E-01 -9.79610E-02
  -7.21598E-02 -5.54896E-02 -4.98796E-02 -5.49959E-02 -8.36709E-02  2.46389E-02  6.67053E-02  2.08644E-01  2.81495E-01  3.58248E-01
   4.04403E-01  4.46494E-01  4.96276E-01  4.88463E-01  5.27113E-01  4.21526E-01  4.04056E-01  2.51925E-01  1.92377E-01  8.94699E-02
   4.89206E-02  1.95054E-03 -8.60393E-03 -1.05319E-01 -1.59851E-01 -2.37621E-01 -2.83473E-01 -3.26796E-01 -3.55009E-01 -3.80370E-01
  -4.03631E-01 -3.67452E-01 -3.41723E-01 -3.30045E-01 -3.13973E-01 -3.14309E-01 -2.96124E-01 -2.97645E-01 -2.77361E-01 -2.76903E-01
  -2.59597E-01 -2.56545E-01 -2.39439E-01 -2.28052E-01 -2.10156E-01 -2.00791E-01 -1.85040E-01 -1.72697E-01 -1.55149E-01 -1.40881E-01
  -1.22511E-01 -1.12154E-01 -9.78383E-02 -9.12468E-02 -7.84551E-02 -7.34053E-02 -6.29189E-02 -5.83489E-02 -5.09103E-02 -4.90827E-02
  -4.65793E-02 -4.65797E-02 -5.36438E-02 -9.38182E-02 -1.04551E-01 -1.34921E-01 -1.33075E-01 -1.42454E-01 -1.79013E-01 -1.91095E-01
  -1.89689E-01 -1.72161E-01 -1.12460E-01 -5.12008E-02  7.80327E-03  7.66110E-02  1.25389E-01  1.76875E-01  2.25697E-01  2.70838E-01
   2.91649E-01  3.49178E-01  3.11468E-01  3.31457E-01  2.69071E-01  2.73159E-01  2.47201E-01  2.45771E-01  1.92898E-01  1.65335E-01
   1.06944E-01  9.89189E-02  6.03166E-02  5.27140E-02  1.09885E-02 -5.89244E-02 -2.49774E-02 -1.06089E-01 -1.08718E-01 -1.43958E-01
  -1.98652E-01 -1.82920E-01 -2.72961E-01 -2.15708E-01 -3.10280E-01 -2.23094E-01 -2.84253E-01 -2.16343E-01 -2.06148E-01 -2.05399E-01
  -1.15027E-01 -1.60523E-01 -4.42284E-02 -5.22565E-02  2.21596E-02  4.90820E-02  1.06519E-01  1.63630E-01  1.91196E-01  2.67276E-01
   2.57540E-01  3.00461E-01  2.43561E-01  2.26707E-01  1.14400E-01  4.29951E-02 -8.06917E-02 -1.39472E-01 -2.57448E-01 -3.06783E-01
  -3.59163E-01 -3.92569E-01 -3.77602E-01 -3.56312E-01 -3.05801E-01 -2.29477E-01 -1.77470E-01 -1.15690E-01 -6.13574E-02 -3.69315E-02
   1.56660E-02  5.61880E-02  9.02865E-02  1.54528E-01  1.75166E-01  2.30060E-01  2.28518E-01  2.60057E-01  2.45376E-01  2.46484E-01
   2.34502E-01  2.34845E-01  2.25766E-01  2.45657E-01  2.51015E-01  2.80962E-01  2.99407E-01  3.34442E-01  3.51712E-01  3.84617E-01
   3.80634E-01  4.05063E-01  3.64175E-01  3.61689E-01  2.78571E-01  2.34631E-01  1.30554E-01  5.66188E-02 -2.85719E-02 -1.11764E-01
  -1.50976E-01 -2.12308E-01 -2.24712E-01 -2.33003E-01 -2.52660E-01 -2.04938E-01 -2.45094E-01 -1.76576E-01 -2.22427E-01 -1.42362E-01
   1.42656E-01  2.38866E-01  4.24712E-01  4.15545E-01  3.77382E-01  2.56042E-01  2.11954E-01  4.11889E-02 -9.07767E-02 -3.11565E-01
  -5.74452E-01 -8.18242E-01 -9.67172E-01 -1.14957E+00 -1.00688E+00 -1.09056E+00 -8.63391E-01 -9.06830E-01 -9.07184E-01 -9.44611E-01
  -8.32837E-01 -8.08958E-01 -6.48829E-01 -5.96671E-01 -4.52911E-01 -3.87560E-01 -1.61048E-01 -9.38396E-02 -6.64402E-02 -4.35634E-02
  -3.76697E-02 -2.57533E-02 -2.46796E-02 -1.88717E-02 -1.90651E-02 -1.42444E-02 -1.67238E-02 -1.12781E-02 -1.20830E-02 -6.48145E-03
  -6.01336E-03  1.21169E-03  2.15415E-03  9.94069E-03  1.23333E-02  1.92390E-02  2.52597E-02  2.87711E-02  3.87859E-02  3.76259E-02
   4.89970E-02  4.63796E-02  6.03552E-02  5.92117E-02  7.42113E-02  7.47553E-02  8.79117E-02  9.11122E-02  1.04383E-01  1.12926E-01
   1.24278E-01  1.35807E-01  1.44662E-01  1.54640E-01  1.60690E-01  1.69468E-01  1.71563E-01  1.79259E-01  1.76776E-01  1.81987E-01
   1.72562E-01  1.74265E-01  1.59520E-01  1.56310E-01  1.39610E-01  1.32900E-01  1.14360E-01  1.05463E-01  8.68891E-02  7.54042E-02
   5.87343E-02  4.40096E-02  2.93681E-02  1.37358E-02 -1.52078E-03 -1.73620E-02 -3.22937E-02 -5.09381E-02 -6.39604E-02 -8.38306E-02
  -9.81928E-02 -1.25985E-01 -1.90648E-01 -1.93161E-01 -2.84989E-01 -2.49104E-01 -2.75104E-01 -2.27208E-01 -2.01185E-01 -1.57961E-01
  -1.03549E-01 -7.47713E-02  2.51980E-02  2.16901E-02  1.37293E-01  9.45188E-02  1.64593E-01  1.07661E-01  1.32381E-01  9.41273E-02
   1.43179E-01  1.07596E-01  1.68660E-01  1.34272E-01  1.63362E-01  1.41754E-01  1.60282E-01  1.52593E-01  1.49939E-01  1.66507E-01
   1.68970E-01  1.93963E-01  2.19465E-01  2.42554E-01  2.57840E-01  2.74015E-01  2.75655E-01  2.83529E-01  2.73163E-01  2.73566E-01
   2.54565E-01  2.48676E-01  2.24593E-01  2.10973E-01  1.82628E-01  1.63691E-01  1.33820E-01  1.11789E-01  8.31677E-02  5.85593E-02
   3.21360E-02  8.10342E-03 -1.23253E-02 -3.26561E-02 -4.66408E-02 -6.07152E-02 -6.75497E-02 -7.59145E-02 -7.83224E-02 -7.95995E-02
  -7.88399E-02 -7.25121E-02 -6.58076E-02 -5.79079E-02 -4.56148E-02 -3.66571E-02 -2.21565E-02 -1.15720E-02  3.17527E-03  1.39021E-02
   2.54971E-02  3.61375E-02  4.24485E-02  5.07422E-02  5.28671E-02  5.95777E-02  5.77355E-02  6.08616E-02  5.72192E-02  5.69272E-02
   5.18659E-02  5.01795E-02  4.42390E-02  4.17732E-02  3.59391E-02  3.41112E-02  2.96513E-02  2.84052E-02  2.87696E-02  2.92941E-02
   3.48643E-02  3.59154E-02  4.22202E-02  4.19974E-02  4.75161E-02  4.46405E-02  4.58713E-02  3.87054E-02  3.21852E-02  1.72904E-02
  -3.06975E-03 -2.56684E-02 -5.84074E-02 -8.88795E-02 -1.29497E-01 -1.65913E-01 -2.12840E-01 -2.50788E-01 -2.97499E-01 -3.31554E-01
  -3.74639E-01 -4.03337E-01 -4.38545E-01 -4.60918E-01 -4.85267E-01 -5.01047E-01 -5.14708E-01 -5.24304E-01 -5.27068E-01 -5.29814E-01
  -5.26164E-01 -5.21274E-01 -5.09586E-01 -4.97386E-01 -4.78811E-01 -4.63683E-01 -4.43096E-01 -4.22979E-01 -3.99950E-01 -3.79264E-01
  -3.53752E-01 -3.33832E-01 -3.06826E-01 -2.85127E-01 -2.60931E-01 -2.37885E-01 -2.16284E-01 -1.94799E-01 -1.74329E-01 -1.56391E-01
  -1.40217E-01 -1.25589E-01 -1.13514E-01 -1.01293E-01 -9.06076E-02 -8.27197E-02 -7.37675E-02 -6.67289E-02 -6.04118E-02 -5.31332E-02
  -4.78055E-02 -4.18429E-02 -3.68744E-02 -3.01968E-02 -2.72760E-02 -2.39290E-02 -2.15511E-02 -2.03967E-02 -1.69179E-02 -1.34559E-02
  -1.20829E-02 -8.33057E-03 -8.52906E-03 -5.56908E-03 -5.01567E-03 -5.49739E-03 -2.29695E-03 -3.80875E-03 -2.27124E-03 -5.44641E-03
  -4.88701E-03 -8.84011E-03 -8.93176E-03 -1.03856E-02 -1.24029E-02 -1.24010E-02 -1.72329E-02 -1.69668E-02 -2.26776E-02 -2.01626E-02
  -2.48665E-02 -2.01397E-02 -2.40884E-02 -1.82988E-02 -2.16256E-02 -1.66482E-02 -1.92909E-02 -1.61213E-02 -1.52756E-02 -1.48912E-02
  -1.32073E-02 -1.67219E-02 -1.37964E-02 -1.77366E-02 -1.24535E-02 -1.56566E-02 -9.18048E-03 -1.13262E-02 -7.49695E-03 -8.64151E-03
  -4.03981E-03 -4.40667E-03  1.38947E-03  1.36048E-03  4.06732E-03  6.34937E-03  6.60229E-03  9.15505E-03  9.06457E-03  1.18325E-02
   1.09962E-02  1.35676E-02  1.09467E-02  1.21806E-02  1.16577E-02  1.07098E-02  1.02129E-02  7.11160E-03  6.14745E-03  3.99742E-03
   4.12237E-03  3.26803E-03  3.85158E-03  1.34345E-03  1.82831E-03  2.21475E-03  3.10030E-03  5.68448E-03  7.20371E-03  1.02688E-02
   9.98240E-03  1.38841E-02  9.71914E-03  1.42401E-02
 NY background values follow
     9.151E-03    9.486E-03    9.822E-03    1.016E-02    1.049E-02    1.083E-02    1.117E-02    1.150E-02    1.184E-02    1.217E-02
     1.251E-02    1.285E-02    1.318E-02    1.352E-02    1.385E-02    1.419E-02    1.452E-02    1.486E-02    1.519E-02    1.552E-02
     1.586E-02    1.619E-02    1.652E-02    1.685E-02    1.718E-02    1.751E-02    1.784E-02    1.817E-02    1.850E-02    1.883E-02
     1.915E-02    1.948E-02    1.981E-02    2.013E-02    2.045E-02    2.078E-02    2.110E-02    2.142E-02    2.174E-02    2.205E-02
     2.237E-02    2.269E-02    2.300E-02    2.332E-02    2.363E-02    2.394E-02    2.425E-02    2.456E-02    2.486E-02    2.517E-02
     2.547E-02    2.577E-02    2.607E-02    2.637E-02    2.667E-02    2.697E-02    2.726E-02    2.756E-02    2.785E-02    2.814E-02
     2.843E-02    2.871E-02    2.900E-02    2.928E-02    2.956E-02    2.985E-02    3.012E-02    3.040E-02    3.067E-02    3.095E-02
