 
 $NMID
 ID=''
 FMTDAT='(2E13.5)'
 TRAMP=   1.00000E+0
 VOLUME=   1.00000E+0
 $END
   2.30630E+2  -4.24987E+2
  -4.39144E+2   1.62073E+3
   1.71314E+2  -2.28239E+3
   1.02367E+3   2.10838E+3
  -1.35713E+3   1.01993E+3
   3.29958E+3   1.23692E+3
   2.38909E+3   1.70397E+3
  -1.71141E+2  -8.06840E+2
   1.62764E+3  -2.16395E+3
  -1.12777E+3  -1.06147E+3
   9.45396E+2  -2.04467E+3
   3.46379E+3  -9.25844E+2
   2.55635E+3   2.32184E+3
  -1.37151E+3   3.12827E+3
  -2.80840E+3   2.18867E+3
  -5.59240E+2  -1.54599E+3
   1.47522E+3  -1.43071E+3
   1.18701E+3  -6.07355E+2
  -6.50344E+2   2.73854E+3
   3.28974E+2  -1.04654E+3
   2.25685E+3  -2.13533E+3
  -5.08976E+2   4.46944E+3
  -4.70174E+3   4.62706E+3
  -3.84242E+3   1.37526E+3
   1.40510E+3  -3.11678E+3
  -1.20390E+3   6.06452E+3
   6.73272E+1   2.56575E+3
  -1.68869E+3  -3.01218E+2
   9.23699E+2  -2.39486E+3
   4.30193E+3  -3.56701E+3
   3.52155E+3   3.47005E+3
  -3.72442E+3   5.77667E+3
  -4.27830E+3   9.50024E+2
  -1.40229E+3  -2.63742E+3
  -8.48070E+2   3.21277E+3
  -1.97238E+3  -1.75143E+3
   7.10458E+2  -4.54179E+3
   3.95265E+3   2.86016E+2
   1.38349E+3   1.91220E+3
   3.96380E+1   2.00256E+2
  -1.84818E+3   3.42707E+3
  -2.50859E+3  -1.76385E+3
   2.52136E+2  -7.15849E+3
   6.25937E+3  -1.94932E+3
   3.48516E+3   1.79204E+3
   2.23474E+3   1.58904E+3
   1.74979E+3   2.98282E+3
   1.03600E+3   3.63312E+3
  -7.45043E+2   2.07996E+3
  -2.61180E+3  -6.97011E+1
   8.31651E+2  -6.01586E+2
   9.41791E+2  -1.31870E+3
   3.26379E+3   2.91119E+2
   1.28461E+3   2.87477E+3
  -9.61130E+2   1.99242E+2
  -1.53497E+3   1.84834E+3
  -3.58201E+3  -2.15096E+3
  -8.41105E+2  -4.56427E+3
   1.85626E+3  -6.49539E+3
   3.98289E+3  -1.52715E+3
   5.48437E+3   3.31289E+2
   4.08793E+3   3.93102E+3
  -1.97647E+3   1.84021E+3
   2.63808E+3  -1.65957E+3
   3.52867E+3   4.56813E+2
   2.63550E+3   1.63114E+3
  -2.68717E+3   1.81708E+3
   1.34218E+3  -1.69059E+3
   2.61677E+2  -2.04692E+3
   5.94965E+2  -2.27237E+2
  -2.92525E+3  -1.25857E+3
  -2.27237E+3  -1.43224E+3
   2.13422E+1  -4.06906E+3
   1.55808E+3  -4.00354E+3
  -9.96949E+2  -4.41536E+1
  -3.93317E+1  -2.18274E+3
   1.40687E+3  -1.47744E+3
   1.06197E+3   4.50650E+2
   1.88227E+3   8.00236E+2
   3.44505E+2   1.58610E+3
   9.40113E+2  -8.81148E+2
  -5.93145E+2  -2.55697E+2
   4.36192E+2   7.02143E+2
  -2.85823E+3   1.08377E+2
  -5.11339E+2  -2.75195E+3
   2.44943E+2  -1.99565E+2
   2.43460E+3   5.48578E+2
   3.46537E+2   9.71606E+2
  -1.19154E+3   4.24713E+3
  -2.84150E+3   1.45607E+3
  -2.06442E+3  -2.05565E+3
  -1.99473E+3   5.65695E+2
  -3.69635E+3  -1.23960E+3
  -1.85191E+3  -4.41706E+3
   1.59453E+3  -3.48258E+3
   1.49123E+3   1.89631E+0
  -6.35118E+2   1.08416E+2
  -3.57868E+3   6.27563E+2
  -1.04922E+3  -4.93831E+3
   9.18088E+2  -1.05071E+3
   3.26715E+3   2.52913E+3
  -2.15597E+2   3.57807E+3
  -2.88223E+3   1.58567E+3
  -8.91713E+2  -1.19641E+3
   1.54477E+3  -1.05938E+3
   2.52903E+3   2.23384E+3
  -1.68804E+3  -1.56247E+3
  -8.81297E+2  -6.08875E+2
   2.06624E+3  -1.37955E+3
   1.77219E+1   1.08030E+3
   2.86714E+0   2.02189E+3
  -2.35569E+3   1.30134E+2
  -1.43522E+3  -8.64849E+2
  -1.72875E+3  -1.95545E+3
  -2.52691E+3  -1.38808E+3
   1.01200E+3  -5.65925E+2
   3.06275E+2  -9.31240E+2
  -6.55892E+2  -1.23038E+3
   3.83946E+2   1.12100E+3
   3.33390E+1   7.60157E+2
  -1.33347E+2  -3.93807E+2
  -1.70521E+2   9.92459E+1
   4.79860E+2   2.35019E+3
  -4.61094E+2   7.79960E+2
  -1.07169E+3  -3.57413E+2
   7.57043E+2   8.45992E+1
  -6.92170E+2   1.07588E+3
  -2.14680E+3   1.32809E+3
  -1.55895E+3  -7.55331E+1
  -8.77807E+2  -1.67890E+3
   1.27826E+3   3.34604E+2
  -1.43850E+3   3.24185E+2
  -4.56889E+2   5.37361E+2
  -3.20544E+2  -1.77090E+3
  -3.56783E+1  -6.10324E+2
  -1.90124E+2   9.10693E+2
   1.35621E+3   1.94972E+3
   6.29456E+0   2.39482E+3
  -2.01525E+1   1.95600E+3
   3.42084E+2  -6.99150E+2
   6.46375E+2   1.75433E+3
   1.46389E+3   1.20403E+3
  -4.83169E+2  -1.94071E+3
  -1.64575E+3  -2.20094E+3
   6.79616E+2  -1.06044E+3
   8.61973E+2  -2.44073E+2
   9.89391E+1   1.18601E+3
   9.44679E+2  -1.71303E+2
   1.92087E+2  -1.01457E+3
   3.46762E+2   7.23292E+2
  -4.36582E+2   8.80836E+2
   3.28398E+2   1.45969E+3
   9.47897E+2   1.31758E+3
  -3.87204E+2  -9.79432E+1
   5.43832E+0  -1.73753E+3
   2.74031E+3   5.67820E+2
   1.55389E+3   7.90015E+2
  -6.52345E+2   4.88400E+2
  -6.87350E+2   2.56279E+2
   5.47900E+2   2.59207E+2
  -3.95017E+2   9.96324E+1
   7.62214E+2  -4.28559E+2
  -7.82026E+2   8.04481E+2
  -1.39199E+3   1.30179E+3
   1.21550E+3  -6.05374E+2
  -7.09226E+2   2.24940E+3
  -1.24265E+3  -7.92662E+2
   5.70239E+2  -8.59492E+2
   4.05369E+2   1.87706E+2
  -3.28744E+2   6.64002E+2
  -8.71542E+1   7.31358E+2
   1.68526E+3  -5.80987E+2
  -1.25498E+3  -1.17462E+3
  -1.28755E+2  -3.72028E+1
  -3.53046E+2  -8.08070E+2
  -2.27181E+2  -3.34168E+2
  -8.24849E+2  -3.94722E+2
  -1.09293E+3  -3.98899E+2
  -4.79263E+2  -1.45435E+3
  -5.54683E+2   1.76597E+2
  -1.17612E+3   1.26491E+3
  -1.76582E+3   1.94843E+3
  -4.46626E+2   4.70397E+2
  -5.34003E+2   8.31701E+2
  -8.03061E+2  -9.65890E+2
  -2.21061E+2  -1.01512E+3
   9.58220E+2   5.45019E+2
   1.77549E+3  -1.45447E+3
  -2.43124E+2  -2.29572E+2
  -1.28522E+3  -1.81443E+3
  -2.48035E+2  -3.66966E+1
  -4.36617E+2  -5.42916E+2
   6.09941E+2   1.52982E+2
   1.16198E+3   8.88694E+2
   9.85678E+2  -2.49712E+2
   2.29244E+3   1.09640E+2
   4.60688E+2  -1.14386E+3
   2.22361E+3  -1.15518E+3
   2.83723E+2   7.71017E+2
   2.29114E+2  -1.41170E+1
   1.74701E+3  -1.03158E+3
   1.33746E+3   1.20836E+3
  -1.61080E+3  -8.50176E+2
   1.37046E+3  -9.38796E+2
   3.39987E+2   1.53068E+3
   1.23932E+3  -1.17714E+3
  -3.62037E+2  -1.42900E+2
   1.41825E+3  -7.79164E+2
  -1.21543E+2  -1.98133E+3
   1.37651E+3  -1.69725E+3
   3.64997E+2   5.51513E+2
   1.80038E+3  -7.60022E+2
   3.52493E+2  -5.54508E+2
   2.01812E+2  -1.93474E+3
   1.67727E+3   1.10591E+3
  -1.03951E+3  -5.32564E+2
   1.19277E+3   1.08468E+2
   6.63238E+2  -1.42427E+3
  -1.21765E+2  -8.18711E+2
   7.96934E+2  -2.07224E+3
   1.17780E+3   1.70422E+3
   5.56204E+2   1.29218E+3
   3.30974E+2   2.33875E+2
   2.76391E+2   2.67977E+3
   5.77396E+2   5.18003E+2
  -4.82910E+2  -4.59819E+1
  -5.59120E+2   7.26571E+2
  -1.29238E+3  -8.75410E+2
  -1.59237E+3   1.90278E+3
  -4.01866E+2   1.42687E+3
  -6.61723E+2   1.74288E+3
  -1.18018E+3   7.85741E+2
   5.37368E+2  -1.26308E+3
   3.19736E+3  -1.82497E+2
   3.70669E+2   1.40878E+3
  -9.11710E+2   1.26886E+3
  -8.49021E+2  -4.88353E+2
  -1.36682E+3  -9.36706E+2
   4.29560E+2  -8.56524E+2
  -2.06361E+2   1.10177E+3
   3.01240E+2  -9.52292E+2
  -2.66310E+2  -6.52059E+1
  -2.16541E+3   3.35118E+2
   1.72030E+2   1.93032E+3
  -7.65157E+1  -1.64146E+3
  -8.53138E+2   9.44694E+2
   9.46710E+2  -8.33808E+2
  -8.78414E+2  -2.08250E+3
   7.00213E+1   3.68565E+2
  -5.15664E+1   5.10521E+2
  -6.56057E+2   1.77122E+3
  -2.01953E+3  -2.28542E+3
  -6.57130E+2   9.37706E+2
  -8.29548E+2   8.63638E+2
  -3.98621E+2  -2.69730E+2
  -8.56018E+2   9.06178E+2
  -1.08311E+3   1.86100E+3
  -1.35511E+3   1.47538E+3
   1.49888E+3   5.60714E+2
  -1.40308E+3   4.30868E+2
  -7.38660E+2  -2.06621E+3
  -8.75822E+1  -4.79344E+2
  -9.41431E+1  -5.93702E+2
   8.05936E+2   3.03903E+2
   4.77142E+2   8.95679E+2
  -6.53864E+2   7.82260E+2
   7.37999E+2   8.53784E+2
  -9.06181E+2   1.20695E+1
   7.64330E+2  -1.31905E+3
   3.88072E+2  -3.47457E+2
  -3.97682E+2   1.39575E+3
   2.77584E+2   3.88035E+2
  -3.26962E+2  -4.98549E+2
  -9.56065E+2  -2.55192E+2
  -1.23250E+2   3.77490E+2
  -1.27134E+3   9.42363E+2
   1.84881E+3   3.00945E+2
   7.49859E+2  -4.41361E+2
   9.59468E+2   2.89184E+2
   4.65137E+1   7.72726E+2
  -5.06190E+2  -2.96037E+1
  -1.02660E+3  -1.01222E+3
  -3.25061E+1  -4.97862E+2
   7.98437E+0  -2.24097E+3
  -5.44649E+2   2.71747E+3
  -4.07012E+2  -1.00959E+3
  -1.21949E+3  -1.60324E+3
   4.34174E+2   7.87215E+2
  -1.24635E+3  -2.35998E+3
   2.25770E+2  -1.39156E+3
   7.06093E+2   1.50201E+3
   1.50357E+3   3.31407E+2
   1.16505E+3  -1.40015E+2
   8.69795E+2  -6.40297E+2
   4.50398E+1  -7.66844E+2
   7.51274E+2  -1.99818E+2
  -1.59713E+3  -1.46769E+3
  -9.33346E+2  -6.32146E+2
   5.91803E+2   2.00973E+3
   3.49661E+1   8.92901E+2
   3.81540E+2   2.02138E+3
   9.96125E+1   2.43326E+3
   1.32168E+3  -2.60671E+3
  -1.11760E+3   4.25434E+2
  -2.95223E+3  -7.73656E+1
   6.71351E+1   1.48941E+3
   4.44278E+2   8.86649E+2
  -9.44858E+2   9.33677E+1
  -7.85489E+2  -3.09405E+2
   1.28721E+2   3.86199E+2
  -6.78541E+2  -1.70521E+3
  -6.17268E+2   1.41085E+3
  -3.07200E+2   7.63398E+2
  -3.87802E+2   1.96915E+3
   1.28346E+3  -9.31831E+2
  -2.02077E+3  -8.41475E+2
  -1.49903E+3  -6.81659E+2
  -2.31710E+2   2.78100E+2
   4.55151E+2   1.24147E+3
   8.93427E+2  -1.05323E+2
   1.40587E+3   1.48509E+3
  -8.12525E+2  -1.91235E+3
  -1.15038E+3   2.33227E+2
  -2.36309E+3   3.56260E+2
  -2.77520E+2   9.22190E+2
   4.78301E+2  -1.08700E+3
  -9.89353E+1  -3.49088E+2
  -1.13979E+2  -4.71137E+2
  -1.63909E+2   1.73944E+3
   2.64410E+2  -1.41481E+3
  -4.15613E+2   5.87897E+1
  -1.94271E+3  -3.46692E+2
   1.04992E+3   1.04659E+3
   2.52046E+2  -7.78381E+2
  -9.08899E+2  -6.33119E+2
  -3.48398E+2   5.32626E+2
  -3.81096E+2  -5.23292E+2
  -3.63360E+2   1.21874E+3
  -2.02109E+3   3.78838E+2
   1.18480E+3   5.54231E+2
  -4.01013E+2   3.59443E+2
  -5.96301E+2  -1.73327E+3
  -7.88031E+2   6.23280E+2
   5.17104E+2   9.55794E+2
   4.68096E+2  -1.23843E+3
  -1.15415E+3   3.56985E+2
   3.22172E+2  -1.44286E+3
  -8.62463E+2  -2.16995E+3
  -1.16908E+3  -1.69898E+3
   1.13011E+2   1.51885E+2
   1.07399E+3  -3.81837E+2
   1.22773E+3   5.19844E+2
  -3.60151E+1   4.86192E+2
  -1.33343E+3  -8.05440E+2
  -8.69739E+1  -2.45306E+2
  -8.45215E+2  -2.83111E+2
   2.21405E+2   1.45984E+3
   1.30058E+3  -1.44695E+3
  -2.25141E+3   2.97908E+2
   1.92987E+2   1.95176E+3
   3.25544E+2   1.88230E+3
  -1.67715E+3   4.40360E+2
   6.03226E+1   1.28161E+3
  -7.72978E+2  -2.93145E+3
   7.62771E+2   4.97945E+1
  -4.50981E+0   9.14989E+2
  -1.15836E+3   7.60832E+2
