 
 $NMID
 ID=''
 FMTDAT='(2E13.5)'
 TRAMP=   1.00000E+0
 VOLUME=   1.00000E+0
 $END
   4.67431E+2  -1.66854E+1
   9.80363E+2   2.21695E+2
   1.38558E+3  -1.87738E+3
  -2.71588E+3  -1.54230E+3
   5.99665E+2   3.71412E+2
  -6.39658E+2  -9.27375E+2
  -3.30428E+2  -6.63566E+2
   1.20025E+3   1.66810E+3
  -3.55135E+2  -1.31378E+2
   5.12342E+2  -2.31652E+2
  -1.06759E+3  -3.25178E+3
   1.99692E+2  -4.06519E+3
   1.37092E+3  -1.00689E+3
  -3.25388E+2   4.94757E+3
  -1.27745E+3   3.94612E+3
  -1.46219E+3  -2.32880E+3
   1.68799E+3  -2.26166E+3
   3.49356E+3   4.89204E+2
   3.05852E+3  -4.15473E+2
  -1.63346E+3  -9.19895E+2
   2.22108E+3  -4.11974E+3
   2.12920E+3  -1.06189E+3
  -7.88875E+2   1.64861E+3
  -6.71987E+3   1.36745E+2
  -4.45852E+3  -2.55691E+3
   4.66966E+3   7.39766E+2
   2.36537E+3   4.43806E+3
  -1.45494E+3   4.64450E+3
  -3.48084E+3  -2.21505E+3
  -5.87703E+2  -4.36122E+3
   6.71508E+3  -4.87338E+3
   3.81161E+3   4.11604E+3
  -2.78070E+3   2.19453E+3
  -4.07575E+3  -2.55324E+3
  -2.16993E+3  -2.15210E+3
  -3.85788E+3  -1.60677E+3
  -6.36229E+3  -3.50146E+3
   2.08747E+3  -5.55842E+3
   5.59381E+2  -2.04983E+3
  -3.82194E+2   2.08862E+3
   9.06893E+2   6.54420E+2
  -1.45836E+3   6.05749E+3
  -6.58487E+3   8.49232E+2
  -3.52564E+3  -3.10476E+3
  -7.45019E+2  -2.49255E+3
  -2.39014E+2  -2.06463E+2
   2.05730E+3   2.05024E+2
   3.52749E+3   1.01882E+3
   3.10516E+3   6.47286E+2
   4.40303E+3   2.78375E+3
   1.30782E+3   2.12155E+3
   2.32244E+3  -7.47630E+2
   5.44161E+2  -1.81344E+3
   3.38846E+3   1.02675E+3
   4.49843E+3   5.41790E+2
   1.04477E+3   2.09126E+3
   3.41886E+3   3.18730E+3
  -2.00943E+3   5.18306E+3
  -6.13661E+3   1.58849E+3
  -5.05183E+3  -1.23497E+3
  -1.56943E+3  -1.46526E+3
   1.50170E+3  -3.38340E+3
   3.57880E+3   9.57791E+2
   3.97738E+2   3.43274E+3
  -1.03230E+3  -2.69536E+2
   1.64106E+3  -1.62439E+3
   1.14782E+3  -2.63908E+2
   1.74936E+3   5.08370E+3
  -1.47452E+3   8.60593E+2
   5.82034E+2   8.89079E+1
  -5.75181E+2  -1.65125E+3
  -1.68983E+2  -2.61035E+2
   1.54328E+3  -3.45089E+2
  -1.35274E+3  -6.25430E+2
  -9.96841E+2  -2.99098E+3
   2.75115E+3   7.44567E+2
  -2.43979E+2   5.01266E+2
  -4.50430E+2  -6.26251E+0
   2.62657E+3  -1.22952E+3
   3.51259E+3  -2.15881E+3
   2.38652E+3   1.69382E+3
   8.03764E+2   8.96151E+2
   2.86559E+3   9.27009E+2
   2.06516E+3   4.52958E+2
   1.99622E+3   1.71611E+3
  -8.59028E+2   2.74550E+3
  -1.68448E+3   2.08494E+3
  -2.57895E+2  -3.03234E+3
   7.70434E+2  -1.90285E+3
   2.84040E+3  -2.58423E+2
  -2.29804E+2   6.14661E+2
  -1.04952E+2  -1.38267E+3
   9.08039E+2   5.81257E+2
   2.35956E+3   2.86139E+3
  -1.18818E+3   2.48445E+3
  -4.41615E+3   3.54343E+1
  -2.15314E+1  -3.14547E+3
   1.88196E+3  -6.62481E+1
   1.03964E+3   8.03647E+2
  -1.81900E+3   1.08497E+3
  -3.34792E+3   3.98193E+2
   2.03038E+2  -3.26494E+3
   1.38103E+3  -9.78088E+2
   3.17043E+3  -8.08023E+2
  -3.75010E+2   2.54453E+3
   2.13228E+2  -1.47979E+3
   5.69189E+2  -1.00202E+3
   1.15893E+3   3.74007E+3
  -1.49225E+3   1.78839E+3
  -2.75949E+3  -1.74743E+3
  -4.77149E+2  -2.77418E+3
   1.40270E+3  -1.84999E+3
   2.25281E+3  -1.00133E+3
  -3.31584E+2   1.10380E+2
   1.74665E+3   1.26638E+3
   1.05486E+2   1.18760E+3
  -4.55215E+2   1.22868E+3
  -4.37527E+3  -3.44777E+2
  -1.99785E+3   3.44096E+3
  -9.19486E+2  -1.56604E+3
   4.20757E+2   1.43720E+3
  -2.25401E+3   2.63428E+3
  -3.80054E+3   1.76326E+2
  -2.16124E+3   2.10343E+2
  -1.06090E+3  -1.50514E+3
  -1.58063E+3   1.75917E+2
  -3.68144E+3  -1.39435E+2
  -1.35726E+3  -2.66422E+3
   9.39906E+2  -1.12990E+3
   9.19355E+1   4.80463E+2
  -8.95159E+2   1.58060E+3
  -2.09427E+3   9.93687E+2
  -9.03494E+2  -2.26935E+3
   3.28360E+3  -1.30627E+3
   1.28537E+3   2.54752E+3
  -5.58779E+2   3.41115E+3
  -3.43598E+3   1.97079E+3
  -1.24226E+3  -3.72556E+2
  -1.81566E+3  -9.48764E+1
  -4.08097E+2  -5.67993E+2
  -1.59232E+3  -1.74053E+2
  -1.73955E+3  -1.85232E+3
   2.07117E+2  -3.33065E+2
   3.68373E+2  -6.30722E+2
   8.25662E+2   1.00558E+3
  -1.13360E+3   7.75046E+2
  -5.48770E+1   1.81896E+2
   8.57222E+2  -5.57588E+1
  -2.34810E+2  -2.08076E+3
   2.04323E+2   2.19695E+3
  -2.94652E+2   1.29601E+3
  -1.01959E+3   1.23760E+3
  -3.25196E+3   1.20143E+3
  -1.32482E+3  -1.90031E+2
  -1.09034E+3  -7.81023E+2
   1.63208E+3  -2.55683E+3
   9.12411E+2   1.10124E+3
  -2.02503E+2  -4.59331E+2
  -5.38833E+2   1.66303E+3
  -5.56640E+2   9.48243E+2
   8.07844E+2   6.15030E+2
   1.38021E+3  -1.78906E+2
  -1.15750E+3   1.89261E+2
   1.00171E+2  -1.48461E+3
   6.33095E+2  -1.50971E+3
   1.58607E+3   8.93461E+2
  -3.05954E+3   1.28751E+3
  -3.02109E+3  -1.94569E+3
   2.95779E+2  -1.11939E+3
   2.64554E+3  -3.39503E+2
   5.32423E+1   5.57558E+1
   4.27754E+2   1.22658E+3
  -2.34444E+2   6.53800E+2
  -3.87735E+0   1.17397E+3
  -1.16293E+3   1.17933E+3
  -2.60432E+3   1.45788E+3
  -1.83895E+3  -1.44490E+3
   3.14195E+2  -3.20064E+3
   1.81091E+3  -6.73949E+2
   2.70351E+2   1.09718E+2
  -1.01069E+3  -8.42094E+2
   3.38395E+2  -1.42517E+3
   1.99061E+3  -1.50670E+3
  -2.22267E+2  -2.13907E+3
   1.10014E+2  -1.03101E+3
  -1.11686E+3  -2.11841E+3
   1.25915E+3   4.63233E+2
   3.55718E+2   1.44814E+3
   3.76603E+2   2.32018E+3
  -2.44929E+3   1.10129E+2
  -5.50186E+2  -1.47718E+3
   1.61613E+3   5.66148E+2
   1.19580E+3   6.98902E+2
   9.14919E+2  -8.11094E+1
  -1.19470E+3  -6.37440E+2
  -5.41760E+2   5.05185E+2
  -1.19464E+3   3.28964E+2
   8.64393E+1   8.03911E+2
  -2.74905E+2  -9.05748E+2
   6.96631E+2  -1.21311E+3
   6.54602E+2   5.52562E+2
   2.06568E+3   2.43049E+3
  -1.87867E+3   1.71075E+3
  -1.35485E+3   9.02591E+2
  -2.60579E+2  -2.92206E+3
   8.35849E+2   4.94082E+2
   5.71569E+2   1.16344E+3
  -1.69106E+3   1.07600E+3
  -5.47966E+2  -2.98433E+3
   1.39998E+3  -1.03222E+3
  -1.94001E+2   5.38107E+2
   8.41130E+2  -4.61772E+2
  -9.19280E+2  -1.24644E+3
  -1.42379E+2  -1.52863E+3
   8.66155E+1   4.13936E+2
  -3.97772E+2   6.83049E+2
  -1.33686E+3   5.65517E+2
  -2.00248E+3   9.80270E+2
  -4.61178E+2  -6.90906E+1
   1.09902E+3  -1.44663E+3
  -1.42118E+3  -2.24564E+3
   1.92488E+2  -4.31533E+1
   3.13546E+3  -3.49283E+2
  -9.64844E+2  -7.48248E+2
  -1.59052E+2   1.02151E+2
  -2.19499E+3   5.66627E+2
   8.79224E+2  -9.17137E+2
   2.42485E+3   1.81312E+2
   2.40747E+3  -6.19087E+2
  -1.16017E+2  -3.91894E+2
  -1.44500E+2   3.94123E+2
   1.06062E+3  -5.36712E+2
  -1.74116E+2   1.93375E+3
  -8.88349E+2   7.04227E+2
  -1.21603E+3  -5.15583E+2
   2.15963E+3  -9.63714E+2
   1.17501E+3   6.57871E+2
   2.32702E+3   8.69068E+2
  -1.09497E+3   1.09173E+3
  -5.57634E+2  -4.41928E+2
   7.05451E+1  -3.24370E+3
  -1.61214E+2  -4.10417E+2
   1.11871E+3   1.50634E+2
   4.06439E+2  -1.15750E+3
   1.66940E+3  -1.41032E+3
  -1.44799E+3  -1.47352E+3
  -5.06558E+2   1.38153E+2
   2.14983E+2   1.75998E+3
  -4.97276E+2  -1.65907E+3
   2.17708E+3  -1.32752E+3
   3.57119E+3   3.86667E+1
  -3.68609E+2   6.06917E+2
   1.57510E+3   1.01688E+3
   2.56915E+2  -8.09241E+2
   5.00555E+2  -5.96003E+2
   7.67955E+2  -8.16671E+2
  -8.32199E+2  -6.47348E+1
  -9.01904E+2  -2.14027E+3
   4.09926E+2  -1.11375E+3
   1.08215E+3   1.98620E+3
  -2.49576E+3   3.47448E+2
  -1.30064E+3  -1.82663E+3
  -1.80562E+3   1.39148E+2
  -1.04761E+3  -2.70504E+3
   4.27455E+2  -3.82816E+2
   7.66954E+2   6.81353E+2
  -8.16896E+2   1.83964E+2
   1.12880E+3   5.15412E+2
  -1.25467E+2  -6.98500E+2
  -9.49849E+2  -2.28300E+2
  -2.33090E+3   2.40265E+2
  -1.69669E+3  -1.33608E+3
  -1.65750E+3  -2.41367E+3
  -6.89789E+2  -4.35919E+2
   6.45431E+2  -8.54160E+0
  -3.29306E+2   4.64045E+2
   2.86434E+2  -7.95550E+0
  -8.97694E+2   1.02814E+2
  -3.44356E+2   5.80860E+2
  -1.00046E+2  -6.91012E+2
  -3.25444E+2   2.08805E+2
  -7.55272E+2  -6.53298E+2
   1.03140E+3   6.28563E+2
   1.00738E+3   3.35202E+3
   1.21942E+3   2.14039E+3
   1.24602E+3  -8.00315E+2
   1.68095E+3   4.75236E+1
  -6.81000E+2   7.39798E+2
   3.70744E+2   9.03470E+2
  -3.06468E+3   8.08272E+2
  -8.73584E+2  -5.91572E+2
   3.48322E+1  -7.41132E+2
  -1.84359E+1  -1.11640E+3
  -9.71231E+1   6.55965E+1
   5.96177E+2   3.85686E+2
   2.16339E+3   4.43919E+2
   6.93582E+2   6.89713E+2
   6.10580E+2  -8.92087E+1
  -9.96716E+2   1.96887E+3
   6.28028E+2  -1.32680E+3
  -7.70965E+2   5.49526E+2
  -4.32223E+2  -1.37542E+3
  -8.23485E+1  -2.26334E+3
   2.01835E+3   1.43596E+3
   1.02128E+3   1.78587E+3
  -1.03475E+3  -2.20732E+3
  -1.65955E+3   8.71969E+2
  -7.57108E+2   5.28845E+2
   6.23885E+2  -7.97709E+2
   9.76296E+2   5.19535E+2
   2.91991E+2   1.33598E+3
   1.15194E+3  -2.97238E+2
   1.45140E+3   3.81906E+2
  -4.28846E+2   1.00065E+3
  -4.72826E+2   1.14235E+3
  -4.81499E+2  -1.61978E+2
  -5.96178E+2   8.43566E+2
   3.15615E+2   3.96011E+2
   9.83976E+2  -5.25668E+1
   6.44393E+1  -2.40646E+2
  -1.09642E+3  -4.22036E+2
   1.40173E+2  -6.33393E+2
   1.39482E+2  -1.06166E+2
  -3.96579E+1   1.23425E+3
  -4.86054E+2   8.13837E+2
   1.35898E+3   1.32602E+3
   1.67666E+3   8.52540E+2
   1.49113E+3   6.82269E+1
  -3.25371E+2   9.17393E+2
  -1.95173E+2   1.16794E+3
  -2.02440E+3   1.24061E+2
   7.29700E+2   8.42790E+2
   2.16294E+3   7.00303E+2
  -2.01505E+2  -3.35232E+2
  -2.74973E+2  -5.32365E+2
   1.35045E+3   1.15296E+2
   4.35610E+2   8.65123E+2
  -7.23555E+2  -5.20045E+2
  -3.18356E+2  -9.90623E+2
   9.78987E+2   5.89514E+2
   9.12613E+2   2.62223E+2
  -6.62110E+1  -5.60058E+1
  -3.43546E+2  -1.00739E+3
  -4.91046E+2   1.31356E+2
  -4.12272E+2   2.06935E+2
   2.29013E+2   8.12158E+2
  -1.82133E+3   1.66868E+3
   1.89625E+3   3.48317E+2
   2.68937E+3   7.37589E+2
   7.67013E+2   1.09107E+3
   4.81507E+2  -2.59362E+2
  -1.04689E+3   1.98924E+2
   1.32336E+3  -1.34649E+3
  -6.38100E+2  -4.90739E+2
   2.01140E+3  -2.26296E+2
  -6.45281E+2  -3.87157E+2
   4.62523E+2  -1.92953E+3
  -1.28220E+3   2.30756E+2
  -7.30145E+2   3.68060E+2
  -1.30517E+3  -1.50728E+2
   2.07384E+2   5.22077E+2
  -1.26166E+2  -5.33991E+2
   2.74007E+2   1.39512E+3
   1.44324E+3   2.88164E+2
  -6.48683E+1   4.95691E+2
  -1.70479E+3   7.89457E+2
   7.15661E+2   5.34577E+2
