 
 $NMID
 ID=''
 FMTDAT='(2E13.5)'
 TRAMP=   1.00000E+0
 VOLUME=   1.00000E+0
 $END
  -2.90797E+3   1.85335E+4
  -2.15219E+4   4.36846E+4
  -1.45073E+4   4.59657E+4
  -1.43310E+4   4.19186E+4
  -1.68691E+4   4.27962E+4
  -1.57374E+4   4.29586E+4
  -1.65652E+4   4.06868E+4
  -1.84210E+4   4.05582E+4
  -1.80817E+4   4.04122E+4
  -1.89174E+4   3.88093E+4
  -2.04224E+4   3.84072E+4
  -2.02980E+4   3.80535E+4
  -2.07882E+4   3.69904E+4
  -2.21799E+4   3.65538E+4
  -2.22502E+4   3.61063E+4
  -2.26581E+4   3.49786E+4
  -2.37110E+4   3.46087E+4
  -2.37866E+4   3.42010E+4
  -2.41600E+4   3.32276E+4
  -2.50645E+4   3.27785E+4
  -2.52165E+4   3.22901E+4
  -2.54769E+4   3.14629E+4
  -2.63765E+4   3.11463E+4
  -2.67763E+4   3.04938E+4
  -2.70412E+4   2.96573E+4
  -2.77193E+4   2.91936E+4
  -2.82624E+4   2.86790E+4
  -2.86694E+4   2.76879E+4
  -2.94162E+4   2.69301E+4
  -2.96636E+4   2.62568E+4
  -2.99723E+4   2.54502E+4
  -3.05428E+4   2.48647E+4
  -3.09688E+4   2.40508E+4
  -3.11838E+4   2.31762E+4
  -3.15155E+4   2.25470E+4
  -3.17357E+4   2.18940E+4
  -3.19419E+4   2.10883E+4
  -3.21356E+4   2.04535E+4
  -3.23162E+4   1.98711E+4
  -3.24639E+4   1.91649E+4
  -3.27346E+4   1.85119E+4
  -3.30169E+4   1.78233E+4
  -3.32078E+4   1.69360E+4
  -3.31659E+4   1.62753E+4
  -3.33251E+4   1.56216E+4
  -3.34087E+4   1.49669E+4
  -3.35334E+4   1.42700E+4
  -3.36345E+4   1.35644E+4
  -3.36648E+4   1.30151E+4
  -3.37581E+4   1.22627E+4
  -3.37681E+4   1.15550E+4
  -3.37872E+4   1.08996E+4
  -3.37515E+4   1.02883E+4
  -3.37902E+4   9.73681E+3
  -3.38281E+4   9.01223E+3
  -3.38630E+4   8.34192E+3
  -3.38766E+4   7.66037E+3
  -3.39102E+4   7.00253E+3
  -3.37834E+4   6.22043E+3
  -3.37460E+4   5.58312E+3
  -3.36783E+4   4.92968E+3
  -3.35914E+4   4.28312E+3
  -3.35608E+4   3.58570E+3
  -3.35413E+4   2.86613E+3
  -3.34229E+4   2.20716E+3
  -3.33421E+4   1.45056E+3
  -3.32084E+4   7.94036E+2
  -3.30957E+4   1.86791E+1
  -3.28551E+4  -7.07404E+2
  -3.27216E+4  -1.43244E+3
  -3.24735E+4  -2.23957E+3
  -3.22585E+4  -2.88755E+3
  -3.19990E+4  -3.58983E+3
  -3.16923E+4  -4.38732E+3
  -3.13577E+4  -4.96530E+3
  -3.11372E+4  -5.65697E+3
  -3.08377E+4  -6.30998E+3
  -3.03569E+4  -7.06337E+3
  -3.00278E+4  -7.68153E+3
  -2.96543E+4  -8.32504E+3
  -2.92543E+4  -8.97608E+3
  -2.87794E+4  -9.60576E+3
  -2.83381E+4  -1.02247E+4
  -2.78865E+4  -1.08550E+4
  -2.73819E+4  -1.15405E+4
  -2.68898E+4  -1.20939E+4
  -2.63462E+4  -1.27471E+4
  -2.57128E+4  -1.31641E+4
  -2.52041E+4  -1.37397E+4
  -2.47699E+4  -1.41930E+4
  -2.41424E+4  -1.47184E+4
  -2.35036E+4  -1.51862E+4
  -2.30557E+4  -1.56249E+4
  -2.23157E+4  -1.60612E+4
  -2.17472E+4  -1.64896E+4
  -2.11323E+4  -1.68661E+4
  -2.05066E+4  -1.71728E+4
  -1.99075E+4  -1.74979E+4
  -1.92704E+4  -1.79538E+4
  -1.86395E+4  -1.81974E+4
  -1.79160E+4  -1.84872E+4
  -1.72814E+4  -1.86872E+4
  -1.67735E+4  -1.89774E+4
  -1.60819E+4  -1.91909E+4
  -1.53628E+4  -1.93655E+4
  -1.47509E+4  -1.95564E+4
  -1.41213E+4  -1.97024E+4
  -1.34948E+4  -1.98421E+4
  -1.27868E+4  -1.99551E+4
  -1.21387E+4  -1.99922E+4
  -1.15427E+4  -2.01010E+4
  -1.09988E+4  -2.01179E+4
  -1.03802E+4  -2.01545E+4
  -9.82793E+3  -2.01481E+4
  -9.20094E+3  -2.01139E+4
  -8.64570E+3  -2.01708E+4
  -8.07876E+3  -2.00338E+4
  -7.50544E+3  -1.99553E+4
  -6.94008E+3  -1.99519E+4
  -6.47848E+3  -1.98410E+4
  -5.95957E+3  -1.96807E+4
  -5.46118E+3  -1.95823E+4
  -4.93974E+3  -1.93973E+4
  -4.50658E+3  -1.92544E+4
  -4.08069E+3  -1.91047E+4
  -3.54996E+3  -1.89349E+4
  -3.19466E+3  -1.87534E+4
  -2.78456E+3  -1.85625E+4
  -2.31527E+3  -1.83519E+4
  -1.99264E+3  -1.81936E+4
  -1.62923E+3  -1.79567E+4
  -1.25162E+3  -1.77074E+4
  -9.73411E+2  -1.75330E+4
  -5.89247E+2  -1.72751E+4
  -3.11731E+2  -1.70859E+4
   1.12307E+1  -1.69289E+4
   3.16842E+2  -1.66996E+4
   4.99911E+2  -1.63605E+4
   7.72403E+2  -1.61274E+4
   1.01727E+3  -1.58958E+4
   1.34079E+3  -1.56404E+4
   1.52875E+3  -1.54236E+4
   1.68815E+3  -1.51075E+4
   1.87339E+3  -1.50026E+4
   2.13675E+3  -1.47593E+4
   2.29783E+3  -1.44952E+4
   2.44286E+3  -1.42813E+4
   2.57635E+3  -1.39828E+4
   2.76782E+3  -1.37874E+4
   2.92012E+3  -1.36001E+4
   3.03172E+3  -1.34160E+4
   3.15499E+3  -1.31535E+4
   3.25126E+3  -1.29343E+4
   3.36334E+3  -1.26532E+4
   3.40416E+3  -1.24341E+4
   3.55732E+3  -1.22486E+4
   3.68397E+3  -1.20646E+4
   3.79803E+3  -1.18525E+4
   3.94476E+3  -1.16681E+4
   3.95530E+3  -1.14470E+4
   4.04182E+3  -1.12468E+4
   4.04915E+3  -1.10605E+4
   4.21355E+3  -1.08286E+4
   4.14014E+3  -1.06472E+4
   4.29810E+3  -1.05206E+4
   4.27907E+3  -1.03235E+4
   4.31834E+3  -1.01166E+4
   4.33785E+3  -9.88925E+3
   4.38990E+3  -9.71720E+3
   4.36516E+3  -9.54684E+3
   4.40186E+3  -9.40653E+3
   4.43677E+3  -9.22229E+3
   4.44812E+3  -9.05777E+3
   4.36435E+3  -8.88620E+3
   4.43354E+3  -8.70620E+3
   4.45830E+3  -8.55989E+3
   4.40847E+3  -8.37156E+3
   4.42989E+3  -8.29739E+3
   4.46719E+3  -8.10037E+3
   4.39667E+3  -8.05527E+3
   4.35554E+3  -7.79673E+3
   4.41950E+3  -7.62620E+3
   4.32914E+3  -7.52847E+3
   4.31807E+3  -7.39830E+3
   4.28604E+3  -7.24489E+3
   4.31903E+3  -7.21080E+3
   4.32835E+3  -7.00974E+3
   4.21721E+3  -6.88473E+3
   4.19660E+3  -6.76873E+3
   4.17041E+3  -6.60527E+3
   4.16640E+3  -6.46331E+3
   4.12004E+3  -6.37267E+3
   4.08123E+3  -6.32495E+3
   4.07188E+3  -6.15779E+3
   4.00389E+3  -5.94480E+3
   3.97825E+3  -5.99853E+3
   3.90206E+3  -5.82743E+3
   3.81619E+3  -5.72441E+3
   3.84815E+3  -5.58790E+3
   3.77522E+3  -5.49744E+3
   3.74192E+3  -5.45518E+3
   3.71494E+3  -5.32131E+3
   3.67308E+3  -5.17220E+3
   3.61298E+3  -5.15288E+3
   3.57654E+3  -5.07808E+3
   3.52257E+3  -4.96031E+3
   3.51517E+3  -4.93102E+3
   3.42353E+3  -4.83254E+3
   3.41324E+3  -4.74953E+3
   3.33419E+3  -4.59994E+3
   3.28304E+3  -4.53883E+3
   3.20558E+3  -4.48011E+3
   3.11322E+3  -4.47910E+3
   3.12928E+3  -4.33128E+3
   3.03380E+3  -4.22683E+3
   2.99346E+3  -4.14991E+3
   2.91243E+3  -4.08688E+3
   2.81679E+3  -4.03286E+3
   2.80712E+3  -3.97589E+3
   2.73818E+3  -3.89661E+3
   2.73772E+3  -3.83118E+3
   2.58730E+3  -3.82035E+3
   2.59785E+3  -3.75265E+3
   2.50518E+3  -3.69153E+3
   2.47355E+3  -3.67097E+3
   2.42084E+3  -3.58940E+3
   2.33120E+3  -3.53971E+3
   2.28143E+3  -3.45502E+3
   2.31463E+3  -3.47927E+3
   2.15545E+3  -3.47953E+3
   2.15849E+3  -3.39217E+3
   2.13738E+3  -3.27553E+3
   2.07331E+3  -3.29781E+3
   2.07073E+3  -3.19129E+3
   2.03878E+3  -3.07067E+3
   1.96158E+3  -3.08455E+3
   1.88785E+3  -3.02899E+3
   1.85678E+3  -3.05167E+3
   1.76944E+3  -3.05041E+3
   1.68730E+3  -2.94195E+3
   1.63597E+3  -2.86636E+3
   1.61731E+3  -2.90014E+3
   1.62410E+3  -2.90445E+3
   1.51796E+3  -2.81790E+3
   1.53091E+3  -2.69742E+3
   1.48648E+3  -2.73696E+3
   1.47795E+3  -2.66563E+3
   1.40491E+3  -2.70273E+3
   1.38168E+3  -2.65186E+3
   1.31291E+3  -2.64259E+3
   1.25779E+3  -2.51066E+3
   1.21377E+3  -2.43570E+3
   1.16820E+3  -2.45544E+3
   1.16316E+3  -2.42252E+3
   1.04814E+3  -2.39381E+3
   1.13453E+3  -2.35770E+3
   1.07288E+3  -2.30335E+3
   1.01317E+3  -2.25851E+3
   9.07155E+2  -2.25416E+3
   9.39557E+2  -2.17005E+3
   8.90415E+2  -2.22012E+3
   8.21945E+2  -2.21992E+3
   8.95487E+2  -2.11883E+3
   7.69476E+2  -2.04839E+3
   7.10100E+2  -2.07097E+3
   7.95865E+2  -2.05263E+3
   6.61941E+2  -2.01193E+3
   6.52764E+2  -1.95520E+3
   6.39654E+2  -1.93739E+3
   6.25157E+2  -1.88368E+3
   5.64273E+2  -1.85007E+3
   4.96400E+2  -1.82728E+3
   5.00446E+2  -1.79655E+3
   5.80417E+2  -1.76107E+3
   4.21864E+2  -1.76477E+3
   4.65590E+2  -1.77847E+3
   5.19845E+2  -1.67488E+3
   4.21983E+2  -1.66440E+3
   3.99116E+2  -1.64412E+3
   3.69175E+2  -1.64431E+3
   3.35452E+2  -1.66146E+3
   3.02385E+2  -1.60640E+3
   3.46868E+2  -1.56298E+3
   2.48607E+2  -1.47680E+3
   2.65299E+2  -1.52157E+3
   2.67639E+2  -1.52562E+3
   2.09753E+2  -1.46466E+3
   2.36954E+2  -1.40933E+3
   2.16174E+2  -1.43394E+3
   1.43701E+2  -1.35649E+3
   1.55692E+2  -1.38810E+3
   2.09956E+2  -1.34051E+3
   2.18970E+2  -1.28870E+3
   1.83954E+2  -1.33427E+3
   1.40751E+2  -1.21641E+3
   1.46121E+2  -1.24501E+3
   9.71093E+1  -1.17441E+3
   9.89268E+1  -1.21316E+3
   1.05294E+2  -1.19748E+3
   1.15339E+2  -1.20519E+3
   4.09031E+1  -1.15413E+3
   3.98188E+0  -1.13631E+3
   3.37981E+1  -1.10954E+3
   9.64787E+1  -1.11849E+3
   8.45588E+1  -1.01914E+3
   4.78028E+1  -1.03938E+3
   1.76739E+1  -1.04661E+3
   8.92260E+0  -9.87907E+2
  -3.60507E+1  -9.19820E+2
  -8.03822E+1  -1.01730E+3
  -4.53006E+1  -9.90944E+2
  -4.69018E+1  -9.52238E+2
  -1.89551E+1  -8.52027E+2
  -2.80705E+1  -8.73938E+2
  -1.86936E+1  -8.61362E+2
  -6.22830E+1  -8.70181E+2
  -1.03178E+2  -8.26372E+2
  -3.05582E+1  -8.16753E+2
  -7.00002E+1  -7.67159E+2
  -1.03419E+2  -8.07603E+2
  -7.82946E+0  -7.98411E+2
  -6.09805E+1  -7.37890E+2
  -8.88972E+1  -6.89847E+2
  -7.95661E+1  -6.87476E+2
  -1.07035E+2  -6.81450E+2
  -4.93031E+1  -6.96919E+2
  -1.29299E+2  -6.69963E+2
  -7.19647E+1  -6.09918E+2
  -1.11378E+2  -5.72833E+2
  -1.14031E+2  -6.07293E+2
  -1.34082E+2  -5.52645E+2
  -2.16085E+2  -6.13887E+2
  -1.42741E+2  -5.17042E+2
  -1.66157E+2  -4.40181E+2
  -1.60977E+2  -4.60581E+2
  -1.01105E+2  -5.03967E+2
  -1.75331E+2  -4.22060E+2
  -1.55450E+2  -4.02729E+2
  -2.24177E+2  -3.77884E+2
  -1.52255E+2  -4.02334E+2
  -1.57618E+2  -3.84384E+2
  -1.88251E+2  -4.12025E+2
  -2.27222E+2  -3.35742E+2
  -2.56807E+2  -3.84313E+2
  -2.23918E+2  -3.22552E+2
  -2.70670E+2  -3.86996E+2
  -2.26473E+2  -3.59142E+2
  -2.64282E+2  -3.56177E+2
  -2.18751E+2  -3.07472E+2
  -3.00299E+2  -3.22255E+2
  -2.59863E+2  -3.21974E+2
  -2.26898E+2  -2.52660E+2
  -2.98852E+2  -2.78175E+2
  -2.80841E+2  -2.26068E+2
  -3.29004E+2  -2.27479E+2
  -2.39200E+2  -2.09148E+2
  -2.64439E+2  -2.54181E+2
  -2.59611E+2  -2.06676E+2
  -3.30265E+2  -2.99326E+2
  -2.75997E+2  -1.77819E+2
  -2.94853E+2  -2.06019E+2
  -2.96617E+2  -2.27686E+2
  -3.25220E+2  -2.21276E+2
  -2.73157E+2  -1.97875E+2
  -2.46558E+2  -2.06393E+2
  -2.97108E+2  -2.13085E+2
  -3.16261E+2  -2.20398E+2
