 
 $NMID
 ID=''
 FMTDAT='(2E13.5)'
 TRAMP=   1.00000E+0
 VOLUME=   1.00000E+0
 $END
   5.80638E+2  -9.10387E+1
  -1.05401E+3   2.18607E+3
   3.47788E+3  -4.17417E+3
  -1.82515E+3  -1.19671E+2
  -1.50647E+3   2.73600E+3
   2.58415E+3   2.01800E+3
   9.02201E+2   2.81539E+3
  -1.73493E+2   3.03150E+2
   2.76614E+3  -2.52155E+3
   2.75869E+3  -2.04126E+3
   4.66708E+3  -5.86913E+2
   3.78507E+3   2.24459E+3
   1.45713E+3   3.02699E+3
  -1.25895E+3  -1.17502E+2
   1.22705E+3  -3.86681E+3
   3.18676E+3  -2.87456E+3
   4.20685E+3  -9.59269E+2
   1.69384E+3  -9.64166E+2
  -5.64903E+2  -1.44601E+3
  -2.86662E+2  -2.47438E+3
   6.40166E+2  -2.00998E+3
   8.19357E+2   3.79495E+3
  -6.63024E+3   1.44093E+3
   7.03821E+1  -4.04606E+3
   3.27159E+3  -9.05880E+2
  -1.10192E+3   3.43550E+3
  -5.46738E+3   1.37792E+3
  -1.67093E+3  -3.69885E+3
   1.31089E+3  -2.70013E+3
   4.12747E+3  -1.53407E+2
   1.09268E+3   6.07698E+3
  -4.80038E+3   6.16039E+3
  -2.93621E+3  -4.15212E+2
   1.68455E+3  -1.62565E+3
   5.16977E+2  -2.11674E+3
  -1.44021E+3  -4.98292E+3
   2.50316E+3  -4.18798E+3
   4.44714E+3   9.36907E+2
   5.91465E+2   1.38523E+3
   7.04301E+1   1.74845E+3
  -5.11421E+3   1.61443E+3
  -6.17419E+3  -3.67843E+3
  -1.56081E+3  -7.66083E+3
   5.23436E+3  -3.52240E+3
   2.29401E+3   1.28072E+3
   2.19886E+2   6.26304E+2
   1.49845E+3   1.08596E+3
  -2.15141E+3   1.39827E+3
  -2.65711E+3   1.39480E+3
  -6.93579E+2  -4.28073E+2
  -3.41895E+3  -6.40594E+2
  -1.26332E+3  -3.64578E+3
   2.33822E+3   9.72942E+2
  -8.24715E+2   5.81430E+3
  -3.34562E+3   2.40102E+3
  -3.94866E+3   1.59634E+3
  -5.15275E+3   1.27235E+3
  -4.99826E+3  -3.13991E+3
  -1.38318E+2  -5.58943E+3
   3.95434E+3  -3.16711E+3
   6.65670E+3  -9.24859E+2
   2.81864E+3   2.64527E+3
   2.15960E+3   2.82927E+3
   1.42943E+2  -7.04248E+2
   1.60747E+3  -3.03779E+3
   2.63223E+3   2.37322E+3
   2.19791E+2   2.99871E+3
  -1.82480E+3   2.14232E+3
   2.04302E+2   9.96184E+2
   6.34555E+2  -1.30841E+3
   3.88801E+2   2.64724E+3
  -1.27483E+3   6.41794E+2
  -2.86034E+2   1.96535E+3
   4.78245E+2   5.59958E+2
   2.44476E+3   1.25670E+3
   1.38509E+3   2.59022E+3
   8.47030E+2  -1.42489E+3
   3.07111E+3  -3.00672E+3
   2.66148E+3  -3.96925E+2
  -1.55423E+3   3.90717E+3
  -1.27560E+3   2.34454E+3
  -3.92609E+2  -1.40897E+3
   2.46243E+2   4.33701E+3
  -1.74228E+3   2.34790E+3
  -2.22198E+3   5.88047E+2
  -4.75906E+3  -2.69151E+3
  -2.97690E+2  -5.95575E+3
   2.40096E+3  -3.57522E+3
   2.83853E+3   1.09063E+3
   1.28548E+2   1.16097E+3
   6.43027E+2  -5.38593E+2
   5.01089E+2  -5.47467E+2
  -5.19889E+2   6.44834E+2
  -3.44264E+3  -6.59291E+2
  -1.22858E+3  -3.75619E+3
   1.36300E+3  -1.75898E+3
   3.47794E+3   9.64751E+2
   2.42600E+3   1.57227E+3
  -2.44165E+3   2.90656E+3
  -2.15986E+3  -1.53434E+3
   4.23931E+3  -1.48270E+3
   2.94601E+3   2.28582E+3
   1.82992E+3   4.64944E+3
  -3.04365E+3   3.16873E+3
  -1.86049E+3   2.74540E+2
  -8.42223E+2  -2.77426E+1
  -1.23366E+3  -8.53308E+2
  -3.90003E+3  -1.29279E+3
  -2.28936E+2  -2.29000E+3
   2.02468E+3  -3.31461E+3
   4.83342E+3   8.61479E+2
   3.62596E+3   2.61116E+3
   4.02236E+2   2.70355E+3
  -2.75475E+3   2.04781E+3
  -1.61597E+3   1.21104E+3
  -2.43860E+3   1.33969E+3
  -2.19388E+3  -1.11888E+3
   3.03537E+2  -2.64839E+3
   5.50132E+2  -1.18400E+3
   4.38033E+2   3.73654E+2
  -2.33359E+2   2.27846E+3
  -2.56822E+3   6.44884E+2
  -8.07787E+2  -6.68692E+2
   1.98591E+3   6.13525E+1
  -7.40417E+2   2.43473E+3
  -1.27670E+3  -2.54603E+3
   3.72456E+2  -4.69713E+2
   1.19223E+3   2.89086E+3
  -8.58457E+2   1.88262E+3
  -9.22765E+2   3.97685E+2
  -1.66747E+2  -5.75203E+2
   1.68444E+3   9.92042E+2
   1.48619E+3   1.57754E+3
   2.21802E+3   1.09745E+3
  -3.41251E+3   1.13932E+3
  -2.84407E+3  -1.46618E+3
   7.35012E+2  -1.85311E+3
   7.86710E+2  -1.01056E+3
   1.86746E+3  -7.64036E+2
  -1.33110E+3  -7.86706E+2
   5.14971E+2  -1.86189E+3
   7.49069E+2  -5.38341E+2
  -1.28681E+3   8.97809E+2
  -3.03849E+2  -7.35184E+2
  -8.94469E+2  -4.31889E+2
  -5.17341E+2   1.40483E+3
  -1.70729E+3  -4.17793E+2
  -1.23055E+3   7.95501E+2
  -4.17575E+2  -9.08594E+2
  -1.70176E+3   3.62828E+2
  -1.65371E+3   4.50458E+2
  -1.11142E+3  -3.70094E+3
  -2.82322E+2  -2.43072E+3
   1.76358E+3  -2.04106E+3
   1.98241E+3  -9.99869E+2
   2.43513E+3   9.04468E+2
   1.27252E+3   9.10162E+2
  -5.33333E+2  -1.00360E+3
   1.82669E+3   7.11318E+2
  -1.54860E+3  -7.80414E+2
   7.52831E+2   3.29723E+2
  -3.34147E+2  -1.64879E+3
   1.15701E+3  -1.58381E+2
   2.43781E+3   1.71834E+3
   3.12958E+2   1.58837E+3
  -2.32116E+3   5.33890E+2
  -9.73037E+2  -1.84975E+3
   2.14075E+3  -1.49669E+3
  -6.82719E+2   1.32358E+3
  -2.68687E+3  -1.11083E+2
  -1.46596E+3   1.13801E+3
  -6.76729E+2  -7.65167E+2
  -1.15433E+3   3.08586E+2
  -3.28476E+2   1.25482E+2
  -6.22211E+0  -8.88582E+2
   1.08751E+3  -1.44263E+3
   2.58236E+3   1.30540E+3
  -5.01754E+1   1.43675E+3
   4.31369E+1   3.65680E+3
  -1.24505E+3   6.75805E+2
  -9.50798E+2  -2.92660E+3
   8.39145E+2   6.32137E+2
   1.03673E+2  -4.87061E+2
   7.48358E+2   1.71316E+3
   2.22694E+3   4.53920E+2
   7.07933E+2  -5.24047E+1
   7.58946E+2   1.42524E+3
  -1.07652E+3   1.31286E+3
  -1.88553E+1  -1.83221E+3
   2.67228E+2   1.42274E+1
   3.04522E+3  -1.11066E+3
  -2.02844E+3  -3.24232E+2
   7.03233E+2  -1.87338E+3
  -2.35566E+3  -7.52494E+2
   9.91316E+2   5.13994E+2
   1.16678E+3   2.13421E+3
   2.79413E+2  -1.71713E+3
   9.95134E+2   3.09635E+2
  -1.11123E+2   1.27580E+3
  -1.56623E+3   1.91746E+3
  -3.58290E+3   1.72230E+3
  -1.80134E+3  -2.26750E+3
  -2.35301E+3  -3.11198E+3
   2.84446E+3  -6.36697E+2
   3.10812E+3   5.49850E+2
   5.83265E+2   6.40030E+2
  -1.79917E+3  -1.15817E+3
   3.84204E+2  -3.26615E+2
  -3.32117E+2  -2.16006E+2
  -2.25527E+3  -9.08653E+2
  -4.84853E+2  -3.54374E+3
  -7.05096E+2  -1.93862E+3
   1.48695E+3  -2.07992E+3
   1.28966E+3  -6.00969E+2
   2.38779E+2   2.82623E+3
  -7.84008E+2   8.64619E+2
   3.90245E+2  -1.09685E+3
  -1.17355E+3  -9.53737E+2
   1.43864E+2  -2.34488E+3
  -4.80051E-1  -5.88486E+2
  -9.28818E+2  -3.23520E+3
   2.12448E+3  -1.33327E+3
   8.53375E+2   2.01097E+3
   5.50704E+2  -1.62394E+3
  -4.17258E+2   1.54673E+1
   1.82668E+3  -9.26301E+2
   1.33382E+3   5.69864E+2
  -8.93730E+2  -5.70619E+2
  -5.52556E+2   2.87756E+3
  -1.72995E+2  -2.50420E+3
   5.03563E+1  -1.23506E+3
  -1.63192E+3  -6.61432E+2
  -1.15343E+3   1.44056E+1
   1.77699E+3  -2.67095E+3
   2.70678E+3  -1.71726E+2
   2.81637E+3   1.59889E+3
  -3.62369E+2   9.62964E+2
  -1.06845E+3   1.54932E+2
   5.38875E+1  -1.54569E+3
   1.59263E+3  -7.48973E+2
   8.77301E+2   1.29338E+3
  -1.05081E+3   9.70421E+2
   1.30979E+3  -7.91664E+2
  -8.19894E+2  -6.71422E+2
   4.65422E+2  -1.03002E+3
  -1.79767E+2   6.24850E+2
  -1.38964E+2  -2.40397E+2
   1.22454E+3  -7.67108E+2
   1.07375E+3   2.41017E+3
   2.61924E+3   2.64211E+3
   7.90826E+1   2.48018E+3
  -1.86981E+3  -1.50446E+2
   7.33441E+2  -8.82179E+2
  -1.28433E+3  -1.46164E+3
   1.26500E+3  -1.79999E+3
  -9.04991E+2   7.59609E+2
   8.59228E+1   5.15825E+2
   3.61652E+2   1.90796E+3
  -1.76271E+3   3.09149E+2
  -1.99782E+3  -7.29706E+2
  -3.27861E+3   2.98764E+1
   8.89059E+2  -8.46598E+2
   1.73637E+3  -5.51448E+2
   4.95313E+2   1.52126E+3
  -1.80610E+3  -2.63726E+2
   4.22058E+2  -7.89989E+2
   9.86165E+2   4.40110E+2
  -1.94729E+3   3.47243E+2
  -1.05247E+2  -4.12887E+2
   4.63029E+2  -2.02420E+3
   1.83737E+3  -8.73258E+2
   3.94533E+2   3.06342E+3
   3.94725E+2   2.84536E+3
  -1.10489E+3   3.93689E+2
  -1.45363E+3  -1.32820E+2
  -8.88869E+2  -8.31066E+1
   2.83165E+1  -1.78946E+3
   5.09554E+2   1.20718E+3
  -4.92231E+2   1.89574E+2
   5.14132E+2  -2.82202E+1
   1.13192E+3   1.72839E+3
  -3.47073E+3   5.85736E+2
  -1.55973E+3  -4.06805E+2
   7.53572E+1   1.18129E+1
   1.71483E+3   4.55052E+2
  -2.29228E+2   8.94688E+2
   2.96917E+2   1.61751E+3
  -5.35286E+2  -1.74595E+3
   8.99847E+2  -6.13581E+2
  -1.90801E+2  -1.54850E+2
   1.76191E+3   3.06963E+2
  -1.00740E+3  -1.46543E+1
   6.65473E+2  -6.96486E+2
  -1.07658E+3  -1.04793E+3
  -6.70723E+0   1.00421E+3
  -2.68968E+3   1.43767E+3
   3.37691E+2  -6.17703E+2
   6.72537E+2  -3.09413E+2
   1.34750E+3   4.36622E+2
  -7.71091E+2  -5.35857E+2
   5.49203E+2  -3.07383E+2
   1.18406E+3   3.35578E+2
  -6.56593E+2   3.24391E+2
  -2.17209E+3   4.95383E+2
  -7.75355E+2  -8.90811E+2
   3.92137E+1   3.41127E+2
   2.31234E+3  -1.11897E+3
   1.01691E+3   1.42046E+3
  -1.51520E+3   1.27013E+3
  -9.69181E+2   8.73887E+2
  -6.93005E+1  -1.71117E+3
  -7.34497E+2   1.12190E+3
   2.37536E+3   3.96089E+1
  -6.24969E+1  -1.22175E+2
  -1.12667E+3  -7.34317E+2
  -3.20405E+2   1.20738E+3
  -7.35401E+1   1.88433E+3
  -2.20528E+3   1.15270E+3
   1.35710E+3  -1.26157E+3
   1.92553E+2  -2.20915E+3
   1.38551E+3  -1.50858E+3
   2.43121E+3   8.94145E+2
   8.12712E+2   1.29495E+3
  -3.25622E+1  -8.44344E+2
   1.88093E+3   1.14766E+3
  -1.18544E+3  -1.63115E+2
  -1.62410E+3  -9.59660E+2
   1.19968E+2   5.08137E+2
   3.75359E+3   1.82733E+2
   9.26513E+2   5.71022E+1
  -3.14591E+2   4.42165E+2
  -1.93371E+2   9.45845E+2
   9.59659E+2   1.43231E+3
  -1.27741E+3   6.43524E+2
  -6.85547E+2   2.51768E+2
   3.88702E+2  -1.93492E+3
   1.33970E+3   4.40061E+2
  -4.66352E+2  -1.65439E+3
   1.31460E+3   1.27293E+2
  -3.91703E+2   1.02933E+3
  -1.13271E+3  -3.41734E+2
  -5.56638E+2   1.88370E+1
   2.43558E+3   9.04115E+2
   9.59612E+2   1.57601E+3
   1.29324E+2   1.73759E+3
   2.04188E+2  -6.57591E+2
   1.33977E+3   7.49362E+2
   1.42103E+3   2.49123E+2
  -2.59184E+3   1.27975E+3
  -7.73439E+2   1.32031E+3
   1.37095E+3   8.35528E+2
   7.68373E+2  -8.67354E+1
   4.54928E+2   1.86803E+2
   8.12844E+2   5.71343E+2
  -7.25664E+1   1.64787E+3
   3.70157E+2  -9.98991E+2
   1.96539E+3   1.76243E+3
   1.96620E+3   1.14035E+3
  -4.78316E+2   2.31035E+2
   1.61035E+2   3.57169E+1
   4.54701E+2   8.31766E+2
   1.52629E+3  -2.58552E+2
  -8.84379E+2   2.87355E+3
  -1.71308E+3   1.33380E+3
  -8.86638E+2  -1.16936E+2
   1.08499E+3   2.19996E+2
   6.62021E+2   1.26429E+3
