 LCModel (Version 6.3-1N) Copyright: S.W. Provencher.          Ref.: Magn. Reson. Med. 30:672-679 (1993).                
 Slice_N1@15_10  02-Jun-2023 14:37:02
 27 lines in following concentration table = NCONC+1
    Conc.  %SD /Cr+PCr  Metabolite                                         
 1.94E-06  22% 2.1E-04 Mac                                                 
 7.58E-02  13%   8.000 Cr                                                  
    0.000 999%   0.000 PCr                                                 
    0.101  14%  10.626 Ins                                                 
 7.23E-02  15%   7.630 NAA                                                 
 8.54E-02  15%   9.016 Tau                                                 
 9.94E-03  34%   1.049 PCho                                                
    0.000 999%   0.000 GPC                                                 
 5.82E-02  24%   6.137 Glu                                                 
 1.03E-02  89%   1.090 Gln                                                 
 1.93E-02  58%   2.041 Ala                                                 
 5.57E-02  37%   5.878 Asc                                                 
 5.55E-03 139%   0.586 Asp                                                 
 3.51E-03 126%   0.371 GABA                                                
 6.31E-03  77%   0.666 Glc                                                 
 8.08E-03  54%   0.853 GSH                                                 
    0.000 999%   0.000 Lac                                                 
 8.68E-03  98%   0.916 NAAG                                                
    0.000 999%   0.000 PE                                                  
 9.94E-03  34%   1.049 GPC+PCho                                            
 8.10E-02  13%   8.546 NAA+NAAG                                            
 6.85E-02  24%   7.227 Glu+Gln                                             
 7.58E-02  13%   8.000 Cr+PCr                                              
 8.10E-02  13%   8.546 NAA+NAAG                                            
 7.58E-02  13%   8.000 Cr+PCr                                              
 6.85E-02  24%   7.227 Glu+Gln                                             
   6 lines in following misc. output table
  FWHM = 0.047 ppm    S/N =   2                                            
  Data shift = 0.006 ppm                                                   
  Ph: -43 deg      -1.1 deg/ppm                                            
  alphaB,S = 1.6E+01,   6.5E+01                                            
   18 spline knots.   Ns =10(1)                                            
   4 inflections.     1 extrema                                            
  654 points on ppm-axis = NY
      4.000000     3.994181     3.988363     3.982544     3.976726     3.970907     3.965088     3.959270     3.953451     3.947633
      3.941814     3.935995     3.930177     3.924358     3.918540     3.912721     3.906902     3.901084     3.895265     3.889446
      3.883628     3.877809     3.871991     3.866172     3.860353     3.854535     3.848716     3.842898     3.837079     3.831260
      3.825442     3.819623     3.813805     3.807986     3.802167     3.796349     3.790530     3.784712     3.778893     3.773074
      3.767256     3.761437     3.755619     3.749800     3.743981     3.738163     3.732344     3.726526     3.720707     3.714888
      3.709070     3.703251     3.697433     3.691614     3.685795     3.679977     3.674158     3.668339     3.662521     3.656702
      3.650884     3.645065     3.639246     3.633428     3.627609     3.621791     3.615972     3.610153     3.604335     3.598516
      3.592698     3.586879     3.581060     3.575242     3.569423     3.563605     3.557786     3.551967     3.546149     3.540330
      3.534512     3.528693     3.522874     3.517056     3.511237     3.505419     3.499600     3.493781     3.487963     3.482144
      3.476326     3.470507     3.464688     3.458870     3.453051     3.447232     3.441414     3.435595     3.429777     3.423958
      3.418139     3.412321     3.406502     3.400684     3.394865     3.389046     3.383228     3.377409     3.371591     3.365772
      3.359953     3.354135     3.348316     3.342498     3.336679     3.330860     3.325042     3.319223     3.313405     3.307586
      3.301767     3.295949     3.290130     3.284312     3.278493     3.272674     3.266856     3.261037     3.255219     3.249400
      3.243581     3.237763     3.231944     3.226125     3.220307     3.214488     3.208670     3.202851     3.197032     3.191214
      3.185395     3.179577     3.173758     3.167939     3.162121     3.156302     3.150484     3.144665     3.138846     3.133028
      3.127209     3.121391     3.115572     3.109753     3.103935     3.098116     3.092298     3.086479     3.080660     3.074842
      3.069023     3.063205     3.057386     3.051567     3.045749     3.039930     3.034111     3.028293     3.022474     3.016656
      3.010837     3.005018     2.999200     2.993381     2.987563     2.981744     2.975925     2.970107     2.964288     2.958470
      2.952651     2.946832     2.941014     2.935195     2.929377     2.923558     2.917739     2.911921     2.906102     2.900284
      2.894465     2.888646     2.882828     2.877009     2.871191     2.865372     2.859553     2.853735     2.847916     2.842098
      2.836279     2.830460     2.824642     2.818823     2.813004     2.807186     2.801367     2.795549     2.789730     2.783911
      2.778093     2.772274     2.766456     2.760637     2.754818     2.749000     2.743181     2.737363     2.731544     2.725725
      2.719907     2.714088     2.708270     2.702451     2.696632     2.690814     2.684995     2.679177     2.673358     2.667539
      2.661721     2.655902     2.650084     2.644265     2.638446     2.632628     2.626809     2.620991     2.615172     2.609353
      2.603535     2.597716     2.591897     2.586079     2.580260     2.574442     2.568623     2.562804     2.556986     2.551167
      2.545349     2.539530     2.533711     2.527893     2.522074     2.516256     2.510437     2.504618     2.498800     2.492981
      2.487163     2.481344     2.475525     2.469707     2.463888     2.458070     2.452251     2.446432     2.440614     2.434795
      2.428977     2.423158     2.417339     2.411521     2.405702     2.399884     2.394065     2.388246     2.382428     2.376609
      2.370790     2.364972     2.359153     2.353335     2.347516     2.341697     2.335879     2.330060     2.324242     2.318423
      2.312604     2.306786     2.300967     2.295149     2.289330     2.283511     2.277693     2.271874     2.266056     2.260237
      2.254418     2.248600     2.242781     2.236963     2.231144     2.225325     2.219507     2.213688     2.207870     2.202051
      2.196232     2.190414     2.184595     2.178777     2.172958     2.167139     2.161321     2.155502     2.149683     2.143865
      2.138046     2.132228     2.126409     2.120590     2.114772     2.108953     2.103135     2.097316     2.091497     2.085679
      2.079860     2.074042     2.068223     2.062404     2.056586     2.050767     2.044949     2.039130     2.033311     2.027493
      2.021674     2.015856     2.010037     2.004218     1.998400     1.992581     1.986763     1.980944     1.975126     1.969307
      1.963489     1.957670     1.951852     1.946033     1.940215     1.934397     1.928578     1.922760     1.916941     1.911123
      1.905304     1.899486     1.893667     1.887849     1.882030     1.876212     1.870393     1.864575     1.858756     1.852938
      1.847119     1.841301     1.835482     1.829664     1.823845     1.818027     1.812208     1.806390     1.800571     1.794753
      1.788934     1.783116     1.777297     1.771479     1.765660     1.759842     1.754023     1.748205     1.742386     1.736568
      1.730749     1.724931     1.719113     1.713294     1.707476     1.701657     1.695839     1.690020     1.684202     1.678383
      1.672565     1.666746     1.660928     1.655109     1.649291     1.643472     1.637654     1.631835     1.626017     1.620198
      1.614380     1.608561     1.602743     1.596924     1.591106     1.585287     1.579469     1.573650     1.567832     1.562013
      1.556195     1.550376     1.544558     1.538739     1.532921     1.527102     1.521284     1.515465     1.509647     1.503829
      1.498010     1.492192     1.486373     1.480555     1.474736     1.468918     1.463099     1.457281     1.451462     1.445644
      1.439825     1.434007     1.428188     1.422370     1.416551     1.410733     1.404914     1.399096     1.393277     1.387459
      1.381640     1.375822     1.370003     1.364185     1.358366     1.352548     1.346729     1.340911     1.335092     1.329274
      1.323455     1.317637     1.311818     1.306000     1.300182     1.294363     1.288545     1.282726     1.276908     1.271089
      1.265271     1.259452     1.253634     1.247815     1.241997     1.236178     1.230360     1.224541     1.218723     1.212904
      1.207086     1.201267     1.195449     1.189630     1.183812     1.177993     1.172175     1.166356     1.160538     1.154719
      1.148901     1.143082     1.137264     1.131445     1.125627     1.119808     1.113990     1.108171     1.102353     1.096534
      1.090716     1.084898     1.079079     1.073261     1.067442     1.061624     1.055805     1.049987     1.044168     1.038350
      1.032531     1.026713     1.020894     1.015076     1.009257     1.003439     0.997620     0.991802     0.985983     0.980165
      0.974346     0.968528     0.962709     0.956891     0.951072     0.945254     0.939435     0.933617     0.927798     0.921980
      0.916161     0.910343     0.904524     0.898706     0.892887     0.887069     0.881251     0.875432     0.869614     0.863795
      0.857977     0.852158     0.846340     0.840521     0.834703     0.828884     0.823066     0.817247     0.811429     0.805610
      0.799792     0.793973     0.788155     0.782336     0.776518     0.770699     0.764881     0.759062     0.753244     0.747425
      0.741607     0.735788     0.729970     0.724151     0.718333     0.712514     0.706696     0.700877     0.695059     0.689240
      0.683422     0.677603     0.671785     0.665967     0.660148     0.654330     0.648511     0.642693     0.636874     0.631056
      0.625237     0.619419     0.613600     0.607782     0.601963     0.596145     0.590326     0.584508     0.578689     0.572871
      0.567052     0.561234     0.555415     0.549597     0.543778     0.537960     0.532141     0.526323     0.520504     0.514686
      0.508867     0.503049     0.497230     0.491412     0.485593     0.479775     0.473956     0.468138     0.462319     0.456501
      0.450682     0.444864     0.439045     0.433227     0.427408     0.421590     0.415771     0.409953     0.404134     0.398316
      0.392497     0.386679     0.380860     0.375042     0.369223     0.363405     0.357586     0.351767     0.345949     0.340130
      0.334312     0.328493     0.322675     0.316856     0.311038     0.305219     0.299401     0.293582     0.287764     0.281945
      0.276127     0.270308     0.264490     0.258671     0.252853     0.247034     0.241216     0.235397     0.229579     0.223760
      0.217942     0.212123     0.206305     0.200486
 NY phased data points follow
  -1.50898E-01 -2.82422E-01 -5.47209E-02 -1.23481E-02 -1.14496E-01 -1.08000E-01  1.38148E-01 -2.61494E-02 -2.65586E-01  1.22804E-01
   2.31797E-01  3.06532E-01 -1.97578E-01 -6.41150E-02  2.15382E-01  9.58305E-02  2.92068E-01  1.06324E-01  1.81944E-01  1.39717E-01
  -5.09098E-02  2.66258E-01  2.46723E-01  2.25064E-01 -5.76323E-02 -2.47090E-01  3.99679E-02 -2.11527E-01 -6.40142E-02 -5.03510E-02
  -1.22453E-01  1.14414E-01 -1.26584E-01 -2.46259E-01 -2.91216E-01 -4.34081E-01 -1.78334E-01 -2.80568E-01 -2.14910E-01 -1.31308E-01
  -3.14525E-01 -1.25406E-01 -2.33655E-01  4.81995E-01  5.01227E-01  1.81377E-01  2.55122E-01  1.69395E-01  5.19229E-01  3.21608E-01
   6.09683E-01  6.18422E-01  7.54093E-02 -3.21032E-02  8.95613E-02 -7.69598E-02 -1.42650E-01  3.34579E-02 -1.29394E-01 -4.14179E-02
  -7.83764E-02  1.50090E-02  2.09436E-02 -4.95881E-01 -3.84277E-01 -2.44086E-01 -3.45639E-01 -2.23807E-01  6.93830E-02  4.19746E-01
  -1.48729E-01 -6.99921E-03  8.31461E-02 -2.22157E-01  8.33992E-02 -3.15520E-01  1.24189E-01  4.60112E-01  2.35010E-01  2.06220E-01
   1.70583E-01 -3.53676E-01 -8.37204E-01 -1.45072E-01 -3.76430E-01 -6.76890E-01 -5.23837E-02  5.01537E-01  2.15273E-01  9.32290E-02
   4.60657E-01  2.41172E-01  3.57814E-01  1.15611E-01  5.39496E-02  3.78625E-02 -4.17218E-02 -3.45780E-01 -5.43995E-01 -1.03175E-01
  -1.09594E-01  1.62436E-01 -1.28968E-01  1.76120E-01  3.64038E-01  3.45323E-01  4.24139E-01  1.55672E-01  2.61609E-01 -2.05411E-01
  -1.27541E-02  3.86568E-02  8.19206E-02  2.09063E-01  3.22668E-01  2.56208E-01  5.41009E-01  6.77020E-01  4.43199E-01  4.41915E-01
   2.38028E-01  4.71700E-01 -6.64629E-02  4.11008E-01 -5.23493E-02 -3.47754E-01 -1.94930E-01 -7.48810E-01 -2.09629E-01 -7.06065E-01
  -7.05826E-01 -4.62547E-01 -4.68653E-01 -7.77289E-01 -5.78272E-01 -1.39042E-01 -1.14726E-01 -1.34907E-01 -4.87682E-01  8.11258E-02
   1.58159E-01 -3.54668E-01 -2.24922E-01 -4.46620E-01 -3.90177E-01 -1.53437E-02 -3.37998E-01 -1.69327E-01 -2.51260E-01 -2.04203E-01
  -2.40327E-01 -2.99021E-01  7.18201E-02  3.73779E-02  1.00335E-01  2.35258E-01  2.54987E-01  3.91056E-01  7.49098E-01  3.98700E-01
   7.15497E-01  6.47886E-01  4.31787E-01  4.24933E-01  3.53320E-01  7.21765E-01  8.95211E-02  2.79520E-01  8.32826E-01  3.05800E-01
  -2.18454E-01 -2.84198E-01 -5.51558E-01 -5.88176E-01 -8.79113E-01 -7.72634E-01 -6.11221E-01 -7.41820E-01 -5.76207E-01 -5.49966E-01
  -3.88510E-01 -6.31543E-01 -2.40461E-01 -3.18895E-01 -3.46571E-01 -1.36147E-01 -3.04104E-02 -8.15663E-03 -2.67741E-01 -1.47919E-01
  -1.63720E-01  2.93689E-01  9.00874E-02 -1.11354E-02  9.44827E-02  1.19915E-01  3.74273E-01  2.70740E-02  4.13112E-03  6.94877E-02
   2.45395E-01  1.91685E-01 -1.08975E-01  2.20527E-01 -1.56852E-01 -2.21828E-01  6.49119E-02 -4.42007E-01 -3.50739E-01 -1.45468E-01
  -6.00323E-01 -4.78321E-01  6.36066E-02 -5.04270E-01 -4.57650E-01 -2.68246E-01 -2.76087E-01 -4.00752E-02  9.35522E-03 -1.46503E-01
  -3.51519E-01  2.28038E-02 -1.57269E-01  3.24289E-03 -9.78201E-02 -1.36221E-01  2.36780E-02  1.69075E-01  2.37853E-01  8.83257E-02
   2.06961E-01 -1.22330E-01  3.90423E-01  4.87725E-01  3.42590E-03  1.49520E-01  2.21744E-01  1.84809E-01  3.26709E-01  1.40333E-01
  -3.61413E-03  2.42819E-02  1.90991E-01  2.71862E-01  6.52710E-02  1.25186E-01  2.10299E-01  1.16004E-01  6.18225E-02  3.91423E-01
   1.45192E-01  2.83802E-01  4.98761E-01  4.53338E-01  1.96163E-01  1.82938E-01  5.05412E-01  2.34088E-01  3.35325E-01  5.31907E-01
   1.64780E-01 -7.62445E-02  4.11484E-01  1.64884E-01  4.38875E-01  3.27519E-01  3.10277E-01  2.88192E-01 -1.79303E-01  5.05143E-02
  -1.92239E-02  3.40921E-01  1.31717E-01  9.16204E-02 -6.44150E-02  1.09201E-01 -3.30438E-01 -1.75035E-01 -2.85463E-02 -2.90616E-01
   2.11989E-01 -3.38227E-01  2.02732E-01 -1.16474E-01 -8.50128E-02  1.79184E-01 -1.58042E-01 -1.77207E-02  1.82159E-01  4.75641E-01
   3.09116E-01 -1.97637E-02 -3.27535E-02  3.41032E-01  5.55723E-02  2.09903E-01  3.58926E-01  4.16583E-01  5.71051E-02 -6.59370E-02
   1.21212E-01  4.90567E-02  2.68091E-02  1.92600E-01  3.30877E-01  4.67134E-02  6.31846E-01  2.96519E-01  1.80735E-01  5.02324E-01
   2.07536E-01  2.15652E-01  8.82978E-02 -8.04703E-02  3.90797E-01  2.55600E-01 -3.15492E-01  4.38968E-02 -1.55786E-01  1.45589E-01
  -7.04950E-02 -7.22100E-01 -9.38245E-02 -5.71354E-02 -3.46106E-01 -7.96179E-02 -2.24934E-02 -1.90757E-01 -2.66897E-01  8.10409E-02
   2.16180E-01 -1.64005E-02 -4.33515E-02 -8.12331E-02 -3.10696E-02 -2.67926E-01 -2.61170E-01 -4.00821E-01 -6.43363E-01 -9.16168E-01
  -6.32429E-01 -3.55592E-01 -4.42441E-01 -1.67615E-01 -1.00400E+00 -8.98022E-01 -3.67279E-01 -6.28777E-01 -7.01007E-01 -3.66076E-01
  -1.47707E-01 -3.88193E-01 -8.44383E-03  3.13996E-02 -1.83990E-02  3.16036E-01  2.69782E-01 -1.24764E-01 -1.36526E-01 -8.56052E-03
  -5.33393E-02  1.50826E-01 -8.54202E-02 -1.56439E-01 -1.48186E-02  2.73284E-01  4.57388E-01  8.53783E-02  1.20521E-01 -1.32637E-01
   1.19343E-01  2.23248E-01 -1.19553E-01  1.31700E-01  8.82811E-02 -1.53082E-02 -4.97053E-02 -1.24820E-01 -1.42102E-01  2.08942E-01
  -6.22560E-02  2.45885E-01  3.70778E-01  1.38550E-01  3.16724E-01  7.54434E-02  2.28413E-01 -9.57407E-02  1.59868E-01  4.46305E-01
   3.50977E-01 -7.77773E-02  1.09983E-01  3.48804E-01  1.28679E-01  7.52651E-02  9.43193E-04  6.33037E-01  4.29152E-02  1.13537E-01
   1.33574E-01 -1.09275E-01  6.32028E-02  2.51650E-02 -1.02482E-01 -3.28069E-01  9.80342E-02 -8.59003E-02  7.47685E-02 -2.40748E-01
  -1.71639E-01 -1.96443E-01 -4.59346E-01  9.60655E-02 -3.83233E-01 -8.61833E-02  1.13289E-01 -3.14627E-01 -1.22148E-01 -1.38680E-01
   9.62607E-02 -2.87291E-01 -4.76281E-01  6.52887E-02 -1.91080E-01  6.99911E-03  1.22308E-02 -2.59871E-01 -9.49939E-02 -3.44436E-02
  -9.95070E-02  1.95864E-01 -3.46947E-03 -8.33668E-02  3.47771E-01 -1.60130E-01  4.67978E-03  2.54590E-01  2.77610E-01  9.00962E-03
   1.19124E-01  3.62847E-02  2.35351E-01  6.47835E-01  7.19478E-02  4.30209E-01  4.01421E-02  4.34294E-02 -1.61239E-02  4.94808E-02
   5.02405E-01  5.46978E-01  7.97139E-01  3.21953E-01  2.05131E-01  5.42584E-02  2.19010E-01  2.86725E-01  2.24582E-01  2.08785E-01
   1.27000E-01  1.69665E-01 -1.14365E-01 -1.72873E-01  3.81077E-02 -8.91336E-03  1.77304E-01  1.65664E-01 -1.38882E-01  4.68093E-02
  -4.49838E-01 -6.23628E-02  1.95882E-01 -1.82236E-01 -1.26703E-01 -1.81304E-01 -7.10866E-02 -2.51738E-01 -9.37905E-02 -1.28534E-01
   3.41662E-02 -2.91192E-01 -5.37224E-01  1.14855E-01 -3.65348E-02  1.83424E-01  1.95443E-01 -3.44073E-01 -1.88486E-01 -1.06352E-01
   2.44096E-02 -2.15295E-01 -5.24794E-01 -6.37752E-01 -3.50510E-01  2.95901E-01 -1.06752E-01 -5.17261E-02 -1.53568E-01  1.10265E-01
   2.15798E-01 -2.54592E-02  4.62055E-01 -1.36493E-02  1.92916E-01  2.42595E-01  7.58326E-02  1.36243E-01  2.03224E-03 -1.61895E-02
   2.18898E-01  3.37492E-01 -1.34872E-03  1.06935E-01  1.16603E-01  4.57858E-01  2.60407E-01  3.97845E-02  1.57280E-01  2.07706E-01
   2.03360E-01  2.39129E-02  2.67480E-01  5.67671E-02 -1.52127E-01 -4.05033E-01 -1.90782E-01 -3.16547E-02 -6.21812E-02  1.51727E-01
  -3.51442E-01 -3.82153E-01 -2.52033E-01 -5.43550E-01 -5.40705E-01  5.75379E-02  1.28525E-01 -3.90854E-01 -2.34744E-01 -6.37631E-02
  -3.24451E-01 -2.78705E-01  1.36188E-01 -1.24329E-01 -1.07436E-01  3.50357E-02 -3.95010E-01  1.43607E-01  1.95451E-01 -3.56376E-01
   1.30192E-01  1.09560E-01 -1.21397E-02  1.58192E-01  6.26729E-02  1.59428E-01 -2.99282E-01  3.98007E-02  9.53469E-02  9.62283E-02
   1.61203E-01 -5.35243E-01  7.74315E-02 -1.03014E-01  9.26941E-02 -2.12134E-01 -5.26549E-01  3.01483E-02 -3.01346E-01  2.16128E-01
   8.46964E-02 -1.22121E-01 -1.40064E-01  1.35136E-01  7.25244E-02 -1.84991E-01 -1.68207E-01 -7.70823E-02  3.21653E-01 -5.58784E-03
   9.28004E-03 -1.78633E-01 -4.05304E-01 -1.48269E-01  3.82838E-01 -1.58180E-02 -2.48220E-01 -6.36790E-02 -4.56321E-02  3.07932E-01
   2.46328E-01  1.79107E-01 -5.94465E-02  1.77523E-01  6.47119E-02  2.95721E-01 -5.99583E-02 -5.02765E-01 -7.07802E-02 -9.65218E-02
  -5.17784E-02 -1.82625E-01  2.33115E-01  1.32836E-01 -2.36011E-01 -2.69095E-01  6.04814E-02  7.49366E-02  3.00269E-01  2.21135E-01
  -3.02848E-01  1.93347E-01  3.73191E-02  2.14865E-01  2.46839E-01 -1.34981E-01 -1.88727E-01  4.15197E-02 -5.03140E-02 -6.25588E-02
   6.16475E-02 -2.28579E-01  2.13913E-01  8.01520E-03 -4.75161E-02  1.34278E-01  5.78344E-02  1.50814E-01  4.07081E-02  1.92348E-02
   1.24819E-01  2.53438E-01  1.46953E-01  2.01091E-01  3.39900E-02  1.80958E-01 -3.58374E-02 -4.56717E-01  1.14873E-01  1.27520E-02
  -1.93172E-01  1.32659E-01  1.94422E-01  8.65706E-02  1.56933E-01  1.00619E-01  1.08052E-01  1.51115E-01 -1.15857E-01  1.28129E-01
  -1.76142E-01 -1.62911E-01  2.49475E-01 -9.87738E-02
 NY points of the fit to the data follow
   1.03764E-01  1.02556E-01  9.88149E-02  8.71449E-02  6.66367E-02  3.39184E-02  4.63797E-03 -3.02290E-03  1.38651E-02  4.68251E-02
   8.30028E-02  1.11044E-01  1.29945E-01  1.48440E-01  1.75662E-01  2.22903E-01  2.90920E-01  3.51812E-01  3.75231E-01  3.60557E-01
   3.17306E-01  2.49943E-01  1.66628E-01  8.06468E-02  5.24392E-03 -5.22602E-02 -9.06339E-02 -1.15957E-01 -1.36862E-01 -1.55520E-01
  -1.75188E-01 -1.93189E-01 -2.07595E-01 -2.17812E-01 -2.25629E-01 -2.29542E-01 -2.31195E-01 -2.25710E-01 -2.10372E-01 -1.85550E-01
  -1.50310E-01 -1.03802E-01 -5.08643E-02  4.92276E-03  6.50148E-02  1.26989E-01  1.85472E-01  2.34828E-01  2.67720E-01  2.80814E-01
   2.76838E-01  2.56356E-01  2.20368E-01  1.73917E-01  1.16148E-01  5.66043E-02 -1.20486E-03 -6.29233E-02 -1.19136E-01 -1.68517E-01
  -2.10471E-01 -2.40297E-01 -2.55761E-01 -2.60020E-01 -2.51040E-01 -2.26527E-01 -1.93292E-01 -1.46314E-01 -7.66802E-02  4.27430E-03
   8.63053E-02  1.56215E-01  1.91400E-01  1.92510E-01  1.64814E-01  1.15888E-01  5.83244E-02  2.83368E-04 -5.36497E-02 -1.04113E-01
  -1.53093E-01 -1.96305E-01 -2.12500E-01 -1.89354E-01 -1.36909E-01 -5.72887E-02  5.13169E-02  1.60897E-01  2.50662E-01  2.96496E-01
   3.01236E-01  2.66423E-01  2.09744E-01  1.48264E-01  9.06127E-02  3.80730E-02 -1.41811E-02 -6.82776E-02 -1.21807E-01 -1.61986E-01
  -1.72245E-01 -1.43865E-01 -8.07569E-02  8.37698E-03  1.05789E-01  1.96802E-01  2.71396E-01  3.21805E-01  3.49070E-01  3.56681E-01
   3.54281E-01  3.47443E-01  3.40964E-01  3.38476E-01  3.34217E-01  3.27279E-01  3.23410E-01  3.14765E-01  2.99900E-01  2.74276E-01
   2.32021E-01  1.72614E-01  1.01869E-01  2.46943E-02 -5.41533E-02 -1.27975E-01 -2.02237E-01 -2.80388E-01 -3.70403E-01 -4.66313E-01
  -5.56002E-01 -6.14404E-01 -6.23884E-01 -5.82818E-01 -5.05836E-01 -4.15215E-01 -3.33371E-01 -2.86026E-01 -2.75104E-01 -2.74960E-01
  -2.64890E-01 -2.43417E-01 -2.07529E-01 -1.55027E-01 -9.12663E-02 -2.57512E-02  3.20231E-02  7.73688E-02  1.09300E-01  1.33786E-01
   1.54910E-01  1.74077E-01  1.92070E-01  2.09460E-01  2.26768E-01  2.44440E-01  2.62543E-01  2.80647E-01  3.38314E-01  4.09228E-01
   4.62679E-01  4.78017E-01  4.56140E-01  4.13596E-01  3.77305E-01  3.59869E-01  3.51733E-01  3.39772E-01  2.77663E-01  1.24630E-01
  -8.07314E-02 -2.69648E-01 -4.26146E-01 -5.42274E-01 -6.02439E-01 -6.02582E-01 -5.54262E-01 -4.82294E-01 -4.08715E-01 -3.54511E-01
  -3.17853E-01 -2.90519E-01 -2.68155E-01 -2.49409E-01 -2.33509E-01 -2.19679E-01 -2.07277E-01 -1.95902E-01 -1.85289E-01 -1.75346E-01
  -1.65959E-01 -1.56822E-01 -1.47732E-01 -1.38542E-01 -1.29227E-01 -1.19882E-01 -1.10800E-01 -1.02386E-01 -9.45487E-02 -8.68766E-02
  -7.93128E-02 -7.20704E-02 -6.53908E-02 -5.95359E-02 -5.47893E-02 -5.12700E-02 -4.85586E-02 -4.61474E-02 -4.36728E-02 -4.12104E-02
  -3.93160E-02 -3.80987E-02 -3.71665E-02 -3.61733E-02 -3.48087E-02 -3.43092E-02 -3.23152E-02 -2.54610E-02 -1.35282E-02  1.71865E-04
   1.09151E-02  1.91821E-02  3.03736E-02  4.66984E-02  6.76409E-02  9.19177E-02  1.17372E-01  1.38397E-01  1.50616E-01  1.56366E-01
   1.61107E-01  1.66397E-01  1.66276E-01  1.54430E-01  1.32531E-01  1.05166E-01  7.47219E-02  4.24897E-02  1.11577E-02 -1.61853E-02
  -3.70068E-02 -5.12145E-02 -6.03561E-02 -6.65913E-02 -7.14810E-02 -7.53874E-02 -7.89301E-02 -8.49539E-02 -8.96642E-02 -9.15082E-02
  -9.21535E-02 -9.06756E-02 -8.69710E-02 -8.07759E-02 -7.44754E-02 -6.69340E-02 -5.75587E-02 -4.36034E-02 -2.27330E-02 -2.76497E-05
   2.31945E-02  4.90953E-02  7.50238E-02  9.49751E-02  1.08200E-01  1.16628E-01  1.20105E-01  1.17055E-01  1.09216E-01  9.84320E-02
   8.54641E-02  7.15166E-02  5.43311E-02  3.37106E-02  9.47120E-03 -1.88051E-02 -4.80541E-02 -7.59051E-02 -9.94606E-02 -1.15902E-01
  -1.25124E-01 -1.29535E-01 -1.30562E-01 -1.26842E-01 -1.15689E-01 -9.35571E-02 -5.65475E-02 -6.44956E-03  5.15806E-02  1.10528E-01
   1.61247E-01  1.97674E-01  2.18020E-01  2.23396E-01  2.17094E-01  2.03992E-01  1.89596E-01  1.77130E-01  1.67814E-01  1.61794E-01
   1.57395E-01  1.53567E-01  1.49641E-01  1.44309E-01  1.38085E-01  1.30565E-01  1.22560E-01  1.14054E-01  1.05009E-01  9.43619E-02
   8.13077E-02  6.59197E-02  4.81200E-02  2.90079E-02  9.66183E-03 -9.72824E-03 -2.91005E-02 -4.83898E-02 -6.73614E-02 -8.52024E-02
  -1.00523E-01 -1.12742E-01 -1.21730E-01 -1.26657E-01 -1.28308E-01 -1.24709E-01 -1.15710E-01 -9.99075E-02 -8.40086E-02 -7.02030E-02
  -6.07200E-02 -5.46909E-02 -4.00718E-02 -3.14871E-02 -5.66126E-02 -1.20174E-01 -2.09112E-01 -3.01923E-01 -3.75075E-01 -4.18140E-01
  -4.42640E-01 -4.68818E-01 -5.20088E-01 -6.07215E-01 -6.94925E-01 -7.34060E-01 -7.18734E-01 -6.62399E-01 -5.70213E-01 -4.50452E-01
  -3.22001E-01 -2.07082E-01 -1.20226E-01 -6.60591E-02 -3.66072E-02 -1.91219E-02 -7.43856E-03  5.60141E-04  5.84311E-03  9.07405E-03
   1.06354E-02  1.07320E-02  9.64571E-03  7.69437E-03  5.25621E-03  2.88489E-03  1.12703E-03  4.45882E-04  1.12426E-03  3.19587E-03
   6.54539E-03  1.09847E-02  1.62243E-02  2.19751E-02  2.78350E-02  3.34749E-02  3.87188E-02  4.35458E-02  4.79954E-02  5.20004E-02
   5.56158E-02  5.88253E-02  6.17793E-02  6.46291E-02  6.74916E-02  7.03708E-02  7.31424E-02  7.56630E-02  7.78818E-02  7.98730E-02
   8.17385E-02  8.35434E-02  8.52333E-02  8.67023E-02  8.78116E-02  8.83539E-02  8.81748E-02  8.72281E-02  8.56179E-02  8.33809E-02
   8.05695E-02  7.72526E-02  7.34517E-02  6.92156E-02  6.45943E-02  5.96278E-02  5.44599E-02  4.93169E-02  4.42777E-02  3.93372E-02
   3.45473E-02  3.00005E-02  2.57406E-02  2.17704E-02  1.81125E-02  1.47719E-02  1.17499E-02  9.05521E-03  6.67984E-03  4.64404E-03
   2.93233E-03  1.65740E-03  8.71025E-04  4.83597E-04 -2.42680E-04 -6.96506E-04  2.25387E-03  8.63726E-03  2.12437E-02  3.80851E-02
   5.58463E-02  7.17381E-02  8.54188E-02  9.83013E-02  1.13776E-01  1.34758E-01  1.58472E-01  1.79731E-01  1.93935E-01  1.96948E-01
   1.88173E-01  1.72124E-01  1.52605E-01  1.33194E-01  1.17747E-01  1.08707E-01  1.06583E-01  1.09535E-01  1.15703E-01  1.22596E-01
   1.28906E-01  1.34129E-01  1.37992E-01  1.40439E-01  1.41494E-01  1.41256E-01  1.39727E-01  1.37000E-01  1.33078E-01  1.28037E-01
   1.22013E-01  1.15225E-01  1.07885E-01  1.00203E-01  9.23988E-02  8.46055E-02  7.69886E-02  6.97501E-02  6.29683E-02  5.66753E-02
   5.09784E-02  4.59690E-02  4.16273E-02  3.79316E-02  3.49279E-02  3.27056E-02  3.13774E-02  3.09786E-02  3.14344E-02  3.26008E-02
   3.43722E-02  3.66905E-02  3.95032E-02  4.27662E-02  4.63542E-02  4.99772E-02  5.34568E-02  5.66776E-02  5.94773E-02  6.17984E-02
   6.37081E-02  6.52764E-02  6.64351E-02  6.71478E-02  6.73900E-02  6.71437E-02  6.64043E-02  6.51301E-02  6.33213E-02  6.10899E-02
   5.86100E-02  5.59833E-02  5.32618E-02  5.04931E-02  4.77330E-02  4.49642E-02  4.21384E-02  3.91919E-02  3.61106E-02  3.29672E-02
   2.98434E-02  2.67080E-02  2.34829E-02  2.00033E-02  1.60862E-02  1.15013E-02  6.08753E-03 -1.91122E-04 -7.27671E-03 -1.51548E-02
  -2.38419E-02 -3.34450E-02 -4.41027E-02 -5.57268E-02 -6.80016E-02 -8.06341E-02 -9.33860E-02 -1.05914E-01 -1.17809E-01 -1.28745E-01
  -1.38500E-01 -1.46905E-01 -1.53775E-01 -1.59002E-01 -1.62563E-01 -1.64557E-01 -1.64934E-01 -1.63692E-01 -1.61025E-01 -1.57226E-01
  -1.52594E-01 -1.47302E-01 -1.41556E-01 -1.35412E-01 -1.28878E-01 -1.21966E-01 -1.14676E-01 -1.06997E-01 -9.90502E-02 -9.09017E-02
  -8.26492E-02 -7.44546E-02 -6.64347E-02 -5.86659E-02 -5.11673E-02 -4.40411E-02 -3.73344E-02 -3.10475E-02 -2.51422E-02 -1.96244E-02
  -1.46219E-02 -1.01633E-02 -6.12838E-03 -2.49418E-03  6.89941E-04  3.48175E-03  5.96452E-03  8.20769E-03  1.02313E-02  1.20472E-02
   1.35856E-02  1.48899E-02  1.61464E-02  1.73881E-02  1.85809E-02  1.98012E-02  2.10032E-02  2.20437E-02  2.28894E-02  2.35355E-02
   2.39972E-02  2.43699E-02  2.46592E-02  2.47418E-02  2.46320E-02  2.44307E-02  2.41884E-02  2.39545E-02  2.38363E-02  2.38477E-02
   2.38471E-02  2.36374E-02  2.30749E-02  2.23552E-02  2.16966E-02  2.11318E-02  2.06124E-02  2.01939E-02  1.99118E-02  1.96641E-02
   1.93432E-02  1.90149E-02  1.87873E-02  1.87795E-02  1.89304E-02  1.91659E-02  1.94627E-02  1.98005E-02  2.01446E-02  2.04706E-02
   2.07719E-02  2.11282E-02  2.14455E-02  2.15479E-02  2.14275E-02  2.12037E-02  2.10970E-02  2.11882E-02  2.14275E-02  2.17407E-02
   2.20340E-02  2.22947E-02  2.25547E-02  2.29552E-02  2.35089E-02  2.40707E-02  2.44829E-02  2.46685E-02  2.46308E-02  2.43940E-02
   2.40273E-02  2.35911E-02  2.31103E-02  2.26023E-02  2.21594E-02  2.17717E-02  2.14091E-02  2.10396E-02  2.05643E-02  2.00360E-02
   1.96713E-02  1.95280E-02  1.95179E-02  1.95750E-02  1.97320E-02  1.98955E-02  2.00383E-02  2.01913E-02  2.04732E-02  2.10442E-02
   2.19278E-02  2.29624E-02  2.39862E-02  2.49220E-02
 NY background values follow
     4.376E-02    4.363E-02    4.350E-02    4.337E-02    4.324E-02    4.311E-02    4.297E-02    4.284E-02    4.271E-02    4.258E-02
     4.245E-02    4.232E-02    4.219E-02    4.206E-02    4.193E-02    4.180E-02    4.167E-02    4.154E-02    4.141E-02    4.128E-02
     4.115E-02    4.102E-02    4.089E-02    4.075E-02    4.062E-02    4.049E-02    4.036E-02    4.023E-02    4.010E-02    3.997E-02
     3.984E-02    3.971E-02    3.958E-02    3.944E-02    3.931E-02    3.918E-02    3.905E-02    3.892E-02    3.879E-02    3.866E-02
     3.853E-02    3.839E-02    3.826E-02    3.813E-02    3.800E-02    3.787E-02    3.774E-02    3.761E-02    3.748E-02    3.734E-02
     3.721E-02    3.708E-02    3.695E-02    3.682E-02    3.669E-02    3.655E-02    3.642E-02    3.629E-02    3.616E-02    3.603E-02
     3.590E-02    3.576E-02    3.563E-02    3.550E-02    3.537E-02    3.524E-02    3.510E-02    3.497E-02    3.484E-02    3.471E-02
