 LCModel (Version 6.3-1N) Copyright: S.W. Provencher.          Ref.: Magn. Reson. Med. 30:672-679 (1993).                
 Slice_N1@22_13  02-Jun-2023 14:37:28
 27 lines in following concentration table = NCONC+1
    Conc.  %SD /Cr+PCr  Metabolite                                         
 1.94E-06  17% 3.0E-04 Mac                                                 
 1.71E-02  63%   2.634 Cr                                                  
 3.48E-02  32%   5.366 PCr                                                 
 6.54E-02  13%  10.080 Ins                                                 
 8.15E-02   8%  12.558 NAA                                                 
 7.24E-02  11%  11.148 Tau                                                 
 1.68E-02  12%   2.589 PCho                                                
    0.000 999%   0.000 GPC                                                 
 6.57E-02  14%  10.119 Glu                                                 
 2.99E-02  23%   4.609 Gln                                                 
 1.05E-02  62%   1.612 Ala                                                 
 8.50E-03 138%   1.310 Asc                                                 
 4.05E-03 152%   0.624 Asp                                                 
 9.33E-03  36%   1.438 GABA                                                
 6.59E-03  60%   1.016 Glc                                                 
 9.52E-03  44%   1.467 GSH                                                 
    0.000 999%   0.000 Lac                                                 
 3.44E-03 143%   0.530 NAAG                                                
    0.000 999%   0.000 PE                                                  
 1.68E-02  12%   2.589 GPC+PCho                                            
 8.49E-02   9%  13.088 NAA+NAAG                                            
 9.56E-02  12%  14.728 Glu+Gln                                             
 5.19E-02  11%   8.000 Cr+PCr                                              
 8.49E-02   9%  13.088 NAA+NAAG                                            
 5.19E-02  11%   8.000 Cr+PCr                                              
 9.56E-02  12%  14.728 Glu+Gln                                             
   6 lines in following misc. output table
  FWHM = 0.023 ppm    S/N =   4                                            
  Data shift = 0.029 ppm                                                   
  Ph: -28 deg      -8.6 deg/ppm                                            
  alphaB,S = 8.0E+00,   1.5E+01                                            
   18 spline knots.   Ns = 7(1)                                            
   3 inflections.     1 extrema                                            
  654 points on ppm-axis = NY
      4.000000     3.994181     3.988363     3.982544     3.976726     3.970907     3.965088     3.959270     3.953451     3.947633
      3.941814     3.935995     3.930177     3.924358     3.918540     3.912721     3.906902     3.901084     3.895265     3.889446
      3.883628     3.877809     3.871991     3.866172     3.860353     3.854535     3.848716     3.842898     3.837079     3.831260
      3.825442     3.819623     3.813805     3.807986     3.802167     3.796349     3.790530     3.784712     3.778893     3.773074
      3.767256     3.761437     3.755619     3.749800     3.743981     3.738163     3.732344     3.726526     3.720707     3.714888
      3.709070     3.703251     3.697433     3.691614     3.685795     3.679977     3.674158     3.668339     3.662521     3.656702
      3.650884     3.645065     3.639246     3.633428     3.627609     3.621791     3.615972     3.610153     3.604335     3.598516
      3.592698     3.586879     3.581060     3.575242     3.569423     3.563605     3.557786     3.551967     3.546149     3.540330
      3.534512     3.528693     3.522874     3.517056     3.511237     3.505419     3.499600     3.493781     3.487963     3.482144
      3.476326     3.470507     3.464688     3.458870     3.453051     3.447232     3.441414     3.435595     3.429777     3.423958
      3.418139     3.412321     3.406502     3.400684     3.394865     3.389046     3.383228     3.377409     3.371591     3.365772
      3.359953     3.354135     3.348316     3.342498     3.336679     3.330860     3.325042     3.319223     3.313405     3.307586
      3.301767     3.295949     3.290130     3.284312     3.278493     3.272674     3.266856     3.261037     3.255219     3.249400
      3.243581     3.237763     3.231944     3.226125     3.220307     3.214488     3.208670     3.202851     3.197032     3.191214
      3.185395     3.179577     3.173758     3.167939     3.162121     3.156302     3.150484     3.144665     3.138846     3.133028
      3.127209     3.121391     3.115572     3.109753     3.103935     3.098116     3.092298     3.086479     3.080660     3.074842
      3.069023     3.063205     3.057386     3.051567     3.045749     3.039930     3.034111     3.028293     3.022474     3.016656
      3.010837     3.005018     2.999200     2.993381     2.987563     2.981744     2.975925     2.970107     2.964288     2.958470
      2.952651     2.946832     2.941014     2.935195     2.929377     2.923558     2.917739     2.911921     2.906102     2.900284
      2.894465     2.888646     2.882828     2.877009     2.871191     2.865372     2.859553     2.853735     2.847916     2.842098
      2.836279     2.830460     2.824642     2.818823     2.813004     2.807186     2.801367     2.795549     2.789730     2.783911
      2.778093     2.772274     2.766456     2.760637     2.754818     2.749000     2.743181     2.737363     2.731544     2.725725
      2.719907     2.714088     2.708270     2.702451     2.696632     2.690814     2.684995     2.679177     2.673358     2.667539
      2.661721     2.655902     2.650084     2.644265     2.638446     2.632628     2.626809     2.620991     2.615172     2.609353
      2.603535     2.597716     2.591897     2.586079     2.580260     2.574442     2.568623     2.562804     2.556986     2.551167
      2.545349     2.539530     2.533711     2.527893     2.522074     2.516256     2.510437     2.504618     2.498800     2.492981
      2.487163     2.481344     2.475525     2.469707     2.463888     2.458070     2.452251     2.446432     2.440614     2.434795
      2.428977     2.423158     2.417339     2.411521     2.405702     2.399884     2.394065     2.388246     2.382428     2.376609
      2.370790     2.364972     2.359153     2.353335     2.347516     2.341697     2.335879     2.330060     2.324242     2.318423
      2.312604     2.306786     2.300967     2.295149     2.289330     2.283511     2.277693     2.271874     2.266056     2.260237
      2.254418     2.248600     2.242781     2.236963     2.231144     2.225325     2.219507     2.213688     2.207870     2.202051
      2.196232     2.190414     2.184595     2.178777     2.172958     2.167139     2.161321     2.155502     2.149683     2.143865
      2.138046     2.132228     2.126409     2.120590     2.114772     2.108953     2.103135     2.097316     2.091497     2.085679
      2.079860     2.074042     2.068223     2.062404     2.056586     2.050767     2.044949     2.039130     2.033311     2.027493
      2.021674     2.015856     2.010037     2.004218     1.998400     1.992581     1.986763     1.980944     1.975126     1.969307
      1.963489     1.957670     1.951852     1.946033     1.940215     1.934397     1.928578     1.922760     1.916941     1.911123
      1.905304     1.899486     1.893667     1.887849     1.882030     1.876212     1.870393     1.864575     1.858756     1.852938
      1.847119     1.841301     1.835482     1.829664     1.823845     1.818027     1.812208     1.806390     1.800571     1.794753
      1.788934     1.783116     1.777297     1.771479     1.765660     1.759842     1.754023     1.748205     1.742386     1.736568
      1.730749     1.724931     1.719113     1.713294     1.707476     1.701657     1.695839     1.690020     1.684202     1.678383
      1.672565     1.666746     1.660928     1.655109     1.649291     1.643472     1.637654     1.631835     1.626017     1.620198
      1.614380     1.608561     1.602743     1.596924     1.591106     1.585287     1.579469     1.573650     1.567832     1.562013
      1.556195     1.550376     1.544558     1.538739     1.532921     1.527102     1.521284     1.515465     1.509647     1.503829
      1.498010     1.492192     1.486373     1.480555     1.474736     1.468918     1.463099     1.457281     1.451462     1.445644
      1.439825     1.434007     1.428188     1.422370     1.416551     1.410733     1.404914     1.399096     1.393277     1.387459
      1.381640     1.375822     1.370003     1.364185     1.358366     1.352548     1.346729     1.340911     1.335092     1.329274
      1.323455     1.317637     1.311818     1.306000     1.300182     1.294363     1.288545     1.282726     1.276908     1.271089
      1.265271     1.259452     1.253634     1.247815     1.241997     1.236178     1.230360     1.224541     1.218723     1.212904
      1.207086     1.201267     1.195449     1.189630     1.183812     1.177993     1.172175     1.166356     1.160538     1.154719
      1.148901     1.143082     1.137264     1.131445     1.125627     1.119808     1.113990     1.108171     1.102353     1.096534
      1.090716     1.084898     1.079079     1.073261     1.067442     1.061624     1.055805     1.049987     1.044168     1.038350
      1.032531     1.026713     1.020894     1.015076     1.009257     1.003439     0.997620     0.991802     0.985983     0.980165
      0.974346     0.968528     0.962709     0.956891     0.951072     0.945254     0.939435     0.933617     0.927798     0.921980
      0.916161     0.910343     0.904524     0.898706     0.892887     0.887069     0.881251     0.875432     0.869614     0.863795
      0.857977     0.852158     0.846340     0.840521     0.834703     0.828884     0.823066     0.817247     0.811429     0.805610
      0.799792     0.793973     0.788155     0.782336     0.776518     0.770699     0.764881     0.759062     0.753244     0.747425
      0.741607     0.735788     0.729970     0.724151     0.718333     0.712514     0.706696     0.700877     0.695059     0.689240
      0.683422     0.677603     0.671785     0.665967     0.660148     0.654330     0.648511     0.642693     0.636874     0.631056
      0.625237     0.619419     0.613600     0.607782     0.601963     0.596145     0.590326     0.584508     0.578689     0.572871
      0.567052     0.561234     0.555415     0.549597     0.543778     0.537960     0.532141     0.526323     0.520504     0.514686
      0.508867     0.503049     0.497230     0.491412     0.485593     0.479775     0.473956     0.468138     0.462319     0.456501
      0.450682     0.444864     0.439045     0.433227     0.427408     0.421590     0.415771     0.409953     0.404134     0.398316
      0.392497     0.386679     0.380860     0.375042     0.369223     0.363405     0.357586     0.351767     0.345949     0.340130
      0.334312     0.328493     0.322675     0.316856     0.311038     0.305219     0.299401     0.293582     0.287764     0.281945
      0.276127     0.270308     0.264490     0.258671     0.252853     0.247034     0.241216     0.235397     0.229579     0.223760
      0.217942     0.212123     0.206305     0.200486
 NY phased data points follow
  -5.57596E-02 -8.27830E-02  2.40292E-02  1.73352E-01  5.72476E-02  2.41838E-01 -1.24585E-02 -1.92504E-01 -1.40613E-02 -1.56904E-01
   2.36998E-01  2.94964E-01  3.55860E-01  1.30726E-01 -4.39588E-02  2.38172E-01  2.22473E-01  1.65166E-01 -3.08024E-01 -2.17904E-01
   3.56771E-02 -6.84386E-02  7.01329E-03 -2.28371E-01 -2.30477E-01 -2.86295E-01 -8.16088E-02  6.08066E-02 -1.16816E-01  9.00765E-02
   2.04015E-01  2.29051E-01 -1.60551E-01 -1.98045E-01 -3.36778E-02 -1.36006E-01 -1.77086E-01 -2.69185E-01 -5.62896E-02 -3.40989E-01
  -1.91739E-01  2.24354E-01  1.83825E-01  4.72730E-01  3.43224E-01  4.40067E-01  3.28480E-01  1.39374E-01  1.67354E-01  2.22227E-01
   8.12385E-02 -5.12939E-02  1.71921E-01 -3.08782E-01  1.17314E-01  3.55021E-02 -4.44463E-02 -9.60863E-02 -4.14374E-01 -1.48087E-01
  -4.09781E-01  2.81908E-03 -3.77404E-01 -4.37611E-01 -2.35389E-01  7.76381E-02  1.51745E-01 -7.58234E-02  1.54871E-01  1.23907E-01
   3.50795E-01 -2.39207E-01  1.33835E-01  1.05678E-01 -4.15815E-02  3.28156E-01 -2.42112E-02 -5.23902E-02 -2.00850E-01 -2.99557E-01
  -3.22277E-01  5.26143E-02 -1.07125E-01 -7.31212E-02  1.80201E-01  1.95072E-01  3.14196E-01  1.42513E-01  2.13946E-01  1.73666E-01
   2.03369E-01 -7.82691E-02  5.98681E-02  3.13442E-01 -1.22800E-01  5.49129E-02 -3.33838E-02 -1.79686E-01 -4.93988E-02 -7.81966E-03
  -2.56416E-01 -5.65484E-01 -1.07004E-01 -5.04139E-02  4.91627E-02  3.00410E-01  4.91634E-01  5.51070E-01  4.75326E-01  6.48167E-01
   3.79314E-01  1.14375E-01  2.87560E-01  5.54694E-01  2.79886E-01  2.37032E-01  8.95681E-02  1.75711E-01  4.02420E-01  2.15036E-01
   3.23612E-01  7.20638E-03  1.49119E-01  8.16289E-02 -2.22798E-01 -1.09111E-03 -1.59591E-01 -4.60724E-01 -5.16479E-01 -6.00032E-01
  -7.34530E-01 -7.31072E-01 -7.49763E-01 -4.60415E-01 -3.01186E-01 -4.11043E-01 -6.55582E-01 -1.03527E+00 -7.30682E-01 -5.34540E-01
  -6.17449E-01 -2.22026E-01 -2.72960E-01 -1.76494E-01  3.25980E-01  9.79422E-03 -9.14483E-02  2.73948E-01 -2.68211E-02  4.88240E-03
   3.36257E-01  3.31439E-01  1.63152E-01  3.20114E-01  3.80056E-01  7.63070E-02  3.87016E-01  8.47877E-02  4.52178E-01  4.32960E-01
  -2.07371E-02  5.20565E-01  4.97353E-01  7.18438E-01  4.68023E-01  7.68036E-01  9.48369E-01  4.12647E-01 -4.66509E-02 -6.14427E-01
  -8.00121E-01 -7.02074E-01 -5.32853E-01 -5.42379E-01 -2.94539E-01 -3.21276E-01 -1.58420E-01 -3.90832E-01 -3.38256E-01 -1.57715E-01
  -3.69406E-01 -2.05534E-01 -1.70058E-01  5.53553E-02 -7.51295E-02 -2.30343E-01 -4.04828E-01 -1.58795E-01 -1.78812E-01 -3.68746E-01
  -8.62822E-02 -1.87012E-01 -2.33650E-01 -2.36767E-01  1.08908E-01  1.93166E-01 -1.21664E-01 -5.31146E-02  5.28944E-02  1.13796E-01
   2.09671E-01  6.87428E-03 -2.46696E-01 -1.25803E-01  1.48644E-01 -4.54751E-02 -2.15481E-01 -2.28961E-01 -1.20261E-01 -1.09103E-01
  -3.73667E-01 -2.56599E-01 -1.50183E-01  1.67549E-01 -5.82222E-02 -3.21584E-01  3.93278E-02  5.97535E-02 -9.77698E-02  1.47980E-01
   9.22281E-02  2.29691E-01  2.55098E-01 -5.31184E-01  1.63929E-01  5.16299E-01  5.14368E-01  1.86137E-01 -2.61071E-02  6.19706E-01
   3.20630E-01  2.29060E-01  2.03141E-01  2.86223E-01  1.08168E-01 -4.74499E-02 -1.92613E-01  7.17950E-02 -1.22980E-02 -2.37017E-01
   2.10378E-01 -2.25598E-01  2.77834E-02  1.18079E-01 -3.91679E-01 -1.42610E-01  1.91753E-01 -2.90357E-01 -5.68530E-02 -1.47038E-02
  -2.83895E-01  2.07590E-01  1.96806E-01  1.94746E-01 -2.02214E-01  4.24641E-02 -4.60566E-03  1.42075E-02  2.71081E-01 -2.18469E-03
   1.50187E-02 -1.62006E-01  3.77222E-02 -2.82249E-02  1.15261E-01  3.02155E-02  4.44456E-02  3.69573E-01  1.31727E-01  3.15169E-01
   5.81432E-01  3.60389E-01  1.28258E-01  1.45497E-01  4.10150E-02 -1.41070E-01 -2.31220E-01  1.47636E-01 -6.67854E-02 -4.01209E-01
  -5.46713E-02 -2.63780E-01 -3.04516E-01 -3.98701E-01 -1.41147E-01  4.28649E-01  2.79028E-01  6.82852E-01  4.61539E-01  2.54661E-01
   5.05550E-01  8.05712E-03  2.48586E-01  3.64637E-01  5.40861E-02 -1.36024E-01  9.79491E-02  2.03562E-01  2.65172E-01  3.26457E-01
  -5.44989E-03  2.05167E-01  1.83439E-01  4.65105E-01  4.20298E-01  2.50847E-01  3.29810E-01  2.50880E-01  6.72004E-01  4.62361E-01
   2.08575E-01  2.89028E-01  1.42417E-01  1.91369E-01  3.51064E-01  7.31625E-05  2.61126E-02 -1.13238E-01 -5.97477E-01 -1.56879E-01
  -3.31254E-01 -3.95805E-01 -1.35156E-01 -3.41581E-01 -2.88115E-01 -3.18951E-01  1.77697E-01  2.14735E-01  1.47635E-01  5.47428E-01
   1.28053E-01  2.22436E-01  2.33004E-01 -1.79489E-03  3.21197E-02 -3.07997E-01 -3.89337E-01 -3.22253E-01 -5.29593E-01 -6.24808E-01
  -1.51690E-01 -3.69626E-01 -1.24038E+00 -1.48128E+00 -1.18205E+00 -7.34106E-01 -5.99928E-01 -2.96630E-01  1.03700E-02 -4.98811E-03
   2.12325E-01  4.24065E-02 -8.01511E-02  1.19888E-01  2.24147E-01  3.10090E-01 -1.97682E-01  3.01924E-02  3.67348E-01  1.10675E-01
   2.17746E-01 -3.19919E-01 -1.07847E-01  2.88272E-01 -2.26595E-01  1.40037E-02  1.41336E-01 -8.92398E-03  9.39053E-03  2.25439E-02
  -3.41063E-02 -2.45691E-01 -1.69306E-01  3.28099E-02  1.70278E-01 -1.93625E-02 -7.03318E-02 -6.71427E-02 -8.77471E-02  1.84619E-01
   1.20094E-01  3.16552E-01  2.20127E-01  6.62912E-02  3.55568E-01  7.01508E-03  6.17660E-02  2.31210E-01  2.39603E-01  1.77182E-01
   6.50294E-03  1.70467E-01 -1.94540E-02  7.34961E-02  1.87575E-01  6.40721E-02  7.83533E-02  1.06895E-01 -6.80314E-02  1.28737E-01
   2.09918E-01 -6.16594E-02  2.35076E-01  1.96422E-01  2.81197E-01 -2.33107E-01 -1.34090E-01  3.10986E-01 -1.87633E-01  4.73165E-04
   1.39635E-02 -1.10711E-02 -6.57569E-02 -2.26067E-01 -1.41457E-01 -1.36659E-02 -1.55987E-01 -4.35087E-02  4.85287E-02 -3.63667E-02
  -1.51458E-01 -2.94297E-01 -3.31131E-01 -4.21637E-01 -1.28123E-01 -9.90652E-02  1.22884E-01 -1.08393E-01 -5.40980E-02  2.27614E-01
  -2.37620E-01 -1.13303E-01  2.18050E-01  6.72538E-02  1.15223E-01  4.62578E-01  2.14477E-01  1.39313E-01  5.13711E-02  4.85917E-02
   2.42728E-01  7.14875E-02 -1.77203E-01  5.77949E-02 -6.81911E-02 -5.65052E-02  2.56026E-01  1.69761E-01  3.39156E-01  2.23367E-01
   2.74040E-01 -6.01483E-02  1.89413E-01  3.09790E-01  1.51471E-01  2.64265E-01  9.48357E-02 -1.32620E-02 -1.09996E-01  2.73004E-02
  -4.20025E-01  1.24259E-02  2.45889E-01  1.68856E-01  8.14356E-02 -1.91698E-01 -1.07922E-01 -4.39081E-02 -2.12221E-01 -4.47469E-01
   3.81524E-02 -2.73193E-01 -2.12903E-01  3.19475E-01  4.50405E-03 -2.42067E-01 -1.56759E-01 -4.08070E-01 -1.97095E-01 -1.62022E-01
  -3.28593E-01 -1.27810E-01 -2.35976E-01  1.57134E-01  7.02406E-02  1.84210E-01  1.31739E-01 -1.14590E-01  7.64998E-02 -2.39018E-03
  -2.36970E-02  1.83952E-01  2.95309E-01 -6.00803E-02 -4.67560E-02  1.40917E-01  5.61854E-02 -1.15807E-02 -4.85852E-03  1.45412E-01
   1.94308E-01 -3.33930E-02  5.29923E-02  1.04655E-01  3.74257E-01  2.20631E-01  1.17206E-01  1.92417E-01  6.86120E-02  1.99285E-01
  -2.55520E-01  3.84585E-02  1.25142E-01  2.15436E-02 -5.64408E-02 -1.05974E-02  1.33028E-01  7.35078E-02  2.10801E-01 -4.19951E-02
  -2.00143E-01 -2.34135E-01  1.33600E-02 -3.38472E-01 -2.20858E-01 -3.47457E-01 -4.36207E-01 -1.87499E-01 -6.36655E-01 -3.14961E-01
  -2.18090E-01 -3.09965E-01 -3.02961E-01 -2.14658E-01 -4.00473E-01 -1.15748E-01  3.18786E-01 -1.60073E-01 -3.04743E-01 -1.97835E-02
   1.37077E-01 -1.77724E-01 -1.78593E-01 -1.71124E-01 -1.79102E-01  8.44083E-02 -8.36634E-03  1.36971E-01  2.60701E-01  9.20974E-02
  -2.34438E-02  1.70740E-01 -6.73519E-03  4.80949E-02  4.92728E-01 -3.27861E-02 -1.43402E-02 -4.82872E-02  1.87263E-01  4.06065E-01
  -2.77894E-02  1.32862E-01  9.74774E-02  1.48474E-01 -2.35751E-02  1.55783E-01  1.09835E-01  5.68886E-02  2.97897E-01  1.76478E-02
   2.51279E-01  2.46741E-01 -1.94098E-01  1.01215E-01  1.44649E-01 -1.12498E-01 -4.53220E-02 -1.26268E-01  1.96522E-01 -2.00252E-01
   1.31385E-01  3.93584E-01 -6.79624E-02  9.99890E-02 -1.60179E-01 -1.80613E-01 -4.46192E-02  1.34742E-02 -1.39730E-01  8.60631E-02
  -2.17877E-01 -1.34859E-03  1.33705E-01 -6.02176E-02  1.86108E-01 -2.43414E-01  1.13612E-01  1.37930E-01  2.16125E-01  3.29143E-01
   2.10018E-01 -5.72074E-02 -7.46101E-02  1.51189E-02 -2.11751E-01  1.01878E-01 -6.80538E-02  1.10180E-02  1.25940E-02 -1.93916E-01
   6.02750E-03  2.84890E-01 -8.80243E-02 -3.99041E-01  1.15812E-01  1.55773E-01  4.74790E-02  6.23128E-02 -5.34556E-03  1.14163E-02
   2.30486E-01  2.74813E-01  1.98021E-01  1.68319E-01 -1.49456E-02 -1.00721E-01  1.46061E-01  1.80993E-01 -5.10820E-02  2.34610E-01
  -5.48714E-02 -1.52455E-01  2.26600E-01  2.08326E-01  3.40831E-01  7.76201E-02  2.46668E-01  1.35648E-01 -6.02055E-02  1.69951E-01
   2.04921E-01  2.43761E-01  1.74081E-01  2.55922E-01 -5.80724E-02  1.47017E-01  3.23568E-02  8.92392E-02  5.04256E-01  2.00568E-01
   1.20666E-01 -2.37217E-02 -3.69925E-02  3.02832E-03
 NY points of the fit to the data follow
   7.41343E-02  7.31627E-02  6.82509E-02  6.18413E-02  5.76061E-02  6.19007E-02  7.58720E-02  9.82144E-02  1.16238E-01  1.15236E-01
   1.51976E-01  2.70779E-01  3.93109E-01  4.41036E-01  4.25487E-01  3.83729E-01  3.15206E-01  2.18187E-01  1.19010E-01  4.40228E-02
   1.17197E-02 -8.27613E-03 -3.17209E-02 -4.21577E-02 -5.29058E-02 -6.73473E-02 -7.93742E-02 -8.96956E-02 -9.97673E-02 -1.09161E-01
  -1.17319E-01 -1.25613E-01 -1.36870E-01 -1.50524E-01 -1.61538E-01 -1.68639E-01 -1.67361E-01 -1.63843E-01 -1.48665E-01 -8.40059E-02
   3.56544E-02  1.76881E-01  2.89294E-01  3.62025E-01  3.96409E-01  3.85646E-01  3.35965E-01  2.60680E-01  1.94081E-01  1.43626E-01
   9.84364E-02  6.42185E-02  3.30208E-02  7.69071E-03 -2.54207E-02 -6.00795E-02 -9.62039E-02 -1.30557E-01 -1.73513E-01 -2.16640E-01
  -2.45598E-01 -2.62433E-01 -2.31178E-01 -1.69519E-01 -1.31401E-01 -8.13630E-02  5.02901E-03  1.05249E-01  1.95063E-01  2.75741E-01
   3.28381E-01  3.26249E-01  2.85464E-01  2.01445E-01  1.12396E-01  4.18356E-02 -2.74996E-02 -7.18797E-02 -1.52988E-01 -2.81683E-01
  -3.33548E-01 -2.68374E-01 -1.57564E-01 -3.44277E-02  1.19585E-01  2.78981E-01  3.77768E-01  3.94919E-01  3.50779E-01  3.01021E-01
   2.57694E-01  1.93274E-01  1.35813E-01  8.63139E-02  3.90637E-02 -1.23577E-02 -8.79354E-02 -1.84686E-01 -3.12088E-01 -4.10896E-01
  -4.24230E-01 -3.27492E-01 -1.43863E-01  5.21327E-02  2.15172E-01  3.08830E-01  3.45574E-01  3.45968E-01  3.14369E-01  2.97234E-01
   2.76357E-01  2.71441E-01  2.67320E-01  2.62668E-01  2.58229E-01  2.53978E-01  2.48013E-01  2.40341E-01  2.29068E-01  2.18873E-01
   2.11583E-01  1.72348E-01  1.09016E-01  4.55593E-02 -2.68867E-02 -1.05575E-01 -1.89741E-01 -2.66755E-01 -3.88899E-01 -5.42129E-01
  -6.68811E-01 -7.32504E-01 -6.69742E-01 -4.81311E-01 -3.20053E-01 -4.11193E-01 -6.90477E-01 -8.61665E-01 -8.16762E-01 -6.24297E-01
  -4.32885E-01 -2.48971E-01 -8.50935E-02  3.39864E-02  6.17316E-02  5.24741E-02  6.71221E-02  8.42696E-02  1.00378E-01  1.15156E-01
   1.29198E-01  1.42771E-01  1.55880E-01  1.69228E-01  1.83526E-01  1.99405E-01  2.18143E-01  2.39987E-01  2.65352E-01  2.97270E-01
   3.39797E-01  3.74704E-01  3.89876E-01  3.65052E-01  3.83361E-01  5.53801E-01  6.04230E-01  2.93856E-01 -2.06973E-01 -5.63970E-01
  -6.72676E-01 -6.64316E-01 -6.01036E-01 -5.09641E-01 -3.82764E-01 -2.76674E-01 -2.73815E-01 -2.55220E-01 -2.38230E-01 -2.26804E-01
  -2.16529E-01 -2.01350E-01 -1.88237E-01 -1.78307E-01 -1.72266E-01 -1.67810E-01 -1.63540E-01 -1.56798E-01 -1.50968E-01 -1.44445E-01
  -1.36809E-01 -1.28828E-01 -1.19145E-01 -1.10443E-01 -1.01858E-01 -9.37239E-02 -8.55229E-02 -7.81345E-02 -7.16986E-02 -6.64115E-02
  -6.06466E-02 -5.35973E-02 -4.72873E-02 -4.47320E-02 -4.61485E-02 -4.67243E-02 -4.34199E-02 -3.92123E-02 -3.86296E-02 -4.15741E-02
  -4.39668E-02 -4.41184E-02 -4.28176E-02 -4.08093E-02 -3.79921E-02 -3.32973E-02 -2.75456E-02 -2.30005E-02 -1.89217E-02 -1.25650E-02
  -3.35969E-04  1.19010E-02  1.48201E-02  3.37421E-02  9.78445E-02  1.85353E-01  2.31953E-01  2.05338E-01  1.72773E-01  2.07262E-01
   2.70169E-01  2.75448E-01  2.08014E-01  1.23443E-01  5.08123E-02 -1.05373E-02 -6.00721E-02 -8.90422E-02 -8.99282E-02 -8.43225E-02
  -8.93911E-02 -9.53790E-02 -1.00860E-01 -1.04391E-01 -1.07028E-01 -1.10248E-01 -1.13135E-01 -1.16890E-01 -1.19356E-01 -1.20677E-01
  -1.19958E-01 -1.19520E-01 -1.20998E-01 -1.28877E-01 -1.53319E-01 -1.46961E-01 -9.56411E-02 -5.12830E-02 -2.29025E-02  1.11527E-02
   6.99249E-02  1.07648E-01  1.09611E-01  1.04363E-01  1.05420E-01  1.25013E-01  1.22448E-01  1.24206E-01  1.47699E-01  1.66487E-01
   1.74486E-01  1.52715E-01  1.21077E-01  7.67256E-02  2.53278E-02 -2.29042E-02 -7.31487E-02 -1.09635E-01 -1.43378E-01 -1.80990E-01
  -2.21258E-01 -2.49963E-01 -2.49270E-01 -1.88454E-01 -7.31961E-02  7.33584E-02  2.18676E-01  3.28718E-01  3.80531E-01  3.69816E-01
   3.26508E-01  2.67827E-01  2.13723E-01  1.78264E-01  1.59341E-01  1.65469E-01  1.81244E-01  1.94785E-01  2.04712E-01  2.05904E-01
   2.01139E-01  1.92788E-01  1.80631E-01  1.71553E-01  1.61738E-01  1.52453E-01  1.43271E-01  1.31863E-01  1.17899E-01  1.01242E-01
   7.98037E-02  5.55703E-02  2.82273E-02 -1.36009E-03 -3.30816E-02 -7.28265E-02 -1.24665E-01 -1.86169E-01 -2.46990E-01 -3.02977E-01
  -3.43039E-01 -3.59285E-01 -3.49791E-01 -3.13950E-01 -2.55566E-01 -1.79126E-01 -9.39694E-02 -1.47273E-02  3.96737E-02  6.22657E-02
   5.47104E-02  1.81182E-02 -2.65114E-02 -7.11690E-02 -1.02336E-01 -1.48426E-01 -2.17264E-01 -2.95155E-01 -3.40975E-01 -2.77538E-01
  -2.66805E-01 -6.06494E-01 -1.15265E+00 -1.44955E+00 -1.30946E+00 -9.52028E-01 -6.02320E-01 -3.13021E-01 -8.02104E-02  7.33303E-02
   8.77027E-02  3.15953E-02  3.13159E-02  3.68830E-02  4.22914E-02  4.67590E-02  4.94350E-02  5.03678E-02  4.78133E-02  4.12684E-02
   3.21987E-02  1.97659E-02  6.54797E-03 -5.57720E-03 -1.32143E-02 -1.42131E-02 -9.11396E-03  1.44679E-03  1.30374E-02  2.52250E-02
   3.57248E-02  4.42581E-02  5.25335E-02  5.81308E-02  6.28514E-02  6.61544E-02  6.94027E-02  7.28239E-02  7.62885E-02  7.91312E-02
   8.15073E-02  8.38061E-02  8.61155E-02  8.87496E-02  9.14559E-02  9.35819E-02  9.48956E-02  9.59877E-02  9.73249E-02  9.91144E-02
   1.01488E-01  1.03853E-01  1.05731E-01  1.06082E-01  1.04739E-01  1.02156E-01  9.92101E-02  9.63322E-02  9.29951E-02  8.90594E-02
   8.43896E-02  7.94901E-02  7.39551E-02  6.75182E-02  6.08177E-02  5.49898E-02  4.99501E-02  4.50010E-02  4.01310E-02  3.54673E-02
   3.13419E-02  2.78276E-02  2.46332E-02  2.19212E-02  1.95715E-02  1.74570E-02  1.52920E-02  1.32918E-02  1.18179E-02  1.09405E-02
   1.04001E-02  1.00183E-02  1.04799E-02  1.21230E-02  1.46945E-02  1.81186E-02  2.28493E-02  3.02632E-02  4.07396E-02  5.49883E-02
   6.65590E-02  7.41608E-02  9.49828E-02  1.28639E-01  1.65708E-01  1.90907E-01  1.90341E-01  1.65524E-01  1.28518E-01  9.86251E-02
   8.03405E-02  7.60170E-02  8.44313E-02  9.45464E-02  1.10445E-01  1.22480E-01  1.32141E-01  1.40664E-01  1.47548E-01  1.52385E-01
   1.54946E-01  1.55670E-01  1.54838E-01  1.52772E-01  1.50025E-01  1.46462E-01  1.41233E-01  1.33779E-01  1.24570E-01  1.14931E-01
   1.05642E-01  9.68900E-02  8.83651E-02  7.97636E-02  7.15543E-02  6.43781E-02  5.79533E-02  5.19185E-02  4.63292E-02  4.16845E-02
   3.79588E-02  3.49073E-02  3.19016E-02  2.94618E-02  2.87770E-02  2.95552E-02  3.12581E-02  3.37059E-02  3.69139E-02  4.05378E-02
   4.44242E-02  4.87582E-02  5.33738E-02  5.78874E-02  6.18715E-02  6.49393E-02  6.69829E-02  6.80716E-02  6.92649E-02  7.10295E-02
   7.26920E-02  7.34547E-02  7.28740E-02  7.17136E-02  7.01137E-02  6.76083E-02  6.41735E-02  6.06125E-02  5.76750E-02  5.48179E-02
   5.17999E-02  4.85833E-02  4.53333E-02  4.24422E-02  3.93328E-02  3.57366E-02  3.18226E-02  2.83785E-02  2.56876E-02  2.30475E-02
   2.00175E-02  1.67672E-02  1.33071E-02  8.91454E-03  3.03965E-03 -4.04683E-03 -1.14444E-02 -1.89661E-02 -2.72542E-02 -3.70108E-02
  -4.88487E-02 -6.23064E-02 -7.64436E-02 -9.06368E-02 -1.04739E-01 -1.18230E-01 -1.30039E-01 -1.40083E-01 -1.49120E-01 -1.57247E-01
  -1.63038E-01 -1.65263E-01 -1.65173E-01 -1.63869E-01 -1.61012E-01 -1.55933E-01 -1.49180E-01 -1.41805E-01 -1.34569E-01 -1.27738E-01
  -1.21040E-01 -1.14006E-01 -1.06557E-01 -9.85608E-02 -8.99121E-02 -8.05201E-02 -7.07270E-02 -6.10321E-02 -5.15070E-02 -4.27583E-02
  -3.45675E-02 -2.63154E-02 -1.80816E-02 -1.05381E-02 -4.43654E-03  1.04292E-03  7.16514E-03  1.32270E-02  1.78071E-02  2.12576E-02
   2.47804E-02  2.83441E-02  3.13606E-02  3.35762E-02  3.52705E-02  3.69814E-02  3.89267E-02  4.01847E-02  4.07715E-02  4.15209E-02
   4.26260E-02  4.41264E-02  4.57510E-02  4.76994E-02  4.97127E-02  5.09813E-02  5.16690E-02  5.18890E-02  5.17959E-02  5.17734E-02
   5.17201E-02  5.15828E-02  5.15146E-02  5.16344E-02  5.17125E-02  5.15873E-02  5.15780E-02  5.23653E-02  5.38048E-02  5.39887E-02
   5.22092E-02  5.04391E-02  5.00818E-02  5.02449E-02  5.00243E-02  5.01745E-02  5.11035E-02  5.17693E-02  5.11159E-02  5.00660E-02
   5.03185E-02  5.15397E-02  5.27519E-02  5.36623E-02  5.46290E-02  5.61085E-02  5.74831E-02  5.83791E-02  5.90523E-02  6.00842E-02
   6.14222E-02  6.19782E-02  6.16414E-02  6.11789E-02  6.12253E-02  6.19137E-02  6.30194E-02  6.46708E-02  6.66521E-02  6.80597E-02
   6.88314E-02  6.97271E-02  7.16355E-02  7.41982E-02  7.64360E-02  7.74713E-02  7.73047E-02  7.68247E-02  7.71600E-02  7.83272E-02
   7.95955E-02  8.03638E-02  8.07597E-02  8.13961E-02  8.25512E-02  8.40120E-02  8.48675E-02  8.54268E-02  8.70177E-02  8.93769E-02
   9.14904E-02  9.31557E-02  9.48813E-02  9.72390E-02  9.97345E-02  1.01713E-01  1.03916E-01  1.07539E-01  1.12298E-01  1.17006E-01
   1.21367E-01  1.25457E-01  1.29007E-01  1.32566E-01
 NY background values follow
     7.622E-02    7.603E-02    7.583E-02    7.564E-02    7.544E-02    7.524E-02    7.505E-02    7.485E-02    7.466E-02    7.446E-02
     7.426E-02    7.407E-02    7.387E-02    7.368E-02    7.348E-02    7.328E-02    7.309E-02    7.289E-02    7.270E-02    7.250E-02
     7.230E-02    7.211E-02    7.191E-02    7.172E-02    7.152E-02    7.132E-02    7.113E-02    7.093E-02    7.073E-02    7.054E-02
     7.034E-02    7.015E-02    6.995E-02    6.975E-02    6.956E-02    6.936E-02    6.916E-02    6.897E-02    6.877E-02    6.857E-02
     6.838E-02    6.818E-02    6.798E-02    6.779E-02    6.759E-02    6.740E-02    6.720E-02    6.700E-02    6.681E-02    6.661E-02
     6.641E-02    6.622E-02    6.602E-02    6.582E-02    6.563E-02    6.543E-02    6.523E-02    6.504E-02    6.484E-02    6.464E-02
     6.444E-02    6.425E-02    6.405E-02    6.385E-02    6.366E-02    6.346E-02    6.326E-02    6.307E-02    6.287E-02    6.267E-02
