 
 $NMID
 ID=''
 FMTDAT='(2E13.5)'
 TRAMP=   1.00000E+0
 VOLUME=   1.00000E+0
 $END
  -1.55787E+2   3.94604E+1
  -4.11095E+2   9.02259E+2
   1.99392E+2   4.23030E+2
   9.26130E+2   8.08175E+2
   1.28323E+3  -1.46940E+3
   3.96446E+2   3.44105E+1
   5.15339E+2   3.93482E+2
   3.09219E+2  -1.00771E+3
  -1.68408E+3   8.32774E+2
  -1.43463E+3  -3.89768E+2
   3.02067E+3  -1.61678E+3
   4.44213E+2  -1.19207E+1
   1.19348E+3   1.29834E+3
  -1.35726E+3   5.65059E+2
  -2.49411E+3  -2.73981E+2
   1.78631E+3  -4.45697E+3
   1.72420E+3   1.90904E+3
  -1.80650E+3   9.81596E+2
  -1.37499E+3  -9.19903E+2
  -2.55317E+3  -1.40281E+3
   1.39233E+3  -2.70732E+3
   4.61934E+2   1.07153E+3
  -2.29936E+3   2.67251E+3
  -2.16593E+3  -1.34828E+3
   2.12272E+3  -2.62590E+3
   4.51786E+2   2.95154E+3
  -7.55811E+2  -3.26824E+2
  -2.49722E+3  -6.65853E+2
   1.81231E+2  -4.69818E+3
   4.10060E+3  -1.81324E+3
   2.59545E+3   1.58201E+3
  -5.69872E+2   1.79653E+3
  -3.60128E+3  -8.85415E+2
  -5.45205E+2  -1.99970E+3
   2.50878E+2  -2.81780E+3
  -1.20021E+3  -2.62684E+3
   2.22443E+3  -3.11801E+3
   4.13149E+3   7.73196E+2
   1.17746E+3   2.55874E+2
   2.61076E+3   2.67544E+3
   1.44534E+3   3.10186E+3
  -2.71471E+3   8.22159E+2
  -2.61170E+3  -4.18225E+3
   2.83081E+3  -4.24247E+3
   3.97143E+3  -5.15414E+2
   2.26195E+3  -8.24197E+2
  -1.45110E+2   9.32217E+2
   5.33833E+2   4.41584E+3
  -1.69398E+2   4.10689E+3
  -2.92929E+3   2.08059E+3
  -1.70430E+3   1.35586E+3
   7.05533E+2  -1.30483E+3
   4.96140E+3   1.36955E+3
   2.67020E+3   3.37086E+3
   1.51549E+2   3.77276E+3
  -6.87481E+2   1.85561E+3
  -1.40026E+3   2.44572E+3
  -4.19926E+3  -1.18542E+2
  -1.57656E+3  -3.63719E+3
   2.10954E+3  -2.47488E+3
   4.37461E+3   8.81939E+2
   2.73549E+3   2.73284E+3
   2.33079E+3   1.97390E+3
  -1.52666E+3   2.18852E+3
   2.55452E+3  -3.03687E+1
   2.14368E+3   3.91344E+3
  -1.60944E+3   3.79819E+3
  -4.17081E+3   5.85204E+2
  -2.19103E+3  -2.42814E+3
  -4.97335E+2  -4.67693E+2
  -1.03580E+3  -2.85942E+2
  -1.92879E+3  -1.84904E+3
   6.84616E+2  -1.47590E+3
  -2.88823E+3  -1.12413E+3
   1.03898E+3  -2.70304E+3
  -4.55335E+2  -1.46474E+3
   2.71571E+0   4.81242E+2
   1.24139E+2  -3.22150E+3
  -3.36150E+2  -1.01937E+3
   3.34565E+2   1.50694E+3
  -1.92071E+3   9.31228E+2
  -8.39893E+2  -9.46478E+2
   3.34173E+2  -1.02538E+3
  -5.35196E+2   9.97734E+2
  -2.60226E+3   2.27141E+2
  -4.76029E+3  -1.61078E+2
  -3.33020E+2  -5.65731E+3
   1.09082E+2  -1.92107E+3
   1.34030E+3   2.10259E+3
  -8.41622E+2   1.69382E+3
  -2.29745E+3   1.27902E+3
   1.26215E+3  -4.42048E+2
   1.18338E+3   2.99046E+3
  -3.03310E+3   3.08203E+3
  -3.28827E+3  -1.15211E+3
   3.58906E+2  -2.17086E+3
   2.99792E+3  -1.38238E+3
  -4.34751E+2   1.15747E+3
  -3.58229E+3   2.31298E+3
  -4.57250E+3  -2.37749E+3
   9.97791E+2  -1.73342E+3
   2.72529E+3   2.02197E+3
   5.32455E+2   5.30366E+3
  -9.44922E+2   1.22426E+3
  -3.15334E+3  -1.52004E+3
  -9.04751E+2   1.02627E+3
  -2.71713E+3  -1.31300E+2
  -2.35391E+3  -7.21282E+2
  -2.64584E+3  -3.77427E+3
   2.14009E+3  -1.42843E+3
   4.20515E+3  -6.72132E+2
   1.61200E+3   3.52499E+2
  -8.72011E+2   2.70124E+3
  -2.11770E+3   1.67551E+3
  -1.05503E+3   2.29346E+3
  -1.47412E+3  -9.82786E+2
  -1.20035E+3   8.29332E+1
   1.00102E+3  -7.69961E+2
  -1.07618E+3   7.93296E+2
   1.58197E+3  -2.85640E+2
   7.26752E+1   6.88067E+2
  -9.33749E+2  -3.87969E+2
   4.06541E+2  -1.28715E+3
   1.29322E+3  -1.48638E+3
   3.16256E+3   3.45114E+3
  -5.33506E+2  -7.37208E+1
   2.40814E+3  -2.02964E+3
   1.96756E+3   1.88852E+3
   1.70827E+3   2.43604E+2
  -8.53192E+2  -1.54052E+2
  -6.10941E+1  -1.81119E+3
   1.78666E+3  -1.11684E+3
   1.66344E+3  -3.23818E+2
   1.88452E+3   1.35550E+2
  -2.04503E+3   1.99878E+3
  -8.95838E+2  -2.06741E+3
  -2.89347E+2  -1.24286E+3
   1.15482E+3  -1.43906E+3
   9.06209E+2   1.73665E+2
   1.22279E+3  -2.29069E+3
  -5.23102E+2  -1.60417E+3
   2.49478E+3   6.24397E+2
   2.78211E+3   3.22530E+3
   3.72352E+2   2.70745E+3
  -3.75537E+2   1.54481E+1
   1.91125E+3  -9.39846E+2
  -8.04147E+1   2.34327E+3
  -2.51425E+3   2.49743E+2
   4.78753E+2  -2.32178E+2
   9.33731E+2   1.31493E+3
  -2.83581E+3   1.07247E+3
   1.04558E+2   8.86169E+1
  -3.19331E+2  -7.58383E+2
  -2.62001E+2   1.74277E+3
   1.30733E+3   2.41415E+3
   1.42997E+3   3.42320E+3
   2.90981E+1  -5.20107E+0
   5.81619E+2   1.06786E+3
   1.12295E+3   1.70307E+3
  -1.39950E+3   1.69163E+3
  -7.24759E+2  -1.73507E+3
   6.70050E+2   2.75339E+2
  -4.70205E+2   1.53300E+3
   1.83021E+2   4.14981E+2
   2.99257E+2   1.07273E+3
  -1.72473E+3   5.05266E+2
  -1.19501E+3  -1.53705E+3
   1.13015E+3   1.46548E+3
   1.85362E+2   1.08318E+3
  -1.49736E+3   1.77317E+3
  -1.99976E+2   2.45429E+2
   9.35010E+2  -2.61171E+2
  -2.37475E+3  -4.50825E+2
   5.31928E+2  -8.31377E+2
   1.58951E+2   5.74436E+2
   1.02465E+3   4.86132E+2
   1.15583E+3  -3.47393E+0
  -9.68385E+2   1.02921E+3
   3.37969E+2   2.84162E+3
  -1.67999E+3  -9.36563E+2
  -2.84431E+2  -1.88304E+3
   5.90000E+2   1.11131E+3
   1.46969E+2   2.23765E+2
  -1.39338E+3  -2.56173E+3
   3.42918E+2  -4.67020E+2
  -1.55603E+0   5.44793E+2
  -1.27734E+3   1.23765E+3
  -2.10872E+3   6.68297E+2
  -1.74751E+3   1.27794E+3
  -4.17097E+2  -3.25227E+2
   5.94296E+2   1.63393E+2
   1.06921E+3  -1.65405E+3
  -2.29459E+3   1.47412E+2
   3.06185E+2   8.16067E+2
  -7.27515E+2  -1.56060E+3
   1.83760E+3  -1.51984E+2
  -1.49219E+3  -1.93265E+2
   2.31676E+2   8.15198E+2
   1.18663E+3  -4.57032E+2
   1.81102E+3  -7.01549E+2
  -4.57206E+2   1.42066E+3
  -2.44456E+3  -8.16850E+2
  -2.23947E+2  -2.25703E+3
  -9.36012E+2  -6.87341E+2
   6.57082E+2  -5.90201E+2
  -6.56523E+2   8.76750E+1
   1.42727E+3   8.58872E+1
   7.98312E+2   2.85364E+2
   1.21414E+3   1.82119E+3
   2.96465E+2   8.18634E+1
  -2.55498E+3   1.55987E+2
  -1.08444E+3  -1.51020E+3
   2.48040E+3   1.83980E+3
   2.95236E+3  -6.00719E+2
  -1.17702E+3   1.17686E+3
  -3.29159E+2  -1.39056E+3
   4.81216E+2  -6.31784E+1
  -3.62665E+2  -4.87943E+2
  -2.03411E+2  -2.94837E+2
   9.81304E+2  -2.15013E+2
   6.07682E+2  -2.43264E+3
   3.70731E+2  -1.07987E+3
   7.28175E+2   3.11297E+2
   1.56562E+3  -1.78659E+3
   1.65351E+2  -6.45914E+2
   3.99238E+2  -8.24206E+2
  -2.66479E+2   1.57120E+3
  -9.38236E+2  -1.51313E+2
  -1.10440E+3  -1.16560E+2
  -9.35254E+2  -1.17028E+3
   9.67075E+2  -9.84504E+2
   1.03087E+2   1.24291E+3
  -3.29675E+3  -1.43915E+2
  -7.72732E+2  -4.52160E+2
   1.28413E+3  -1.75072E+3
   4.39757E+1  -3.92106E+2
   1.39418E+2   1.10587E+3
  -1.71262E+3   1.45250E+2
  -8.91880E+1  -6.47373E+2
   1.43964E+3  -9.47019E+2
  -3.67655E+1   1.26845E+3
  -3.64560E+2   1.19715E+3
   9.38985E+2  -1.74446E+2
   3.13540E+2  -1.04543E+3
  -4.00703E+2   5.76306E+2
  -4.06259E+2  -8.31588E+2
  -3.18435E+2  -3.71942E+2
  -1.66591E+3  -1.70319E+3
   7.37495E+1  -1.42149E+2
   2.91245E+3  -8.63663E+2
  -4.16206E+2   1.41678E+3
  -1.73690E+3  -2.51684E+3
  -1.16291E+3  -1.89302E+3
   1.44632E+3   2.66929E+2
   3.30089E+2   2.01703E+2
  -2.06614E+2   1.50515E+2
  -4.83551E+2   5.57855E+2
   8.39499E+2   1.25501E+3
  -1.15922E+3  -4.75151E+2
  -2.47130E+3  -1.05202E+3
  -1.44554E+1  -1.78392E+3
   8.71253E+2  -7.71366E+2
  -1.72910E+2  -1.38636E+3
  -1.72388E+3   1.97853E+3
   4.68155E+2   9.61978E+2
   1.26443E+3  -1.56557E+3
  -1.39506E+3  -9.06606E+2
   2.70357E+2  -9.26467E+1
  -7.09760E+2   1.85406E+3
   1.07083E+2  -3.05070E+3
   1.97382E+3   7.65103E+2
   5.16631E+2   1.66525E+3
  -1.86259E+3   3.41620E+2
  -1.33539E+3   4.63089E+2
  -1.14412E+3  -7.97082E+2
  -1.71465E+3  -1.41473E+3
   1.74286E+2  -8.77443E+2
   2.43314E+2   6.28075E+1
  -8.67708E+1  -5.23357E+2
  -9.04992E+2  -1.37166E+3
   3.20379E+3   1.44935E+3
  -6.41681E+2  -6.63336E+1
   1.11234E+2  -1.05188E+2
   1.02915E+3  -1.40158E+3
   1.42158E+3  -1.63822E+3
  -4.84863E+2  -6.73516E+2
   1.94099E+2   8.38775E+2
   1.72132E+3  -2.04273E+2
   3.64875E+2  -1.66686E+3
  -1.66211E+3   1.23076E+3
   1.22095E+3   3.69769E+1
  -7.16824E+2   8.20751E+2
  -4.40402E+1  -9.16724E+2
   1.22253E+3   1.59072E+1
  -7.36730E+2   4.70084E+2
   8.91076E+2  -8.85027E+2
  -1.05678E+3  -3.61647E+2
   1.99638E+2   1.51974E+3
  -4.66312E+1   1.38033E+3
  -5.94773E+2  -1.95419E+1
  -2.48252E+3  -4.16317E+2
  -1.15855E+3  -6.89418E+2
   2.10875E+3  -2.14265E+2
  -4.04613E+2   1.22201E+3
  -5.65364E+2  -8.35350E+2
   1.51225E+3  -1.06355E+1
   1.42248E+2   2.68676E+3
  -6.13700E+2   6.45026E+2
  -1.15072E+3   2.00688E+2
  -2.73873E+2   1.32335E+3
  -3.85278E+2   4.27277E+2
  -6.28685E+2  -3.33094E+3
  -5.70323E+2  -1.02491E+3
  -1.69794E+3   6.61265E+0
   9.61142E+2  -4.15224E+2
   2.84314E+2  -9.06537E+2
   7.63219E+2   8.94910E+2
   1.05370E+3   2.28023E+1
   3.75463E+2  -7.85578E+2
  -1.85886E+2  -5.13825E+2
   1.22112E+3   7.76144E+2
   9.08998E+1  -1.88503E+2
   9.03925E+2  -9.37088E+2
  -1.14756E+3   1.49814E+3
   2.39787E+2  -2.02521E+2
  -3.58583E+2   1.61380E+3
   2.75339E+2  -1.38731E+3
   3.33442E+2  -1.85464E+2
   3.83072E+2   1.01784E+3
   1.03299E+2   2.71335E+3
   6.94163E+2   1.72269E+3
  -2.36052E+3  -5.68943E+1
  -1.44346E+3   4.59661E+2
   1.56747E+3  -3.84495E+2
   1.99787E+2   1.37494E+3
  -1.01294E+1   9.69240E+2
   8.58749E+2   9.97038E+2
   2.01223E+3   9.98025E+2
  -1.31938E+3  -1.49195E+3
   8.02759E+2   1.08130E+2
  -1.01372E+3  -8.29151E+2
   4.13210E+2  -7.55788E+2
  -4.02537E+2   4.25212E+1
  -2.27467E+2  -5.18477E+2
   1.39472E+1   1.26680E+3
  -1.85700E+3   3.38171E+2
   1.76824E+3  -4.44639E+2
  -1.01051E+3  -3.98898E+2
   2.04958E+1   4.71539E+2
  -1.87849E+3  -6.65890E+2
  -5.39152E+2   9.70248E+2
   9.57880E+2   8.44780E+2
  -1.30321E+3  -4.52445E+2
   1.66254E+2  -1.36444E+3
  -1.26335E+3  -7.05684E+1
  -2.97667E+2  -1.56578E+3
  -7.57618E+2   1.61393E+3
  -5.82233E+2  -8.52669E+2
  -1.62646E+3   9.54414E+2
  -7.40944E+2   1.40749E+3
   3.21195E+2  -6.54424E+2
   2.34649E+2  -9.60129E+1
   8.65987E+2  -1.81841E+3
  -8.36060E+2  -1.18789E+3
   1.16498E+3  -1.10369E+3
   9.32191E+1   2.39400E+3
  -1.29112E+3  -1.93097E+2
