 LCModel (Version 6.3-1N) Copyright: S.W. Provencher.          Ref.: Magn. Reson. Med. 30:672-679 (1993).                
 Slice_N1@20_21  02-Jun-2023 14:37:17
 27 lines in following concentration table = NCONC+1
    Conc.  %SD /Cr+PCr  Metabolite                                         
 1.44E-06  25% 1.7E-04 Mac                                                 
 6.90E-02  11%   8.000 Cr                                                  
    0.000 999%   0.000 PCr                                                 
 9.04E-02  12%  10.488 Ins                                                 
 7.34E-02  11%   8.507 NAA                                                 
 5.16E-02  19%   5.983 Tau                                                 
 1.63E-02  16%   1.887 PCho                                                
    0.000 999%   0.000 GPC                                                 
 6.15E-02  18%   7.137 Glu                                                 
 2.04E-02  42%   2.366 Gln                                                 
 9.48E-03  95%   1.099 Ala                                                 
 2.20E-02  70%   2.553 Asc                                                 
 9.82E-03  66%   1.139 Asp                                                 
 4.16E-03  88%   0.483 GABA                                                
 6.97E-03  58%   0.808 Glc                                                 
 1.90E-02  27%   2.207 GSH                                                 
    0.000 999%   0.000 Lac                                                 
    0.000 999%   0.000 NAAG                                                
    0.000 999%   0.000 PE                                                  
 1.63E-02  16%   1.887 GPC+PCho                                            
 7.34E-02  11%   8.507 NAA+NAAG                                            
 8.19E-02  17%   9.503 Glu+Gln                                             
 6.90E-02  11%   8.000 Cr+PCr                                              
 7.34E-02  11%   8.507 NAA+NAAG                                            
 6.90E-02  11%   8.000 Cr+PCr                                              
 8.19E-02  17%   9.503 Glu+Gln                                             
   6 lines in following misc. output table
  FWHM = 0.047 ppm    S/N =   2                                            
  Data shift = 0.000 ppm                                                   
  Ph:  25 deg      -2.1 deg/ppm                                            
  alphaB,S = 3.1E+01,   7.8E+01                                            
   18 spline knots.   Ns = 9(1)                                            
   2 inflections.     1 extrema                                            
  654 points on ppm-axis = NY
      4.000000     3.994181     3.988363     3.982544     3.976726     3.970907     3.965088     3.959270     3.953451     3.947633
      3.941814     3.935995     3.930177     3.924358     3.918540     3.912721     3.906902     3.901084     3.895265     3.889446
      3.883628     3.877809     3.871991     3.866172     3.860353     3.854535     3.848716     3.842898     3.837079     3.831260
      3.825442     3.819623     3.813805     3.807986     3.802167     3.796349     3.790530     3.784712     3.778893     3.773074
      3.767256     3.761437     3.755619     3.749800     3.743981     3.738163     3.732344     3.726526     3.720707     3.714888
      3.709070     3.703251     3.697433     3.691614     3.685795     3.679977     3.674158     3.668339     3.662521     3.656702
      3.650884     3.645065     3.639246     3.633428     3.627609     3.621791     3.615972     3.610153     3.604335     3.598516
      3.592698     3.586879     3.581060     3.575242     3.569423     3.563605     3.557786     3.551967     3.546149     3.540330
      3.534512     3.528693     3.522874     3.517056     3.511237     3.505419     3.499600     3.493781     3.487963     3.482144
      3.476326     3.470507     3.464688     3.458870     3.453051     3.447232     3.441414     3.435595     3.429777     3.423958
      3.418139     3.412321     3.406502     3.400684     3.394865     3.389046     3.383228     3.377409     3.371591     3.365772
      3.359953     3.354135     3.348316     3.342498     3.336679     3.330860     3.325042     3.319223     3.313405     3.307586
      3.301767     3.295949     3.290130     3.284312     3.278493     3.272674     3.266856     3.261037     3.255219     3.249400
      3.243581     3.237763     3.231944     3.226125     3.220307     3.214488     3.208670     3.202851     3.197032     3.191214
      3.185395     3.179577     3.173758     3.167939     3.162121     3.156302     3.150484     3.144665     3.138846     3.133028
      3.127209     3.121391     3.115572     3.109753     3.103935     3.098116     3.092298     3.086479     3.080660     3.074842
      3.069023     3.063205     3.057386     3.051567     3.045749     3.039930     3.034111     3.028293     3.022474     3.016656
      3.010837     3.005018     2.999200     2.993381     2.987563     2.981744     2.975925     2.970107     2.964288     2.958470
      2.952651     2.946832     2.941014     2.935195     2.929377     2.923558     2.917739     2.911921     2.906102     2.900284
      2.894465     2.888646     2.882828     2.877009     2.871191     2.865372     2.859553     2.853735     2.847916     2.842098
      2.836279     2.830460     2.824642     2.818823     2.813004     2.807186     2.801367     2.795549     2.789730     2.783911
      2.778093     2.772274     2.766456     2.760637     2.754818     2.749000     2.743181     2.737363     2.731544     2.725725
      2.719907     2.714088     2.708270     2.702451     2.696632     2.690814     2.684995     2.679177     2.673358     2.667539
      2.661721     2.655902     2.650084     2.644265     2.638446     2.632628     2.626809     2.620991     2.615172     2.609353
      2.603535     2.597716     2.591897     2.586079     2.580260     2.574442     2.568623     2.562804     2.556986     2.551167
      2.545349     2.539530     2.533711     2.527893     2.522074     2.516256     2.510437     2.504618     2.498800     2.492981
      2.487163     2.481344     2.475525     2.469707     2.463888     2.458070     2.452251     2.446432     2.440614     2.434795
      2.428977     2.423158     2.417339     2.411521     2.405702     2.399884     2.394065     2.388246     2.382428     2.376609
      2.370790     2.364972     2.359153     2.353335     2.347516     2.341697     2.335879     2.330060     2.324242     2.318423
      2.312604     2.306786     2.300967     2.295149     2.289330     2.283511     2.277693     2.271874     2.266056     2.260237
      2.254418     2.248600     2.242781     2.236963     2.231144     2.225325     2.219507     2.213688     2.207870     2.202051
      2.196232     2.190414     2.184595     2.178777     2.172958     2.167139     2.161321     2.155502     2.149683     2.143865
      2.138046     2.132228     2.126409     2.120590     2.114772     2.108953     2.103135     2.097316     2.091497     2.085679
      2.079860     2.074042     2.068223     2.062404     2.056586     2.050767     2.044949     2.039130     2.033311     2.027493
      2.021674     2.015856     2.010037     2.004218     1.998400     1.992581     1.986763     1.980944     1.975126     1.969307
      1.963489     1.957670     1.951852     1.946033     1.940215     1.934397     1.928578     1.922760     1.916941     1.911123
      1.905304     1.899486     1.893667     1.887849     1.882030     1.876212     1.870393     1.864575     1.858756     1.852938
      1.847119     1.841301     1.835482     1.829664     1.823845     1.818027     1.812208     1.806390     1.800571     1.794753
      1.788934     1.783116     1.777297     1.771479     1.765660     1.759842     1.754023     1.748205     1.742386     1.736568
      1.730749     1.724931     1.719113     1.713294     1.707476     1.701657     1.695839     1.690020     1.684202     1.678383
      1.672565     1.666746     1.660928     1.655109     1.649291     1.643472     1.637654     1.631835     1.626017     1.620198
      1.614380     1.608561     1.602743     1.596924     1.591106     1.585287     1.579469     1.573650     1.567832     1.562013
      1.556195     1.550376     1.544558     1.538739     1.532921     1.527102     1.521284     1.515465     1.509647     1.503829
      1.498010     1.492192     1.486373     1.480555     1.474736     1.468918     1.463099     1.457281     1.451462     1.445644
      1.439825     1.434007     1.428188     1.422370     1.416551     1.410733     1.404914     1.399096     1.393277     1.387459
      1.381640     1.375822     1.370003     1.364185     1.358366     1.352548     1.346729     1.340911     1.335092     1.329274
      1.323455     1.317637     1.311818     1.306000     1.300182     1.294363     1.288545     1.282726     1.276908     1.271089
      1.265271     1.259452     1.253634     1.247815     1.241997     1.236178     1.230360     1.224541     1.218723     1.212904
      1.207086     1.201267     1.195449     1.189630     1.183812     1.177993     1.172175     1.166356     1.160538     1.154719
      1.148901     1.143082     1.137264     1.131445     1.125627     1.119808     1.113990     1.108171     1.102353     1.096534
      1.090716     1.084898     1.079079     1.073261     1.067442     1.061624     1.055805     1.049987     1.044168     1.038350
      1.032531     1.026713     1.020894     1.015076     1.009257     1.003439     0.997620     0.991802     0.985983     0.980165
      0.974346     0.968528     0.962709     0.956891     0.951072     0.945254     0.939435     0.933617     0.927798     0.921980
      0.916161     0.910343     0.904524     0.898706     0.892887     0.887069     0.881251     0.875432     0.869614     0.863795
      0.857977     0.852158     0.846340     0.840521     0.834703     0.828884     0.823066     0.817247     0.811429     0.805610
      0.799792     0.793973     0.788155     0.782336     0.776518     0.770699     0.764881     0.759062     0.753244     0.747425
      0.741607     0.735788     0.729970     0.724151     0.718333     0.712514     0.706696     0.700877     0.695059     0.689240
      0.683422     0.677603     0.671785     0.665967     0.660148     0.654330     0.648511     0.642693     0.636874     0.631056
      0.625237     0.619419     0.613600     0.607782     0.601963     0.596145     0.590326     0.584508     0.578689     0.572871
      0.567052     0.561234     0.555415     0.549597     0.543778     0.537960     0.532141     0.526323     0.520504     0.514686
      0.508867     0.503049     0.497230     0.491412     0.485593     0.479775     0.473956     0.468138     0.462319     0.456501
      0.450682     0.444864     0.439045     0.433227     0.427408     0.421590     0.415771     0.409953     0.404134     0.398316
      0.392497     0.386679     0.380860     0.375042     0.369223     0.363405     0.357586     0.351767     0.345949     0.340130
      0.334312     0.328493     0.322675     0.316856     0.311038     0.305219     0.299401     0.293582     0.287764     0.281945
      0.276127     0.270308     0.264490     0.258671     0.252853     0.247034     0.241216     0.235397     0.229579     0.223760
      0.217942     0.212123     0.206305     0.200486
 NY phased data points follow
  -3.14098E-01 -3.40626E-01  3.34628E-03 -2.75596E-01 -3.52954E-01 -1.77420E-01 -3.13421E-01 -8.07580E-02 -3.79474E-01 -4.56046E-01
   1.53974E-01  1.46721E-01  1.94061E-01  4.04112E-02  1.84523E-01  4.71742E-01  2.79604E-01  3.51821E-01  1.85443E-01  2.19751E-01
   3.24789E-01  3.03461E-01  2.81312E-01  1.30794E-01  7.74035E-02 -7.78310E-02 -3.40986E-02 -2.38651E-01 -2.75128E-01 -2.03712E-01
  -6.21737E-01 -2.31318E-01  7.85749E-02 -3.31621E-01 -1.99079E-01 -6.20863E-02 -8.56032E-02 -1.90232E-01 -2.71359E-01 -8.32313E-02
  -3.01219E-01 -8.97866E-02  3.00666E-01  2.67670E-01  5.28978E-01  4.56677E-01  1.61017E-01  1.90842E-01  4.15516E-01  4.37030E-01
   1.45301E-01  1.33056E-01  9.55325E-02  2.84658E-01  4.02683E-01 -7.52486E-02 -3.63615E-02  1.11368E-02 -3.02813E-01 -1.98405E-01
  -1.53050E-01 -4.09282E-01 -1.29477E-01 -3.12874E-01 -4.35835E-01 -5.24049E-02 -1.32068E-01  1.01542E-01 -8.48031E-02 -9.72706E-02
  -3.08678E-04  2.61760E-01  4.50229E-02 -4.15654E-01  8.01005E-02 -1.29886E-01  6.45237E-03 -1.75644E-01 -2.70086E-01 -3.55198E-01
  -5.48677E-01  2.40600E-02 -4.72082E-01 -2.15486E-01  2.06370E-01 -2.06580E-01  1.19255E-01  1.94219E-01  2.29151E-01  6.84679E-01
   3.53922E-01  1.29300E-01  3.07107E-01  1.41621E-01 -4.61062E-02 -1.49632E-01  2.16115E-01  2.12261E-01  2.19722E-02  3.47173E-02
  -1.85280E-01 -1.04283E-01  3.71214E-02 -6.23113E-02  3.13533E-03  8.30514E-02  1.05410E-01  4.73806E-01  4.37915E-01  3.12014E-01
   3.41220E-01  4.01019E-01  4.44211E-01  3.06416E-01  5.94331E-01  3.44397E-01  9.54236E-02  9.13682E-02  1.24940E-01  5.34617E-01
   4.55325E-01  2.18319E-01  1.48816E-01  2.71398E-02 -5.25127E-02  1.37454E-01  3.48126E-02 -2.11142E-01 -3.88703E-01 -1.87150E-01
  -2.44729E-01 -5.08934E-01 -1.24066E-01 -1.73535E-01 -3.48996E-01 -5.81793E-01 -2.84681E-01 -4.73096E-01 -8.18885E-01 -5.85827E-01
  -5.89960E-01 -1.68344E-01 -6.42818E-01 -4.05971E-01  2.08454E-01 -9.78578E-02 -3.91475E-02  9.00912E-03  1.72303E-01  2.23034E-01
   1.01831E-01 -4.89979E-03  1.53978E-01  3.44788E-01  6.24581E-02 -1.60433E-02  2.77611E-01  4.14210E-01  6.93089E-01  4.15080E-01
   2.46401E-01  5.36271E-01  1.86966E-01  3.40582E-01  3.31955E-01  4.47475E-01  5.71028E-01  3.60454E-01  4.91509E-01  1.54310E-01
  -2.11265E-02 -2.80729E-01 -5.40301E-01 -5.89906E-01 -4.36531E-01 -6.19261E-01 -4.19524E-01 -2.54620E-02 -5.22638E-01 -1.26157E-01
  -3.34152E-01 -4.56853E-01 -3.09282E-01 -4.61094E-01  1.12822E-01 -1.43154E-01 -3.14342E-01 -3.88236E-01 -3.94352E-01 -3.87623E-01
  -5.89335E-01 -2.86338E-01 -5.05765E-01 -4.13861E-01  5.17624E-02 -1.84297E-01 -1.90200E-01 -8.38755E-02 -3.18663E-02 -4.22569E-02
  -3.20309E-01 -2.75386E-01  8.54896E-02  1.14105E-01 -1.64176E-01  7.68171E-04  6.62594E-02 -2.33921E-02 -8.82740E-02  3.76351E-02
   1.23078E-01  8.13149E-02  3.87524E-02 -1.44210E-01  2.66549E-01  5.44156E-02 -1.81079E-01 -1.03225E-01  1.06982E-01  4.93017E-01
  -8.60078E-02 -8.83190E-02  8.37564E-02 -2.39138E-02  1.53964E-01 -9.80170E-03  1.75996E-01  3.27953E-01  1.34854E-01  1.85964E-01
   2.39188E-01  5.12177E-01  5.97865E-01  2.21455E-01  1.09582E-01  1.09142E-01 -1.58978E-01 -4.23780E-02  1.13427E-01  1.73174E-01
   3.13200E-02 -2.44260E-01  3.06905E-01  1.03309E-02 -4.87981E-01  4.65408E-02  1.76704E-01 -2.55532E-01 -6.07055E-02 -5.27264E-02
  -3.06481E-01  1.93748E-01  5.27560E-02  1.66497E-01  3.17926E-01  1.40423E-01  7.21067E-02 -2.24488E-01 -1.11450E-01  2.05005E-01
   8.94136E-02  2.08794E-01  5.39966E-01  2.01302E-02  1.21996E-01  2.89532E-01  2.76514E-01  5.65561E-02 -1.02374E-01  5.46238E-01
   4.78708E-01  3.65379E-01  1.06482E-01  1.74064E-03 -1.29419E-01 -8.71458E-02  2.90998E-01 -1.52104E-01 -1.09364E-01 -2.13465E-01
  -3.65839E-01 -6.53231E-02 -3.60296E-01 -3.11882E-01 -5.36333E-02 -4.12093E-01 -2.56340E-01  4.09519E-01  5.69935E-01  2.33531E-01
   2.62207E-01  7.23935E-01  2.08013E-01  2.12628E-02  1.02757E-01 -1.47272E-01  1.20985E-01 -1.56834E-01 -7.96435E-02  5.51372E-02
   1.32059E-02  1.17687E-01  1.24884E-01  2.95240E-01 -2.14316E-01 -1.53288E-01  3.48059E-01  2.63199E-01  1.32313E-01  1.55444E-01
   1.89889E-01  9.19608E-02  2.10948E-01  4.33566E-02  2.18802E-02  1.24189E-01  9.82880E-02  1.24989E-01 -1.76367E-01 -6.71733E-04
  -1.14474E-02 -1.65526E-01 -2.84101E-01 -3.23437E-01 -1.68091E-01 -3.28702E-01 -2.44243E-01 -2.92929E-01 -3.73451E-01 -4.17395E-01
   1.71240E-02  4.71290E-02 -1.80404E-01  2.24901E-01  1.73729E-01 -8.85836E-02 -1.90436E-01 -3.19906E-01 -3.87366E-01 -3.18333E-01
  -5.93354E-01 -3.64176E-01 -3.36235E-01 -5.87512E-01 -8.99324E-01 -1.01011E+00 -5.87728E-01 -3.85218E-01 -3.23958E-01 -2.53244E-01
   7.00075E-02  3.54000E-03  5.66779E-01  2.03178E-01 -7.58835E-02  2.64419E-01  1.70418E-01  2.08372E-03 -2.28035E-01  2.49804E-01
  -3.33959E-01  3.20192E-02  3.33679E-01 -6.95329E-02 -1.55592E-01 -1.99847E-01 -4.65991E-02  1.30360E-01  3.57906E-01 -8.64705E-03
   1.41848E-01  1.51855E-01  3.11322E-01  2.03160E-01  2.31921E-01  4.40382E-01  7.77829E-02  3.30613E-02  3.11802E-01  2.81131E-01
   2.79992E-01  3.09958E-01 -9.27661E-03  3.44670E-01 -3.35940E-03  1.01489E-01  2.71183E-01 -1.26556E-01  1.09418E-03  2.66085E-01
   5.19677E-01  3.58484E-01  1.64071E-01  1.46271E-01  4.72249E-01  1.55817E-01  2.01463E-01  1.94275E-01  1.10451E-01  2.81253E-01
   1.73836E-01  2.03042E-01 -2.47084E-01  1.79361E-01  9.19791E-02 -8.25628E-02  5.60474E-02 -4.21676E-01 -2.40014E-02 -1.97533E-01
  -3.29019E-01 -2.09406E-01 -1.74603E-01 -1.97579E-01 -4.83820E-01 -1.32924E-01 -1.79197E-01 -3.28813E-02  9.35523E-03 -1.04685E-01
  -2.89414E-01 -3.98135E-01  2.14675E-03 -1.55877E-01 -3.51080E-01 -2.55719E-01 -1.78165E-02 -4.35828E-02  1.10847E-01  6.17115E-03
  -1.77133E-01 -2.63137E-01 -2.39094E-01  1.18922E-01  2.91443E-01  2.57724E-01 -3.14046E-02 -7.25074E-02  7.90990E-02  2.79605E-01
  -2.04778E-03  1.89565E-01  1.84257E-01  2.39383E-01  2.15102E-01  2.58799E-02  3.13939E-01  1.70202E-02  5.60501E-02 -8.43118E-02
   2.89061E-01  1.24786E-01  6.06507E-02  1.21674E-01  3.73274E-03  3.79570E-01 -4.13972E-02  1.84988E-01 -6.89131E-02 -2.65075E-01
   5.99680E-02  1.70005E-02 -8.39038E-02 -1.23924E-01 -6.99720E-02  2.16669E-01  1.09338E-02 -2.51006E-01  1.45710E-01 -3.99071E-01
  -2.26695E-01 -2.52777E-01 -4.75909E-01  1.49047E-01 -1.26292E-01 -3.86168E-02  1.19026E-01 -1.19864E-01 -1.42658E-01 -1.13635E-01
   9.67410E-02  4.97533E-02 -1.63857E-02  1.37593E-01  6.39216E-02 -1.63141E-02  1.33644E-01  1.23682E-01 -2.04863E-01 -2.24469E-01
  -9.15202E-02  1.30540E-01  1.27392E-01 -1.39484E-01  9.45541E-02 -7.75238E-02 -7.97368E-02 -3.50828E-02 -1.86355E-01  1.06155E-01
  -9.97294E-02  7.89252E-02  1.53847E-01  5.72406E-02  8.80915E-02 -1.08060E-02  3.01851E-01  4.16464E-02 -1.70374E-01  1.40944E-01
   3.16823E-01  1.24671E-03  5.53404E-02  2.24325E-01  9.81169E-02  2.09669E-01  1.36351E-01  9.07580E-02  2.57855E-02  8.82144E-02
   1.37775E-01  1.99911E-01 -1.47431E-01 -1.33291E-01  1.95848E-02 -3.19647E-01 -1.52241E-01 -2.80906E-01 -4.32746E-01 -5.20857E-01
  -3.25388E-01 -1.50580E-01 -4.30566E-01 -4.33623E-02  4.35311E-02 -3.79363E-01 -1.74937E-01  8.38002E-02  1.30677E-01  8.54659E-03
  -9.69765E-02 -2.64114E-01 -1.34361E-01  7.60373E-02 -7.27677E-02  1.52391E-01  5.86014E-02  2.39943E-01 -8.29854E-02 -1.74291E-01
   1.84322E-01 -3.52149E-01  1.39153E-01  4.81955E-02 -2.70495E-01  2.82586E-01  1.97780E-01  3.19646E-01  5.16979E-01  2.21521E-01
  -8.89667E-02  1.60027E-02  4.00887E-02 -1.82924E-01  2.10374E-01 -1.62055E-01 -5.22884E-01  1.23652E-01  1.70201E-01 -4.92282E-02
  -2.95243E-01 -2.00116E-01  2.20779E-01  2.22803E-01  4.32962E-02 -1.42039E-02 -1.72453E-01  2.07013E-01  6.16440E-02 -9.44452E-02
   1.91035E-01 -1.05956E-01  2.17970E-01  2.63679E-02  2.24386E-02  1.12142E-01 -2.09962E-01 -5.80594E-02  1.37689E-01 -1.72029E-02
  -2.14974E-01  2.00534E-01  5.82245E-02 -1.05356E-01 -1.90757E-01 -1.27261E-01  2.03832E-01  8.72371E-02  5.92397E-02 -1.16003E-01
   1.25403E-02  1.53277E-01 -3.66744E-01 -6.13881E-02  2.54820E-01 -1.42866E-01  2.47442E-01  4.26437E-01 -1.19250E-01 -2.35324E-02
   2.09355E-01 -1.71660E-01 -1.87612E-01  3.84051E-02 -2.45683E-01 -3.48889E-01  2.08181E-01  7.96940E-02 -1.71750E-01  1.13838E-01
   1.03231E-01  1.19667E-01 -1.96584E-01 -5.82720E-02  1.55522E-01 -2.07705E-01 -7.83593E-02 -7.22660E-02 -2.14781E-01  1.98307E-01
   1.01695E-01 -4.13110E-02  2.46748E-01  3.71292E-02  5.16306E-02  2.32795E-01  7.42859E-03 -5.71774E-02  2.53946E-01  2.62518E-01
  -3.08991E-02 -1.29863E-01  1.37164E-01  1.31323E-01  1.79963E-01  5.46166E-01  2.95203E-01  3.69185E-03  1.09783E-01 -5.67287E-02
  -1.84704E-01  5.01457E-02  1.95645E-01  4.83676E-02
 NY points of the fit to the data follow
   8.92196E-03  1.39775E-02  1.32337E-02  7.06280E-03 -2.70342E-03 -1.39276E-02 -2.50932E-02 -3.63203E-02 -3.23468E-02 -1.15648E-02
   1.86690E-02  4.92155E-02  8.03825E-02  1.23629E-01  1.85965E-01  2.60151E-01  3.36305E-01  4.01712E-01  4.32002E-01  4.11405E-01
   3.47478E-01  2.57463E-01  1.58845E-01  6.48160E-02 -1.14431E-02 -5.81615E-02 -8.28052E-02 -1.03964E-01 -1.22535E-01 -1.39606E-01
  -1.55606E-01 -1.72449E-01 -1.86244E-01 -1.95480E-01 -2.00071E-01 -2.01644E-01 -1.98790E-01 -1.86356E-01 -1.58826E-01 -1.13893E-01
  -5.26493E-02  2.20240E-02  1.01072E-01  1.72796E-01  2.29809E-01  2.67928E-01  2.85275E-01  2.82331E-01  2.62608E-01  2.32426E-01
   1.96428E-01  1.54268E-01  1.08302E-01  6.09254E-02  1.38715E-02 -3.38423E-02 -7.92686E-02 -1.24022E-01 -1.70093E-01 -2.10894E-01
  -2.44601E-01 -2.66324E-01 -2.72183E-01 -2.62016E-01 -2.33769E-01 -1.86718E-01 -1.25337E-01 -5.12783E-02  3.38401E-02  1.19109E-01
   1.92604E-01  2.45018E-01  2.63077E-01  2.43031E-01  1.93932E-01  1.24309E-01  4.66832E-02 -3.36965E-02 -1.12624E-01 -1.76325E-01
  -2.19599E-01 -2.38643E-01 -2.20618E-01 -1.57325E-01 -5.93674E-02  5.64015E-02  1.74708E-01  2.77416E-01  3.47838E-01  3.75768E-01
   3.67942E-01  3.37114E-01  2.91412E-01  2.35385E-01  1.81380E-01  1.32558E-01  8.57006E-02  4.00101E-02 -1.54508E-03 -3.26716E-02
  -4.56485E-02 -3.38746E-02  3.16753E-03  5.98524E-02  1.26410E-01  1.90421E-01  2.42171E-01  2.76893E-01  2.94326E-01  2.98519E-01
   2.96180E-01  2.90902E-01  2.86600E-01  2.82996E-01  2.80377E-01  2.75488E-01  2.68221E-01  2.59947E-01  2.47851E-01  2.32160E-01
   2.08760E-01  1.76664E-01  1.33200E-01  7.82573E-02  1.32115E-02 -5.51276E-02 -1.22135E-01 -1.81332E-01 -2.45474E-01 -3.15186E-01
  -3.79556E-01 -4.21769E-01 -4.36437E-01 -4.36916E-01 -4.42165E-01 -4.61452E-01 -4.95545E-01 -5.39557E-01 -5.69703E-01 -5.57267E-01
  -4.98214E-01 -4.02934E-01 -2.89663E-01 -1.72705E-01 -6.94654E-02 -3.21123E-04  3.63209E-02  6.36486E-02  8.61492E-02  1.05552E-01
   1.22934E-01  1.39028E-01  1.54381E-01  1.69477E-01  1.84854E-01  2.01130E-01  2.18941E-01  2.39009E-01  2.62352E-01  2.96394E-01
   3.41822E-01  3.79856E-01  4.00010E-01  4.06369E-01  4.11126E-01  4.15023E-01  3.99023E-01  3.43198E-01  2.40367E-01  8.77163E-02
  -1.02575E-01 -2.91213E-01 -4.36825E-01 -5.20045E-01 -5.40872E-01 -5.09621E-01 -4.41972E-01 -3.65455E-01 -3.10232E-01 -2.78976E-01
  -2.57590E-01 -2.41930E-01 -2.29352E-01 -2.19090E-01 -2.11065E-01 -2.04543E-01 -1.98810E-01 -1.93652E-01 -1.88973E-01 -1.84164E-01
  -1.78038E-01 -1.70486E-01 -1.61894E-01 -1.52627E-01 -1.43010E-01 -1.33171E-01 -1.23299E-01 -1.13869E-01 -1.05257E-01 -9.71424E-02
  -8.89510E-02 -8.08622E-02 -7.35646E-02 -6.75711E-02 -6.30098E-02 -5.97712E-02 -5.77064E-02 -5.65674E-02 -5.61749E-02 -5.67058E-02
  -5.84230E-02 -6.10153E-02 -6.37585E-02 -6.61486E-02 -6.78252E-02 -6.85178E-02 -6.83606E-02 -6.55006E-02 -5.84967E-02 -4.86095E-02
  -3.80292E-02 -2.73365E-02 -1.26631E-02  1.06819E-02  4.12078E-02  7.44279E-02  1.06509E-01  1.34154E-01  1.54140E-01  1.65100E-01
   1.67672E-01  1.62620E-01  1.48182E-01  1.22439E-01  8.85889E-02  5.15712E-02  1.33378E-02 -2.30868E-02 -5.36229E-02 -7.47608E-02
  -8.69907E-02 -9.39779E-02 -9.86289E-02 -1.01336E-01 -1.02556E-01 -1.02627E-01 -1.01741E-01 -1.00142E-01 -9.93264E-02 -9.72836E-02
  -9.41787E-02 -9.18426E-02 -9.08694E-02 -8.98766E-02 -8.60514E-02 -7.87728E-02 -6.75698E-02 -5.02236E-02 -2.57454E-02  3.19066E-03
   3.08618E-02  5.65174E-02  7.90085E-02  9.54207E-02  1.04213E-01  1.07371E-01  1.08484E-01  1.07604E-01  1.03415E-01  9.83965E-02
   9.32521E-02  8.53186E-02  7.21501E-02  5.37752E-02  3.03833E-02  1.42805E-03 -3.23535E-02 -6.78556E-02 -1.01519E-01 -1.31002E-01
  -1.54733E-01 -1.71877E-01 -1.81052E-01 -1.78288E-01 -1.58733E-01 -1.18659E-01 -5.78271E-02  1.82876E-02  9.83939E-02  1.70545E-01
   2.24237E-01  2.53368E-01  2.58991E-01  2.46873E-01  2.25588E-01  2.03759E-01  1.85657E-01  1.73067E-01  1.65382E-01  1.59694E-01
   1.54547E-01  1.49143E-01  1.43146E-01  1.36551E-01  1.29469E-01  1.22195E-01  1.14114E-01  1.05158E-01  9.41285E-02  8.08006E-02
   6.42784E-02  4.40910E-02  1.99981E-02 -8.26929E-03 -4.07986E-02 -7.68754E-02 -1.15498E-01 -1.53977E-01 -1.89735E-01 -2.19626E-01
  -2.41316E-01 -2.52827E-01 -2.53516E-01 -2.44103E-01 -2.24975E-01 -1.98597E-01 -1.66314E-01 -1.31008E-01 -9.59713E-02 -6.44377E-02
  -4.04112E-02 -2.64380E-02 -2.32182E-02 -2.48030E-02 -4.49397E-02 -9.08426E-02 -1.52635E-01 -2.12690E-01 -2.64114E-01 -3.21169E-01
  -4.02474E-01 -5.07023E-01 -6.22525E-01 -7.33019E-01 -8.03907E-01 -8.00854E-01 -7.20910E-01 -5.87752E-01 -4.31429E-01 -2.77085E-01
  -1.47048E-01 -6.38782E-02 -2.75573E-02 -9.68730E-03  2.52591E-03  1.08928E-02  1.65390E-02  2.00796E-02  2.19753E-02  2.25054E-02
   2.19284E-02  2.05342E-02  1.87508E-02  1.70188E-02  1.58043E-02  1.55774E-02  1.65411E-02  1.86824E-02  2.17899E-02  2.54834E-02
   2.94305E-02  3.34110E-02  3.71577E-02  4.05999E-02  4.36942E-02  4.64625E-02  4.89795E-02  5.12843E-02  5.34208E-02  5.54139E-02
   5.72581E-02  5.89827E-02  6.06322E-02  6.22495E-02  6.38102E-02  6.53087E-02  6.67247E-02  6.80218E-02  6.92028E-02  7.03022E-02
   7.13618E-02  7.23709E-02  7.32479E-02  7.38447E-02  7.40209E-02  7.36709E-02  7.27206E-02  7.11891E-02  6.91571E-02  6.67289E-02
   6.39453E-02  6.08199E-02  5.73488E-02  5.35722E-02  4.95658E-02  4.54227E-02  4.12649E-02  3.72206E-02  3.33613E-02  2.96937E-02
   2.62333E-02  2.30173E-02  2.00729E-02  1.74008E-02  1.49726E-02  1.27888E-02  1.08576E-02  9.15623E-03  7.66988E-03  6.42477E-03
   5.45852E-03  4.82504E-03  4.62179E-03  4.89934E-03  5.69900E-03  6.96370E-03  9.25681E-03  1.33414E-02  1.92049E-02  2.70099E-02
   3.60093E-02  4.58862E-02  5.68564E-02  6.91922E-02  8.28528E-02  9.68939E-02  1.08868E-01  1.16130E-01  1.17341E-01  1.12405E-01
   1.02919E-01  9.18344E-02  8.20718E-02  7.59787E-02  7.44285E-02  7.66691E-02  8.15940E-02  8.76319E-02  9.31665E-02  9.80013E-02
   1.01911E-01  1.04726E-01  1.06374E-01  1.06902E-01  1.06375E-01  1.04857E-01  1.02410E-01  9.90326E-02  9.47901E-02  8.97871E-02
   8.41857E-02  7.81875E-02  7.20000E-02  6.58054E-02  5.97646E-02  5.39809E-02  4.84908E-02  4.33552E-02  3.86390E-02  3.43810E-02
   3.06127E-02  2.73537E-02  2.46214E-02  2.24329E-02  2.08139E-02  1.98484E-02  1.96048E-02  2.00516E-02  2.11141E-02  2.27110E-02
   2.47502E-02  2.71167E-02  2.97189E-02  3.24569E-02  3.52146E-02  3.78482E-02  4.01962E-02  4.22208E-02  4.39269E-02  4.52960E-02
   4.63433E-02  4.70952E-02  4.75397E-02  4.76038E-02  4.72206E-02  4.63784E-02  4.51206E-02  4.35021E-02  4.16022E-02  3.95363E-02
   3.73753E-02  3.51625E-02  3.29283E-02  3.06680E-02  2.83790E-02  2.60638E-02  2.37047E-02  2.13201E-02  1.89236E-02  1.65287E-02
   1.41395E-02  1.17022E-02  9.10303E-03  6.21900E-03  2.90107E-03 -9.59713E-04 -5.42979E-03 -1.05154E-02 -1.62217E-02 -2.25902E-02
  -2.96851E-02 -3.75117E-02 -4.60406E-02 -5.51746E-02 -6.46598E-02 -7.41620E-02 -8.33973E-02 -9.21182E-02 -1.00079E-01 -1.07045E-01
  -1.12848E-01 -1.17398E-01 -1.20603E-01 -1.22382E-01 -1.22791E-01 -1.21926E-01 -1.19913E-01 -1.16897E-01 -1.13108E-01 -1.08792E-01
  -1.04115E-01 -9.91537E-02 -9.39437E-02 -8.85256E-02 -8.28565E-02 -7.68823E-02 -7.06029E-02 -6.40956E-02 -5.74927E-02 -5.09196E-02
  -4.44268E-02 -3.80878E-02 -3.19988E-02 -2.62094E-02 -2.07348E-02 -1.55644E-02 -1.07299E-02 -6.26221E-03 -2.14587E-03  1.63038E-03
   5.03415E-03  8.05917E-03  1.07600E-02  1.31475E-02  1.52273E-02  1.70317E-02  1.86147E-02  2.00337E-02  2.12977E-02  2.23998E-02
   2.34161E-02  2.44079E-02  2.54243E-02  2.64933E-02  2.75615E-02  2.85832E-02  2.95232E-02  3.03078E-02  3.08894E-02  3.12785E-02
   3.15243E-02  3.17048E-02  3.18695E-02  3.19950E-02  3.20667E-02  3.21300E-02  3.22384E-02  3.24126E-02  3.25843E-02  3.27047E-02
   3.27695E-02  3.27096E-02  3.24801E-02  3.21913E-02  3.19980E-02  3.19343E-02  3.19684E-02  3.20658E-02  3.22282E-02  3.24229E-02
   3.25927E-02  3.27864E-02  3.31353E-02  3.36730E-02  3.43689E-02  3.51463E-02  3.59707E-02  3.68060E-02  3.76082E-02  3.83660E-02
   3.90765E-02  3.97342E-02  4.03324E-02  4.08197E-02  4.12086E-02  4.16189E-02  4.21707E-02  4.29165E-02  4.38185E-02  4.48146E-02
   4.58780E-02  4.69777E-02  4.81135E-02  4.93039E-02  5.05362E-02  5.17042E-02  5.27337E-02  5.36004E-02  5.43414E-02  5.50149E-02
   5.56383E-02  5.62718E-02  5.69974E-02  5.78206E-02  5.87157E-02  5.96533E-02  6.06121E-02  6.16566E-02  6.28102E-02  6.40685E-02
   6.54714E-02  6.70395E-02  6.87448E-02  7.05651E-02  7.24941E-02  7.45776E-02  7.68255E-02  7.92717E-02  8.19954E-02  8.50604E-02
   8.84015E-02  9.18956E-02  9.54741E-02  9.91249E-02
 NY background values follow
     3.515E-02    3.500E-02    3.484E-02    3.468E-02    3.452E-02    3.437E-02    3.421E-02    3.405E-02    3.389E-02    3.373E-02
     3.358E-02    3.342E-02    3.326E-02    3.310E-02    3.295E-02    3.279E-02    3.263E-02    3.247E-02    3.231E-02    3.216E-02
     3.200E-02    3.184E-02    3.168E-02    3.152E-02    3.137E-02    3.121E-02    3.105E-02    3.089E-02    3.073E-02    3.058E-02
     3.042E-02    3.026E-02    3.010E-02    2.994E-02    2.978E-02    2.963E-02    2.947E-02    2.931E-02    2.915E-02    2.899E-02
     2.883E-02    2.868E-02    2.852E-02    2.836E-02    2.820E-02    2.804E-02    2.788E-02    2.773E-02    2.757E-02    2.741E-02
     2.725E-02    2.709E-02    2.693E-02    2.678E-02    2.662E-02    2.646E-02    2.630E-02    2.614E-02    2.598E-02    2.582E-02
     2.567E-02    2.551E-02    2.535E-02    2.519E-02    2.503E-02    2.487E-02    2.471E-02    2.455E-02    2.440E-02    2.424E-02
