 
 $NMID
 ID=''
 FMTDAT='(2E13.5)'
 TRAMP=   1.00000E+0
 VOLUME=   1.00000E+0
 $END
  -2.17324E+4   4.77089E+3
  -5.73270E+4  -4.59877E+3
  -5.69680E+4   5.03869E+3
  -5.27220E+4   4.07665E+3
  -5.50191E+4   2.00135E+3
  -5.48008E+4   3.79669E+3
  -5.28533E+4   2.52137E+3
  -5.37631E+4   9.46453E+2
  -5.36417E+4   1.87555E+3
  -5.22470E+4   7.57871E+2
  -5.24870E+4  -4.78029E+2
  -5.22333E+4   2.08190E+2
  -5.11722E+4  -4.41628E+2
  -5.14565E+4  -1.72879E+3
  -5.10512E+4  -1.61398E+3
  -5.01756E+4  -2.27397E+3
  -5.02165E+4  -3.20000E+3
  -4.99292E+4  -3.27595E+3
  -4.91725E+4  -3.72768E+3
  -4.90363E+4  -4.63621E+3
  -4.86862E+4  -4.65415E+3
  -4.79835E+4  -4.92484E+3
  -4.80159E+4  -5.62385E+3
  -4.76056E+4  -5.85040E+3
  -4.69341E+4  -6.31719E+3
  -4.67962E+4  -6.79238E+3
  -4.65701E+4  -7.00757E+3
  -4.58953E+4  -7.61480E+3
  -4.56612E+4  -8.31198E+3
  -4.52350E+4  -8.48237E+3
  -4.47620E+4  -8.84033E+3
  -4.46741E+4  -9.32982E+3
  -4.43816E+4  -9.77075E+3
  -4.38094E+4  -1.02004E+4
  -4.35174E+4  -1.04887E+4
  -4.32919E+4  -1.07435E+4
  -4.27623E+4  -1.10430E+4
  -4.23961E+4  -1.14053E+4
  -4.21428E+4  -1.16141E+4
  -4.18068E+4  -1.19985E+4
  -4.14452E+4  -1.23718E+4
  -4.10910E+4  -1.28608E+4
  -4.04801E+4  -1.32621E+4
  -4.00899E+4  -1.35378E+4
  -3.97446E+4  -1.38526E+4
  -3.93784E+4  -1.43308E+4
  -3.89841E+4  -1.46134E+4
  -3.86743E+4  -1.49149E+4
  -3.82851E+4  -1.52155E+4
  -3.79040E+4  -1.54705E+4
  -3.74658E+4  -1.59182E+4
  -3.70771E+4  -1.61479E+4
  -3.66706E+4  -1.63818E+4
  -3.63802E+4  -1.65285E+4
  -3.61137E+4  -1.69617E+4
  -3.57268E+4  -1.71907E+4
  -3.53610E+4  -1.74975E+4
  -3.48916E+4  -1.78657E+4
  -3.44362E+4  -1.80933E+4
  -3.40649E+4  -1.83211E+4
  -3.36495E+4  -1.85597E+4
  -3.32499E+4  -1.88130E+4
  -3.29544E+4  -1.90696E+4
  -3.24973E+4  -1.93824E+4
  -3.20435E+4  -1.96397E+4
  -3.16888E+4  -1.98298E+4
  -3.13145E+4  -2.00467E+4
  -3.09399E+4  -2.03195E+4
  -3.05138E+4  -2.04994E+4
  -2.99713E+4  -2.06956E+4
  -2.95499E+4  -2.08426E+4
  -2.90988E+4  -2.09759E+4
  -2.86434E+4  -2.11782E+4
  -2.81411E+4  -2.13168E+4
  -2.77858E+4  -2.14409E+4
  -2.73169E+4  -2.14721E+4
  -2.68939E+4  -2.16490E+4
  -2.63942E+4  -2.16336E+4
  -2.60371E+4  -2.17376E+4
  -2.57345E+4  -2.17263E+4
  -2.52439E+4  -2.18347E+4
  -2.48598E+4  -2.18292E+4
  -2.44536E+4  -2.19560E+4
  -2.40269E+4  -2.19498E+4
  -2.36140E+4  -2.20915E+4
  -2.31633E+4  -2.20923E+4
  -2.27306E+4  -2.20547E+4
  -2.22340E+4  -2.20876E+4
  -2.19307E+4  -2.20243E+4
  -2.15805E+4  -2.20428E+4
  -2.11738E+4  -2.20199E+4
  -2.08421E+4  -2.18576E+4
  -2.05095E+4  -2.18899E+4
  -2.01827E+4  -2.18641E+4
  -1.98136E+4  -2.18111E+4
  -1.93877E+4  -2.16880E+4
  -1.91863E+4  -2.16177E+4
  -1.88653E+4  -2.15706E+4
  -1.85582E+4  -2.14526E+4
  -1.82332E+4  -2.15215E+4
  -1.78615E+4  -2.13821E+4
  -1.76144E+4  -2.12163E+4
  -1.73605E+4  -2.12044E+4
  -1.71131E+4  -2.11199E+4
  -1.68489E+4  -2.11056E+4
  -1.66249E+4  -2.10087E+4
  -1.62974E+4  -2.09134E+4
  -1.60581E+4  -2.09164E+4
  -1.57423E+4  -2.08798E+4
  -1.55556E+4  -2.07278E+4
  -1.52483E+4  -2.06200E+4
  -1.50924E+4  -2.05676E+4
  -1.48518E+4  -2.05636E+4
  -1.46206E+4  -2.04819E+4
  -1.43585E+4  -2.04407E+4
  -1.41589E+4  -2.04781E+4
  -1.39078E+4  -2.02998E+4
  -1.35816E+4  -2.02494E+4
  -1.34027E+4  -2.02064E+4
  -1.31637E+4  -2.01396E+4
  -1.29534E+4  -2.01022E+4
  -1.27468E+4  -2.01088E+4
  -1.24342E+4  -2.00009E+4
  -1.22254E+4  -1.99819E+4
  -1.19754E+4  -1.98672E+4
  -1.16860E+4  -1.99024E+4
  -1.14814E+4  -1.98103E+4
  -1.13037E+4  -1.97128E+4
  -1.09565E+4  -1.96684E+4
  -1.07404E+4  -1.96035E+4
  -1.05046E+4  -1.95333E+4
  -1.03100E+4  -1.94723E+4
  -1.00023E+4  -1.94229E+4
  -9.79101E+3  -1.93095E+4
  -9.58345E+3  -1.92435E+4
  -9.25873E+3  -1.91951E+4
  -9.05432E+3  -1.90835E+4
  -8.73971E+3  -1.89704E+4
  -8.49992E+3  -1.88900E+4
  -8.30889E+3  -1.87924E+4
  -8.02258E+3  -1.87441E+4
  -7.79334E+3  -1.86217E+4
  -7.55460E+3  -1.85385E+4
  -7.23140E+3  -1.85132E+4
  -7.03933E+3  -1.83379E+4
  -6.79975E+3  -1.82084E+4
  -6.51514E+3  -1.80844E+4
  -6.30199E+3  -1.80021E+4
  -6.05894E+3  -1.79165E+4
  -5.92350E+3  -1.78087E+4
  -5.58532E+3  -1.76617E+4
  -5.32996E+3  -1.75345E+4
  -5.13966E+3  -1.74855E+4
  -4.91372E+3  -1.73516E+4
  -4.68588E+3  -1.71665E+4
  -4.49580E+3  -1.70769E+4
  -4.28752E+3  -1.69998E+4
  -3.99433E+3  -1.68301E+4
  -3.78111E+3  -1.66537E+4
  -3.60319E+3  -1.66082E+4
  -3.32220E+3  -1.64872E+4
  -3.08234E+3  -1.63608E+4
  -2.87918E+3  -1.61585E+4
  -2.68940E+3  -1.60270E+4
  -2.51178E+3  -1.58481E+4
  -2.31371E+3  -1.57804E+4
  -2.09046E+3  -1.56104E+4
  -1.88775E+3  -1.54905E+4
  -1.77195E+3  -1.53226E+4
  -1.60171E+3  -1.51517E+4
  -1.44035E+3  -1.50111E+4
  -1.20143E+3  -1.48267E+4
  -1.05990E+3  -1.47162E+4
  -9.26696E+2  -1.45537E+4
  -7.88138E+2  -1.43971E+4
  -5.61263E+2  -1.42853E+4
  -3.88698E+2  -1.40802E+4
  -2.82023E+2  -1.39445E+4
  -8.41748E+1  -1.38344E+4
   4.19025E+1  -1.36309E+4
   1.89643E+2  -1.35116E+4
   2.96471E+2  -1.33666E+4
   4.27206E+2  -1.32313E+4
   6.05630E+2  -1.30362E+4
   7.70601E+2  -1.28610E+4
   8.58834E+2  -1.27653E+4
   9.73044E+2  -1.25810E+4
   1.14887E+3  -1.25424E+4
   1.24314E+3  -1.23175E+4
   1.34858E+3  -1.21812E+4
   1.49605E+3  -1.20573E+4
   1.59462E+3  -1.19225E+4
   1.67451E+3  -1.17710E+4
   1.76044E+3  -1.16055E+4
   1.91939E+3  -1.14444E+4
   1.99837E+3  -1.13314E+4
   2.11916E+3  -1.12141E+4
   2.21315E+3  -1.09917E+4
   2.30169E+3  -1.09107E+4
   2.31654E+3  -1.07917E+4
   2.47393E+3  -1.06477E+4
   2.64519E+3  -1.04567E+4
   2.65692E+3  -1.02900E+4
   2.70338E+3  -1.01841E+4
   2.71888E+3  -1.00915E+4
   2.82455E+3  -9.95264E+3
   2.94374E+3  -9.82406E+3
   2.97063E+3  -9.73253E+3
   3.05882E+3  -9.56453E+3
   3.15494E+3  -9.42059E+3
   3.17285E+3  -9.31790E+3
   3.19905E+3  -9.17371E+3
   3.29482E+3  -8.98241E+3
   3.29759E+3  -8.85186E+3
   3.28353E+3  -8.72913E+3
   3.33763E+3  -8.53158E+3
   3.51841E+3  -8.53436E+3
   3.44199E+3  -8.36724E+3
   3.46199E+3  -8.24734E+3
   3.49676E+3  -8.15473E+3
   3.55624E+3  -8.01894E+3
   3.54268E+3  -7.88998E+3
   3.53849E+3  -7.72824E+3
   3.62318E+3  -7.70392E+3
   3.59410E+3  -7.55966E+3
   3.63126E+3  -7.41148E+3
   3.66648E+3  -7.33031E+3
   3.71432E+3  -7.21343E+3
   3.60893E+3  -7.12023E+3
   3.62787E+3  -7.00752E+3
   3.67059E+3  -6.86253E+3
   3.57186E+3  -6.76368E+3
   3.74296E+3  -6.66758E+3
   3.69339E+3  -6.53318E+3
   3.72001E+3  -6.52387E+3
   3.69946E+3  -6.45934E+3
   3.70549E+3  -6.29004E+3
   3.66105E+3  -6.17455E+3
   3.69082E+3  -6.10082E+3
   3.65930E+3  -6.06624E+3
   3.66613E+3  -5.96390E+3
   3.63162E+3  -5.84378E+3
   3.64261E+3  -5.78545E+3
   3.63880E+3  -5.69484E+3
   3.56079E+3  -5.59606E+3
   3.58491E+3  -5.56038E+3
   3.55901E+3  -5.42652E+3
   3.53132E+3  -5.39910E+3
   3.58279E+3  -5.34547E+3
   3.46684E+3  -5.31593E+3
   3.52798E+3  -5.20618E+3
   3.45009E+3  -5.03464E+3
   3.42785E+3  -5.00253E+3
   3.41485E+3  -4.99376E+3
   3.47122E+3  -4.88140E+3
   3.43840E+3  -4.86522E+3
   3.39592E+3  -4.76045E+3
   3.38267E+3  -4.74663E+3
   3.38104E+3  -4.67170E+3
   3.39418E+3  -4.64109E+3
   3.26765E+3  -4.53347E+3
   3.29944E+3  -4.54644E+3
   3.29031E+3  -4.44382E+3
   3.28389E+3  -4.38970E+3
   3.26633E+3  -4.32015E+3
   3.26135E+3  -4.23755E+3
   3.16767E+3  -4.24675E+3
   3.25046E+3  -4.19168E+3
   3.22389E+3  -4.07908E+3
   3.19416E+3  -4.05181E+3
   3.08522E+3  -3.90894E+3
   3.04579E+3  -3.96230E+3
   3.16880E+3  -3.87641E+3
   3.12944E+3  -3.86926E+3
   3.14216E+3  -3.75321E+3
   3.05466E+3  -3.74438E+3
   3.04628E+3  -3.71100E+3
   3.06132E+3  -3.67280E+3
   2.94479E+3  -3.60615E+3
   2.98945E+3  -3.58617E+3
   2.94656E+3  -3.54403E+3
   2.94105E+3  -3.49513E+3
   2.91489E+3  -3.39108E+3
   2.87561E+3  -3.35580E+3
   2.83905E+3  -3.33786E+3
   2.84735E+3  -3.28606E+3
   2.77285E+3  -3.26352E+3
   2.80579E+3  -3.15021E+3
   2.79380E+3  -3.20509E+3
   2.78114E+3  -3.14815E+3
   2.76611E+3  -3.06244E+3
   2.74282E+3  -3.07649E+3
   2.71574E+3  -2.95737E+3
   2.64719E+3  -2.92370E+3
   2.66386E+3  -2.88554E+3
   2.58522E+3  -2.89125E+3
   2.56457E+3  -2.92454E+3
   2.58791E+3  -2.78867E+3
   2.54762E+3  -2.79477E+3
   2.50237E+3  -2.75558E+3
   2.51247E+3  -2.73733E+3
   2.45441E+3  -2.64419E+3
   2.44780E+3  -2.63684E+3
   2.50263E+3  -2.56980E+3
   2.38998E+3  -2.56549E+3
   2.43909E+3  -2.52623E+3
   2.34680E+3  -2.47191E+3
   2.35307E+3  -2.52526E+3
   2.33852E+3  -2.41175E+3
   2.29803E+3  -2.39375E+3
   2.31477E+3  -2.39122E+3
   2.29820E+3  -2.34052E+3
   2.19818E+3  -2.31277E+3
   2.22563E+3  -2.28015E+3
   2.23391E+3  -2.26476E+3
   2.12907E+3  -2.13989E+3
   2.10046E+3  -2.18895E+3
   2.13721E+3  -2.15264E+3
   2.09567E+3  -2.10069E+3
   2.11733E+3  -2.11915E+3
   2.00497E+3  -2.10456E+3
   1.97790E+3  -2.06535E+3
   2.01157E+3  -2.06423E+3
   1.95836E+3  -2.04830E+3
   1.97985E+3  -2.04486E+3
   1.96827E+3  -2.00931E+3
   1.97073E+3  -1.89510E+3
   1.89461E+3  -1.95340E+3
   1.89155E+3  -1.97460E+3
   1.85388E+3  -1.89905E+3
   1.87926E+3  -1.91956E+3
   1.90385E+3  -1.91728E+3
   1.85745E+3  -1.84666E+3
   1.78983E+3  -1.90249E+3
   1.77782E+3  -1.81045E+3
   1.75821E+3  -1.72576E+3
   1.67280E+3  -1.80796E+3
   1.69681E+3  -1.74109E+3
   1.72219E+3  -1.76313E+3
   1.67452E+3  -1.73894E+3
   1.70364E+3  -1.67649E+3
   1.71591E+3  -1.70147E+3
   1.65792E+3  -1.70262E+3
   1.70018E+3  -1.63667E+3
   1.59218E+3  -1.64942E+3
   1.61469E+3  -1.63979E+3
   1.57681E+3  -1.60085E+3
   1.51582E+3  -1.56025E+3
   1.55356E+3  -1.59533E+3
   1.55665E+3  -1.54928E+3
   1.52734E+3  -1.54969E+3
   1.51584E+3  -1.56571E+3
   1.46675E+3  -1.52154E+3
   1.53973E+3  -1.54993E+3
   1.49590E+3  -1.50419E+3
   1.49364E+3  -1.52045E+3
   1.48086E+3  -1.49356E+3
   1.48559E+3  -1.49457E+3
   1.41059E+3  -1.44058E+3
   1.37391E+3  -1.41473E+3
   1.44032E+3  -1.42897E+3
   1.37227E+3  -1.38404E+3
   1.38758E+3  -1.39420E+3
   1.35674E+3  -1.34976E+3
   1.36499E+3  -1.30305E+3
   1.33549E+3  -1.39403E+3
   1.36955E+3  -1.34015E+3
