 
 $NMID
 ID=''
 FMTDAT='(2E13.5)'
 TRAMP=   1.00000E+0
 VOLUME=   1.00000E+0
 $END
  -6.46332E+3   1.86738E+4
  -2.96941E+4   4.14362E+4
  -2.19274E+4   4.57222E+4
  -2.03328E+4   4.21400E+4
  -2.23248E+4   4.31736E+4
  -2.04086E+4   4.40431E+4
  -2.00514E+4   4.22382E+4
  -2.11636E+4   4.23762E+4
  -2.00560E+4   4.29295E+4
  -1.97375E+4   4.17104E+4
  -2.03670E+4   4.15902E+4
  -1.93768E+4   4.18477E+4
  -1.89436E+4   4.11308E+4
  -1.96232E+4   4.10036E+4
  -1.90062E+4   4.10459E+4
  -1.85585E+4   4.02136E+4
  -1.89042E+4   4.01419E+4
  -1.83760E+4   4.01742E+4
  -1.78941E+4   3.95794E+4
  -1.81896E+4   3.95476E+4
  -1.76815E+4   3.93291E+4
  -1.71966E+4   3.89919E+4
  -1.73338E+4   3.88725E+4
  -1.69314E+4   3.87557E+4
  -1.66011E+4   3.81977E+4
  -1.65024E+4   3.81223E+4
  -1.62719E+4   3.80398E+4
  -1.60624E+4   3.75449E+4
  -1.60137E+4   3.72916E+4
  -1.57575E+4   3.71263E+4
  -1.53569E+4   3.68337E+4
  -1.52796E+4   3.67610E+4
  -1.51755E+4   3.65868E+4
  -1.49547E+4   3.62414E+4
  -1.48715E+4   3.61199E+4
  -1.46435E+4   3.59718E+4
  -1.44048E+4   3.55771E+4
  -1.42648E+4   3.53080E+4
  -1.40416E+4   3.52044E+4
  -1.38641E+4   3.48975E+4
  -1.37880E+4   3.46101E+4
  -1.37710E+4   3.43711E+4
  -1.36243E+4   3.39021E+4
  -1.35623E+4   3.35641E+4
  -1.32810E+4   3.33567E+4
  -1.31001E+4   3.30328E+4
  -1.30361E+4   3.27097E+4
  -1.28897E+4   3.24503E+4
  -1.26946E+4   3.21597E+4
  -1.25638E+4   3.19491E+4
  -1.25141E+4   3.16917E+4
  -1.23875E+4   3.13248E+4
  -1.22354E+4   3.10384E+4
  -1.20317E+4   3.08137E+4
  -1.19450E+4   3.05665E+4
  -1.18182E+4   3.03259E+4
  -1.17425E+4   3.00350E+4
  -1.15419E+4   2.97659E+4
  -1.14810E+4   2.93178E+4
  -1.13152E+4   2.89980E+4
  -1.10911E+4   2.86430E+4
  -1.09413E+4   2.83780E+4
  -1.07535E+4   2.80735E+4
  -1.06747E+4   2.77935E+4
  -1.04511E+4   2.74914E+4
  -1.02411E+4   2.71994E+4
  -1.00122E+4   2.69712E+4
  -9.94195E+3   2.66858E+4
  -9.76280E+3   2.63570E+4
  -9.53459E+3   2.61175E+4
  -9.32874E+3   2.59682E+4
  -9.13287E+3   2.56896E+4
  -8.94983E+3   2.54478E+4
  -8.78997E+3   2.51809E+4
  -8.59248E+3   2.48860E+4
  -8.35564E+3   2.47133E+4
  -8.22165E+3   2.45544E+4
  -8.06763E+3   2.42225E+4
  -7.86316E+3   2.40067E+4
  -7.66328E+3   2.37758E+4
  -7.50964E+3   2.35582E+4
  -7.39631E+3   2.34024E+4
  -7.18348E+3   2.31316E+4
  -7.06092E+3   2.29348E+4
  -6.87273E+3   2.27741E+4
  -6.78870E+3   2.25027E+4
  -6.55503E+3   2.22488E+4
  -6.30499E+3   2.20238E+4
  -6.20994E+3   2.18198E+4
  -5.97015E+3   2.16597E+4
  -5.79087E+3   2.14350E+4
  -5.61665E+3   2.12689E+4
  -5.50332E+3   2.10892E+4
  -5.29232E+3   2.09871E+4
  -5.21219E+3   2.06915E+4
  -5.02899E+3   2.05494E+4
  -4.88032E+3   2.03948E+4
  -4.72789E+3   2.03219E+4
  -4.60296E+3   2.01079E+4
  -4.44425E+3   1.99308E+4
  -4.31915E+3   1.97465E+4
  -4.17786E+3   1.96145E+4
  -3.99169E+3   1.95155E+4
  -3.88965E+3   1.93731E+4
  -3.79532E+3   1.91644E+4
  -3.68676E+3   1.89283E+4
  -3.59409E+3   1.88362E+4
  -3.45612E+3   1.87369E+4
  -3.36074E+3   1.84652E+4
  -3.27967E+3   1.83678E+4
  -3.13700E+3   1.82026E+4
  -2.99630E+3   1.80863E+4
  -2.90390E+3   1.80070E+4
  -2.86106E+3   1.78626E+4
  -2.78389E+3   1.77160E+4
  -2.70182E+3   1.75725E+4
  -2.63414E+3   1.74843E+4
  -2.59830E+3   1.72497E+4
  -2.48403E+3   1.71027E+4
  -2.43558E+3   1.70521E+4
  -2.37953E+3   1.68867E+4
  -2.39068E+3   1.68077E+4
  -2.33061E+3   1.65694E+4
  -2.31968E+3   1.64719E+4
  -2.26432E+3   1.62636E+4
  -2.17971E+3   1.61728E+4
  -2.17237E+3   1.59791E+4
  -2.13754E+3   1.58581E+4
  -2.12636E+3   1.56894E+4
  -2.07834E+3   1.56335E+4
  -2.09655E+3   1.55055E+4
  -1.98302E+3   1.52856E+4
  -1.97634E+3   1.51066E+4
  -1.97274E+3   1.50095E+4
  -1.94287E+3   1.48840E+4
  -1.85491E+3   1.46503E+4
  -1.89511E+3   1.45318E+4
  -1.85659E+3   1.43468E+4
  -1.80637E+3   1.41700E+4
  -1.76584E+3   1.40380E+4
  -1.72184E+3   1.39114E+4
  -1.69411E+3   1.36747E+4
  -1.66322E+3   1.35975E+4
  -1.70342E+3   1.34683E+4
  -1.64795E+3   1.33150E+4
  -1.58120E+3   1.31033E+4
  -1.53772E+3   1.29705E+4
  -1.53357E+3   1.28965E+4
  -1.51454E+3   1.26726E+4
  -1.49856E+3   1.25534E+4
  -1.46375E+3   1.23203E+4
  -1.49377E+3   1.22827E+4
  -1.37879E+3   1.21148E+4
  -1.35050E+3   1.19655E+4
  -1.33051E+3   1.17875E+4
  -1.31008E+3   1.17074E+4
  -1.27995E+3   1.16149E+4
  -1.32963E+3   1.14314E+4
  -1.24823E+3   1.13424E+4
  -1.21165E+3   1.10750E+4
  -1.18068E+3   1.10845E+4
  -1.20674E+3   1.09412E+4
  -1.14610E+3   1.06994E+4
  -1.10893E+3   1.06500E+4
  -1.13936E+3   1.04790E+4
  -1.09148E+3   1.04311E+4
  -1.06688E+3   1.02827E+4
  -1.06377E+3   1.01156E+4
  -1.04105E+3   1.00398E+4
  -9.92983E+2   9.91380E+3
  -1.08899E+3   9.77782E+3
  -1.03656E+3   9.65170E+3
  -1.00166E+3   9.59364E+3
  -9.47211E+2   9.42811E+3
  -9.87957E+2   9.34214E+3
  -9.75429E+2   9.20264E+3
  -9.14739E+2   9.07231E+3
  -9.29657E+2   8.94380E+3
  -9.17330E+2   8.84493E+3
  -9.04184E+2   8.74829E+3
  -9.44915E+2   8.61136E+3
  -8.94514E+2   8.48902E+3
  -8.43071E+2   8.42383E+3
  -8.75063E+2   8.31314E+3
  -8.97192E+2   8.17441E+3
  -8.53550E+2   8.02780E+3
  -8.09341E+2   7.89458E+3
  -8.85439E+2   7.84262E+3
  -8.07973E+2   7.69960E+3
  -8.62412E+2   7.61488E+3
  -8.27762E+2   7.51988E+3
  -7.67231E+2   7.31955E+3
  -7.60845E+2   7.25745E+3
  -8.31391E+2   7.10877E+3
  -8.21801E+2   6.98733E+3
  -8.01660E+2   6.88039E+3
  -8.43438E+2   6.78690E+3
  -8.36683E+2   6.72461E+3
  -8.87847E+2   6.55811E+3
  -7.87561E+2   6.56709E+3
  -8.32137E+2   6.39411E+3
  -8.54250E+2   6.31453E+3
  -8.36918E+2   6.22586E+3
  -8.48406E+2   6.10879E+3
  -8.19611E+2   5.98341E+3
  -7.86076E+2   5.87944E+3
  -8.44773E+2   5.77062E+3
  -7.61974E+2   5.68063E+3
  -7.35350E+2   5.55648E+3
  -7.94403E+2   5.50134E+3
  -7.93677E+2   5.42326E+3
  -7.69195E+2   5.34724E+3
  -7.72511E+2   5.21269E+3
  -7.72325E+2   5.13093E+3
  -7.73648E+2   5.05874E+3
  -8.45695E+2   4.96290E+3
  -8.49680E+2   4.87733E+3
  -7.78717E+2   4.74981E+3
  -8.54319E+2   4.72161E+3
  -8.25602E+2   4.62370E+3
  -8.14325E+2   4.48219E+3
  -8.14585E+2   4.53450E+3
  -8.50442E+2   4.35399E+3
  -7.97673E+2   4.28985E+3
  -8.65600E+2   4.12409E+3
  -8.30938E+2   4.03280E+3
  -8.14845E+2   3.94805E+3
  -8.17562E+2   3.99645E+3
  -8.01050E+2   3.88274E+3
  -9.31763E+2   3.72182E+3
  -8.59769E+2   3.66883E+3
  -7.97390E+2   3.56900E+3
  -8.64504E+2   3.60199E+3
  -8.18481E+2   3.52078E+3
  -9.35687E+2   3.36214E+3
  -8.34159E+2   3.27646E+3
  -8.84804E+2   3.18542E+3
  -8.76445E+2   3.15078E+3
  -8.56459E+2   3.05982E+3
  -9.47614E+2   3.02211E+3
  -9.37336E+2   2.96131E+3
  -8.19623E+2   2.90885E+3
  -9.24986E+2   2.83695E+3
  -8.40801E+2   2.78163E+3
  -9.26840E+2   2.65581E+3
  -9.30719E+2   2.50236E+3
  -8.37285E+2   2.46576E+3
  -9.05936E+2   2.45742E+3
  -9.47597E+2   2.39300E+3
  -8.91539E+2   2.33089E+3
  -8.68628E+2   2.30683E+3
  -8.71772E+2   2.18242E+3
  -9.02081E+2   2.12579E+3
  -9.55942E+2   2.07541E+3
  -8.74937E+2   2.00725E+3
  -8.84009E+2   2.00947E+3
  -9.30010E+2   1.96841E+3
  -9.07277E+2   1.91511E+3
  -9.42801E+2   1.81628E+3
  -9.25979E+2   1.79601E+3
  -8.46597E+2   1.69432E+3
  -8.99690E+2   1.62574E+3
  -9.13571E+2   1.61301E+3
  -9.10584E+2   1.50838E+3
  -9.33508E+2   1.51283E+3
  -9.20913E+2   1.42058E+3
  -9.53796E+2   1.44125E+3
  -9.51820E+2   1.38287E+3
  -9.38444E+2   1.31451E+3
  -9.63341E+2   1.32036E+3
  -9.39343E+2   1.25362E+3
  -9.19798E+2   1.18539E+3
  -9.32320E+2   1.16540E+3
  -9.90365E+2   1.13941E+3
  -9.14768E+2   1.14307E+3
  -9.60793E+2   1.04952E+3
  -9.06490E+2   1.03067E+3
  -9.05996E+2   9.65679E+2
  -9.16876E+2   9.57356E+2
  -9.65160E+2   9.40809E+2
  -9.74417E+2   8.62723E+2
  -9.71991E+2   8.85496E+2
  -1.00628E+3   7.99440E+2
  -9.89997E+2   8.07039E+2
  -9.39377E+2   7.36584E+2
  -1.01063E+3   6.74823E+2
  -9.34614E+2   6.71624E+2
  -9.74284E+2   6.99369E+2
  -1.02101E+3   5.69640E+2
  -9.97949E+2   5.42536E+2
  -9.73903E+2   5.35084E+2
  -9.41260E+2   5.40322E+2
  -1.00109E+3   4.56635E+2
  -9.90723E+2   5.09469E+2
  -9.77436E+2   4.64282E+2
  -1.01391E+3   4.48395E+2
  -9.94853E+2   4.03084E+2
  -9.46058E+2   3.71224E+2
  -9.71842E+2   3.24903E+2
  -1.00103E+3   3.00768E+2
  -9.72028E+2   3.17714E+2
  -1.03038E+3   2.59334E+2
  -9.88293E+2   2.90270E+2
  -9.90039E+2   2.05090E+2
  -9.72322E+2   1.62819E+2
  -1.00790E+3   1.98799E+2
  -1.01279E+3   1.71363E+2
  -9.84567E+2   1.72158E+2
  -9.81095E+2   7.40291E+1
  -1.01622E+3   7.94786E+1
  -1.02734E+3   9.71067E+1
  -9.54586E+2   5.58147E+1
  -9.60603E+2   5.19991E+1
  -1.04551E+3   1.45338E+1
  -9.76733E+2   5.99487E+1
  -1.02983E+3   6.15171E+0
  -1.00380E+3  -4.44626E+1
  -1.05134E+3  -5.65611E+1
  -1.06740E+3  -1.14725E+2
  -9.73358E+2  -3.75393E+1
  -9.75084E+2  -8.23662E+1
  -1.00459E+3  -1.04701E+2
  -9.29537E+2  -1.34468E+2
  -9.69759E+2  -1.19558E+2
  -9.94563E+2  -1.38740E+2
  -1.01767E+3  -1.78896E+2
  -9.85067E+2  -2.08616E+2
  -1.00164E+3  -2.12594E+2
  -9.34321E+2  -1.72650E+2
  -1.03041E+3  -2.04191E+2
  -9.81201E+2  -3.15553E+2
  -9.51091E+2  -1.98114E+2
  -9.57617E+2  -2.63007E+2
  -9.88509E+2  -2.40294E+2
  -9.92313E+2  -3.04425E+2
  -9.85297E+2  -3.06983E+2
  -1.03662E+3  -3.06167E+2
  -9.43148E+2  -2.23136E+2
  -1.01527E+3  -2.77121E+2
  -1.00581E+3  -2.75577E+2
  -1.02824E+3  -3.46946E+2
  -1.02093E+3  -3.35402E+2
  -9.66874E+2  -2.81881E+2
  -9.30043E+2  -3.47582E+2
  -9.73265E+2  -3.56388E+2
  -9.77287E+2  -3.94167E+2
  -1.01805E+3  -3.54922E+2
  -9.46284E+2  -3.95017E+2
  -9.84917E+2  -3.60547E+2
  -9.17189E+2  -3.96237E+2
  -9.98911E+2  -4.24068E+2
  -1.01636E+3  -4.24449E+2
  -9.47719E+2  -4.51281E+2
  -9.90664E+2  -4.12934E+2
  -9.33509E+2  -4.48707E+2
  -9.99387E+2  -3.63794E+2
  -9.26452E+2  -3.99320E+2
  -9.72493E+2  -4.23644E+2
  -9.50946E+2  -5.48564E+2
  -9.80977E+2  -4.68972E+2
  -9.92103E+2  -4.72246E+2
  -9.04242E+2  -4.54619E+2
  -9.23260E+2  -4.60636E+2
  -9.24063E+2  -4.27587E+2
  -9.36392E+2  -4.75074E+2
  -9.65584E+2  -5.10877E+2
  -9.63672E+2  -4.53899E+2
