 LCModel (Version 6.3-1N) Copyright: S.W. Provencher.          Ref.: Magn. Reson. Med. 30:672-679 (1993).                
 Slice_N1@17_21  02-Jun-2023 14:36:54
 27 lines in following concentration table = NCONC+1
    Conc.  %SD /Cr+PCr  Metabolite                                         
 2.43E-06  15% 2.8E-04 Mac                                                 
 3.38E-02  18%   3.852 Cr                                                  
 3.64E-02  17%   4.148 PCr                                                 
 8.40E-02  10%   9.571 Ins                                                 
 6.73E-02   9%   7.671 NAA                                                 
 7.12E-02  11%   8.109 Tau                                                 
 4.51E-03  41%   0.514 PCho                                                
 4.24E-03  41%   0.483 GPC                                                 
 7.24E-02  13%   8.248 Glu                                                 
 1.31E-02  48%   1.494 Gln                                                 
    0.000 999%   0.000 Ala                                                 
 1.07E-02 118%   1.219 Asc                                                 
 4.68E-03 147%   0.534 Asp                                                 
 3.75E-03 100%   0.427 GABA                                                
 6.81E-03  66%   0.776 Glc                                                 
 6.03E-03  49%   0.687 GSH                                                 
 7.62E-03  91%   0.868 Lac                                                 
    0.000 999%   0.000 NAAG                                                
    0.000 999%   0.000 PE                                                  
 8.75E-03  22%   0.997 GPC+PCho                                            
 6.73E-02   9%   7.671 NAA+NAAG                                            
 8.55E-02  13%   9.741 Glu+Gln                                             
 7.02E-02   9%   8.000 Cr+PCr                                              
 6.73E-02   9%   7.671 NAA+NAAG                                            
 7.02E-02   9%   8.000 Cr+PCr                                              
 8.55E-02  13%   9.741 Glu+Gln                                             
   6 lines in following misc. output table
  FWHM = 0.017 ppm    S/N =   5                                            
  Data shift = 0.000 ppm                                                   
  Ph:   3 deg     -10.9 deg/ppm                                            
  alphaB,S = 3.1E+01,   1.7E+00                                            
   18 spline knots.   Ns = 5(1)                                            
   2 inflections.     1 extrema                                            
  654 points on ppm-axis = NY
      4.000000     3.994181     3.988363     3.982544     3.976726     3.970907     3.965088     3.959270     3.953451     3.947633
      3.941814     3.935995     3.930177     3.924358     3.918540     3.912721     3.906902     3.901084     3.895265     3.889446
      3.883628     3.877809     3.871991     3.866172     3.860353     3.854535     3.848716     3.842898     3.837079     3.831260
      3.825442     3.819623     3.813805     3.807986     3.802167     3.796349     3.790530     3.784712     3.778893     3.773074
      3.767256     3.761437     3.755619     3.749800     3.743981     3.738163     3.732344     3.726526     3.720707     3.714888
      3.709070     3.703251     3.697433     3.691614     3.685795     3.679977     3.674158     3.668339     3.662521     3.656702
      3.650884     3.645065     3.639246     3.633428     3.627609     3.621791     3.615972     3.610153     3.604335     3.598516
      3.592698     3.586879     3.581060     3.575242     3.569423     3.563605     3.557786     3.551967     3.546149     3.540330
      3.534512     3.528693     3.522874     3.517056     3.511237     3.505419     3.499600     3.493781     3.487963     3.482144
      3.476326     3.470507     3.464688     3.458870     3.453051     3.447232     3.441414     3.435595     3.429777     3.423958
      3.418139     3.412321     3.406502     3.400684     3.394865     3.389046     3.383228     3.377409     3.371591     3.365772
      3.359953     3.354135     3.348316     3.342498     3.336679     3.330860     3.325042     3.319223     3.313405     3.307586
      3.301767     3.295949     3.290130     3.284312     3.278493     3.272674     3.266856     3.261037     3.255219     3.249400
      3.243581     3.237763     3.231944     3.226125     3.220307     3.214488     3.208670     3.202851     3.197032     3.191214
      3.185395     3.179577     3.173758     3.167939     3.162121     3.156302     3.150484     3.144665     3.138846     3.133028
      3.127209     3.121391     3.115572     3.109753     3.103935     3.098116     3.092298     3.086479     3.080660     3.074842
      3.069023     3.063205     3.057386     3.051567     3.045749     3.039930     3.034111     3.028293     3.022474     3.016656
      3.010837     3.005018     2.999200     2.993381     2.987563     2.981744     2.975925     2.970107     2.964288     2.958470
      2.952651     2.946832     2.941014     2.935195     2.929377     2.923558     2.917739     2.911921     2.906102     2.900284
      2.894465     2.888646     2.882828     2.877009     2.871191     2.865372     2.859553     2.853735     2.847916     2.842098
      2.836279     2.830460     2.824642     2.818823     2.813004     2.807186     2.801367     2.795549     2.789730     2.783911
      2.778093     2.772274     2.766456     2.760637     2.754818     2.749000     2.743181     2.737363     2.731544     2.725725
      2.719907     2.714088     2.708270     2.702451     2.696632     2.690814     2.684995     2.679177     2.673358     2.667539
      2.661721     2.655902     2.650084     2.644265     2.638446     2.632628     2.626809     2.620991     2.615172     2.609353
      2.603535     2.597716     2.591897     2.586079     2.580260     2.574442     2.568623     2.562804     2.556986     2.551167
      2.545349     2.539530     2.533711     2.527893     2.522074     2.516256     2.510437     2.504618     2.498800     2.492981
      2.487163     2.481344     2.475525     2.469707     2.463888     2.458070     2.452251     2.446432     2.440614     2.434795
      2.428977     2.423158     2.417339     2.411521     2.405702     2.399884     2.394065     2.388246     2.382428     2.376609
      2.370790     2.364972     2.359153     2.353335     2.347516     2.341697     2.335879     2.330060     2.324242     2.318423
      2.312604     2.306786     2.300967     2.295149     2.289330     2.283511     2.277693     2.271874     2.266056     2.260237
      2.254418     2.248600     2.242781     2.236963     2.231144     2.225325     2.219507     2.213688     2.207870     2.202051
      2.196232     2.190414     2.184595     2.178777     2.172958     2.167139     2.161321     2.155502     2.149683     2.143865
      2.138046     2.132228     2.126409     2.120590     2.114772     2.108953     2.103135     2.097316     2.091497     2.085679
      2.079860     2.074042     2.068223     2.062404     2.056586     2.050767     2.044949     2.039130     2.033311     2.027493
      2.021674     2.015856     2.010037     2.004218     1.998400     1.992581     1.986763     1.980944     1.975126     1.969307
      1.963489     1.957670     1.951852     1.946033     1.940215     1.934397     1.928578     1.922760     1.916941     1.911123
      1.905304     1.899486     1.893667     1.887849     1.882030     1.876212     1.870393     1.864575     1.858756     1.852938
      1.847119     1.841301     1.835482     1.829664     1.823845     1.818027     1.812208     1.806390     1.800571     1.794753
      1.788934     1.783116     1.777297     1.771479     1.765660     1.759842     1.754023     1.748205     1.742386     1.736568
      1.730749     1.724931     1.719113     1.713294     1.707476     1.701657     1.695839     1.690020     1.684202     1.678383
      1.672565     1.666746     1.660928     1.655109     1.649291     1.643472     1.637654     1.631835     1.626017     1.620198
      1.614380     1.608561     1.602743     1.596924     1.591106     1.585287     1.579469     1.573650     1.567832     1.562013
      1.556195     1.550376     1.544558     1.538739     1.532921     1.527102     1.521284     1.515465     1.509647     1.503829
      1.498010     1.492192     1.486373     1.480555     1.474736     1.468918     1.463099     1.457281     1.451462     1.445644
      1.439825     1.434007     1.428188     1.422370     1.416551     1.410733     1.404914     1.399096     1.393277     1.387459
      1.381640     1.375822     1.370003     1.364185     1.358366     1.352548     1.346729     1.340911     1.335092     1.329274
      1.323455     1.317637     1.311818     1.306000     1.300182     1.294363     1.288545     1.282726     1.276908     1.271089
      1.265271     1.259452     1.253634     1.247815     1.241997     1.236178     1.230360     1.224541     1.218723     1.212904
      1.207086     1.201267     1.195449     1.189630     1.183812     1.177993     1.172175     1.166356     1.160538     1.154719
      1.148901     1.143082     1.137264     1.131445     1.125627     1.119808     1.113990     1.108171     1.102353     1.096534
      1.090716     1.084898     1.079079     1.073261     1.067442     1.061624     1.055805     1.049987     1.044168     1.038350
      1.032531     1.026713     1.020894     1.015076     1.009257     1.003439     0.997620     0.991802     0.985983     0.980165
      0.974346     0.968528     0.962709     0.956891     0.951072     0.945254     0.939435     0.933617     0.927798     0.921980
      0.916161     0.910343     0.904524     0.898706     0.892887     0.887069     0.881251     0.875432     0.869614     0.863795
      0.857977     0.852158     0.846340     0.840521     0.834703     0.828884     0.823066     0.817247     0.811429     0.805610
      0.799792     0.793973     0.788155     0.782336     0.776518     0.770699     0.764881     0.759062     0.753244     0.747425
      0.741607     0.735788     0.729970     0.724151     0.718333     0.712514     0.706696     0.700877     0.695059     0.689240
      0.683422     0.677603     0.671785     0.665967     0.660148     0.654330     0.648511     0.642693     0.636874     0.631056
      0.625237     0.619419     0.613600     0.607782     0.601963     0.596145     0.590326     0.584508     0.578689     0.572871
      0.567052     0.561234     0.555415     0.549597     0.543778     0.537960     0.532141     0.526323     0.520504     0.514686
      0.508867     0.503049     0.497230     0.491412     0.485593     0.479775     0.473956     0.468138     0.462319     0.456501
      0.450682     0.444864     0.439045     0.433227     0.427408     0.421590     0.415771     0.409953     0.404134     0.398316
      0.392497     0.386679     0.380860     0.375042     0.369223     0.363405     0.357586     0.351767     0.345949     0.340130
      0.334312     0.328493     0.322675     0.316856     0.311038     0.305219     0.299401     0.293582     0.287764     0.281945
      0.276127     0.270308     0.264490     0.258671     0.252853     0.247034     0.241216     0.235397     0.229579     0.223760
      0.217942     0.212123     0.206305     0.200486
 NY phased data points follow
  -5.66531E-02 -3.19702E-01 -1.01916E-01 -1.65125E-02 -4.26054E-01 -2.60663E-01 -1.22065E-01  2.62205E-02  2.20780E-01  1.93129E-02
  -2.15784E-01  1.92585E-01  4.22202E-01  2.19763E-01  1.16677E-02 -3.88680E-02  4.85159E-01  4.61701E-01  1.89724E-01 -1.28016E-01
   2.31629E-01  2.18562E-01 -4.55840E-02  2.97159E-01 -3.05014E-01 -1.90954E-01 -1.00930E-01  4.70906E-03  2.73516E-01  2.17298E-01
   1.41841E-01 -1.60090E-01  1.15846E-01  1.50774E-02 -1.01200E-01 -1.10973E-01 -3.29428E-01 -4.82174E-01 -4.13721E-01 -9.74401E-02
  -2.70913E-01 -5.52686E-02  3.62784E-01  1.19083E-01  2.84465E-01  3.64630E-01  2.81188E-01  3.78122E-01  8.40690E-02  4.61123E-02
   2.64865E-02  1.56710E-01  7.89870E-02 -8.52649E-02 -1.95279E-01 -2.23268E-01  1.61007E-01 -1.97816E-01 -3.91855E-01 -3.08321E-01
  -2.36727E-01 -2.59787E-01 -2.51229E-01 -3.04512E-01 -6.06988E-01 -2.26958E-01 -2.89595E-01 -2.01059E-01  2.51006E-01  3.54415E-01
   3.12799E-01  3.85809E-01  6.46738E-01  4.92984E-01  2.43212E-01 -1.34836E-01 -1.75384E-01 -1.43525E-01 -3.90610E-01 -3.86706E-01
  -4.28058E-01 -6.38290E-01 -1.12679E-01  2.33871E-01  2.47169E-01  9.11993E-01  6.66812E-01  4.97407E-01  4.83029E-01  3.87397E-01
   2.91993E-01 -1.34179E-02  1.69228E-01  2.22229E-01  1.75110E-01 -4.82867E-02  1.70891E-01 -2.01229E-01 -4.19859E-01 -2.26400E-01
  -5.91330E-01 -3.48788E-01  2.70759E-03  7.32917E-02  5.52261E-02  5.10155E-01  2.36357E-01  4.08218E-01  5.84848E-01  2.71098E-01
   5.70157E-01  1.32148E-01  4.44721E-01  1.26717E-01  4.92925E-02  5.11146E-01  1.99755E-01  3.77973E-01  1.73535E-01  3.83555E-01
   3.35416E-01  2.57306E-01  1.16294E-01 -5.31996E-03  3.11085E-01  1.66190E-02  8.43957E-03  3.55847E-02 -8.05598E-02 -6.11639E-01
  -7.00574E-01 -7.23378E-01 -6.83606E-01 -6.18381E-01 -8.51367E-01 -4.18655E-01 -6.16504E-01 -4.01158E-01 -6.56252E-01 -5.01688E-01
   2.61281E-01 -1.51777E-01 -2.51201E-01 -2.28673E-01 -7.01064E-02 -8.20793E-02  3.02953E-01  2.32937E-01  4.46678E-02  2.03806E-01
   8.25113E-02  1.86680E-01 -1.16430E-01  9.46984E-02  3.53050E-01  2.67978E-01  1.04588E-01  5.66501E-01  7.13089E-01  1.00586E-01
   4.21175E-01  3.68456E-01  2.96303E-01  4.60637E-01  8.37916E-01  1.37193E+00  1.26372E+00  8.76567E-01 -2.29549E-01 -1.01292E+00
  -1.03319E+00 -8.70923E-01 -8.02166E-01 -5.85085E-01 -3.59963E-01 -4.83500E-01 -5.29417E-01 -3.40775E-01  1.13497E-01 -5.86232E-01
  -5.22447E-01  5.11552E-02 -3.33537E-01 -3.42144E-01 -4.34148E-01 -2.38795E-01 -3.72641E-01 -2.31239E-01 -1.94233E-01 -3.58281E-01
  -1.75083E-01 -3.47992E-01 -1.94215E-01 -2.02664E-01 -3.60002E-01 -3.09161E-01 -2.96049E-01 -1.02225E-01 -2.80575E-01 -4.24236E-01
   1.53550E-01 -2.38994E-01 -2.33428E-01 -3.17496E-01 -4.43051E-01  7.70490E-02 -2.61760E-01 -5.10827E-02 -1.03862E-01  1.91595E-01
   2.23172E-01 -1.98365E-01 -4.65661E-02 -1.53278E-01 -4.00066E-01 -2.02411E-01  1.44537E-01 -4.87092E-02  1.81643E-02  2.74866E-02
   1.92526E-01 -7.41165E-02  2.82579E-02  3.15321E-01  3.49093E-02  6.83095E-02  3.62663E-01  2.99566E-01  5.50674E-02  3.61078E-01
   1.80665E-01  6.28025E-01  2.68869E-01 -9.47756E-03  2.60653E-01 -3.29926E-01  4.16635E-02  2.31177E-01  9.88638E-02 -7.82716E-02
   9.77344E-02 -8.77323E-02 -2.71643E-01 -1.39750E-01 -3.23740E-01  7.23904E-02  1.57287E-01  1.66362E-01  1.22263E-02  1.11293E-03
   3.21530E-01 -5.55830E-02 -6.48179E-02  2.33759E-01  1.67375E-01 -1.39625E-01 -2.40731E-01  1.75560E-01 -1.08509E-01 -1.45958E-01
   2.09877E-01  2.35395E-01  2.35006E-01  1.11421E-01  3.24136E-01 -7.04521E-02 -2.45080E-01 -9.62262E-02 -1.22305E-01  8.83515E-02
  -1.21817E-01 -1.11446E-02  3.00725E-01  1.31050E-01 -1.32986E-02 -3.80548E-02 -8.18791E-02 -1.89559E-01 -5.31804E-01 -2.50576E-01
   1.22354E-02 -4.48975E-01 -5.07871E-01 -2.37616E-01 -1.43584E-02  2.68254E-01  3.97637E-01  3.56528E-01  5.85214E-01  4.58660E-01
   1.99299E-02  1.01338E-01  8.71067E-02  1.27226E-01  3.98534E-01  2.46035E-01  3.00098E-01  1.29362E-01  4.62936E-02  8.90277E-02
   8.64129E-02  2.46451E-01 -4.54474E-02  3.02075E-01  2.81933E-01  2.91398E-01  2.65075E-01  1.69420E-01  3.23318E-01  3.40148E-01
   5.46684E-01  1.68802E-01  3.70249E-01  1.13150E-01  2.30372E-01  2.17567E-01  6.87415E-02  2.76175E-01 -3.66854E-01 -1.50555E-01
   1.60365E-02 -2.81028E-01 -3.41186E-01 -1.37099E-02 -5.77587E-01 -3.48904E-01 -1.82643E-01 -6.94784E-01 -1.35732E-01  1.19195E-01
   4.40146E-01  1.40722E-01  8.02297E-02  7.22384E-02 -9.79136E-02 -4.26127E-01 -2.10572E-01 -3.91089E-02 -3.99094E-01 -5.35487E-02
  -1.92475E-01 -6.92083E-02 -1.22561E+00 -2.35633E+00 -1.51040E+00 -3.04744E-01 -1.74004E-01 -6.25177E-01 -3.30359E-01  2.54889E-04
   1.48089E-01 -3.03608E-03  1.53773E-01  1.04352E-01  2.69323E-01  1.45776E-01 -5.76479E-03  3.61079E-01  9.57206E-02  2.68400E-01
   2.08918E-01  2.82896E-01  3.10436E-01  1.46040E-01  2.62452E-01  2.90912E-01  3.63399E-01 -3.46380E-02  3.22156E-01  1.86497E-01
  -1.11918E-01  2.05355E-01  2.03030E-01  3.64382E-01 -1.56996E-01 -1.69311E-01  3.16844E-02  1.76770E-01  3.83399E-01  4.83221E-01
   4.53916E-01 -7.38060E-02  1.77907E-01  2.18492E-01  3.20521E-01  4.92415E-01  1.22530E-01 -3.39512E-02  1.05850E-01  9.61606E-02
   1.73122E-02  1.89562E-01  1.80766E-01  4.50591E-02 -2.09223E-01  1.58084E-01  1.27564E-01  3.84665E-02  4.41201E-01 -6.43318E-02
  -2.17404E-02  1.23078E-01 -6.27248E-03  1.54655E-01 -1.61723E-01 -1.50521E-01 -1.06396E-01 -1.35217E-01 -7.00788E-02  1.58957E-01
   3.13566E-01 -2.96621E-01  5.84255E-02  1.87931E-01  1.11991E-01  4.19832E-02 -6.92982E-01 -3.10943E-01 -5.53200E-01 -6.12436E-01
  -2.59429E-01 -3.96259E-01 -1.62498E-01 -2.66127E-01 -7.80671E-02 -3.98378E-01 -4.45210E-01 -1.95903E-02 -8.12760E-02 -1.27994E-01
  -5.29239E-01 -2.88571E-01 -4.53027E-01 -3.08585E-01 -6.90686E-02 -4.50654E-01  1.45933E-01 -1.51328E-01 -1.95298E-01 -9.40688E-02
  -2.58569E-01 -3.78242E-02 -2.15251E-01  9.58766E-02  1.21296E-01  6.38914E-02  2.59805E-01  3.22773E-01  1.86734E-01  5.58610E-01
   5.49576E-01 -1.96495E-01  3.85451E-01  2.60749E-01  3.98122E-02  5.63718E-01  2.86272E-01  8.00271E-02 -1.46838E-01 -4.38378E-03
  -2.56898E-01 -2.18932E-01  4.00863E-01  4.56856E-01  3.61276E-01 -2.51445E-02 -3.39028E-02  1.31576E-01  9.59242E-02 -4.14778E-01
  -2.02691E-01 -2.04747E-01 -2.09266E-01  2.74888E-02 -4.79400E-01  2.72524E-01  5.27668E-02 -3.16611E-01 -4.42050E-02 -4.76375E-02
   1.54079E-02 -3.33978E-01 -3.26097E-01  2.57121E-02  3.58969E-01  7.31583E-02  4.11977E-02  1.45509E-01  4.12804E-02 -2.30750E-01
   5.56117E-02  2.58994E-01 -1.01945E-01  3.52120E-01  1.90222E-01 -1.02078E-01  1.60002E-01 -1.02453E-01 -2.06127E-01 -1.74480E-02
  -1.89122E-02  1.51461E-01  2.92034E-01  3.05001E-01 -1.18488E-01 -2.84279E-02  2.08456E-01 -3.42234E-01  3.95320E-02  2.86596E-01
   2.24297E-01  4.97925E-01 -5.69132E-02 -1.95138E-02  5.52099E-01  4.65917E-02  2.48703E-01  3.37703E-01  7.15475E-02  1.69052E-01
  -5.24215E-02  1.56752E-01 -1.24755E-01 -1.99633E-01 -2.04476E-01 -2.31099E-01 -3.23109E-01 -4.86500E-01 -4.82720E-01 -6.95408E-01
   9.76930E-04 -1.98341E-02 -1.56739E-01 -2.46069E-02 -2.22292E-01 -2.39320E-01 -3.96893E-01 -2.15317E-01 -2.09748E-01 -4.67937E-01
  -2.56908E-01 -9.74664E-02 -2.85866E-01  1.18472E-01 -3.42654E-02 -4.17341E-02 -6.74100E-02 -1.83610E-01  2.83266E-01 -5.15305E-02
  -1.40318E-02  8.90510E-02  3.75692E-01  1.30281E-01  1.19686E-01  1.98735E-02 -2.52833E-01  2.87104E-01  6.54147E-02  3.31324E-01
  -9.97442E-02  2.58250E-03  1.19412E-01 -2.04168E-01  1.83839E-01  1.63983E-01  5.05148E-01  2.31661E-01  4.69026E-02 -5.28426E-02
  -4.11302E-02  1.59632E-01 -3.79753E-02  1.80220E-02  1.65177E-01  2.89414E-01  2.41439E-01 -1.33584E-01 -2.03218E-01 -3.59689E-02
   2.12652E-01  1.76250E-01 -2.78590E-02  9.01805E-02 -2.80981E-01  1.09070E-01  2.73777E-01 -5.96741E-02  6.85882E-02  2.27009E-01
   3.85369E-01  8.26997E-02 -1.51165E-01 -1.92989E-01  5.69839E-02 -1.76414E-01 -3.95368E-01  2.39328E-01  1.58032E-01 -3.01231E-01
   3.21933E-01  1.48487E-01 -1.81825E-01  9.71630E-02 -1.32420E-02 -1.98081E-01  4.35032E-02  2.56699E-01 -2.25893E-01  2.97743E-01
   1.28582E-01 -2.88937E-01  5.67371E-02 -8.94259E-03 -3.06452E-01 -9.75299E-02 -3.33471E-02 -3.90014E-02  2.53975E-01  6.65060E-02
   3.73573E-01  8.68534E-02  7.51453E-02 -3.35398E-01  7.20804E-03  3.29747E-01  1.36305E-01  2.70030E-01 -1.99122E-01  4.22669E-01
   1.66581E-01  2.15952E-01  1.75916E-01  9.68614E-02  2.96816E-01  2.43918E-01 -2.07595E-01 -1.25409E-01  4.49081E-01 -1.81071E-01
   6.26785E-02  2.13018E-01  3.79386E-01  8.38215E-02  6.01897E-02  5.71371E-02 -4.19941E-01 -3.38270E-01  6.67692E-02  2.53354E-01
  -6.49680E-02  3.32929E-01  8.97323E-02 -2.70552E-01
 NY points of the fit to the data follow
   8.21816E-02  7.26215E-02  6.09949E-02  5.42093E-02  4.75667E-02  5.31905E-02  6.46030E-02  7.93694E-02  3.68882E-02  4.92613E-02
   1.20892E-01  3.59047E-01  6.12189E-01  5.69578E-01  2.98778E-01  2.93646E-01  6.20990E-01  6.40462E-01  3.64305E-01  1.56609E-01
   1.53037E-01  1.12725E-01  3.15279E-02  1.80950E-02 -9.69956E-03 -2.97953E-02 -4.87239E-02 -6.42379E-02 -7.59699E-02 -8.66213E-02
  -9.74295E-02 -1.01910E-01 -1.08331E-01 -1.26865E-01 -1.53520E-01 -1.75849E-01 -2.08934E-01 -2.51017E-01 -2.61753E-01 -2.46461E-01
  -1.07674E-01  1.05326E-03  1.19581E-01  2.14501E-01  3.27505E-01  3.26427E-01  2.69986E-01  2.10491E-01  1.36754E-01  1.30332E-01
   7.89451E-02  5.18183E-02  1.49793E-02  1.21754E-03 -3.59438E-02 -8.92506E-02 -1.26355E-01 -1.47638E-01 -1.56595E-01 -1.65600E-01
  -2.61344E-01 -3.24603E-01 -4.09730E-01 -4.56674E-01 -3.41054E-01 -3.76641E-01 -2.84070E-01  6.28257E-02  2.66512E-01  2.19735E-01
   4.07624E-01  4.79600E-01  2.43646E-01  2.08143E-01  1.57304E-01  5.42831E-02  1.41782E-02 -8.23686E-02 -2.86791E-01 -5.34025E-01
  -7.48572E-01 -5.45768E-01 -1.40604E-01 -5.18478E-02  1.93713E-02  4.22487E-01  5.86556E-01  3.86645E-01  3.67046E-01  3.63037E-01
   2.89804E-01  2.61455E-01  2.32030E-01  1.90685E-01  1.72856E-01  1.03545E-01  7.23261E-02 -1.38696E-01 -2.89623E-01 -5.25754E-01
  -5.77141E-01 -4.44435E-01 -1.60630E-01  9.28782E-02  2.46868E-01  3.58246E-01  2.77757E-01  3.31663E-01  3.08429E-01  2.97010E-01
   2.93906E-01  2.91932E-01  2.87316E-01  2.83395E-01  2.77387E-01  2.74981E-01  2.75379E-01  2.74806E-01  2.65485E-01  2.87898E-01
   2.66201E-01  2.36131E-01  1.64093E-01  2.00533E-02  1.39719E-02 -2.50884E-02 -2.06600E-01 -1.74557E-01 -2.35585E-01 -5.28391E-01
  -8.07922E-01 -7.09823E-01 -6.95175E-01 -4.51860E-01 -4.37580E-01 -6.11131E-01 -6.56753E-01 -6.32685E-01 -4.50441E-01 -2.69063E-01
  -1.18387E-01 -1.32166E-01 -2.02189E-02  3.30185E-03  2.94764E-02  5.50263E-02  8.01701E-02  1.01711E-01  1.20266E-01  1.36700E-01
   1.52151E-01  1.66133E-01  1.81548E-01  1.95315E-01  2.10658E-01  2.28927E-01  2.50073E-01  2.73510E-01  3.00513E-01  3.26369E-01
   3.57250E-01  4.05014E-01  4.51368E-01  5.04166E-01  6.59021E-01  9.54732E-01  1.14482E+00  8.56166E-01 -1.44038E-01 -1.07945E+00
  -1.13252E+00 -7.47979E-01 -6.51398E-01 -6.34260E-01 -4.73062E-01 -4.13534E-01 -3.72435E-01 -3.29439E-01 -3.21949E-01 -3.11655E-01
  -2.92577E-01 -2.60363E-01 -2.44993E-01 -2.37207E-01 -2.28396E-01 -2.16284E-01 -2.08447E-01 -1.98179E-01 -1.83234E-01 -1.77194E-01
  -1.68245E-01 -1.59519E-01 -1.47517E-01 -1.39394E-01 -1.29515E-01 -1.19933E-01 -1.11555E-01 -1.04276E-01 -9.53279E-02 -8.71856E-02
  -8.14460E-02 -7.20416E-02 -6.08407E-02 -5.70017E-02 -6.24537E-02 -6.49410E-02 -5.71198E-02 -4.56853E-02 -4.33204E-02 -5.37844E-02
  -6.17899E-02 -6.08533E-02 -5.55434E-02 -5.18335E-02 -4.91776E-02 -4.54878E-02 -4.37101E-02 -4.42598E-02 -4.65171E-02 -4.39243E-02
  -3.99745E-02 -4.22723E-02 -4.42029E-02 -3.54367E-02  2.62469E-02  1.44460E-01  2.15453E-01  1.74774E-01  9.71963E-02  1.57250E-01
   3.42912E-01  3.77345E-01  1.90297E-01  4.51409E-02  3.62948E-02  3.61829E-04 -4.18021E-02 -4.36337E-02 -5.11173E-02 -5.87449E-02
  -6.73050E-02 -7.70457E-02 -8.10002E-02 -8.47476E-02 -8.50158E-02 -8.88658E-02 -9.30648E-02 -9.41956E-02 -9.51437E-02 -9.50267E-02
  -9.76604E-02 -1.06504E-01 -1.11234E-01 -1.45414E-01 -1.66091E-01 -1.74925E-01 -1.47190E-01 -4.29559E-02 -4.55280E-02 -5.55919E-02
   1.47157E-02  1.04216E-01  7.44209E-02  2.66152E-02  5.27811E-02  8.18882E-02  1.06349E-01  3.94212E-02  4.05702E-02  6.58557E-02
   4.00851E-02  3.53181E-02 -3.72852E-04 -2.55489E-02 -5.53650E-02 -9.23917E-02 -1.23472E-01 -1.51833E-01 -2.09345E-01 -2.68315E-01
  -3.66060E-01 -4.61694E-01 -4.39228E-01 -3.50454E-01 -1.61551E-01  7.50851E-02  2.69062E-01  3.58020E-01  4.18791E-01  3.72530E-01
   2.84133E-01  2.75871E-01  2.33774E-01  1.96231E-01  1.86226E-01  1.81050E-01  1.89673E-01  1.86582E-01  1.80910E-01  1.81972E-01
   1.73804E-01  1.76082E-01  1.73746E-01  1.69394E-01  1.68841E-01  1.68505E-01  1.65538E-01  1.61840E-01  1.58341E-01  1.50282E-01
   1.39649E-01  1.25869E-01  1.06132E-01  8.45415E-02  5.16456E-02  2.24309E-02 -3.94592E-02 -8.60197E-02 -1.48057E-01 -1.78833E-01
  -2.33018E-01 -2.68905E-01 -2.96614E-01 -3.07826E-01 -2.87361E-01 -2.31803E-01 -1.15534E-01 -3.96399E-02  3.36298E-02  4.43756E-02
   1.55954E-02 -1.58989E-02 -8.76765E-02 -1.16886E-01 -1.60442E-01 -1.47266E-01 -1.53348E-01 -1.24920E-01 -1.47234E-01  9.80514E-02
  -4.11439E-03 -2.52690E-01 -1.29092E+00 -2.16434E+00 -1.61518E+00 -4.53885E-01 -3.06806E-01 -5.04698E-01 -5.68602E-02 -9.21372E-02
  -7.14331E-02 -5.28174E-02 -3.48630E-02 -2.20824E-02 -1.35141E-02 -6.63197E-03  2.07142E-03  4.69721E-03  5.17475E-03  5.14727E-03
   1.93449E-03  2.64597E-03  1.03025E-03  5.48485E-04 -1.84436E-03  2.85565E-03  7.75425E-03  1.59336E-02  2.14100E-02  2.39733E-02
   3.06741E-02  3.51524E-02  4.11931E-02  4.77836E-02  5.25543E-02  5.35087E-02  5.59871E-02  6.09920E-02  6.52927E-02  6.98472E-02
   7.26554E-02  7.38261E-02  7.68803E-02  8.09458E-02  8.58388E-02  8.82662E-02  8.98184E-02  8.92606E-02  9.14767E-02  9.48277E-02
   9.99553E-02  1.04792E-01  1.07913E-01  1.09710E-01  1.07234E-01  1.04480E-01  1.02170E-01  1.01308E-01  9.83748E-02  9.37858E-02
   8.90004E-02  8.24083E-02  7.62797E-02  6.90721E-02  6.00140E-02  5.15032E-02  4.67757E-02  4.14530E-02  3.29572E-02  2.56714E-02
   2.07455E-02  1.54401E-02  9.87653E-03  7.27298E-03  4.25035E-03 -8.85114E-05 -3.41487E-03 -7.15312E-03 -1.09589E-02 -1.33017E-02
  -1.50935E-02 -1.73664E-02 -1.96786E-02 -1.96282E-02 -1.75625E-02 -1.54109E-02 -1.41909E-02 -9.38090E-03 -4.77557E-03  6.58082E-04
   7.73092E-03  1.07341E-02  9.62854E-03  9.94521E-03  1.73047E-02  2.54448E-02  3.47411E-02  4.11871E-02  4.74463E-02  5.46739E-02
   6.44176E-02  7.62225E-02  8.77098E-02  1.00502E-01  1.11859E-01  1.24255E-01  1.36887E-01  1.50526E-01  1.60294E-01  1.67697E-01
   1.72184E-01  1.72744E-01  1.73102E-01  1.72086E-01  1.69836E-01  1.66432E-01  1.64981E-01  1.42399E-01  1.36748E-01  1.16867E-01
   1.56419E-01  2.07203E-01  2.36730E-01  2.28065E-01  1.98853E-01  1.47946E-01  1.05039E-01  1.10045E-01  7.91043E-02  6.97191E-02
   6.37490E-02  5.64600E-02  4.99139E-02  4.35895E-02  3.94904E-02  3.87892E-02  4.01471E-02  4.22287E-02  4.37291E-02  4.68211E-02
   5.08556E-02  5.53207E-02  6.25614E-02  6.98073E-02  7.47787E-02  7.73742E-02  8.06735E-02  8.18997E-02  8.29024E-02  8.71089E-02
   9.23035E-02  9.36157E-02  9.21074E-02  9.15037E-02  9.01237E-02  8.85003E-02  8.46036E-02  7.92004E-02  7.58745E-02  7.45599E-02
   7.04680E-02  6.58882E-02  6.25039E-02  5.93944E-02  5.59043E-02  5.05067E-02  4.56041E-02  4.09480E-02  3.81073E-02  3.68991E-02
   3.43404E-02  2.91643E-02  2.56731E-02  2.30194E-02  1.66244E-02  7.42484E-03 -1.00408E-03 -7.93145E-03 -1.51686E-02 -2.55710E-02
  -3.94480E-02 -5.80582E-02 -7.85727E-02 -9.62790E-02 -1.12968E-01 -1.31808E-01 -1.49673E-01 -1.64022E-01 -1.78014E-01 -1.92264E-01
  -2.04755E-01 -2.11059E-01 -2.10946E-01 -2.11458E-01 -2.13763E-01 -2.10559E-01 -2.00814E-01 -1.91998E-01 -1.85629E-01 -1.79675E-01
  -1.72466E-01 -1.66746E-01 -1.58272E-01 -1.47456E-01 -1.37873E-01 -1.27811E-01 -1.15637E-01 -1.02301E-01 -9.23960E-02 -8.10910E-02
  -7.05795E-02 -6.01894E-02 -5.04771E-02 -3.87505E-02 -3.01539E-02 -2.49464E-02 -1.70521E-02 -7.19941E-03  9.88475E-04  4.22728E-03
   6.86885E-03  1.31150E-02  2.00173E-02  2.17651E-02  2.40007E-02  2.67064E-02  2.85179E-02  3.13549E-02  3.37022E-02  3.26861E-02
   3.20432E-02  3.58238E-02  3.88820E-02  4.03112E-02  4.35863E-02  4.72983E-02  4.66865E-02  4.60213E-02  4.77912E-02  4.78952E-02
   4.68704E-02  4.75829E-02  4.77099E-02  4.67884E-02  4.72040E-02  4.64962E-02  4.57325E-02  4.83463E-02  5.12784E-02  5.14758E-02
   4.87394E-02  4.24516E-02  4.09467E-02  4.56709E-02  4.70782E-02  4.45828E-02  4.45066E-02  4.65827E-02  4.38895E-02  4.02615E-02
   3.90309E-02  4.21964E-02  4.49520E-02  4.53696E-02  4.49390E-02  4.56987E-02  4.81822E-02  4.90638E-02  4.93582E-02  5.05308E-02
   5.24120E-02  5.43008E-02  5.25694E-02  4.90098E-02  4.83096E-02  5.05530E-02  5.12677E-02  5.23603E-02  5.47386E-02  5.54419E-02
   5.43647E-02  5.26899E-02  5.64455E-02  6.30700E-02  6.58176E-02  6.46573E-02  6.25333E-02  5.88885E-02  5.81162E-02  6.22140E-02
   6.33036E-02  6.29838E-02  6.12632E-02  6.00813E-02  6.18161E-02  6.23658E-02  6.27351E-02  6.12276E-02  6.04852E-02  6.28367E-02
   6.68676E-02  6.58180E-02  6.40851E-02  6.64779E-02  6.74302E-02  6.72860E-02  6.75255E-02  6.97969E-02  7.53473E-02  8.05878E-02
   8.28600E-02  8.28699E-02  8.50337E-02  8.59380E-02
 NY background values follow
     6.625E-02    6.611E-02    6.596E-02    6.581E-02    6.566E-02    6.551E-02    6.537E-02    6.522E-02    6.507E-02    6.492E-02
     6.477E-02    6.463E-02    6.448E-02    6.433E-02    6.418E-02    6.403E-02    6.389E-02    6.374E-02    6.359E-02    6.344E-02
     6.329E-02    6.315E-02    6.300E-02    6.285E-02    6.270E-02    6.255E-02    6.241E-02    6.226E-02    6.211E-02    6.196E-02
     6.181E-02    6.167E-02    6.152E-02    6.137E-02    6.122E-02    6.107E-02    6.093E-02    6.078E-02    6.063E-02    6.048E-02
     6.033E-02    6.019E-02    6.004E-02    5.989E-02    5.974E-02    5.959E-02    5.945E-02    5.930E-02    5.915E-02    5.900E-02
     5.885E-02    5.871E-02    5.856E-02    5.841E-02    5.826E-02    5.811E-02    5.797E-02    5.782E-02    5.767E-02    5.752E-02
     5.737E-02    5.722E-02    5.708E-02    5.693E-02    5.678E-02    5.663E-02    5.648E-02    5.634E-02    5.619E-02    5.604E-02
