 
 $NMID
 ID=''
 FMTDAT='(2E13.5)'
 TRAMP=   1.00000E+0
 VOLUME=   1.00000E+0
 $END
   2.83789E+2  -8.07258E+2
   1.75018E+3   1.16134E+3
  -1.58516E+3  -4.84848E+3
  -9.19147E+2   5.98999E+2
  -6.97407E+2   6.32366E+2
  -4.38749E+2  -4.28077E+2
   1.48275E+3  -8.07368E+2
  -1.56625E+3   4.47740E+2
  -1.54737E+3  -3.58528E+3
  -4.01185E+2  -6.84182E+2
  -7.30072E+2  -3.32946E+1
   2.02472E+3  -2.29790E+3
   2.11752E+2   7.42226E+2
  -4.19973E+2   1.23552E+3
  -2.60863E+3  -1.87644E+3
  -2.87842E+2  -2.39876E+2
   2.09987E+3  -2.25439E+3
   1.55516E+3  -1.67262E+3
   2.06474E+3   1.15110E+3
  -2.54403E+3   2.38271E+2
   6.48378E+2  -3.27581E+3
   4.30115E+3  -9.96102E+0
  -1.08111E+3   1.92952E+3
  -2.29327E+3  -6.62727E+2
   5.97487E+2  -1.68529E+3
   1.63675E+3   1.26224E+3
   9.01947E+2   2.27475E+3
  -2.14691E+3   1.47148E+3
  -1.45963E+3  -4.36410E+2
   1.57276E+3  -1.31144E+3
   5.49984E+3   1.87276E+3
   1.93709E+3   6.02884E+3
  -2.36074E+3   1.59237E+2
  -6.44429E+2   1.31909E+3
   2.02288E+3  -4.99054E+1
  -2.22235E+3   6.66347E+2
   1.57166E+3  -4.76250E+3
   2.63931E+3  -7.44575E+2
   2.48759E+3   1.05771E+3
  -1.60101E+3   1.97264E+2
  -1.10095E+2   3.10447E+3
  -3.92177E+3   1.67672E+3
  -5.00971E+3  -2.86741E+3
  -1.08700E+3  -2.49058E+3
   2.13387E+3  -2.73516E+3
   5.92419E+2  -1.60647E+3
   2.08267E+3   1.97156E+2
   2.92529E+2   1.33308E+3
   6.34890E+2   1.62517E+3
  -2.49803E+2   1.64578E+3
  -1.54651E+3   1.18795E+3
   3.14799E+2  -1.57415E+3
   1.29725E+3  -1.44185E+3
   4.94127E+3   1.04206E+3
   1.70293E+2   2.72626E+3
  -1.77955E+2   2.36473E+3
  -7.64535E+2   2.60912E+3
  -3.05763E+3   7.69888E+2
  -2.65471E+3   3.07934E+1
   2.76188E+2  -1.12317E+3
   1.24598E+3  -1.90031E+3
   1.27968E+3   9.45687E+2
  -6.70419E+2   2.29334E+3
  -3.61542E+3   5.60281E+1
  -3.57024E+0  -1.65057E+3
   9.15154E+2  -2.18695E+1
  -1.97877E+3   1.89615E+3
  -1.55844E+3  -1.52558E+3
  -2.30797E+3  -1.22169E+3
  -6.12137E+2  -1.34877E+3
  -1.61843E+3  -2.20279E+3
  -3.90993E+2  -2.35674E+3
  -5.53522E+2  -2.58639E+3
  -1.70398E+3  -2.87080E+3
   1.92357E+3  -4.74436E+2
   1.11355E+2   4.89738E+2
  -1.19081E+3  -5.43201E+2
   9.87820E+2  -3.02555E+3
   3.14278E+3  -2.11692E+1
   2.64395E+3  -7.88065E+2
   7.24942E+2   2.21439E+2
   3.06534E+1   3.72682E+2
   2.69247E+3   7.08094E+2
   6.73572E+2   1.91781E+3
   1.03692E+3  -3.20637E+2
  -1.04825E+3  -1.15322E+3
   5.58844E+2  -1.11042E+3
   1.23715E+3   5.98280E+1
   1.80535E+3   6.40622E+2
  -5.89630E+2  -4.65423E+2
   4.96411E+2  -2.07671E+3
   7.79738E+2  -1.04044E+3
   1.05017E+3  -5.48909E+2
  -1.59093E+3  -1.38828E+3
  -1.82852E+1  -2.04418E+3
   2.86997E+3   7.80256E+2
   2.68007E+3  -1.66620E+2
  -1.49984E+3   1.42425E+3
  -1.46240E+3   1.15809E+1
   9.39843E+2   1.12064E+2
   1.32779E+3   3.54884E+2
   3.00708E+3   9.13221E+2
  -1.74254E+3   2.46829E+3
  -2.20985E+3   1.01295E+3
  -1.23649E+3   3.69568E+2
  -1.30448E+3   1.13266E+3
   5.98171E+2  -1.44365E+3
   4.91653E+2   1.78996E+3
   1.21637E+3  -2.34978E+2
   4.39358E+2   5.11151E+2
  -1.72881E+3   9.75103E+2
  -1.32453E+3   1.74252E+1
  -1.69118E+3   1.65919E+3
   1.55875E+3  -5.81216E+2
   5.76543E+2  -1.69072E+2
   7.80741E+0   6.22362E+2
  -1.48154E+3   1.01849E+3
  -6.51095E+2  -4.41540E+2
   2.76004E+2   1.32025E+3
   1.62914E+3   6.96271E+2
   9.22678E+2   2.07056E+3
   7.15036E+2  -6.64088E+2
  -7.63751E+2   2.73697E+3
   1.86085E+3   2.89593E+2
   4.34543E+2   1.44074E+3
   8.48876E+2   7.06880E+2
   5.87845E+2   3.25063E+2
  -1.04352E+3   6.89572E+2
  -6.37362E+2   1.94144E+3
  -8.14121E+2   8.24756E+2
  -4.12086E+2   7.72442E+2
   4.89221E+2  -5.48355E+2
   4.14238E+2   2.63609E+3
  -2.46522E+3   7.86261E+2
  -1.88454E+3  -6.45765E+2
   6.15637E+1   1.20638E+2
   1.45937E+3  -5.74019E+2
   1.42122E+3   3.29588E+1
   7.18600E+2  -2.27582E+3
   1.50373E+3   1.43841E+3
   1.48176E+3  -2.91991E+1
  -1.01493E+3   2.11245E+3
   5.54638E+2  -2.37332E+3
  -2.03383E+3  -1.72588E+2
  -1.54662E+3  -6.60361E+2
  -1.22459E+3   1.67615E+3
  -1.09917E+3  -6.93817E+2
  -5.51374E+0  -2.50336E+2
  -1.31650E+3   8.09107E+2
  -4.65265E+2   1.61251E+3
  -5.04515E+2   6.51198E+2
   7.45085E+2   3.89433E+2
   7.70343E+2  -8.61166E+2
  -1.32117E+3  -1.27327E+3
  -7.51886E+1  -7.15496E+2
   2.44805E+2  -2.90710E+2
  -1.46455E+3  -2.36303E+3
  -1.24852E+2  -4.01054E+2
   1.57082E+2  -5.13501E+2
   2.50828E+2  -2.33838E+1
   2.05824E+1   1.26256E+3
  -1.03359E+3  -1.97575E+3
   6.62034E+2   4.29676E+1
  -6.89351E+1  -1.57852E+1
   5.20637E+1   8.78803E+1
   1.19449E+3   4.13942E+2
   5.47206E+2  -5.33458E+2
  -6.90900E+2   5.15927E+2
  -8.88545E+2   2.06119E+3
  -1.37815E+3  -9.62497E+2
  -1.65457E+2  -4.19432E+2
   2.32725E+3  -1.22272E+2
   6.23589E+2  -1.06724E+3
  -1.45175E+3   4.24292E+2
  -1.89449E+3  -2.54135E+3
  -1.20489E+3   1.33302E+2
  -2.35334E+3   5.04720E+2
  -9.61073E+2  -3.84410E+2
  -1.26777E+3   5.69652E+2
   6.95694E+1  -3.64445E+2
  -3.38445E+3  -8.32410E+2
  -1.68177E+3  -4.99560E+2
  -2.03394E+3  -4.32258E+2
   3.95770E+2   1.80300E+3
   1.25583E+0   1.19839E+3
  -6.02434E+2  -6.15983E+2
   1.37559E+2  -3.51943E+2
  -4.26395E+2  -2.55711E+3
   7.06353E+2  -1.45036E+3
  -1.53425E+3  -1.22826E+2
   6.40063E+2   1.91047E+3
  -7.83277E+1  -5.57424E+2
  -2.43143E+2  -4.29823E+2
   7.81242E+2  -1.73368E+2
  -3.02122E+2   3.78925E+2
   2.48841E+2   1.56202E+3
  -1.02045E+2  -1.19655E+2
   2.20969E+3  -8.73378E+2
  -1.47139E+3  -5.30517E+2
  -2.05027E+3  -6.38345E+2
  -1.13147E+3   4.96314E+2
  -2.48131E+2   1.19650E+3
   7.49361E+2   8.11069E+2
  -1.38146E+3   1.50140E+2
  -1.61303E+3   2.87954E+1
   8.10665E+2   1.56650E+3
  -8.08192E+2  -1.55382E+2
  -1.33880E+3   1.14189E+3
  -1.49676E+3   1.32929E+3
   4.99932E+2   3.89625E+2
  -2.86357E+2  -2.95285E+2
  -2.31348E+3   9.22230E+2
   6.46423E+2   1.05616E+3
  -9.07405E+2   8.01773E+2
  -1.91693E+3   2.04857E+2
  -1.86468E+3  -5.93814E+2
   1.29357E+3   7.72876E+2
  -9.03967E+2   1.67010E+3
  -2.08115E+3   1.16150E+3
  -6.53781E+2   1.01079E+3
   4.10754E+2   5.97758E+2
   1.34292E+2   9.94183E+2
  -5.94788E+2  -7.39577E+2
  -2.88234E+3  -7.17876E+1
  -8.38576E+2   4.78169E+2
  -2.54322E+2  -1.67595E+2
  -1.46400E+3   1.94752E+3
  -1.27184E+3   8.77672E+0
   5.43931E+1  -3.39700E+2
  -1.85493E+3   1.02044E+3
  -1.68112E+3   1.14330E+3
  -4.24862E+2   1.92172E+3
   1.46569E+3   4.78665E+2
  -3.36068E+2  -2.60407E+3
   1.19405E+3   2.07909E+2
   4.12636E+2   3.02978E+2
  -1.68973E+3   2.67398E+2
   7.17289E+2  -6.60928E+1
   1.36720E+3  -9.60221E+1
   9.86639E+2  -2.72994E+2
   5.74953E+1   1.04838E+2
  -7.67361E+2  -1.44747E+2
  -2.77063E+3  -7.82908E+2
  -1.81001E+3  -1.30349E+3
   3.24680E+2   9.53681E+0
   1.57139E+3   1.71732E+3
   1.63823E+1  -1.28835E+3
  -1.03168E+3  -1.96577E+3
   8.13905E+2   2.03441E+3
   1.19742E+3  -1.44809E+3
  -1.78188E+1  -6.57526E+2
  -2.39691E+2  -4.79552E+2
   2.01552E+2   2.67677E+2
   4.87596E+2   4.43795E+1
  -4.54490E+2  -1.34776E+3
   4.36106E+2   1.92653E+3
   1.23416E+3  -9.07556E+2
   1.32776E+3  -1.74277E+3
  -1.70163E+3   1.86164E+3
   6.34925E+0  -1.51643E+3
   1.45918E+3  -2.89471E+2
   4.46991E+2  -1.42981E+3
   8.11348E+2  -6.31293E+1
   1.19107E+3   1.63118E+3
   1.17667E+3   6.75357E+2
   7.48826E+2  -1.34479E+3
   1.58928E+3  -6.95238E+2
   8.66702E+2  -1.12086E+2
   1.18771E+3  -1.43840E+3
   1.42399E+3  -1.01382E+3
  -4.17022E+2  -1.43468E+3
  -1.16053E+2  -2.12186E+3
  -1.18575E+3   2.46042E+1
  -3.26509E+2   5.02358E+2
  -1.32340E+3  -7.44995E+2
   6.59338E+2  -2.04763E+2
   7.11938E+2   8.65623E+2
   2.45504E+3  -5.66440E+2
  -9.89127E+1   1.57626E+2
  -1.02131E+2   2.18960E+1
   1.32634E+3   7.72752E+2
   1.91799E+3  -6.34650E+2
   2.38704E+3  -1.26347E+3
   2.48996E+2   4.20910E+2
   9.72711E+2   1.10721E+3
   2.48813E+3  -1.10365E+3
   1.82247E+3   8.57398E+1
  -4.56481E+1  -8.73477E+2
  -1.05778E+3  -1.56012E+3
  -5.59851E+2   1.55869E+3
  -9.09364E+2  -1.41798E+3
   8.29692E+2   1.64013E+3
   1.22634E+2  -7.54591E+1
  -1.76463E+2  -9.10900E+2
   1.58858E+3  -9.20139E+2
   2.37887E+3   8.24236E+2
   1.44718E+3  -3.44865E+2
   1.81790E+3  -3.36858E+2
  -7.25821E+1  -1.55444E+3
   1.46756E+2   3.71535E+2
   1.76719E+3   6.61886E+2
   1.54374E+3   1.90264E+3
  -2.85444E+2   1.68998E+3
  -2.84471E+2   1.03448E+3
   2.36103E+3  -3.72857E+2
   5.70569E+2   1.00372E+3
   7.12468E+2  -4.08479E+1
   4.14397E+2   4.64769E+2
   2.00142E+2   1.67462E+2
   1.98578E+3   5.43600E+2
   1.40706E+3  -4.30414E+2
   2.04781E+3  -8.95363E+2
  -4.07584E+1   1.01439E+3
   6.81673E+2  -1.61067E+3
   5.03300E+2   2.05039E+2
   4.23131E+2   6.48353E+2
   3.38072E+1   8.82710E+2
   1.03412E+3  -1.65721E+3
   8.06566E+2  -7.09177E+1
   9.94816E+0   4.75175E+2
   4.97201E+2   7.45996E+1
  -6.42002E+2   3.43298E+2
  -4.09260E+2   1.67124E+3
   1.91832E+2  -6.81586E+2
   1.96181E+3  -5.25532E+2
   1.40405E+3   1.10695E+3
  -5.28983E+2   7.60285E+1
   1.01944E+3   2.28324E+2
  -2.96840E+2   1.58856E+2
  -1.07079E+3   3.37744E+2
   4.93401E+2   1.02157E+3
   3.70556E+2   1.51655E+2
  -8.39485E+0  -1.45897E+2
  -2.48029E+2   1.34933E+3
   1.21187E+3   2.24664E+2
   1.40489E+3   4.66286E+2
   1.16853E+2  -1.44895E+3
  -1.33429E+3   1.54485E+3
  -1.87935E+3   4.98048E+1
   1.61824E+3  -6.69982E+2
  -1.41427E+3  -8.82747E+2
   8.20951E+2   1.25137E+3
  -1.09690E+3   6.65547E+2
   4.06983E+2  -6.54601E+2
   1.07494E+3  -1.19733E+3
  -5.76335E+2   2.29161E+2
  -3.79467E+2   4.08401E+2
   1.03581E+3  -6.82355E+2
  -2.96588E+1  -5.93480E+2
   7.11406E+2   1.10022E+3
  -5.82345E+2   4.74151E+1
  -4.07701E+2  -1.08277E+3
   4.14806E+1   1.08538E+3
  -4.99038E+2   1.43082E+3
  -1.11000E+3   1.88251E+2
  -1.12848E+3  -6.13904E+2
   9.91560E+2  -7.69354E+2
   2.58315E+3  -9.08009E+2
   5.84883E+2   2.74961E+3
   9.82941E+2   1.90413E+3
  -5.84245E+2  -2.07521E+3
   7.08239E+2   1.53700E+2
  -9.39938E+2  -8.08307E+2
  -7.86472E+2  -1.80131E+3
  -5.37902E+2  -2.14613E+2
   6.55599E+2  -1.41493E+1
  -4.95801E+2  -6.03415E+2
