 LCModel (Version 6.3-1N) Copyright: S.W. Provencher.          Ref.: Magn. Reson. Med. 30:672-679 (1993).                
 Slice_N1@21_19  02-Jun-2023 14:37:41
 27 lines in following concentration table = NCONC+1
    Conc.  %SD /Cr+PCr  Metabolite                                         
 1.31E-06  26% 1.7E-04 Mac                                                 
 4.03E-02  45%   5.224 Cr                                                  
 2.14E-02  89%   2.776 PCr                                                 
 6.97E-02  14%   9.041 Ins                                                 
 8.04E-02   9%  10.432 NAA                                                 
 6.38E-02  14%   8.275 Tau                                                 
 1.03E-02  74%   1.336 PCho                                                
 5.17E-03 140%   0.671 GPC                                                 
 4.67E-02  22%   6.062 Glu                                                 
 1.48E-02  45%   1.927 Gln                                                 
    0.000 999%   0.000 Ala                                                 
 3.64E-02  39%   4.730 Asc                                                 
 7.41E-03  95%   0.962 Asp                                                 
 4.11E-03  95%   0.533 GABA                                                
 4.90E-03  92%   0.635 Glc                                                 
 4.64E-03  72%   0.602 GSH                                                 
 7.00E-03 121%   0.908 Lac                                                 
    0.000 999%   0.000 NAAG                                                
    0.000 999%   0.000 PE                                                  
 1.55E-02  15%   2.007 GPC+PCho                                            
 8.04E-02   9%  10.432 NAA+NAAG                                            
 6.16E-02  19%   7.988 Glu+Gln                                             
 6.16E-02  11%   8.000 Cr+PCr                                              
 8.04E-02   9%  10.432 NAA+NAAG                                            
 6.16E-02  11%   8.000 Cr+PCr                                              
 6.16E-02  19%   7.988 Glu+Gln                                             
   6 lines in following misc. output table
  FWHM = 0.041 ppm    S/N =   2                                            
  Data shift = 0.012 ppm                                                   
  Ph:  28 deg       0.3 deg/ppm                                            
  alphaB,S = 3.1E+01,   5.1E+01                                            
   18 spline knots.   Ns = 7(1)                                            
   2 inflections.     1 extrema                                            
  654 points on ppm-axis = NY
      4.000000     3.994181     3.988363     3.982544     3.976726     3.970907     3.965088     3.959270     3.953451     3.947633
      3.941814     3.935995     3.930177     3.924358     3.918540     3.912721     3.906902     3.901084     3.895265     3.889446
      3.883628     3.877809     3.871991     3.866172     3.860353     3.854535     3.848716     3.842898     3.837079     3.831260
      3.825442     3.819623     3.813805     3.807986     3.802167     3.796349     3.790530     3.784712     3.778893     3.773074
      3.767256     3.761437     3.755619     3.749800     3.743981     3.738163     3.732344     3.726526     3.720707     3.714888
      3.709070     3.703251     3.697433     3.691614     3.685795     3.679977     3.674158     3.668339     3.662521     3.656702
      3.650884     3.645065     3.639246     3.633428     3.627609     3.621791     3.615972     3.610153     3.604335     3.598516
      3.592698     3.586879     3.581060     3.575242     3.569423     3.563605     3.557786     3.551967     3.546149     3.540330
      3.534512     3.528693     3.522874     3.517056     3.511237     3.505419     3.499600     3.493781     3.487963     3.482144
      3.476326     3.470507     3.464688     3.458870     3.453051     3.447232     3.441414     3.435595     3.429777     3.423958
      3.418139     3.412321     3.406502     3.400684     3.394865     3.389046     3.383228     3.377409     3.371591     3.365772
      3.359953     3.354135     3.348316     3.342498     3.336679     3.330860     3.325042     3.319223     3.313405     3.307586
      3.301767     3.295949     3.290130     3.284312     3.278493     3.272674     3.266856     3.261037     3.255219     3.249400
      3.243581     3.237763     3.231944     3.226125     3.220307     3.214488     3.208670     3.202851     3.197032     3.191214
      3.185395     3.179577     3.173758     3.167939     3.162121     3.156302     3.150484     3.144665     3.138846     3.133028
      3.127209     3.121391     3.115572     3.109753     3.103935     3.098116     3.092298     3.086479     3.080660     3.074842
      3.069023     3.063205     3.057386     3.051567     3.045749     3.039930     3.034111     3.028293     3.022474     3.016656
      3.010837     3.005018     2.999200     2.993381     2.987563     2.981744     2.975925     2.970107     2.964288     2.958470
      2.952651     2.946832     2.941014     2.935195     2.929377     2.923558     2.917739     2.911921     2.906102     2.900284
      2.894465     2.888646     2.882828     2.877009     2.871191     2.865372     2.859553     2.853735     2.847916     2.842098
      2.836279     2.830460     2.824642     2.818823     2.813004     2.807186     2.801367     2.795549     2.789730     2.783911
      2.778093     2.772274     2.766456     2.760637     2.754818     2.749000     2.743181     2.737363     2.731544     2.725725
      2.719907     2.714088     2.708270     2.702451     2.696632     2.690814     2.684995     2.679177     2.673358     2.667539
      2.661721     2.655902     2.650084     2.644265     2.638446     2.632628     2.626809     2.620991     2.615172     2.609353
      2.603535     2.597716     2.591897     2.586079     2.580260     2.574442     2.568623     2.562804     2.556986     2.551167
      2.545349     2.539530     2.533711     2.527893     2.522074     2.516256     2.510437     2.504618     2.498800     2.492981
      2.487163     2.481344     2.475525     2.469707     2.463888     2.458070     2.452251     2.446432     2.440614     2.434795
      2.428977     2.423158     2.417339     2.411521     2.405702     2.399884     2.394065     2.388246     2.382428     2.376609
      2.370790     2.364972     2.359153     2.353335     2.347516     2.341697     2.335879     2.330060     2.324242     2.318423
      2.312604     2.306786     2.300967     2.295149     2.289330     2.283511     2.277693     2.271874     2.266056     2.260237
      2.254418     2.248600     2.242781     2.236963     2.231144     2.225325     2.219507     2.213688     2.207870     2.202051
      2.196232     2.190414     2.184595     2.178777     2.172958     2.167139     2.161321     2.155502     2.149683     2.143865
      2.138046     2.132228     2.126409     2.120590     2.114772     2.108953     2.103135     2.097316     2.091497     2.085679
      2.079860     2.074042     2.068223     2.062404     2.056586     2.050767     2.044949     2.039130     2.033311     2.027493
      2.021674     2.015856     2.010037     2.004218     1.998400     1.992581     1.986763     1.980944     1.975126     1.969307
      1.963489     1.957670     1.951852     1.946033     1.940215     1.934397     1.928578     1.922760     1.916941     1.911123
      1.905304     1.899486     1.893667     1.887849     1.882030     1.876212     1.870393     1.864575     1.858756     1.852938
      1.847119     1.841301     1.835482     1.829664     1.823845     1.818027     1.812208     1.806390     1.800571     1.794753
      1.788934     1.783116     1.777297     1.771479     1.765660     1.759842     1.754023     1.748205     1.742386     1.736568
      1.730749     1.724931     1.719113     1.713294     1.707476     1.701657     1.695839     1.690020     1.684202     1.678383
      1.672565     1.666746     1.660928     1.655109     1.649291     1.643472     1.637654     1.631835     1.626017     1.620198
      1.614380     1.608561     1.602743     1.596924     1.591106     1.585287     1.579469     1.573650     1.567832     1.562013
      1.556195     1.550376     1.544558     1.538739     1.532921     1.527102     1.521284     1.515465     1.509647     1.503829
      1.498010     1.492192     1.486373     1.480555     1.474736     1.468918     1.463099     1.457281     1.451462     1.445644
      1.439825     1.434007     1.428188     1.422370     1.416551     1.410733     1.404914     1.399096     1.393277     1.387459
      1.381640     1.375822     1.370003     1.364185     1.358366     1.352548     1.346729     1.340911     1.335092     1.329274
      1.323455     1.317637     1.311818     1.306000     1.300182     1.294363     1.288545     1.282726     1.276908     1.271089
      1.265271     1.259452     1.253634     1.247815     1.241997     1.236178     1.230360     1.224541     1.218723     1.212904
      1.207086     1.201267     1.195449     1.189630     1.183812     1.177993     1.172175     1.166356     1.160538     1.154719
      1.148901     1.143082     1.137264     1.131445     1.125627     1.119808     1.113990     1.108171     1.102353     1.096534
      1.090716     1.084898     1.079079     1.073261     1.067442     1.061624     1.055805     1.049987     1.044168     1.038350
      1.032531     1.026713     1.020894     1.015076     1.009257     1.003439     0.997620     0.991802     0.985983     0.980165
      0.974346     0.968528     0.962709     0.956891     0.951072     0.945254     0.939435     0.933617     0.927798     0.921980
      0.916161     0.910343     0.904524     0.898706     0.892887     0.887069     0.881251     0.875432     0.869614     0.863795
      0.857977     0.852158     0.846340     0.840521     0.834703     0.828884     0.823066     0.817247     0.811429     0.805610
      0.799792     0.793973     0.788155     0.782336     0.776518     0.770699     0.764881     0.759062     0.753244     0.747425
      0.741607     0.735788     0.729970     0.724151     0.718333     0.712514     0.706696     0.700877     0.695059     0.689240
      0.683422     0.677603     0.671785     0.665967     0.660148     0.654330     0.648511     0.642693     0.636874     0.631056
      0.625237     0.619419     0.613600     0.607782     0.601963     0.596145     0.590326     0.584508     0.578689     0.572871
      0.567052     0.561234     0.555415     0.549597     0.543778     0.537960     0.532141     0.526323     0.520504     0.514686
      0.508867     0.503049     0.497230     0.491412     0.485593     0.479775     0.473956     0.468138     0.462319     0.456501
      0.450682     0.444864     0.439045     0.433227     0.427408     0.421590     0.415771     0.409953     0.404134     0.398316
      0.392497     0.386679     0.380860     0.375042     0.369223     0.363405     0.357586     0.351767     0.345949     0.340130
      0.334312     0.328493     0.322675     0.316856     0.311038     0.305219     0.299401     0.293582     0.287764     0.281945
      0.276127     0.270308     0.264490     0.258671     0.252853     0.247034     0.241216     0.235397     0.229579     0.223760
      0.217942     0.212123     0.206305     0.200486
 NY phased data points follow
  -5.81704E-02 -1.70408E-01 -6.26586E-02 -1.45388E-02 -2.32772E-02  2.33621E-02 -7.70753E-02 -1.96266E-01  7.72338E-02  1.61975E-01
  -1.21750E-01  3.51687E-01  2.09941E-01  3.64579E-01  1.43178E-01  1.40652E-01  5.18102E-01  1.08446E-01  5.17886E-01  2.72769E-01
   3.07797E-02  3.78687E-02 -8.35536E-02 -2.49499E-01 -1.10022E-01  2.70625E-01  4.04313E-02 -1.23283E-01 -1.56555E-01  7.48537E-02
   5.37566E-02 -3.99852E-02  5.69852E-02  9.11762E-02 -2.18294E-01 -2.83494E-01 -1.64416E-01 -4.79108E-01 -3.08042E-01 -3.28390E-01
  -5.52023E-01 -6.73793E-02  7.26382E-02  1.37529E-01  1.98729E-01  7.31154E-02  4.01009E-01  5.54211E-03 -3.01211E-01  7.96796E-02
   6.62896E-02  2.63199E-01  3.55735E-01  1.29097E-01  1.51437E-01 -1.31595E-01  3.76172E-02 -2.51543E-01 -4.98134E-01  9.91414E-02
   7.17828E-02  3.58788E-01 -2.93105E-01 -3.36822E-01 -8.32992E-02 -3.44762E-01  3.98553E-02 -1.14230E-01  2.48544E-01  2.54304E-01
   2.08919E-01  3.91708E-01  3.08128E-01  4.12735E-01  3.49649E-01 -1.14427E-02 -3.30954E-02  1.05766E-02 -1.41428E-01 -1.77585E-01
  -2.17248E-01 -1.40042E-01 -1.19730E-01  5.36610E-02 -2.15110E-01  2.34546E-01  1.64817E-01  6.19246E-03  5.11072E-01  9.67087E-02
   3.49179E-01  4.66389E-01  2.95133E-01 -2.53233E-02  2.39151E-02 -4.17619E-02 -2.69775E-01 -3.78529E-02 -2.98243E-01 -1.08951E-01
  -1.08074E-01 -3.80221E-01 -3.99339E-01  1.78590E-02  5.34518E-01  1.78623E-01  2.21728E-01  3.85135E-01  8.79522E-02  2.12433E-01
   3.37408E-01  6.68187E-01  1.96752E-01 -2.76951E-02  1.78544E-01 -4.01268E-01  2.61482E-01  4.69021E-01  2.00485E-01  3.67395E-01
   1.05857E-01  3.58264E-01  3.57637E-01 -2.23233E-01 -1.22616E-01 -1.99714E-01 -4.69352E-01 -2.35095E-01 -1.95198E-01 -2.52618E-01
  -4.20068E-01 -2.80733E-01 -4.73934E-01 -5.66708E-01 -2.48036E-01 -1.21624E-01 -3.15864E-01 -7.72830E-01 -7.82182E-01 -5.20174E-01
  -1.18548E-01 -1.61415E-01 -3.39597E-01 -6.22773E-01 -4.13881E-01 -6.40243E-03 -1.40711E-01  7.44138E-02  1.76470E-01 -1.50455E-01
   3.72811E-02  1.65968E-01  5.61092E-02  3.10620E-01 -5.69731E-02  2.09829E-01  1.82603E-01  1.42934E-01  1.24412E-01 -1.26394E-01
   5.49663E-01  3.14653E-01  5.31205E-01  6.36315E-01  4.72309E-01  5.36520E-01  4.08717E-01  4.22237E-01 -6.88962E-02 -3.44005E-01
  -3.22762E-01 -6.23778E-01 -7.32994E-01 -4.00446E-01 -4.25893E-01 -2.84942E-01 -3.25755E-01 -3.16958E-01 -2.20341E-01 -3.02020E-01
  -5.06704E-01 -4.69802E-01 -1.03152E-01 -2.94201E-01 -1.67526E-01 -4.86228E-01 -1.31236E-01  1.68192E-01 -4.19304E-01  1.20456E-02
  -3.08547E-01 -6.42006E-01 -8.63159E-02 -4.35443E-02 -2.50801E-01 -7.43036E-02 -1.93977E-01 -3.47307E-01  3.28386E-02 -6.34109E-02
  -8.04709E-02  6.12912E-02 -1.35980E-01 -7.41664E-02 -4.91922E-02 -9.23906E-02 -1.53818E-01 -4.65461E-01  1.16654E-01  4.99339E-01
  -2.60094E-01 -3.99691E-02 -2.65832E-01 -3.24777E-01  1.30893E-01 -3.37011E-01 -5.30909E-03  1.86434E-01  1.81083E-01 -4.97920E-03
  -7.12287E-02 -4.52149E-02 -1.68493E-01  1.26609E-01  1.36820E-01  2.51992E-01  1.76514E-01  3.26050E-01  2.85495E-01  2.42571E-01
   3.03562E-01  2.76211E-01  3.47864E-01  1.28671E-01  1.00870E-01  1.29404E-02  2.08538E-01  1.56039E-01  1.01468E-01  1.83061E-01
   8.29715E-02  2.64683E-01  1.22146E-01 -3.00222E-02 -1.44492E-01 -2.83742E-01  1.65245E-01 -9.27124E-03 -2.17243E-01  2.93913E-01
   2.44825E-02  5.36148E-02  4.85511E-02 -2.26469E-01 -7.41004E-02  7.13106E-02 -8.08685E-02 -2.94153E-01  6.78384E-02 -7.28029E-02
  -1.03070E-01  1.74727E-01  1.08599E-01  1.92484E-01  1.69031E-01  5.18666E-02  2.13348E-01  2.18462E-01 -3.85383E-02  2.10832E-01
   2.05901E-01  9.38670E-02  2.10185E-01  3.57256E-02  4.53609E-02  1.13991E-01  1.12841E-01 -2.31051E-02 -1.35307E-01 -1.20330E-01
   9.18845E-03  5.92198E-02 -1.98931E-01 -1.53001E-01  1.47796E-02  1.02655E-01  1.49382E-01  4.13281E-01  6.32462E-01  3.26366E-01
   2.82514E-02  2.03258E-01  2.03751E-01 -1.65690E-01  2.61202E-01  2.55748E-01  4.70341E-02  3.13306E-01  2.85014E-01  2.54567E-01
   1.90550E-01  2.75107E-01 -1.71298E-02  8.65082E-02  2.28285E-01  2.01058E-01  4.23927E-01  1.85091E-01  7.73917E-02  2.97707E-01
   5.36433E-01  2.12786E-01  7.98184E-02  1.67906E-01  6.64561E-02  2.38155E-02  2.84920E-01  1.60607E-01 -2.11846E-01 -8.78918E-02
  -3.27395E-01  1.06307E-03 -8.09914E-04 -3.05496E-01 -1.69805E-01 -2.35143E-01 -2.43515E-01  8.23137E-02  8.21073E-02 -1.23962E-01
   3.20277E-01  3.30176E-02  1.27636E-02 -4.36636E-02 -1.00024E-01  1.01860E-01 -5.01635E-02 -2.03836E-01 -4.96900E-01 -3.11934E-01
  -2.68769E-01 -3.02508E-01 -1.02465E+00 -9.78273E-01 -6.82376E-01 -9.35705E-01 -6.23319E-01 -5.33001E-01 -5.11334E-01 -3.36798E-01
   1.30247E-02 -1.10802E-01  1.67130E-01  2.46369E-01 -1.89105E-02 -3.17323E-01  5.30036E-02  2.23625E-01 -3.10863E-01  2.24348E-01
   1.26103E-01  9.11052E-02  1.56196E-01  1.13513E-01  1.51946E-01  1.47061E-01  5.04944E-02 -1.70899E-01  1.33250E-01 -1.38151E-01
  -1.64661E-02  1.34427E-01 -3.76307E-02  2.63368E-01  1.00361E-01  1.36528E-01  3.45908E-02 -5.08360E-02  1.32625E-01  5.37341E-02
   4.40149E-01  9.83235E-02  5.33018E-02  3.10932E-01  1.07883E-01  3.00610E-01  4.02468E-01  2.30195E-01  3.41618E-02  1.39413E-01
  -9.11406E-02  1.99450E-01  2.92666E-01  2.34883E-01  6.36884E-03 -1.23348E-01  3.84254E-01  1.05703E-01 -7.85566E-02 -5.01592E-02
   9.67984E-02 -6.60448E-02 -4.98378E-02 -4.79394E-03 -1.99809E-02  5.59384E-02 -1.09896E-01 -1.82825E-01 -1.69633E-01  5.69803E-02
  -7.37688E-02  9.31705E-03  2.44862E-01  1.58967E-01  1.51024E-02 -1.05959E-02 -8.72200E-02 -1.97652E-01 -4.73684E-01 -4.90871E-01
   3.52055E-02  2.34150E-01 -1.79229E-01 -2.80492E-01 -3.22423E-01 -3.26583E-01 -1.92723E-01 -4.22379E-01  1.39792E-02 -2.42151E-01
  -3.28025E-01 -1.15264E-01 -2.10809E-01 -9.81073E-02  2.84580E-02  5.38749E-01  1.70222E-02 -2.10096E-01 -1.14872E-02 -2.07308E-01
   1.10867E-01 -1.41716E-01 -9.73754E-02  3.42920E-01 -1.51377E-01  4.43326E-01  3.49708E-01 -1.51736E-01 -5.18620E-02  2.17297E-01
   4.89322E-01 -2.27096E-01 -2.14484E-02  2.52093E-01  3.01303E-01 -2.06799E-01  2.07828E-01 -7.21522E-02 -2.08392E-01  1.59036E-01
  -7.41205E-02  6.15753E-01 -9.49009E-02  2.85893E-01  2.30283E-02  1.34959E-01  3.74422E-01  2.67522E-02  1.32411E-02 -2.65582E-01
   2.44947E-01 -2.73246E-01 -1.01719E-01 -8.19083E-03  5.06072E-02 -6.68541E-02  3.55427E-02 -2.61430E-02 -1.27706E-01  1.85744E-01
  -2.51657E-02  8.20254E-02 -1.44506E-01  1.75992E-01  1.09426E-02 -1.63587E-02  1.59799E-01  6.57973E-02 -3.69996E-02 -1.30426E-01
  -4.88308E-02  9.36381E-02  1.29801E-01 -1.02905E-01  6.32313E-02 -9.77306E-02 -1.60617E-01  1.06325E-01  3.91573E-01 -9.15438E-02
  -1.24022E-01  2.01509E-01  2.15178E-01  1.66295E-01 -2.79668E-03  8.84637E-02 -1.93256E-01  1.10925E-01 -4.21031E-02  6.87302E-02
   4.20709E-01  6.46298E-02  2.04246E-02  4.34850E-02  5.92172E-02 -1.45244E-01 -1.27777E-01 -2.51414E-01 -2.25275E-01 -3.79274E-02
  -1.88080E-01 -6.72070E-02  6.73500E-02 -2.12946E-01  2.98907E-02  2.57685E-01 -3.94326E-01 -5.01778E-01 -2.89488E-01 -1.13313E-01
  -9.83602E-02 -2.66567E-01 -1.87473E-01 -5.79954E-02 -3.07033E-02  8.33022E-02 -9.22950E-02 -2.13793E-01  3.21274E-01 -8.65551E-02
  -9.29762E-02 -1.68187E-01 -3.85626E-01  2.08446E-01 -6.96479E-02  2.90597E-02  9.92286E-02  2.93029E-01  3.18042E-01  1.36296E-01
   2.21153E-01  2.17564E-01  3.06010E-01 -1.17127E-03  1.89278E-01  2.11529E-01 -3.31162E-02  1.59556E-01  3.99490E-01  1.19162E-01
   2.07650E-01  3.05178E-01  1.94870E-01  1.97156E-01 -2.94665E-01 -8.91808E-02  1.40353E-01  9.68959E-02  8.50347E-02  8.38164E-02
  -7.31947E-03 -1.56164E-01  5.61821E-02  1.87101E-01 -6.07750E-02 -5.51757E-04  5.40164E-02 -3.16959E-01 -2.62133E-01 -2.04530E-01
  -2.95536E-02  2.91509E-01  6.26063E-02 -3.08517E-01 -9.87451E-03  1.44099E-01  2.23855E-02  4.53592E-03  2.50218E-01  4.20428E-01
   2.87207E-01 -1.34643E-01 -4.11223E-01  2.62709E-01  2.33082E-01  2.77550E-01  1.31150E-01  2.44282E-01  5.16760E-01 -1.69908E-02
  -1.20575E-01 -9.33543E-02  1.45002E-01 -1.43253E-01  1.75266E-01  2.03289E-01  6.99922E-02  4.30624E-01  4.16189E-01  2.40149E-01
  -3.05350E-01  8.83765E-02  1.34340E-01  8.34542E-02  6.80279E-02 -1.59247E-01  8.06108E-02 -2.55134E-02  6.08420E-02 -1.13030E-01
  -1.54525E-01 -2.22797E-02 -1.09600E-01  1.58461E-01  2.43490E-01  1.27835E-01 -4.20123E-02 -2.16362E-02 -2.43236E-01 -2.61948E-01
   1.47725E-01 -1.05665E-02  7.96157E-02 -1.43821E-01 -3.77676E-01  4.71620E-03 -2.90655E-02  1.75614E-01  2.12404E-01  1.07739E-01
   1.40857E-01  6.14165E-02  1.78831E-01 -2.16957E-01  1.04032E-02  2.36496E-01  8.63361E-02  1.94517E-01 -8.03699E-02 -9.43050E-02
  -5.84225E-02  3.31402E-02 -1.55121E-01  1.37412E-01
 NY points of the fit to the data follow
   7.91693E-02  7.59064E-02  6.36512E-02  4.58179E-02  2.68816E-02  1.07699E-02  4.71215E-03  1.09613E-02  2.46369E-02  5.08753E-02
   9.65759E-02  1.58154E-01  2.22547E-01  2.79236E-01  3.28778E-01  3.66914E-01  3.75022E-01  3.45783E-01  2.90463E-01  2.21183E-01
   1.52272E-01  9.62747E-02  4.76563E-02  5.06222E-03 -2.39766E-02 -4.50034E-02 -6.25026E-02 -7.76301E-02 -9.11849E-02 -1.03632E-01
  -1.15509E-01 -1.27489E-01 -1.40615E-01 -1.55739E-01 -1.71613E-01 -1.84623E-01 -1.93536E-01 -1.95861E-01 -1.89252E-01 -1.68567E-01
  -1.32156E-01 -8.20206E-02 -2.63945E-02  2.88145E-02  7.96053E-02  1.22948E-01  1.56459E-01  1.77202E-01  1.83637E-01  1.78768E-01
   1.63067E-01  1.36192E-01  1.02401E-01  6.42109E-02  2.36995E-02 -1.75885E-02 -5.88237E-02 -1.01065E-01 -1.36300E-01 -1.67427E-01
  -1.94733E-01 -2.10808E-01 -2.14805E-01 -2.02690E-01 -1.71408E-01 -1.20589E-01 -5.11114E-02  2.76295E-02  1.04964E-01  1.76641E-01
   2.30415E-01  2.53206E-01  2.48823E-01  2.20241E-01  1.61308E-01  8.77949E-02  1.41622E-02 -6.03503E-02 -1.31709E-01 -1.93170E-01
  -2.25569E-01 -2.11860E-01 -1.57401E-01 -7.73455E-02  1.92294E-02  1.16987E-01  1.96915E-01  2.52382E-01  2.79155E-01  2.75215E-01
   2.55672E-01  2.24196E-01  1.78894E-01  1.19439E-01  5.39651E-02 -1.70880E-02 -8.94708E-02 -1.56155E-01 -2.06878E-01 -2.28669E-01
  -2.08296E-01 -1.47158E-01 -5.81728E-02  3.96047E-02  1.27395E-01  1.94142E-01  2.39855E-01  2.66514E-01  2.75486E-01  2.78328E-01
   2.74367E-01  2.70934E-01  2.68212E-01  2.66071E-01  2.64434E-01  2.63358E-01  2.62692E-01  2.58615E-01  2.51286E-01  2.40730E-01
   2.23632E-01  1.96456E-01  1.54728E-01  9.68100E-02  2.55910E-02 -5.55955E-02 -1.41268E-01 -2.25222E-01 -3.01859E-01 -3.57166E-01
  -3.83906E-01 -3.98124E-01 -4.02012E-01 -3.89303E-01 -3.79647E-01 -4.06106E-01 -4.77302E-01 -5.55195E-01 -5.85690E-01 -5.53679E-01
  -4.75686E-01 -3.74883E-01 -2.74433E-01 -1.82862E-01 -9.83931E-02 -3.44613E-02  3.62312E-03  3.19107E-02  5.50413E-02  7.49763E-02
   9.28775E-02  1.09603E-01  1.25770E-01  1.41897E-01  1.58502E-01  1.76171E-01  1.95630E-01  2.17814E-01  2.43884E-01  2.75956E-01
   3.19631E-01  3.87600E-01  4.45120E-01  4.66067E-01  4.59045E-01  4.39745E-01  3.85370E-01  2.45543E-01  1.78506E-02 -2.19865E-01
  -3.98899E-01 -5.01053E-01 -5.31194E-01 -5.15600E-01 -4.83089E-01 -4.27748E-01 -3.58521E-01 -3.13300E-01 -2.81459E-01 -2.57190E-01
  -2.37315E-01 -2.20333E-01 -2.05200E-01 -1.92155E-01 -1.81052E-01 -1.71472E-01 -1.62691E-01 -1.54357E-01 -1.46609E-01 -1.39308E-01
  -1.32164E-01 -1.25071E-01 -1.18054E-01 -1.11025E-01 -1.04149E-01 -9.74671E-02 -9.07164E-02 -8.36914E-02 -7.68241E-02 -7.04624E-02
  -6.45046E-02 -5.83569E-02 -5.21537E-02 -4.72218E-02 -4.44094E-02 -4.29973E-02 -4.17200E-02 -4.04064E-02 -4.02029E-02 -4.19321E-02
  -4.48867E-02 -4.76797E-02 -4.96006E-02 -5.05211E-02 -5.07173E-02 -5.04235E-02 -4.94886E-02 -4.81707E-02 -4.68072E-02 -4.13535E-02
  -2.82231E-02 -9.65043E-03  1.08065E-02  3.52986E-02  7.15893E-02  1.19686E-01  1.63588E-01  1.90554E-01  2.04173E-01  2.14422E-01
   2.22954E-01  2.20567E-01  1.97824E-01  1.58007E-01  1.13289E-01  7.10894E-02  3.43792E-02  3.39213E-03 -2.16585E-02 -3.82126E-02
  -4.81606E-02 -5.58258E-02 -6.19824E-02 -6.71967E-02 -7.17157E-02 -7.58779E-02 -8.00363E-02 -8.45088E-02 -8.98050E-02 -9.65390E-02
  -1.06213E-01 -1.14276E-01 -1.19184E-01 -1.23686E-01 -1.25766E-01 -1.18629E-01 -9.68029E-02 -6.56696E-02 -3.24450E-02  3.53898E-03
   4.20701E-02  7.61809E-02  1.00492E-01  1.18000E-01  1.29028E-01  1.33881E-01  1.36420E-01  1.33979E-01  1.27301E-01  1.19994E-01
   1.11917E-01  1.00139E-01  8.26509E-02  6.25193E-02  3.93641E-02  1.20830E-02 -1.79855E-02 -5.05896E-02 -8.27252E-02 -1.10943E-01
  -1.32294E-01 -1.42397E-01 -1.35618E-01 -1.08256E-01 -5.98421E-02  4.05539E-03  7.23141E-02  1.34105E-01  1.80172E-01  2.05914E-01
   2.13601E-01  2.08715E-01  1.95382E-01  1.80286E-01  1.67419E-01  1.57840E-01  1.53127E-01  1.51325E-01  1.50637E-01  1.50097E-01
   1.48906E-01  1.47192E-01  1.44936E-01  1.42075E-01  1.39208E-01  1.36019E-01  1.32583E-01  1.28681E-01  1.23843E-01  1.17751E-01
   1.09920E-01  9.94994E-02  8.59050E-02  6.85946E-02  4.77876E-02  2.25867E-02 -6.30302E-03 -3.80488E-02 -7.01476E-02 -1.00194E-01
  -1.25215E-01 -1.42448E-01 -1.49460E-01 -1.45167E-01 -1.30049E-01 -1.05554E-01 -7.52899E-02 -4.37254E-02 -1.54242E-02  4.83806E-03
   1.50414E-02  1.60667E-02  1.00375E-02  1.26813E-03 -6.46831E-03 -7.69493E-03 -3.18576E-02 -1.01254E-01 -1.98957E-01 -3.03422E-01
  -4.27754E-01 -6.01913E-01 -8.02061E-01 -9.39669E-01 -9.55177E-01 -8.63836E-01 -7.10231E-01 -5.40997E-01 -3.92079E-01 -2.61933E-01
  -1.53151E-01 -9.07982E-02 -5.98540E-02 -3.98552E-02 -2.57177E-02 -1.53307E-02 -7.72128E-03 -2.44932E-03  8.47692E-04  2.38280E-03
   2.54326E-03  1.85912E-03  8.06258E-04 -1.65168E-04 -4.47485E-04  3.58523E-04  2.39308E-03  5.56908E-03  9.58011E-03  1.39266E-02
   1.84395E-02  2.28046E-02  2.69478E-02  3.08347E-02  3.42636E-02  3.73380E-02  4.01272E-02  4.27377E-02  4.52464E-02  4.76619E-02
   4.98990E-02  5.19849E-02  5.39806E-02  5.59201E-02  5.78028E-02  5.96039E-02  6.12711E-02  6.28741E-02  6.44866E-02  6.61368E-02
   6.77703E-02  6.93345E-02  7.06544E-02  7.15734E-02  7.19578E-02  7.17745E-02  7.10754E-02  6.99762E-02  6.84830E-02  6.65246E-02
   6.41391E-02  6.13877E-02  5.83193E-02  5.49273E-02  5.12999E-02  4.75956E-02  4.39616E-02  4.04399E-02  3.70370E-02  3.37712E-02
   3.06836E-02  2.78194E-02  2.52115E-02  2.27950E-02  2.05567E-02  1.85040E-02  1.65893E-02  1.47711E-02  1.31384E-02  1.17253E-02
   1.05209E-02  9.57332E-03  8.93947E-03  8.71429E-03  8.97872E-03  9.72471E-03  1.08786E-02  1.23575E-02  1.41185E-02  1.61746E-02
   1.83980E-02  2.05807E-02  2.27063E-02  2.49247E-02  2.74276E-02  3.03927E-02  3.38202E-02  3.76022E-02  4.17027E-02  4.61836E-02
   5.10943E-02  5.64397E-02  6.21585E-02  6.81425E-02  7.42464E-02  8.03229E-02  8.62131E-02  9.17016E-02  9.65029E-02  1.00418E-01
   1.03295E-01  1.05035E-01  1.05589E-01  1.04862E-01  1.02736E-01  1.01048E-01  1.00161E-01  1.00867E-01  1.03207E-01  1.07549E-01
   1.14842E-01  1.24724E-01  1.34476E-01  1.40732E-01  1.40391E-01  1.33126E-01  1.21631E-01  1.08411E-01  9.47659E-02  8.25648E-02
   7.27724E-02  6.47341E-02  5.94060E-02  5.54730E-02  5.26111E-02  5.07730E-02  4.98360E-02  4.96931E-02  5.02493E-02  5.13907E-02
   5.29977E-02  5.49918E-02  5.72217E-02  5.95079E-02  6.17772E-02  6.39322E-02  6.58281E-02  6.74518E-02  6.88527E-02  7.01250E-02
   7.12274E-02  7.20085E-02  7.23670E-02  7.22779E-02  7.17959E-02  7.09502E-02  6.97316E-02  6.82007E-02  6.65227E-02  6.47995E-02
   6.30098E-02  6.11337E-02  5.91675E-02  5.71609E-02  5.51814E-02  5.31603E-02  5.10843E-02  4.90465E-02  4.71316E-02  4.52831E-02
   4.33667E-02  4.13079E-02  3.90491E-02  3.65011E-02  3.35300E-02  3.00400E-02  2.59585E-02  2.13026E-02  1.60393E-02  1.00213E-02
   3.09028E-03 -4.72599E-03 -1.32314E-02 -2.21873E-02 -3.14153E-02 -4.06978E-02 -4.96885E-02 -5.80833E-02 -6.57672E-02 -7.26170E-02
  -7.83893E-02 -8.28423E-02 -8.58519E-02 -8.75401E-02 -8.80277E-02 -8.74047E-02 -8.57749E-02 -8.33120E-02 -8.02798E-02 -7.69399E-02
  -7.33640E-02 -6.94750E-02 -6.52401E-02 -6.06844E-02 -5.57783E-02 -5.05374E-02 -4.50182E-02 -3.92848E-02 -3.34383E-02 -2.76359E-02
  -2.20097E-02 -1.65232E-02 -1.11106E-02 -5.91994E-03 -1.10388E-03  3.38115E-03  7.62932E-03  1.16546E-02  1.53771E-02  1.86909E-02
   2.16264E-02  2.43117E-02  2.67531E-02  2.89040E-02  3.07153E-02  3.22297E-02  3.35854E-02  3.48166E-02  3.58485E-02  3.67851E-02
   3.77505E-02  3.87439E-02  3.98041E-02  4.09092E-02  4.19715E-02  4.29111E-02  4.36734E-02  4.42416E-02  4.46051E-02  4.48135E-02
   4.49419E-02  4.49855E-02  4.49683E-02  4.50132E-02  4.51418E-02  4.52068E-02  4.52085E-02  4.52705E-02  4.53637E-02  4.53441E-02
   4.50550E-02  4.45759E-02  4.41509E-02  4.38407E-02  4.35581E-02  4.33153E-02  4.31447E-02  4.29995E-02  4.28313E-02  4.26211E-02
   4.24570E-02  4.24816E-02  4.27036E-02  4.30163E-02  4.33703E-02  4.37920E-02  4.43240E-02  4.48214E-02  4.52005E-02  4.54898E-02
   4.57317E-02  4.58759E-02  4.58619E-02  4.57451E-02  4.56371E-02  4.56071E-02  4.57098E-02  4.59831E-02  4.63928E-02  4.68913E-02
   4.74079E-02  4.79170E-02  4.84502E-02  4.90550E-02  4.96459E-02  5.00774E-02  5.02225E-02  5.01313E-02  4.99901E-02  4.99066E-02
   4.98608E-02  4.97784E-02  4.95812E-02  4.93415E-02  4.92044E-02  4.91566E-02  4.91026E-02  4.89954E-02  4.89381E-02  4.90616E-02
   4.92538E-02  4.93950E-02  4.95286E-02  4.97270E-02  5.00311E-02  5.04588E-02  5.09783E-02  5.16629E-02  5.25822E-02  5.36769E-02
   5.48036E-02  5.58801E-02  5.68714E-02  5.78050E-02
 NY background values follow
     2.463E-02    2.459E-02    2.454E-02    2.450E-02    2.445E-02    2.441E-02    2.436E-02    2.432E-02    2.427E-02    2.423E-02
     2.418E-02    2.414E-02    2.409E-02    2.405E-02    2.400E-02    2.396E-02    2.392E-02    2.387E-02    2.383E-02    2.378E-02
     2.374E-02    2.369E-02    2.365E-02    2.360E-02    2.356E-02    2.351E-02    2.347E-02    2.342E-02    2.338E-02    2.333E-02
     2.329E-02    2.324E-02    2.320E-02    2.315E-02    2.311E-02    2.306E-02    2.302E-02    2.297E-02    2.293E-02    2.288E-02
     2.284E-02    2.279E-02    2.275E-02    2.270E-02    2.266E-02    2.261E-02    2.257E-02    2.252E-02    2.248E-02    2.243E-02
     2.239E-02    2.234E-02    2.230E-02    2.225E-02    2.221E-02    2.216E-02    2.212E-02    2.207E-02    2.203E-02    2.198E-02
     2.194E-02    2.189E-02    2.185E-02    2.180E-02    2.176E-02    2.171E-02    2.166E-02    2.162E-02    2.157E-02    2.153E-02
