 LCModel (Version 6.3-1N) Copyright: S.W. Provencher.          Ref.: Magn. Reson. Med. 30:672-679 (1993).                
 Slice_N1@20_24  02-Jun-2023 14:37:36
 27 lines in following concentration table = NCONC+1
    Conc.  %SD /Cr+PCr  Metabolite                                         
 9.66E-07  38% 1.2E-04 Mac                                                 
 4.13E-02  37%   5.095 Cr                                                  
 2.36E-02  64%   2.905 PCr                                                 
 5.74E-02  18%   7.074 Ins                                                 
 9.94E-02   8%  12.256 NAA                                                 
 8.64E-02  12%  10.646 Tau                                                 
 1.65E-02  55%   2.033 PCho                                                
 1.33E-03 658%   0.164 GPC                                                 
 4.65E-02  25%   5.733 Glu                                                 
 8.67E-03  86%   1.069 Gln                                                 
 5.48E-03 165%   0.675 Ala                                                 
 4.55E-02  36%   5.611 Asc                                                 
 1.41E-02  53%   1.740 Asp                                                 
 6.44E-03  65%   0.794 GABA                                                
 5.33E-03  90%   0.657 Glc                                                 
 3.21E-03 111%   0.396 GSH                                                 
    0.000 999%   0.000 Lac                                                 
    0.000 999%   0.000 NAAG                                                
    0.000 999%   0.000 PE                                                  
 1.78E-02  15%   2.197 GPC+PCho                                            
 9.94E-02   8%  12.256 NAA+NAAG                                            
 5.52E-02  24%   6.802 Glu+Gln                                             
 6.49E-02  12%   8.000 Cr+PCr                                              
 9.94E-02   8%  12.256 NAA+NAAG                                            
 6.49E-02  12%   8.000 Cr+PCr                                              
 5.52E-02  24%   6.802 Glu+Gln                                             
   6 lines in following misc. output table
  FWHM = 0.041 ppm    S/N =   3                                            
  Data shift =-0.006 ppm                                                   
  Ph:  60 deg       1.2 deg/ppm                                            
  alphaB,S = 3.1E+01,   5.1E+01                                            
   18 spline knots.   Ns = 8(1)                                            
   2 inflections.     1 extrema                                            
  654 points on ppm-axis = NY
      4.000000     3.994181     3.988363     3.982544     3.976726     3.970907     3.965088     3.959270     3.953451     3.947633
      3.941814     3.935995     3.930177     3.924358     3.918540     3.912721     3.906902     3.901084     3.895265     3.889446
      3.883628     3.877809     3.871991     3.866172     3.860353     3.854535     3.848716     3.842898     3.837079     3.831260
      3.825442     3.819623     3.813805     3.807986     3.802167     3.796349     3.790530     3.784712     3.778893     3.773074
      3.767256     3.761437     3.755619     3.749800     3.743981     3.738163     3.732344     3.726526     3.720707     3.714888
      3.709070     3.703251     3.697433     3.691614     3.685795     3.679977     3.674158     3.668339     3.662521     3.656702
      3.650884     3.645065     3.639246     3.633428     3.627609     3.621791     3.615972     3.610153     3.604335     3.598516
      3.592698     3.586879     3.581060     3.575242     3.569423     3.563605     3.557786     3.551967     3.546149     3.540330
      3.534512     3.528693     3.522874     3.517056     3.511237     3.505419     3.499600     3.493781     3.487963     3.482144
      3.476326     3.470507     3.464688     3.458870     3.453051     3.447232     3.441414     3.435595     3.429777     3.423958
      3.418139     3.412321     3.406502     3.400684     3.394865     3.389046     3.383228     3.377409     3.371591     3.365772
      3.359953     3.354135     3.348316     3.342498     3.336679     3.330860     3.325042     3.319223     3.313405     3.307586
      3.301767     3.295949     3.290130     3.284312     3.278493     3.272674     3.266856     3.261037     3.255219     3.249400
      3.243581     3.237763     3.231944     3.226125     3.220307     3.214488     3.208670     3.202851     3.197032     3.191214
      3.185395     3.179577     3.173758     3.167939     3.162121     3.156302     3.150484     3.144665     3.138846     3.133028
      3.127209     3.121391     3.115572     3.109753     3.103935     3.098116     3.092298     3.086479     3.080660     3.074842
      3.069023     3.063205     3.057386     3.051567     3.045749     3.039930     3.034111     3.028293     3.022474     3.016656
      3.010837     3.005018     2.999200     2.993381     2.987563     2.981744     2.975925     2.970107     2.964288     2.958470
      2.952651     2.946832     2.941014     2.935195     2.929377     2.923558     2.917739     2.911921     2.906102     2.900284
      2.894465     2.888646     2.882828     2.877009     2.871191     2.865372     2.859553     2.853735     2.847916     2.842098
      2.836279     2.830460     2.824642     2.818823     2.813004     2.807186     2.801367     2.795549     2.789730     2.783911
      2.778093     2.772274     2.766456     2.760637     2.754818     2.749000     2.743181     2.737363     2.731544     2.725725
      2.719907     2.714088     2.708270     2.702451     2.696632     2.690814     2.684995     2.679177     2.673358     2.667539
      2.661721     2.655902     2.650084     2.644265     2.638446     2.632628     2.626809     2.620991     2.615172     2.609353
      2.603535     2.597716     2.591897     2.586079     2.580260     2.574442     2.568623     2.562804     2.556986     2.551167
      2.545349     2.539530     2.533711     2.527893     2.522074     2.516256     2.510437     2.504618     2.498800     2.492981
      2.487163     2.481344     2.475525     2.469707     2.463888     2.458070     2.452251     2.446432     2.440614     2.434795
      2.428977     2.423158     2.417339     2.411521     2.405702     2.399884     2.394065     2.388246     2.382428     2.376609
      2.370790     2.364972     2.359153     2.353335     2.347516     2.341697     2.335879     2.330060     2.324242     2.318423
      2.312604     2.306786     2.300967     2.295149     2.289330     2.283511     2.277693     2.271874     2.266056     2.260237
      2.254418     2.248600     2.242781     2.236963     2.231144     2.225325     2.219507     2.213688     2.207870     2.202051
      2.196232     2.190414     2.184595     2.178777     2.172958     2.167139     2.161321     2.155502     2.149683     2.143865
      2.138046     2.132228     2.126409     2.120590     2.114772     2.108953     2.103135     2.097316     2.091497     2.085679
      2.079860     2.074042     2.068223     2.062404     2.056586     2.050767     2.044949     2.039130     2.033311     2.027493
      2.021674     2.015856     2.010037     2.004218     1.998400     1.992581     1.986763     1.980944     1.975126     1.969307
      1.963489     1.957670     1.951852     1.946033     1.940215     1.934397     1.928578     1.922760     1.916941     1.911123
      1.905304     1.899486     1.893667     1.887849     1.882030     1.876212     1.870393     1.864575     1.858756     1.852938
      1.847119     1.841301     1.835482     1.829664     1.823845     1.818027     1.812208     1.806390     1.800571     1.794753
      1.788934     1.783116     1.777297     1.771479     1.765660     1.759842     1.754023     1.748205     1.742386     1.736568
      1.730749     1.724931     1.719113     1.713294     1.707476     1.701657     1.695839     1.690020     1.684202     1.678383
      1.672565     1.666746     1.660928     1.655109     1.649291     1.643472     1.637654     1.631835     1.626017     1.620198
      1.614380     1.608561     1.602743     1.596924     1.591106     1.585287     1.579469     1.573650     1.567832     1.562013
      1.556195     1.550376     1.544558     1.538739     1.532921     1.527102     1.521284     1.515465     1.509647     1.503829
      1.498010     1.492192     1.486373     1.480555     1.474736     1.468918     1.463099     1.457281     1.451462     1.445644
      1.439825     1.434007     1.428188     1.422370     1.416551     1.410733     1.404914     1.399096     1.393277     1.387459
      1.381640     1.375822     1.370003     1.364185     1.358366     1.352548     1.346729     1.340911     1.335092     1.329274
      1.323455     1.317637     1.311818     1.306000     1.300182     1.294363     1.288545     1.282726     1.276908     1.271089
      1.265271     1.259452     1.253634     1.247815     1.241997     1.236178     1.230360     1.224541     1.218723     1.212904
      1.207086     1.201267     1.195449     1.189630     1.183812     1.177993     1.172175     1.166356     1.160538     1.154719
      1.148901     1.143082     1.137264     1.131445     1.125627     1.119808     1.113990     1.108171     1.102353     1.096534
      1.090716     1.084898     1.079079     1.073261     1.067442     1.061624     1.055805     1.049987     1.044168     1.038350
      1.032531     1.026713     1.020894     1.015076     1.009257     1.003439     0.997620     0.991802     0.985983     0.980165
      0.974346     0.968528     0.962709     0.956891     0.951072     0.945254     0.939435     0.933617     0.927798     0.921980
      0.916161     0.910343     0.904524     0.898706     0.892887     0.887069     0.881251     0.875432     0.869614     0.863795
      0.857977     0.852158     0.846340     0.840521     0.834703     0.828884     0.823066     0.817247     0.811429     0.805610
      0.799792     0.793973     0.788155     0.782336     0.776518     0.770699     0.764881     0.759062     0.753244     0.747425
      0.741607     0.735788     0.729970     0.724151     0.718333     0.712514     0.706696     0.700877     0.695059     0.689240
      0.683422     0.677603     0.671785     0.665967     0.660148     0.654330     0.648511     0.642693     0.636874     0.631056
      0.625237     0.619419     0.613600     0.607782     0.601963     0.596145     0.590326     0.584508     0.578689     0.572871
      0.567052     0.561234     0.555415     0.549597     0.543778     0.537960     0.532141     0.526323     0.520504     0.514686
      0.508867     0.503049     0.497230     0.491412     0.485593     0.479775     0.473956     0.468138     0.462319     0.456501
      0.450682     0.444864     0.439045     0.433227     0.427408     0.421590     0.415771     0.409953     0.404134     0.398316
      0.392497     0.386679     0.380860     0.375042     0.369223     0.363405     0.357586     0.351767     0.345949     0.340130
      0.334312     0.328493     0.322675     0.316856     0.311038     0.305219     0.299401     0.293582     0.287764     0.281945
      0.276127     0.270308     0.264490     0.258671     0.252853     0.247034     0.241216     0.235397     0.229579     0.223760
      0.217942     0.212123     0.206305     0.200486
 NY phased data points follow
  -7.92802E-02 -2.63406E-01 -1.45190E-01 -1.67901E-01 -4.44429E-01 -3.57359E-01  2.05478E-01 -2.96823E-02 -2.22655E-02  3.76504E-01
   3.16806E-01  4.17679E-01  1.44442E-02  2.95073E-01  2.72127E-01  4.35097E-01  2.95731E-01  8.21612E-02  5.41660E-01  4.00347E-01
   2.14284E-01 -9.40131E-02  3.23709E-01  1.54565E-01  1.96702E-01 -4.07341E-01 -2.47176E-01  2.34390E-01 -3.90913E-01 -1.62601E-01
  -3.71147E-01 -3.80625E-01 -4.46807E-01  2.97747E-02  4.18958E-02 -2.81944E-01 -1.02511E-01 -5.13889E-02 -2.27900E-01 -2.23559E-01
  -3.61042E-01 -2.19281E-01  2.76262E-02 -6.74652E-02  2.98991E-01 -5.12150E-02  3.92380E-01  1.75478E-01  2.51468E-01  6.72089E-01
   2.85590E-01  1.41877E-01 -3.13638E-02 -2.66737E-03 -2.00334E-01  6.83105E-02 -5.92692E-02 -1.01093E-01  1.66991E-01  2.47748E-01
  -2.52998E-01 -4.31151E-01 -2.26687E-01 -1.63389E-01 -9.03891E-02 -1.99681E-02  6.68880E-02  7.09982E-02  2.60256E-01  3.38709E-02
   2.28867E-01 -1.00166E-01  9.58181E-02  2.67707E-01 -7.07274E-02  1.23352E-01  7.43056E-03  1.32010E-01 -1.87613E-02 -1.62109E-01
  -3.24663E-02  4.79093E-02 -9.57655E-02  2.44668E-02 -1.32755E-01 -1.49340E-02  3.51089E-01 -1.34502E-01  2.23399E-01  1.77270E-01
  -2.84482E-01  2.07316E-01  1.37683E-01  9.73054E-02 -1.16057E-01 -6.33402E-03 -5.84669E-02 -6.54493E-01 -2.04454E-01 -3.72895E-01
  -2.07020E-01  4.77279E-02 -1.10113E-01 -5.86213E-02  1.01299E-01  2.52929E-01  1.47843E-01  2.09156E-01  2.52374E-01  6.96682E-01
   7.45638E-01  2.57138E-01  1.62308E-01  2.64753E-01  2.58226E-01  3.90258E-01  8.02453E-02  4.38370E-01  4.38248E-01  7.51520E-02
   1.88556E-01  1.81728E-01  1.14092E-01 -3.55073E-01  3.62492E-01 -4.41146E-02 -2.85753E-01 -1.69610E-01 -5.37730E-01 -4.75400E-01
  -5.60378E-01 -5.52172E-01 -6.87788E-01 -1.75182E-01 -4.78059E-01 -4.84759E-01 -5.35227E-01 -8.47600E-01 -4.44493E-01 -4.29002E-01
  -6.43600E-01 -1.22887E-01 -3.80462E-01 -5.82971E-01  8.74239E-02 -4.29992E-01 -1.31231E-01 -2.79314E-01  5.10642E-02  2.01506E-01
  -3.11647E-02  2.47907E-01 -3.12249E-02  4.39793E-01 -2.32783E-01  1.48870E-02  2.01275E-01 -2.84127E-01  5.25272E-01  3.94598E-01
   4.37229E-01  5.24229E-01  5.79706E-02  5.70160E-01  6.41452E-01  2.73633E-01  5.89926E-01  2.23316E-01 -2.00967E-01 -2.04512E-01
  -2.98242E-01 -4.48875E-01 -5.99985E-01 -2.82978E-01 -3.36572E-01 -6.07950E-01 -5.17446E-01 -3.04577E-01  3.20809E-02 -1.42452E-01
  -7.17298E-02  7.17499E-03 -3.25290E-01 -2.45211E-01  1.81936E-01 -1.63440E-01 -8.89854E-01 -2.38044E-01 -2.31926E-02  7.60454E-02
  -1.13534E-01 -5.26478E-01 -1.03463E-01 -5.40871E-01 -2.06432E-01 -1.63458E-01 -2.96169E-01  1.52096E-01 -2.65955E-02 -3.85348E-01
  -3.43900E-01  3.90731E-01 -1.70915E-01 -1.13284E-01  3.57723E-02 -2.33185E-01  4.19444E-02 -7.86069E-02  2.96831E-01  1.16912E-01
   2.28134E-01  1.20444E-01 -5.04916E-02 -1.28150E-01 -1.01568E-01  1.53501E-02 -1.20127E-01  1.17086E-01 -3.44360E-01 -1.47397E-01
  -1.82693E-01 -1.90684E-01  9.23225E-02  1.91284E-01  4.27375E-01  1.41384E-01  1.03441E-01  5.76153E-01  4.25441E-01  6.39182E-02
   6.91305E-01  3.32349E-01  3.32740E-01  5.78633E-01  1.73893E-01  7.50135E-02  3.16277E-01  1.67683E-01 -1.15666E-02  2.75100E-01
  -3.30691E-01 -1.34427E-01 -2.69145E-01  1.23763E-01  2.93719E-01 -5.63987E-01  2.66779E-01  3.36284E-01 -2.26709E-01 -1.37809E-01
   3.71992E-02  1.27037E-01  1.32208E-02 -1.23545E-01 -3.17462E-02 -2.91707E-02  1.03353E-01 -1.59462E-01 -1.18581E-01  1.93968E-01
  -8.22709E-02  2.33619E-01  2.51741E-01  2.15062E-01  1.46074E-01  3.33456E-01  2.98967E-01  5.39382E-02  4.25052E-01  1.21566E-01
  -2.64201E-02 -1.64360E-02  2.26167E-01  1.48480E-01 -3.36802E-03  2.70868E-01  1.40961E-01  1.44281E-02 -2.02901E-01 -7.18930E-02
  -1.82699E-01 -1.08102E-01 -2.01555E-01 -2.99172E-01  1.58881E-01  2.59763E-01  5.66997E-01  2.93950E-01  1.04216E-01 -2.68575E-02
   1.98208E-01  2.84026E-01  3.48300E-02  4.69726E-01  1.37710E-01 -4.52004E-02 -2.53784E-02  2.70799E-03  2.00169E-01  4.41508E-01
   2.45651E-01  2.82290E-02  2.06386E-01  1.15240E-01  2.42123E-01  2.15882E-01  2.58656E-01  2.43542E-01  3.34218E-01  3.30876E-01
   1.90159E-01  1.52752E-01  3.72926E-01  1.71829E-01  1.02300E-01  2.97498E-01 -2.17495E-01  1.11553E-01  7.96234E-02  2.98151E-01
  -1.38648E-01 -6.16559E-01  1.03370E-01  1.06560E-01 -6.00252E-02 -3.56087E-01  1.69106E-01 -1.45073E-01 -2.67473E-01  1.43189E-01
   6.23452E-02 -2.78543E-03 -1.61570E-01  2.37702E-01  5.52027E-02  1.17602E-01 -9.93697E-02 -2.48089E-01  5.84323E-02 -3.39963E-01
  -7.90306E-01 -7.99839E-01 -8.56435E-01 -1.28885E+00 -1.28071E+00 -6.65080E-01 -6.34105E-01 -4.80505E-01  1.03313E-02 -4.92269E-01
   6.74819E-02  1.52949E-01  5.58458E-03  3.41667E-01  3.05363E-03  4.74973E-02  2.09784E-01  4.79668E-01  6.19802E-02 -4.62349E-02
  -2.87681E-02  1.41115E-01 -9.65218E-02 -1.36485E-01  1.10256E-01 -3.32789E-01  2.96096E-02  9.43989E-02  1.42930E-01  1.59059E-01
   2.04527E-02  1.84258E-01  2.13047E-01 -4.60794E-02  3.79679E-01  7.88355E-02 -2.63482E-01  1.93254E-01 -1.37761E-01  2.42624E-01
   1.40364E-01 -2.88317E-02  1.36751E-01  4.02826E-02  6.02148E-02  1.63098E-01  2.06481E-01  8.66923E-02 -4.12399E-02 -5.69078E-02
   1.63583E-01 -8.66351E-02 -1.61172E-01  1.34584E-01  3.13154E-01  1.48426E-01  4.74355E-02  5.29051E-02  3.47655E-01  8.05628E-02
   5.17720E-02  3.03837E-01  6.51166E-02  2.49844E-01 -3.69904E-02 -1.65426E-01 -5.02540E-01 -2.66528E-01 -1.17304E-01 -1.94163E-01
  -3.56823E-02 -3.40656E-01 -1.83623E-01 -1.25557E-01  9.28646E-02  3.78515E-02 -1.56340E-01 -1.84129E-01 -4.50844E-02 -1.26911E-01
  -1.52452E-01 -1.36405E-01 -2.14528E-01 -4.20975E-02  8.81407E-02  2.36776E-01 -4.03340E-01 -3.37072E-01  3.28793E-01 -3.02825E-03
  -2.54202E-01  2.18335E-01  1.42586E-01 -1.02648E-01 -4.64927E-02 -1.47537E-01  6.75286E-02  1.42371E-01  3.72429E-01  2.41984E-01
   1.37626E-02  2.36812E-01  3.91961E-01  3.42882E-01  1.16618E-01  3.74382E-01  4.73940E-01  2.56869E-01 -1.46485E-01 -4.90494E-02
   4.14869E-01  1.52132E-01  1.23742E-01  1.48176E-01 -1.19476E-02 -1.05437E-01 -3.50572E-02 -1.31518E-01 -2.07023E-01  4.58993E-04
  -1.55461E-01 -6.55705E-02 -1.49870E-02  6.25774E-02  1.53820E-01 -1.13882E-01  4.13766E-02  2.08572E-01  6.65765E-02  2.82007E-01
   4.16812E-03 -2.37848E-01  2.83663E-02  5.48692E-02  7.60588E-02 -3.79903E-01 -3.16364E-01 -1.57567E-01  1.54163E-01  3.15700E-01
  -9.46823E-02  1.12270E-01  3.95957E-02  3.96361E-02  1.88510E-01 -1.28816E-01 -1.33949E-01  3.41106E-01 -4.83904E-02 -1.11860E-01
   8.13715E-02 -7.34113E-02  1.48015E-01  8.68786E-02  7.88975E-02 -2.13491E-01 -2.17606E-01 -1.63974E-01  8.52979E-03  2.58672E-01
  -1.53065E-01  6.13349E-02  7.04795E-02 -3.47916E-01  1.57626E-02  1.30337E-01  1.55584E-01  1.47501E-01  6.74830E-02  3.42954E-01
  -2.01913E-02 -7.00817E-02  1.32128E-01 -1.95263E-03 -9.62434E-02  7.58005E-02  7.36787E-02 -8.95424E-02  2.65255E-01 -1.14898E-02
  -5.71815E-02  2.24440E-01 -3.12359E-01 -2.82296E-01 -8.54648E-02 -3.93220E-01  1.59964E-01  1.34261E-01 -6.11135E-01 -4.62936E-01
  -2.63105E-01  4.28701E-02  1.31356E-01  7.83155E-02  2.85959E-01 -3.60017E-02 -3.08485E-01 -2.20458E-01 -5.96787E-02 -3.77818E-02
  -2.20337E-02 -2.71765E-02 -1.61918E-01  6.96019E-02 -2.34943E-01 -1.32673E-01  3.31992E-01  1.68571E-01  2.77089E-01  2.47056E-01
   1.02687E-01  1.10549E-01  2.03545E-01 -2.00270E-01 -1.78043E-01  1.52325E-01  3.69363E-01  1.78890E-01 -1.62445E-01  5.00738E-01
  -2.46922E-02 -6.14168E-02  3.47845E-01  5.42498E-02  2.84118E-01 -1.56372E-01 -1.25345E-01  1.10664E-01  1.10393E-02 -8.02808E-02
   6.50308E-02  2.55386E-01 -1.35003E-01 -1.50236E-01  2.05686E-02  4.16960E-01  3.04016E-01  1.31793E-01  1.84387E-01  8.33842E-02
   5.69991E-02 -4.03417E-01 -1.39594E-02  2.07524E-01 -5.92741E-02  1.62297E-01  3.06006E-01 -1.67622E-01 -2.57824E-01  5.86726E-03
  -1.03082E-01  9.92394E-02 -1.45789E-01 -1.27272E-01  1.91025E-01  2.73657E-01  5.77170E-02 -1.07027E-02 -1.96742E-01 -1.91826E-01
  -1.05116E-01 -5.39730E-01  1.06240E-01  3.89938E-01  2.20304E-01  4.32983E-02 -9.18136E-02 -3.99937E-02 -1.42486E-01 -8.42385E-03
   1.20830E-01 -4.55376E-02  5.03122E-02  2.03475E-01  6.99493E-02  2.37742E-01 -2.74925E-01 -1.26243E-01  1.29460E-01  9.68225E-02
   1.09378E-01  5.36774E-03  1.82100E-01 -2.96534E-02  1.32223E-01 -5.22116E-02 -4.81129E-02 -7.25445E-02  2.28624E-01  1.91637E-01
  -5.35348E-02  4.14021E-01  1.66330E-01  3.43621E-01  2.05631E-01 -5.55550E-02  7.17855E-02  2.75206E-01  1.64037E-01  5.19415E-02
   1.94287E-01  4.71690E-02  3.99737E-01  1.18341E-01 -2.96889E-01  5.74980E-02  2.66480E-01 -2.31610E-01 -4.35480E-01  9.86381E-02
  -1.74115E-02 -1.14307E-01 -1.78398E-01 -7.14065E-02
 NY points of the fit to the data follow
   8.47969E-02  6.84192E-02  4.79331E-02  2.70626E-02  1.14817E-02  4.12642E-03  1.63030E-03  5.02912E-03  2.40426E-02  6.53487E-02
   1.14395E-01  1.61921E-01  2.12447E-01  2.69583E-01  3.18437E-01  3.45866E-01  3.49173E-01  3.28246E-01  2.84213E-01  2.20051E-01
   1.51162E-01  9.65609E-02  5.85289E-02  1.96535E-02 -2.10355E-02 -5.31302E-02 -7.20312E-02 -8.65724E-02 -9.90363E-02 -1.10434E-01
  -1.21219E-01 -1.32119E-01 -1.43682E-01 -1.55427E-01 -1.66979E-01 -1.77482E-01 -1.84118E-01 -1.82826E-01 -1.70386E-01 -1.45918E-01
  -1.09437E-01 -6.29233E-02 -8.32881E-03  5.02134E-02  1.06474E-01  1.54712E-01  1.92598E-01  2.16683E-01  2.24164E-01  2.17390E-01
   1.99596E-01  1.73027E-01  1.39183E-01  9.97444E-02  5.67702E-02  1.37805E-02 -2.79539E-02 -6.73762E-02 -1.04317E-01 -1.34427E-01
  -1.51536E-01 -1.54592E-01 -1.47558E-01 -1.30070E-01 -9.61816E-02 -5.06810E-02  6.96774E-04  5.94064E-02  1.18889E-01  1.69180E-01
   2.02778E-01  2.13408E-01  2.02756E-01  1.77714E-01  1.40349E-01  9.25833E-02  3.81910E-02 -2.02383E-02 -7.84386E-02 -1.21547E-01
  -1.39424E-01 -1.28953E-01 -8.71123E-02 -2.22325E-02  4.95079E-02  1.12697E-01  1.58326E-01  1.86192E-01  1.97730E-01  1.89088E-01
   1.61901E-01  1.23128E-01  7.34544E-02  9.92210E-03 -6.94911E-02 -1.58273E-01 -2.51095E-01 -3.27590E-01 -3.68055E-01 -3.56417E-01
  -2.89587E-01 -1.83683E-01 -6.29109E-02  4.93985E-02  1.39396E-01  2.03507E-01  2.49298E-01  2.79818E-01  2.99409E-01  3.06554E-01
   3.06749E-01  3.00767E-01  2.95375E-01  2.91042E-01  2.87649E-01  2.84538E-01  2.80982E-01  2.77408E-01  2.72306E-01  2.61826E-01
   2.43248E-01  2.14592E-01  1.72864E-01  1.14578E-01  4.03106E-02 -5.20680E-02 -1.62909E-01 -2.82005E-01 -3.91107E-01 -4.75876E-01
  -5.20662E-01 -5.13688E-01 -4.76054E-01 -4.54674E-01 -4.85330E-01 -5.53175E-01 -6.22011E-01 -6.57131E-01 -6.37543E-01 -5.62886E-01
  -4.53944E-01 -3.43540E-01 -2.58603E-01 -1.94916E-01 -1.28435E-01 -5.89484E-02 -4.70680E-03  2.78001E-02  5.25177E-02  7.32372E-02
   9.16312E-02  1.08723E-01  1.25254E-01  1.41833E-01  1.59099E-01  1.77718E-01  1.98463E-01  2.22519E-01  2.52066E-01  2.88257E-01
   3.26873E-01  3.61623E-01  3.94646E-01  4.30645E-01  4.50948E-01  4.17796E-01  3.08863E-01  1.38488E-01 -5.94676E-02 -2.45621E-01
  -3.82839E-01 -4.52867E-01 -4.65087E-01 -4.49824E-01 -4.32485E-01 -4.12097E-01 -3.75150E-01 -3.26988E-01 -2.84576E-01 -2.54427E-01
  -2.30869E-01 -2.11245E-01 -1.94467E-01 -1.79945E-01 -1.67756E-01 -1.57280E-01 -1.47797E-01 -1.38901E-01 -1.30576E-01 -1.22869E-01
  -1.15568E-01 -1.08515E-01 -1.01601E-01 -9.47996E-02 -8.79819E-02 -8.11105E-02 -7.42282E-02 -6.74112E-02 -6.03718E-02 -5.25842E-02
  -4.41797E-02 -3.64076E-02 -3.05593E-02 -2.66650E-02 -2.36962E-02 -2.11159E-02 -1.94365E-02 -1.93860E-02 -2.14085E-02 -2.58370E-02
  -3.22131E-02 -3.87582E-02 -4.33667E-02 -4.54163E-02 -4.59954E-02 -4.62791E-02 -4.60311E-02 -4.29854E-02 -3.51214E-02 -2.41132E-02
  -1.10316E-02  9.40314E-03  4.52874E-02  9.54938E-02  1.47821E-01  1.92028E-01  2.26939E-01  2.55858E-01  2.78659E-01  2.91124E-01
   2.91737E-01  2.77646E-01  2.42772E-01  1.89004E-01  1.30633E-01  8.32099E-02  4.94770E-02  2.19249E-02 -4.45050E-03 -2.68646E-02
  -4.17761E-02 -5.10338E-02 -5.82762E-02 -6.42603E-02 -6.97810E-02 -7.52909E-02 -8.11597E-02 -8.77978E-02 -9.56855E-02 -1.03644E-01
  -1.10568E-01 -1.19159E-01 -1.28413E-01 -1.31136E-01 -1.20597E-01 -9.94657E-02 -6.96419E-02 -2.77786E-02  2.11894E-02  6.83000E-02
   1.08374E-01  1.42472E-01  1.71292E-01  1.91567E-01  1.98759E-01  1.94954E-01  1.86781E-01  1.75537E-01  1.57574E-01  1.36579E-01
   1.17808E-01  9.88008E-02  7.67737E-02  5.20905E-02  2.73959E-02  2.66925E-03 -2.30115E-02 -4.93838E-02 -7.58065E-02 -9.93789E-02
  -1.15893E-01 -1.19659E-01 -1.05485E-01 -7.22637E-02 -2.26670E-02  3.59426E-02  9.27341E-02  1.39040E-01  1.70790E-01  1.87204E-01
   1.91432E-01  1.87733E-01  1.80749E-01  1.73744E-01  1.68712E-01  1.66126E-01  1.65101E-01  1.65443E-01  1.65813E-01  1.65102E-01
   1.63283E-01  1.60889E-01  1.58003E-01  1.54711E-01  1.50878E-01  1.46898E-01  1.42533E-01  1.37927E-01  1.32757E-01  1.26550E-01
   1.18906E-01  1.09491E-01  9.79519E-02  8.37709E-02  6.64834E-02  4.62428E-02  2.34093E-02 -8.71771E-04 -2.51537E-02 -4.72595E-02
  -6.54351E-02 -7.79116E-02 -8.30658E-02 -7.95683E-02 -6.69271E-02 -4.67243E-02 -2.22007E-02  2.18951E-03  2.23094E-02  3.50179E-02
   3.93287E-02  3.69949E-02  3.05581E-02  2.24629E-02  4.39537E-03 -3.47730E-02 -8.28278E-02 -1.33838E-01 -2.21720E-01 -3.94360E-01
  -6.33699E-01 -8.70421E-01 -1.04367E+00 -1.11046E+00 -1.05482E+00 -9.01646E-01 -7.08212E-01 -5.39929E-01 -4.23468E-01 -3.25637E-01
  -2.19625E-01 -1.26005E-01 -7.28128E-02 -4.63253E-02 -2.90992E-02 -1.70982E-02 -8.83284E-03 -3.78584E-03 -1.52497E-03 -1.65353E-03
  -3.63997E-03 -6.53163E-03 -9.43404E-03 -1.14157E-02 -1.18701E-02 -1.05378E-02 -7.56004E-03 -3.27142E-03  1.74182E-03  7.08155E-03
   1.23847E-02  1.74825E-02  2.21713E-02  2.63787E-02  3.00940E-02  3.33221E-02  3.62371E-02  3.88697E-02  4.13016E-02  4.35620E-02
   4.56514E-02  4.76028E-02  4.94816E-02  5.12866E-02  5.29914E-02  5.45664E-02  5.60386E-02  5.74476E-02  5.88815E-02  6.03604E-02
   6.18257E-02  6.31313E-02  6.41306E-02  6.47430E-02  6.49904E-02  6.49178E-02  6.45418E-02  6.38627E-02  6.28677E-02  6.15602E-02
   5.99162E-02  5.79437E-02  5.57227E-02  5.33691E-02  5.09423E-02  4.84763E-02  4.60156E-02  4.36140E-02  4.12947E-02  3.90785E-02
   3.69833E-02  3.50555E-02  3.33270E-02  3.17677E-02  3.03054E-02  2.89401E-02  2.77000E-02  2.65984E-02  2.56304E-02  2.48102E-02
   2.41859E-02  2.38037E-02  2.37096E-02  2.39576E-02  2.45877E-02  2.56500E-02  2.73386E-02  2.99749E-02  3.35290E-02  3.79208E-02
   4.36085E-02  5.10972E-02  6.06842E-02  7.16932E-02  8.27464E-02  9.12496E-02  9.52848E-02  9.46476E-02  9.04673E-02  8.49843E-02
   8.04145E-02  7.77013E-02  7.67152E-02  7.71718E-02  7.85559E-02  8.08379E-02  8.40224E-02  8.79035E-02  9.14890E-02  9.45223E-02
   9.68950E-02  9.85793E-02  9.96204E-02  1.00041E-01  9.97926E-02  9.88068E-02  9.70769E-02  9.46589E-02  9.16835E-02  8.83191E-02
   8.46925E-02  8.09020E-02  7.70193E-02  7.31349E-02  6.93118E-02  6.56350E-02  6.21733E-02  5.89662E-02  5.60207E-02  5.33341E-02
   5.09044E-02  4.87814E-02  4.70493E-02  4.57399E-02  4.48656E-02  4.44705E-02  4.45787E-02  4.51144E-02  4.60135E-02  4.72391E-02
   4.87649E-02  5.05285E-02  5.24383E-02  5.43638E-02  5.61803E-02  5.78203E-02  5.92891E-02  6.06352E-02  6.18885E-02  6.29982E-02
   6.38858E-02  6.44968E-02  6.48111E-02  6.47904E-02  6.44365E-02  6.38413E-02  6.30641E-02  6.21156E-02  6.10161E-02  5.98231E-02
   5.85810E-02  5.73026E-02  5.59674E-02  5.45571E-02  5.30955E-02  5.16419E-02  5.02186E-02  4.88237E-02  4.74585E-02  4.61142E-02
   4.47429E-02  4.32404E-02  4.15068E-02  3.94890E-02  3.71756E-02  3.45456E-02  3.15521E-02  2.81183E-02  2.41599E-02  1.95887E-02
   1.43768E-02  8.57294E-03  2.30260E-03 -4.24751E-03 -1.08693E-02 -1.73980E-02 -2.37367E-02 -2.97788E-02 -3.53208E-02 -4.01224E-02
  -4.40713E-02 -4.71358E-02 -4.92723E-02 -5.04447E-02 -5.07262E-02 -5.02309E-02 -4.90806E-02 -4.73921E-02 -4.53052E-02 -4.29587E-02
  -4.04107E-02 -3.76212E-02 -3.45214E-02 -3.11200E-02 -2.74751E-02 -2.36183E-02 -1.96001E-02 -1.54889E-02 -1.13514E-02 -7.21729E-03
  -3.11846E-03  8.86653E-04  4.72908E-03  8.38828E-03  1.18741E-02  1.51872E-02  1.82755E-02  2.11203E-02  2.37568E-02  2.61656E-02
   2.83266E-02  3.02405E-02  3.19479E-02  3.34822E-02  3.48346E-02  3.59666E-02  3.69123E-02  3.77549E-02  3.85351E-02  3.92446E-02
   3.99342E-02  4.06716E-02  4.14494E-02  4.22243E-02  4.29292E-02  4.35084E-02  4.39558E-02  4.42985E-02  4.45405E-02  4.46795E-02
   4.47583E-02  4.48103E-02  4.48161E-02  4.47795E-02  4.47415E-02  4.47493E-02  4.48219E-02  4.48735E-02  4.47849E-02  4.45567E-02
   4.42626E-02  4.39192E-02  4.35678E-02  4.33053E-02  4.31669E-02  4.30471E-02  4.28182E-02  4.24916E-02  4.21912E-02  4.20057E-02
   4.19048E-02  4.18646E-02  4.19227E-02  4.20820E-02  4.22726E-02  4.24473E-02  4.26239E-02  4.28481E-02  4.30766E-02  4.32290E-02
   4.32591E-02  4.31880E-02  4.30577E-02  4.28872E-02  4.27274E-02  4.26608E-02  4.27277E-02  4.28662E-02  4.29858E-02  4.30812E-02
   4.32435E-02  4.35081E-02  4.38545E-02  4.41823E-02  4.43834E-02  4.43962E-02  4.42410E-02  4.40051E-02  4.37837E-02  4.35953E-02
   4.33802E-02  4.30888E-02  4.27483E-02  4.24027E-02  4.20643E-02  4.17516E-02  4.14838E-02  4.12437E-02  4.10099E-02  4.07949E-02
   4.06282E-02  4.04967E-02  4.03612E-02  4.01878E-02  4.00347E-02  4.00252E-02  4.01885E-02  4.04618E-02  4.08243E-02  4.12474E-02
   4.16465E-02  4.19544E-02  4.21977E-02  4.24516E-02
 NY background values follow
     1.346E-02    1.345E-02    1.343E-02    1.341E-02    1.340E-02    1.338E-02    1.337E-02    1.335E-02    1.333E-02    1.332E-02
     1.330E-02    1.329E-02    1.327E-02    1.325E-02    1.324E-02    1.322E-02    1.321E-02    1.319E-02    1.317E-02    1.316E-02
     1.314E-02    1.312E-02    1.311E-02    1.309E-02    1.308E-02    1.306E-02    1.304E-02    1.303E-02    1.301E-02    1.299E-02
     1.298E-02    1.296E-02    1.295E-02    1.293E-02    1.291E-02    1.290E-02    1.288E-02    1.286E-02    1.285E-02    1.283E-02
     1.282E-02    1.280E-02    1.278E-02    1.277E-02    1.275E-02    1.273E-02    1.272E-02    1.270E-02    1.268E-02    1.267E-02
     1.265E-02    1.264E-02    1.262E-02    1.260E-02    1.259E-02    1.257E-02    1.255E-02    1.254E-02    1.252E-02    1.250E-02
     1.249E-02    1.247E-02    1.246E-02    1.244E-02    1.242E-02    1.241E-02    1.239E-02    1.237E-02    1.236E-02    1.234E-02
