 
 $NMID
 ID=''
 FMTDAT='(2E13.5)'
 TRAMP=   1.00000E+0
 VOLUME=   1.00000E+0
 $END
   5.14679E+1  -1.18778E+3
   1.21601E+3   1.53640E+3
  -2.91307E+3  -5.28344E+3
  -1.66610E+3   2.43729E+3
  -1.13188E+3   2.50907E+3
  -8.93341E+1   5.23423E+2
   9.89560E+2   4.22906E+3
   3.17240E+2   1.17093E+1
  -5.72090E+2  -2.95464E+2
   8.08878E+2  -2.96277E+3
   5.87658E+2  -2.93756E+2
   1.18401E+3  -3.51849E+3
  -1.19382E+3   3.38477E+3
  -5.07401E+3   2.57367E+3
  -5.85782E+3   1.80497E+3
  -2.46409E+3   1.53220E+3
   2.02776E+3   2.07889E+3
   3.11956E+3   4.81821E+3
   2.86445E+3   2.53781E+3
   1.09615E+3  -1.24518E+2
   2.21124E+3  -4.22121E+3
   3.15841E+3   7.87735E+2
  -1.76801E+3   3.25876E+3
  -5.96443E+3  -5.62542E+3
  -1.12521E+3  -4.36458E+3
   1.91013E+3   2.45356E+3
  -1.37988E+3   5.65930E+3
  -3.39959E+3   3.77101E+2
  -1.76461E+3  -3.10982E+3
   5.81727E+3  -4.97135E+3
   9.97687E+3   3.69049E+3
   2.66289E+3   3.35104E+3
  -2.71079E+3   8.52583E+2
  -7.86552E+1  -3.96144E+3
  -5.13886E+1  -3.81753E+3
  -8.42564E+2  -5.09356E+3
   1.73772E+2  -7.42693E+3
   6.47778E+3  -4.59767E+3
   3.92790E+3   2.34442E+3
  -2.53471E+3  -1.74952E+3
  -2.99959E+3   7.78911E+2
  -7.97709E+3   1.43043E+3
  -6.44770E+3  -4.23887E+3
  -6.17058E+2  -4.78522E+3
   2.54606E+3   9.38005E+2
   4.40768E+2   4.38813E+3
  -8.24884E+2   1.95321E+3
   1.55740E+3   4.58219E+3
  -5.36850E+2   3.73930E+3
  -1.91049E+3   4.13701E+3
  -2.75039E+3   2.24730E+2
   9.28940E+2  -3.69554E+3
   1.73789E+3  -1.49634E+3
   1.34644E+3   2.08659E+2
  -2.08270E+3   1.55468E+3
   6.76766E+2   1.01305E+3
  -3.61971E+3   8.46687E+2
  -6.77181E+3   1.07081E+2
  -4.79966E+3  -7.04467E+3
  -9.97683E+2  -3.89037E+3
   2.28192E+3  -2.85376E+3
   2.50852E+3  -4.56096E+2
   2.18615E+3   6.56972E+2
   2.57894E+2   1.84719E+3
   1.61372E+3  -6.97353E+2
   4.33307E+3   1.75423E+3
   2.13541E+3   2.08603E+3
  -3.36779E+3  -5.22029E+1
   3.11522E+2  -9.02967E+2
   1.45118E+3   6.75729E+2
   4.14664E+2   9.01053E+2
  -6.69115E+2  -9.07935E+2
  -9.44198E+2  -5.44868E+2
   3.58638E+2  -7.37196E+2
   1.72078E+3   4.39758E+2
   2.84810E+3  -7.01905E+2
   1.35517E+3  -1.36295E+2
  -1.37430E+3  -1.52265E+3
   3.46333E+3  -2.09966E+3
   2.04431E+3   2.44461E+3
  -9.15478E+2   2.51390E+3
   1.46488E+3   3.03661E+3
   6.90826E+2   3.05765E+3
   1.82287E+3   2.36897E+3
  -1.89081E+3   2.22792E+3
  -2.19051E+2   1.63467E+3
  -1.91994E+3  -6.86584E+2
   2.91409E+3  -2.90403E+3
   5.20340E+3   6.53928E+2
   2.22378E+3   1.55801E+3
   8.38871E+2  -3.72881E+2
   2.47049E+3   8.29222E+2
   7.28936E+2   1.85839E+3
  -8.53251E+2   3.33321E+3
  -3.22500E+3   1.57709E+3
   9.32426E+1  -4.09873E+3
   2.33756E+3  -9.13064E+2
   3.37854E+3   2.99037E+3
  -3.04822E+2   1.93766E+3
  -1.66968E+3   7.62393E+2
   1.18360E+3  -1.69003E+3
   4.54629E+3   7.96935E+2
   2.74015E+3   3.60479E+2
  -6.68268E+2   3.99120E+3
  -1.16437E+3   6.38876E+2
  -1.76545E+3   2.36893E+3
  -2.58000E+3  -1.96300E+3
  -3.93663E+3  -1.05299E+3
  -3.76239E+3  -9.35288E+2
   3.47261E+1  -4.47930E+3
   3.77496E+3  -4.34919E+3
   3.67026E+3  -2.82703E+2
  -2.85917E+2   2.65582E+3
   8.41846E+2  -1.94192E+2
  -1.04621E+3   1.50951E+3
  -4.00348E+3  -2.69413E+2
  -2.02330E+3  -5.24466E+2
  -3.13308E+3  -1.00277E+3
  -2.67495E+3  -1.69363E+3
  -6.39365E+2  -2.59252E+2
   3.30717E+2   2.03463E+3
  -2.78725E+3  -7.81768E+1
  -2.31408E+3  -1.47515E+3
  -6.37590E+2  -3.37601E+3
   2.62159E+3  -1.58683E+2
  -1.18487E+3  -1.32191E+3
   2.01893E+3  -3.04118E+3
  -5.17574E+2   3.04925E+2
  -3.64933E+2   2.92691E+3
  -2.31773E+3   1.78054E+3
  -2.82560E+3  -2.76952E+2
  -7.23595E+2  -9.50874E+2
   7.26452E+2   8.83240E+2
   2.55505E+3   3.51584E+2
  -3.09732E+3   7.38647E+2
  -1.22231E+3   1.42970E+3
  -1.85088E+3  -1.57639E+3
   2.80934E+2  -1.64105E+3
  -8.08348E+2  -1.65019E+3
   8.70550E+2   1.11104E+3
   3.41373E+2  -1.34819E+3
   1.40327E+3  -4.56981E+2
   7.75516E+2   2.47232E+3
  -3.36796E+2   8.83806E+2
  -2.47755E+3   2.61218E+3
   2.68265E+2   3.52633E+2
  -6.20993E+2   2.33397E+3
   1.39321E+2   1.86482E+3
   3.46206E+2   2.09191E+2
  -1.30965E+3   2.25033E+3
  -1.46068E+3   4.66104E+2
  -3.49828E+3  -1.92989E+3
  -1.36118E+3  -1.56821E+2
  -1.60801E+2  -1.65528E+3
   2.00108E+3   4.55957E+1
   1.46784E+3   9.37237E+1
   8.41066E+2   8.08326E+2
  -5.83593E+2   9.74495E+2
  -1.25397E+2  -4.95361E+2
  -1.30133E+3   8.55250E+2
  -1.68364E+3   1.31574E+2
   6.84644E+2  -1.06008E+3
  -4.09283E+1   4.58214E+2
   9.82470E+0   1.27798E+2
  -3.72188E+2   2.34200E+3
  -1.41917E+3   9.98370E+2
  -2.02017E+3  -7.05235E+2
  -4.60555E+2  -3.54755E+3
   1.34443E+3   8.01176E+2
   3.61598E+3   1.80225E+3
  -4.89753E+2  -1.49036E+3
  -1.82652E+3  -5.59428E+1
  -8.89730E+2   1.06818E+3
   8.64973E+2  -1.55235E+3
  -1.56165E+3   1.19625E+3
  -4.45624E+2  -4.60491E+2
   7.73004E+2  -2.01601E+3
   3.55999E+3   8.67964E+2
   6.90494E+2   2.11810E+3
  -2.23505E+3   5.29623E+2
   1.94317E+2  -1.32294E+3
   2.55352E+3  -9.77952E+2
   2.15115E+3  -1.76060E+3
  -3.63377E+2  -4.95189E+2
   6.26912E+2  -5.56498E+1
   8.17834E+2   6.64053E+2
  -4.01392E+1   1.34247E+3
  -2.90112E+2   2.12962E+3
  -2.80808E+3  -8.11613E+2
   6.88603E+2  -1.57811E+3
   2.43970E+3   3.20947E+2
  -5.79841E+2  -8.02335E+2
  -3.24965E+2  -1.09375E+3
   1.80723E+3  -1.03233E+3
  -6.07108E+2  -6.76072E+2
   8.29894E+2  -7.07481E+2
   7.13073E+2   2.35916E+3
  -3.30421E+2   1.80973E+2
   1.58101E+1   1.19285E+3
   2.15545E+3   2.02207E+2
  -7.58608E+0  -3.02496E+2
  -2.26492E+2   1.27054E+3
  -2.70904E+3  -2.97276E+3
   1.12296E+3  -2.96311E+3
   9.13019E+2  -4.53253E+2
   1.13362E+3  -2.88736E+2
  -7.76916E+2   1.96293E+2
   1.20504E+3  -1.25675E+3
   2.01826E+3   1.42954E+3
   8.35594E+2   5.08917E+2
  -1.34059E+3   2.75759E+2
   3.41190E+2  -1.50558E+3
  -1.20156E+2  -2.64342E+3
   1.45350E+3   1.82643E+3
   7.42538E+2   1.99254E+3
  -8.96063E+2   3.35052E+2
   8.13411E+2  -1.09564E+3
  -1.71895E+3   3.28117E+2
  -4.34464E+2   1.65217E+1
  -2.04020E+3  -1.49483E+3
  -3.55143E+2   7.01299E+1
   9.13998E+2  -1.57976E+3
   1.84281E+3  -6.53782E+2
   3.47129E+2   6.78835E+2
   1.17959E+3  -1.90477E+3
  -1.34086E+2  -6.30910E+2
   9.27346E+2  -2.18272E+3
   2.28970E+3   9.09090E+2
  -1.01165E+3  -7.01932E+2
  -7.80620E+1   5.77573E+2
  -2.13814E+3   1.60985E+3
  -2.28262E+3  -1.08329E+3
  -1.54180E+3  -1.81670E+3
  -6.49265E+2  -1.64021E+3
   6.70573E+2  -1.56437E+3
   1.84209E+3  -9.89844E+2
   1.65656E+3   2.78017E+3
  -5.96982E+1  -2.94014E+1
  -1.17931E+2  -5.89148E+2
   1.75455E+2  -1.75804E+3
   5.40767E+2   5.79994E+2
  -1.90950E+3  -1.28253E+2
   9.57661E+1   1.15782E+3
  -1.98968E+3   5.43366E+2
   1.23206E+2   1.22236E+3
   8.24628E+2  -1.39950E+3
  -6.47789E+1  -1.34119E+3
   8.15653E+2   9.61384E+2
   1.09673E+3   2.09141E+2
   2.52764E+3   7.74517E+1
  -6.50681E+2  -2.36337E+2
  -7.73219E+2   7.29964E+2
   4.55926E+2   1.27147E+3
  -3.43037E+2  -1.35212E+3
   2.11842E+3  -1.70572E+2
  -1.40858E+3   6.89235E+2
   1.36832E+3   5.39628E+2
   5.03463E+2  -4.22988E+2
   1.31421E+3   4.44445E+2
  -2.63710E+3   1.78958E+2
  -1.31396E+3  -1.60968E+3
   1.18245E+3  -1.99262E+3
   5.88953E+2  -8.11326E+2
  -6.00300E+2   1.40498E+3
   4.57774E+2   4.05618E+2
   4.96005E+2  -8.99670E+2
  -1.30872E+3  -1.05902E+3
   6.36630E+2  -8.32965E+2
  -4.65412E+2   1.43384E+3
  -7.21844E+2  -1.29149E+3
   1.36432E+2  -1.44122E+3
   1.87104E+3   8.17580E+2
   5.32341E+2   1.12832E+3
  -5.75363E+2   1.22166E+3
  -1.75248E+3   2.15737E+2
  -8.76416E+2   1.12422E+3
   1.83802E+3   1.45635E+3
   3.67240E+2   1.38912E+2
   1.26950E+3   1.09137E+3
   7.78456E+2  -2.28519E+2
   1.94367E+3   4.41018E+2
   2.13199E+2  -3.62618E+2
  -1.76583E+2  -9.42547E+2
   9.75994E+1  -1.41553E+3
  -7.25456E+2  -5.88417E+2
   1.11330E+3  -9.53878E+2
  -3.78129E+2  -2.13007E+2
  -2.64948E+3  -6.25767E+2
   1.91892E+3  -5.61054E+2
   1.23898E+3  -8.22825E+2
  -7.11741E+2  -1.67613E+3
   8.65453E+2   1.15565E+3
  -3.31584E+2   1.52254E+3
   2.27257E+2   9.80225E+2
  -6.44949E+2  -1.15697E+3
  -8.93870E+2   8.86589E+2
  -1.20410E+3  -5.79018E+2
   1.15415E+3   7.60898E+2
   1.78533E+3   6.60152E+2
   2.17121E+3  -3.16110E+2
  -1.61878E+3  -4.44463E+2
  -7.45807E+2   9.08248E+0
  -5.19001E+2   3.55621E+1
   1.68415E+3   1.09703E+3
  -7.60718E+2   1.98935E+3
  -1.51649E+3  -8.62938E+2
   1.94199E+3  -7.11142E+2
  -2.57859E+2   2.60224E+3
  -2.21784E+2   1.52294E+3
  -5.30690E+2  -5.76265E+2
   6.92730E+2   1.38649E+3
   2.35356E+2   8.49147E+2
  -1.05964E+1   6.86072E+2
  -1.87543E+3   1.33837E+2
   1.08359E+3  -1.92638E+3
   1.20021E+3  -9.83111E+1
   6.68269E+2   2.30017E+3
   4.67925E+2   1.42082E+3
  -3.59485E+3   8.18281E+2
   5.78753E+2  -8.81165E+2
   1.85480E+3   1.30215E+3
   1.33915E+3   1.58631E+3
  -9.07550E+2  -3.41440E+0
  -2.20388E+2   2.06229E+3
  -1.39959E+3   1.26391E+3
  -1.55349E+3  -2.81938E+2
   9.14538E+2  -1.58171E+3
  -3.31807E+1  -6.29189E+1
  -3.19694E+2   6.34321E+2
   2.16317E+3  -8.12903E+1
   1.18649E+3  -3.62591E+2
   3.88274E+2  -1.03259E+3
  -6.77604E+2   1.25613E+3
  -3.42594E+2   5.90407E+1
  -7.31593E+2  -9.57371E+2
   8.29754E+2   1.93000E+2
  -1.24653E+3  -1.24125E+3
   3.20386E+2   5.10906E+2
  -7.64784E+2   6.18652E+2
  -1.49959E+2   1.33504E+3
  -2.18092E+3   3.41071E+2
  -9.03425E+2  -9.24009E+2
   1.03311E+3  -3.17098E+2
  -3.55504E+1   7.64120E+2
  -1.53936E+3   2.48146E+3
  -1.34724E+3   6.26971E+2
  -9.84673E+2   1.30027E+3
  -3.21527E+2  -1.08683E+3
   2.09180E+2   2.45046E+3
   1.16018E+3  -1.88294E+3
  -2.53206E+3   4.65574E+1
  -6.67268E+2  -6.23979E+2
   8.08956E+2   3.06531E+2
  -9.12054E+2   4.42670E+2
   3.37732E+2  -7.12433E+1
   1.43139E+3  -2.50570E+3
  -7.99696E+1  -2.94740E+2
   6.72202E+2   1.39440E+3
  -8.80210E+1   1.36861E+3
   1.00295E+2  -1.84398E+3
   1.04743E+3   7.40784E+2
  -3.04937E+2   9.80285E+2
  -1.79483E+3  -2.84136E+2
  -5.43594E+2   1.01566E+3
   1.59373E+3  -1.45688E+2
   1.48862E+3   1.13020E+3
   1.75789E+2   1.41421E+3
