 
 $NMID
 ID=''
 FMTDAT='(2E13.5)'
 TRAMP=   1.00000E+0
 VOLUME=   1.00000E+0
 $END
  -1.18777E+4  -3.50728E+3
  -2.71931E+4  -1.71641E+4
  -3.04383E+4  -1.20105E+4
  -2.85350E+4  -1.09893E+4
  -2.92744E+4  -1.22270E+4
  -2.99899E+4  -1.08846E+4
  -2.89771E+4  -1.06448E+4
  -2.92081E+4  -1.14122E+4
  -2.95864E+4  -1.04908E+4
  -2.88002E+4  -1.03466E+4
  -2.88528E+4  -1.06710E+4
  -2.91583E+4  -9.97462E+3
  -2.87405E+4  -9.64786E+3
  -2.87524E+4  -9.87685E+3
  -2.88842E+4  -9.47030E+3
  -2.84836E+4  -9.07543E+3
  -2.85902E+4  -9.20996E+3
  -2.87422E+4  -8.60436E+3
  -2.83702E+4  -8.37859E+3
  -2.84235E+4  -8.34971E+3
  -2.84484E+4  -7.91368E+3
  -2.82087E+4  -7.44425E+3
  -2.83022E+4  -7.40557E+3
  -2.82714E+4  -7.17046E+3
  -2.80018E+4  -6.81735E+3
  -2.80626E+4  -6.66393E+3
  -2.80969E+4  -6.37796E+3
  -2.78420E+4  -6.30650E+3
  -2.77535E+4  -6.22618E+3
  -2.77583E+4  -5.86740E+3
  -2.76619E+4  -5.60104E+3
  -2.75916E+4  -5.48997E+3
  -2.75264E+4  -5.30467E+3
  -2.73852E+4  -5.07838E+3
  -2.73002E+4  -4.93868E+3
  -2.71969E+4  -4.69149E+3
  -2.69920E+4  -4.45249E+3
  -2.69431E+4  -4.24927E+3
  -2.68248E+4  -3.91541E+3
  -2.66888E+4  -3.66278E+3
  -2.66142E+4  -3.48085E+3
  -2.65023E+4  -3.31383E+3
  -2.62601E+4  -3.15853E+3
  -2.60358E+4  -2.84805E+3
  -2.59279E+4  -2.63717E+3
  -2.59092E+4  -2.51435E+3
  -2.57667E+4  -2.25720E+3
  -2.56421E+4  -2.06942E+3
  -2.54717E+4  -1.87923E+3
  -2.55003E+4  -1.75983E+3
  -2.53035E+4  -1.56976E+3
  -2.51572E+4  -1.39004E+3
  -2.50941E+4  -1.18626E+3
  -2.49669E+4  -8.74839E+2
  -2.49229E+4  -7.63511E+2
  -2.48282E+4  -5.24794E+2
  -2.47279E+4  -3.83472E+2
  -2.46805E+4  -2.45469E+2
  -2.44944E+4  -1.24441E+2
  -2.43001E+4   1.23897E+2
  -2.42229E+4   2.84195E+2
  -2.40888E+4   5.25820E+2
  -2.40695E+4   6.84615E+2
  -2.39801E+4   8.36181E+2
  -2.39219E+4   9.59331E+2
  -2.37490E+4   1.21589E+3
  -2.37145E+4   1.41795E+3
  -2.35527E+4   1.53443E+3
  -2.34645E+4   1.57086E+3
  -2.32425E+4   1.74794E+3
  -2.31646E+4   1.93072E+3
  -2.30628E+4   2.04639E+3
  -2.29099E+4   2.18083E+3
  -2.28519E+4   2.26418E+3
  -2.26560E+4   2.43238E+3
  -2.24765E+4   2.57013E+3
  -2.23944E+4   2.74000E+3
  -2.22123E+4   2.79533E+3
  -2.20979E+4   2.94053E+3
  -2.19550E+4   3.06977E+3
  -2.18242E+4   3.25489E+3
  -2.17039E+4   3.34695E+3
  -2.15216E+4   3.39966E+3
  -2.14674E+4   3.50297E+3
  -2.13285E+4   3.58513E+3
  -2.11698E+4   3.73714E+3
  -2.10265E+4   3.74855E+3
  -2.08238E+4   3.85874E+3
  -2.07078E+4   4.00110E+3
  -2.05942E+4   4.14682E+3
  -2.04346E+4   4.18073E+3
  -2.03410E+4   4.22028E+3
  -2.01162E+4   4.36590E+3
  -2.00445E+4   4.46160E+3
  -1.98302E+4   4.59084E+3
  -1.96458E+4   4.62527E+3
  -1.94901E+4   4.76358E+3
  -1.93918E+4   4.86713E+3
  -1.92333E+4   4.95423E+3
  -1.90642E+4   5.00597E+3
  -1.88976E+4   5.10104E+3
  -1.87189E+4   5.21711E+3
  -1.85110E+4   5.30941E+3
  -1.84002E+4   5.45060E+3
  -1.82997E+4   5.48241E+3
  -1.81264E+4   5.53051E+3
  -1.79571E+4   5.65350E+3
  -1.78154E+4   5.70280E+3
  -1.76757E+4   5.80713E+3
  -1.74157E+4   5.78857E+3
  -1.72214E+4   5.89088E+3
  -1.71650E+4   5.96142E+3
  -1.70177E+4   6.05972E+3
  -1.68373E+4   6.15541E+3
  -1.66786E+4   6.17032E+3
  -1.64914E+4   6.26298E+3
  -1.63199E+4   6.25492E+3
  -1.61908E+4   6.38479E+3
  -1.60329E+4   6.44266E+3
  -1.58380E+4   6.50262E+3
  -1.57414E+4   6.57012E+3
  -1.56116E+4   6.56899E+3
  -1.54283E+4   6.60239E+3
  -1.52569E+4   6.63213E+3
  -1.51073E+4   6.75178E+3
  -1.50237E+4   6.79451E+3
  -1.48091E+4   6.82585E+3
  -1.46697E+4   6.84943E+3
  -1.45456E+4   6.89780E+3
  -1.44174E+4   7.05498E+3
  -1.42547E+4   6.94171E+3
  -1.40555E+4   7.04609E+3
  -1.38941E+4   7.10363E+3
  -1.37277E+4   7.13089E+3
  -1.36991E+4   7.13582E+3
  -1.35852E+4   7.24606E+3
  -1.33982E+4   7.28972E+3
  -1.33070E+4   7.21818E+3
  -1.31312E+4   7.30050E+3
  -1.29609E+4   7.36089E+3
  -1.29325E+4   7.34611E+3
  -1.27659E+4   7.29944E+3
  -1.26053E+4   7.37994E+3
  -1.25222E+4   7.42798E+3
  -1.22975E+4   7.40026E+3
  -1.22924E+4   7.46545E+3
  -1.20810E+4   7.49225E+3
  -1.19963E+4   7.48046E+3
  -1.18530E+4   7.43641E+3
  -1.17039E+4   7.46469E+3
  -1.16814E+4   7.39426E+3
  -1.15530E+4   7.51052E+3
  -1.14280E+4   7.44850E+3
  -1.12542E+4   7.54283E+3
  -1.11896E+4   7.48995E+3
  -1.10747E+4   7.49789E+3
  -1.09836E+4   7.60280E+3
  -1.08990E+4   7.50862E+3
  -1.07152E+4   7.47826E+3
  -1.06249E+4   7.52574E+3
  -1.05710E+4   7.54238E+3
  -1.04550E+4   7.52089E+3
  -1.03067E+4   7.54729E+3
  -1.02539E+4   7.53226E+3
  -1.01278E+4   7.51988E+3
  -1.00972E+4   7.48905E+3
  -9.99318E+3   7.54975E+3
  -9.87106E+3   7.47145E+3
  -9.72509E+3   7.51652E+3
  -9.64136E+3   7.53448E+3
  -9.55836E+3   7.49478E+3
  -9.51297E+3   7.46238E+3
  -9.38336E+3   7.46051E+3
  -9.19399E+3   7.45267E+3
  -9.19947E+3   7.50993E+3
  -9.08480E+3   7.50461E+3
  -8.93460E+3   7.46895E+3
  -8.83457E+3   7.47176E+3
  -8.81428E+3   7.47316E+3
  -8.70465E+3   7.50425E+3
  -8.60464E+3   7.45756E+3
  -8.54182E+3   7.46821E+3
  -8.40824E+3   7.43793E+3
  -8.33702E+3   7.41786E+3
  -8.27072E+3   7.42880E+3
  -8.15312E+3   7.44483E+3
  -8.07792E+3   7.41992E+3
  -8.00781E+3   7.34237E+3
  -7.87407E+3   7.33666E+3
  -7.78517E+3   7.36761E+3
  -7.76618E+3   7.35107E+3
  -7.62950E+3   7.34507E+3
  -7.63410E+3   7.36056E+3
  -7.53644E+3   7.36892E+3
  -7.50756E+3   7.25857E+3
  -7.36438E+3   7.31705E+3
  -7.33811E+3   7.29872E+3
  -7.27146E+3   7.27950E+3
  -7.09319E+3   7.17402E+3
  -7.10665E+3   7.24595E+3
  -7.02197E+3   7.23879E+3
  -6.99378E+3   7.19193E+3
  -6.88327E+3   7.20429E+3
  -6.73093E+3   7.15751E+3
  -6.75036E+3   7.13288E+3
  -6.70263E+3   7.09825E+3
  -6.53141E+3   7.05862E+3
  -6.47047E+3   7.10458E+3
  -6.48590E+3   7.09410E+3
  -6.33431E+3   7.06965E+3
  -6.27972E+3   7.05684E+3
  -6.24251E+3   6.97186E+3
  -6.14488E+3   6.98315E+3
  -6.05015E+3   6.98622E+3
  -5.97566E+3   6.96116E+3
  -5.95192E+3   7.04516E+3
  -5.83497E+3   6.97082E+3
  -5.77400E+3   6.90205E+3
  -5.73944E+3   6.84981E+3
  -5.59715E+3   6.90599E+3
  -5.56965E+3   6.91226E+3
  -5.50236E+3   6.81568E+3
  -5.45267E+3   6.80945E+3
  -5.41568E+3   6.84495E+3
  -5.33783E+3   6.80074E+3
  -5.26412E+3   6.74452E+3
  -5.12483E+3   6.74571E+3
  -5.07360E+3   6.79613E+3
  -5.07152E+3   6.71819E+3
  -5.01876E+3   6.74210E+3
  -4.96637E+3   6.77594E+3
  -4.86574E+3   6.73216E+3
  -4.81577E+3   6.72323E+3
  -4.75494E+3   6.73848E+3
  -4.68745E+3   6.66823E+3
  -4.66001E+3   6.62074E+3
  -4.57619E+3   6.66982E+3
  -4.55433E+3   6.66648E+3
  -4.53213E+3   6.59995E+3
  -4.45491E+3   6.58896E+3
  -4.30344E+3   6.60161E+3
  -4.24821E+3   6.54972E+3
  -4.20042E+3   6.58759E+3
  -4.20874E+3   6.50698E+3
  -4.12281E+3   6.51133E+3
  -4.07052E+3   6.49068E+3
  -4.04453E+3   6.51445E+3
  -3.93780E+3   6.49656E+3
  -3.85416E+3   6.40764E+3
  -3.83873E+3   6.45821E+3
  -3.75044E+3   6.39340E+3
  -3.78434E+3   6.36455E+3
  -3.74179E+3   6.37336E+3
  -3.64594E+3   6.27259E+3
  -3.63131E+3   6.30241E+3
  -3.54339E+3   6.27699E+3
  -3.54497E+3   6.26201E+3
  -3.46729E+3   6.24180E+3
  -3.42447E+3   6.25966E+3
  -3.34727E+3   6.15106E+3
  -3.39442E+3   6.16544E+3
  -3.21434E+3   6.16550E+3
  -3.23244E+3   6.13323E+3
  -3.11614E+3   6.08852E+3
  -3.16354E+3   6.08008E+3
  -3.10971E+3   6.05503E+3
  -2.97136E+3   6.04844E+3
  -2.95183E+3   6.01099E+3
  -2.96745E+3   5.97349E+3
  -2.90037E+3   5.96443E+3
  -2.86252E+3   5.92029E+3
  -2.73064E+3   5.90647E+3
  -2.73594E+3   5.94529E+3
  -2.65976E+3   5.81256E+3
  -2.71309E+3   5.87466E+3
  -2.65182E+3   5.77237E+3
  -2.59508E+3   5.72989E+3
  -2.58772E+3   5.78259E+3
  -2.53922E+3   5.66647E+3
  -2.50069E+3   5.73689E+3
  -2.51045E+3   5.66293E+3
  -2.35721E+3   5.63456E+3
  -2.40381E+3   5.61824E+3
  -2.34597E+3   5.52198E+3
  -2.27546E+3   5.53885E+3
  -2.31613E+3   5.49445E+3
  -2.20695E+3   5.51487E+3
  -2.20961E+3   5.41948E+3
  -2.14305E+3   5.37277E+3
  -2.15031E+3   5.34217E+3
  -2.11688E+3   5.35337E+3
  -2.05225E+3   5.31546E+3
  -2.06522E+3   5.34959E+3
  -1.97801E+3   5.29593E+3
  -1.99251E+3   5.24703E+3
  -1.97958E+3   5.21986E+3
  -1.90519E+3   5.21892E+3
  -1.91331E+3   5.20346E+3
  -1.83807E+3   5.11998E+3
  -1.85108E+3   5.12928E+3
  -1.80031E+3   5.13909E+3
  -1.76134E+3   5.12242E+3
  -1.68402E+3   5.07406E+3
  -1.67240E+3   4.97764E+3
  -1.67575E+3   5.00306E+3
  -1.63424E+3   4.91320E+3
  -1.59944E+3   4.94282E+3
  -1.54277E+3   4.90483E+3
  -1.48735E+3   4.84141E+3
  -1.54905E+3   4.85204E+3
  -1.55151E+3   4.84624E+3
  -1.50962E+3   4.68671E+3
  -1.48856E+3   4.79460E+3
  -1.47219E+3   4.70480E+3
  -1.40429E+3   4.72663E+3
  -1.34562E+3   4.63918E+3
  -1.37098E+3   4.62703E+3
  -1.29158E+3   4.61667E+3
  -1.29953E+3   4.53617E+3
  -1.26500E+3   4.60935E+3
  -1.21055E+3   4.52163E+3
  -1.22127E+3   4.54008E+3
  -1.18338E+3   4.51892E+3
  -1.22240E+3   4.47446E+3
  -1.21393E+3   4.48306E+3
  -1.17637E+3   4.39399E+3
  -1.09348E+3   4.41456E+3
  -1.10060E+3   4.37779E+3
  -1.02397E+3   4.35250E+3
  -1.06608E+3   4.31813E+3
  -9.57964E+2   4.27581E+3
  -1.04596E+3   4.24592E+3
  -1.05289E+3   4.20756E+3
  -9.52825E+2   4.19993E+3
  -9.29072E+2   4.19590E+3
  -9.66620E+2   4.17058E+3
  -8.95631E+2   4.10488E+3
  -8.64190E+2   4.10910E+3
  -9.02008E+2   4.04536E+3
  -8.04537E+2   4.04903E+3
  -7.78290E+2   4.03658E+3
  -8.48567E+2   4.01542E+3
  -7.75553E+2   3.92841E+3
  -8.19308E+2   3.92359E+3
  -7.29688E+2   3.93339E+3
  -7.53036E+2   3.92055E+3
  -7.08249E+2   3.89363E+3
  -6.81652E+2   3.80863E+3
  -7.11391E+2   3.78382E+3
  -6.70543E+2   3.77679E+3
  -6.33224E+2   3.73079E+3
  -6.40967E+2   3.73382E+3
  -6.58411E+2   3.76773E+3
  -5.45182E+2   3.64038E+3
  -6.19640E+2   3.64660E+3
  -6.03361E+2   3.64104E+3
  -5.54886E+2   3.56634E+3
  -5.26629E+2   3.66991E+3
  -5.09489E+2   3.60727E+3
  -5.05298E+2   3.60670E+3
  -5.54769E+2   3.56537E+3
  -4.79038E+2   3.50816E+3
  -4.71952E+2   3.48066E+3
  -4.67185E+2   3.50205E+3
  -4.59920E+2   3.40847E+3
  -3.99290E+2   3.48196E+3
  -3.85079E+2   3.36849E+3
