 
 $NMID
 ID=''
 FMTDAT='(2E13.5)'
 TRAMP=   1.00000E+0
 VOLUME=   1.00000E+0
 $END
  -7.60782E+3   1.67818E+4
  -3.04800E+4   3.59566E+4
  -2.32004E+4   4.08669E+4
  -2.08438E+4   3.75180E+4
  -2.22990E+4   3.82282E+4
  -2.00707E+4   3.92661E+4
  -1.91473E+4   3.74037E+4
  -1.97924E+4   3.74010E+4
  -1.83373E+4   3.78358E+4
  -1.77152E+4   3.65778E+4
  -1.79394E+4   3.63494E+4
  -1.67005E+4   3.65802E+4
  -1.59418E+4   3.56739E+4
  -1.61890E+4   3.54497E+4
  -1.52745E+4   3.53728E+4
  -1.46610E+4   3.44504E+4
  -1.46522E+4   3.40554E+4
  -1.38170E+4   3.39680E+4
  -1.30660E+4   3.32417E+4
  -1.30213E+4   3.28031E+4
  -1.22173E+4   3.25030E+4
  -1.15907E+4   3.18514E+4
  -1.13753E+4   3.14300E+4
  -1.08100E+4   3.11104E+4
  -1.01957E+4   3.03221E+4
  -9.93703E+3   2.99567E+4
  -9.46393E+3   2.95878E+4
  -9.09988E+3   2.87863E+4
  -8.93485E+3   2.82340E+4
  -8.56155E+3   2.77243E+4
  -8.06967E+3   2.71535E+4
  -7.90136E+3   2.66246E+4
  -7.53465E+3   2.60508E+4
  -7.25463E+3   2.52845E+4
  -7.01447E+3   2.46519E+4
  -6.61137E+3   2.41817E+4
  -6.31570E+3   2.33862E+4
  -5.97201E+3   2.27556E+4
  -5.67235E+3   2.21126E+4
  -5.36270E+3   2.14622E+4
  -5.09085E+3   2.07717E+4
  -4.90715E+3   2.01349E+4
  -4.60892E+3   1.93716E+4
  -4.32672E+3   1.86159E+4
  -3.99128E+3   1.80120E+4
  -3.69841E+3   1.73896E+4
  -3.52408E+3   1.67463E+4
  -3.18954E+3   1.61237E+4
  -2.91852E+3   1.54690E+4
  -2.66970E+3   1.49066E+4
  -2.43424E+3   1.43437E+4
  -2.20483E+3   1.36635E+4
  -1.84707E+3   1.31407E+4
  -1.63504E+3   1.26990E+4
  -1.40583E+3   1.20494E+4
  -1.22493E+3   1.16222E+4
  -1.03437E+3   1.10993E+4
  -8.44951E+2   1.05911E+4
  -6.38623E+2   1.01164E+4
  -5.23317E+2   9.61643E+3
  -3.29771E+2   9.14942E+3
  -1.51701E+2   8.69938E+3
  -3.63146E+0   8.29875E+3
   2.32004E+2   7.85567E+3
   2.90470E+2   7.51739E+3
   4.22270E+2   7.14117E+3
   5.72614E+2   6.78557E+3
   6.80906E+2   6.51696E+3
   7.58110E+2   6.17913E+3
   8.63179E+2   5.80954E+3
   8.86426E+2   5.54951E+3
   9.18175E+2   5.28439E+3
   1.03366E+3   4.95506E+3
   9.96401E+2   4.69265E+3
   1.05247E+3   4.45921E+3
   1.13121E+3   4.28655E+3
   1.06004E+3   4.11408E+3
   1.09708E+3   3.79113E+3
   1.08170E+3   3.68151E+3
   1.04876E+3   3.50030E+3
   9.94385E+2   3.40707E+3
   9.86289E+2   3.16489E+3
   8.86782E+2   3.04918E+3
   8.31080E+2   2.90356E+3
   6.63507E+2   2.80857E+3
   6.70716E+2   2.72185E+3
   4.11976E+2   2.62234E+3
   2.77388E+2   2.58638E+3
   2.59560E+2   2.40321E+3
  -4.72398E+1   2.28596E+3
  -1.16446E+2   2.30575E+3
  -2.48928E+2   2.15777E+3
  -5.14621E+2   2.13355E+3
  -7.25991E+2   2.02638E+3
  -8.72050E+2   1.98675E+3
  -1.13033E+3   1.94824E+3
  -1.33190E+3   1.88434E+3
  -1.49703E+3   1.81113E+3
  -1.70917E+3   1.77444E+3
  -2.00859E+3   1.71681E+3
  -2.19652E+3   1.60985E+3
  -2.37696E+3   1.57033E+3
  -2.58862E+3   1.52632E+3
  -2.87788E+3   1.39711E+3
  -3.06948E+3   1.32095E+3
  -3.20421E+3   1.21598E+3
  -3.47294E+3   1.00561E+3
  -3.64290E+3   9.59517E+2
  -3.84095E+3   8.87613E+2
  -4.05485E+3   8.17189E+2
  -4.22138E+3   6.37864E+2
  -4.38018E+3   5.89508E+2
  -4.56744E+3   4.81452E+2
  -4.72958E+3   3.80872E+2
  -4.75538E+3   2.48377E+2
  -4.93914E+3   9.92167E+1
  -5.07586E+3  -3.94816E+1
  -5.10432E+3  -1.22815E+2
  -5.21246E+3  -2.74254E+2
  -5.30179E+3  -3.78995E+2
  -5.42247E+3  -5.27390E+2
  -5.40970E+3  -5.84503E+2
  -5.52455E+3  -7.17473E+2
  -5.52897E+3  -8.15022E+2
  -5.52404E+3  -9.42668E+2
  -5.48907E+3  -1.10618E+3
  -5.50053E+3  -1.17561E+3
  -5.49773E+3  -1.30337E+3
  -5.50564E+3  -1.37588E+3
  -5.49625E+3  -1.46329E+3
  -5.39794E+3  -1.50928E+3
  -5.28806E+3  -1.61916E+3
  -5.22481E+3  -1.67445E+3
  -5.20889E+3  -1.80731E+3
  -5.17998E+3  -1.73746E+3
  -5.06088E+3  -1.81353E+3
  -4.87304E+3  -1.87331E+3
  -4.79774E+3  -1.90287E+3
  -4.73672E+3  -1.93012E+3
  -4.61619E+3  -1.92013E+3
  -4.55030E+3  -1.94375E+3
  -4.34076E+3  -1.96439E+3
  -4.29047E+3  -1.92442E+3
  -4.21996E+3  -1.96633E+3
  -4.08535E+3  -1.92308E+3
  -3.99201E+3  -1.91071E+3
  -3.88060E+3  -1.95922E+3
  -3.80478E+3  -1.92215E+3
  -3.66090E+3  -1.91412E+3
  -3.60306E+3  -1.82533E+3
  -3.46427E+3  -1.88311E+3
  -3.37097E+3  -1.84737E+3
  -3.26541E+3  -1.76534E+3
  -3.14472E+3  -1.79749E+3
  -3.02085E+3  -1.66086E+3
  -2.95641E+3  -1.60982E+3
  -2.81285E+3  -1.63985E+3
  -2.76637E+3  -1.53685E+3
  -2.62504E+3  -1.53971E+3
  -2.58882E+3  -1.53800E+3
  -2.46458E+3  -1.50639E+3
  -2.38134E+3  -1.39948E+3
  -2.23173E+3  -1.32887E+3
  -2.30254E+3  -1.30065E+3
  -2.12651E+3  -1.26099E+3
  -2.14039E+3  -1.28159E+3
  -1.97126E+3  -1.22185E+3
  -1.91400E+3  -1.12672E+3
  -1.92019E+3  -1.13551E+3
  -1.82607E+3  -1.15905E+3
  -1.70541E+3  -1.07550E+3
  -1.70389E+3  -9.85575E+2
  -1.63820E+3  -1.01621E+3
  -1.53244E+3  -9.83893E+2
  -1.49528E+3  -9.95393E+2
  -1.44458E+3  -8.53592E+2
  -1.43220E+3  -8.61783E+2
  -1.32080E+3  -8.11946E+2
  -1.27853E+3  -8.59065E+2
  -1.25830E+3  -8.41744E+2
  -1.27524E+3  -8.57973E+2
  -1.17964E+3  -7.96182E+2
  -1.19030E+3  -7.29017E+2
  -1.11231E+3  -6.75801E+2
  -1.06410E+3  -7.28813E+2
  -1.07041E+3  -6.22197E+2
  -9.84947E+2  -7.20406E+2
  -9.48516E+2  -6.34703E+2
  -8.79106E+2  -6.63200E+2
  -9.29359E+2  -5.98868E+2
  -8.87554E+2  -5.91649E+2
  -8.22865E+2  -6.11105E+2
  -8.12514E+2  -5.92345E+2
  -7.40736E+2  -5.72876E+2
  -7.54933E+2  -5.31706E+2
  -7.26242E+2  -4.77380E+2
  -7.13162E+2  -5.09036E+2
  -6.68505E+2  -5.28967E+2
  -6.66623E+2  -4.53528E+2
  -6.75992E+2  -5.25301E+2
  -6.22208E+2  -5.11068E+2
  -5.85961E+2  -4.89825E+2
  -5.71896E+2  -4.37210E+2
  -5.46944E+2  -4.41342E+2
  -6.13700E+2  -4.14748E+2
  -5.98735E+2  -4.36892E+2
  -5.49661E+2  -4.76370E+2
  -5.46461E+2  -4.93963E+2
  -5.10781E+2  -4.89637E+2
  -5.72195E+2  -4.43192E+2
  -4.83326E+2  -5.00527E+2
  -4.93082E+2  -4.90888E+2
  -5.04035E+2  -4.70650E+2
  -4.60693E+2  -4.77760E+2
  -4.99354E+2  -4.30688E+2
  -4.40891E+2  -4.77834E+2
  -4.75909E+2  -5.09595E+2
  -4.22779E+2  -4.96604E+2
  -4.70426E+2  -5.14756E+2
  -4.48346E+2  -4.26623E+2
  -4.02385E+2  -5.30178E+2
  -4.31077E+2  -5.51930E+2
  -4.09409E+2  -4.76524E+2
  -3.28296E+2  -5.49131E+2
  -4.10151E+2  -5.01724E+2
  -3.85877E+2  -5.07338E+2
  -4.01860E+2  -5.87177E+2
  -3.71648E+2  -5.62427E+2
  -4.16742E+2  -6.54222E+2
  -4.61377E+2  -5.47967E+2
  -3.69553E+2  -5.58632E+2
  -3.58856E+2  -6.08734E+2
  -3.64841E+2  -6.17817E+2
  -4.00410E+2  -5.67383E+2
  -3.51495E+2  -6.48575E+2
  -4.12555E+2  -5.58006E+2
  -3.80918E+2  -5.24749E+2
  -3.29126E+2  -5.93918E+2
  -3.34049E+2  -5.90567E+2
  -3.14114E+2  -6.05451E+2
  -2.68222E+2  -6.36431E+2
  -3.46193E+2  -5.82904E+2
  -3.08641E+2  -6.25090E+2
  -3.48889E+2  -6.61332E+2
  -2.56912E+2  -6.00255E+2
  -3.22466E+2  -6.31293E+2
  -2.75988E+2  -6.38580E+2
  -2.61664E+2  -5.95584E+2
  -2.36841E+2  -5.83114E+2
  -2.41978E+2  -6.32793E+2
  -2.02560E+2  -5.81769E+2
  -2.18672E+2  -6.58759E+2
  -2.66609E+2  -5.80966E+2
  -2.39237E+2  -6.32703E+2
  -2.38543E+2  -5.41460E+2
  -1.76074E+2  -5.23977E+2
  -2.28417E+2  -4.99398E+2
  -2.85757E+2  -5.70332E+2
  -1.82283E+2  -5.76520E+2
  -2.58479E+2  -5.76212E+2
  -2.53148E+2  -5.57736E+2
  -1.54827E+2  -5.79093E+2
  -1.94008E+2  -5.73318E+2
  -1.64959E+2  -4.89175E+2
  -1.78528E+2  -5.18929E+2
  -1.61491E+2  -5.48972E+2
  -2.11739E+2  -5.40387E+2
  -2.02527E+2  -4.79665E+2
  -1.50676E+2  -4.68218E+2
  -1.27266E+2  -4.16443E+2
  -1.19410E+2  -4.36455E+2
  -1.68548E+2  -4.94014E+2
  -1.54133E+2  -4.37035E+2
  -1.94353E+2  -4.74745E+2
  -2.03590E+2  -4.33731E+2
  -1.68082E+2  -4.56066E+2
  -1.24303E+2  -4.33553E+2
  -1.59129E+2  -4.02878E+2
  -1.66179E+2  -3.64661E+2
  -1.55870E+2  -4.07795E+2
  -1.55592E+2  -3.51459E+2
  -1.24009E+2  -4.14599E+2
  -1.54446E+2  -4.29546E+2
  -1.33504E+2  -3.88845E+2
  -1.36271E+2  -3.47623E+2
  -1.58706E+2  -3.72685E+2
  -1.74906E+2  -3.20842E+2
  -1.15497E+2  -4.02197E+2
  -1.42552E+2  -3.59515E+2
  -7.86697E+1  -3.57793E+2
  -6.05541E+1  -3.30901E+2
  -8.60458E+1  -3.35939E+2
  -1.42452E+2  -3.23188E+2
  -1.13791E+2  -2.97942E+2
  -4.58075E+1  -3.30561E+2
  -1.01026E+2  -3.03462E+2
  -6.26891E+1  -2.88115E+2
  -1.03913E+2  -3.34397E+2
  -1.07947E+2  -3.20522E+2
  -1.01332E+2  -3.76791E+2
  -8.17378E+1  -1.84058E+2
  -7.73130E+1  -3.20934E+2
  -5.02941E+1  -2.49750E+2
  -2.41001E+1  -2.82329E+2
  -4.53437E+1  -2.85577E+2
  -7.18354E+1  -1.67311E+2
  -1.31671E+2  -1.88582E+2
  -1.00787E+2  -2.16730E+2
  -9.52565E+1  -2.00195E+2
  -6.71870E+1  -2.66414E+2
  -1.34036E+2  -2.36040E+2
  -1.04352E+1  -1.87099E+2
  -4.19440E+1  -2.24471E+2
  -6.69661E+1  -2.01288E+2
  -7.06490E+1  -1.86289E+2
  -6.92372E+1  -1.32650E+2
  -4.48793E+1  -2.36005E+2
  -4.94696E+1  -1.73645E+2
  -4.29889E+1  -2.15344E+2
  -7.23346E+1  -1.48883E+2
  -8.98345E+1  -1.75982E+2
  -4.00913E+1  -2.40439E+2
  -4.65089E+1  -1.96479E+2
  -6.13041E+1  -1.53452E+2
  -2.08278E+1  -1.17051E+2
  -5.23260E+1  -1.65562E+2
  -4.63719E+1  -1.97214E+2
  -5.02104E+1  -1.87221E+2
  -5.73037E+1  -2.29166E+2
  -5.75267E+1  -2.06071E+2
  -3.29023E+1  -1.88658E+2
  -2.18989E+1  -1.94262E+2
  -3.69537E+1  -1.55956E+2
  -1.09074E+2  -1.95099E+2
  -1.61965E+0  -2.46589E+2
  -5.85182E+1  -2.22103E+2
   2.88426E+1  -1.43283E+2
   4.28741E+1  -1.22967E+2
  -2.54407E+1  -2.14649E+2
   1.87772E+1  -2.04172E+2
   3.59113E+1  -2.00902E+2
   2.06289E+1  -1.16602E+2
   2.32998E+1  -1.28304E+2
  -4.31836E+1  -1.83745E+2
  -6.20369E+0  -1.42126E+2
   2.19784E+0  -1.97523E+2
  -3.98197E+0  -1.85439E+2
  -2.84025E+1  -1.25792E+2
  -2.35577E+1  -1.96943E+2
   9.84477E+1  -1.30270E+2
   3.58182E+1  -1.90373E+2
   4.51667E+1  -1.91446E+2
   7.94912E+1  -1.96223E+2
  -7.79468E+0  -2.09143E+2
   8.52050E+1  -2.04088E+2
   8.87707E+1  -1.35532E+2
   6.90935E+1  -1.57292E+2
   5.54623E+1  -1.06357E+2
   4.65972E+1  -1.80215E+2
   3.06746E+1  -1.74448E+2
   8.61215E+1  -1.39148E+2
   4.00037E+1  -1.82968E+2
   1.15872E+2  -1.70794E+2
   5.35096E+1  -1.18052E+2
   7.59855E+1  -1.02653E+2
   8.78872E+1  -1.66535E+2
   4.81173E+1  -1.28900E+2
