 
 $NMID
 ID=''
 FMTDAT='(2E13.5)'
 TRAMP=   1.00000E+0
 VOLUME=   1.00000E+0
 $END
  -1.36741E+4   1.60859E+4
  -4.54851E+4   3.01276E+4
  -3.93421E+4   3.78668E+4
  -3.58953E+4   3.53592E+4
  -3.79301E+4   3.58165E+4
  -3.58777E+4   3.76616E+4
  -3.45493E+4   3.59644E+4
  -3.55258E+4   3.56414E+4
  -3.42840E+4   3.65408E+4
  -3.33699E+4   3.53292E+4
  -3.40627E+4   3.50699E+4
  -3.31214E+4   3.57624E+4
  -3.23981E+4   3.51189E+4
  -3.30260E+4   3.50463E+4
  -3.24681E+4   3.54790E+4
  -3.17782E+4   3.50139E+4
  -3.20499E+4   3.49887E+4
  -3.14483E+4   3.53947E+4
  -3.06718E+4   3.52600E+4
  -3.08404E+4   3.52282E+4
  -3.02275E+4   3.54692E+4
  -2.94080E+4   3.53808E+4
  -2.94122E+4   3.53947E+4
  -2.90310E+4   3.55494E+4
  -2.83170E+4   3.52613E+4
  -2.80727E+4   3.53033E+4
  -2.77116E+4   3.54286E+4
  -2.72245E+4   3.51185E+4
  -2.70020E+4   3.49123E+4
  -2.65228E+4   3.50265E+4
  -2.59712E+4   3.48813E+4
  -2.56300E+4   3.49054E+4
  -2.54037E+4   3.49247E+4
  -2.48159E+4   3.46554E+4
  -2.44062E+4   3.46247E+4
  -2.39763E+4   3.46497E+4
  -2.34831E+4   3.44924E+4
  -2.30001E+4   3.44101E+4
  -2.25748E+4   3.44833E+4
  -2.21086E+4   3.44304E+4
  -2.18472E+4   3.44898E+4
  -2.16172E+4   3.44262E+4
  -2.13270E+4   3.42300E+4
  -2.09711E+4   3.41407E+4
  -2.06244E+4   3.41670E+4
  -2.02551E+4   3.41123E+4
  -2.00520E+4   3.40880E+4
  -1.96359E+4   3.40696E+4
  -1.93716E+4   3.39862E+4
  -1.90119E+4   3.39359E+4
  -1.87123E+4   3.38012E+4
  -1.84038E+4   3.37735E+4
  -1.80287E+4   3.36901E+4
  -1.77528E+4   3.37452E+4
  -1.74077E+4   3.37685E+4
  -1.70982E+4   3.37033E+4
  -1.69346E+4   3.36354E+4
  -1.66337E+4   3.34847E+4
  -1.63846E+4   3.35278E+4
  -1.61373E+4   3.33942E+4
  -1.57727E+4   3.32311E+4
  -1.54723E+4   3.32578E+4
  -1.51729E+4   3.32344E+4
  -1.50262E+4   3.32863E+4
  -1.48276E+4   3.31176E+4
  -1.45436E+4   3.30084E+4
  -1.42985E+4   3.30408E+4
  -1.40916E+4   3.30020E+4
  -1.39661E+4   3.28447E+4
  -1.37176E+4   3.27467E+4
  -1.35950E+4   3.26432E+4
  -1.33642E+4   3.24967E+4
  -1.31678E+4   3.22854E+4
  -1.29780E+4   3.22356E+4
  -1.27575E+4   3.20655E+4
  -1.24838E+4   3.20856E+4
  -1.23221E+4   3.19147E+4
  -1.21154E+4   3.17319E+4
  -1.17848E+4   3.15255E+4
  -1.15915E+4   3.14577E+4
  -1.14048E+4   3.13379E+4
  -1.12254E+4   3.11944E+4
  -1.10222E+4   3.10641E+4
  -1.08568E+4   3.09872E+4
  -1.07309E+4   3.07922E+4
  -1.05199E+4   3.06612E+4
  -1.04337E+4   3.04317E+4
  -1.01898E+4   3.03073E+4
  -9.94952E+3   3.01498E+4
  -9.74887E+3   3.00993E+4
  -9.60410E+3   2.99675E+4
  -9.33407E+3   2.98144E+4
  -9.13571E+3   2.96735E+4
  -8.94465E+3   2.95670E+4
  -8.79895E+3   2.94620E+4
  -8.57204E+3   2.91956E+4
  -8.35365E+3   2.90977E+4
  -8.10888E+3   2.90094E+4
  -7.87959E+3   2.89546E+4
  -7.76626E+3   2.88157E+4
  -7.52347E+3   2.85932E+4
  -7.27479E+3   2.85017E+4
  -7.06537E+3   2.84030E+4
  -6.84338E+3   2.83236E+4
  -6.76507E+3   2.81749E+4
  -6.56178E+3   2.81049E+4
  -6.40958E+3   2.79841E+4
  -6.14853E+3   2.78792E+4
  -5.99577E+3   2.77847E+4
  -5.75311E+3   2.75727E+4
  -5.49013E+3   2.74681E+4
  -5.25832E+3   2.74096E+4
  -5.06785E+3   2.73238E+4
  -4.99451E+3   2.72272E+4
  -4.85622E+3   2.70959E+4
  -4.56991E+3   2.70121E+4
  -4.56913E+3   2.68648E+4
  -4.27835E+3   2.67355E+4
  -4.11540E+3   2.65645E+4
  -3.91062E+3   2.64632E+4
  -3.74261E+3   2.63959E+4
  -3.54552E+3   2.63218E+4
  -3.36511E+3   2.61499E+4
  -3.15856E+3   2.59840E+4
  -2.99831E+3   2.59156E+4
  -2.86656E+3   2.58442E+4
  -2.63274E+3   2.56650E+4
  -2.50323E+3   2.56028E+4
  -2.30879E+3   2.54724E+4
  -2.20375E+3   2.53215E+4
  -2.03577E+3   2.52386E+4
  -1.94563E+3   2.50921E+4
  -1.68922E+3   2.49378E+4
  -1.40513E+3   2.48880E+4
  -1.27528E+3   2.47671E+4
  -1.25285E+3   2.46353E+4
  -1.04019E+3   2.45737E+4
  -8.48352E+2   2.43826E+4
  -6.37521E+2   2.42880E+4
  -4.62230E+2   2.41244E+4
  -2.58435E+2   2.40756E+4
  -1.51219E+2   2.38740E+4
   3.31713E+1   2.38036E+4
   2.37910E+2   2.37889E+4
   3.95941E+2   2.36161E+4
   5.64377E+2   2.35055E+4
   7.19551E+2   2.33971E+4
   9.30363E+2   2.32904E+4
   1.13320E+3   2.32441E+4
   1.25334E+3   2.31499E+4
   1.46449E+3   2.29853E+4
   1.61277E+3   2.28543E+4
   1.74413E+3   2.27443E+4
   1.94026E+3   2.26162E+4
   2.16871E+3   2.24965E+4
   2.28243E+3   2.24439E+4
   2.40578E+3   2.22863E+4
   2.57880E+3   2.21870E+4
   2.75406E+3   2.20840E+4
   2.93245E+3   2.19680E+4
   3.10963E+3   2.18042E+4
   3.25705E+3   2.16928E+4
   3.36539E+3   2.15585E+4
   3.55129E+3   2.14514E+4
   3.73062E+3   2.13782E+4
   3.85712E+3   2.12371E+4
   3.97556E+3   2.10722E+4
   4.15494E+3   2.08953E+4
   4.29996E+3   2.08229E+4
   4.43823E+3   2.07254E+4
   4.58917E+3   2.05828E+4
   4.71224E+3   2.04698E+4
   4.78912E+3   2.03913E+4
   4.94880E+3   2.01833E+4
   5.17830E+3   2.00086E+4
   5.23170E+3   1.99165E+4
   5.46855E+3   1.97069E+4
   5.59510E+3   1.95153E+4
   5.75187E+3   1.94691E+4
   5.80762E+3   1.93327E+4
   5.92419E+3   1.91689E+4
   6.07524E+3   1.90030E+4
   6.19334E+3   1.88108E+4
   6.34608E+3   1.87107E+4
   6.49068E+3   1.85646E+4
   6.57128E+3   1.84141E+4
   6.68281E+3   1.83026E+4
   6.74461E+3   1.81057E+4
   6.82507E+3   1.79585E+4
   6.98567E+3   1.77022E+4
   7.08482E+3   1.76273E+4
   7.21420E+3   1.74301E+4
   7.31443E+3   1.73285E+4
   7.41779E+3   1.71459E+4
   7.47837E+3   1.69901E+4
   7.66331E+3   1.68466E+4
   7.76806E+3   1.66554E+4
   7.80816E+3   1.65625E+4
   7.91253E+3   1.63431E+4
   7.99879E+3   1.62022E+4
   8.10645E+3   1.60820E+4
   8.14560E+3   1.58857E+4
   8.26075E+3   1.57893E+4
   8.26392E+3   1.54563E+4
   8.37524E+3   1.53870E+4
   8.45909E+3   1.51924E+4
   8.61761E+3   1.50901E+4
   8.57986E+3   1.49160E+4
   8.68648E+3   1.47714E+4
   8.78702E+3   1.46539E+4
   8.81666E+3   1.44797E+4
   8.82908E+3   1.42240E+4
   8.89841E+3   1.40932E+4
   9.00456E+3   1.39550E+4
   9.04438E+3   1.37483E+4
   9.11068E+3   1.36763E+4
   9.16324E+3   1.35204E+4
   9.21913E+3   1.33603E+4
   9.27917E+3   1.31799E+4
   9.31224E+3   1.30471E+4
   9.36220E+3   1.29207E+4
   9.42949E+3   1.27737E+4
   9.41749E+3   1.25993E+4
   9.46544E+3   1.24236E+4
   9.46135E+3   1.23718E+4
   9.51861E+3   1.21285E+4
   9.61847E+3   1.20252E+4
   9.64139E+3   1.19212E+4
   9.62814E+3   1.18171E+4
   9.66671E+3   1.16941E+4
   9.60792E+3   1.15092E+4
   9.70249E+3   1.13340E+4
   9.59635E+3   1.11967E+4
   9.71589E+3   1.10887E+4
   9.71709E+3   1.09156E+4
   9.75729E+3   1.07376E+4
   9.76893E+3   1.06725E+4
   9.84073E+3   1.06553E+4
   9.81687E+3   1.04099E+4
   9.75833E+3   1.01974E+4
   9.79656E+3   1.00843E+4
   9.82522E+3   9.98460E+3
   9.85874E+3   9.82392E+3
   9.83780E+3   9.69784E+3
   9.81322E+3   9.62839E+3
   9.82982E+3   9.49982E+3
   9.85807E+3   9.33257E+3
   9.81083E+3   9.24269E+3
   9.89651E+3   9.13454E+3
   9.82027E+3   8.97028E+3
   9.85046E+3   8.88107E+3
   9.82842E+3   8.84933E+3
   9.81613E+3   8.68201E+3
   9.82565E+3   8.57228E+3
   9.82706E+3   8.36915E+3
   9.82452E+3   8.33235E+3
   9.78243E+3   8.18088E+3
   9.82593E+3   8.04320E+3
   9.79124E+3   7.89409E+3
   9.84972E+3   7.85885E+3
   9.75365E+3   7.73655E+3
   9.71768E+3   7.66218E+3
   9.78018E+3   7.53633E+3
   9.73204E+3   7.43890E+3
   9.74619E+3   7.40238E+3
   9.75070E+3   7.29661E+3
   9.65709E+3   7.18847E+3
   9.69341E+3   7.09111E+3
   9.70531E+3   6.96966E+3
   9.60329E+3   6.94183E+3
   9.57298E+3   6.77611E+3
   9.57556E+3   6.71225E+3
   9.63405E+3   6.62923E+3
   9.54945E+3   6.54727E+3
   9.54224E+3   6.42310E+3
   9.46029E+3   6.35810E+3
   9.44311E+3   6.30759E+3
   9.48235E+3   6.13696E+3
   9.41762E+3   6.17537E+3
   9.34913E+3   6.10881E+3
   9.36348E+3   5.89850E+3
   9.32937E+3   5.98016E+3
   9.32109E+3   5.85504E+3
   9.27736E+3   5.85034E+3
   9.28617E+3   5.69207E+3
   9.23348E+3   5.64111E+3
   9.19466E+3   5.62133E+3
   9.20732E+3   5.51113E+3
   9.20641E+3   5.38768E+3
   9.15106E+3   5.40157E+3
   9.06471E+3   5.27316E+3
   9.04560E+3   5.22496E+3
   9.03022E+3   5.22372E+3
   9.02019E+3   5.04139E+3
   8.99335E+3   5.08693E+3
   9.03169E+3   5.03940E+3
   8.94923E+3   4.97726E+3
   8.89195E+3   4.93102E+3
   8.95699E+3   4.81234E+3
   8.81136E+3   4.78155E+3
   8.80083E+3   4.70355E+3
   8.78718E+3   4.61232E+3
   8.78934E+3   4.58320E+3
   8.71668E+3   4.60016E+3
   8.70455E+3   4.55215E+3
   8.67633E+3   4.51172E+3
   8.66162E+3   4.44926E+3
   8.62739E+3   4.28554E+3
   8.60737E+3   4.30876E+3
   8.68973E+3   4.30422E+3
   8.56766E+3   4.21950E+3
   8.57376E+3   4.08906E+3
   8.59406E+3   4.05575E+3
   8.45607E+3   4.03359E+3
   8.49980E+3   4.01243E+3
   8.47107E+3   3.97449E+3
   8.47023E+3   3.86612E+3
   8.41457E+3   3.88107E+3
   8.37731E+3   3.81357E+3
   8.40649E+3   3.71347E+3
   8.32288E+3   3.68505E+3
   8.32273E+3   3.58185E+3
   8.30473E+3   3.62451E+3
   8.23954E+3   3.60158E+3
   8.25759E+3   3.48451E+3
   8.27253E+3   3.46385E+3
   8.15396E+3   3.38517E+3
   8.18834E+3   3.38418E+3
   8.15863E+3   3.34261E+3
   8.11681E+3   3.32448E+3
   8.15623E+3   3.24972E+3
   8.05397E+3   3.27394E+3
   8.07366E+3   3.18991E+3
   8.04384E+3   3.11274E+3
   8.06133E+3   3.06024E+3
   8.00794E+3   3.05593E+3
   8.00455E+3   2.96304E+3
   7.95880E+3   3.02501E+3
   7.95260E+3   2.91665E+3
   7.97702E+3   2.87472E+3
   7.96441E+3   2.80795E+3
   7.87319E+3   2.81756E+3
   7.83178E+3   2.69580E+3
   7.71961E+3   2.66454E+3
   7.78608E+3   2.58340E+3
   7.78621E+3   2.63242E+3
   7.76328E+3   2.55924E+3
   7.72639E+3   2.46778E+3
   7.64725E+3   2.48339E+3
   7.75561E+3   2.44130E+3
   7.70264E+3   2.44029E+3
   7.65335E+3   2.31586E+3
   7.59103E+3   2.28483E+3
   7.58055E+3   2.31322E+3
   7.55206E+3   2.26948E+3
   7.50464E+3   2.18375E+3
   7.59253E+3   2.17881E+3
   7.48795E+3   2.12328E+3
   7.44886E+3   2.04054E+3
   7.48621E+3   1.99225E+3
   7.43588E+3   1.92109E+3
   7.46758E+3   1.88986E+3
   7.34465E+3   1.86932E+3
   7.35725E+3   1.84128E+3
   7.31278E+3   1.82330E+3
   7.30845E+3   1.73045E+3
   7.32244E+3   1.76189E+3
