 
 $NMID
 ID=''
 FMTDAT='(2E13.5)'
 TRAMP=   1.00000E+0
 VOLUME=   1.00000E+0
 $END
   3.96730E+2  -5.88461E+2
   2.16089E+3   2.04005E+3
  -1.23991E+3  -6.60503E+3
  -8.46476E+1  -1.15291E+1
  -2.58225E+3   1.88914E+2
  -3.56430E+1  -5.51991E+2
   9.59286E+2   3.23739E+3
  -1.19185E+3   2.43468E+2
  -1.23444E+3  -2.72190E+3
  -2.28474E+3  -1.40196E+3
  -1.14018E+2  -1.26561E+3
   4.09710E+3   6.98126E+2
   3.76451E+3   3.71279E+3
  -1.44774E+3   3.56976E+3
   4.14167E+2  -5.91208E+2
   5.51324E+2  -4.29117E+3
   2.90260E+3  -3.78419E+3
   1.93353E+3  -4.58514E+2
  -3.20689E+2   1.07616E+3
  -4.31856E+3  -1.24422E+3
   1.88186E+3  -4.00178E+3
   2.88358E+3   3.25232E+3
   3.85948E+2   4.72387E+3
  -3.45900E+3   7.13024E+2
   4.52716E+2  -3.21429E+3
   3.53372E+3   1.00136E+3
  -4.19842E+2   1.13893E+3
  -4.17716E+3  -9.44017E+2
  -8.67656E+2  -4.05747E+3
   2.80454E+3  -2.88709E+3
   4.79571E+3   2.36565E+2
  -6.32635E+2   5.38550E+3
  -4.33099E+3   2.53416E+3
  -5.94496E+2  -8.25711E+2
  -6.12091E+2   9.36409E+2
  -3.93339E+3  -2.47273E+3
  -2.80310E+1  -5.45303E+3
   4.93203E+3  -2.17448E+3
   3.21513E+3   8.76832E+2
   1.02783E+3  -9.66352E+2
  -2.19852E+2   1.45389E+3
  -3.65024E+3   1.47614E+3
  -3.64087E+3  -3.10982E+3
  -1.06034E+2  -5.67069E+3
   4.49958E+3  -2.93628E+3
   2.27557E+3   2.36225E+3
   4.41397E+3  -2.12413E+3
   2.51886E+3   7.62929E+1
   1.26167E+3   1.28446E+3
   1.59906E+3  -4.26455E+2
  -2.38208E+2  -1.10465E+3
  -1.68877E+3  -2.99612E+3
   1.95760E+3  -1.33958E+3
   4.92375E+3   5.27319E+1
   6.40143E+1  -3.61044E+2
  -3.06320E+1   1.40630E+3
  -1.25180E+3   3.95379E+3
  -3.57586E+3   4.74616E+3
  -5.36545E+3  -1.42156E+3
  -4.86902E+3  -1.43914E+3
   5.24754E+2  -3.55219E+3
   4.14886E+3  -2.16421E+3
   2.97075E+3   7.34297E+2
  -4.07147E+1   1.31973E+3
  -9.46660E+2  -1.66034E+3
   1.66667E+3  -3.23807E+3
   2.59542E+3   1.00775E+3
  -2.58473E+3   1.53510E+3
   2.48863E+2  -2.08986E+3
  -2.74703E+2  -8.40618E+2
   6.01644E+2   1.73808E+3
  -6.78868E+2   2.37263E+3
  -1.94008E+3   1.94701E+3
  -2.73047E+2   7.65605E+1
   4.05814E+2  -6.07718E+2
   3.12710E+2  -3.24038E+2
  -6.12975E+2  -8.74983E+2
  -1.56219E+3  -1.27296E+3
   1.00588E+3  -7.67162E+2
   3.43833E+2   1.23106E+3
   6.95201E+2   2.25613E+3
  -8.00581E+2   1.88728E+3
  -1.04222E+2  -8.50773E+2
   1.54575E+3   1.44172E+3
  -1.67055E+3   1.87855E+3
  -4.01614E+3   1.96492E+3
  -4.30514E+3   6.98771E+2
  -1.50905E+3  -3.19699E+3
   2.62162E+3  -1.08770E+3
   2.42961E+3   1.13879E+3
   1.45452E+3   4.72404E+1
   1.44109E+3  -6.13193E+2
   2.93165E+3   3.44533E+3
   4.61099E+1   5.93308E+3
  -3.61630E+3   4.52071E+3
  -2.47309E+3  -2.02682E+3
  -1.56207E+3  -3.23675E+3
   3.49408E+3   7.53307E+2
   1.52994E+2   2.53807E+3
  -1.15995E+3   9.10971E+2
  -3.20787E+3  -1.39304E+3
   1.39270E+3  -1.10420E+3
   2.83467E+3   4.00171E+3
   7.66341E+2   1.02553E+2
  -1.45516E+3  -6.00078E+1
   1.62851E+3   1.36969E+3
   7.90188E+2   2.32202E+3
   3.57234E+2   2.92950E+3
  -2.62970E+3   8.47441E+2
   4.14194E+2  -3.88516E+2
   1.97397E+3  -2.94607E+3
   2.57787E+3   1.66247E+3
   2.12612E+3  -1.86352E+2
   2.65816E+3   1.01577E+3
   4.81399E+2   1.21282E+3
  -1.87584E+3   2.16465E+3
  -5.15677E+2   3.48823E+3
  -3.55460E+3  -2.64522E+2
  -1.65059E+3  -1.20119E+3
  -4.80867E+2  -3.80962E+2
  -3.18624E+2   3.98455E+2
  -2.06423E+3   3.41090E+3
  -3.20700E+3   1.03213E+3
   7.18587E+2   1.09211E+3
   7.67275E+2   8.55698E+2
  -4.80048E+2   4.14009E+2
  -2.93167E+3  -2.47498E+2
  -3.57687E+2  -1.53702E+3
   1.27875E+3  -1.62306E+3
   1.04518E+3  -9.99905E+2
  -2.78130E+2  -1.98399E+3
  -2.41752E+2  -2.39638E+3
   1.32859E+3  -1.42949E+3
   7.51818E+2  -1.90649E+3
  -1.07322E+2   3.04265E+3
  -1.76359E+3   3.25117E+2
  -2.22713E+3   1.76016E+3
  -2.81529E+3  -9.78558E+2
  -1.75836E+3   1.41627E+3
   1.40749E+3   1.11893E+3
   8.35508E+2  -1.56669E+3
   1.28121E+3  -1.00503E+3
   2.31889E+3  -3.43943E+2
   6.95185E+2   1.09106E+2
  -1.90064E+3   1.16747E+3
  -6.72094E+2  -2.63062E+3
   1.21113E+3   9.07733E+2
   1.55488E+3  -2.88094E+2
  -4.11894E+2   5.35031E+2
   4.71899E+2   1.99803E+3
   6.14315E+2   2.46528E+3
  -1.62235E+3   1.06295E+3
  -3.41042E+3   9.76532E+2
  -2.34346E+3  -2.05964E+3
  -1.16699E+3  -3.90897E+3
   4.77695E+2  -1.86567E+3
   9.81187E+2   1.10775E+1
   9.40103E+2   1.61599E+2
  -4.61790E+2   1.51637E+2
   1.66078E+3   7.69463E+2
   8.48903E+2  -1.79369E+3
  -1.49533E+3   9.78786E+2
  -1.89330E+2   5.17412E+2
   4.29967E+2  -6.90969E+2
  -7.22111E+2  -7.64833E+2
  -1.28165E+2   1.99189E+3
  -3.85016E+3   1.17728E+3
   1.00538E+3  -3.56866E+2
   2.40557E+3   1.13141E+2
   1.41370E+3  -1.11523E+2
   4.97398E+2  -7.94882E+1
  -1.57067E+3   5.14650E+2
  -2.06881E+2  -1.23577E+2
   4.45199E+2  -1.49877E+2
   1.60161E+3  -3.16271E+2
  -1.94420E+3  -3.05226E+2
   4.75031E+2  -1.40890E+3
   3.18274E+3  -3.06329E+2
   2.18673E+3  -4.01187E+2
   3.67806E+2   8.56005E+2
  -9.81817E+2   7.62872E+2
  -2.14524E+2  -2.31383E+3
  -1.38656E+3  -1.41992E+3
  -2.01641E+3  -1.58074E+3
  -1.39497E+2  -6.03252E+2
   1.85657E+3  -2.23338E+3
   1.35816E+3  -1.60305E+3
   1.60075E+3   5.53326E+2
  -1.80568E+3  -6.98617E+2
   2.88454E+2  -1.01876E+3
   1.28060E+3  -3.19034E+3
   1.49656E+3  -1.03403E+3
   2.99127E+2  -1.19146E+1
   7.97545E+2   5.51874E+1
  -1.00301E+3  -1.31846E+3
   5.82696E+2   1.69361E+2
   3.70426E+2  -1.26297E+3
   1.73645E+3  -6.87905E+2
  -1.96705E+1  -1.20852E+3
  -4.52436E+2  -1.03943E+2
   1.22235E+3   2.25628E+3
  -1.02346E+3   1.49663E+2
  -2.05011E+2   2.53031E+2
  -1.85377E+3  -2.30887E+3
  -6.07267E+2  -7.75687E+2
   6.97997E+2  -6.81883E+2
  -3.37483E+2  -7.14718E+2
   1.74914E+3  -1.72467E+3
   2.01428E+3  -1.08560E+2
   1.68556E+3   1.21479E+3
   1.73806E+3   9.10184E+2
  -1.92184E+3   1.59422E+3
  -5.51641E+2  -1.79886E+3
   4.16835E+2  -9.27666E+2
   1.86619E+3   1.32401E+3
   2.65256E+2   1.23759E+3
  -1.94345E+3  -2.47110E+2
  -6.66071E+2  -4.54313E+2
   5.67957E+2   2.44709E+1
   8.48697E+2  -1.06828E+3
  -7.13124E+2   1.56257E+3
  -1.61122E+1  -7.96150E+2
  -1.89591E+2  -2.44852E+2
   6.85648E+2   7.63271E+2
  -2.73795E+3  -2.16611E+3
   4.49666E+2  -1.20979E+2
  -3.07394E+2  -1.75420E+3
   1.98065E+3  -9.86498E+1
   8.92351E+2   1.47429E+3
  -1.26502E+3   1.04932E+3
  -5.34038E+1  -6.08069E+2
  -1.20183E+3  -8.72809E+2
   1.82860E+3   2.13569E+2
   6.79517E+2   9.82837E+2
   6.50594E+2  -1.95556E+3
   6.99353E+2  -1.66322E+3
   1.61158E+3  -1.26931E+2
   1.73232E+3   2.00094E+2
  -9.58417E+2  -2.71442E+2
  -1.89967E+3  -4.18066E+2
   7.07236E+2  -4.98169E+2
   1.80337E+3   6.82593E+1
   8.58647E+2   1.33556E+3
  -4.22796E+2   2.00463E+2
   2.58788E+3  -6.79838E+2
  -1.77597E+2   2.12480E+3
  -6.93007E+2   1.16840E+3
  -2.10574E+3  -1.17530E+3
  -6.18535E+2  -1.77461E+3
  -1.57755E+3  -4.91650E+2
   7.51506E+2  -7.50779E+1
  -1.06006E+3   1.09841E+3
  -2.56854E+3  -1.64668E+3
  -2.20635E+3  -1.22173E+2
   4.69836E+2   6.33730E+1
   5.65454E+1  -3.61779E+2
  -2.15783E+1  -6.96408E+2
   4.24883E+2  -1.58717E+3
  -8.41829E+1  -4.12613E+2
  -7.38048E+2   9.00146E+2
  -2.69246E+3   1.37932E+3
  -2.08353E+3  -4.56256E+2
   1.31074E+2   1.73786E+3
  -3.29601E+2   9.53703E+2
  -1.64366E+3  -1.00480E+2
  -1.14960E+3  -5.29881E+2
  -1.53721E+3   1.09396E+3
   6.46340E+1   1.11472E+3
   1.82486E+2   3.00427E+3
  -4.10513E+2  -4.80853E+2
  -3.72541E+2   7.84927E+2
   1.34693E+3  -6.30877E+2
   1.23458E+2  -1.28725E+3
  -1.64306E+3   4.93971E+1
  -1.09945E+3  -5.38552E+2
   7.09496E+2   1.95608E+3
   8.24495E+2  -2.55038E+2
   2.74743E+2  -2.57324E+3
   1.03221E+2  -1.20062E+3
  -1.91920E+3  -1.10160E+3
   3.39177E+2  -1.52715E+3
   1.80531E+3   6.10393E+2
   4.37137E+2   2.04496E+3
  -1.07852E+3  -7.76945E+2
  -2.57601E+2  -4.53752E+2
  -1.35722E+3  -1.02607E+3
   2.54870E+2   4.23468E+2
   1.07901E+3   7.01707E+2
   1.42027E+2  -9.44272E+2
  -2.74511E+3  -1.03766E+3
   1.24612E+3  -1.25640E+3
   1.16469E+3   7.79496E+2
  -9.56384E+2   1.25835E+3
   2.13173E+3  -1.87369E+2
   6.97371E+2   3.59425E+2
   3.34066E+2   1.19723E+3
  -5.80680E+2   7.49083E+2
  -1.28987E+3  -1.63665E+3
   3.53403E+1   1.54775E+3
   5.59786E+2   3.85600E+2
  -1.20318E+3   2.74413E+3
  -2.69175E+2   7.06851E+1
  -5.00715E+2  -1.08000E+3
   9.76299E+2   2.17829E+3
   9.39097E+2   4.13446E+2
  -1.24221E+3   1.11186E+3
  -7.84857E+2   4.41776E+2
  -2.91410E+2  -1.07498E+3
  -8.59719E+2  -6.87502E+1
   1.26705E+3  -9.48128E+2
  -7.61149E+2   9.37667E+2
   1.10438E+3   1.31725E+2
  -3.44036E+3  -5.39326E+2
   6.13488E+2   1.11211E+3
  -2.88001E+3  -4.93790E+1
   2.57427E+2  -3.24777E+3
  -1.62141E+3  -2.01409E+2
  -3.75451E+2  -1.46559E+2
  -7.45161E+2   8.70665E+2
   2.32832E+3  -1.92149E+3
  -9.65743E+2   5.10973E+2
   1.07734E+3  -1.05709E+3
   2.61407E+2  -1.28517E+3
   1.81461E+3  -9.32824E+2
  -8.15952E+2  -6.83946E+2
  -5.27209E+2   3.03486E+3
  -1.67887E+2  -3.98527E+2
  -9.75585E+2  -6.93366E+2
  -7.96060E+2  -2.62755E+2
   1.52319E+3  -3.30224E+2
   1.41196E+3   1.34766E+3
   3.27184E+3   1.64702E+3
  -9.08487E+2   1.63990E+3
  -4.97592E+2   1.00802E+3
  -8.64986E+2  -6.61288E+2
   3.98894E+2  -2.74815E+2
   7.08936E+2   1.33727E+3
  -1.46964E+2   7.77013E+2
  -1.29173E+3  -1.70016E+3
   1.22806E+3   5.19310E+1
  -7.27860E+2   1.88416E+3
  -3.08156E+2  -2.57083E+2
  -1.87049E+3  -2.63351E+2
  -3.42750E+2  -2.74502E+2
   3.13349E+2  -4.26315E+2
  -1.45499E+2  -2.55534E+2
   2.96384E+2  -1.93176E+2
   1.74483E+3   1.49514E+2
   5.07749E+2   1.01131E+3
   2.09503E+3   1.30347E+3
   6.06917E+2  -1.42490E+1
  -4.38776E+2  -5.34903E+2
   5.14595E+2  -5.17346E+2
   4.54120E+2   1.12670E+3
   7.01175E+2  -1.44202E+2
  -1.74631E+3  -6.79841E+1
  -7.09872E+2   7.25594E+1
   1.31468E+3  -1.01639E+3
   1.07294E+3   8.56110E+2
   1.40050E+3  -8.00623E+2
   1.43120E+3  -9.00032E+2
   2.24210E+3  -1.47583E+3
   5.31781E+2   6.54028E+1
  -1.11283E+3   6.88955E+2
   5.60961E+2   3.46720E+2
  -3.84390E+2   2.14305E+3
   4.91388E+2   1.41298E+3
