 
 $NMID
 ID=''
 FMTDAT='(2E13.5)'
 TRAMP=   1.00000E+0
 VOLUME=   1.00000E+0
 $END
   5.22970E+2  -4.86502E+2
   1.22473E+2   1.43860E+3
   1.65784E+3  -2.41020E+3
   7.79980E+2   1.27086E+2
  -7.06188E+2  -4.23445E+2
   3.51604E+1  -1.25770E+3
  -6.27843E+2   1.43900E+3
  -4.14332E+2  -1.81201E+2
   5.99660E+2  -3.91654E+3
  -1.33551E+3  -1.14668E+3
   1.74004E+3   9.55448E+2
   1.98206E+3  -9.98429E+2
   1.36566E+3   2.90106E+3
  -2.87606E+3   2.89196E+3
  -2.96013E+3  -1.25661E+3
   7.22860E+2  -3.12442E+3
   2.35661E+3  -1.44881E+3
   3.54376E+3  -1.04050E+3
  -3.88301E+2   1.47748E+3
  -2.19402E+3  -6.41754E+2
   2.54843E+3  -7.72529E+2
   2.22840E+3   2.28933E+3
  -5.17574E+3   1.44404E+3
  -1.89947E+3  -4.43860E+3
   1.94330E+3  -3.62034E+3
   1.29469E+2   8.02574E+2
  -3.21739E+3  -2.59666E+2
  -1.88954E+3  -1.14641E+3
  -2.46862E+3  -2.10676E+3
   1.93952E+3  -2.94635E+3
   4.40671E+3   4.45422E+3
  -3.68981E+3   5.27189E+3
  -5.16024E+3   4.89928E+2
  -1.90175E+3  -2.91251E+3
   9.52307E+2   5.58747E+0
  -1.56008E+3  -2.00702E+3
   4.58723E+2  -1.90113E+3
   4.92423E+3   1.08594E+3
   2.39177E+3   2.46125E+3
   2.27947E+3  -2.63857E+2
   5.56036E+2   3.11029E+3
  -2.05634E+3   2.42146E+3
  -1.06377E+3  -2.53760E+3
   4.85530E+3  -2.38889E+3
   3.41575E+3  -1.83619E+3
   3.17632E+3   8.36511E+2
   4.11128E+3  -2.41408E+2
   4.39820E+2   7.83751E+2
  -1.56329E+3   1.50308E+3
  -1.13510E+2   2.61710E+3
  -7.97098E+2   4.22456E+2
  -2.02290E+3  -2.10812E+3
   1.23825E+3  -1.51327E+3
  -3.15532E+2   2.46959E+3
  -3.10166E+2   1.17890E+3
  -2.90626E+3   7.43995E+2
  -2.65677E+3   3.38566E+2
  -4.77102E+3  -1.66831E+3
  -2.37616E+3  -2.83436E+3
   2.16442E+2  -1.65400E+3
   3.40745E+3   7.24144E+2
  -4.88311E+1   1.44391E+3
  -2.43490E+3   1.78543E+3
  -1.93928E+3  -6.55883E+2
  -1.76840E+3  -8.63477E+2
  -8.48420E+2  -1.44815E+3
  -2.92623E+3   7.32315E+2
  -3.84053E+3  -1.07625E+3
  -7.12259E+2  -6.81273E+2
   2.58944E+2  -2.66942E+3
  -1.38894E+3   2.96034E+2
   3.45930E+2  -8.16935E+2
   8.63048E+2  -2.50924E+3
   9.52455E+2  -5.88120E+2
   9.53693E+2  -9.49736E+2
  -1.49946E+3  -1.00430E+3
   1.86025E+3  -1.23835E+2
   2.56506E+3   1.08570E+3
   2.47688E+3   2.63131E+3
   1.90740E+3   3.10687E+3
  -6.19569E+2   2.50778E+3
  -1.16837E+3   3.83127E+3
   6.33001E+2   2.53037E+3
   2.67604E+2   9.96683E+2
  -7.05719E+2   1.79916E+3
  -1.87567E+3   7.80147E+2
  -5.54012E+1  -1.53336E+3
   2.81719E+3  -1.48573E+3
   2.69108E+3   2.64017E+3
   2.17583E+2  -4.99328E+1
   9.31271E-1   2.18968E+3
   1.03605E+3   1.71621E+3
   4.36966E+2   1.82269E+3
  -3.98903E+2   1.29991E+3
  -1.99676E+3  -1.26178E+3
   1.38869E+3  -6.98642E+2
   3.29879E+3  -1.07138E+3
  -5.38590E+2   1.36026E+3
  -1.70630E+3   4.27884E+2
   1.84834E+1  -1.94481E+3
   1.45398E+3  -1.14037E+3
   8.22186E+2   1.53158E+3
   3.72068E+2   1.45683E+3
  -6.31241E+2  -1.24160E+2
   2.09552E+3  -1.23746E+3
   4.96930E+2  -2.36147E+2
  -2.69995E+1  -1.38826E+3
  -1.00676E+3  -1.67177E+2
   7.81821E+1  -4.81757E+2
   5.79956E+2  -1.95897E+3
   1.74463E+3   1.60041E+3
   2.07184E+3   1.18739E+3
  -1.19768E+3   6.33928E+2
  -1.18196E+3  -4.24874E+2
  -9.47477E+0  -6.46975E+2
   1.67648E+3   5.43806E+2
  -8.62729E+2  -7.70204E+2
  -5.63115E+2  -1.04454E+3
   7.60763E+2   9.86021E+2
   1.03680E+3   9.54981E+2
   1.09232E+3  -4.52637E+2
   2.72359E+3  -3.61214E+1
   2.38591E+3   1.01058E+3
  -3.90029E+2   1.08601E+3
  -5.62172E+2   1.23275E+3
   1.29921E+3   6.37658E+2
  -4.57453E+2   8.75975E+2
  -2.72936E+2   1.84239E+3
  -1.68828E+3  -1.21218E+2
   1.39874E+3   5.68653E+2
  -8.49304E+2  -5.79351E+2
  -3.33595E+2  -2.19773E+3
   6.12304E+2  -9.92479E+1
  -1.91748E+3   1.61970E+2
   2.26130E+2  -1.70921E+3
   2.38078E+3  -2.58688E+3
  -5.07419E+2   5.16857E+2
   1.42206E+3  -1.14022E+3
   1.88027E+3  -6.43339E+2
   2.88602E+3   3.71091E+2
   1.80909E+3  -4.45618E+1
  -9.76034E+2   1.17051E+3
  -1.43567E+2  -7.60304E+2
   1.67343E+3  -1.83537E+2
  -1.15100E+3   7.22674E+2
   9.44820E+2   8.37760E+2
  -9.48604E+2  -1.12141E+3
  -2.79543E+3   1.29728E+3
  -1.22842E+3  -6.44628E+2
  -2.77982E+2  -1.01578E+3
  -9.23384E+2  -2.86329E+2
  -4.20612E+2   5.07661E+2
  -4.09085E+2  -2.30130E+3
  -7.74373E+2  -4.88931E+2
  -2.51956E+2  -1.09409E+3
  -1.35938E+3  -3.29490E+2
   1.11894E+3  -1.10935E+3
  -1.15175E+3  -6.82809E+2
   1.29063E+2  -1.54169E+3
  -9.64963E+2  -2.28806E+3
   1.47764E+3  -2.12351E+3
  -6.13160E+2  -7.19227E+2
  -3.95959E+2   7.33321E+2
  -2.01171E+3  -9.97470E+2
  -9.72586E+1  -2.64733E+2
  -6.43447E+1  -8.58949E+2
  -1.17664E+3  -4.68990E+2
  -1.64743E+2  -3.99998E+2
   4.40019E+2  -5.35160E+2
  -1.06570E+2  -1.11728E+3
   6.48806E+1   2.11377E+3
  -1.22273E+3  -1.25542E+3
   1.42454E+3   2.92823E+3
  -9.28782E+2   9.65263E+2
   2.37065E+2   1.45463E+2
  -1.28929E+3   1.20328E+3
  -1.00580E+3  -9.59797E+2
  -6.37080E+2  -4.43206E+2
   5.62353E+1  -1.09232E+3
  -2.25205E+3  -3.06623E+2
   1.59132E+3   2.25341E+3
  -2.33575E+2   2.53255E+2
   5.80793E+2  -7.12011E+2
  -1.51252E+3   9.95681E+2
   3.86667E+2  -6.53462E+2
   3.59679E+2   7.07590E+1
  -7.58905E+2  -1.46959E+2
  -1.04871E+2  -4.68819E+2
  -6.94514E+2   4.89318E+2
   3.03889E+2   5.23741E+1
   4.03685E-1   1.94115E+3
   7.49244E+2  -1.48939E+3
   5.87119E+2  -4.80842E+2
  -3.15859E+2  -9.59460E+2
  -8.21758E+2   1.02048E+3
   5.15180E+2  -4.40922E+2
   2.05582E+3  -1.07802E+2
   1.07868E+2  -4.00890E+1
   6.86695E+2  -4.09963E+2
   3.92964E+2  -3.30521E+2
  -1.46647E+2   8.16080E+2
   4.50560E+2   2.05637E+3
  -4.68002E+2   2.03955E+1
   5.21743E+2   1.75396E+3
  -5.35204E+2  -1.47314E+3
  -1.61028E+3   1.66495E+3
  -7.02561E+1   6.41089E+2
  -7.34534E+2   4.41222E+2
  -7.22479E+2  -1.18865E+3
  -2.25894E+3   5.78310E+2
  -1.74000E+3  -9.03949E+1
   9.74541E+2  -6.88791E+1
   1.48719E+3  -1.05636E+3
  -1.46414E+2  -1.02581E+2
   1.78932E+3   8.91660E+2
  -1.89861E+2  -1.37137E+3
   6.26993E+1  -1.34099E+3
  -6.70506E+2  -8.16428E+2
   8.03725E+2   4.73127E+2
  -6.88571E+1  -2.04606E+3
   7.18512E+2   3.72502E+3
   5.33774E+2  -9.62146E+2
  -4.10628E+2   2.92380E+3
  -1.17484E+3   1.24912E+3
  -1.13468E+3   2.37365E+3
   6.83162E+2  -4.33236E+2
  -1.29659E+3  -1.41493E+1
  -4.23227E+1   9.38141E+2
  -4.05427E+2   1.43208E+3
  -5.72251E+2  -1.06764E+3
  -1.46934E+3   1.65419E+3
  -1.12391E+3   1.62972E+3
   2.06371E+3   1.92686E+3
  -2.33154E+3   7.08045E+2
   1.90844E+2   2.05793E+2
   8.37407E+2  -2.06704E+3
   1.31386E+3   9.39541E+2
  -1.77515E+2   1.38647E+3
  -5.90823E+2   3.98771E+2
   2.80483E+2   1.67867E+3
  -1.94144E+3  -6.25932E+1
   4.37148E+2   1.74206E+3
   2.63079E+2   9.15334E+2
  -6.49659E+2  -1.83037E+2
   9.61304E+2   2.77823E+3
  -6.35762E+2   3.44468E+2
   4.07374E+2   1.59474E+3
  -7.23488E+2   4.33419E+2
   3.69916E+2   2.75051E+3
   1.72331E+3  -3.74154E+2
   1.54632E+3   2.10661E+2
   2.95818E+1   1.62118E+2
  -9.00461E+2   5.72044E+2
   1.01210E+3  -1.45942E+2
  -7.29446E+2   3.47982E+3
  -1.82783E+3  -7.70605E+1
   1.84790E+3   1.92016E+3
   6.17421E+2   1.93303E+2
   2.19243E+3   1.42386E+3
  -1.44582E+3  -3.02913E+2
  -2.09667E+2  -2.31323E+2
  -1.10908E+3   2.05787E+3
  -1.72829E+3   2.81376E+3
   1.72996E+3   5.79134E+2
  -1.87953E+3   1.20275E+3
  -6.74803E+2   1.32095E+3
  -1.24432E+3   3.41221E+2
  -5.32089E+1   7.75077E+2
   3.25756E+2   4.87324E+2
   7.78336E+2  -8.37897E+2
  -6.84510E+2   1.23100E+3
   1.05422E+3   1.80267E+3
  -3.22853E+1   1.50834E+3
   1.23548E+2   4.36472E+1
  -2.63877E+3   3.24588E+2
  -1.07658E+3  -8.20057E+2
   8.34308E+2   1.73363E+2
  -1.01240E+2  -3.10034E+2
   6.36241E+1  -1.88652E+2
  -9.69528E+2  -4.80680E+2
  -1.13985E+2  -3.69825E+1
   7.41067E+2  -1.88256E+2
   2.60817E+2  -5.63768E+2
   8.81725E+2  -9.95728E+2
   2.78067E+3  -2.01734E+2
   6.53923E+2   2.09419E+2
  -3.45234E+2   1.23976E+3
   4.35435E+2  -1.25718E+3
  -1.41283E+3  -7.98928E+1
  -8.70681E+2   5.07984E+2
  -1.34002E+3  -9.28662E+1
   3.25110E+2   2.68879E+2
   9.91541E+2  -3.56496E+2
  -1.66978E+3  -1.72047E+3
   2.12595E+2   1.70817E+3
  -4.04933E+2   8.80397E+2
  -3.09566E+2  -4.18368E+2
   7.34050E+2   8.79114E+2
   3.86838E+2  -4.04376E+2
   1.08293E+3   1.08361E+3
  -5.94387E+2  -1.84151E+3
   1.13642E+3  -2.37270E+0
  -1.58568E+3  -9.08200E+1
  -6.22086E+2   1.45954E+3
   2.12837E+2   1.22498E+2
   3.71310E+2   3.96541E+2
   1.09828E+3   6.29734E+2
  -2.51110E+2   1.80422E+3
  -2.42134E+2   1.14493E+3
  -1.84948E+3   2.46427E+2
   6.74534E+2  -2.75053E+2
   2.21252E+3  -7.09747E+2
   7.26983E+2  -2.72578E+2
   9.18977E+2  -6.73694E+2
   1.84120E+3   1.52718E+3
   1.37135E+3   1.54312E+3
   9.07454E+2   2.34872E+3
  -1.90923E+3   1.17420E+3
   1.23024E+3   1.63469E+2
   7.28806E+2   7.74255E+2
   1.57301E+3  -1.54351E+2
   1.25613E+3  -1.33827E+2
  -1.19670E+2  -1.59317E+3
   1.91579E+3  -2.27453E+2
  -6.36430E+2  -1.52240E+3
   2.00290E+3   4.09008E+2
  -1.82861E+3   1.08736E+3
   3.28755E+2  -1.07768E+3
   7.44584E+2   8.29879E+2
  -1.51439E+3   2.20062E+3
  -1.06061E+2  -6.13976E+2
   4.72166E+2  -1.46723E+3
   1.34878E+3  -3.00446E+1
   2.17743E+3   1.79017E+3
   2.35676E+3  -1.32648E+3
   1.00573E+3   2.94996E+2
   3.62973E+2  -2.85017E+2
   2.68833E+2   1.20056E+3
  -2.72661E+2   6.03716E+2
  -1.31288E+3   6.76916E+2
   6.21275E+2  -2.13297E+3
  -1.17488E+3   9.30580E+2
  -9.24860E+2   5.79676E+2
   5.87987E+2  -1.22133E+2
   6.19624E+2  -2.79095E+0
  -3.87868E+2   3.06827E+2
  -1.72481E+3   9.57898E+2
   1.01079E+3  -1.75557E+3
   2.17674E+3   1.80557E+2
   3.22878E+3   1.08362E+3
  -1.10578E+3  -4.41861E+2
  -8.38394E+0   2.53424E+3
   1.42070E+3  -8.54007E+2
  -1.72570E+3   1.75471E+2
   1.31887E+2   1.88206E+3
  -1.59788E+0   7.15160E+2
   1.99780E+3   8.62852E+2
  -4.47723E+2   4.65948E+2
  -3.51285E+1   1.19430E+3
  -2.90698E+2   1.11547E+3
   8.97520E+2  -1.84142E+2
   2.23989E+3   6.63614E+1
  -2.82685E+2   1.31845E+3
  -3.07179E+2  -1.22517E+3
   6.41671E+1   3.07671E+2
  -3.61358E+2   7.91503E+2
  -1.88264E+3   8.25141E+2
