 
 $NMID
 ID=''
 FMTDAT='(2E13.5)'
 TRAMP=   1.00000E+0
 VOLUME=   1.00000E+0
 $END
   9.50809E+2  -2.14439E+2
   2.53760E+3   1.37831E+3
   1.44004E+2  -7.62412E+3
  -2.81235E+3  -5.48895E+3
  -6.74961E+3  -5.42571E+2
  -2.90408E+3  -1.15158E+2
  -2.45442E+3   5.88476E+3
  -2.80189E+2   5.60521E+3
   1.60225E+2   1.25625E+3
  -1.02019E+3  -9.47505E+2
   3.60618E+3  -4.59639E+3
   6.28762E+3  -7.13846E+3
   3.45320E+3  -4.05679E+2
  -4.50441E+3   4.72879E+2
  -6.88047E+3  -2.87203E+3
  -4.07210E+3  -3.82387E+3
  -1.19718E+3  -6.00226E+2
   6.12402E+2   2.00110E+3
  -5.63278E+2   3.96567E+3
   3.91735E+2   3.34150E+2
   3.57785E+3  -2.78637E+3
   4.88777E+3   1.64763E+3
   7.68669E+2   1.15436E+3
  -2.16104E+3  -9.01819E+2
   2.12871E+3  -4.87381E+3
   2.38297E+3   1.21545E+3
   1.03685E+3   3.84212E+3
  -4.23081E+3  -2.22256E+3
  -4.37006E+3  -3.38859E+3
   1.19323E+2  -2.58845E+3
   4.45460E+3   1.25255E+3
   1.32579E+3   1.01053E+4
  -4.25887E+3   4.50161E+3
   7.28038E+2   1.05912E+3
   3.84214E+2   2.83745E+3
  -3.92815E+3   2.29611E+3
   9.27680E+2  -2.36999E+3
   4.43453E+3  -2.09891E+3
   4.62031E+3  -1.12372E+3
  -1.01616E+3  -8.91246E+1
  -3.46100E+2   4.23040E+3
  -4.83082E+3   5.06644E+3
  -7.38762E+3  -3.76682E+3
  -2.46874E+3  -4.95756E+3
   1.55594E+3  -4.27491E+3
   1.24910E+3  -2.63116E+3
   8.26335E+2  -1.64853E+3
  -1.28429E+3   8.05593E+2
  -1.05835E+3   1.08343E+3
  -3.00623E+3   1.97769E+3
  -3.33808E+3  -1.13054E+3
  -1.49017E+3  -1.93572E+3
   7.56175E+2  -1.71526E+3
   2.75432E+3   1.76149E+3
   6.69489E+2   3.55792E+3
   7.84505E+2   3.45871E+3
  -2.56818E+2   4.67490E+3
  -1.77567E+3   5.07187E+3
  -5.09045E+3   1.68556E+3
  -2.10008E+3  -1.41042E+3
   3.94340E+3  -4.46383E+3
   4.69275E+3  -2.83090E+3
   3.16675E+3  -4.53748E+2
   2.87842E+2  -7.57276E+2
  -7.67423E+2  -3.02759E+3
   3.09683E+3  -3.09720E+3
   1.43851E+3   1.39169E+2
  -6.94052E+1   3.35738E+2
  -2.26052E+3  -1.17301E+3
   1.98373E+3  -3.86738E+2
   1.56093E+3  -3.57142E+3
   5.61706E+2   9.15358E+2
   4.71288E+2  -4.14917E+2
  -9.96935E+2  -1.93505E+3
   8.97523E+2  -2.34759E+2
   1.84533E+3   2.67582E+3
   1.79832E+3  -1.62947E+2
   2.75227E+2  -2.20540E+3
   1.67723E+3  -5.86820E+2
   4.51447E+3   6.42710E+2
   2.00811E+3  -9.85512E+2
   1.49130E+3  -5.97086E+2
   1.21985E+3   2.48378E+3
   3.08549E+3   2.37813E+3
  -1.18058E+3   2.80292E+3
  -3.87930E+3   1.35204E+3
  -4.26394E+3  -1.42396E+3
  -2.21668E+3  -4.72399E+3
   1.92201E+3  -1.90527E+3
   1.79246E+3  -6.89750E+1
  -1.34804E+3   9.81580E+2
   9.69979E+2  -6.72737E+2
   1.36207E+3   1.97502E+3
   4.41143E+2   3.96832E+3
  -4.10854E+3   1.95441E+3
  -3.86855E+3  -2.65348E+3
  -7.83063E+2  -2.23315E+3
   1.73894E+3   1.73987E+3
   7.79029E+1   1.99456E+3
  -5.83689E+3   2.32615E+2
  -1.59097E+3  -2.71546E+3
   2.11534E+3  -5.84975E+3
   1.57093E+3  -5.32894E+2
  -6.15235E+2   2.55283E+3
  -1.09167E+3   2.21199E+3
   8.87048E+2   1.46897E+3
  -1.70806E+3   1.09810E+3
  -3.06840E+3   2.98657E+3
  -3.91639E+3   1.19249E+3
  -2.60202E+3  -3.34559E+3
   9.88835E+0  -3.30800E+3
   2.07346E+3  -1.81394E+3
   1.97863E+3   3.71758E+2
   2.21568E+3   1.70888E+3
   1.57315E+2   2.70472E+3
  -1.64207E+2   3.18207E+3
  -1.64237E+3   1.38380E+3
  -5.18796E+2  -6.39516E+2
  -1.27216E+3  -2.86017E+3
   8.80950E+2  -1.94621E+3
   1.14487E+3   1.21611E+3
   2.58632E+2   1.54493E+3
  -2.24243E+3  -1.89035E+3
  -1.07055E+3  -2.49040E+3
   4.19554E+2   3.37521E+3
   7.60961E+2   1.98606E+3
  -6.33487E+2   8.18536E+1
   2.06481E+3   1.06366E+3
   2.15677E+3   1.23190E+3
  -2.01767E+2   1.25572E+3
  -3.56576E+3   6.87066E+1
   9.90689E+2   4.41918E+2
   8.68061E+2  -2.11755E+3
   1.04572E+3   1.48888E+3
  -1.41023E+3   3.30481E+3
  -8.09735E+2   2.25866E+3
  -1.00953E+2  -4.93776E+2
  -3.32696E+3  -2.59549E+3
  -1.35330E+3  -5.06434E+1
  -9.50240E+2   2.33401E+3
   5.65846E+2   8.26602E+2
   1.17015E+3  -1.50130E+3
   1.19532E+3   9.57499E+2
   1.59627E+3   3.29317E+3
  -2.68662E+3  -4.92646E+2
   5.58793E+2  -1.85095E+2
   1.74533E+3   3.62343E+2
   1.64072E+3   3.80042E+2
   9.08101E+2  -2.71245E+2
   2.66574E+3  -3.83994E+2
  -2.56686E+2   1.52511E+3
  -2.22486E+3   4.07016E+2
  -1.57705E+3  -2.50821E+3
  -1.09189E+3  -1.33043E+3
   3.48426E+2  -6.72392E+2
   1.05480E+3  -3.05168E+3
   2.12690E+3   1.31734E+3
   5.56095E+2   3.42906E+2
  -4.06227E+1   1.05178E+3
   8.29342E+2   1.00696E+3
  -5.17587E+1   1.79331E+3
  -1.60569E+3   1.53300E+3
   6.10244E+2  -6.39502E+2
   6.63800E+2   3.35071E+2
  -3.83472E+2  -4.74849E+2
  -1.40757E+3   1.19904E+3
  -1.42177E+3  -8.19675E+2
   3.53148E+2  -2.21173E+3
   1.39766E+3  -8.70438E+2
   3.47708E+3  -1.37129E+1
   7.48644E+2   1.46966E+3
   6.77348E+2   1.07212E+3
  -2.90555E+3  -8.72920E+2
  -1.12300E+3  -3.46353E+2
  -1.02801E+3  -8.74634E+2
  -7.20048E+2  -1.01915E+3
   6.49240E+2  -3.00601E+3
   1.87885E+3  -4.97727E+2
   4.77660E+3   8.15031E+2
  -2.23907E+2   2.43490E+2
   3.72015E+2   2.66564E+2
  -1.58522E+3  -4.23578E+2
   8.84677E+2  -1.64646E+3
  -2.69439E+3  -1.79055E+3
  -2.22831E+2  -1.09426E+3
   1.82319E+2  -6.31586E+2
   1.68723E+3  -7.56886E+2
   2.04528E+3   1.32816E+2
  -2.22637E+3   8.93310E+2
  -1.65465E+3  -1.92001E+3
   2.02418E+3  -4.92162E+1
   3.15674E+3   1.94708E+3
   9.54344E+2  -8.75488E+2
   8.11136E+2   1.73390E+3
   5.93843E+2  -9.97235E+2
   2.05763E+2   4.40045E+2
   5.75026E+2   1.22637E+3
   1.66286E+3  -1.15880E+3
   1.25825E+3  -5.01504E+2
   1.13167E+3  -1.22456E+3
   1.02776E+3   1.30847E+3
  -3.19628E+3   1.08443E+3
  -3.36060E+3   3.45626E+2
  -2.10381E+3  -1.38381E+3
  -1.24209E+3  -3.61889E+3
  -7.22514E+2  -1.88599E+3
  -1.00641E+3   6.06288E+2
  -1.04555E+3  -1.90297E+3
   1.24611E+3  -9.92942E+2
   1.49797E+3   1.01936E+3
  -1.22384E+3   1.61006E+3
  -3.66206E+3   8.15658E+2
  -1.10900E+3  -1.92666E+3
   9.69212E+2  -6.66610E+2
  -2.35252E+2   1.67618E+3
   5.83534E+2   6.24353E+1
  -7.54285E+2  -3.38322E+2
  -9.45872E+2  -1.52216E+3
   7.98598E+2  -5.31992E+2
  -1.48988E+3   2.71408E+2
   1.20256E+2   2.81965E+2
   1.56842E+3  -2.55404E+3
  -1.96510E+2   1.76253E+2
   2.06972E+3  -3.40650E+2
  -9.42425E+1   1.52285E+2
  -6.33691E+2  -1.79605E+3
  -5.33345E+2  -9.08923E+2
   3.76933E+2  -1.14056E+2
   6.68607E+2   2.65546E+3
   1.63145E+2  -8.76162E+2
   4.93153E+2   9.19863E+2
   1.84433E+2   1.03397E+3
   1.20444E+3   6.98617E+2
  -1.21325E+3  -7.79278E+2
   5.82997E+2  -8.05405E+2
   8.56550E+2  -4.55313E+2
   2.02249E+3   1.24406E+3
  -1.74280E+3   2.17570E+3
  -1.06397E+3  -1.40217E+2
  -2.99487E+3  -1.06658E+3
  -3.64413E+1  -1.70199E+3
   2.28652E+3   3.44569E+2
   7.83422E+2  -3.78817E+2
   1.70809E+2   4.70890E+2
   1.91367E+3   7.37466E+2
   7.84012E+2   8.13413E+2
  -5.11494E+2   1.67392E+2
  -1.48092E+3   1.11722E+3
  -4.48427E+2  -1.37296E+3
   1.56191E+3  -2.23768E+2
   1.09340E+3   1.63753E+2
  -6.73421E+2   1.26378E+3
  -1.49867E+3   1.07721E+3
  -8.24382E+2  -3.95588E+2
  -2.34158E+1  -3.10270E+2
  -1.40621E+3  -7.75415E+2
   1.02819E+3  -7.82824E+0
   2.58965E+2  -1.80601E+2
   6.95099E+2  -1.44686E+3
   9.84030E+2   3.44737E+3
  -1.40825E+3   1.72804E+3
  -1.15255E+3  -1.25978E+3
  -2.14201E+2  -1.88481E+3
   6.61679E+2  -4.41123E+2
   7.47673E+2   1.32939E+3
  -8.66202E+2  -9.68677E+2
   5.43570E+2  -3.37465E+2
   1.21127E+3   1.00773E+3
  -1.20470E+2  -6.87165E+2
  -2.30624E+3  -4.48057E+2
   5.79332E+2  -2.24132E+3
   1.27088E+3   6.89515E+1
   2.68572E+3  -3.96252E+2
   1.86540E+3  -1.14979E+2
   8.68635E+2  -6.89759E+2
  -6.98277E+2   7.04830E+2
   1.12674E+3  -5.93051E+2
  -1.97011E+3  -2.18764E+3
  -1.41449E+2   7.02098E+2
   8.28969E+2  -1.71442E+2
   2.43451E+3  -1.54382E+3
   1.36436E+3   1.96725E+2
  -1.03620E+3   1.35035E+3
   2.30049E+2   7.00486E+2
  -1.59702E+3   1.59575E+3
  -1.37073E+2   3.69896E+2
   4.60384E+2   1.60846E+3
  -3.71660E+2  -4.37912E+2
  -1.96367E+3  -1.19302E+3
  -1.43979E+3  -9.87510E+2
   5.75299E+2   1.42795E+3
  -6.32564E+2  -1.06686E+2
   1.01938E+3  -8.95640E+1
   5.78180E+2  -2.59261E+2
   2.67617E+3   6.07310E+2
   1.43825E+3   5.49033E+2
  -4.53965E+2   1.01515E+3
  -7.60662E+2  -1.00676E+1
   1.14957E+3  -5.12905E+2
   1.77091E+3   7.22522E+1
  -1.35521E+3  -1.65329E+3
   9.42930E+2  -1.12326E+3
   3.77716E+1  -5.85172E+2
   1.77295E+3  -2.91385E+2
   3.52667E+2   1.05935E+3
  -1.66137E+3  -2.83757E+2
   1.23280E+2  -6.33431E+2
   2.10129E+2  -1.89041E+3
   1.09402E+3   2.97465E+2
   7.15296E+2  -7.26132E+2
  -5.40861E+2   4.89101E+2
   3.22721E+2  -1.12496E+3
   2.13646E+3  -9.59197E+2
   2.30723E+3  -2.22868E+2
  -7.26732E+2   2.05529E+2
   1.38030E+3  -5.77803E+2
   2.52840E+3  -7.69374E+2
  -1.08996E+2   2.45204E+3
  -8.14483E+2   9.58316E+2
  -2.91846E+3  -8.90176E+1
  -1.46472E+3  -2.07358E+3
   1.52553E+3  -8.19296E+2
  -3.40708E+2  -7.93141E+2
  -1.91247E+3  -3.92069E+2
  -2.49389E+3  -2.66793E+2
   1.26860E+2   9.23545E+2
   1.13746E+3  -4.00046E+2
  -3.13443E+3   8.13777E+2
  -9.75769E+2  -1.21835E+3
   1.26387E+3  -7.26790E+2
   1.95853E+3   3.45341E+2
   2.19260E+3   2.55142E+2
  -5.36978E+2  -4.82895E+2
   1.77993E+2  -1.19957E+3
  -7.29644E+2  -1.66360E+3
   4.78145E+2   1.27111E+3
  -1.36816E+3   2.19302E+3
   6.34640E+2   1.83667E+2
   2.89435E+2  -2.28775E+3
   1.79235E+3  -2.72286E+2
   3.17548E+2   2.07750E+3
  -1.20997E+3  -7.02144E+2
  -1.13171E+3  -1.92842E+3
   4.71160E+2  -2.67403E+3
   2.78003E+3  -2.00109E+2
  -1.45340E+3   2.29790E+3
   7.07985E+2  -7.41498E+2
  -1.53702E+3  -2.99618E+3
   1.64820E+3   6.90534E+2
   1.04867E+3   4.21043E+2
  -1.87258E+3   1.11866E+3
   1.17695E+3  -1.06434E+3
   6.08713E+1  -7.51386E+2
  -6.36509E+2   1.52443E+3
  -2.16279E+3   1.42885E+3
   3.51912E+2  -1.59007E+1
   4.58807E+2  -2.01309E+3
   3.11624E+3  -2.05851E+3
   1.55940E+2  -1.32660E+3
   4.88011E+2  -5.46410E+2
   1.43795E+3  -4.53823E+2
   1.35665E+2  -3.68132E+2
   2.88572E+3  -1.21704E+3
  -1.07559E+3  -5.76234E+2
  -1.10579E+3  -2.48394E+3
   6.09781E+2   3.42202E+2
   2.22228E+3  -4.35256E+2
