 
 $NMID
 ID=''
 FMTDAT='(2E13.5)'
 TRAMP=   1.00000E+0
 VOLUME=   1.00000E+0
 $END
  -2.03228E+4   8.93250E+3
  -5.67876E+4   6.83090E+3
  -5.45670E+4   1.60136E+4
  -5.04510E+4   1.41021E+4
  -5.30982E+4   1.25275E+4
  -5.24596E+4   1.43349E+4
  -5.08284E+4   1.26278E+4
  -5.20475E+4   1.12272E+4
  -5.17226E+4   1.19624E+4
  -5.06613E+4   1.06099E+4
  -5.11431E+4   9.36968E+3
  -5.08569E+4   9.91430E+3
  -4.99387E+4   9.02491E+3
  -5.04755E+4   7.80924E+3
  -5.01150E+4   7.84260E+3
  -4.94156E+4   6.86623E+3
  -4.97471E+4   5.93519E+3
  -4.94634E+4   5.77274E+3
  -4.88123E+4   5.01904E+3
  -4.90100E+4   4.09406E+3
  -4.85509E+4   3.88163E+3
  -4.80386E+4   3.40362E+3
  -4.81042E+4   2.66924E+3
  -4.77828E+4   2.25141E+3
  -4.71204E+4   1.59105E+3
  -4.70413E+4   9.96701E+2
  -4.67593E+4   5.99321E+2
  -4.62066E+4  -1.66754E+2
  -4.58714E+4  -8.77721E+2
  -4.54696E+4  -1.17806E+3
  -4.49828E+4  -1.61162E+3
  -4.48276E+4  -2.22233E+3
  -4.44077E+4  -2.75662E+3
  -4.38198E+4  -3.24683E+3
  -4.34591E+4  -3.63992E+3
  -4.31743E+4  -3.87447E+3
  -4.26184E+4  -4.36872E+3
  -4.22939E+4  -4.72207E+3
  -4.19213E+4  -5.04153E+3
  -4.14326E+4  -5.46377E+3
  -4.11513E+4  -5.92403E+3
  -4.07650E+4  -6.36107E+3
  -4.02534E+4  -6.91661E+3
  -3.98173E+4  -7.27426E+3
  -3.95132E+4  -7.56969E+3
  -3.90398E+4  -8.12033E+3
  -3.86626E+4  -8.50839E+3
  -3.82855E+4  -8.86832E+3
  -3.79001E+4  -9.20480E+3
  -3.74232E+4  -9.62099E+3
  -3.70444E+4  -9.94918E+3
  -3.66161E+4  -1.04063E+4
  -3.62120E+4  -1.06766E+4
  -3.57913E+4  -1.09771E+4
  -3.53866E+4  -1.12793E+4
  -3.50027E+4  -1.16686E+4
  -3.46148E+4  -1.19621E+4
  -3.42556E+4  -1.24156E+4
  -3.37476E+4  -1.27611E+4
  -3.32913E+4  -1.30067E+4
  -3.28890E+4  -1.32575E+4
  -3.25084E+4  -1.35025E+4
  -3.21591E+4  -1.38046E+4
  -3.17465E+4  -1.41157E+4
  -3.12940E+4  -1.44324E+4
  -3.09185E+4  -1.46409E+4
  -3.06015E+4  -1.49465E+4
  -3.01957E+4  -1.52853E+4
  -2.98253E+4  -1.55132E+4
  -2.93989E+4  -1.58123E+4
  -2.90079E+4  -1.60977E+4
  -2.85309E+4  -1.63589E+4
  -2.81434E+4  -1.65782E+4
  -2.76978E+4  -1.68364E+4
  -2.72879E+4  -1.71195E+4
  -2.68836E+4  -1.72962E+4
  -2.64728E+4  -1.75681E+4
  -2.60120E+4  -1.77702E+4
  -2.55911E+4  -1.79568E+4
  -2.51987E+4  -1.82187E+4
  -2.47766E+4  -1.84337E+4
  -2.43437E+4  -1.86230E+4
  -2.39344E+4  -1.87735E+4
  -2.34186E+4  -1.89452E+4
  -2.30009E+4  -1.91171E+4
  -2.25180E+4  -1.93670E+4
  -2.19749E+4  -1.95907E+4
  -2.15011E+4  -1.96215E+4
  -2.11131E+4  -1.96358E+4
  -2.07002E+4  -1.98649E+4
  -2.02811E+4  -1.99823E+4
  -1.97308E+4  -1.99926E+4
  -1.93902E+4  -2.01344E+4
  -1.89966E+4  -2.01724E+4
  -1.84877E+4  -2.03201E+4
  -1.80129E+4  -2.03159E+4
  -1.76544E+4  -2.02620E+4
  -1.72508E+4  -2.04196E+4
  -1.68585E+4  -2.04786E+4
  -1.64368E+4  -2.03783E+4
  -1.59896E+4  -2.04030E+4
  -1.55904E+4  -2.04186E+4
  -1.52205E+4  -2.03675E+4
  -1.49138E+4  -2.03868E+4
  -1.44410E+4  -2.04099E+4
  -1.40701E+4  -2.03541E+4
  -1.37575E+4  -2.03095E+4
  -1.34340E+4  -2.03321E+4
  -1.30313E+4  -2.02273E+4
  -1.26933E+4  -2.01382E+4
  -1.23180E+4  -2.00372E+4
  -1.20843E+4  -2.00804E+4
  -1.17738E+4  -1.99657E+4
  -1.14144E+4  -1.98960E+4
  -1.11731E+4  -1.98485E+4
  -1.07588E+4  -1.98026E+4
  -1.05012E+4  -1.96982E+4
  -1.01892E+4  -1.96314E+4
  -9.96396E+3  -1.95170E+4
  -9.69443E+3  -1.93858E+4
  -9.35863E+3  -1.92701E+4
  -9.11515E+3  -1.92395E+4
  -8.80886E+3  -1.91495E+4
  -8.53491E+3  -1.89971E+4
  -8.31650E+3  -1.89621E+4
  -8.03696E+3  -1.89126E+4
  -7.73906E+3  -1.86589E+4
  -7.50842E+3  -1.86376E+4
  -7.26352E+3  -1.84997E+4
  -7.07074E+3  -1.83731E+4
  -6.81213E+3  -1.83024E+4
  -6.46845E+3  -1.81288E+4
  -6.25548E+3  -1.80158E+4
  -6.09391E+3  -1.79425E+4
  -5.81893E+3  -1.78485E+4
  -5.52637E+3  -1.77047E+4
  -5.26970E+3  -1.75318E+4
  -5.12200E+3  -1.73674E+4
  -4.86855E+3  -1.72363E+4
  -4.65440E+3  -1.71091E+4
  -4.39343E+3  -1.69429E+4
  -4.20524E+3  -1.68069E+4
  -3.96534E+3  -1.66851E+4
  -3.71140E+3  -1.64570E+4
  -3.52504E+3  -1.63500E+4
  -3.33059E+3  -1.61415E+4
  -3.08788E+3  -1.59938E+4
  -2.83440E+3  -1.58202E+4
  -2.66943E+3  -1.56957E+4
  -2.52778E+3  -1.55116E+4
  -2.28586E+3  -1.53996E+4
  -2.07334E+3  -1.52130E+4
  -1.94370E+3  -1.50251E+4
  -1.76665E+3  -1.47925E+4
  -1.56106E+3  -1.45564E+4
  -1.43888E+3  -1.44209E+4
  -1.22565E+3  -1.42601E+4
  -1.04112E+3  -1.40703E+4
  -9.25147E+2  -1.39382E+4
  -7.40249E+2  -1.37275E+4
  -5.80102E+2  -1.35468E+4
  -4.11267E+2  -1.33929E+4
  -3.15207E+2  -1.30963E+4
  -1.71723E+2  -1.29625E+4
   3.77970E+1  -1.28192E+4
   1.44063E+2  -1.26600E+4
   3.14421E+2  -1.24184E+4
   4.21097E+2  -1.21924E+4
   4.41711E+2  -1.20599E+4
   6.95525E+2  -1.18767E+4
   8.47270E+2  -1.17195E+4
   9.26429E+2  -1.15165E+4
   1.07201E+3  -1.13263E+4
   1.16195E+3  -1.11217E+4
   1.32206E+3  -1.09061E+4
   1.43025E+3  -1.07616E+4
   1.52602E+3  -1.05364E+4
   1.56898E+3  -1.04616E+4
   1.64923E+3  -1.02225E+4
   1.76737E+3  -1.00289E+4
   1.87320E+3  -9.82641E+3
   1.96761E+3  -9.63079E+3
   2.10929E+3  -9.43300E+3
   2.10752E+3  -9.26992E+3
   2.27107E+3  -9.07381E+3
   2.28196E+3  -8.87852E+3
   2.43565E+3  -8.70025E+3
   2.40826E+3  -8.51850E+3
   2.55326E+3  -8.37298E+3
   2.56842E+3  -8.07899E+3
   2.57988E+3  -7.96905E+3
   2.74235E+3  -7.79914E+3
   2.77151E+3  -7.58289E+3
   2.74071E+3  -7.51840E+3
   2.82070E+3  -7.26445E+3
   2.86986E+3  -7.09124E+3
   2.90352E+3  -6.88990E+3
   2.93692E+3  -6.71453E+3
   2.92499E+3  -6.48321E+3
   3.03768E+3  -6.33506E+3
   3.08325E+3  -6.21319E+3
   3.10261E+3  -6.00834E+3
   3.07969E+3  -5.87569E+3
   3.13264E+3  -5.61384E+3
   3.09756E+3  -5.58216E+3
   3.03625E+3  -5.36209E+3
   3.10670E+3  -5.30760E+3
   3.13270E+3  -5.08715E+3
   3.07905E+3  -4.98669E+3
   3.13372E+3  -4.80088E+3
   3.13922E+3  -4.63588E+3
   3.12398E+3  -4.58019E+3
   3.12991E+3  -4.34681E+3
   3.16300E+3  -4.25371E+3
   3.11594E+3  -4.16388E+3
   3.10355E+3  -4.03688E+3
   3.16032E+3  -3.88957E+3
   3.10261E+3  -3.75116E+3
   3.08282E+3  -3.64407E+3
   3.01480E+3  -3.49711E+3
   3.08904E+3  -3.42292E+3
   3.08810E+3  -3.32706E+3
   2.99981E+3  -3.21113E+3
   3.03916E+3  -3.07792E+3
   3.04025E+3  -2.97701E+3
   2.96872E+3  -2.86332E+3
   2.98103E+3  -2.75361E+3
   3.01836E+3  -2.65668E+3
   2.96695E+3  -2.53756E+3
   2.97108E+3  -2.48028E+3
   2.90708E+3  -2.33316E+3
   2.87709E+3  -2.25479E+3
   2.90470E+3  -2.17365E+3
   2.81758E+3  -2.05742E+3
   2.83181E+3  -1.99848E+3
   2.76054E+3  -1.84028E+3
   2.77115E+3  -1.82827E+3
   2.76018E+3  -1.74551E+3
   2.75678E+3  -1.61022E+3
   2.70692E+3  -1.57859E+3
   2.65334E+3  -1.44061E+3
   2.60818E+3  -1.36024E+3
   2.58663E+3  -1.34512E+3
   2.54649E+3  -1.22693E+3
   2.51662E+3  -1.17586E+3
   2.48909E+3  -1.13461E+3
   2.49512E+3  -1.03833E+3
   2.44960E+3  -1.07265E+3
   2.38336E+3  -9.93441E+2
   2.28954E+3  -9.17625E+2
   2.33787E+3  -8.31130E+2
   2.28770E+3  -8.09188E+2
   2.28611E+3  -6.68145E+2
   2.21002E+3  -6.02955E+2
   2.22897E+3  -5.84389E+2
   2.12735E+3  -5.34251E+2
   2.18673E+3  -5.18253E+2
   2.07017E+3  -4.15815E+2
   2.03073E+3  -4.22056E+2
   2.06857E+3  -3.24076E+2
   1.99337E+3  -2.48366E+2
   1.98691E+3  -2.65070E+2
   1.97211E+3  -1.80408E+2
   1.88087E+3  -1.97555E+2
   1.89032E+3  -1.62468E+2
   1.87378E+3  -5.19542E+1
   1.83480E+3  -4.57821E+1
   1.79204E+3  -2.46979E+1
   1.73862E+3   3.43071E+1
   1.73663E+3   1.30980E+2
   1.75834E+3   1.18404E+2
   1.70399E+3   1.86412E+2
   1.62325E+3   1.69391E+2
   1.68021E+3   2.17759E+2
   1.60292E+3   2.95879E+2
   1.55976E+3   2.58592E+2
   1.57940E+3   3.29152E+2
   1.48352E+3   3.07626E+2
   1.41951E+3   3.74263E+2
   1.45935E+3   4.05558E+2
   1.37350E+3   3.84756E+2
   1.29808E+3   4.34099E+2
   1.38580E+3   5.07251E+2
   1.30618E+3   4.96983E+2
   1.23067E+3   5.31743E+2
   1.29024E+3   5.08147E+2
   1.17618E+3   6.20281E+2
   1.11991E+3   5.91183E+2
   1.14863E+3   6.17965E+2
   1.11662E+3   6.76692E+2
   1.08166E+3   6.71161E+2
   1.02143E+3   7.14332E+2
   1.00583E+3   7.13227E+2
   1.03844E+3   7.56452E+2
   9.34867E+2   7.10709E+2
   8.90728E+2   8.18385E+2
   9.28864E+2   8.09462E+2
   8.87738E+2   7.93602E+2
   8.35204E+2   7.96181E+2
   7.84594E+2   7.66782E+2
   8.35360E+2   8.05116E+2
   7.86423E+2   8.34609E+2
   7.34116E+2   8.60030E+2
   7.48373E+2   8.49383E+2
   6.80304E+2   8.84363E+2
   7.01353E+2   9.62468E+2
   6.31450E+2   9.80749E+2
   6.01373E+2   9.11446E+2
   5.27965E+2   8.77925E+2
   5.95500E+2   9.54810E+2
   5.43250E+2   9.84793E+2
   5.27292E+2   9.09887E+2
   4.96194E+2   9.04869E+2
   4.51042E+2   9.31296E+2
   3.89873E+2   9.43537E+2
   4.93028E+2   9.47140E+2
   3.98692E+2   9.39886E+2
   3.31025E+2   9.35153E+2
   3.33879E+2   9.75393E+2
   2.96414E+2   9.62113E+2
   3.45028E+2   9.92316E+2
   3.13554E+2   1.06590E+3
   3.12708E+2   9.88523E+2
   3.13063E+2   1.02776E+3
   3.39838E+2   1.04942E+3
   2.40368E+2   1.02850E+3
   1.57940E+2   1.01828E+3
   2.06576E+2   1.05845E+3
   2.22204E+2   1.03705E+3
   2.41440E+2   1.03267E+3
   1.78184E+2   1.01753E+3
   1.49967E+2   1.09572E+3
   1.00239E+2   1.02654E+3
   1.34616E+2   9.81806E+2
   1.70244E+2   1.01742E+3
   6.77971E+1   1.13783E+3
  -2.15831E+1   1.03104E+3
   8.22490E+1   1.08453E+3
   4.76919E+1   1.07452E+3
   1.59184E+2   1.06465E+3
   8.95334E+0   1.05569E+3
   6.04324E+1   1.03035E+3
  -1.74892E+1   1.08375E+3
   2.62860E+1   1.09518E+3
  -4.42172E+1   1.02663E+3
  -4.46872E+1   1.08438E+3
  -4.42795E+1   1.01923E+3
  -8.53378E+1   1.04364E+3
  -9.14377E+1   1.01639E+3
  -6.05555E+1   1.03169E+3
  -1.31836E+2   1.04573E+3
  -5.06165E+1   1.04528E+3
  -7.74198E+1   1.04454E+3
  -8.35275E+1   1.07617E+3
  -1.26070E+2   1.06582E+3
  -5.70071E+1   1.07182E+3
  -1.28752E+2   1.00904E+3
  -1.34645E+2   1.04635E+3
  -1.46465E+2   1.02926E+3
  -1.34079E+2   1.08034E+3
  -1.42781E+2   1.02183E+3
  -1.58423E+2   1.03485E+3
  -1.36935E+2   1.01726E+3
  -1.86566E+2   9.97998E+2
  -2.09727E+2   1.05388E+3
  -1.66124E+2   1.05443E+3
  -2.13517E+2   9.61634E+2
