 
 $NMID
 ID=''
 FMTDAT='(2E13.5)'
 TRAMP=   1.00000E+0
 VOLUME=   1.00000E+0
 $END
   5.52705E+2  -4.55010E+2
  -3.25895E+2   2.03265E+3
   9.53113E+2  -7.99057E+3
  -4.68515E+3   1.04893E+3
  -4.05828E+3   3.69514E+3
   2.76299E+3   6.54606E+3
   1.59263E+3   3.83187E+3
   8.19481E+2  -5.00437E+2
  -8.74156E+2  -2.94422E+3
   3.10827E+2  -5.22921E+3
   2.55228E+3  -6.82556E+2
   2.42854E+3   3.11659E+3
  -3.88235E+3   6.97479E+3
  -6.80978E+3   3.55517E+3
  -3.04566E+3  -1.09667E+2
   2.38345E+3   1.43553E+3
   4.20323E+3   3.85073E+3
   6.14902E+3   2.59997E+3
   2.70852E+3   1.77762E+3
  -5.45978E+2  -2.18854E+3
  -8.51237E+2  -3.09745E+3
  -1.31016E+3   1.47384E+3
  -3.70266E+3   2.17458E+3
  -4.37192E+3  -7.28595E+2
   4.29557E+3   9.78064E+2
   2.16728E+3   5.21628E+3
  -1.14211E+3   4.22836E+3
  -2.87447E+3  -5.27505E+3
   2.87799E+3  -8.26948E+3
   7.09328E+3  -3.93570E+3
   3.73857E+3   3.94560E+3
  -4.97101E+3   2.48716E+3
  -5.46098E+3  -4.35030E+3
  -5.63137E+1  -6.75216E+3
  -1.47651E+3  -1.72401E+3
  -2.08636E+3  -7.56839E+3
   1.37317E+3  -7.07777E+3
   4.86942E+3  -2.54633E+2
   3.77759E+2  -1.02452E+3
  -8.75208E+2  -6.74426E+2
  -3.21294E+3   2.32707E+3
  -6.20150E+3  -4.38314E+3
  -4.59116E+2  -8.63916E+3
   4.35655E+3  -7.18236E+3
   1.97674E+3  -2.93030E+3
  -1.24518E+3  -1.20159E+3
  -1.03796E+3  -1.46698E+3
  -2.33737E+3   3.35830E+3
  -3.27633E+3   5.14371E+3
  -1.38096E+3   1.92275E+3
  -5.12274E+2   1.02219E+3
   3.21437E+3  -4.06519E+3
   5.79752E+3  -2.26173E+3
   4.17558E+3   3.26160E+3
  -3.19321E+3   3.18435E+3
  -2.52739E+3   2.01383E+3
  -2.79270E+3   2.74652E+3
  -5.88189E+3   2.13670E+2
  -4.77655E+3  -6.64031E+3
   2.30827E+3  -4.18459E+3
   2.73705E+3  -1.23044E+3
   2.43701E+3   3.27288E+3
   1.85977E+3   5.08046E+3
   1.09121E+3   2.95879E+3
   2.24493E+3   4.03982E+2
   6.44702E+3   3.99439E+2
   1.44855E+3   4.41994E+3
  -3.68026E+3  -9.24992E+2
  -1.01688E+3  -2.85212E+3
   1.03909E+3  -8.60262E+2
   1.64907E+3   1.93749E+3
  -4.48222E+2  -9.64159E+2
   9.78920E+2  -2.28517E+3
   3.30045E+3  -4.96876E+3
   6.33456E+1  -2.13005E+3
   7.73643E+2   1.52551E+3
  -2.34287E+3   2.85154E+1
   1.07545E+3   6.28347E+2
   3.03735E+3   1.67863E+3
   3.67737E+3   4.90580E+3
  -1.04839E+3   2.40046E+3
  -4.71888E+2  -2.90585E+3
   1.72813E+3   3.25675E+2
  -5.11527E+2   1.83738E+3
  -3.64157E+3   3.38039E+3
  -4.04587E+3  -8.37701E+1
  -1.81659E+3  -9.95500E+2
   3.86979E+3  -4.71868E+3
   4.58631E+3   1.34320E+3
   1.70197E+3   1.70163E+3
  -1.36543E+2   1.33442E+3
   1.26300E+3   1.04253E+3
   3.70220E+3   2.65618E+3
  -1.63417E+3   3.75726E+3
  -2.81132E+3  -5.77025E+2
   1.40721E+3  -3.33201E+3
   3.63945E+3  -4.09926E+2
   2.10793E+3   4.75157E+3
  -1.05047E+3   1.90743E+3
  -1.60816E+2  -1.66726E+3
   2.16922E+3  -5.08388E+3
   6.06957E+3  -5.22016E+2
   4.71525E+3   3.93260E+3
  -2.30820E+3   3.72852E+3
  -7.97241E+2   2.42519E+3
  -1.07594E+3   1.83273E+3
   4.77967E+2   2.04889E+3
  -2.06553E+3   1.72589E+3
  -2.18074E+3  -1.45670E+3
   5.29021E+1  -4.02279E+3
   6.43434E+3   7.21600E+1
   3.66151E+3   4.54967E+3
   1.94873E+3   2.23694E+3
   7.34896E+2   2.34235E+3
  -1.64750E+3   1.05359E+3
  -1.34776E+3  -1.04413E+3
  -1.05757E+3  -2.08208E+3
   2.44451E+2  -1.66802E+3
   1.07732E+3  -2.02814E+2
   5.87570E+2   6.29785E+2
  -6.57006E+2   1.79236E+3
  -3.24145E+3  -5.70404E+1
  -9.49021E+2  -1.91592E+3
   1.66875E+3  -1.41660E+3
   2.18489E+3   1.50844E+3
  -1.12266E+3   9.28191E+2
   1.71800E+3  -3.46354E+3
  -2.16775E+2  -1.09061E+3
  -1.19348E+3  -1.02895E+3
  -3.20268E+3  -1.37982E+3
  -2.51839E+2  -3.77329E+3
   4.28742E+2  -2.54216E+3
   2.42939E+3   4.01202E+2
   1.19899E+3   1.12439E+3
  -4.12523E+2   3.12485E+3
  -2.74213E+3  -1.48923E+3
  -9.60298E+2  -6.57470E+2
  -2.14644E+3  -6.03246E+2
   1.88501E+3  -4.51515E+2
  -6.32406E+2   1.71499E+2
   9.35657E+2  -1.95430E+3
   3.22910E+3  -2.55638E+3
   2.77663E+3   2.34152E+3
  -1.14348E+3   2.11207E+3
  -2.09497E+3   1.53978E+2
   5.12532E+2   4.47658E+2
   9.87361E+2   1.07900E+3
   3.13208E+2   1.51367E+3
   7.81319E+2   9.08003E+2
  -8.06159E+2  -1.00899E+3
  -3.25257E+3   1.52332E+3
  -3.51658E+3  -5.80324E+2
  -2.38598E+3  -2.25477E+3
   1.22145E+3  -1.85538E+3
   2.62136E+3  -1.25873E+2
   1.25512E+3   2.80480E+2
  -2.35634E+2  -9.91730E+2
  -8.39709E+2   6.77768E+2
  -4.91733E+2   1.99837E+2
  -2.11592E+3   8.00365E+2
  -1.33124E+3   6.78777E+2
  -8.62233E+2   2.16232E+3
  -1.33568E+3   7.27699E+2
  -7.69007E+2  -1.22310E+3
   4.57718E+2   1.90489E+3
  -1.38874E+3   4.31229E+2
  -3.96082E+3  -2.34543E+3
   1.06184E+3  -3.37572E+3
   3.51397E+3   6.52524E+2
  -9.49416E+2   4.09121E+3
  -1.67212E+3   1.10482E+3
  -2.18128E+3  -1.95936E+2
  -2.78648E+1  -4.48422E+2
  -5.97714E+0  -1.26734E+3
  -3.02618E+2  -9.68152E+1
  -1.06068E+3  -3.54569E+2
   1.14373E+3  -8.43413E+2
   3.07906E+3  -7.98969E+2
  -1.17503E+3   7.48217E+2
  -3.42548E+3   1.45509E+3
  -1.87502E+3  -1.21860E+2
  -6.02926E+2  -1.40035E+3
  -4.37252E+2   8.48982E+2
   9.86538E+2   4.02086E+2
   1.33694E+3   7.93992E+2
  -9.44496E+2   2.08894E+3
   1.12160E+3   7.51283E+2
  -1.84322E+3   3.77779E+2
  -2.60713E+3  -2.09933E+3
  -2.64853E+3  -1.64337E+3
   4.11987E+2  -3.17839E+2
   5.30327E+2   8.60925E+2
  -1.11723E+3   1.13136E+3
   5.40392E+2  -1.60353E+3
  -2.68328E+1  -3.26398E+2
  -1.54155E+2   9.84831E+1
   6.54743E+2   1.02687E+3
  -1.00251E+3   1.87455E+3
  -1.26505E+3  -9.31579E+2
   1.92287E+3   5.82192E+2
  -1.06164E+2   1.25375E+3
  -3.14801E+3   1.84089E+3
  -2.85367E+3  -3.01942E+3
   4.53674E+2  -3.46747E+3
   1.94982E+3  -1.53754E+3
   2.26666E+1  -4.11331E+2
  -7.74159E+2   9.21128E+0
   1.71339E+2  -4.00881E+2
   1.67494E+3  -5.52645E+2
  -1.71946E+3   8.24780E+2
  -2.24096E+3   6.86781E+2
  -1.44601E+3  -1.27890E+3
   1.32637E+3  -8.68771E+2
   4.19677E+3   6.91810E+2
   1.00156E+3   3.88576E+3
  -1.62862E+3   2.21576E+3
  -2.39412E+3  -1.71310E+2
  -6.60534E+2  -1.28882E+3
  -7.32275E+2   1.97064E+3
   7.05754E+2  -1.78940E+3
   1.07698E+3  -9.74266E+2
   5.10322E+2  -2.13396E+2
   5.50220E+2  -7.70153E+2
   1.37092E+3  -7.60842E+2
  -2.64204E+3  -8.19685E+2
   5.02797E+2  -1.17206E+3
   2.12373E+3   5.73395E+2
   1.02144E+3  -1.94733E+3
  -3.68550E+1   2.33161E+3
  -2.60474E+3   2.07131E+3
   6.19234E+2  -1.99786E+3
  -5.87618E+1  -4.67739E+2
  -1.22909E+3  -4.61686E+2
  -1.74463E+3  -1.58996E+3
   1.42574E+3  -1.17480E+3
   2.35927E+3   1.25917E+3
   1.20583E+3   2.64563E+3
  -1.50104E+3   2.41578E+3
  -1.51448E+3  -8.11062E+2
  -5.86686E+2  -2.73452E+3
  -4.93896E+1  -5.80542E+2
   5.55936E+2   1.89067E+3
  -1.02035E+3   1.62375E+3
  -7.87684E+1  -9.47089E+2
  -1.10272E+3  -7.93271E+2
   9.22363E+2   1.38336E+2
  -1.30900E+3   2.00284E+3
  -1.68707E+3  -1.63734E+3
   6.36638E+2  -1.33602E+3
   3.49953E+2   7.14434E+1
  -8.20933E+2   2.81491E+3
  -1.98641E+2   2.29905E+3
  -9.33386E+2  -6.58539E+2
  -1.26376E+3  -2.28890E+3
  -5.29132E+2  -1.57359E+3
  -1.23304E+3   2.89798E+2
   4.90943E+2  -9.32482E+2
   2.00137E+3   8.14810E+2
   1.65615E+3   1.35709E+3
   2.15826E+2   3.06125E+3
  -6.49606E+2   9.27901E+2
  -2.52922E+3  -7.17278E+2
  -6.40232E+2  -1.84468E+3
  -4.22206E+2   6.46781E+2
  -1.10207E+3  -9.14357E+1
   1.01395E+3   6.01807E+2
  -9.43299E+2   4.92620E+2
  -3.27801E+2  -1.66230E+3
  -2.45571E+3  -2.14388E+3
  -1.55547E+2   3.53037E+2
   5.77628E+2  -2.20949E+3
   1.73067E+3  -3.15497E+3
   1.08845E+3  -5.75084E+2
   4.12568E+2   1.79195E+3
  -1.57075E+3  -2.45140E+2
  -5.06110E+2  -4.74752E+2
  -4.63199E+2  -1.98741E+2
  -2.45845E+3   4.10157E+2
  -8.67055E+2  -3.36225E+2
   3.18834E+2  -2.18976E+2
   5.66492E+1  -4.05516E+2
   1.36085E+3   1.77898E+3
  -2.14876E+3   1.12549E+3
  -9.74681E+2   4.07972E+2
   1.23759E+2  -2.23175E+3
   3.55319E+2   1.82531E+3
  -1.32781E+3   2.68384E+2
  -6.76567E+2   7.77282E+0
  -9.12668E+2  -3.25674E+3
  -2.11127E+2   6.52902E+2
  -4.37891E+2  -1.14127E+3
   3.16138E+2  -4.00404E+2
  -3.46605E+2   1.47102E+3
   1.17496E+3   6.15362E+2
  -5.31174E+2   1.21860E+3
  -4.03444E+2   1.51896E+3
  -1.21480E+3   1.26564E+3
   3.04366E+2  -8.87266E+2
   1.70357E+3  -2.97964E+2
  -9.77986E+2  -3.13527E+2
  -2.18225E+3   8.57480E+2
  -1.13470E+3  -1.90616E+0
  -7.75038E+2   1.63522E+3
  -6.39142E+2   9.50439E+2
   1.49970E+3   2.03866E+3
  -2.52262E+2  -1.25392E+3
   1.21998E+3  -1.08997E+3
   2.26424E+3   2.57949E+2
   1.47883E+3   7.44525E+1
   6.10559E+2  -4.94226E+1
   2.69343E+2   1.78811E+3
   5.15827E+2  -2.95869E+2
   1.12819E+3   4.61999E+2
  -9.30858E+2  -4.22417E+2
   4.37988E+2  -1.42099E+3
   1.15055E+3  -3.14138E+2
  -1.71433E+1   4.91860E+2
  -3.29794E+3   2.66704E+3
  -2.17881E+3   8.29606E+2
  -1.30031E+3  -1.14125E+3
   6.71856E+1  -1.04546E+3
   3.73498E+2  -1.34927E+3
   5.63954E+2   7.65520E+2
   1.39250E+2   3.76926E+2
  -3.74843E+1   1.59162E+3
  -8.82455E+2   1.04703E+3
   1.97264E+3  -5.86241E+1
   9.35618E+2  -6.32953E+2
   2.34651E+3  -1.79323E+3
   1.04756E+3  -6.26176E+2
   3.54233E+2   2.69280E+2
  -1.23159E+3  -2.08342E+2
  -1.42129E+3  -1.40604E+3
  -6.26834E+1   2.42728E+3
  -1.28360E+3   5.29953E+2
  -7.40927E+2   6.31505E+2
  -3.78023E+2   9.80553E+2
   3.02769E+1   2.31913E+2
   7.87172E+2  -1.01751E+3
   2.68924E+1   8.86430E+2
  -4.23659E+2   1.03473E+3
  -1.34133E+3   1.48544E+3
  -2.29005E+3  -8.81204E+2
   1.88208E+3  -1.10550E+3
   2.15310E+3   1.69864E+3
  -5.60439E+1   2.84835E+2
   5.22229E+2   1.00502E+2
   3.48305E+2  -6.57569E+2
   1.59505E+3   1.32976E+2
  -3.76750E+2   7.43368E+1
   6.82909E+2  -3.52575E+1
   1.97890E+2  -3.80391E+3
   1.35551E+3  -4.94041E+2
   1.15374E+3  -1.70882E+3
   4.72769E+2   1.16120E+2
  -8.51936E+2  -3.25751E+2
   1.09317E+3  -1.33150E+3
   9.79176E+2  -8.83666E+2
   1.58288E+3  -8.26801E+2
   1.22517E+3   3.13143E+2
   5.15400E+2   1.28794E+3
  -2.89040E+2   7.40492E+2
  -1.39427E+3  -2.94355E+2
  -1.01321E+3   7.51451E+2
   7.14855E+2   1.54331E+3
   1.05597E+3  -5.45638E+2
   2.00761E+3  -8.38236E+2
