 
 $NMID
 ID=''
 FMTDAT='(2E13.5)'
 TRAMP=   1.00000E+0
 VOLUME=   1.00000E+0
 $END
  -1.15771E+4  -4.95963E+3
  -2.54901E+4  -2.06941E+4
  -2.93243E+4  -1.58934E+4
  -2.75018E+4  -1.43607E+4
  -2.84594E+4  -1.54910E+4
  -2.92772E+4  -1.40769E+4
  -2.81536E+4  -1.35924E+4
  -2.81594E+4  -1.40740E+4
  -2.86863E+4  -1.32536E+4
  -2.78454E+4  -1.29490E+4
  -2.77465E+4  -1.32367E+4
  -2.79159E+4  -1.24657E+4
  -2.74699E+4  -1.20362E+4
  -2.74242E+4  -1.23208E+4
  -2.74331E+4  -1.17905E+4
  -2.70881E+4  -1.14593E+4
  -2.70571E+4  -1.14513E+4
  -2.71549E+4  -1.09932E+4
  -2.68646E+4  -1.06031E+4
  -2.68520E+4  -1.06794E+4
  -2.68698E+4  -1.02034E+4
  -2.67064E+4  -9.75452E+3
  -2.68067E+4  -9.75069E+3
  -2.67805E+4  -9.47438E+3
  -2.64840E+4  -9.19170E+3
  -2.64999E+4  -9.00316E+3
  -2.65072E+4  -8.86756E+3
  -2.62719E+4  -8.63569E+3
  -2.61313E+4  -8.58301E+3
  -2.61489E+4  -8.22339E+3
  -2.59260E+4  -7.98273E+3
  -2.59436E+4  -7.79411E+3
  -2.58668E+4  -7.64632E+3
  -2.56739E+4  -7.39921E+3
  -2.55608E+4  -7.17401E+3
  -2.54698E+4  -6.95897E+3
  -2.53200E+4  -6.67466E+3
  -2.51761E+4  -6.43630E+3
  -2.51204E+4  -6.12211E+3
  -2.50151E+4  -5.74472E+3
  -2.49229E+4  -5.57075E+3
  -2.48681E+4  -5.44443E+3
  -2.46495E+4  -5.18154E+3
  -2.44929E+4  -4.91600E+3
  -2.45252E+4  -4.61568E+3
  -2.43489E+4  -4.47618E+3
  -2.42863E+4  -4.19369E+3
  -2.41877E+4  -3.99922E+3
  -2.41785E+4  -3.70935E+3
  -2.40383E+4  -3.61264E+3
  -2.38792E+4  -3.34084E+3
  -2.38057E+4  -3.15017E+3
  -2.35757E+4  -2.91017E+3
  -2.35667E+4  -2.60998E+3
  -2.34728E+4  -2.46730E+3
  -2.33254E+4  -2.24647E+3
  -2.32689E+4  -2.07301E+3
  -2.30344E+4  -1.89439E+3
  -2.28974E+4  -1.70176E+3
  -2.27279E+4  -1.51726E+3
  -2.25906E+4  -1.34754E+3
  -2.24380E+4  -1.08265E+3
  -2.23216E+4  -9.12888E+2
  -2.21987E+4  -7.87213E+2
  -2.20590E+4  -6.45170E+2
  -2.19096E+4  -3.87511E+2
  -2.17686E+4  -2.26918E+2
  -2.16294E+4  -6.60112E+1
  -2.14356E+4   4.89544E+1
  -2.13240E+4   2.30916E+2
  -2.12176E+4   3.33317E+2
  -2.10390E+4   4.91477E+2
  -2.09093E+4   6.05810E+2
  -2.07566E+4   7.50487E+2
  -2.05125E+4   8.42597E+2
  -2.03390E+4   1.07293E+3
  -2.02386E+4   1.22988E+3
  -2.01666E+4   1.34790E+3
  -1.99150E+4   1.53186E+3
  -1.97716E+4   1.70067E+3
  -1.96691E+4   1.84028E+3
  -1.94440E+4   1.98409E+3
  -1.92350E+4   2.12497E+3
  -1.90800E+4   2.22257E+3
  -1.89087E+4   2.37723E+3
  -1.87678E+4   2.46135E+3
  -1.85587E+4   2.53570E+3
  -1.84378E+4   2.74242E+3
  -1.82827E+4   2.87250E+3
  -1.81133E+4   3.07040E+3
  -1.79722E+4   3.06872E+3
  -1.77812E+4   3.27924E+3
  -1.76018E+4   3.39183E+3
  -1.74557E+4   3.57285E+3
  -1.73069E+4   3.65409E+3
  -1.71259E+4   3.76820E+3
  -1.69623E+4   3.92785E+3
  -1.68402E+4   4.11541E+3
  -1.67366E+4   4.22151E+3
  -1.66018E+4   4.32702E+3
  -1.63796E+4   4.36736E+3
  -1.62293E+4   4.58087E+3
  -1.60936E+4   4.72530E+3
  -1.60058E+4   4.76525E+3
  -1.59008E+4   4.85619E+3
  -1.57253E+4   4.94895E+3
  -1.55207E+4   5.05758E+3
  -1.54951E+4   5.09716E+3
  -1.53592E+4   5.17516E+3
  -1.51025E+4   5.26658E+3
  -1.50204E+4   5.43399E+3
  -1.48077E+4   5.46726E+3
  -1.46917E+4   5.54784E+3
  -1.46452E+4   5.67119E+3
  -1.43980E+4   5.65857E+3
  -1.43717E+4   5.91297E+3
  -1.42009E+4   5.87011E+3
  -1.39672E+4   5.98155E+3
  -1.39002E+4   6.07341E+3
  -1.37748E+4   6.07385E+3
  -1.36043E+4   6.08763E+3
  -1.34695E+4   6.14864E+3
  -1.33638E+4   6.28805E+3
  -1.32743E+4   6.26716E+3
  -1.31335E+4   6.34512E+3
  -1.30108E+4   6.38317E+3
  -1.28275E+4   6.42617E+3
  -1.27376E+4   6.52287E+3
  -1.26577E+4   6.50510E+3
  -1.24942E+4   6.51186E+3
  -1.23638E+4   6.63431E+3
  -1.22075E+4   6.63019E+3
  -1.20606E+4   6.74358E+3
  -1.18959E+4   6.72116E+3
  -1.18479E+4   6.77307E+3
  -1.16893E+4   6.80810E+3
  -1.14793E+4   6.81478E+3
  -1.14268E+4   6.83917E+3
  -1.12850E+4   6.86973E+3
  -1.11749E+4   6.90033E+3
  -1.10659E+4   6.90127E+3
  -1.08663E+4   6.90794E+3
  -1.07001E+4   7.01458E+3
  -1.06108E+4   7.05931E+3
  -1.04218E+4   7.01271E+3
  -1.03464E+4   7.04692E+3
  -1.01782E+4   7.09431E+3
  -1.00756E+4   7.06815E+3
  -9.94088E+3   7.11687E+3
  -9.87192E+3   7.09690E+3
  -9.70386E+3   7.07604E+3
  -9.62326E+3   7.15389E+3
  -9.46593E+3   7.13023E+3
  -9.37425E+3   7.16663E+3
  -9.21161E+3   7.15882E+3
  -9.08565E+3   7.18734E+3
  -9.00990E+3   7.15379E+3
  -8.84714E+3   7.14328E+3
  -8.75226E+3   7.14129E+3
  -8.70868E+3   7.08281E+3
  -8.49488E+3   7.12063E+3
  -8.35801E+3   7.15184E+3
  -8.22929E+3   7.07698E+3
  -8.17162E+3   7.07523E+3
  -8.06569E+3   7.11956E+3
  -7.92276E+3   7.01301E+3
  -7.79117E+3   7.01088E+3
  -7.66852E+3   6.95198E+3
  -7.57778E+3   7.00319E+3
  -7.46251E+3   7.02540E+3
  -7.39577E+3   6.99676E+3
  -7.29184E+3   6.96393E+3
  -7.06755E+3   6.90874E+3
  -7.08555E+3   6.93742E+3
  -6.90124E+3   6.89821E+3
  -6.83052E+3   6.82629E+3
  -6.67034E+3   6.85963E+3
  -6.58790E+3   6.82726E+3
  -6.54985E+3   6.84802E+3
  -6.41131E+3   6.80680E+3
  -6.31117E+3   6.71793E+3
  -6.25623E+3   6.73948E+3
  -6.12153E+3   6.72732E+3
  -6.06580E+3   6.69883E+3
  -5.87848E+3   6.63568E+3
  -5.82222E+3   6.58503E+3
  -5.79718E+3   6.59374E+3
  -5.67214E+3   6.58563E+3
  -5.56637E+3   6.51713E+3
  -5.41350E+3   6.48886E+3
  -5.34393E+3   6.38870E+3
  -5.33153E+3   6.42126E+3
  -5.19748E+3   6.42363E+3
  -5.12831E+3   6.39044E+3
  -5.02783E+3   6.36067E+3
  -4.99031E+3   6.28912E+3
  -4.87686E+3   6.27448E+3
  -4.78927E+3   6.19658E+3
  -4.72048E+3   6.24547E+3
  -4.64918E+3   6.14172E+3
  -4.58884E+3   6.16276E+3
  -4.51160E+3   6.10472E+3
  -4.41104E+3   6.07847E+3
  -4.33466E+3   5.99904E+3
  -4.26332E+3   6.03714E+3
  -4.21844E+3   5.97476E+3
  -4.03752E+3   5.92179E+3
  -4.06752E+3   5.89207E+3
  -3.98058E+3   5.86299E+3
  -3.91196E+3   5.86347E+3
  -3.78976E+3   5.85427E+3
  -3.73371E+3   5.71626E+3
  -3.66851E+3   5.68950E+3
  -3.59461E+3   5.66462E+3
  -3.54799E+3   5.73116E+3
  -3.45076E+3   5.64686E+3
  -3.42132E+3   5.50620E+3
  -3.30774E+3   5.55018E+3
  -3.27504E+3   5.57112E+3
  -3.18655E+3   5.49021E+3
  -3.12900E+3   5.41283E+3
  -3.06080E+3   5.40979E+3
  -3.03042E+3   5.34800E+3
  -2.95829E+3   5.32163E+3
  -2.90377E+3   5.23486E+3
  -2.84742E+3   5.26113E+3
  -2.75987E+3   5.25225E+3
  -2.76033E+3   5.15916E+3
  -2.75388E+3   5.15857E+3
  -2.66441E+3   5.08537E+3
  -2.55588E+3   5.02673E+3
  -2.53824E+3   5.05078E+3
  -2.41989E+3   4.97422E+3
  -2.41447E+3   4.95938E+3
  -2.34273E+3   4.91294E+3
  -2.29247E+3   4.88047E+3
  -2.22440E+3   4.84935E+3
  -2.21317E+3   4.84292E+3
  -2.17817E+3   4.76357E+3
  -2.03897E+3   4.75086E+3
  -2.05322E+3   4.69930E+3
  -2.04359E+3   4.70241E+3
  -1.95968E+3   4.65668E+3
  -1.88974E+3   4.63893E+3
  -1.81843E+3   4.60350E+3
  -1.76211E+3   4.56584E+3
  -1.80530E+3   4.47115E+3
  -1.71438E+3   4.46175E+3
  -1.69562E+3   4.43286E+3
  -1.58955E+3   4.42708E+3
  -1.56671E+3   4.32277E+3
  -1.50962E+3   4.39000E+3
  -1.42510E+3   4.35998E+3
  -1.42348E+3   4.30151E+3
  -1.33149E+3   4.24546E+3
  -1.39990E+3   4.17683E+3
  -1.30747E+3   4.16418E+3
  -1.24648E+3   4.15979E+3
  -1.20881E+3   4.15843E+3
  -1.18084E+3   4.11850E+3
  -1.17644E+3   4.07097E+3
  -1.14581E+3   4.00879E+3
  -1.02764E+3   4.02942E+3
  -1.03188E+3   3.95649E+3
  -9.79484E+2   3.94414E+3
  -9.87667E+2   3.91685E+3
  -9.23151E+2   3.84083E+3
  -9.11495E+2   3.81842E+3
  -8.48166E+2   3.86328E+3
  -8.34517E+2   3.79024E+3
  -8.27357E+2   3.79948E+3
  -7.34232E+2   3.72906E+3
  -7.11902E+2   3.68712E+3
  -7.42297E+2   3.62804E+3
  -7.26526E+2   3.66410E+3
  -6.89385E+2   3.62993E+3
  -6.74268E+2   3.62580E+3
  -6.52066E+2   3.58179E+3
  -5.94127E+2   3.55479E+3
  -5.13412E+2   3.46133E+3
  -4.87058E+2   3.48301E+3
  -4.49810E+2   3.51234E+3
  -3.90207E+2   3.41789E+3
  -4.45479E+2   3.44483E+3
  -4.10794E+2   3.33087E+3
  -4.23354E+2   3.31730E+3
  -2.92243E+2   3.32073E+3
  -2.78115E+2   3.27085E+3
  -2.63144E+2   3.22683E+3
  -2.50386E+2   3.14640E+3
  -2.17502E+2   3.12598E+3
  -2.00323E+2   3.11689E+3
  -2.14042E+2   3.12208E+3
  -1.39331E+2   3.10323E+3
  -1.71263E+2   3.06449E+3
  -1.70296E+2   3.02068E+3
  -9.35790E+1   2.95440E+3
  -6.81062E+1   2.99533E+3
  -6.78742E+1   2.99091E+3
  -3.07854E+1   2.89166E+3
   2.18273E+0   2.87229E+3
   2.80996E+1   2.81726E+3
  -1.13181E+1   2.85742E+3
   2.50436E+1   2.81337E+3
  -5.62373E+0   2.81759E+3
   6.33717E+1   2.70027E+3
   7.78698E+1   2.71669E+3
   5.77649E+1   2.61193E+3
   7.68810E+1   2.63091E+3
   6.12566E+1   2.65625E+3
   1.64416E+2   2.69632E+3
   1.43146E+2   2.61575E+3
   1.34068E+2   2.59931E+3
   1.63886E+2   2.50437E+3
   1.44291E+2   2.45052E+3
   1.37202E+2   2.49775E+3
   1.76375E+2   2.47639E+3
   1.54330E+2   2.50974E+3
   2.22858E+2   2.43118E+3
   1.31296E+2   2.37427E+3
   1.96905E+2   2.38023E+3
   1.69109E+2   2.34189E+3
   2.43412E+2   2.30275E+3
   1.54855E+2   2.30588E+3
   2.92989E+2   2.27892E+3
   2.13524E+2   2.28759E+3
   2.70823E+2   2.20616E+3
   2.85534E+2   2.15841E+3
   3.31069E+2   2.14215E+3
   2.54825E+2   2.11482E+3
   2.71095E+2   2.14601E+3
   3.31954E+2   2.12544E+3
   3.47464E+2   2.06398E+3
   2.54233E+2   2.05717E+3
   3.04733E+2   1.97764E+3
   2.34943E+2   1.95741E+3
   3.46647E+2   1.93945E+3
   2.30152E+2   1.93775E+3
   3.67669E+2   1.95047E+3
   3.05261E+2   1.90764E+3
   2.92048E+2   1.90960E+3
   3.20707E+2   1.85449E+3
   3.37501E+2   1.83811E+3
   3.67972E+2   1.81962E+3
   3.30438E+2   1.78577E+3
   2.95564E+2   1.78039E+3
   3.57583E+2   1.71332E+3
   3.83810E+2   1.74694E+3
   3.08095E+2   1.70911E+3
   3.09498E+2   1.67039E+3
   3.58346E+2   1.60293E+3
   3.45265E+2   1.63117E+3
   3.60487E+2   1.59412E+3
   3.57000E+2   1.60217E+3
   3.64799E+2   1.61007E+3
   3.37521E+2   1.54600E+3
   2.95632E+2   1.51193E+3
   3.48077E+2   1.56152E+3
   3.67622E+2   1.49509E+3
   3.35095E+2   1.45732E+3
   3.64434E+2   1.44882E+3
   3.36341E+2   1.44848E+3
   3.30511E+2   1.37307E+3
   3.01041E+2   1.32511E+3
   3.35089E+2   1.41058E+3
   3.49259E+2   1.41006E+3
   3.24235E+2   1.30626E+3
