 LCModel (Version 6.3-1N) Copyright: S.W. Provencher.          Ref.: Magn. Reson. Med. 30:672-679 (1993).                
 Slice_N1@15_18  02-Jun-2023 14:37:21
 27 lines in following concentration table = NCONC+1
    Conc.  %SD /Cr+PCr  Metabolite                                         
 2.11E-06  15% 3.0E-04 Mac                                                 
 2.07E-02  22%   2.982 Cr                                                  
 3.48E-02  13%   5.018 PCr                                                 
 7.65E-02   9%  11.021 Ins                                                 
 7.27E-02   7%  10.474 NAA                                                 
 4.16E-02  14%   5.987 Tau                                                 
 1.07E-02  24%   1.534 PCho                                                
 7.05E-03  35%   1.015 GPC                                                 
 5.72E-02  14%   8.232 Glu                                                 
 1.61E-02  35%   2.326 Gln                                                 
    0.000 999%   0.000 Ala                                                 
 3.73E-02  28%   5.371 Asc                                                 
 2.16E-02  31%   3.113 Asp                                                 
 1.50E-02  23%   2.160 GABA                                                
 1.03E-02  45%   1.485 Glc                                                 
 7.19E-03  42%   1.036 GSH                                                 
 2.33E-03 236%   0.336 Lac                                                 
 1.64E-02  22%   2.362 NAAG                                                
    0.000 999%   0.000 PE                                                  
 1.77E-02   9%   2.549 GPC+PCho                                            
 8.91E-02   7%  12.836 NAA+NAAG                                            
 7.33E-02  13%  10.558 Glu+Gln                                             
 5.55E-02   9%   8.000 Cr+PCr                                              
 8.91E-02   7%  12.836 NAA+NAAG                                            
 5.55E-02   9%   8.000 Cr+PCr                                              
 7.33E-02  13%  10.558 Glu+Gln                                             
   6 lines in following misc. output table
  FWHM = 0.017 ppm    S/N =   7                                            
  Data shift = 0.017 ppm                                                   
  Ph: -27 deg      -4.7 deg/ppm                                            
  alphaB,S = 8.9E-01,   5.3E+00                                            
   18 spline knots.   Ns = 5(1)                                            
  ( 3) 2 infls.   ( 2) 1 extrs.                                            
  654 points on ppm-axis = NY
      4.000000     3.994181     3.988363     3.982544     3.976726     3.970907     3.965088     3.959270     3.953451     3.947633
      3.941814     3.935995     3.930177     3.924358     3.918540     3.912721     3.906902     3.901084     3.895265     3.889446
      3.883628     3.877809     3.871991     3.866172     3.860353     3.854535     3.848716     3.842898     3.837079     3.831260
      3.825442     3.819623     3.813805     3.807986     3.802167     3.796349     3.790530     3.784712     3.778893     3.773074
      3.767256     3.761437     3.755619     3.749800     3.743981     3.738163     3.732344     3.726526     3.720707     3.714888
      3.709070     3.703251     3.697433     3.691614     3.685795     3.679977     3.674158     3.668339     3.662521     3.656702
      3.650884     3.645065     3.639246     3.633428     3.627609     3.621791     3.615972     3.610153     3.604335     3.598516
      3.592698     3.586879     3.581060     3.575242     3.569423     3.563605     3.557786     3.551967     3.546149     3.540330
      3.534512     3.528693     3.522874     3.517056     3.511237     3.505419     3.499600     3.493781     3.487963     3.482144
      3.476326     3.470507     3.464688     3.458870     3.453051     3.447232     3.441414     3.435595     3.429777     3.423958
      3.418139     3.412321     3.406502     3.400684     3.394865     3.389046     3.383228     3.377409     3.371591     3.365772
      3.359953     3.354135     3.348316     3.342498     3.336679     3.330860     3.325042     3.319223     3.313405     3.307586
      3.301767     3.295949     3.290130     3.284312     3.278493     3.272674     3.266856     3.261037     3.255219     3.249400
      3.243581     3.237763     3.231944     3.226125     3.220307     3.214488     3.208670     3.202851     3.197032     3.191214
      3.185395     3.179577     3.173758     3.167939     3.162121     3.156302     3.150484     3.144665     3.138846     3.133028
      3.127209     3.121391     3.115572     3.109753     3.103935     3.098116     3.092298     3.086479     3.080660     3.074842
      3.069023     3.063205     3.057386     3.051567     3.045749     3.039930     3.034111     3.028293     3.022474     3.016656
      3.010837     3.005018     2.999200     2.993381     2.987563     2.981744     2.975925     2.970107     2.964288     2.958470
      2.952651     2.946832     2.941014     2.935195     2.929377     2.923558     2.917739     2.911921     2.906102     2.900284
      2.894465     2.888646     2.882828     2.877009     2.871191     2.865372     2.859553     2.853735     2.847916     2.842098
      2.836279     2.830460     2.824642     2.818823     2.813004     2.807186     2.801367     2.795549     2.789730     2.783911
      2.778093     2.772274     2.766456     2.760637     2.754818     2.749000     2.743181     2.737363     2.731544     2.725725
      2.719907     2.714088     2.708270     2.702451     2.696632     2.690814     2.684995     2.679177     2.673358     2.667539
      2.661721     2.655902     2.650084     2.644265     2.638446     2.632628     2.626809     2.620991     2.615172     2.609353
      2.603535     2.597716     2.591897     2.586079     2.580260     2.574442     2.568623     2.562804     2.556986     2.551167
      2.545349     2.539530     2.533711     2.527893     2.522074     2.516256     2.510437     2.504618     2.498800     2.492981
      2.487163     2.481344     2.475525     2.469707     2.463888     2.458070     2.452251     2.446432     2.440614     2.434795
      2.428977     2.423158     2.417339     2.411521     2.405702     2.399884     2.394065     2.388246     2.382428     2.376609
      2.370790     2.364972     2.359153     2.353335     2.347516     2.341697     2.335879     2.330060     2.324242     2.318423
      2.312604     2.306786     2.300967     2.295149     2.289330     2.283511     2.277693     2.271874     2.266056     2.260237
      2.254418     2.248600     2.242781     2.236963     2.231144     2.225325     2.219507     2.213688     2.207870     2.202051
      2.196232     2.190414     2.184595     2.178777     2.172958     2.167139     2.161321     2.155502     2.149683     2.143865
      2.138046     2.132228     2.126409     2.120590     2.114772     2.108953     2.103135     2.097316     2.091497     2.085679
      2.079860     2.074042     2.068223     2.062404     2.056586     2.050767     2.044949     2.039130     2.033311     2.027493
      2.021674     2.015856     2.010037     2.004218     1.998400     1.992581     1.986763     1.980944     1.975126     1.969307
      1.963489     1.957670     1.951852     1.946033     1.940215     1.934397     1.928578     1.922760     1.916941     1.911123
      1.905304     1.899486     1.893667     1.887849     1.882030     1.876212     1.870393     1.864575     1.858756     1.852938
      1.847119     1.841301     1.835482     1.829664     1.823845     1.818027     1.812208     1.806390     1.800571     1.794753
      1.788934     1.783116     1.777297     1.771479     1.765660     1.759842     1.754023     1.748205     1.742386     1.736568
      1.730749     1.724931     1.719113     1.713294     1.707476     1.701657     1.695839     1.690020     1.684202     1.678383
      1.672565     1.666746     1.660928     1.655109     1.649291     1.643472     1.637654     1.631835     1.626017     1.620198
      1.614380     1.608561     1.602743     1.596924     1.591106     1.585287     1.579469     1.573650     1.567832     1.562013
      1.556195     1.550376     1.544558     1.538739     1.532921     1.527102     1.521284     1.515465     1.509647     1.503829
      1.498010     1.492192     1.486373     1.480555     1.474736     1.468918     1.463099     1.457281     1.451462     1.445644
      1.439825     1.434007     1.428188     1.422370     1.416551     1.410733     1.404914     1.399096     1.393277     1.387459
      1.381640     1.375822     1.370003     1.364185     1.358366     1.352548     1.346729     1.340911     1.335092     1.329274
      1.323455     1.317637     1.311818     1.306000     1.300182     1.294363     1.288545     1.282726     1.276908     1.271089
      1.265271     1.259452     1.253634     1.247815     1.241997     1.236178     1.230360     1.224541     1.218723     1.212904
      1.207086     1.201267     1.195449     1.189630     1.183812     1.177993     1.172175     1.166356     1.160538     1.154719
      1.148901     1.143082     1.137264     1.131445     1.125627     1.119808     1.113990     1.108171     1.102353     1.096534
      1.090716     1.084898     1.079079     1.073261     1.067442     1.061624     1.055805     1.049987     1.044168     1.038350
      1.032531     1.026713     1.020894     1.015076     1.009257     1.003439     0.997620     0.991802     0.985983     0.980165
      0.974346     0.968528     0.962709     0.956891     0.951072     0.945254     0.939435     0.933617     0.927798     0.921980
      0.916161     0.910343     0.904524     0.898706     0.892887     0.887069     0.881251     0.875432     0.869614     0.863795
      0.857977     0.852158     0.846340     0.840521     0.834703     0.828884     0.823066     0.817247     0.811429     0.805610
      0.799792     0.793973     0.788155     0.782336     0.776518     0.770699     0.764881     0.759062     0.753244     0.747425
      0.741607     0.735788     0.729970     0.724151     0.718333     0.712514     0.706696     0.700877     0.695059     0.689240
      0.683422     0.677603     0.671785     0.665967     0.660148     0.654330     0.648511     0.642693     0.636874     0.631056
      0.625237     0.619419     0.613600     0.607782     0.601963     0.596145     0.590326     0.584508     0.578689     0.572871
      0.567052     0.561234     0.555415     0.549597     0.543778     0.537960     0.532141     0.526323     0.520504     0.514686
      0.508867     0.503049     0.497230     0.491412     0.485593     0.479775     0.473956     0.468138     0.462319     0.456501
      0.450682     0.444864     0.439045     0.433227     0.427408     0.421590     0.415771     0.409953     0.404134     0.398316
      0.392497     0.386679     0.380860     0.375042     0.369223     0.363405     0.357586     0.351767     0.345949     0.340130
      0.334312     0.328493     0.322675     0.316856     0.311038     0.305219     0.299401     0.293582     0.287764     0.281945
      0.276127     0.270308     0.264490     0.258671     0.252853     0.247034     0.241216     0.235397     0.229579     0.223760
      0.217942     0.212123     0.206305     0.200486
 NY phased data points follow
  -4.11926E-02  2.74655E-02 -1.79030E-01 -3.10863E-01 -4.04528E-01 -2.36830E-01 -1.82269E-01 -1.96654E-01  1.96974E-02 -1.07215E-01
   3.05353E-02  5.18573E-02  6.12262E-01  5.26481E-01  1.76414E-01  7.63075E-02  1.93568E-01  4.33134E-01  3.40366E-01  2.24896E-01
   1.96289E-01  3.33752E-01  1.44180E-02  2.58017E-01  5.41555E-02 -1.51941E-01  1.69250E-01 -1.69014E-01 -5.19457E-02  1.79882E-01
  -1.89786E-01 -1.72805E-01 -6.26563E-02 -3.15074E-01 -1.22103E-01 -4.68601E-02 -3.07613E-01 -4.78432E-01 -5.62994E-01 -4.50311E-01
  -1.83125E-01 -6.78635E-02  2.49537E-01  4.93100E-01  1.85421E-01  2.16291E-02  2.00206E-01  3.12923E-01  3.83962E-01  3.65396E-01
   6.17262E-03  1.35045E-01  1.48096E-01 -1.64803E-01  1.11882E-01  3.00166E-02 -1.85242E-01 -1.79745E-01 -3.49267E-01 -1.45695E-01
  -1.59803E-01 -3.83514E-01 -3.19364E-01  2.69999E-03 -1.82964E-02 -3.32262E-01 -3.88441E-02  1.03895E-01  2.85797E-01  3.99356E-01
   3.63800E-01  1.98064E-01  7.23848E-02 -2.23002E-02 -1.62579E-01  8.99130E-02 -1.66605E-01 -2.19798E-01 -3.61779E-01 -7.41545E-01
  -6.52477E-01 -2.18152E-01  9.38495E-02  1.95725E-01  4.85311E-01  4.91334E-01  5.38349E-01  7.57412E-01  5.67654E-01  7.33895E-02
   2.81342E-01  4.16918E-01  3.16131E-01  2.45174E-03 -1.99253E-01  1.79956E-01  1.34877E-01  1.01470E-01 -8.17924E-02  6.56672E-02
   1.30560E-01 -2.39973E-02 -1.22768E-01 -9.67620E-02  7.99972E-02  1.68812E-01  4.45982E-01  3.16934E-01  5.84072E-01  4.14736E-01
   2.45248E-01  2.49175E-01  2.17469E-01  3.23122E-01 -6.10984E-02  2.19135E-01  2.81421E-01  2.25701E-01  2.18789E-01  3.31538E-01
   3.97799E-01  2.21120E-01 -1.40527E-01 -2.49773E-01  9.88386E-02 -1.81019E-01 -3.18181E-01 -1.48739E-01 -1.07433E-01 -2.85081E-01
  -3.61813E-01 -9.55620E-01 -4.93346E-01 -2.20004E-01 -6.13946E-01 -6.21326E-01 -1.55314E+00 -1.07202E+00 -8.19776E-01 -3.91797E-01
   7.07547E-02 -1.85376E-01  8.55802E-03 -7.36645E-02  5.55009E-02 -8.75227E-02  4.44451E-02  7.44946E-02 -2.19382E-02  2.08523E-01
   2.31772E-01 -8.19364E-02  1.73248E-01  2.94944E-01  1.22619E-01  2.11238E-01  3.30936E-01  2.58457E-01  5.23963E-02  5.24641E-01
   4.58957E-01  1.38880E-01  6.96950E-02  6.89149E-01  7.15695E-01  6.64284E-01  1.23643E+00  5.08256E-01 -6.07883E-01 -1.15935E+00
  -8.09250E-01 -5.11191E-01 -3.60707E-01 -3.20469E-01 -3.76540E-01 -4.84995E-01 -6.09756E-01 -4.34685E-01 -1.80204E-01 -4.76694E-01
  -4.22140E-01 -3.10455E-01 -6.93030E-01 -3.03570E-01 -5.11252E-01 -4.24904E-01 -3.05702E-01 -5.95272E-01 -5.89027E-01 -4.65274E-01
  -3.13744E-01 -5.93519E-02 -1.71000E-01 -3.95234E-01 -7.19120E-02 -4.35286E-01 -5.91561E-02 -1.79059E-01 -3.50192E-01  2.19583E-01
   1.67183E-01  4.58620E-02  5.93902E-04  2.16349E-01  1.19116E-01  6.45277E-02  8.01574E-02  8.11854E-02 -1.12784E-02  1.46552E-01
   8.78471E-02 -8.98017E-02 -2.39126E-02 -1.22777E-01 -7.66685E-02  2.23468E-02 -7.18773E-02  1.38783E-01  2.34526E-01 -2.06524E-02
   1.87560E-01 -1.61454E-01 -1.07269E-01  7.87503E-02  1.67146E-01  1.59448E-01  3.30111E-01  6.05677E-01  2.69811E-01  4.12561E-01
   3.31794E-01  5.53637E-01  2.88993E-01  1.93074E-01  7.14713E-04 -3.01030E-01 -9.35299E-02 -1.66241E-01  4.31514E-02  1.51335E-02
   2.59156E-01 -1.23010E-01 -2.20016E-01 -1.90354E-01 -2.91734E-01  5.33683E-02 -1.48096E-01  1.41112E-01  1.85914E-01 -1.40424E-01
   1.35290E-01  7.49089E-02 -6.75366E-02  5.58750E-02 -2.05833E-02  2.07263E-02 -6.23008E-02  5.10872E-02 -4.67987E-02  2.98688E-01
   5.01380E-01  2.93816E-02 -4.07514E-02 -1.04901E-01  2.68391E-01  1.62686E-01  1.38134E-01  6.65315E-02  1.08837E-02  2.99290E-01
   2.64216E-01  1.88924E-01  1.13577E-01  3.39618E-01 -6.59274E-02 -2.24198E-01 -1.30739E-01 -1.86069E-01 -7.32037E-02  2.06932E-02
   4.24853E-02 -4.64362E-01 -3.99873E-01 -2.21379E-02 -3.47530E-02  1.54853E-01  3.37147E-01  3.78956E-01  3.80393E-01  3.69518E-01
   4.08802E-01  4.80140E-02 -1.56164E-01 -4.00391E-02  1.34868E-01  2.13272E-01  8.15842E-02  1.66316E-01  1.13134E-01  4.12496E-01
   3.76710E-01  2.07663E-01  5.03626E-01  1.87264E-01  2.64215E-01  3.78461E-01  2.66523E-01  4.64798E-01  2.24673E-01  2.14603E-01
   2.39299E-01  3.78066E-01  4.09906E-01 -1.26220E-01  8.71676E-02  1.69152E-01  1.65040E-01  3.90986E-02 -3.37706E-01 -2.46571E-02
  -2.18192E-04 -3.15117E-02 -6.33529E-02 -4.51966E-01 -3.07967E-01  1.22484E-01 -1.09702E-01  2.17405E-02  2.30081E-01  1.25961E-01
   1.55144E-01 -2.29830E-01 -7.22709E-02 -2.51910E-01 -5.28933E-01 -3.99366E-01 -7.34704E-01 -5.07935E-01 -1.22260E-01 -1.60418E-01
  -9.03948E-02 -1.06158E-01 -1.87143E+00 -2.89330E+00 -1.19976E+00 -3.01626E-01 -5.02460E-02  3.41320E-02  6.33216E-02  4.37127E-01
   2.65308E-01  2.30908E-01  4.18027E-03 -2.01123E-02  3.62442E-01  2.43586E-01 -1.69365E-02 -5.07207E-02  1.96549E-02  3.03428E-01
   2.56270E-01  5.91637E-03  1.12942E-01 -1.76461E-01 -2.76927E-02 -1.31011E-02 -3.39089E-01 -5.08460E-02  2.36008E-02 -1.95841E-02
  -9.83275E-02  1.77187E-01  2.70073E-01 -1.12034E-01 -2.37082E-03  2.55515E-01  1.85855E-01  7.60427E-02  1.59369E-01  1.60700E-01
   1.94944E-01  3.18931E-02 -1.16826E-01  1.27029E-01  9.32065E-02  9.87883E-02  1.74341E-01 -1.02842E-02  2.00678E-02  2.29814E-02
  -2.20492E-01  1.46913E-01  4.58687E-01  3.17711E-01  3.77987E-01  1.93732E-01  2.66227E-01  3.00577E-03  2.99426E-02  4.49182E-01
  -5.03254E-02 -1.97900E-01  2.63264E-02 -3.52918E-02 -1.72609E-01  5.69975E-02 -1.28262E-01 -1.06880E-01  1.85141E-01  8.18097E-02
  -4.02531E-02 -1.32518E-01  1.15948E-01 -2.28147E-01  1.14390E-05  1.74282E-01 -1.94658E-01  6.46946E-02  4.31065E-02 -9.03194E-02
   5.06544E-03 -1.28132E-01 -3.81884E-01 -8.61812E-02 -7.81062E-03 -2.14807E-01 -3.01519E-01 -8.19281E-02 -1.71387E-01 -5.64765E-02
   2.20016E-01 -3.14005E-01  3.06184E-02 -6.99026E-03 -2.74854E-01  8.79438E-03  4.70798E-02  1.43679E-01 -1.02407E-01 -1.82730E-01
  -2.49255E-01  1.01611E-01  1.67419E-01 -1.70575E-01  5.83082E-02  2.12858E-01  4.56773E-01  1.53021E-01  9.53781E-02  4.43459E-01
   3.14146E-01  1.69665E-01  8.01450E-02  8.21899E-03  1.15873E-01  4.48806E-02 -1.92970E-01  1.37437E-01 -9.49942E-02 -7.76541E-02
   1.15484E-01  8.53225E-02  3.50948E-01  1.50265E-01  3.07414E-03 -1.17883E-01 -2.76912E-01 -3.66243E-01  2.13050E-03 -2.64480E-01
  -3.00218E-01  1.03264E-01 -3.25207E-02 -1.37543E-01 -2.03123E-01 -8.82356E-02 -3.44818E-01 -1.23560E-01 -9.66804E-02 -1.06507E-01
  -1.48848E-01  4.61230E-02  1.96013E-01 -1.63013E-01  3.10196E-01  5.41465E-02 -1.35187E-01 -1.23749E-01 -1.85725E-01  1.29354E-01
   2.07030E-01  2.15978E-02 -1.31914E-01  7.43996E-02 -6.81959E-02 -2.80662E-02  1.16046E-01 -1.55105E-01  9.98603E-02  5.94593E-01
   5.04965E-01  3.11785E-01  1.27647E-01  9.85761E-02  3.50061E-02  4.30088E-02  2.23889E-01 -3.87178E-02 -1.62479E-02 -4.75456E-03
  -1.11064E-01 -1.32777E-02  3.70205E-02  3.57401E-01  3.24195E-01  2.54858E-01  5.62782E-02 -2.96199E-01 -1.64467E-01 -2.39102E-02
   5.32751E-02 -2.01149E-01 -8.72659E-02  4.74711E-02 -1.45983E-01 -4.21285E-01 -2.37668E-01 -2.98169E-01 -7.82444E-01 -3.05263E-01
  -3.84306E-01 -2.00374E-01 -2.57541E-01 -4.19919E-01 -3.74444E-02 -2.02627E-01 -1.97837E-01  1.21095E-03  4.35401E-02 -7.62865E-02
   1.75685E-01 -1.28197E-02  1.35163E-01  2.42016E-01 -6.44047E-02 -1.50781E-01 -1.24061E-01  1.20128E-01  2.24520E-01  1.98236E-01
  -8.79511E-02  7.17236E-02  2.10785E-01  2.90290E-01  1.66927E-02  3.72041E-02  3.32710E-01  1.71469E-01  2.39471E-01  2.47469E-01
   1.91544E-02 -1.98567E-01  2.38679E-01  1.22468E-01 -1.45607E-01  1.91741E-02 -1.60987E-01  5.07809E-03  9.61551E-02 -1.02040E-01
  -3.20948E-02 -1.14447E-01  9.97149E-02  2.19048E-01  1.42696E-01 -2.38582E-03 -2.30956E-01  3.16047E-01  6.63405E-02 -1.22524E-01
  -1.80437E-01 -6.32474E-02  2.86247E-01 -1.06723E-01  2.16906E-01  1.34129E-01 -1.29330E-01 -3.24464E-02 -1.54723E-01 -1.20436E-01
  -2.20384E-01 -1.99880E-01  6.68507E-02 -9.57104E-02 -6.57944E-02 -1.85325E-02 -1.09946E-01  8.84503E-02 -4.84394E-02  1.63998E-02
   4.01043E-02 -1.34047E-01 -6.74506E-02  2.39908E-01  1.28806E-01 -4.89139E-02  1.56424E-01  1.90321E-01  9.40246E-02 -2.15995E-02
  -3.87338E-02  6.33133E-02  1.69536E-01 -1.42426E-01 -3.86605E-02  6.26352E-02 -4.11611E-02  4.14023E-02 -1.62509E-01 -1.97025E-01
  -1.06898E-01 -1.38178E-01 -5.77616E-02  4.08634E-04 -2.52469E-01  1.46766E-02  2.17096E-04  6.64047E-02  2.56040E-01 -1.27698E-01
  -7.71215E-02 -1.00599E-01  1.01230E-01  2.47911E-01  7.12511E-02 -2.38546E-02 -4.53829E-04 -1.45195E-01  5.56171E-02  3.23964E-01
  -1.33233E-02  5.08574E-02 -8.50103E-02 -2.64444E-01 -1.08799E-01  1.39506E-02  3.25104E-02  3.72059E-02 -2.17575E-01  1.48378E-01
   3.69372E-01 -1.26372E-01  1.49828E-02 -9.40197E-02
 NY points of the fit to the data follow
   1.19565E-01  6.52315E-02  5.92619E-03 -3.84831E-02 -4.78119E-02 -3.51610E-02 -1.87384E-02 -1.49914E-02 -5.79801E-03  3.34773E-02
   5.90454E-02  2.00847E-01  5.68967E-01  6.18743E-01  2.90926E-01  1.83690E-01  3.33907E-01  3.78184E-01  2.59108E-01  1.50791E-01
   9.70807E-02  5.96550E-02  1.00752E-02 -4.39897E-02 -7.64258E-02 -9.97374E-02 -1.18882E-01 -1.24930E-01 -1.32897E-01 -1.47351E-01
  -1.51392E-01 -1.55365E-01 -1.73538E-01 -2.04377E-01 -2.41850E-01 -2.77201E-01 -3.12012E-01 -3.34762E-01 -3.50233E-01 -3.41760E-01
  -1.76536E-01  1.45859E-02  1.21486E-01  2.07129E-01  2.73228E-01  3.03814E-01  3.19310E-01  2.64746E-01  2.13817E-01  2.16701E-01
   1.53490E-01  8.27330E-02  5.38987E-02  5.96052E-03 -4.52399E-02 -1.02200E-01 -1.70810E-01 -2.04970E-01 -1.94259E-01 -2.01390E-01
  -2.26093E-01 -3.01187E-01 -3.93087E-01 -2.60606E-01 -2.10578E-01 -2.89525E-01  2.26125E-02  2.71853E-01  2.86184E-01  4.38575E-01
   4.86737E-01  3.68584E-01  2.55989E-01  1.56228E-01  7.69643E-02  2.62531E-03 -9.68674E-02 -1.84749E-01 -3.05871E-01 -6.34512E-01
  -7.45898E-01 -2.83082E-01  1.94447E-02  5.25176E-02  3.27929E-01  5.55838E-01  5.26979E-01  4.37748E-01  3.48318E-01  2.74718E-01
   2.50805E-01  2.42726E-01  2.18737E-01  1.99592E-01  1.77311E-01  1.37719E-01  9.75974E-02  2.15159E-02 -1.03479E-01 -2.07556E-01
  -2.70490E-01 -1.99967E-01 -2.90930E-02  1.39447E-01  2.61459E-01  2.92361E-01  2.81472E-01  2.65565E-01  2.53901E-01  2.55498E-01
   2.56793E-01  2.56741E-01  2.54893E-01  2.51940E-01  2.49948E-01  2.49825E-01  2.52360E-01  2.55008E-01  2.51269E-01  2.35046E-01
   2.36113E-01  2.10183E-01  3.93476E-02 -2.43523E-02  2.23251E-02 -1.58388E-01 -2.05219E-01 -9.38822E-02 -2.00128E-01 -2.70205E-01
  -3.64626E-01 -4.36275E-01 -3.48348E-01 -2.45745E-01 -3.56036E-01 -8.43064E-01 -1.35677E+00 -1.24304E+00 -6.75796E-01 -2.72244E-01
  -1.00619E-01 -4.25962E-02 -3.58291E-02 -1.80665E-02  6.03479E-03  3.08783E-02  5.33056E-02  7.38579E-02  9.21096E-02  1.06943E-01
   1.21983E-01  1.37679E-01  1.52122E-01  1.66674E-01  1.84210E-01  2.03118E-01  2.23741E-01  2.48982E-01  2.74983E-01  3.01065E-01
   3.37297E-01  3.92411E-01  4.73290E-01  5.73830E-01  6.13467E-01  7.55815E-01  1.05776E+00  5.17991E-01 -6.36718E-01 -1.11298E+00
  -9.46452E-01 -6.27159E-01 -4.27418E-01 -3.79042E-01 -3.83476E-01 -4.01532E-01 -3.63388E-01 -3.07907E-01 -2.75928E-01 -2.66154E-01
  -2.60477E-01 -2.33579E-01 -2.14059E-01 -2.03968E-01 -1.95211E-01 -1.94124E-01 -1.88421E-01 -1.74652E-01 -1.62001E-01 -1.55135E-01
  -1.48610E-01 -1.38110E-01 -1.27385E-01 -1.17162E-01 -1.06310E-01 -9.72562E-02 -8.87611E-02 -7.84878E-02 -6.66223E-02 -5.40729E-02
  -4.28116E-02 -2.44763E-02  1.10310E-02  3.08739E-02  1.64348E-03 -3.50942E-02 -2.84579E-02  2.69651E-02  6.21882E-02  1.07681E-02
  -5.91411E-02 -7.92904E-02 -6.94470E-02 -5.36867E-02 -3.78276E-02 -1.95649E-02  5.05284E-03  2.62452E-02  1.08667E-02 -1.71592E-02
   1.70355E-03  4.01267E-02  5.33540E-02  3.86357E-02  6.98390E-02  2.36653E-01  3.86247E-01  3.28170E-01  1.86602E-01  2.42709E-01
   4.22812E-01  3.96224E-01  2.07968E-01  6.51057E-02 -1.53861E-02 -4.67952E-02 -4.92331E-02 -5.15401E-02 -5.58555E-02 -6.31177E-02
  -7.25769E-02 -8.08370E-02 -8.62516E-02 -8.92899E-02 -9.21888E-02 -9.80166E-02 -1.04344E-01 -1.02653E-01 -1.07866E-01 -1.08258E-01
  -7.89862E-02 -6.96721E-02 -9.86734E-02 -1.03625E-01 -1.03478E-01 -1.23563E-01 -6.41899E-02  3.93765E-02  4.62796E-02  6.29149E-02
   1.03633E-01  1.66212E-01  1.75410E-01  6.97952E-02  1.00604E-01  1.68364E-01  1.36599E-01  1.18297E-01  9.99812E-02  1.05125E-01
   1.10328E-01  8.80479E-02  6.06664E-02  2.36039E-02 -1.10040E-02 -4.33424E-02 -7.67436E-02 -1.16526E-01 -1.60295E-01 -2.07505E-01
  -2.84735E-01 -3.12591E-01 -2.79958E-01 -2.29110E-01 -6.32896E-02  1.24889E-01  2.51196E-01  3.61564E-01  3.63674E-01  2.76787E-01
   2.05153E-01  1.37993E-01  7.56222E-02  6.02783E-02  4.57091E-02  8.64170E-02  1.67396E-01  2.08258E-01  2.40639E-01  2.46044E-01
   2.25224E-01  2.07657E-01  1.90089E-01  1.78719E-01  1.69358E-01  1.52979E-01  1.37761E-01  1.12995E-01  6.00499E-02  3.35085E-02
   1.12487E-02 -2.31523E-02  2.93261E-03  1.77758E-02  2.44875E-02  4.81397E-02  8.33544E-03 -5.42741E-02 -1.18066E-01 -1.68878E-01
  -2.07014E-01 -2.31091E-01 -2.25559E-01 -2.11365E-01 -1.56661E-01 -6.71796E-02  2.53488E-02  9.67849E-02  1.25122E-01  1.08257E-01
   6.49671E-02 -1.48223E-03 -1.02121E-01 -1.55376E-01 -2.05597E-01 -4.00937E-01 -5.80618E-01 -4.37653E-01 -1.91421E-01 -1.94325E-01
  -9.91953E-02 -2.69531E-01 -1.94077E+00 -2.71225E+00 -1.44670E+00 -4.35813E-01 -4.84911E-02  7.59060E-02 -6.03691E-04 -2.14696E-02
  -1.07402E-02  4.78270E-03  2.00943E-02  3.13420E-02  4.14821E-02  5.17784E-02  6.30502E-02  6.96779E-02  6.26472E-02  5.28995E-02
   1.89670E-02 -1.93913E-02 -5.20725E-02 -9.74711E-02 -1.12171E-01 -1.16855E-01 -1.13030E-01 -8.40822E-02 -5.72051E-02 -3.17721E-02
  -1.04788E-02  4.39975E-03  1.87366E-02  2.83967E-02  3.31326E-02  3.76703E-02  4.25760E-02  4.80776E-02  5.42720E-02  5.88127E-02
   6.13252E-02  6.46770E-02  6.85473E-02  7.28539E-02  7.74890E-02  7.98391E-02  8.04941E-02  8.11764E-02  8.48217E-02  8.94364E-02
   9.41670E-02  9.87750E-02  1.00650E-01  1.00052E-01  9.69571E-02  9.33626E-02  9.17217E-02  9.03807E-02  8.78928E-02  8.36656E-02
   7.73689E-02  7.11522E-02  6.59039E-02  5.82051E-02  4.98168E-02  4.43976E-02  4.08629E-02  3.54160E-02  2.84915E-02  2.36923E-02
   1.89699E-02  1.47551E-02  1.23177E-02  9.10495E-03  5.93644E-03  3.38546E-03  6.67414E-05 -3.01127E-03 -5.52789E-03 -7.07241E-03
  -7.96836E-03 -1.04764E-02 -1.16142E-02 -9.41311E-03 -7.65153E-03 -5.68453E-03 -1.74631E-03  2.51881E-03  6.62678E-03  1.27938E-02
   1.77867E-02  1.76088E-02  1.69337E-02  1.98826E-02  2.67662E-02  3.58144E-02  4.39584E-02  5.00005E-02  5.54125E-02  6.27816E-02
   7.32447E-02  8.41471E-02  9.51939E-02  1.06840E-01  1.16807E-01  1.27519E-01  1.39454E-01  1.48940E-01  1.55703E-01  1.59769E-01
   1.60605E-01  1.60108E-01  1.59742E-01  1.57725E-01  1.54862E-01  1.50941E-01  1.43997E-01  1.34641E-01  1.21669E-01  1.14468E-01
   1.26258E-01  1.32123E-01  1.32061E-01  1.24252E-01  9.64783E-02  7.52619E-02  6.51276E-02  5.58235E-02  4.92321E-02  4.38643E-02
   3.92829E-02  3.53209E-02  3.11676E-02  2.71233E-02  2.61668E-02  2.88301E-02  3.09236E-02  3.28758E-02  3.66503E-02  4.04604E-02
   4.40629E-02  4.93342E-02  5.60602E-02  6.10144E-02  6.39033E-02  6.63428E-02  6.78415E-02  6.78830E-02  6.94023E-02  7.42700E-02
   7.73861E-02  7.70108E-02  7.54187E-02  7.22427E-02  7.07135E-02  6.88929E-02  6.36075E-02  5.93942E-02  5.72940E-02  5.52356E-02
   5.19215E-02  4.79506E-02  4.45009E-02  4.12495E-02  3.79012E-02  3.37729E-02  2.86936E-02  2.48391E-02  2.38863E-02  2.28715E-02
   1.91824E-02  1.48236E-02  1.12911E-02  6.46806E-03 -9.29179E-04 -9.17069E-03 -1.67613E-02 -2.38793E-02 -3.25218E-02 -4.43496E-02
  -5.94250E-02 -7.83247E-02 -9.63648E-02 -1.11518E-01 -1.27344E-01 -1.43358E-01 -1.57074E-01 -1.68551E-01 -1.79163E-01 -1.90213E-01
  -1.98379E-01 -1.98896E-01 -1.96349E-01 -1.96293E-01 -1.94829E-01 -1.88570E-01 -1.80180E-01 -1.72632E-01 -1.66545E-01 -1.61377E-01
  -1.57052E-01 -1.51027E-01 -1.41651E-01 -1.32932E-01 -1.24120E-01 -1.13427E-01 -1.02890E-01 -9.30492E-02 -8.37855E-02 -7.42399E-02
  -6.65168E-02 -5.86595E-02 -4.84574E-02 -4.04240E-02 -3.54117E-02 -3.07302E-02 -2.40512E-02 -1.51028E-02 -1.07783E-02 -1.03158E-02
  -5.95306E-03 -1.32354E-03  1.46295E-03  4.27481E-03  5.35943E-03  6.07363E-03  8.00856E-03  1.01057E-02  9.96800E-03  8.93587E-03
   1.12657E-02  1.42131E-02  1.54955E-02  1.81044E-02  2.11020E-02  2.12412E-02  1.99742E-02  2.04876E-02  2.03372E-02  1.91471E-02
   2.00663E-02  1.98381E-02  1.80987E-02  1.88156E-02  1.92187E-02  1.83020E-02  1.86071E-02  1.96936E-02  2.20219E-02  2.20023E-02
   1.55628E-02  1.06837E-02  1.29582E-02  1.59097E-02  1.54761E-02  1.41695E-02  1.52037E-02  1.52748E-02  1.16819E-02  9.24480E-03
   1.01327E-02  1.28334E-02  1.45334E-02  1.44836E-02  1.44032E-02  1.51344E-02  1.69231E-02  1.78981E-02  1.73120E-02  1.78764E-02
   1.93911E-02  1.95684E-02  1.63805E-02  1.39053E-02  1.48372E-02  1.60346E-02  1.74005E-02  1.89712E-02  2.00299E-02  2.06684E-02
   1.90711E-02  1.88864E-02  2.32888E-02  2.68340E-02  2.83684E-02  2.73130E-02  2.29461E-02  2.04672E-02  2.13712E-02  2.42330E-02
   2.57249E-02  2.38077E-02  2.19328E-02  2.14539E-02  2.18650E-02  2.37506E-02  2.38739E-02  2.07614E-02  2.12035E-02  2.54894E-02
   2.64839E-02  2.50103E-02  2.49374E-02  2.56016E-02  2.68123E-02  2.73617E-02  2.73241E-02  3.07891E-02  3.67362E-02  4.01113E-02
   4.10750E-02  4.17579E-02  4.26144E-02  4.28770E-02
 NY background values follow
     1.092E-02    1.106E-02    1.120E-02    1.134E-02    1.149E-02    1.163E-02    1.177E-02    1.191E-02    1.206E-02    1.220E-02
     1.234E-02    1.248E-02    1.263E-02    1.277E-02    1.291E-02    1.305E-02    1.319E-02    1.334E-02    1.348E-02    1.362E-02
     1.376E-02    1.390E-02    1.404E-02    1.418E-02    1.433E-02    1.447E-02    1.461E-02    1.475E-02    1.489E-02    1.503E-02
     1.517E-02    1.531E-02    1.545E-02    1.559E-02    1.573E-02    1.587E-02    1.601E-02    1.615E-02    1.629E-02    1.642E-02
     1.656E-02    1.670E-02    1.684E-02    1.698E-02    1.711E-02    1.725E-02    1.739E-02    1.753E-02    1.766E-02    1.780E-02
     1.794E-02    1.807E-02    1.821E-02    1.834E-02    1.848E-02    1.861E-02    1.875E-02    1.888E-02    1.902E-02    1.915E-02
     1.928E-02    1.942E-02    1.955E-02    1.968E-02    1.982E-02    1.995E-02    2.008E-02    2.021E-02    2.034E-02    2.047E-02
