 
 $NMID
 ID=''
 FMTDAT='(2E13.5)'
 TRAMP=   1.00000E+0
 VOLUME=   1.00000E+0
 $END
   4.06423E+2   1.74541E+4
  -1.11768E+4   4.33364E+4
  -2.66908E+3   4.45117E+4
  -1.55244E+3   4.07463E+4
  -2.23114E+3   4.20277E+4
   4.32243E+2   4.18581E+4
   9.87464E+2   3.99334E+4
   8.37451E+2   4.01248E+4
   2.67355E+3   3.99058E+4
   3.21463E+3   3.83605E+4
   3.34697E+3   3.81900E+4
   4.97339E+3   3.77207E+4
   5.77007E+3   3.65429E+4
   5.80067E+3   3.64132E+4
   7.02216E+3   3.58629E+4
   7.64802E+3   3.49045E+4
   7.82100E+3   3.45545E+4
   8.82385E+3   3.40622E+4
   9.42957E+3   3.30439E+4
   9.55359E+3   3.25520E+4
   1.03484E+4   3.19019E+4
   1.09247E+4   3.09413E+4
   1.11612E+4   3.04386E+4
   1.17736E+4   2.98139E+4
   1.22434E+4   2.88562E+4
   1.24602E+4   2.82204E+4
   1.29882E+4   2.75953E+4
   1.32020E+4   2.67741E+4
   1.33817E+4   2.61408E+4
   1.38005E+4   2.55502E+4
   1.41765E+4   2.47222E+4
   1.43714E+4   2.42571E+4
   1.46419E+4   2.37049E+4
   1.48568E+4   2.29684E+4
   1.50517E+4   2.23843E+4
   1.52200E+4   2.18597E+4
   1.52795E+4   2.11630E+4
   1.54274E+4   2.06180E+4
   1.55955E+4   2.01408E+4
   1.55882E+4   1.95967E+4
   1.55012E+4   1.91183E+4
   1.54030E+4   1.86334E+4
   1.51131E+4   1.81018E+4
   1.49410E+4   1.75796E+4
   1.47545E+4   1.70797E+4
   1.45575E+4   1.65575E+4
   1.42922E+4   1.60323E+4
   1.40484E+4   1.55862E+4
   1.37341E+4   1.49607E+4
   1.34311E+4   1.44215E+4
   1.32143E+4   1.38536E+4
   1.29013E+4   1.32966E+4
   1.26387E+4   1.27615E+4
   1.23642E+4   1.22217E+4
   1.20651E+4   1.16712E+4
   1.17834E+4   1.10997E+4
   1.15166E+4   1.06407E+4
   1.11847E+4   1.01799E+4
   1.08732E+4   9.66005E+3
   1.05442E+4   9.10916E+3
   1.03628E+4   8.70144E+3
   1.00610E+4   8.21152E+3
   9.80831E+3   7.74013E+3
   9.58851E+3   7.40470E+3
   9.30050E+3   6.95534E+3
   9.05143E+3   6.46750E+3
   8.85422E+3   6.23473E+3
   8.62944E+3   5.84705E+3
   8.36200E+3   5.53330E+3
   8.09081E+3   5.23418E+3
   7.89521E+3   4.91305E+3
   7.65584E+3   4.63550E+3
   7.45572E+3   4.40488E+3
   7.21421E+3   4.15882E+3
   7.07548E+3   3.96452E+3
   6.81924E+3   3.71874E+3
   6.61107E+3   3.63535E+3
   6.39495E+3   3.42847E+3
   6.19554E+3   3.23453E+3
   6.02061E+3   3.17858E+3
   5.74165E+3   3.00211E+3
   5.66793E+3   2.88568E+3
   5.50295E+3   2.76208E+3
   5.27479E+3   2.65262E+3
   5.07370E+3   2.57379E+3
   4.89327E+3   2.51114E+3
   4.76288E+3   2.49304E+3
   4.55752E+3   2.45399E+3
   4.38509E+3   2.32579E+3
   4.26308E+3   2.25988E+3
   4.08283E+3   2.26445E+3
   3.91736E+3   2.30309E+3
   3.80145E+3   2.30487E+3
   3.64955E+3   2.35869E+3
   3.47103E+3   2.27933E+3
   3.30251E+3   2.28053E+3
   3.28092E+3   2.30153E+3
   3.07459E+3   2.28334E+3
   3.06431E+3   2.29788E+3
   2.90610E+3   2.33942E+3
   2.77303E+3   2.31914E+3
   2.71947E+3   2.36804E+3
   2.62106E+3   2.43500E+3
   2.58284E+3   2.46362E+3
   2.55497E+3   2.52663E+3
   2.42738E+3   2.54436E+3
   2.33570E+3   2.58703E+3
   2.40509E+3   2.73435E+3
   2.38248E+3   2.74381E+3
   2.30206E+3   2.69932E+3
   2.30767E+3   2.89196E+3
   2.25647E+3   2.89149E+3
   2.25608E+3   3.00797E+3
   2.18934E+3   3.05158E+3
   2.14247E+3   3.15618E+3
   2.20312E+3   3.24177E+3
   2.19320E+3   3.28176E+3
   2.14538E+3   3.38660E+3
   2.11032E+3   3.50585E+3
   2.17602E+3   3.54417E+3
   2.13533E+3   3.60516E+3
   2.16840E+3   3.67851E+3
   2.13317E+3   3.75334E+3
   2.07744E+3   3.80633E+3
   2.12219E+3   3.82172E+3
   2.12442E+3   3.88755E+3
   2.20544E+3   3.98820E+3
   2.11154E+3   3.97806E+3
   2.13283E+3   4.12506E+3
   2.19259E+3   4.10876E+3
   2.15941E+3   4.14685E+3
   2.05295E+3   4.17590E+3
   2.11958E+3   4.22658E+3
   2.11952E+3   4.25192E+3
   2.06868E+3   4.23431E+3
   2.09526E+3   4.24136E+3
   2.00689E+3   4.21565E+3
   1.99285E+3   4.21378E+3
   2.05645E+3   4.16953E+3
   2.08277E+3   4.25824E+3
   2.08958E+3   4.11256E+3
   2.01874E+3   4.08226E+3
   1.97631E+3   4.11229E+3
   2.00787E+3   4.07967E+3
   1.97282E+3   4.07852E+3
   1.99736E+3   3.94870E+3
   2.01765E+3   3.89512E+3
   1.91817E+3   3.77105E+3
   1.92904E+3   3.73965E+3
   1.93751E+3   3.69350E+3
   1.90414E+3   3.61684E+3
   1.90533E+3   3.54917E+3
   1.85072E+3   3.47147E+3
   1.92297E+3   3.35426E+3
   1.77830E+3   3.27698E+3
   1.88350E+3   3.17263E+3
   1.82732E+3   3.09909E+3
   1.81716E+3   3.07527E+3
   1.82408E+3   2.93152E+3
   1.87999E+3   2.78969E+3
   1.87583E+3   2.71544E+3
   1.78990E+3   2.63475E+3
   1.89847E+3   2.55246E+3
   1.81869E+3   2.48138E+3
   1.73251E+3   2.40546E+3
   1.81075E+3   2.32768E+3
   1.72943E+3   2.14797E+3
   1.74122E+3   2.02225E+3
   1.74342E+3   1.98840E+3
   1.71529E+3   1.86839E+3
   1.72838E+3   1.81917E+3
   1.68648E+3   1.70328E+3
   1.65198E+3   1.58020E+3
   1.69631E+3   1.53582E+3
   1.66152E+3   1.38548E+3
   1.61469E+3   1.40172E+3
   1.64405E+3   1.25398E+3
   1.65950E+3   1.25732E+3
   1.62541E+3   1.09990E+3
   1.53159E+3   1.13970E+3
   1.53795E+3   1.01086E+3
   1.50852E+3   9.23447E+2
   1.52559E+3   8.72241E+2
   1.47497E+3   8.41778E+2
   1.49960E+3   8.13547E+2
   1.48862E+3   7.42292E+2
   1.35665E+3   6.43078E+2
   1.33920E+3   6.27191E+2
   1.43816E+3   5.99337E+2
   1.36791E+3   5.17240E+2
   1.27720E+3   4.26328E+2
   1.29436E+3   4.90408E+2
   1.23554E+3   4.30172E+2
   1.32900E+3   4.40778E+2
   1.18937E+3   3.26184E+2
   1.22818E+3   3.14229E+2
   1.18014E+3   2.76087E+2
   1.16767E+3   2.78646E+2
   1.16013E+3   1.85499E+2
   1.13286E+3   2.13739E+2
   1.12960E+3   1.95172E+2
   9.93561E+2   1.31245E+2
   1.04125E+3   1.82132E+2
   1.05719E+3   1.72527E+2
   1.01652E+3   1.51777E+2
   1.03837E+3   9.80872E+1
   9.49752E+2   1.65952E+2
   9.69557E+2   3.42739E+1
   9.21186E+2   1.19084E+2
   9.17726E+2   5.54955E+1
   9.48536E+2   4.60924E+1
   8.44626E+2   2.64295E+1
   9.29482E+2   1.24281E+1
   8.49573E+2  -1.54206E+1
   8.71145E+2  -5.87226E+0
   8.29721E+2  -4.28927E+1
   8.76021E+2   2.13041E+1
   8.22101E+2   6.56547E+1
   8.36681E+2   1.09027E+0
   7.58231E+2   4.12625E+1
   8.20541E+2   1.86250E+1
   7.62893E+2   5.76982E+1
   7.97353E+2   7.21383E+0
   8.15668E+2   8.31385E+1
   8.07016E+2   2.10693E+1
   7.68684E+2   7.42475E+1
   7.79118E+2   4.65097E+1
   7.09062E+2   5.13526E+1
   6.89929E+2   1.22831E+2
   8.02822E+2   4.26792E+1
   7.41378E+2   5.09697E+1
   7.33717E+2   9.83632E+1
   7.67660E+2   8.37574E+1
   6.67548E+2   9.23448E+1
   7.15160E+2   7.12892E+1
   7.86058E+2   7.80595E+1
   7.31541E+2   7.96081E+1
   7.78336E+2   7.98145E+1
   7.28447E+2   1.36911E+2
   7.30502E+2   1.05711E+2
   6.90718E+2   1.37031E+2
   7.05799E+2   1.41315E+2
   7.03346E+2   7.47032E+1
   7.43733E+2   1.73962E+2
   7.29041E+2   2.26340E+2
   7.06773E+2   1.60155E+2
   7.70171E+2   2.33656E+2
   6.60431E+2   1.14664E+2
   7.60731E+2   1.99733E+2
   6.94047E+2   1.69247E+2
   7.08469E+2   2.17436E+2
   6.60104E+2   2.00393E+2
   6.76905E+2   1.53362E+2
   6.78245E+2   2.26729E+2
   6.56003E+2   1.89031E+2
   6.78706E+2   1.97822E+2
   6.82116E+2   1.73734E+2
   6.56350E+2   1.85808E+2
   5.33995E+2   1.87093E+2
   6.32577E+2   1.93169E+2
   7.00041E+2   1.86813E+2
   6.72026E+2   1.70064E+2
   6.38921E+2   1.51901E+2
   5.91511E+2   1.49366E+2
   6.27937E+2   1.58377E+2
   6.15852E+2   1.89586E+2
   6.54475E+2   1.57705E+2
   6.16871E+2   1.32095E+2
   6.07477E+2   9.44829E+1
   5.80903E+2   1.40862E+2
   6.48049E+2   1.13589E+2
   6.62959E+2   1.20247E+2
   6.22319E+2   1.27578E+2
   6.25121E+2   7.94391E+1
   6.33376E+2   1.18372E+2
   6.01178E+2   1.08459E+2
   6.42804E+2   9.69888E+1
   6.28632E+2   5.00693E+0
   5.75428E+2   1.11662E+2
   6.47746E+2   2.22361E+1
   6.35901E+2   4.50495E+1
   6.55383E+2   3.81420E+1
   6.49177E+2   4.62998E+1
   6.75837E+2   7.74910E+0
   6.30252E+2   8.71421E+1
   6.77522E+2   4.85729E+1
   7.06218E+2   3.46304E+1
   7.01206E+2   7.80578E+1
   5.91246E+2   4.44306E+1
   6.05076E+2   9.88916E+1
   6.86174E+2   5.72396E+1
   6.36858E+2   6.90970E+1
   6.33963E+2   7.99594E+0
   6.37815E+2   5.21426E+1
   6.94045E+2   3.87833E+1
   5.95673E+2   6.34771E+1
   6.54245E+2   8.31778E+1
   6.78424E+2   4.76006E+1
   6.45002E+2   9.89730E+1
   5.98036E+2   7.78658E+0
   6.82377E+2   9.92350E+1
   6.40780E+2   1.03340E+2
   6.12315E+2   4.26743E+1
   6.03913E+2   4.65965E+1
   6.33030E+2   6.38128E+1
   6.38523E+2   1.02885E+2
   5.95099E+2   6.62028E+1
   5.73943E+2   6.22298E+1
   6.93077E+2   8.66072E+1
   7.16649E+2  -3.64348E-1
   6.37578E+2   7.67493E+1
   6.97752E+2   4.56007E+1
   6.56897E+2   8.91010E+1
   6.28336E+2   8.20529E+1
   6.41408E+2   7.50897E+1
   6.41467E+2   2.31618E+1
   6.44431E+2   3.04477E+1
   6.63954E+2   8.71304E+1
   5.81068E+2   1.27456E+2
   5.93097E+2   3.73304E+1
   5.78466E+2   3.26037E+1
   6.32397E+2   1.41820E+1
   6.06599E+2   1.26314E+1
   6.28118E+2   5.27736E+1
   6.11668E+2   8.91169E+0
   6.34345E+2   4.69643E+1
   6.32768E+2   6.06226E+1
   6.38254E+2   4.01714E+1
   6.82478E+2   1.01152E+2
   6.69727E+2   1.25634E+2
   6.78251E+2   1.06129E+2
   6.78931E+2   5.60428E+1
   6.73119E+2   6.90488E+1
   6.99360E+2   4.18365E+1
   6.53402E+2   5.29364E+1
   6.52808E+2   9.42214E+1
   6.64947E+2   1.53071E+2
   6.45424E+2   1.30862E+2
   7.34682E+2   1.11529E+2
   6.12739E+2   1.14934E+2
   6.75244E+2   1.66822E+2
   7.04128E+2   1.36621E+2
   6.26947E+2   1.87065E+2
   7.34065E+2   1.64092E+2
   6.91216E+2   1.05031E+2
   7.00467E+2   1.25891E+2
   6.80526E+2   1.35516E+2
   6.53898E+2   1.79482E+2
   6.96066E+2   1.43902E+2
   7.22152E+2   1.62269E+2
   6.78171E+2   1.40299E+2
   6.99966E+2   1.67884E+2
   6.60107E+2   1.94514E+2
   6.47458E+2   1.72883E+2
   6.39362E+2   1.76374E+2
   6.76024E+2   2.70798E+2
   6.84077E+2   2.14224E+2
   5.61766E+2   1.37368E+2
   7.18988E+2   1.41088E+2
   6.58626E+2   1.90772E+2
   6.39911E+2   2.11455E+2
   6.78709E+2   2.17127E+2
   6.82707E+2   1.85541E+2
   6.28269E+2   2.05064E+2
   6.39644E+2   1.82847E+2
   6.71337E+2   2.19006E+2
   6.81671E+2   2.03758E+2
