 
 $NMID
 ID=''
 FMTDAT='(2E13.5)'
 TRAMP=   1.00000E+0
 VOLUME=   1.00000E+0
 $END
   1.53870E+2  -6.84646E+2
  -2.73738E+2   5.16022E+2
  -3.49085E+3  -2.88231E+3
  -2.11626E+3   5.12529E+3
   2.70153E+3   5.55005E+3
   4.38759E+3  -1.33256E+3
  -1.34722E+3   3.16904E+2
  -1.04837E+3   2.09705E+3
   1.40146E+3   8.44023E+2
   2.89278E+3  -8.40577E+2
   4.62302E+3   1.61587E+2
   3.21700E+3   2.10971E+2
  -5.80441E+1   9.03880E+2
  -3.96001E+3   6.81809E+2
   3.24861E+2  -1.31665E+3
   3.49860E+2  -1.77497E+3
   1.92736E+3  -4.72171E+2
  -1.13885E+3   1.42214E+2
  -1.30112E+3   2.20477E+3
  -6.71015E+1   1.35332E+3
   5.17478E+2   2.84560E+2
   2.68065E+3   1.85716E+3
  -2.09929E+3   4.63162E+3
  -2.73758E+3  -4.77629E+2
   4.47263E+2  -2.20366E+3
   1.80892E+3   2.50111E+3
   3.38254E+2   1.11845E+3
   1.03379E+3  -1.66275E+3
   7.85080E+2  -3.95345E+3
   2.99331E+3  -2.39417E+3
   2.22991E+3   5.84903E+3
  -2.97023E+3   4.24794E+3
  -3.84109E+3   4.13801E+2
   8.26120E+2  -1.28473E+3
  -1.71258E+3  -1.46208E+2
  -1.43591E+3  -3.38090E+3
   2.44696E+3  -4.90634E+3
   7.23832E+3  -3.68910E+2
   3.06434E+3   2.12520E+3
   2.16212E+3   2.68728E+3
  -3.26182E+3   8.20096E+2
  -3.61307E+3  -2.18706E+3
  -3.18094E+3  -5.37469E+3
  -2.10432E+2  -6.65397E+3
   7.95118E+2   1.72524E+3
  -1.74483E+3   4.27642E+1
   1.74230E+3   2.19041E+3
  -8.57885E+2   4.02025E+3
  -2.31475E+3   1.34508E+3
  -2.23793E+3   2.54921E+1
  -3.34230E+3  -2.00902E+3
   3.52141E+2  -4.29752E+3
   3.44482E+3  -1.39413E+3
   4.23211E+3   1.25627E+3
  -2.49978E+3   1.67129E+3
  -3.39026E+3   5.98510E+2
  -2.85374E+3  -5.01627E+0
  -5.14382E+3  -2.30287E+3
  -1.01802E+3  -3.71749E+3
   1.46549E+3  -2.48387E+3
   4.87174E+3  -1.60345E+3
   2.17713E+3   2.92904E+3
  -2.34487E+2   3.25378E+3
  -3.78518E+3   2.34570E+3
   3.50037E+2  -1.29310E+3
   3.73062E+3   9.76727E+2
   2.90368E+2   4.85888E+3
  -1.62125E+3   2.66775E+3
  -1.63592E+3  -3.05899E+1
  -3.93865E+2   2.14966E+3
   8.85557E+2   2.83404E+3
  -5.20024E+2   3.28791E+3
  -4.99402E+2  -1.94910E+3
  -9.82948E+2  -1.96963E+3
   2.75408E+3  -6.28460E+2
   6.44092E+2   3.50750E+3
   4.28260E+2  -6.29450E+1
   1.43913E+3  -1.22605E+3
   3.93864E+3   3.14337E+3
   6.40497E+2   9.88544E+2
  -1.19393E+3   2.55194E+3
  -1.64362E+3   1.71130E+3
  -1.32041E+3   5.64314E+2
  -2.30105E+3   9.18219E+2
  -2.56639E+3   1.98788E+3
  -1.47280E+3   9.44876E+2
  -2.17257E+3  -4.17153E+3
   1.66170E+3  -3.65604E+3
   3.29416E+3  -2.77194E+2
  -5.05554E+2   1.39341E+3
  -1.42168E+3  -8.74883E+2
  -8.48189E+1  -1.44136E+3
   1.42115E+3   3.14371E+3
   7.92615E+1   9.46293E+2
  -3.19054E+3  -1.26035E+3
  -1.15227E+2  -2.37389E+3
  -2.23862E+2  -1.25234E+3
  -1.39115E+3   3.50135E+3
  -1.66592E+3   2.47921E+3
  -2.48684E+3  -2.08107E+3
   1.60849E+3  -3.56065E+3
   5.46297E+3  -1.46876E+3
   7.71009E+2   2.61244E+3
  -1.32649E+3   3.76758E+3
  -1.63656E+3   1.37020E+3
  -1.41546E+3  -1.36912E+3
  -2.37935E+3  -7.11447E+2
  -6.35104E+2  -1.14672E+3
   3.05714E+2  -2.80311E+3
   4.27372E+3  -2.96489E+3
   3.43155E+3  -3.14528E+2
   3.05617E+3   1.28199E+3
   1.73771E+2   2.74606E+3
   6.19161E+2   2.19528E+3
   1.26325E+3  -5.59118E+2
  -1.66401E+3   1.71244E+3
   5.46143E+2  -1.93904E+3
   1.37792E+3  -1.15080E+3
   9.15916E+2  -8.28420E+2
   3.95392E+2   8.86432E+2
   5.23805E+2  -5.59499E+2
  -2.28997E+3  -2.09431E+1
   1.11967E+2  -4.23907E+3
   2.65038E+3  -1.73186E+3
   1.80784E+2   1.08456E+3
  -7.12864E+2   2.11951E+2
  -1.41121E+3   5.14162E+2
   2.66293E+2   1.54216E+3
  -1.14432E+3   2.74317E+3
  -3.52359E+3  -9.18333E+1
  -8.34235E+2  -4.42119E+2
   1.63330E+2  -2.65791E+3
   1.76913E+3  -5.08478E+2
  -5.97228E+2   2.47908E+3
  -2.08528E+3   2.00772E+3
  -2.02775E+3  -2.80799E+1
  -1.15402E+2  -1.29136E+3
  -8.59196E+2  -2.39660E+3
  -1.27763E+3  -2.40852E+3
  -1.96440E+3  -8.45167E+2
  -1.61123E+3  -2.09408E+3
   1.40778E+3  -8.47408E+2
  -6.32073E+1   1.18537E+3
  -1.25034E+3   2.05923E+3
  -2.10984E+3   5.20663E+2
   1.97299E+3  -1.84740E+2
  -1.74536E+3   1.28691E+3
  -2.10997E+2   2.27887E+3
  -1.81837E+3   2.88718E+3
  -7.14291E+1  -3.89842E+1
  -1.16143E+3  -8.37042E+2
  -1.53780E+3  -2.34788E+3
  -9.10450E+2  -1.84558E+3
  -1.60636E+2  -2.08743E+3
   1.40203E+3   1.61701E+1
   1.29678E+2   4.79140E+2
  -1.76891E+3   1.14455E+3
  -1.22470E+3  -1.47448E+3
  -2.02269E+2  -1.94045E+3
  -3.20104E+2   8.04447E+2
  -1.05866E+3   4.28764E+2
  -3.40380E+2   6.51263E+2
   2.23954E+2  -1.06027E+3
   9.70180E+2  -3.90156E+2
  -9.09791E+2   9.41274E+2
  -7.32259E+2  -2.74669E+2
  -1.36733E+3  -1.56448E+3
   1.40225E+3   7.86631E+2
   1.16547E+2  -8.47641E+2
  -7.99918E+2   1.61225E+2
  -2.47042E+3  -5.30945E+2
   2.10391E+2  -1.45921E+3
  -4.39744E+2  -2.70130E+3
   5.67630E+2  -3.53208E+2
   1.90171E+3   1.88862E+2
   1.19384E+3  -1.86041E+3
   2.93666E+3   6.58082E+2
   2.30782E+3   1.34493E+3
  -1.50047E+3   5.09642E+2
  -3.08997E+3   2.21385E+2
  -1.03682E+3  -4.95869E+2
   9.73775E+2  -2.15978E+3
   1.94443E+3  -7.98489E+2
   8.17416E+1  -1.97029E+3
  -7.09425E+2  -1.09315E+3
   1.91735E+3   2.44700E+3
  -1.81927E+3   9.03505E+2
  -1.57489E+3   3.97702E+2
  -1.98795E+3  -1.92566E+3
   1.19975E+3  -1.43288E+3
   1.64654E+2  -8.03526E+2
   5.18995E+2  -2.73516E+2
   8.94167E+2   8.10159E+2
   2.52451E+3  -2.87853E+2
   1.97089E+3   7.52199E+2
  -6.47033E+2   1.59004E+3
   1.00334E+3   3.41706E+2
   1.27724E+3  -1.11537E+3
   1.43728E+3   1.10489E+3
   2.14967E+3  -2.00926E+2
  -1.76070E+3   7.08173E+2
  -2.22077E+1   2.83353E+2
  -2.76112E+2  -1.24546E+3
   2.04940E+3  -1.60657E+3
   1.91333E+3  -1.38166E+3
   1.67455E+2   3.32269E+1
  -7.71116E+2  -1.11923E+3
   1.61680E+3   4.92033E+2
   2.32427E+3  -1.22119E+3
   2.56267E+3  -5.05878E+2
  -2.27958E+3  -1.36688E+3
   9.26841E+2   1.31767E+2
   5.09212E+2  -1.95288E+3
   8.34376E+2   3.49576E+2
  -6.12816E+2   9.03939E+1
  -1.02591E+3   8.64297E+2
   1.63753E+3  -2.25239E+3
  -2.78253E+2  -6.40370E+2
   2.56017E+3  -1.50164E+3
  -5.11117E+2  -1.33376E+3
   1.48792E+3  -1.67993E+3
  -4.85658E+2  -1.69957E+3
  -4.80586E+2   1.24943E+3
   2.80963E+2  -1.05603E+3
   9.85211E+2   5.05821E+2
   6.83051E+2   1.22379E+2
   1.40993E+3   1.09923E+3
  -2.03233E+3  -2.84318E+2
  -1.87420E+3   8.54250E+1
  -4.86151E+1  -5.23404E+2
   1.73202E+3  -3.68573E+2
   1.10127E+3   9.57489E+1
  -8.91871E+2  -1.66272E+3
   1.00112E+3  -1.96198E+3
   2.17026E+3   2.77709E+2
   2.34855E+3   6.53810E+2
  -5.83087E+2   1.08294E+3
  -1.79252E+3  -1.46979E+3
   7.22198E+1   8.92697E+1
   1.37605E+3  -1.43953E+3
   1.05109E+3   5.35053E+2
  -1.70229E+3   9.29010E+1
  -2.68686E+3   1.85087E+3
  -1.13434E+1  -9.73417E+2
   1.30447E+3  -2.42380E+2
   1.77280E+2  -1.63644E+2
   6.28861E+2  -2.25349E+3
  -8.50049E+2  -2.05198E+3
   1.73778E+3  -1.58628E+3
   9.61395E+2   1.89837E+2
  -7.09412E+2   7.07154E+2
  -1.75335E+3   5.18263E+2
  -3.09336E+2   4.68475E+2
   4.72412E+2  -1.05677E+2
   1.65417E+3  -1.16231E+3
  -6.33428E+2   7.98356E+2
   2.06875E+3  -1.82758E+3
   9.24831E+2   1.57754E+3
  -7.23284E+2   1.26844E+3
  -1.38206E+3  -6.83413E+2
  -7.25336E+2  -1.40432E+3
   6.39891E+2  -1.40057E+3
   1.79343E+3  -5.55132E+2
   3.30507E+0   1.90629E+3
  -8.62751E+2  -2.24251E+2
  -1.09768E+2  -1.87538E+2
   1.18081E+3  -5.62013E+2
  -1.52197E+3   1.30755E+3
  -7.86988E+1   1.33557E+2
  -7.41554E+2   2.91066E+2
   4.55987E+3   1.58477E+3
  -6.62171E+2   7.86285E+2
   5.15492E+2   7.43501E+2
  -7.75146E+2   5.01402E+2
  -1.36251E+2  -1.01061E+3
   3.94439E+2  -4.44317E+2
  -5.09414E+2  -6.61368E+2
  -5.10224E+1   1.02085E+3
   6.08984E+2  -4.88124E+2
   1.95314E+3  -5.86526E+2
   7.49026E+2  -1.84283E+2
  -1.16589E+3  -6.94236E+2
  -2.02117E+3   5.72185E+2
  -5.96105E+2  -1.98636E+3
  -6.50376E+2   1.70035E+3
  -1.20646E+3   1.17656E+3
  -1.80832E+3  -2.20747E+3
   1.08945E+3  -1.38372E+3
   2.63678E+2  -9.35871E+2
  -1.68803E+3  -9.33255E+1
   1.03787E+3   1.74623E+1
   1.89860E+2  -1.77571E+3
   1.84107E+3  -1.95357E+2
  -3.71120E+2   2.06507E+3
  -1.65792E+3   1.02381E+3
  -6.52986E+2  -4.49948E+2
  -5.18475E+2  -6.73426E+2
   3.20493E+2  -1.85113E+3
   9.25437E+2   1.24340E+3
  -7.56888E+2   4.07286E+2
  -1.31102E+3   1.03231E+3
  -8.41167E+2  -7.98849E+2
   4.06618E+2   1.92286E+3
  -1.74809E+3   1.18907E+3
  -9.01890E+2  -1.56123E+3
   1.45179E+2  -2.57427E+3
   2.60599E+3  -8.69180E+1
   1.45252E+2   8.23031E+2
  -1.25197E+3   1.73528E+3
  -1.27775E+3   2.22133E+1
  -7.43018E+2  -1.10999E+3
   1.88949E+3   1.89630E+2
   3.20721E+1  -2.29342E+2
   1.46928E+3   1.84545E+3
  -1.42808E+3  -2.04558E+0
   9.94131E+2   1.64747E+3
  -3.53237E+2  -5.40904E+1
  -1.39658E+3  -1.78570E+3
  -1.78153E+3  -4.07876E+2
  -7.04328E+1  -2.39492E+3
  -3.56229E+2  -6.21193E+2
   8.53217E+2   2.03579E+1
   1.47730E+2   1.46581E+3
  -1.11723E+3  -4.64622E+2
   6.05013E+2  -2.89460E+2
  -5.62022E+2   7.48910E+2
   2.02719E+2   8.79632E+2
  -2.01483E+3  -1.11638E+3
  -4.38349E+2  -2.17242E+3
  -2.89291E+2   1.95378E+3
   1.08477E+3   4.28478E+2
  -1.11777E+3   1.41121E+3
  -1.97915E+3  -1.02482E+3
   1.57262E+3  -2.98517E+2
   1.49491E+3  -7.64261E+2
   1.11390E+3   5.94048E+2
  -9.59860E+2  -5.00931E+2
  -3.42115E+1  -8.40893E+2
   2.92101E+3   2.00252E+3
   1.17341E+1  -1.11205E+3
  -1.54705E+3  -1.55788E+2
   1.32534E+3  -2.29752E+3
  -6.72739E+2  -6.70860E+2
   3.55821E+2   1.67476E+3
   9.00635E+2   1.62981E+3
  -1.80988E+3   2.45901E+3
  -6.81639E+1   1.69992E+3
  -5.13923E+2   1.06329E+3
  -7.96308E+2   7.90659E+2
  -6.43681E+2  -1.09415E+3
  -2.83882E+1   2.90412E+2
   4.74637E+2  -4.00977E+2
   3.71693E+2  -8.93954E+2
  -3.02594E+2   1.18364E+3
  -4.73742E+2  -1.35220E+3
   1.69630E+3   2.02668E+2
   8.69865E+2   2.87147E+3
   1.37051E+3   8.39592E+2
   7.55170E+2  -1.18201E+3
  -1.69243E+3  -1.90711E+3
  -1.30275E+3   4.56628E+2
   1.89073E+3  -7.04554E+2
   6.84043E+1  -3.38519E+2
  -1.37092E+3   2.14783E+2
   2.08459E+2  -1.42835E+3
   2.65680E+2  -5.34960E+2
   4.10557E+2  -2.32160E+2
