 
 $NMID
 ID=''
 FMTDAT='(2E13.5)'
 TRAMP=   1.00000E+0
 VOLUME=   1.00000E+0
 $END
   4.32508E+2  -1.20989E+2
  -2.52894E+2   1.73613E+3
   4.18812E+2  -3.63424E+3
  -2.69739E+2   1.00939E+3
   3.81807E+2   4.65055E+2
   2.54212E+3  -5.16469E+2
   7.47436E+2   1.60965E+3
  -1.43515E+3  -4.90916E+1
  -8.51652E+2  -2.32806E+3
  -1.51695E+3  -1.77742E+3
   1.17208E+3  -4.65769E+3
   3.75215E+3   8.70405E+2
  -1.69878E+3   4.07195E+3
  -2.79442E+3   5.89810E+3
  -2.52199E+3  -8.34853E+2
   2.76386E+3  -2.23916E+3
   4.48780E+3   1.81241E+2
  -9.08872E+1  -2.40257E+2
  -2.05439E+3   3.68048E+2
  -2.11429E+3  -2.09922E+3
   1.39552E+3   5.12714E+2
   9.65622E+2   5.12843E+3
  -2.87337E+3   4.45788E+3
  -1.51380E+3  -2.54787E+3
   2.66725E+3   9.64003E+1
   7.10510E+2   5.44272E+3
  -2.54390E+3   3.29463E+3
  -1.34303E+3  -1.60082E+3
   1.52896E+3  -2.65308E+3
   5.14839E+3   6.14395E+0
   5.02208E+3   4.76583E+3
  -3.12595E+3   5.16732E+3
  -3.28072E+3  -1.59674E+3
   2.35866E+3  -9.30191E+2
  -5.20086E+2   2.13253E+2
  -2.11620E+3  -2.24933E+3
   3.48393E+3  -7.50038E+3
   3.60937E+3   2.09341E+2
   2.84269E+3   2.31344E+3
   1.35648E+2   1.80482E+3
  -3.72329E+3   2.97942E+3
  -4.28056E+3  -1.94600E+3
  -9.64247E+2  -7.18165E+3
   4.07772E+3  -5.12447E+3
   4.92279E+3  -2.03853E+1
   1.03059E+3  -2.21299E+3
   2.82863E+3  -2.24179E+3
   2.64564E+2   2.48517E+3
  -1.63177E+3   1.39638E+3
  -4.22918E+3   2.24590E+3
  -2.49281E+3  -1.95401E+3
  -1.01508E+3  -1.85294E+3
   2.31258E+3  -3.43117E+2
   1.55300E+3   1.76246E+3
  -9.31033E+2   1.75019E+3
  -3.63652E+2   1.66828E+3
  -3.25930E+3   1.02056E+3
  -3.67493E+3  -1.74794E+3
   8.69968E+2  -4.90505E+3
   3.17897E+3  -5.98999E+3
   4.22651E+3  -1.61888E+3
   1.91999E+3   1.40352E+3
   1.49272E+2   4.57226E+3
  -2.56725E+3  -6.41780E+2
  -1.05326E+3  -1.42517E+3
   2.05825E+3   1.34341E+3
  -2.39875E+3   4.79203E+3
  -3.97321E+3   1.97676E+3
  -1.95388E+3  -1.33039E+3
   1.02389E+3  -2.12902E+3
  -1.62204E+3  -2.15644E+3
   1.09277E+3  -1.67881E+2
   7.26416E+2   1.65407E+2
   1.86763E+3  -2.04238E+3
   8.96050E+2   4.44056E+2
   1.26024E+3  -3.43583E+2
  -1.41995E+3  -4.74854E+2
  -1.08267E+3  -2.16929E+3
   1.37791E+3  -1.16338E+3
  -2.07756E+2   1.83853E+3
  -2.18411E+3   2.33840E+2
   8.53994E+2  -4.96993E+2
  -1.74772E+2   2.33378E+2
  -3.14775E+3   3.77740E+3
  -4.74381E+3   1.06358E+3
  -3.51048E+3  -5.96072E+2
  -4.39733E+2  -2.18017E+3
   3.87237E+3  -2.03085E+3
   2.29624E+3   1.10686E+3
   4.95451E+1   2.58272E+3
  -1.12302E+3   1.70043E+3
   6.97293E+2   2.16445E+3
   2.50033E+3   2.88849E+3
  -2.16365E+3   4.71416E+2
  -2.78395E+3  -2.64729E+3
   1.84653E+3  -4.66704E+3
   3.71725E+3  -4.75577E+2
  -1.91479E+3   2.74646E+3
  -1.99664E+3  -1.43268E+2
  -1.61851E+3  -2.60178E+3
   1.85985E+3  -3.52848E+3
   6.88371E+3  -5.30968E+2
   2.44903E+3   1.97921E+3
   5.37972E+2   3.34854E+3
  -2.84870E+3  -7.41121E+2
   4.94736E+2   1.34945E+2
  -1.71683E+3   8.54217E+2
  -7.61974E+2   3.27159E+2
   5.15636E+2  -1.58958E+3
   3.07534E+3  -2.53039E+3
   6.73830E+3   8.36485E+1
   1.00660E+3   3.82552E+3
  -2.40987E+2   2.42715E+3
   6.62853E+2   2.46741E+3
  -2.91458E+3   3.97295E+3
  -3.97256E+3   2.57157E+3
  -9.43563E+2  -1.35898E+3
   1.55680E+3  -1.49688E+3
   1.16974E+3   2.06266E+2
  -1.73440E+3   1.05208E+3
  -8.07447E+2   1.75378E+3
  -6.16321E+2  -1.81203E+2
  -1.24471E+3  -2.61919E+3
   1.01994E+3   2.61435E+2
   2.01296E+3   1.37472E+3
  -9.01726E+2   8.61965E+2
   2.05191E+3  -8.52090E+1
   6.45919E+2  -1.00759E+3
   3.27235E+3  -7.94763E+2
  -2.69480E+3   1.00907E+3
  -4.41845E+2  -7.06127E+2
  -5.10797E+2  -6.16645E+2
   2.58769E+3   7.15673E+2
  -1.54415E+3   2.73491E+3
  -3.23083E+3  -1.27635E+2
  -2.15557E+3  -1.35876E+3
   7.69582E+2  -3.02734E+3
   1.58143E+3  -2.61884E+3
   3.13305E+2  -5.64449E+2
   1.67330E+3  -1.78903E+3
   1.94785E+3  -3.34867E+2
   4.11666E+3   1.01696E+3
   1.65354E+3   1.81060E+3
  -6.93063E+2   1.97919E+3
  -1.49308E+3   1.82342E+2
  -8.09121E+2  -1.90094E+3
  -8.58570E+2   3.84648E+2
   6.32602E+2   6.25219E+2
  -1.96639E+3  -5.77249E+2
   7.63713E+2   3.48283E+2
  -7.79743E+2   4.54749E+2
  -2.72622E+3  -2.55786E+3
   2.33878E+2  -1.51547E+3
   1.36602E+3  -2.09230E+3
   6.34118E+2   2.25621E+3
  -1.14845E+3   2.84368E+3
  -1.39697E+3  -1.32951E+3
  -5.16327E+2  -5.11069E+2
  -1.15551E+3  -5.32599E+1
   2.77991E+2  -1.18131E+3
  -1.02861E+3   6.40204E+2
  -9.97505E+1   6.73206E+1
  -1.57140E+3   3.41622E+2
   1.63249E+3   2.08926E+3
  -7.93463E+2   1.04493E+2
  -2.66370E+3   2.21940E+2
  -1.06219E+3  -1.83207E+3
   2.82757E+2   7.30350E+2
   2.00156E+2   2.36398E+3
  -3.11466E+3   9.08134E+2
  -1.98063E+3  -1.95703E+3
  -3.47049E+2  -1.29965E+3
  -3.75175E+2  -7.07565E+2
   1.16952E+3  -9.50933E+2
  -3.59103E+2  -1.23759E+3
   1.07078E+3   8.23194E+2
   5.21063E+2  -5.88811E+1
   7.97477E+2   4.57280E+2
  -2.27228E+3   1.98667E+3
  -3.00744E+3   3.07819E+1
   5.61875E+2  -3.30558E+3
  -2.73500E+3  -8.97348E+2
   2.27379E+3   4.83624E+2
   2.95599E+2  -9.76238E+2
   3.02006E+2   1.13018E+3
   1.14797E+3   5.78205E+2
  -2.61804E+2   5.70633E+2
  -2.11651E+3  -1.70166E+3
   5.48512E+2  -2.49787E+3
   7.46610E+2  -1.80665E+3
   1.92301E+3   2.87408E+3
  -1.69287E+3   2.12910E+3
   2.33841E+2   1.65843E+3
   6.58230E+2   5.79646E+0
  -8.61317E+2   1.33176E+3
  -1.00239E+3  -4.48039E+2
  -2.88776E+2   1.76008E+2
   1.34561E+3  -1.19294E+3
   1.64890E+3   7.24371E+2
  -3.52388E+2   8.95394E+2
  -1.95988E+3   4.63774E+2
  -1.24425E+3  -1.92065E+3
   1.06345E+3  -9.16462E+2
   2.14686E+3  -1.86185E+2
   3.58318E+2   2.45656E+3
   1.52389E+3   2.54117E+3
  -4.12622E+2  -3.60669E+2
   1.46603E+2   8.21277E+2
  -1.14300E+2  -8.43491E+0
  -9.28933E+2   6.63340E+2
  -6.54332E+2  -3.33730E+2
   4.62087E+2  -1.13814E+3
   2.33955E+3  -9.66899E+2
   4.04546E+2   1.73796E+3
  -3.35915E+2   2.02102E+2
  -2.31178E+3  -9.51617E+1
  -1.91486E+3   5.66531E+2
   4.19671E+2  -2.15223E+3
  -7.80112E+2   1.63435E+2
  -8.91776E+2   1.43906E+2
   1.76766E+3  -4.98698E+0
   5.70598E+2  -5.01598E+2
  -5.00044E+2  -1.51036E+2
   2.46472E+2   4.74262E+2
   1.68065E+3  -1.46470E+2
   2.99364E+3   8.67854E+2
  -4.46935E+2   2.72475E+3
  -1.78883E+3   5.30604E+2
  -1.03136E+3  -6.20111E+2
  -1.17417E+3   1.13284E+3
   1.45464E+3   1.23921E+2
  -2.24410E+3   3.52947E+2
  -5.69910E+2   1.13571E+2
   1.89090E+3  -3.51600E+3
   2.67125E+3   5.88066E+2
   1.83404E+3   3.27605E+3
  -1.63471E+3   7.31531E+2
  -7.04806E+2  -9.12735E+2
  -1.15294E+3  -2.74126E+2
   2.31953E+3   1.03985E+3
   1.02036E+3   1.15366E+3
  -1.10191E+3  -6.58334E+2
  -9.60085E+2  -1.64711E+2
  -2.94937E+2  -1.22421E+3
   1.12675E+2  -2.05783E+2
   1.52095E+2  -5.50242E+2
  -1.34096E+3  -4.89127E+2
   1.95044E+3  -2.59868E+2
   9.45453E+2   7.45773E+2
   1.15769E+3   4.11615E+2
  -2.62743E+3   7.35873E+1
   1.24324E+3  -1.04162E+3
   1.37627E+3  -1.22376E+3
   5.65017E+2   1.42266E+3
  -5.33188E+2  -2.87055E+3
   7.44069E+2   8.32509E+2
   8.04352E+2  -6.84217E+2
  -5.45530E+2   1.69482E+3
  -5.79128E+2  -1.50575E+2
  -4.59796E+2   2.51214E+2
   7.63906E+1  -9.64217E+2
   6.71662E+2   3.81894E+2
   4.47309E+2  -6.10516E+2
  -6.26532E+2  -4.02264E+2
   8.77054E+2   3.80076E+2
   5.63080E+2  -8.47370E+2
   2.59006E+2  -7.33154E+2
  -1.38882E+3   2.31331E+3
  -1.84576E+2  -2.58077E+3
   1.42504E+3   1.58852E+1
   9.84712E+2   3.63789E+2
  -1.96105E+1   1.36627E+3
  -3.12191E+3   1.36074E+3
  -1.19583E+3  -2.98167E+3
  -4.36264E+2  -1.49635E+3
  -1.62686E+3  -1.34153E+3
  -9.76155E+2  -9.59746E+2
   1.37827E+3  -5.58293E+2
   1.17148E+3  -1.23668E+3
   1.50572E+3   9.58018E+2
   9.10870E+2   2.07561E+3
  -7.45276E+2   9.63308E+2
   1.99712E+2  -2.83426E+2
   1.12092E+3  -2.28003E+3
   1.17060E+3   1.14921E+3
   3.81555E+2   1.19655E+3
   5.48225E+2  -1.14100E+3
  -6.23527E+2  -9.63161E+0
   1.28690E+2  -1.46686E+3
  -8.12361E+2   6.11867E+2
   9.10720E+2   1.70142E+3
  -1.24525E+3   5.31927E+2
   7.84674E+2  -7.77161E+1
  -6.71773E+2   1.06540E+3
  -1.98157E+3   6.14545E+2
  -3.44122E+2   5.70100E+2
   1.02259E+3   1.23296E+2
  -1.65789E+2   7.49111E+2
   2.52247E+2   4.82205E+2
   6.49125E+2   7.40554E+2
   6.78492E+2  -1.74995E+2
   4.82411E+2   6.94808E+2
   5.69268E+2   8.07347E+2
  -3.23305E+2  -8.20148E+2
   1.41918E+3  -1.51994E+3
   8.05115E+2   5.75424E+2
   2.51110E+2   3.62567E+2
  -1.06219E+3   1.08831E+3
  -1.16674E+3   1.35009E+2
   3.55899E+2  -1.47522E+3
   5.16729E+2  -6.64395E+2
  -1.48070E+3  -1.31824E+3
   9.37972E+2  -7.87841E+2
   1.28593E+2   5.98989E+2
  -8.17236E+2  -2.34667E+2
   1.65179E+3  -9.55056E+2
  -8.24593E+1   1.70996E+3
   1.03550E+3  -8.13871E+2
  -1.54038E+2  -1.83305E+3
  -9.19781E+2  -1.25362E+3
  -1.00832E+3   1.53419E+3
  -4.34744E+2   1.83596E+3
  -1.00495E+2   1.92264E+2
  -7.18824E+2  -9.19031E+2
   9.69681E+1   8.26140E+2
   1.03572E+2   1.67766E+2
   1.09482E+3  -2.38991E+3
  -5.51329E+2   9.65408E+2
   1.22450E+3   8.73526E+2
   5.93802E+2   1.11702E+3
  -2.87888E+2  -3.60882E+2
  -1.99080E+3  -2.68680E+2
   3.60709E+2  -5.49069E+2
   1.67509E+3  -2.81709E+2
  -3.40729E+2  -7.46525E+2
  -7.14191E+2  -1.54546E+3
   1.39238E+2  -1.56560E+3
   1.53478E+2  -6.00605E+2
   2.68717E+2   1.09899E+3
   2.74955E+2   3.30505E+2
  -1.22711E+3  -4.30151E+2
  -1.73058E+2  -5.38301E+2
   3.92402E+2  -9.73337E+2
   4.24050E+2  -1.45058E+2
  -1.04467E+3  -2.21492E+3
   7.82493E+2  -1.14546E+3
   9.96356E+2  -8.31385E+2
   1.10550E+2  -6.47276E+2
   5.05784E+2  -6.91874E+2
  -1.71722E+3   1.90921E+2
   1.30787E+2   2.92222E+2
  -1.44776E+3   1.60665E+2
  -3.03612E+1   6.15491E+2
  -1.79028E+3  -1.51788E+2
   6.68864E+2  -3.31403E+2
   3.14331E+2   1.49651E+3
  -4.32044E+2   1.12620E+3
   1.43463E+3  -9.00704E+2
  -1.05271E+3  -3.30062E+2
   8.34293E+2  -7.76472E+2
   1.05247E+3  -7.26959E+2
   5.81760E+2   1.17705E+3
  -3.85935E+1   6.36596E+2
   9.74276E+2  -1.39570E+2
   2.76533E+3  -4.29126E+2
  -2.60585E+2  -5.68878E+2
  -6.68270E+1   4.62695E+2
