 
 $NMID
 ID=''
 FMTDAT='(2E13.5)'
 TRAMP=   1.00000E+0
 VOLUME=   1.00000E+0
 $END
  -1.36978E+4   1.56487E+3
  -3.61637E+4  -7.31532E+3
  -3.77008E+4  -3.40341E+3
  -3.53203E+4  -5.86368E+3
  -3.64625E+4  -9.15513E+3
  -3.61385E+4  -9.93616E+3
  -3.41008E+4  -1.26597E+4
  -3.35315E+4  -1.56548E+4
  -3.24470E+4  -1.67987E+4
  -3.03241E+4  -1.89946E+4
  -2.91433E+4  -2.12349E+4
  -2.75458E+4  -2.22128E+4
  -2.54019E+4  -2.37830E+4
  -2.37631E+4  -2.55875E+4
  -2.19435E+4  -2.63363E+4
  -1.95176E+4  -2.75901E+4
  -1.77565E+4  -2.88156E+4
  -1.56984E+4  -2.92127E+4
  -1.32590E+4  -2.98593E+4
  -1.13426E+4  -3.05045E+4
  -9.25659E+3  -3.06462E+4
  -6.96986E+3  -3.09116E+4
  -4.97055E+3  -3.10525E+4
  -2.82441E+3  -3.08461E+4
  -4.98204E+2  -3.05468E+4
   1.45238E+3  -3.01328E+4
   3.40655E+3  -2.95268E+4
   5.57875E+3  -2.88171E+4
   7.49241E+3  -2.80046E+4
   9.18813E+3  -2.68866E+4
   1.08700E+4  -2.58445E+4
   1.24446E+4  -2.47493E+4
   1.39994E+4  -2.33836E+4
   1.54478E+4  -2.20018E+4
   1.66916E+4  -2.06074E+4
   1.77406E+4  -1.90987E+4
   1.87887E+4  -1.74162E+4
   1.96773E+4  -1.59426E+4
   2.03778E+4  -1.42534E+4
   2.10324E+4  -1.25228E+4
   2.15386E+4  -1.07724E+4
   2.20002E+4  -9.01605E+3
   2.22782E+4  -7.08226E+3
   2.23608E+4  -5.33608E+3
   2.23467E+4  -3.62057E+3
   2.22510E+4  -1.79437E+3
   2.18975E+4  -7.54110E+1
   2.15298E+4   1.54285E+3
   2.09332E+4   3.19307E+3
   2.02682E+4   4.77399E+3
   1.95162E+4   6.33583E+3
   1.86229E+4   7.74811E+3
   1.75756E+4   9.04116E+3
   1.65793E+4   1.02041E+4
   1.54293E+4   1.12783E+4
   1.42159E+4   1.23377E+4
   1.29478E+4   1.32652E+4
   1.15463E+4   1.40102E+4
   1.01971E+4   1.47094E+4
   8.77356E+3   1.52824E+4
   7.42276E+3   1.56322E+4
   5.93894E+3   1.57963E+4
   4.55594E+3   1.61149E+4
   3.12864E+3   1.61897E+4
   1.66504E+3   1.60729E+4
   3.02129E+2   1.58760E+4
  -9.85539E+2   1.57055E+4
  -2.33056E+3   1.53199E+4
  -3.49669E+3   1.47743E+4
  -4.67539E+3   1.42253E+4
  -5.80407E+3   1.35528E+4
  -6.78959E+3   1.27892E+4
  -7.73588E+3   1.20099E+4
  -8.55087E+3   1.11223E+4
  -9.29950E+3   1.02282E+4
  -9.90186E+3   9.20691E+3
  -1.04444E+4   8.22812E+3
  -1.09682E+4   7.24585E+3
  -1.13110E+4   6.27555E+3
  -1.15339E+4   5.21844E+3
  -1.16783E+4   4.16307E+3
  -1.18084E+4   3.14223E+3
  -1.18524E+4   2.15028E+3
  -1.16461E+4   1.19949E+3
  -1.15325E+4   1.50584E+2
  -1.12627E+4  -7.86200E+2
  -1.09078E+4  -1.64282E+3
  -1.04972E+4  -2.48484E+3
  -1.00762E+4  -3.22349E+3
  -9.48063E+3  -3.91355E+3
  -8.98586E+3  -4.60642E+3
  -8.31450E+3  -5.17999E+3
  -7.67194E+3  -5.66696E+3
  -7.04161E+3  -6.08041E+3
  -6.28232E+3  -6.55666E+3
  -5.60908E+3  -6.81843E+3
  -4.75548E+3  -7.10911E+3
  -4.05134E+3  -7.24371E+3
  -3.33239E+3  -7.45800E+3
  -2.55501E+3  -7.51199E+3
  -1.83587E+3  -7.50248E+3
  -1.17479E+3  -7.42300E+3
  -3.47104E+2  -7.25318E+3
   2.35106E+2  -7.10367E+3
   8.54908E+2  -6.85485E+3
   1.48622E+3  -6.55182E+3
   1.95796E+3  -6.26255E+3
   2.52949E+3  -5.90515E+3
   3.02234E+3  -5.52044E+3
   3.40751E+3  -5.06811E+3
   3.81042E+3  -4.58208E+3
   4.20594E+3  -4.10379E+3
   4.44290E+3  -3.70469E+3
   4.64480E+3  -3.20475E+3
   4.89869E+3  -2.74303E+3
   4.99311E+3  -2.20857E+3
   5.13653E+3  -1.71097E+3
   5.18669E+3  -1.24810E+3
   5.17089E+3  -7.60912E+2
   5.22052E+3  -3.11947E+2
   5.08434E+3   5.19218E+1
   4.95745E+3   4.76696E+2
   4.91537E+3   8.99922E+2
   4.69502E+3   1.18251E+3
   4.55634E+3   1.57062E+3
   4.35223E+3   1.90783E+3
   4.10684E+3   2.12068E+3
   3.80838E+3   2.41031E+3
   3.64988E+3   2.61682E+3
   3.29932E+3   2.79664E+3
   3.03749E+3   2.98354E+3
   2.78012E+3   3.06618E+3
   2.44229E+3   3.18841E+3
   2.22510E+3   3.22132E+3
   1.92045E+3   3.21839E+3
   1.65852E+3   3.21605E+3
   1.38036E+3   3.23710E+3
   1.13814E+3   3.22082E+3
   9.25666E+2   3.05413E+3
   7.34890E+2   3.07642E+3
   4.95944E+2   2.91312E+3
   2.59151E+2   2.80781E+3
   1.25871E+2   2.73010E+3
  -5.00126E+1   2.51679E+3
  -2.62176E+2   2.40140E+3
  -2.83178E+2   2.17557E+3
  -4.55257E+2   2.06637E+3
  -5.44585E+2   1.84481E+3
  -5.61646E+2   1.67923E+3
  -6.59043E+2   1.56029E+3
  -6.76132E+2   1.37272E+3
  -6.82132E+2   1.15185E+3
  -7.51044E+2   9.73644E+2
  -7.64274E+2   8.70106E+2
  -7.05606E+2   6.58236E+2
  -6.84792E+2   5.43556E+2
  -6.32910E+2   4.32426E+2
  -6.00519E+2   2.07214E+2
  -5.39486E+2   1.43025E+2
  -4.84216E+2  -1.65000E+1
  -4.72024E+2  -5.94316E+1
  -4.16764E+2  -2.57580E+2
  -3.23700E+2  -3.50947E+2
  -2.77944E+2  -4.00032E+2
  -1.26193E+2  -5.23261E+2
  -5.02303E+1  -5.65535E+2
  -9.82818E+0  -6.41848E+2
   7.04839E+1  -6.49195E+2
   1.62676E+2  -7.77498E+2
   2.10217E+2  -7.69256E+2
   2.62317E+2  -7.65717E+2
   3.96128E+2  -8.09142E+2
   4.18072E+2  -8.67071E+2
   5.31973E+2  -7.83707E+2
   5.54608E+2  -8.75533E+2
   6.10472E+2  -8.64417E+2
   6.52147E+2  -9.33350E+2
   7.60185E+2  -8.97519E+2
   7.94319E+2  -8.81486E+2
   8.87660E+2  -8.94360E+2
   8.82368E+2  -8.37862E+2
   8.77832E+2  -8.29266E+2
   9.73183E+2  -7.73732E+2
   9.74649E+2  -8.27484E+2
   9.51457E+2  -7.23848E+2
   9.95937E+2  -7.37987E+2
   9.76490E+2  -7.01256E+2
   9.96231E+2  -6.24216E+2
   1.04216E+3  -7.11600E+2
   1.07245E+3  -6.67783E+2
   1.04632E+3  -6.54702E+2
   1.00660E+3  -5.42031E+2
   1.02047E+3  -5.30684E+2
   1.02397E+3  -5.36006E+2
   1.01550E+3  -5.66117E+2
   8.98316E+2  -4.67683E+2
   9.95838E+2  -4.10039E+2
   9.94723E+2  -3.93242E+2
   9.54129E+2  -4.12801E+2
   8.77223E+2  -4.45533E+2
   8.81566E+2  -4.47006E+2
   8.80493E+2  -4.21101E+2
   8.44459E+2  -3.90187E+2
   8.15255E+2  -4.16697E+2
   7.79490E+2  -4.13992E+2
   7.82120E+2  -3.66488E+2
   6.94634E+2  -3.56620E+2
   6.93379E+2  -3.96497E+2
   7.18348E+2  -3.12109E+2
   6.16820E+2  -3.75000E+2
   6.14745E+2  -3.45992E+2
   5.94316E+2  -3.73265E+2
   5.56940E+2  -3.38061E+2
   5.33426E+2  -3.35280E+2
   5.14447E+2  -3.74732E+2
   4.49303E+2  -3.17531E+2
   4.98394E+2  -4.53942E+2
   4.44601E+2  -3.97182E+2
   4.07126E+2  -3.68064E+2
   3.68624E+2  -4.20134E+2
   3.40768E+2  -3.72306E+2
   2.89958E+2  -4.40567E+2
   3.23003E+2  -3.92203E+2
   2.44023E+2  -4.15793E+2
   2.24349E+2  -4.34587E+2
   2.67642E+2  -4.04341E+2
   1.93262E+2  -4.66587E+2
   2.25108E+2  -4.91804E+2
   1.20392E+2  -4.35392E+2
   8.85507E+1  -4.60678E+2
   3.75378E+1  -5.53699E+2
   1.13273E+2  -4.95818E+2
   3.54699E+1  -4.79061E+2
   1.95633E+1  -4.77374E+2
  -2.09313E+1  -5.40020E+2
   7.37330E+0  -5.35875E+2
   2.20768E+1  -6.34238E+2
  -1.10722E+2  -5.79029E+2
  -3.44957E+1  -6.45975E+2
  -2.35094E+1  -6.94077E+2
  -1.38013E+2  -6.74070E+2
  -8.84347E+1  -6.58089E+2
  -7.85804E+1  -6.87829E+2
  -1.30393E+2  -5.94330E+2
  -1.15194E+2  -7.26206E+2
  -9.34513E+1  -7.46579E+2
  -1.60328E+2  -7.62951E+2
  -1.33796E+2  -7.27705E+2
  -1.19957E+2  -7.33826E+2
  -1.21607E+2  -7.41189E+2
  -1.47369E+2  -8.05425E+2
  -1.58400E+2  -8.01776E+2
  -1.06086E+2  -7.69824E+2
  -1.60927E+2  -8.02597E+2
  -1.40317E+2  -7.74343E+2
  -1.39706E+2  -8.09383E+2
  -1.65703E+2  -7.82108E+2
  -1.85159E+2  -7.91815E+2
  -1.85304E+2  -8.42958E+2
  -1.61376E+2  -8.24967E+2
  -1.90593E+2  -8.27557E+2
  -1.64237E+2  -8.81076E+2
  -1.70476E+2  -9.00569E+2
  -1.78341E+2  -8.38367E+2
  -1.45454E+2  -8.46072E+2
  -1.53148E+2  -8.69102E+2
  -1.15770E+2  -8.38548E+2
  -2.30611E+2  -7.81259E+2
  -1.73794E+2  -7.86708E+2
  -1.23646E+2  -8.31091E+2
  -1.42985E+2  -8.43117E+2
  -2.03848E+2  -8.24187E+2
  -2.20781E+2  -8.65697E+2
  -1.73907E+2  -7.91130E+2
  -1.94991E+2  -7.73813E+2
  -1.94464E+2  -7.98273E+2
  -1.50751E+2  -8.12362E+2
  -2.08438E+2  -7.94241E+2
  -1.67156E+2  -7.24888E+2
  -2.77453E+2  -7.22689E+2
  -1.89349E+2  -7.54240E+2
  -2.42861E+2  -6.77865E+2
  -2.12631E+2  -7.91506E+2
  -2.61970E+2  -6.76187E+2
  -2.79467E+2  -7.89084E+2
  -2.84789E+2  -6.79188E+2
  -2.50459E+2  -6.83059E+2
  -2.71805E+2  -7.24463E+2
  -2.50136E+2  -7.25931E+2
  -3.50343E+2  -7.18718E+2
  -3.69294E+2  -7.25509E+2
  -3.49953E+2  -6.52033E+2
  -3.43682E+2  -6.52700E+2
  -3.53797E+2  -6.62052E+2
  -3.76120E+2  -6.60935E+2
  -4.15243E+2  -6.34821E+2
  -3.89700E+2  -6.31910E+2
  -3.96782E+2  -6.58362E+2
  -4.46065E+2  -6.12441E+2
  -4.85690E+2  -6.60744E+2
  -4.55188E+2  -6.03967E+2
  -4.68999E+2  -6.86911E+2
  -4.74002E+2  -7.05727E+2
  -4.51750E+2  -6.68084E+2
  -4.47262E+2  -7.32057E+2
  -4.81194E+2  -7.13213E+2
  -4.95548E+2  -6.24079E+2
  -4.93251E+2  -6.36609E+2
  -5.33868E+2  -7.15024E+2
  -5.08770E+2  -7.04132E+2
  -5.23393E+2  -5.91067E+2
  -5.23243E+2  -6.93188E+2
  -5.24159E+2  -7.15518E+2
  -5.51557E+2  -6.60531E+2
  -5.27423E+2  -6.73502E+2
  -5.78441E+2  -6.66320E+2
  -5.25869E+2  -5.93740E+2
  -5.80556E+2  -6.44635E+2
  -6.02223E+2  -7.68115E+2
  -6.72706E+2  -6.51075E+2
  -5.69622E+2  -6.83901E+2
  -6.08250E+2  -6.96472E+2
  -5.36337E+2  -7.32840E+2
  -5.77421E+2  -6.67981E+2
  -5.91316E+2  -5.73579E+2
  -5.63806E+2  -6.80362E+2
  -6.11714E+2  -7.40655E+2
  -6.03400E+2  -6.89942E+2
  -5.56792E+2  -6.22456E+2
  -6.16161E+2  -6.93519E+2
  -6.42172E+2  -5.82243E+2
  -6.04273E+2  -6.47618E+2
  -6.31699E+2  -6.88785E+2
  -5.91437E+2  -6.22514E+2
  -5.98336E+2  -6.40161E+2
  -5.89960E+2  -6.25812E+2
  -6.50657E+2  -6.56521E+2
  -6.31527E+2  -6.30578E+2
  -6.66582E+2  -6.46060E+2
  -6.82538E+2  -5.55762E+2
  -6.05804E+2  -6.88539E+2
  -6.78369E+2  -5.78803E+2
  -6.26412E+2  -6.17947E+2
  -6.10447E+2  -6.07124E+2
  -6.57718E+2  -5.98203E+2
  -5.87258E+2  -5.65375E+2
  -6.60566E+2  -5.62560E+2
  -6.27643E+2  -5.79106E+2
  -6.57357E+2  -5.33701E+2
  -6.74533E+2  -5.79815E+2
  -6.78907E+2  -5.30876E+2
  -7.04574E+2  -5.29514E+2
  -7.06826E+2  -5.94634E+2
  -6.85428E+2  -5.79796E+2
  -6.63314E+2  -5.29065E+2
  -7.31583E+2  -5.19430E+2
  -6.92370E+2  -5.93262E+2
  -7.38921E+2  -5.72911E+2
  -7.85828E+2  -5.97596E+2
  -7.53119E+2  -5.27598E+2
  -7.28229E+2  -5.07213E+2
  -7.95888E+2  -5.36118E+2
  -7.67426E+2  -5.27524E+2
  -7.71175E+2  -5.79171E+2
  -7.83575E+2  -5.84136E+2
  -8.15501E+2  -5.45082E+2
  -8.53481E+2  -5.12328E+2
