 
 $NMID
 ID=''
 FMTDAT='(2E13.5)'
 TRAMP=   1.00000E+0
 VOLUME=   1.00000E+0
 $END
  -3.59728E+1  -9.19844E+1
   7.77053E+2   1.51403E+3
  -7.64581E+2  -3.56668E+3
   4.65551E+2   5.38123E+2
   1.47570E+3   1.01157E+3
   3.22492E+3  -1.91130E+3
  -6.40525E+1  -3.16849E+2
  -2.04897E+3  -9.88903E+2
  -4.25622E+3  -1.67356E+3
  -2.33384E+3  -2.64916E+3
  -2.69682E+0   1.58616E+2
   5.73921E+3   1.74495E+3
   2.47536E+3   4.30000E+3
  -1.83730E+2   3.26841E+3
   1.00679E+3  -1.85760E+3
   1.93298E+3  -3.51415E+3
   1.33841E+3  -2.84545E+3
  -1.47059E+3  -2.46885E+3
  -3.08275E+2   1.31865E+3
  -9.53662E+2   5.70294E+2
   1.51562E+3  -1.23868E+3
   3.15853E+3   3.43284E+2
  -6.13482E+2   7.27347E+2
  -3.56440E+3  -7.02647E+2
  -9.85942E+2   2.59761E+2
  -7.83979E+2   2.04288E+3
  -7.48557E+2   1.06353E+3
  -3.79477E+3   2.69001E+2
  -2.18433E+3  -4.31647E+3
   8.54758E+2  -1.65503E+3
   3.43658E+3   3.81722E+3
   3.16961E+2   5.26707E+3
  -1.68067E+3   2.21964E+3
  -2.17889E+3  -3.32811E+2
   3.90192E+2   2.10453E+2
  -2.18443E+3  -3.76493E+3
   1.33999E+3  -3.66036E+3
   1.86285E+3  -8.10746E+2
   3.00746E+3   8.79217E+2
   1.99622E+3  -2.16540E+3
  -6.92243E+2   1.67174E+3
  -3.83574E+3   1.02267E+3
  -4.24943E+3  -5.43538E+3
   2.19901E+3  -6.03565E+3
   3.44956E+3  -2.60906E+3
   1.35097E+3  -1.10286E+3
   3.24092E+3   1.04225E+2
   3.31610E+3   1.69761E+3
   2.36949E+3   2.72761E+3
   1.11298E+2   4.10444E+3
  -3.60682E+3  -3.09091E+2
  -3.11168E+2  -2.55835E+3
   2.60184E+3  -3.27180E+3
   5.21255E+3   1.06031E+3
   1.74198E+3   3.31668E+3
  -6.30939E+2   4.14030E+3
  -2.65716E+3   4.97511E+3
  -5.77865E+3   6.63188E+2
  -5.21124E+3  -1.09160E+3
  -2.74702E+2  -3.22760E+3
   3.35832E+3  -9.00215E+2
   3.38920E+3  -1.95206E+2
   6.92756E+2   1.07063E+3
  -1.83599E+3   1.45220E+3
  -7.15960E+2  -2.24364E+3
   1.54336E+3  -1.67844E+2
  -6.70507E+2   2.16148E+3
  -2.25406E+3   1.21865E+2
  -2.81143E+3  -2.20034E+2
  -2.03285E+2   7.47643E+2
  -1.78873E+3   5.41122E+2
  -8.40569E+2   1.82568E+3
  -3.56877E+3  -2.59760E+3
  -1.82918E+3  -1.94829E+3
  -2.29885E+1  -9.63714E+2
   3.08251E+2   3.99132E+1
  -1.09768E+3   5.86806E+2
   1.17098E+3  -3.21804E+3
   1.35465E+3  -1.40101E+3
   2.07062E+3  -6.91876E+2
   6.95242E+2  -6.34623E+1
  -3.65193E+2   5.61317E+2
   2.85294E+3   9.59641E+2
   2.12139E+3   3.33610E+3
  -1.29890E+3  -2.77678E+1
  -2.73360E+3  -5.46549E+2
  -1.23856E+3  -3.13159E+3
   6.58464E+2  -2.82610E+3
   3.80911E+3  -1.55962E+3
   1.21276E+3   2.52661E+3
  -4.76076E+2   7.40645E+1
   1.49035E+3  -1.40382E+3
   2.69501E+3   1.38220E+3
  -1.63807E+3   4.03447E+3
  -3.26384E+3  -9.51479E+1
   1.22670E+2  -3.16737E+3
   2.36626E+3  -4.71654E+3
   2.02092E+3   9.06828E+2
  -1.29371E+3   2.68466E+3
  -3.00063E+3  -4.65356E+2
  -1.96217E+3  -4.87554E+3
   4.51160E+3  -9.26094E+2
   4.54347E+3   9.09579E+2
  -2.91287E+2   4.68917E+3
  -1.77226E+3   2.12008E+3
  -1.43552E+3  -1.09124E+2
  -1.77390E+3   2.15756E+3
  -3.11805E+3   7.86190E+2
  -2.59433E+3   8.32599E+2
   1.02142E+3  -6.47535E+3
   2.26834E+3  -2.57554E+3
   3.00815E+3   1.81668E+3
   2.99755E+2   9.06115E+2
   2.17096E+3  -6.30831E+2
   2.14797E+3   1.52724E+3
  -2.76989E+3   9.67943E+2
   2.23723E+2   1.06924E+2
   3.22318E+3  -8.37843E+2
  -3.98501E+2   1.26587E+3
   1.29271E+3   4.45429E+2
   2.53880E+2   3.03598E+3
  -1.41630E+3   2.08316E+3
  -1.81174E+3   1.95766E+3
   2.23270E+2  -1.95127E+3
   9.14606E+2   7.17570E+2
   9.59561E+2   3.20910E+3
   8.82875E+1   1.37661E+3
   1.38556E+3   6.44755E+2
   1.71494E+3   4.92202E+2
   1.83233E+2   2.47097E+3
  -5.66357E+2  -9.95028E+2
   1.61273E+2  -3.25904E+2
   3.41269E+3  -8.77018E+2
   2.97090E+3   1.77586E+3
   7.22858E+2   3.60789E+3
  -2.07698E+3   1.25940E+3
  -5.11713E+1   1.95442E+3
  -5.76291E+2   9.81063E+1
  -1.75969E+3   4.00510E+2
   9.78026E+2  -2.23330E+2
  -1.86520E+2  -1.61754E+3
   1.84141E+3  -2.35488E+2
   1.93274E+3   1.67079E+3
  -7.26282E+2   5.33818E+2
  -1.67483E+3   1.49355E+3
  -6.77290E+2  -6.72875E+2
   6.20618E+2  -8.18822E+2
   1.48334E+3  -6.07195E+2
   2.23785E+2  -3.97161E+2
  -6.38150E+2  -1.62690E+2
  -3.27363E+3  -2.03059E+2
  -2.94543E+2   5.73028E+1
  -2.00980E+3  -3.53771E+3
  -3.92943E+2  -2.85371E+3
   1.01147E+3  -2.16318E+3
   8.77083E+2   1.18134E+2
   2.43459E+3   1.62401E+2
   9.93113E+2   1.62817E+3
  -1.54565E+3   1.35640E+3
  -6.01032E+2  -3.05442E+2
  -3.37972E+2   8.78163E+2
  -7.69208E+2  -3.89863E+2
   7.13747E+2  -2.10534E+2
  -1.14744E+2  -1.30540E+3
   1.46990E+3   2.19760E+3
   1.33294E+2   8.39402E+1
  -6.74905E+2  -6.61304E+2
   5.79048E+2  -7.05386E+2
   1.73730E+3  -1.29627E+3
   1.29023E+3   1.17710E+3
   6.35472E+2   3.07911E+3
  -1.19323E+3   1.83304E+3
   3.34998E+1  -7.44635E+2
  -2.06376E+2  -4.54908E+2
   5.45876E+2   1.73208E+3
   8.64559E+2  -5.06376E+2
   5.83403E+1  -1.75658E+2
   1.16954E+3   5.43362E+1
   6.16182E+1  -7.31276E+1
  -3.24958E+3   1.02649E+3
  -3.17750E+3  -1.80785E+3
  -2.54563E+3  -2.16867E+3
  -4.42164E+2  -1.89084E+3
   6.58830E+2   1.39918E+2
   4.05957E+2  -6.20076E+2
   5.98143E+2   7.10155E+2
  -1.80223E+3   7.25595E+2
  -1.08175E+3   2.01286E+3
  -2.28662E+3   3.42032E+2
  -1.70574E+3  -2.33937E+3
   8.31086E+2  -2.69118E+3
   7.31392E+2   1.61220E+3
   1.09599E+3   3.85194E+2
  -1.07241E+3  -2.10533E+2
   1.59092E+2  -1.95155E+3
  -1.32465E+2   9.00293E+2
  -4.34684E+2   7.74353E+1
  -9.61603E+2  -8.92298E+2
   9.85559E+1  -1.79535E+3
   1.04856E+3   2.01846E+3
   3.94446E+2   1.68415E+3
  -2.60219E+3   1.44167E+3
  -2.56508E+3  -1.06385E+3
  -2.44786E+2  -2.02808E+3
   1.15519E+3  -1.29283E+3
   8.64569E+2  -8.24388E+1
  -8.36513E+2  -8.45035E+2
  -1.08639E+3  -8.73724E+2
   1.13842E+3   1.02464E+3
  -2.57558E+1   1.69474E+3
  -6.57591E+2   9.96507E+2
  -3.50542E+3  -1.93438E+3
   1.01703E+3  -3.26595E+3
  -3.57481E+1  -8.15436E+2
   3.83741E+2   5.78969E+2
  -5.37253E+2  -2.36768E+2
  -2.51801E+3   5.85236E+2
  -1.33257E+3  -2.96707E+2
  -2.02066E+2  -3.22309E+2
  -1.25308E+3  -1.13573E+3
   4.78277E+1  -1.49848E+3
   3.30882E+2  -1.32474E+3
  -1.59887E+1   6.01703E+2
  -7.28402E+2  -3.64957E+2
   1.02290E+2   2.07815E+2
  -6.22501E+2   8.94914E+1
   3.49724E+3  -3.67674E+2
   1.06100E+3   1.81266E+3
  -1.44817E+3   7.62305E+2
  -1.32993E+3   3.05007E+2
  -1.60739E+3  -2.00448E+3
   1.89782E+2   4.97979E+2
  -1.30717E+3  -1.40619E+3
  -2.42759E+3  -1.12483E+3
  -4.15900E+2  -2.13432E+3
  -1.50263E+2   6.34289E+2
   1.49869E+3   2.02122E+2
  -1.15536E+3   4.58699E+2
  -8.91621E+2  -1.56140E+3
  -4.84986E+2  -2.16468E+3
   1.12632E+3   1.42962E+3
  -1.04855E+3   7.90410E+2
   8.18288E+2  -6.47272E+2
   6.05323E+2   2.24803E+3
   5.80837E+2   3.59121E+2
   5.30479E+2  -2.11070E+2
  -1.56893E+2  -4.54321E+1
  -7.56664E+2  -2.83017E+3
  -1.84591E+2  -2.21116E+3
   2.48184E+3  -1.36587E+2
   3.41316E+2   4.44792E+2
   5.35052E+2   2.53513E+3
  -1.95051E+2  -1.18764E+3
  -1.28062E+3   1.69367E+3
   1.28983E+2  -1.39109E+3
  -7.23773E+2  -1.11181E+3
   1.07246E+3  -2.01493E+3
  -9.11983E+2   9.69065E+2
   1.69046E+3   4.73770E+2
  -5.63184E+2   2.72896E+3
   1.13170E+3   7.50552E+2
   3.24308E+2   6.13991E+2
  -4.58362E+2  -3.86639E+3
  -1.02002E+3  -9.60539E+2
  -2.59664E+3  -4.58203E+2
  -4.49024E+2  -1.32260E+3
   3.42828E+2   3.97605E+2
  -6.26900E+2   1.93513E+3
  -1.59426E+3  -8.19438E+2
  -1.65645E+3  -2.46288E+3
  -1.56642E+3  -1.63007E+2
   1.73754E+3  -8.00466E+2
   2.43475E+2  -1.79487E+2
  -2.75095E+2  -9.03771E+1
  -4.97645E+2   3.81085E+2
   7.56052E+1   1.69451E+2
   1.87553E+2  -6.49922E+2
  -2.75852E+2  -9.87765E+2
  -1.05839E+3  -5.22020E+2
   7.04321E+2  -1.42719E+3
   4.20366E+3   2.42133E+3
  -3.52978E+2   2.47765E+3
  -1.93051E+3   2.11747E+3
  -2.47129E+3   1.81821E+2
   1.80668E+3  -9.85139E+2
   1.79349E+3   7.08261E+2
  -7.50715E+1   1.17021E+3
  -1.10897E+3  -1.58348E+3
   9.03722E+2  -9.49322E+2
  -1.46342E+3   8.28318E+2
  -7.18366E+2   1.17204E+3
   1.21696E+3   8.37142E+2
  -1.97315E+2  -8.38035E+2
   7.65991E+1   9.91773E+2
   1.13814E+3  -1.36113E+2
   6.71389E+2   2.45357E+3
  -5.17846E+2   5.21525E+2
   4.73024E+2   1.55707E+3
  -9.56379E+2  -6.54428E+2
   1.81178E+3   1.41085E+3
  -1.00195E+3   4.24705E+2
  -1.26367E+2   1.82592E+3
   6.07870E+2  -1.40053E+3
   1.78800E+3   1.19706E+3
   4.01960E+2  -6.90524E+2
  -1.49505E+3  -3.81200E+2
   5.19943E+2   7.09899E+1
   7.42327E+2  -2.17947E+2
  -3.99171E+0   3.43296E+3
   1.63751E+3   2.78818E+3
  -7.69009E+2   4.32974E+2
  -9.55902E+2   1.44656E+3
  -6.70862E+2  -5.46363E+2
   4.60649E+2   1.81413E+3
   4.21865E+1   7.19051E+0
   9.18203E+2  -4.22808E+2
   9.87788E+2   3.25294E+1
   2.10682E+2   6.93093E+2
   7.69012E+2  -6.05975E+2
  -1.18400E+3  -1.37662E+3
   1.22105E+3   9.45460E+2
   1.75295E+3  -1.12369E+3
  -6.34862E+2   1.23348E+3
  -1.23404E+3  -3.39388E+2
   2.57364E+2  -1.73716E+3
   7.14133E+2   2.22585E+3
  -1.38658E+3   1.65224E+3
   1.65056E+3   5.24489E+2
   2.16301E+3  -9.75698E+2
   6.76495E+2  -3.49754E+3
   5.17198E+2   4.05958E+2
  -2.17464E+3   8.15196E+2
  -1.03572E+3  -1.17858E+2
  -1.22766E+3  -1.35890E+3
   8.82490E+2  -1.20711E+3
   8.81363E+2   1.65491E+3
  -3.08219E+2   5.06350E+1
  -8.96554E+1  -1.71401E+3
   5.41266E+2  -1.20266E+2
  -6.22622E+2   3.16089E+3
  -1.34954E+3   2.87534E+2
  -3.21819E+3   6.91995E+2
  -1.13519E+2  -1.84100E+3
   1.72530E+3  -1.05382E+3
   6.48057E+2   1.67767E+2
   6.71525E+1   4.51873E+2
   9.06733E+2  -5.09685E+2
  -8.37832E+2  -6.32814E+1
   1.21121E+3  -1.29544E+3
  -1.52808E+3  -2.45429E+2
  -7.67262E+2  -1.70099E+3
  -7.26135E+2   5.14373E+2
   5.97974E+2  -9.59995E+2
  -2.44914E+1   5.00510E+1
  -1.09095E+2   1.24695E+3
   1.73951E+3  -1.05705E+3
   2.04428E+3  -3.49278E+2
   8.05026E+2  -3.17731E+1
   1.81701E+3  -1.48059E+2
   5.03678E+1  -5.81677E+2
  -1.82189E+3  -1.85624E+1
  -8.62818E+2  -4.69705E+1
  -1.50222E+3   1.72987E+3
  -5.54517E+2  -1.32178E+3
   1.43603E+3  -1.83171E+3
  -8.28082E+2  -1.26810E+3
   1.56877E+3  -1.13438E+3
