 
 $NMID
 ID=''
 FMTDAT='(2E13.5)'
 TRAMP=   1.00000E+0
 VOLUME=   1.00000E+0
 $END
  -1.87235E+4  -5.68006E+3
  -4.22089E+4  -2.74520E+4
  -4.65234E+4  -1.93328E+4
  -4.32801E+4  -1.75672E+4
  -4.46481E+4  -1.94644E+4
  -4.56901E+4  -1.72989E+4
  -4.41174E+4  -1.66952E+4
  -4.46578E+4  -1.76342E+4
  -4.53831E+4  -1.62486E+4
  -4.42724E+4  -1.58945E+4
  -4.43355E+4  -1.63750E+4
  -4.48189E+4  -1.52472E+4
  -4.40682E+4  -1.47969E+4
  -4.41022E+4  -1.53070E+4
  -4.40924E+4  -1.45881E+4
  -4.34279E+4  -1.41493E+4
  -4.33941E+4  -1.43848E+4
  -4.34522E+4  -1.37578E+4
  -4.28142E+4  -1.33181E+4
  -4.27194E+4  -1.35041E+4
  -4.25772E+4  -1.28190E+4
  -4.21524E+4  -1.22658E+4
  -4.20367E+4  -1.21711E+4
  -4.18366E+4  -1.17406E+4
  -4.13507E+4  -1.12839E+4
  -4.11420E+4  -1.10728E+4
  -4.11037E+4  -1.06615E+4
  -4.06316E+4  -1.03951E+4
  -4.03148E+4  -1.02082E+4
  -4.02078E+4  -9.89151E+3
  -3.98973E+4  -9.37289E+3
  -3.98006E+4  -9.13249E+3
  -3.96400E+4  -8.83218E+3
  -3.93062E+4  -8.51913E+3
  -3.90779E+4  -8.26954E+3
  -3.88745E+4  -7.89977E+3
  -3.85433E+4  -7.49103E+3
  -3.83236E+4  -7.27488E+3
  -3.82611E+4  -6.84348E+3
  -3.78775E+4  -6.54731E+3
  -3.77567E+4  -6.36072E+3
  -3.74856E+4  -6.17126E+3
  -3.71600E+4  -5.97242E+3
  -3.68904E+4  -5.65125E+3
  -3.67177E+4  -5.37606E+3
  -3.63846E+4  -5.15479E+3
  -3.62321E+4  -4.93689E+3
  -3.60214E+4  -4.71756E+3
  -3.57995E+4  -4.45511E+3
  -3.55358E+4  -4.15929E+3
  -3.52578E+4  -3.99185E+3
  -3.49829E+4  -3.73577E+3
  -3.46408E+4  -3.45613E+3
  -3.44803E+4  -3.24843E+3
  -3.42603E+4  -2.95025E+3
  -3.40419E+4  -2.71866E+3
  -3.38158E+4  -2.52100E+3
  -3.35601E+4  -2.30075E+3
  -3.33335E+4  -2.17876E+3
  -3.30622E+4  -1.94762E+3
  -3.27462E+4  -1.63807E+3
  -3.26292E+4  -1.45946E+3
  -3.24054E+4  -1.21745E+3
  -3.21962E+4  -1.06043E+3
  -3.19718E+4  -8.73043E+2
  -3.16622E+4  -6.56547E+2
  -3.15141E+4  -4.00411E+2
  -3.12681E+4  -2.58235E+2
  -3.10350E+4  -1.05359E+2
  -3.07692E+4   1.42151E+2
  -3.05650E+4   2.82566E+2
  -3.03371E+4   5.31052E+2
  -3.01300E+4   6.34942E+2
  -2.98628E+4   7.88053E+2
  -2.96507E+4   1.00227E+3
  -2.94311E+4   1.23584E+3
  -2.91603E+4   1.36944E+3
  -2.89366E+4   1.50006E+3
  -2.87689E+4   1.69768E+3
  -2.85283E+4   1.95540E+3
  -2.83114E+4   2.03987E+3
  -2.80776E+4   2.17206E+3
  -2.78603E+4   2.28643E+3
  -2.76293E+4   2.42619E+3
  -2.74377E+4   2.55871E+3
  -2.72401E+4   2.61443E+3
  -2.69399E+4   2.70923E+3
  -2.67449E+4   2.77694E+3
  -2.65220E+4   2.91713E+3
  -2.63589E+4   3.04730E+3
  -2.61196E+4   3.15370E+3
  -2.58976E+4   3.16925E+3
  -2.56464E+4   3.33425E+3
  -2.54385E+4   3.44139E+3
  -2.52769E+4   3.47754E+3
  -2.49043E+4   3.57276E+3
  -2.46642E+4   3.69805E+3
  -2.44653E+4   3.78430E+3
  -2.41881E+4   3.78517E+3
  -2.39778E+4   3.85135E+3
  -2.36896E+4   3.93476E+3
  -2.34258E+4   4.10007E+3
  -2.31878E+4   4.11159E+3
  -2.30042E+4   4.18819E+3
  -2.27435E+4   4.22431E+3
  -2.25079E+4   4.20103E+3
  -2.23832E+4   4.31508E+3
  -2.20213E+4   4.38476E+3
  -2.17788E+4   4.38668E+3
  -2.15065E+4   4.40442E+3
  -2.12896E+4   4.56184E+3
  -2.09937E+4   4.71800E+3
  -2.07553E+4   4.70434E+3
  -2.05794E+4   4.70921E+3
  -2.03544E+4   4.75149E+3
  -2.00919E+4   4.79670E+3
  -1.99202E+4   4.84462E+3
  -1.96629E+4   4.81590E+3
  -1.92974E+4   4.95050E+3
  -1.90924E+4   4.93507E+3
  -1.89247E+4   4.98109E+3
  -1.86534E+4   5.00505E+3
  -1.83693E+4   5.04293E+3
  -1.81599E+4   5.03507E+3
  -1.79108E+4   5.05033E+3
  -1.77280E+4   5.08752E+3
  -1.74874E+4   5.17006E+3
  -1.71978E+4   5.19492E+3
  -1.70607E+4   5.27224E+3
  -1.68117E+4   5.24846E+3
  -1.66122E+4   5.35013E+3
  -1.63592E+4   5.33076E+3
  -1.60823E+4   5.39043E+3
  -1.58770E+4   5.42569E+3
  -1.57097E+4   5.46716E+3
  -1.54983E+4   5.50593E+3
  -1.52361E+4   5.50413E+3
  -1.50485E+4   5.46793E+3
  -1.49467E+4   5.49933E+3
  -1.46083E+4   5.56529E+3
  -1.44465E+4   5.58244E+3
  -1.42341E+4   5.56010E+3
  -1.40492E+4   5.57949E+3
  -1.38528E+4   5.62015E+3
  -1.36777E+4   5.59910E+3
  -1.34308E+4   5.72010E+3
  -1.32465E+4   5.62277E+3
  -1.30883E+4   5.61537E+3
  -1.28723E+4   5.61067E+3
  -1.27265E+4   5.67544E+3
  -1.25650E+4   5.68457E+3
  -1.23786E+4   5.69241E+3
  -1.21795E+4   5.64042E+3
  -1.19897E+4   5.71199E+3
  -1.18250E+4   5.64458E+3
  -1.17197E+4   5.71067E+3
  -1.15134E+4   5.71583E+3
  -1.13071E+4   5.66792E+3
  -1.11136E+4   5.69352E+3
  -1.10051E+4   5.69310E+3
  -1.08692E+4   5.66525E+3
  -1.06803E+4   5.68166E+3
  -1.05469E+4   5.68966E+3
  -1.03766E+4   5.62054E+3
  -1.02113E+4   5.64218E+3
  -1.00433E+4   5.63198E+3
  -9.94185E+3   5.56306E+3
  -9.81832E+3   5.55584E+3
  -9.56306E+3   5.52969E+3
  -9.46329E+3   5.55596E+3
  -9.33386E+3   5.57376E+3
  -9.17026E+3   5.55261E+3
  -9.03927E+3   5.54068E+3
  -8.89533E+3   5.52351E+3
  -8.80373E+3   5.44671E+3
  -8.62420E+3   5.43524E+3
  -8.41019E+3   5.45141E+3
  -8.25122E+3   5.42524E+3
  -8.21765E+3   5.36144E+3
  -8.10533E+3   5.41899E+3
  -7.92808E+3   5.31737E+3
  -7.77674E+3   5.31230E+3
  -7.64034E+3   5.30263E+3
  -7.53887E+3   5.34219E+3
  -7.44501E+3   5.27860E+3
  -7.21333E+3   5.21230E+3
  -7.12015E+3   5.29041E+3
  -7.01208E+3   5.19974E+3
  -6.90316E+3   5.19370E+3
  -6.80164E+3   5.13760E+3
  -6.65137E+3   5.17888E+3
  -6.64832E+3   5.08045E+3
  -6.47489E+3   5.07278E+3
  -6.35482E+3   5.07081E+3
  -6.23548E+3   4.98578E+3
  -6.15336E+3   5.03511E+3
  -6.02864E+3   5.05080E+3
  -5.96050E+3   4.94720E+3
  -5.76811E+3   4.90102E+3
  -5.73998E+3   4.84668E+3
  -5.65701E+3   4.96588E+3
  -5.55953E+3   4.87521E+3
  -5.46145E+3   4.79294E+3
  -5.32164E+3   4.77743E+3
  -5.25823E+3   4.77212E+3
  -5.15394E+3   4.76722E+3
  -5.08889E+3   4.76011E+3
  -5.00446E+3   4.67693E+3
  -4.89723E+3   4.61109E+3
  -4.78074E+3   4.61277E+3
  -4.69314E+3   4.61657E+3
  -4.56678E+3   4.59551E+3
  -4.58118E+3   4.53308E+3
  -4.39689E+3   4.47884E+3
  -4.37891E+3   4.57533E+3
  -4.30416E+3   4.46575E+3
  -4.19362E+3   4.44690E+3
  -4.09778E+3   4.43906E+3
  -4.07343E+3   4.42471E+3
  -3.93017E+3   4.29547E+3
  -3.91272E+3   4.32584E+3
  -3.79459E+3   4.30648E+3
  -3.74098E+3   4.30978E+3
  -3.67922E+3   4.25137E+3
  -3.57919E+3   4.20308E+3
  -3.54110E+3   4.20169E+3
  -3.42641E+3   4.19783E+3
  -3.37317E+3   4.15332E+3
  -3.29813E+3   4.12275E+3
  -3.20012E+3   4.09770E+3
  -3.20876E+3   4.01838E+3
  -3.08783E+3   4.04865E+3
  -3.05160E+3   3.96992E+3
  -2.91086E+3   3.99102E+3
  -2.87414E+3   3.94647E+3
  -2.85166E+3   3.96635E+3
  -2.74470E+3   3.94275E+3
  -2.70789E+3   3.84601E+3
  -2.65930E+3   3.88081E+3
  -2.60520E+3   3.89833E+3
  -2.49695E+3   3.77937E+3
  -2.48397E+3   3.76200E+3
  -2.43670E+3   3.77426E+3
  -2.32935E+3   3.75897E+3
  -2.24934E+3   3.72045E+3
  -2.21320E+3   3.74578E+3
  -2.21235E+3   3.64342E+3
  -2.15797E+3   3.61992E+3
  -2.06861E+3   3.55643E+3
  -2.02593E+3   3.50327E+3
  -1.93478E+3   3.53238E+3
  -1.96514E+3   3.50413E+3
  -1.88397E+3   3.53540E+3
  -1.80249E+3   3.46444E+3
  -1.79885E+3   3.50211E+3
  -1.70416E+3   3.38004E+3
  -1.68769E+3   3.36093E+3
  -1.60465E+3   3.40887E+3
  -1.56543E+3   3.32373E+3
  -1.53202E+3   3.28153E+3
  -1.47994E+3   3.23582E+3
  -1.42734E+3   3.23502E+3
  -1.37345E+3   3.18044E+3
  -1.33850E+3   3.20570E+3
  -1.28158E+3   3.10701E+3
  -1.28360E+3   3.08426E+3
  -1.20750E+3   3.08987E+3
  -1.18926E+3   2.99355E+3
  -1.14981E+3   3.01529E+3
  -1.11479E+3   2.95568E+3
  -1.05470E+3   2.91811E+3
  -1.06037E+3   2.96500E+3
  -9.80107E+2   2.87068E+3
  -9.77215E+2   2.94437E+3
  -9.43427E+2   2.78588E+3
  -8.49753E+2   2.74765E+3
  -9.12377E+2   2.83215E+3
  -7.50129E+2   2.69538E+3
  -7.65598E+2   2.68312E+3
  -7.40124E+2   2.70204E+3
  -6.90429E+2   2.60129E+3
  -7.16435E+2   2.64848E+3
  -6.61712E+2   2.57912E+3
  -6.35855E+2   2.53713E+3
  -5.64492E+2   2.56369E+3
  -5.35056E+2   2.45297E+3
  -5.19334E+2   2.52834E+3
  -4.91467E+2   2.46723E+3
  -4.52709E+2   2.34541E+3
  -4.27834E+2   2.35537E+3
  -4.05590E+2   2.34659E+3
  -3.80146E+2   2.31369E+3
  -3.38191E+2   2.24956E+3
  -3.05747E+2   2.30470E+3
  -2.89665E+2   2.20928E+3
  -2.47465E+2   2.19528E+3
  -2.36759E+2   2.18385E+3
  -1.55441E+2   2.15173E+3
  -2.08499E+2   2.16157E+3
  -1.87437E+2   2.17090E+3
  -1.65453E+2   2.10570E+3
  -1.15249E+2   2.01219E+3
  -7.93345E+1   1.98471E+3
  -1.12592E+2   2.00496E+3
  -1.29715E+1   1.96639E+3
  -7.80585E+1   2.01440E+3
   6.76114E+0   1.96446E+3
  -2.37706E-1   1.93287E+3
   3.85406E+1   1.85638E+3
   4.46977E+1   1.85252E+3
   2.66781E+1   1.84898E+3
   7.75689E+1   1.78236E+3
   4.26283E+1   1.74173E+3
   9.26842E+1   1.64523E+3
   8.43628E+1   1.66575E+3
   1.35081E+2   1.69328E+3
   1.38857E+2   1.70347E+3
   1.17456E+2   1.57639E+3
   1.11154E+2   1.61033E+3
   1.83151E+2   1.54016E+3
   2.58859E+2   1.51272E+3
   1.96454E+2   1.47600E+3
   2.04087E+2   1.42794E+3
   2.32705E+2   1.51986E+3
   1.72004E+2   1.41052E+3
   3.24805E+2   1.35624E+3
   2.89021E+2   1.38731E+3
   2.99939E+2   1.29513E+3
   3.08744E+2   1.35200E+3
   2.44017E+2   1.25666E+3
   2.93772E+2   1.22157E+3
   3.27482E+2   1.24189E+3
   3.25617E+2   1.21502E+3
   3.32022E+2   1.19162E+3
   4.04652E+2   1.18810E+3
   3.63209E+2   1.13312E+3
   3.94117E+2   1.08365E+3
   3.77872E+2   1.10559E+3
   3.83336E+2   1.06288E+3
   3.48810E+2   1.09156E+3
   3.97493E+2   1.00829E+3
   3.89935E+2   1.01028E+3
   4.95019E+2   9.60430E+2
   4.04229E+2   9.26980E+2
   4.07499E+2   9.11281E+2
   3.92786E+2   9.08797E+2
   4.30620E+2   9.24377E+2
   4.03764E+2   8.97491E+2
   4.34513E+2   9.20186E+2
   4.04674E+2   8.51494E+2
   4.12140E+2   8.39086E+2
   5.08879E+2   7.96845E+2
   4.50989E+2   7.83551E+2
   4.12577E+2   7.90823E+2
   4.06587E+2   7.43011E+2
   4.39472E+2   7.45141E+2
   4.54742E+2   7.10139E+2
   3.91073E+2   7.01413E+2
   4.51413E+2   6.26994E+2
   4.39939E+2   7.08554E+2
   4.48969E+2   6.28138E+2
   5.17162E+2   6.33073E+2
   5.39394E+2   5.82393E+2
   4.31897E+2   5.95043E+2
   5.25722E+2   5.95442E+2
   4.56474E+2   5.21696E+2
   4.41673E+2   5.35549E+2
