 LCModel (Version 6.3-1N) Copyright: S.W. Provencher.          Ref.: Magn. Reson. Med. 30:672-679 (1993).                
 Slice_N1@22_17  02-Jun-2023 14:37:38
 27 lines in following concentration table = NCONC+1
    Conc.  %SD /Cr+PCr  Metabolite                                         
 1.73E-06  17% 2.2E-04 Mac                                                 
 3.21E-02  43%   4.090 Cr                                                  
 3.07E-02  45%   3.910 PCr                                                 
 6.99E-02  12%   8.910 Ins                                                 
 9.31E-02   7%  11.858 NAA                                                 
 7.00E-02  11%   8.916 Tau                                                 
 9.10E-03  45%   1.160 PCho                                                
 5.24E-03  73%   0.667 GPC                                                 
 5.22E-02  17%   6.658 Glu                                                 
 2.04E-02  32%   2.597 Gln                                                 
    0.000 999%   0.000 Ala                                                 
 1.16E-02 106%   1.472 Asc                                                 
 1.37E-02  56%   1.745 Asp                                                 
 7.57E-03  54%   0.965 GABA                                                
 1.05E-02  49%   1.338 Glc                                                 
 1.12E-02  35%   1.431 GSH                                                 
    0.000 999%   0.000 Lac                                                 
    0.000 999%   0.000 NAAG                                                
    0.000 999%   0.000 PE                                                  
 1.43E-02  14%   1.827 GPC+PCho                                            
 9.31E-02   7%  11.858 NAA+NAAG                                            
 7.26E-02  15%   9.254 Glu+Gln                                             
 6.28E-02  10%   8.000 Cr+PCr                                              
 9.31E-02   7%  11.858 NAA+NAAG                                            
 6.28E-02  10%   8.000 Cr+PCr                                              
 7.26E-02  15%   9.254 Glu+Gln                                             
   6 lines in following misc. output table
  FWHM = 0.029 ppm    S/N =   4                                            
  Data shift = 0.012 ppm                                                   
  Ph:   6 deg      -9.3 deg/ppm                                            
  alphaB,S = 3.1E+01,   1.5E+01                                            
   18 spline knots.   Ns = 7(1)                                            
  ( 6) 2 infls.   ( 1) 1 extrs.                                            
  654 points on ppm-axis = NY
      4.000000     3.994181     3.988363     3.982544     3.976726     3.970907     3.965088     3.959270     3.953451     3.947633
      3.941814     3.935995     3.930177     3.924358     3.918540     3.912721     3.906902     3.901084     3.895265     3.889446
      3.883628     3.877809     3.871991     3.866172     3.860353     3.854535     3.848716     3.842898     3.837079     3.831260
      3.825442     3.819623     3.813805     3.807986     3.802167     3.796349     3.790530     3.784712     3.778893     3.773074
      3.767256     3.761437     3.755619     3.749800     3.743981     3.738163     3.732344     3.726526     3.720707     3.714888
      3.709070     3.703251     3.697433     3.691614     3.685795     3.679977     3.674158     3.668339     3.662521     3.656702
      3.650884     3.645065     3.639246     3.633428     3.627609     3.621791     3.615972     3.610153     3.604335     3.598516
      3.592698     3.586879     3.581060     3.575242     3.569423     3.563605     3.557786     3.551967     3.546149     3.540330
      3.534512     3.528693     3.522874     3.517056     3.511237     3.505419     3.499600     3.493781     3.487963     3.482144
      3.476326     3.470507     3.464688     3.458870     3.453051     3.447232     3.441414     3.435595     3.429777     3.423958
      3.418139     3.412321     3.406502     3.400684     3.394865     3.389046     3.383228     3.377409     3.371591     3.365772
      3.359953     3.354135     3.348316     3.342498     3.336679     3.330860     3.325042     3.319223     3.313405     3.307586
      3.301767     3.295949     3.290130     3.284312     3.278493     3.272674     3.266856     3.261037     3.255219     3.249400
      3.243581     3.237763     3.231944     3.226125     3.220307     3.214488     3.208670     3.202851     3.197032     3.191214
      3.185395     3.179577     3.173758     3.167939     3.162121     3.156302     3.150484     3.144665     3.138846     3.133028
      3.127209     3.121391     3.115572     3.109753     3.103935     3.098116     3.092298     3.086479     3.080660     3.074842
      3.069023     3.063205     3.057386     3.051567     3.045749     3.039930     3.034111     3.028293     3.022474     3.016656
      3.010837     3.005018     2.999200     2.993381     2.987563     2.981744     2.975925     2.970107     2.964288     2.958470
      2.952651     2.946832     2.941014     2.935195     2.929377     2.923558     2.917739     2.911921     2.906102     2.900284
      2.894465     2.888646     2.882828     2.877009     2.871191     2.865372     2.859553     2.853735     2.847916     2.842098
      2.836279     2.830460     2.824642     2.818823     2.813004     2.807186     2.801367     2.795549     2.789730     2.783911
      2.778093     2.772274     2.766456     2.760637     2.754818     2.749000     2.743181     2.737363     2.731544     2.725725
      2.719907     2.714088     2.708270     2.702451     2.696632     2.690814     2.684995     2.679177     2.673358     2.667539
      2.661721     2.655902     2.650084     2.644265     2.638446     2.632628     2.626809     2.620991     2.615172     2.609353
      2.603535     2.597716     2.591897     2.586079     2.580260     2.574442     2.568623     2.562804     2.556986     2.551167
      2.545349     2.539530     2.533711     2.527893     2.522074     2.516256     2.510437     2.504618     2.498800     2.492981
      2.487163     2.481344     2.475525     2.469707     2.463888     2.458070     2.452251     2.446432     2.440614     2.434795
      2.428977     2.423158     2.417339     2.411521     2.405702     2.399884     2.394065     2.388246     2.382428     2.376609
      2.370790     2.364972     2.359153     2.353335     2.347516     2.341697     2.335879     2.330060     2.324242     2.318423
      2.312604     2.306786     2.300967     2.295149     2.289330     2.283511     2.277693     2.271874     2.266056     2.260237
      2.254418     2.248600     2.242781     2.236963     2.231144     2.225325     2.219507     2.213688     2.207870     2.202051
      2.196232     2.190414     2.184595     2.178777     2.172958     2.167139     2.161321     2.155502     2.149683     2.143865
      2.138046     2.132228     2.126409     2.120590     2.114772     2.108953     2.103135     2.097316     2.091497     2.085679
      2.079860     2.074042     2.068223     2.062404     2.056586     2.050767     2.044949     2.039130     2.033311     2.027493
      2.021674     2.015856     2.010037     2.004218     1.998400     1.992581     1.986763     1.980944     1.975126     1.969307
      1.963489     1.957670     1.951852     1.946033     1.940215     1.934397     1.928578     1.922760     1.916941     1.911123
      1.905304     1.899486     1.893667     1.887849     1.882030     1.876212     1.870393     1.864575     1.858756     1.852938
      1.847119     1.841301     1.835482     1.829664     1.823845     1.818027     1.812208     1.806390     1.800571     1.794753
      1.788934     1.783116     1.777297     1.771479     1.765660     1.759842     1.754023     1.748205     1.742386     1.736568
      1.730749     1.724931     1.719113     1.713294     1.707476     1.701657     1.695839     1.690020     1.684202     1.678383
      1.672565     1.666746     1.660928     1.655109     1.649291     1.643472     1.637654     1.631835     1.626017     1.620198
      1.614380     1.608561     1.602743     1.596924     1.591106     1.585287     1.579469     1.573650     1.567832     1.562013
      1.556195     1.550376     1.544558     1.538739     1.532921     1.527102     1.521284     1.515465     1.509647     1.503829
      1.498010     1.492192     1.486373     1.480555     1.474736     1.468918     1.463099     1.457281     1.451462     1.445644
      1.439825     1.434007     1.428188     1.422370     1.416551     1.410733     1.404914     1.399096     1.393277     1.387459
      1.381640     1.375822     1.370003     1.364185     1.358366     1.352548     1.346729     1.340911     1.335092     1.329274
      1.323455     1.317637     1.311818     1.306000     1.300182     1.294363     1.288545     1.282726     1.276908     1.271089
      1.265271     1.259452     1.253634     1.247815     1.241997     1.236178     1.230360     1.224541     1.218723     1.212904
      1.207086     1.201267     1.195449     1.189630     1.183812     1.177993     1.172175     1.166356     1.160538     1.154719
      1.148901     1.143082     1.137264     1.131445     1.125627     1.119808     1.113990     1.108171     1.102353     1.096534
      1.090716     1.084898     1.079079     1.073261     1.067442     1.061624     1.055805     1.049987     1.044168     1.038350
      1.032531     1.026713     1.020894     1.015076     1.009257     1.003439     0.997620     0.991802     0.985983     0.980165
      0.974346     0.968528     0.962709     0.956891     0.951072     0.945254     0.939435     0.933617     0.927798     0.921980
      0.916161     0.910343     0.904524     0.898706     0.892887     0.887069     0.881251     0.875432     0.869614     0.863795
      0.857977     0.852158     0.846340     0.840521     0.834703     0.828884     0.823066     0.817247     0.811429     0.805610
      0.799792     0.793973     0.788155     0.782336     0.776518     0.770699     0.764881     0.759062     0.753244     0.747425
      0.741607     0.735788     0.729970     0.724151     0.718333     0.712514     0.706696     0.700877     0.695059     0.689240
      0.683422     0.677603     0.671785     0.665967     0.660148     0.654330     0.648511     0.642693     0.636874     0.631056
      0.625237     0.619419     0.613600     0.607782     0.601963     0.596145     0.590326     0.584508     0.578689     0.572871
      0.567052     0.561234     0.555415     0.549597     0.543778     0.537960     0.532141     0.526323     0.520504     0.514686
      0.508867     0.503049     0.497230     0.491412     0.485593     0.479775     0.473956     0.468138     0.462319     0.456501
      0.450682     0.444864     0.439045     0.433227     0.427408     0.421590     0.415771     0.409953     0.404134     0.398316
      0.392497     0.386679     0.380860     0.375042     0.369223     0.363405     0.357586     0.351767     0.345949     0.340130
      0.334312     0.328493     0.322675     0.316856     0.311038     0.305219     0.299401     0.293582     0.287764     0.281945
      0.276127     0.270308     0.264490     0.258671     0.252853     0.247034     0.241216     0.235397     0.229579     0.223760
      0.217942     0.212123     0.206305     0.200486
 NY phased data points follow
  -2.54411E-01 -1.72508E-01 -4.97446E-01 -2.02094E-01 -3.54368E-01 -2.33848E-01 -2.10267E-01 -1.80417E-01  5.80998E-02  9.18451E-02
   2.51541E-01  1.41318E-01  4.15465E-01  2.56682E-01  1.84631E-01  2.06210E-01  3.70778E-01  1.27482E-01  5.47128E-02  2.87393E-01
   2.02905E-01  2.36555E-01  4.23354E-02  3.01973E-02 -5.17730E-02 -3.60482E-01 -1.67104E-01  1.80443E-01 -2.89248E-01 -1.06561E-01
   1.85954E-01  2.40663E-01  1.60826E-02 -2.05249E-01 -1.64217E-01 -9.06480E-02  2.92742E-02 -5.09183E-01 -3.49570E-01 -2.90907E-01
  -4.98955E-02  1.64272E-01  2.20275E-01  2.48994E-01 -5.13260E-02  2.35322E-01  3.21805E-01  3.24780E-01  2.33209E-01  2.30072E-01
   4.54300E-02 -1.67848E-01 -1.61970E-01  1.00933E-01  1.28131E-01 -2.93110E-01 -2.05645E-01 -2.83084E-02 -8.81607E-03 -2.08402E-01
  -2.66738E-02  1.21660E-01 -2.57946E-01 -2.47858E-01 -2.62605E-01 -3.22591E-01 -1.18365E-01  2.30186E-01  3.86707E-01  1.88593E-01
   1.85658E-01  8.14334E-02 -3.86834E-02  2.22315E-01  2.37001E-01 -8.20083E-02 -7.29462E-02 -3.19554E-03 -1.81153E-01 -3.45190E-01
  -1.63612E-01 -5.44701E-02 -1.99237E-01  4.78231E-02  1.09845E-01  7.77798E-02  2.51620E-02  2.83580E-01  2.12869E-01 -2.99186E-03
   3.26521E-01  3.37485E-01  5.79754E-02 -1.78674E-01  3.15571E-01 -6.24851E-02 -2.50487E-01  7.00621E-02 -2.27440E-01 -1.31550E-01
  -3.36447E-01 -3.42374E-01 -1.94875E-01  7.12672E-02  2.69934E-01  3.90420E-01  3.51594E-01  2.20076E-01  3.40115E-01  3.44254E-01
   4.90075E-01  2.90088E-01  4.24333E-01  4.54075E-01  3.53388E-01  4.09258E-01  1.62096E-01  3.30443E-01  1.11191E-01  1.77731E-01
   1.09040E-01 -9.44033E-03  5.96160E-02 -7.55006E-02 -3.84669E-02 -4.15780E-01  5.46869E-02 -1.63254E-01 -5.36269E-01 -6.12428E-01
  -6.71054E-01 -4.29079E-01 -6.10815E-01 -3.70409E-01 -6.61946E-01 -3.98328E-01 -7.09427E-01 -6.66854E-01 -3.21192E-01 -5.52123E-01
  -2.97049E-01 -4.26203E-01  3.82892E-02 -1.58312E-01 -1.37334E-01  1.30715E-01  3.08418E-01  1.75198E-01 -1.21371E-01  9.52385E-02
  -9.22640E-02  2.09036E-01  2.42727E-01  1.75358E-01  2.66744E-01  2.56850E-01  2.56848E-01  2.78301E-01  2.43398E-01  3.85006E-01
   5.50148E-01  4.40298E-01  5.09533E-01  6.58724E-01  5.05349E-01  5.08273E-01  8.27606E-01  1.79883E-01 -3.83601E-01 -5.92653E-01
  -5.74310E-01 -4.81284E-01 -6.23536E-01 -5.87921E-01 -4.87818E-01 -3.01278E-01 -4.93858E-01 -3.14987E-01 -9.28297E-02 -2.62518E-01
  -4.31110E-01 -2.37806E-01 -4.21259E-01 -3.90872E-01 -1.69856E-01 -4.98916E-01 -2.05843E-01 -2.22361E-01 -2.15806E-01 -2.43140E-01
  -3.15269E-01 -3.74347E-01 -2.15154E-01 -1.35322E-01 -3.47653E-01  6.61302E-02 -1.84401E-02 -1.92639E-04 -1.38538E-01  1.13022E-01
  -4.21007E-02 -2.48037E-01  2.75035E-01 -1.24902E-01  1.67594E-01  1.44445E-01 -9.44491E-02  1.32092E-02  7.92907E-02  2.24116E-01
   1.83697E-01 -1.91390E-02 -2.31996E-01 -7.08264E-02 -3.13472E-01 -4.00150E-02  3.18665E-02 -5.79360E-03  6.61609E-02 -2.00499E-01
   2.58134E-03  1.15416E-01  2.31557E-01  1.78540E-01  1.02402E-01  1.39060E-01  2.63484E-01  1.26060E-01  6.30044E-02  1.39139E-01
   3.34448E-01  5.90924E-01  2.02280E-01  1.39406E-01  1.49426E-01  2.63751E-01  1.34991E-01 -1.33459E-01  9.89521E-02 -7.14380E-02
  -2.09388E-01  5.82615E-03  3.25332E-02 -1.22168E-01  4.10116E-02  9.99616E-02 -1.99023E-01 -1.03955E-01  9.92477E-02 -1.11523E-01
   5.02248E-03  2.95033E-02 -1.80762E-01  6.67778E-02 -4.29577E-03  2.29742E-01  2.77303E-01 -7.40396E-02  1.88340E-01  2.01592E-01
   3.41823E-01  2.27333E-01  1.45214E-02  3.42347E-01  6.76760E-02  1.50748E-02  1.01449E-01 -2.76821E-01 -1.09555E-03  2.07420E-01
   2.90750E-02  3.05790E-01  3.37684E-01  8.64254E-03  4.66828E-04  4.72433E-02 -1.04183E-01 -2.72802E-03 -7.53310E-02 -8.40022E-02
   3.13424E-02 -1.40959E-01  3.78515E-02 -4.69028E-03 -4.31305E-02  1.29614E-01  2.01302E-01  3.83043E-01  5.42413E-01  2.80694E-01
   2.03499E-01  3.83639E-01  1.72890E-01  1.89372E-01  4.83785E-02  2.44337E-01  1.37837E-01 -6.55839E-02  1.14291E-01 -2.06193E-02
   1.69184E-01  1.32700E-01  2.00147E-01  1.91267E-01  2.87397E-01  5.46295E-01  3.61891E-01  4.85491E-01  4.49249E-01  4.44242E-02
   3.27553E-01  2.33731E-01  1.13723E-03  1.64708E-01  1.45780E-01  3.39524E-01 -2.19187E-01  2.62965E-02 -1.61465E-02 -3.95161E-01
  -3.34359E-02 -3.90871E-01 -2.05102E-01 -3.17050E-02 -1.02874E-01 -4.02193E-01 -1.12285E-01  2.40307E-02 -3.31691E-01  6.97705E-02
  -4.12617E-02 -3.16094E-02  1.24675E-01  1.07195E-01 -7.36421E-02 -4.70816E-02 -8.12839E-02 -3.35859E-01 -1.68789E-02 -4.73328E-01
  -5.39827E-01 -5.29043E-01 -1.37223E+00 -1.46823E+00 -1.42212E+00 -7.12648E-01 -5.79488E-01 -5.11284E-01  3.41420E-03 -2.44424E-01
   6.34837E-02  2.95752E-02 -5.06117E-02 -4.83804E-02  2.12230E-01  8.10329E-02 -4.68548E-03  2.77828E-01 -4.50683E-02  7.59597E-02
  -5.33472E-02  1.89048E-01  4.62860E-02  4.33037E-02 -2.83645E-03 -2.01041E-01  1.21996E-01 -7.66136E-02 -5.08286E-02 -7.67656E-02
   2.94753E-01 -3.48441E-03  6.53998E-02  1.38663E-01 -1.01252E-01  4.37188E-01  7.12176E-02  7.94729E-02  1.49679E-01  2.01095E-01
   2.03508E-01  1.52277E-01  2.51908E-01  2.37390E-01  3.12660E-01 -1.35386E-02 -5.91685E-02  9.18996E-02  1.51659E-01  6.61110E-02
   1.32116E-01 -3.09691E-03  3.01431E-01  5.77109E-01  1.53305E-01  1.38522E-01  5.80278E-02  3.31852E-01  2.01479E-01  2.05391E-01
   1.75742E-01 -1.22183E-01  7.70060E-02  3.46162E-02 -1.08863E-02 -3.07758E-01 -1.54732E-02 -5.07985E-02 -6.36609E-02 -3.04740E-02
  -2.52775E-01  8.36573E-02 -6.99601E-02  2.69084E-02 -1.42545E-02 -2.36067E-02 -3.83921E-01 -3.57349E-01  3.81166E-02 -1.35891E-01
   1.82732E-01  2.41537E-02 -2.50596E-01 -2.32202E-01 -3.86787E-02 -5.22501E-02 -1.62043E-01 -2.01664E-01  4.76857E-02  9.49171E-02
  -1.20768E-01  1.79827E-01  8.58445E-02  1.94709E-01  3.81183E-02 -8.42701E-02  1.01157E-03 -1.28301E-01 -2.49103E-01 -2.48899E-01
   5.59109E-03  2.22296E-01  2.73321E-01 -2.65729E-01 -3.53856E-02 -7.76877E-02 -9.12070E-03  4.72827E-01  1.53488E-01  2.63573E-01
   3.71870E-01  3.09246E-01  1.98126E-01  1.29547E-01 -1.65645E-01  3.03158E-01  3.44370E-01 -7.66277E-02  2.79162E-02 -1.61236E-01
   1.35044E-01 -2.14598E-01 -2.13870E-02  1.72040E-01  5.64079E-02  1.05974E-01 -7.12785E-02 -5.98448E-02 -3.14470E-01 -1.36642E-01
  -2.94996E-01 -5.24114E-02  1.24275E-02 -7.96397E-02 -8.37188E-02 -1.42650E-02  1.80626E-01 -2.09446E-01 -3.96907E-02 -5.46307E-02
  -1.01010E-01 -2.22861E-01 -1.57584E-01  6.04068E-03  2.11538E-01  3.79831E-02 -1.79016E-01  2.03831E-01 -1.56473E-01 -1.19508E-01
   1.12003E-01 -4.63000E-02 -2.34764E-01  4.57992E-02  5.89033E-02 -4.43586E-02  1.66522E-01 -1.53483E-02 -9.05110E-04  1.95852E-01
   9.88467E-02  1.32933E-02  1.01670E-01 -1.54199E-02  2.06344E-01 -4.49210E-02  2.28692E-01  5.12221E-01  9.96473E-02  1.06339E-01
  -8.06490E-02  4.41076E-02  1.13172E-01 -8.40550E-02 -5.30159E-02  2.86085E-01 -4.80532E-02  1.23694E-01  2.96040E-01 -6.70136E-02
  -1.06532E-01 -2.40598E-01 -7.71219E-02 -1.54020E-01 -1.11117E-01 -1.36192E-01  6.38437E-02 -4.44606E-01 -5.46847E-01 -1.22088E-01
  -5.47158E-01 -3.48871E-01 -3.31320E-01 -2.57866E-01  1.61754E-02  4.84612E-02 -2.09511E-01 -1.24871E-01 -2.27763E-01 -1.86268E-01
   1.18642E-01 -9.54818E-02  7.12326E-02 -2.10224E-01 -2.38074E-01  1.37178E-01  1.34132E-01 -2.07057E-01 -1.27524E-01  2.13362E-01
   1.56986E-02  1.71801E-01  1.80223E-01 -5.83209E-02  8.54202E-02  2.71587E-01  1.04407E-01  3.29369E-02  1.00387E-01  1.79725E-01
   1.31699E-01  5.24771E-02  2.90387E-01  1.83707E-01  7.45337E-02  1.46172E-01  1.90497E-02  6.38753E-02  2.58132E-01 -3.07223E-02
  -6.90433E-02  8.79636E-02 -1.00481E-01  2.25044E-02 -2.88667E-01 -3.19719E-01 -7.41354E-02 -7.21864E-02 -3.89734E-02 -3.04352E-01
  -1.47733E-01  7.79005E-02 -9.38931E-03 -5.25523E-02 -4.82425E-03 -1.49021E-01 -1.06974E-01  1.94114E-03 -8.57625E-02 -3.04023E-01
  -4.32947E-01 -7.26487E-03 -8.83550E-02 -2.75477E-02  2.77840E-01 -1.28491E-01 -1.48290E-01  1.19295E-01 -7.89332E-02 -3.24610E-02
  -1.74477E-01 -8.37982E-02  2.47376E-01 -1.55755E-01  1.62189E-02  5.85223E-02 -5.84849E-02 -1.33896E-02 -2.28542E-02  1.18761E-01
  -3.65857E-02 -8.48794E-04  8.63805E-02  2.28951E-01  2.56213E-01  1.76981E-01  3.27955E-02 -4.21906E-02  4.04155E-02 -9.80874E-03
  -2.25153E-02  1.94228E-01  8.21981E-02  5.84451E-02  3.71048E-01 -7.00574E-02  9.49086E-02  1.99555E-01  1.45041E-01  4.61024E-01
   1.53310E-01  2.78082E-01  1.72590E-01 -1.19826E-02  6.58088E-03 -3.41094E-02  6.84424E-02  7.77873E-02  1.58846E-01  3.41413E-02
  -1.01176E-02  1.28403E-01  9.53977E-02  1.05155E-01  1.97341E-01 -8.86485E-02 -3.52387E-02  3.55936E-02  8.46022E-02  2.82951E-01
  -1.00299E-01  1.77714E-01 -2.53109E-02 -3.86294E-01
 NY points of the fit to the data follow
   3.94589E-02  3.67915E-02  3.17803E-02  2.89177E-02  2.81162E-02  3.99127E-02  5.70091E-02  6.61029E-02  9.28478E-02  1.31183E-01
   1.68813E-01  2.54930E-01  3.62714E-01  4.00393E-01  4.19701E-01  4.33147E-01  4.02431E-01  3.18150E-01  2.24369E-01  1.74603E-01
   1.21230E-01  8.02980E-02  4.05760E-02  2.25056E-03 -2.32700E-02 -4.48902E-02 -6.29547E-02 -7.64787E-02 -8.71027E-02 -9.72549E-02
  -1.05728E-01 -1.14261E-01 -1.24780E-01 -1.38460E-01 -1.48881E-01 -1.59571E-01 -1.66966E-01 -1.63140E-01 -1.49399E-01 -1.06238E-01
  -2.04219E-02  6.82092E-02  1.32716E-01  1.79367E-01  2.06852E-01  2.26133E-01  2.17896E-01  1.87648E-01  1.51321E-01  1.14088E-01
   8.15979E-02  4.50788E-02  1.52889E-02 -1.41386E-02 -4.67015E-02 -8.25733E-02 -1.18120E-01 -1.39760E-01 -1.59813E-01 -1.88425E-01
  -1.91627E-01 -2.10330E-01 -2.38928E-01 -1.91914E-01 -1.54925E-01 -1.46560E-01 -4.77062E-02  7.03363E-02  1.56750E-01  2.05788E-01
   2.54219E-01  2.77553E-01  2.22041E-01  1.68064E-01  1.03712E-01  4.63752E-02 -2.23801E-02 -9.75101E-02 -1.55009E-01 -2.44276E-01
  -2.95220E-01 -2.12795E-01 -9.70949E-02 -4.32105E-03  1.02695E-01  2.25796E-01  3.04104E-01  3.04329E-01  2.92868E-01  2.64024E-01
   2.27492E-01  1.86626E-01  1.36592E-01  8.20896E-02  3.04391E-02 -2.63207E-02 -1.02289E-01 -1.91142E-01 -2.66677E-01 -3.10666E-01
  -2.68525E-01 -1.67665E-01 -3.09344E-02  9.19145E-02  1.70500E-01  2.30302E-01  2.54494E-01  2.78898E-01  2.80333E-01  2.81472E-01
   2.77399E-01  2.73218E-01  2.68514E-01  2.64301E-01  2.59679E-01  2.55421E-01  2.46267E-01  2.40729E-01  2.33759E-01  2.10299E-01
   1.94916E-01  1.60964E-01  9.26793E-02  2.15263E-02 -2.98549E-02 -1.23230E-01 -2.15063E-01 -3.18991E-01 -4.17809E-01 -5.68079E-01
  -6.33572E-01 -6.14769E-01 -5.55084E-01 -4.70987E-01 -5.04013E-01 -5.61319E-01 -6.83672E-01 -6.40377E-01 -5.16924E-01 -3.70920E-01
  -2.53751E-01 -1.79205E-01 -8.65914E-02 -3.05849E-02  2.14138E-02  5.12324E-02  7.56511E-02  9.64235E-02  1.14666E-01  1.30898E-01
   1.46319E-01  1.61359E-01  1.76355E-01  1.91446E-01  2.08275E-01  2.26968E-01  2.48374E-01  2.73978E-01  3.05419E-01  3.47394E-01
   4.04720E-01  3.97925E-01  4.20590E-01  4.73399E-01  4.73606E-01  5.00885E-01  5.29979E-01  1.55869E-01 -3.36812E-01 -6.18639E-01
  -6.10979E-01 -5.40463E-01 -5.69086E-01 -4.87943E-01 -4.62478E-01 -3.78699E-01 -3.31960E-01 -2.94780E-01 -2.72951E-01 -2.58284E-01
  -2.43585E-01 -2.22815E-01 -2.08881E-01 -1.97443E-01 -1.93321E-01 -1.87418E-01 -1.81771E-01 -1.74259E-01 -1.64977E-01 -1.60051E-01
  -1.51555E-01 -1.43253E-01 -1.32707E-01 -1.23677E-01 -1.14053E-01 -1.04923E-01 -9.54392E-02 -8.65518E-02 -7.83380E-02 -6.98702E-02
  -6.10284E-02 -5.04439E-02 -3.90300E-02 -3.20762E-02 -3.28602E-02 -3.64958E-02 -3.53405E-02 -2.64645E-02 -2.14757E-02 -3.00976E-02
  -4.38817E-02 -5.27697E-02 -5.43082E-02 -5.52692E-02 -5.58024E-02 -5.47378E-02 -5.33534E-02 -5.02173E-02 -4.15049E-02 -2.94720E-02
  -1.94042E-02 -4.51831E-03  1.74321E-02  5.50194E-02  1.22242E-01  1.95626E-01  2.43275E-01  2.42777E-01  2.24088E-01  2.65985E-01
   3.29871E-01  3.15377E-01  2.27796E-01  1.33338E-01  7.74510E-02  3.21682E-02 -1.01887E-02 -3.79570E-02 -6.10835E-02 -7.18813E-02
  -8.12328E-02 -8.81483E-02 -9.34499E-02 -9.65056E-02 -9.91561E-02 -1.02512E-01 -1.05392E-01 -1.07441E-01 -1.10365E-01 -1.10968E-01
  -1.07843E-01 -1.11798E-01 -1.23629E-01 -1.21579E-01 -1.21261E-01 -1.21615E-01 -6.39157E-02 -9.34616E-03  1.39324E-02  4.93782E-02
   9.23542E-02  1.51125E-01  1.46767E-01  1.43562E-01  1.57534E-01  1.54930E-01  1.53457E-01  1.32425E-01  1.28097E-01  1.32177E-01
   1.27532E-01  1.20895E-01  1.00994E-01  7.40812E-02  4.90813E-02  1.17853E-02 -1.63319E-02 -5.24542E-02 -8.28495E-02 -1.09817E-01
  -1.38917E-01 -1.65811E-01 -1.72000E-01 -1.57729E-01 -1.00667E-01 -6.19034E-03  8.81674E-02  1.74896E-01  2.26326E-01  2.49761E-01
   2.42869E-01  2.19978E-01  2.04361E-01  1.81279E-01  1.69264E-01  1.64925E-01  1.64767E-01  1.70892E-01  1.73181E-01  1.74606E-01
   1.72786E-01  1.68396E-01  1.64822E-01  1.58971E-01  1.54301E-01  1.48226E-01  1.41780E-01  1.34642E-01  1.25509E-01  1.14416E-01
   9.92389E-02  8.17714E-02  5.95927E-02  3.34907E-02  1.95281E-03 -3.40147E-02 -7.44907E-02 -1.14711E-01 -1.54178E-01 -1.83260E-01
  -2.03660E-01 -2.18693E-01 -2.15580E-01 -2.06784E-01 -1.76705E-01 -1.41534E-01 -9.44209E-02 -4.70419E-02 -6.51334E-03  2.46308E-02
   3.21377E-02  3.31524E-02  1.57484E-02  1.59328E-03 -1.56613E-02 -5.71122E-02 -1.38391E-01 -1.68187E-01 -2.09582E-01 -3.23293E-01
  -4.26341E-01 -7.04423E-01 -1.24893E+00 -1.47361E+00 -1.26102E+00 -8.71287E-01 -6.34624E-01 -5.04837E-01 -3.08023E-01 -2.11251E-01
  -9.93303E-02 -6.60025E-02 -4.18511E-02 -2.50322E-02 -1.31622E-02 -3.62881E-03  2.65027E-03  6.47184E-03  7.65620E-03  6.40864E-03
   1.57002E-03 -3.10665E-03 -1.14516E-02 -1.62051E-02 -1.99032E-02 -1.87627E-02 -1.30684E-02 -7.30641E-03  2.01175E-03  8.23184E-03
   1.68392E-02  2.26558E-02  2.93556E-02  3.44527E-02  3.86676E-02  4.21608E-02  4.55136E-02  4.89903E-02  5.22115E-02  5.51171E-02
   5.74497E-02  5.97620E-02  6.22918E-02  6.47716E-02  6.72898E-02  6.92260E-02  7.08335E-02  7.20181E-02  7.40183E-02  7.59257E-02
   7.82201E-02  8.00703E-02  8.12811E-02  8.16055E-02  8.06008E-02  7.92562E-02  7.74320E-02  7.54741E-02  7.28988E-02  6.96860E-02
   6.57473E-02  6.14276E-02  5.69292E-02  5.18885E-02  4.65099E-02  4.15806E-02  3.73408E-02  3.29071E-02  2.82763E-02  2.42452E-02
   2.03341E-02  1.70825E-02  1.40161E-02  1.13250E-02  8.80893E-03  6.39368E-03  4.27601E-03  2.25935E-03  4.73553E-04 -7.97499E-04
  -1.72231E-03 -2.63217E-03 -2.89565E-03 -2.21598E-03 -9.88527E-04  5.27468E-04  2.69211E-03  5.56061E-03  8.70388E-03  1.24076E-02
   1.59750E-02  1.85730E-02  2.09430E-02  2.39830E-02  2.84540E-02  3.35762E-02  3.91055E-02  4.46379E-02  5.02864E-02  5.67298E-02
   6.41029E-02  7.18753E-02  7.99636E-02  8.82320E-02  9.62751E-02  1.04411E-01  1.12291E-01  1.19477E-01  1.25345E-01  1.29697E-01
   1.32540E-01  1.33879E-01  1.34267E-01  1.33490E-01  1.31752E-01  1.28858E-01  1.24629E-01  1.18704E-01  1.11529E-01  1.04318E-01
   9.70246E-02  8.97590E-02  8.23554E-02  7.50415E-02  6.76543E-02  6.12920E-02  5.55090E-02  5.00581E-02  4.48354E-02  4.03322E-02
   3.66631E-02  3.33917E-02  3.07595E-02  2.84658E-02  2.74583E-02  2.77936E-02  2.88282E-02  3.03160E-02  3.25139E-02  3.53086E-02
   3.83541E-02  4.17370E-02  4.56976E-02  4.93830E-02  5.25149E-02  5.51178E-02  5.73372E-02  5.89111E-02  6.04902E-02  6.24557E-02
   6.38740E-02  6.45205E-02  6.42588E-02  6.33660E-02  6.23956E-02  6.07627E-02  5.84782E-02  5.58758E-02  5.35006E-02  5.14160E-02
   4.87139E-02  4.60598E-02  4.33695E-02  4.07416E-02  3.80517E-02  3.51106E-02  3.20594E-02  2.91249E-02  2.68057E-02  2.45599E-02
   2.18446E-02  1.87214E-02  1.54812E-02  1.16452E-02  6.79490E-03  1.06416E-03 -5.01704E-03 -1.14606E-02 -1.88745E-02 -2.75847E-02
  -3.76578E-02 -4.92366E-02 -6.11997E-02 -7.32111E-02 -8.50955E-02 -9.67204E-02 -1.07662E-01 -1.17287E-01 -1.25931E-01 -1.33514E-01
  -1.39539E-01 -1.42792E-01 -1.44050E-01 -1.44275E-01 -1.43403E-01 -1.40501E-01 -1.36020E-01 -1.31117E-01 -1.26068E-01 -1.20878E-01
  -1.15689E-01 -1.09946E-01 -1.03427E-01 -9.66238E-02 -8.94777E-02 -8.18560E-02 -7.37355E-02 -6.57773E-02 -5.80914E-02 -5.02605E-02
  -4.31034E-02 -3.58402E-02 -2.87834E-02 -2.21984E-02 -1.62977E-02 -1.12304E-02 -5.79351E-03 -2.87637E-04  4.06341E-03  7.36027E-03
   1.07803E-02  1.41271E-02  1.71021E-02  1.92807E-02  2.12759E-02  2.29036E-02  2.43908E-02  2.60573E-02  2.69803E-02  2.76768E-02
   2.89067E-02  3.04153E-02  3.17980E-02  3.31676E-02  3.47618E-02  3.57670E-02  3.61363E-02  3.67163E-02  3.69497E-02  3.69606E-02
   3.71448E-02  3.71587E-02  3.70882E-02  3.70821E-02  3.70847E-02  3.70950E-02  3.71907E-02  3.75138E-02  3.81044E-02  3.80425E-02
   3.68089E-02  3.53811E-02  3.50978E-02  3.55520E-02  3.54516E-02  3.50408E-02  3.52524E-02  3.53120E-02  3.47302E-02  3.40958E-02
   3.41213E-02  3.49703E-02  3.55657E-02  3.61495E-02  3.66481E-02  3.73884E-02  3.83105E-02  3.90225E-02  3.95155E-02  3.99891E-02
   4.06640E-02  4.11213E-02  4.06616E-02  4.02582E-02  4.03252E-02  4.08082E-02  4.16522E-02  4.23294E-02  4.33842E-02  4.41195E-02
   4.44809E-02  4.51351E-02  4.66008E-02  4.82195E-02  4.94781E-02  4.96673E-02  4.93414E-02  4.89573E-02  4.90663E-02  4.99276E-02
   5.02896E-02  5.01564E-02  5.00064E-02  5.01087E-02  5.04899E-02  5.10410E-02  5.14391E-02  5.12695E-02  5.17236E-02  5.29708E-02
   5.40204E-02  5.45454E-02  5.51757E-02  5.61748E-02  5.73654E-02  5.84303E-02  5.96178E-02  6.15457E-02  6.43522E-02  6.70717E-02
   6.91466E-02  7.11126E-02  7.31178E-02  7.49068E-02
 NY background values follow
     4.648E-02    4.635E-02    4.622E-02    4.609E-02    4.596E-02    4.583E-02    4.570E-02    4.558E-02    4.545E-02    4.532E-02
     4.519E-02    4.506E-02    4.493E-02    4.480E-02    4.467E-02    4.454E-02    4.441E-02    4.428E-02    4.416E-02    4.403E-02
     4.390E-02    4.377E-02    4.364E-02    4.351E-02    4.338E-02    4.325E-02    4.312E-02    4.299E-02    4.286E-02    4.273E-02
     4.260E-02    4.247E-02    4.234E-02    4.221E-02    4.208E-02    4.195E-02    4.182E-02    4.170E-02    4.157E-02    4.144E-02
     4.131E-02    4.118E-02    4.105E-02    4.092E-02    4.079E-02    4.066E-02    4.053E-02    4.040E-02    4.027E-02    4.014E-02
     4.001E-02    3.988E-02    3.975E-02    3.962E-02    3.949E-02    3.936E-02    3.923E-02    3.910E-02    3.897E-02    3.884E-02
     3.871E-02    3.858E-02    3.845E-02    3.832E-02    3.819E-02    3.806E-02    3.793E-02    3.779E-02    3.766E-02    3.753E-02
