 
 $NMID
 ID=''
 FMTDAT='(2E13.5)'
 TRAMP=   1.00000E+0
 VOLUME=   1.00000E+0
 $END
   3.84606E+2  -7.88336E+2
   1.91641E+3   5.52594E+2
  -4.55962E+2  -6.40183E+3
  -2.29931E+3  -1.01701E+3
  -2.87920E+3   1.25193E+3
  -5.68851E+2  -9.43142E+2
  -3.26348E+3   5.61284E+2
  -4.46856E+3   1.58042E+3
  -1.93770E+3  -6.66888E+2
  -1.29032E+3  -3.38559E+2
   7.53170E+0   1.26622E+3
  -6.18835E+1  -2.36550E+2
   3.84734E+2   3.60377E+3
  -1.96525E+3   4.23762E+3
  -1.60781E+3   3.15677E+3
   4.13269E+2  -5.43388E+2
   1.68041E+3  -2.13717E+3
   2.66576E+3   4.72060E+2
   1.75600E+3   1.84268E+3
   1.81886E+2  -2.31919E+3
   2.40441E+3  -3.40102E+3
   4.27189E+3   5.09730E+2
   8.26656E+2   6.22411E+3
  -3.27487E+3  -1.67038E+3
  -4.13976E+2  -3.54461E+3
   4.15014E+3   4.95936E+2
   1.43575E+3   5.34769E+2
   2.49977E+3  -2.45509E+2
   1.76393E+2  -1.28367E+3
   1.01659E+3  -6.27037E+3
   6.61387E+3  -1.12927E+3
   5.61036E+3   5.65746E+3
  -1.32206E+3   2.70522E+3
  -1.13662E+3   9.02658E+2
   1.57954E+3  -7.05069E+2
  -1.76230E+3   2.02895E+3
  -2.23339E+3  -4.72466E+3
   4.01360E+3  -4.15858E+3
   3.01817E+3  -6.05979E+2
   4.13444E+3   3.85206E+2
   4.10933E+3   2.44764E+3
  -9.17445E+2   5.92717E+3
  -4.07698E+3  -6.09582E+2
  -3.08041E+3  -2.63477E+3
   7.22588E+2  -1.92703E+3
   4.34782E+2   1.15390E-1
   1.42989E+3   7.28334E+2
   4.43590E+2   2.61157E+3
  -4.90599E+2   2.50821E+3
  -1.36558E+3   5.71986E+2
  -7.34712E+2  -6.19805E+2
  -3.94871E+3  -3.01812E+3
  -2.01547E+3  -2.58897E+3
  -5.84023E+2  -2.30564E+2
   7.24884E+2   1.23091E+3
  -8.76627E+2  -3.84661E+2
   8.30725E+2   3.45753E+3
  -1.99084E+3   2.95805E+3
  -6.21660E+3   2.08914E+3
  -6.31931E+3  -4.03954E+2
  -2.59594E+3  -4.14214E+3
   2.75158E+2  -3.09351E+3
   2.46528E+3  -2.49667E+1
   4.54704E+2   1.53161E+3
  -2.79836E+3  -1.08891E+3
   8.72061E+2  -2.67240E+3
   2.31133E+3   1.37667E+3
  -3.03737E+3  -4.72218E+2
  -1.63783E+3  -1.61277E+3
  -2.59347E+3  -2.65515E+3
   4.76639E+1   4.42387E+1
   7.03489E+2   1.50700E+3
  -3.59313E+2   2.30808E+3
  -1.65644E+3   1.33026E+2
   7.55179E+2  -1.78957E+3
   1.77908E+3  -1.51858E+3
  -9.84186E+1  -1.25874E+3
   1.01252E+3  -1.42318E+2
  -3.85265E+1  -1.69959E+3
   1.82976E+3  -2.08798E+3
   1.89803E+3  -1.73863E+3
   1.43393E+3  -2.57587E+2
   1.98549E+3  -2.73997E+3
   4.02639E+3   4.96560E+1
   8.14932E+2   2.87223E+3
   2.90996E+2   4.88892E+3
  -4.19104E+3   2.99367E+3
  -3.32880E+3   8.30867E+2
   8.13350E+2   4.88435E+2
   6.99954E+2   3.88923E+2
  -3.02795E+2   1.86704E+3
  -1.92452E+3  -1.31907E+3
   1.19174E+3   1.14184E+3
   6.81390E+2   3.09486E+3
  -7.34825E+2   2.78964E+3
  -2.45659E+3   1.88252E+3
  -2.27721E+3  -1.98845E+3
   2.26522E+2  -2.64748E+3
   1.93515E+3   1.33925E+3
  -5.44876E+2   2.68880E+3
  -2.43075E+3   7.37356E+2
  -1.91410E+2  -4.14147E+3
   2.90135E+3  -3.04453E+3
   1.16699E+3  -4.98762E+1
  -5.48501E+2  -1.43975E+3
  -7.33419E+2   7.90584E+2
  -1.08114E+3  -1.03715E+3
   1.46959E+3   3.46846E+3
   2.26703E+2   1.40507E+3
  -1.32255E+3   8.67397E+2
  -2.47685E+3  -2.54621E+3
  -1.81896E+2  -6.55834E+2
   1.53830E+3  -2.81882E+3
   2.64509E+3  -1.74692E+3
   1.60963E+3  -1.20525E+2
   2.87196E+2   1.88687E+3
  -9.04120E+2   1.08559E+3
  -6.48353E+2  -5.47001E+2
  -2.40815E+3   4.35345E+2
  -2.10327E+3  -9.15620E+2
  -6.85409E+2  -1.45609E+3
   2.69408E+3   2.37663E+3
   1.99627E+2   7.79508E+2
  -8.37297E+1  -2.43993E+3
   8.64703E+2  -5.60206E+2
   5.59606E+2  -1.24802E+3
   2.47653E+2   1.53960E+3
  -3.65613E+3  -1.57626E+3
   5.33409E+2  -1.12299E+3
  -1.40509E+3   6.58842E+2
  -3.94570E+1  -1.45570E+3
  -9.98588E+2  -9.03208E+2
  -1.65329E+2  -1.17024E+3
   1.88226E+3  -2.49811E+3
   2.31511E+3  -4.00233E+2
   3.29859E+3   3.93877E+2
  -2.52309E+3  -2.17147E+2
  -8.85790E+2   1.69662E+2
  -1.81713E+3   1.84344E+1
  -2.93902E+1   3.62633E+2
   2.15934E+3   6.44767E+2
  -5.17244E+2   6.33540E+2
   2.20491E+3  -4.25487E+2
   1.96810E+3  -9.21587E+2
  -1.89624E+3   5.27472E+2
  -2.68027E+2  -4.89256E+2
   2.53206E+2  -5.87853E+2
   1.45319E+3  -2.08367E+3
  -2.37594E+3  -1.55911E+3
   1.42880E+3  -9.95689E+2
   3.21266E+3  -9.08102E+2
   1.94668E+3   1.24104E+3
   1.83433E+1   1.89617E+3
  -1.39612E+3   6.45182E+2
  -1.29227E+3   5.28125E+2
  -3.52185E+2  -2.37604E+3
   1.00195E+3  -9.36853E+2
  -1.23142E+3  -1.97620E+3
   6.65983E+2   5.08598E+2
   9.86893E+2  -2.84288E+2
   3.39463E+3  -4.91119E+2
   8.78299E+2   5.37453E+2
   1.01366E+2   1.19723E+3
   1.41049E+3  -1.16500E+3
  -1.25633E+3  -1.36326E+3
  -5.53823E+2  -1.25539E+3
  -6.88299E+2  -1.42738E+2
  -2.29278E+3  -1.54097E+2
  -1.25733E+3  -2.03488E+3
   2.23479E+3  -1.43587E+3
   6.43401E+2  -3.56629E+2
   1.86463E+3  -3.50401E+2
  -8.50440E+2   2.70314E+3
  -1.31895E+3   4.56935E+2
  -6.72176E+2   8.23696E+2
   3.70734E+2  -1.25999E+3
  -8.17372E+2   5.18265E+1
  -6.56466E+1  -1.07215E+3
   2.06861E+3  -3.11181E+1
   2.98781E+3   8.24062E+2
   2.64258E+2   1.42814E+3
   3.94112E+1   1.80889E+3
  -3.99665E+2  -6.63710E+2
  -1.86021E+3   1.06030E+3
  -1.06721E+3  -1.10714E+3
  -1.41459E+3  -5.67413E+2
  -9.87193E+2  -2.03186E+3
  -2.48809E+3  -5.74126E+2
  -1.15595E+2   3.67488E+2
  -4.30446E+2   4.47278E+2
   1.28741E+3   2.13503E+3
  -1.35676E+3  -7.99028E+2
   2.20874E+1  -2.47197E+2
  -3.95986E+2   2.28144E+3
  -5.95979E+2   2.24846E+3
   2.60491E+2   2.71209E+3
   1.12990E+3   1.12856E+3
   2.68969E+3   1.42502E+3
   7.00833E+2  -5.87601E+1
  -7.72760E+2  -1.68096E+3
   2.09268E+3  -3.25846E+3
   2.49123E+3   7.31195E+2
   6.82672E+2   2.54156E+3
  -1.97599E+3   6.99982E+2
  -1.48006E+3   9.63004E+1
  -6.58539E+2   9.07445E+2
  -1.79802E+3   7.25126E+2
   1.12562E+3   1.37549E+2
  -9.85723E+2   7.79084E+2
   7.37397E+2   1.74130E+3
   1.78515E+3  -7.74099E+2
  -4.28671E+1   5.67074E+2
  -1.91789E+2   1.41123E+3
   4.50279E+2   1.97926E+2
   2.01436E+2  -4.03509E+2
   3.34409E+2  -1.61372E+2
   1.07588E+3   2.31820E+2
  -3.41616E+2   6.98537E+2
  -3.27487E+2   6.28952E+2
   1.83604E+2  -3.10373E+2
   1.63322E+3   1.03917E+3
  -1.89994E+3   6.74834E+1
   1.10800E+2   1.12543E+3
   9.60430E+2   1.28260E+3
   1.91353E+3   1.98966E+3
   2.45152E+2   2.27092E+2
  -2.53832E+2   6.23957E+2
  -4.62713E+2   1.96164E+2
  -3.33987E+2  -2.28655E+2
   8.58424E+2   2.06812E+3
   1.00259E+3   2.29183E+3
   1.04879E+3   1.17898E+2
  -6.63086E+2  -1.36365E+2
  -8.07709E+2  -7.58509E+2
   4.25687E+2   3.08069E+3
  -1.25382E+3   7.44055E+2
  -3.28682E+2  -1.31898E+3
   2.03896E+3   3.22652E+1
   3.74133E+2  -4.99689E+1
  -8.69695E+2   3.48722E+2
   1.92107E+2   1.75308E+2
  -4.08383E+2   2.64592E+2
   1.68871E+3  -1.40272E+3
   9.82677E+2   4.14402E+1
  -5.70049E+2   1.26041E+3
   2.77242E+2   2.34570E+2
   3.76788E+2   7.98630E+2
   1.12740E+3   1.62361E+3
   2.28485E+2   1.54834E+3
  -2.32644E+2  -4.49347E+2
  -1.12450E+3  -1.17362E+3
   5.80504E+2  -2.98902E+2
   6.07123E+2  -7.32828E+2
   1.19203E+3  -6.38837E+2
   1.11355E+3  -6.46604E+2
  -9.89642E+2  -2.42847E+2
   8.53174E+2   2.31849E+2
   1.37217E+2  -2.59727E+3
  -1.82967E+2  -7.22513E+2
   1.60045E+3  -6.09078E+2
  -9.83522E+1  -4.81595E+0
   3.91463E+2  -1.47406E+2
   3.08677E+2  -8.89133E+2
  -2.90584E+0   5.76518E+2
   3.04167E+2   5.46286E+2
   4.38732E+2   1.27693E+3
  -1.72427E+3   3.60911E+2
   2.25095E+2   1.01991E+3
   1.43987E+3  -1.78188E+2
   1.17563E+3  -7.03132E+2
  -9.08998E+2   4.26385E+2
   6.48271E+2  -2.18511E+2
   1.93672E+3  -7.62957E+2
   4.07547E+2   1.33407E+3
   1.55195E+3  -1.70396E+2
  -1.77583E+3   8.29977E+2
  -1.71196E+3  -1.18377E+3
   5.02549E+2  -8.67246E+2
  -1.53373E+3   1.49032E+3
  -1.96906E+3   1.16766E+3
  -1.69705E+3   2.41173E+1
   1.86353E+3   1.94655E+1
   7.19109E+2   3.47397E+2
  -3.73536E+2   1.30472E+3
   8.68229E+2   1.32753E+2
   1.64078E+3  -1.98230E+3
  -1.21042E+3   2.04665E+2
  -1.48399E+2   3.01270E+1
  -5.83297E+2   1.43257E+3
  -2.06969E+3   6.60527E+2
  -1.08791E+3   6.64229E+2
  -1.09379E+3   2.56766E+2
  -1.44488E+3  -1.24631E+2
  -5.81765E+2  -6.83456E+2
   6.51320E+2  -8.53704E+2
   2.18048E+2  -8.24323E+2
   5.85799E+1   1.76428E+2
  -7.33841E+2   1.49234E+2
   1.40304E+3  -4.37329E+2
   6.04249E+2   2.83013E+2
  -1.52621E+2   9.43435E+1
   4.84510E+1  -1.13898E+3
   5.06126E+2   1.39784E+3
   1.56529E+3  -6.10411E+2
   1.04375E+3  -2.34759E+3
   9.55895E+2  -5.95285E+2
   8.05822E+2   7.84632E+2
   3.26716E+2  -2.57005E+2
  -3.27570E+2  -8.58633E+2
   9.97301E+2  -3.18991E+3
   2.02437E+2   1.57697E+3
   2.08087E+2  -7.21401E+2
   4.04983E+2  -5.78916E+2
   6.22568E+2  -2.92764E+2
   2.78738E+2  -6.25810E+2
  -1.56837E+3   2.99215E+2
  -8.95711E+2  -6.29596E+2
  -1.52725E+3  -4.35926E+2
  -3.61734E+2  -8.49383E+2
   2.19472E+3  -5.39910E+2
  -1.01256E+2   2.06556E+3
   1.72148E+2   2.20550E+3
  -1.89300E+3   6.05573E+1
  -4.40897E+2  -1.15990E+3
   1.32748E+3  -4.06656E+2
   8.49398E+2  -3.61162E+2
   1.41520E+3  -7.70674E+2
   9.95498E+2  -1.01107E+3
  -2.51808E+3  -1.82083E+1
   1.04134E+3   8.13296E+2
   5.22619E+2  -4.47103E+2
  -8.46958E+2  -6.07578E+2
   1.19049E+3  -1.41184E+3
   1.41954E+3  -1.11089E+3
   2.54823E+2  -6.20596E+2
  -4.21754E+2   2.19089E+3
  -1.32499E+2   3.22667E+2
  -1.81995E+3   1.83959E+3
   8.34428E+2   1.14176E+3
  -1.04969E+3  -3.62573E+2
  -1.08148E+3  -1.51437E+3
   6.96960E+2   9.04664E+2
   3.86920E+2   7.29811E+1
  -1.00577E+3   1.03139E+2
  -3.59069E+3   1.01649E+3
   2.13570E+2  -1.21042E+3
   5.93933E+2  -1.62313E+3
  -7.51753E+2   2.65021E+1
  -6.60298E+2  -7.01169E+1
  -4.67238E+2   1.07411E+3
   1.48283E+3  -1.60047E+2
  -6.91897E+2  -7.27102E+2
  -3.12096E+3  -6.83091E+2
  -7.24891E+2  -4.08414E+2
   6.01148E+2   9.31533E+2
   2.64867E+2  -1.59580E+2
  -1.79121E+3  -7.21022E+2
  -1.37914E+3  -1.65023E+2
   7.06675E+2  -1.15456E+3
   2.01449E+2   5.79309E+2
  -7.72349E+2  -3.10127E+2
  -3.29750E+2   1.78973E+2
  -3.05822E+2   5.52276E+2
   1.09398E+3  -8.08049E+2
  -7.84806E+2  -1.25793E+3
  -1.19848E+3   4.60941E+2
  -1.95418E+3  -1.11298E+3
