 LCModel (Version 6.3-1N) Copyright: S.W. Provencher.          Ref.: Magn. Reson. Med. 30:672-679 (1993).                
 Slice_N1@18_23  02-Jun-2023 14:36:58
 27 lines in following concentration table = NCONC+1
    Conc.  %SD /Cr+PCr  Metabolite                                         
 1.53E-06  25% 1.9E-04 Mac                                                 
 3.73E-02  33%   4.692 Cr                                                  
 2.63E-02  47%   3.308 PCr                                                 
 6.50E-02  14%   8.175 Ins                                                 
 8.97E-02   8%  11.282 NAA                                                 
 6.38E-02  13%   8.029 Tau                                                 
 4.71E-03 126%   0.593 PCho                                                
 6.43E-03  93%   0.809 GPC                                                 
 5.96E-02  17%   7.498 Glu                                                 
 2.36E-02  32%   2.973 Gln                                                 
 1.11E-02  70%   1.396 Ala                                                 
 4.40E-02  32%   5.536 Asc                                                 
 1.49E-02  47%   1.879 Asp                                                 
 8.23E-03  47%   1.035 GABA                                                
 1.08E-02  41%   1.362 Glc                                                 
 9.32E-03  44%   1.172 GSH                                                 
    0.000 999%   0.000 Lac                                                 
 7.21E-03  70%   0.906 NAAG                                                
    0.000 999%   0.000 PE                                                  
 1.11E-02  19%   1.402 GPC+PCho                                            
 9.69E-02   9%  12.188 NAA+NAAG                                            
 8.33E-02  14%  10.471 Glu+Gln                                             
 6.36E-02  10%   8.000 Cr+PCr                                              
 9.69E-02   9%  12.188 NAA+NAAG                                            
 6.36E-02  10%   8.000 Cr+PCr                                              
 8.33E-02  14%  10.471 Glu+Gln                                             
   6 lines in following misc. output table
  FWHM = 0.029 ppm    S/N =   4                                            
  Data shift =-0.017 ppm                                                   
  Ph:  18 deg     -11.8 deg/ppm                                            
  alphaB,S = 3.1E+01,   3.9E+01                                            
   18 spline knots.   Ns = 5(1)                                            
   2 inflections.     1 extrema                                            
  654 points on ppm-axis = NY
      4.000000     3.994181     3.988363     3.982544     3.976726     3.970907     3.965088     3.959270     3.953451     3.947633
      3.941814     3.935995     3.930177     3.924358     3.918540     3.912721     3.906902     3.901084     3.895265     3.889446
      3.883628     3.877809     3.871991     3.866172     3.860353     3.854535     3.848716     3.842898     3.837079     3.831260
      3.825442     3.819623     3.813805     3.807986     3.802167     3.796349     3.790530     3.784712     3.778893     3.773074
      3.767256     3.761437     3.755619     3.749800     3.743981     3.738163     3.732344     3.726526     3.720707     3.714888
      3.709070     3.703251     3.697433     3.691614     3.685795     3.679977     3.674158     3.668339     3.662521     3.656702
      3.650884     3.645065     3.639246     3.633428     3.627609     3.621791     3.615972     3.610153     3.604335     3.598516
      3.592698     3.586879     3.581060     3.575242     3.569423     3.563605     3.557786     3.551967     3.546149     3.540330
      3.534512     3.528693     3.522874     3.517056     3.511237     3.505419     3.499600     3.493781     3.487963     3.482144
      3.476326     3.470507     3.464688     3.458870     3.453051     3.447232     3.441414     3.435595     3.429777     3.423958
      3.418139     3.412321     3.406502     3.400684     3.394865     3.389046     3.383228     3.377409     3.371591     3.365772
      3.359953     3.354135     3.348316     3.342498     3.336679     3.330860     3.325042     3.319223     3.313405     3.307586
      3.301767     3.295949     3.290130     3.284312     3.278493     3.272674     3.266856     3.261037     3.255219     3.249400
      3.243581     3.237763     3.231944     3.226125     3.220307     3.214488     3.208670     3.202851     3.197032     3.191214
      3.185395     3.179577     3.173758     3.167939     3.162121     3.156302     3.150484     3.144665     3.138846     3.133028
      3.127209     3.121391     3.115572     3.109753     3.103935     3.098116     3.092298     3.086479     3.080660     3.074842
      3.069023     3.063205     3.057386     3.051567     3.045749     3.039930     3.034111     3.028293     3.022474     3.016656
      3.010837     3.005018     2.999200     2.993381     2.987563     2.981744     2.975925     2.970107     2.964288     2.958470
      2.952651     2.946832     2.941014     2.935195     2.929377     2.923558     2.917739     2.911921     2.906102     2.900284
      2.894465     2.888646     2.882828     2.877009     2.871191     2.865372     2.859553     2.853735     2.847916     2.842098
      2.836279     2.830460     2.824642     2.818823     2.813004     2.807186     2.801367     2.795549     2.789730     2.783911
      2.778093     2.772274     2.766456     2.760637     2.754818     2.749000     2.743181     2.737363     2.731544     2.725725
      2.719907     2.714088     2.708270     2.702451     2.696632     2.690814     2.684995     2.679177     2.673358     2.667539
      2.661721     2.655902     2.650084     2.644265     2.638446     2.632628     2.626809     2.620991     2.615172     2.609353
      2.603535     2.597716     2.591897     2.586079     2.580260     2.574442     2.568623     2.562804     2.556986     2.551167
      2.545349     2.539530     2.533711     2.527893     2.522074     2.516256     2.510437     2.504618     2.498800     2.492981
      2.487163     2.481344     2.475525     2.469707     2.463888     2.458070     2.452251     2.446432     2.440614     2.434795
      2.428977     2.423158     2.417339     2.411521     2.405702     2.399884     2.394065     2.388246     2.382428     2.376609
      2.370790     2.364972     2.359153     2.353335     2.347516     2.341697     2.335879     2.330060     2.324242     2.318423
      2.312604     2.306786     2.300967     2.295149     2.289330     2.283511     2.277693     2.271874     2.266056     2.260237
      2.254418     2.248600     2.242781     2.236963     2.231144     2.225325     2.219507     2.213688     2.207870     2.202051
      2.196232     2.190414     2.184595     2.178777     2.172958     2.167139     2.161321     2.155502     2.149683     2.143865
      2.138046     2.132228     2.126409     2.120590     2.114772     2.108953     2.103135     2.097316     2.091497     2.085679
      2.079860     2.074042     2.068223     2.062404     2.056586     2.050767     2.044949     2.039130     2.033311     2.027493
      2.021674     2.015856     2.010037     2.004218     1.998400     1.992581     1.986763     1.980944     1.975126     1.969307
      1.963489     1.957670     1.951852     1.946033     1.940215     1.934397     1.928578     1.922760     1.916941     1.911123
      1.905304     1.899486     1.893667     1.887849     1.882030     1.876212     1.870393     1.864575     1.858756     1.852938
      1.847119     1.841301     1.835482     1.829664     1.823845     1.818027     1.812208     1.806390     1.800571     1.794753
      1.788934     1.783116     1.777297     1.771479     1.765660     1.759842     1.754023     1.748205     1.742386     1.736568
      1.730749     1.724931     1.719113     1.713294     1.707476     1.701657     1.695839     1.690020     1.684202     1.678383
      1.672565     1.666746     1.660928     1.655109     1.649291     1.643472     1.637654     1.631835     1.626017     1.620198
      1.614380     1.608561     1.602743     1.596924     1.591106     1.585287     1.579469     1.573650     1.567832     1.562013
      1.556195     1.550376     1.544558     1.538739     1.532921     1.527102     1.521284     1.515465     1.509647     1.503829
      1.498010     1.492192     1.486373     1.480555     1.474736     1.468918     1.463099     1.457281     1.451462     1.445644
      1.439825     1.434007     1.428188     1.422370     1.416551     1.410733     1.404914     1.399096     1.393277     1.387459
      1.381640     1.375822     1.370003     1.364185     1.358366     1.352548     1.346729     1.340911     1.335092     1.329274
      1.323455     1.317637     1.311818     1.306000     1.300182     1.294363     1.288545     1.282726     1.276908     1.271089
      1.265271     1.259452     1.253634     1.247815     1.241997     1.236178     1.230360     1.224541     1.218723     1.212904
      1.207086     1.201267     1.195449     1.189630     1.183812     1.177993     1.172175     1.166356     1.160538     1.154719
      1.148901     1.143082     1.137264     1.131445     1.125627     1.119808     1.113990     1.108171     1.102353     1.096534
      1.090716     1.084898     1.079079     1.073261     1.067442     1.061624     1.055805     1.049987     1.044168     1.038350
      1.032531     1.026713     1.020894     1.015076     1.009257     1.003439     0.997620     0.991802     0.985983     0.980165
      0.974346     0.968528     0.962709     0.956891     0.951072     0.945254     0.939435     0.933617     0.927798     0.921980
      0.916161     0.910343     0.904524     0.898706     0.892887     0.887069     0.881251     0.875432     0.869614     0.863795
      0.857977     0.852158     0.846340     0.840521     0.834703     0.828884     0.823066     0.817247     0.811429     0.805610
      0.799792     0.793973     0.788155     0.782336     0.776518     0.770699     0.764881     0.759062     0.753244     0.747425
      0.741607     0.735788     0.729970     0.724151     0.718333     0.712514     0.706696     0.700877     0.695059     0.689240
      0.683422     0.677603     0.671785     0.665967     0.660148     0.654330     0.648511     0.642693     0.636874     0.631056
      0.625237     0.619419     0.613600     0.607782     0.601963     0.596145     0.590326     0.584508     0.578689     0.572871
      0.567052     0.561234     0.555415     0.549597     0.543778     0.537960     0.532141     0.526323     0.520504     0.514686
      0.508867     0.503049     0.497230     0.491412     0.485593     0.479775     0.473956     0.468138     0.462319     0.456501
      0.450682     0.444864     0.439045     0.433227     0.427408     0.421590     0.415771     0.409953     0.404134     0.398316
      0.392497     0.386679     0.380860     0.375042     0.369223     0.363405     0.357586     0.351767     0.345949     0.340130
      0.334312     0.328493     0.322675     0.316856     0.311038     0.305219     0.299401     0.293582     0.287764     0.281945
      0.276127     0.270308     0.264490     0.258671     0.252853     0.247034     0.241216     0.235397     0.229579     0.223760
      0.217942     0.212123     0.206305     0.200486
 NY phased data points follow
   5.15399E-02 -6.91061E-02 -2.75956E-01 -5.33940E-01 -1.98190E-01 -3.92668E-01 -2.61657E-01 -1.42235E-01  5.09032E-03 -2.56131E-01
   2.18320E-01  4.95495E-01  3.29832E-01  2.88677E-01  3.31673E-01  5.75983E-01  3.15577E-01  2.94379E-01  2.90530E-01 -1.58416E-02
  -1.88978E-01  3.80246E-01  3.85717E-03  8.99676E-02 -1.76685E-02 -1.09922E-01  2.23115E-02 -4.86323E-01  1.13703E-01 -6.07428E-02
  -1.20699E-01 -2.06418E-01 -2.55849E-01 -1.67564E-01 -1.18587E-01 -5.30615E-01 -5.68647E-01 -1.97424E-01 -7.30654E-01 -1.37641E-01
   1.43534E-02  1.59451E-01  3.67555E-01  3.62038E-01  1.05774E-01 -5.02544E-02  4.57268E-01  3.46228E-01  3.30028E-01  3.62421E-01
   3.87873E-01 -1.61600E-01  1.76604E-01  3.35777E-01 -5.20247E-02  2.71735E-01 -5.08610E-02 -1.34235E-01 -1.55707E-01 -1.00456E-01
  -3.61179E-02  8.24371E-02 -2.77174E-01 -5.24004E-01 -7.56341E-02 -1.40989E-01  1.26350E-01  9.26015E-02  1.49668E-01  1.80583E-01
   4.95128E-02  1.82572E-01  1.60453E-02  3.65199E-01  1.36095E-01 -2.48162E-01 -5.35896E-01 -3.48501E-01 -1.46420E-01 -8.26746E-01
  -3.26345E-01 -1.93405E-01 -9.37177E-02  1.10812E-01 -6.13059E-02  3.68519E-01  1.78863E-01 -1.23953E-01  6.12577E-02  1.07834E-01
   6.17468E-02  2.57745E-01 -5.38974E-02 -1.63833E-01 -1.52645E-01  9.97179E-02  2.76731E-03 -1.50629E-01  4.19140E-01 -4.86797E-01
  -5.98149E-01 -2.75028E-01 -3.16672E-01  4.75230E-02 -6.06798E-02  4.47171E-01  6.09598E-01  1.39086E-01  4.36980E-01  3.95347E-01
   1.92422E-01  5.21469E-01  3.36503E-01  5.34925E-01  1.85762E-01  6.96734E-02  5.58186E-01  2.37439E-01  4.67774E-01  6.22103E-01
   1.66509E-01 -1.51131E-01  1.13474E-01  1.77134E-01  7.31530E-02  8.17580E-02  3.38177E-02 -1.24660E-01 -6.69642E-01 -5.55640E-01
  -5.68900E-01 -7.90323E-01 -2.61266E-01 -2.20974E-01 -3.09685E-01 -5.54252E-01 -7.64786E-01 -7.24147E-01 -7.88935E-01 -3.83272E-01
  -9.11878E-02  4.24347E-01  3.82368E-01  2.41601E-01  8.59919E-02 -2.25910E-01  1.40763E-01  7.93300E-02  1.06886E-01  2.37312E-01
   1.78462E-01  3.94436E-01  2.95553E-01  9.89741E-02  4.41729E-01  1.35845E-01  1.32770E-01  1.00317E-01  3.96418E-01  5.95225E-01
   1.12128E-01  4.47752E-01  4.17048E-01  1.16359E+00  1.13892E+00  8.26408E-01  7.91872E-01  3.18167E-01 -5.53365E-01 -1.36743E+00
  -7.11413E-01 -3.45998E-01 -1.72947E-01 -2.42013E-01 -2.34282E-01 -4.95749E-01 -3.70637E-01 -1.33672E-01 -3.18057E-01 -2.43219E-01
  -2.51219E-01 -1.32188E-01 -2.38070E-01 -3.09889E-01 -4.23885E-01 -2.18818E-01 -9.38489E-02 -1.10166E-01 -6.65680E-03 -1.27346E-01
  -5.84191E-01 -2.21366E-01  1.32800E-02 -1.46005E-01  7.97933E-02 -8.41381E-02  7.69787E-02 -9.62485E-02 -2.76913E-01  1.77230E-02
   2.30304E-01  1.67784E-01  3.56306E-01  2.41289E-01 -6.55786E-02 -4.39183E-03  1.98250E-01 -1.10085E-02  2.43605E-01  5.39382E-01
  -1.99509E-01 -1.42802E-02 -1.97664E-01 -2.99029E-01 -1.80307E-01  2.31555E-01  1.82793E-01 -1.54258E-01 -1.85644E-01 -4.52141E-01
   2.27106E-01 -1.82078E-01 -9.58094E-02  1.92128E-02  5.38035E-02  2.26287E-01 -2.08570E-01  8.19291E-02  8.39264E-02  4.30303E-01
   5.97319E-01  4.65793E-01  2.69562E-01 -4.37474E-02 -1.09246E-01 -3.57689E-03  1.62359E-01 -2.16222E-02 -1.54131E-01 -2.77386E-01
   1.24160E-02  3.22723E-02 -2.92533E-02  1.81575E-02 -3.15044E-01 -1.31803E-01 -1.78340E-01  3.69641E-01 -6.19374E-02 -2.26812E-01
   2.94628E-01 -2.73243E-01  1.65189E-01  4.66429E-02  3.65410E-02 -2.65141E-01 -1.10440E-01 -6.21267E-02 -1.07507E-01  4.21564E-01
   3.87313E-02  7.07403E-03 -1.97776E-02  2.63366E-01 -9.20795E-02  4.23889E-02 -5.35172E-02  1.88955E-01  2.23512E-01 -2.27348E-01
   4.40497E-01  2.26078E-01  1.65885E-01 -2.55407E-01 -3.21102E-01  2.93915E-02 -1.01777E-01  5.73707E-02  2.67224E-01 -1.14700E-01
  -9.55038E-02 -1.63197E-01 -1.96223E-01 -2.08356E-01 -1.22581E-01  3.60933E-01  9.71803E-02  7.34269E-01  5.00925E-01  2.28407E-01
   3.07595E-01  1.07771E-01  7.62191E-02  4.79346E-03 -9.51155E-02 -6.58234E-02  4.07139E-01  1.40498E-01  2.88432E-01  2.32492E-01
   1.86885E-01  1.03340E-02  3.06959E-01  5.02130E-01  3.53942E-03  2.33029E-01  4.61133E-01  4.88536E-01  3.12728E-01  3.39970E-01
   4.05048E-01  4.22972E-01  1.98067E-01  2.59626E-01 -1.10047E-01  1.22930E-01  1.00785E-01 -2.60595E-01  9.26791E-02 -2.37800E-01
  -8.54741E-02 -4.99076E-01 -2.46126E-01  2.97566E-02 -3.00509E-01 -2.35459E-01 -1.99951E-01  2.11882E-01 -6.48399E-03  1.53937E-01
   2.89418E-01  1.76126E-01  2.00157E-02 -4.35005E-01 -2.78770E-01 -3.04285E-01 -2.23363E-01 -2.18276E-01 -3.25846E-01 -3.47779E-01
  -6.90105E-01 -9.89431E-01 -1.76828E+00 -2.02212E+00 -1.68870E+00 -6.47096E-01  6.47629E-02 -1.34389E-01  1.82052E-01 -1.53993E-02
   1.50788E-01  3.24118E-01 -6.05350E-02 -8.91718E-02  2.43588E-01  1.27904E-01 -1.22389E-01  5.00071E-01  2.53335E-01 -1.52137E-01
  -1.52696E-01 -1.84299E-01 -7.72503E-02 -8.07404E-02  2.52775E-01 -1.34679E-01 -2.13690E-02  2.81234E-01 -2.39091E-02  1.42830E-01
   1.02056E-01  1.43938E-01  2.60748E-02  2.69418E-01  1.43768E-01 -2.49316E-01  6.52170E-02  3.02717E-01 -4.73220E-02 -1.22023E-01
   4.06861E-01  5.51176E-03  2.14106E-01  2.89878E-01 -2.51957E-01 -2.41512E-01 -2.89549E-01  2.14515E-01  2.41067E-01  4.78489E-02
   5.59358E-01  2.27082E-01  2.82775E-01  5.10675E-01  3.40178E-01  3.77345E-01  2.48751E-01  3.39664E-01 -2.02451E-01  1.00121E-01
   1.86418E-01  3.36293E-01  3.19338E-01 -2.17042E-01  1.18972E-01 -2.65657E-02  7.22645E-02 -1.00185E-01  1.82176E-01 -1.65714E-01
  -3.77478E-01  2.81196E-02 -1.32791E-02  7.64810E-03  1.42745E-02  1.75907E-01 -1.58920E-01 -5.11968E-02  2.11136E-01  2.00214E-02
  -3.76506E-01  3.22943E-02  9.46283E-02 -4.60654E-02 -3.65105E-02 -1.31130E-02 -8.84030E-02  6.07511E-02  3.88254E-01  2.02908E-01
   3.09034E-01 -3.73872E-01  2.87833E-02 -2.52970E-03  2.37546E-01  5.27674E-01 -1.69770E-01  3.67065E-01  9.44689E-02 -2.18880E-01
  -1.34871E-01  7.30517E-03 -1.33675E-01 -7.92052E-02 -1.12807E-01 -9.37620E-02  3.52823E-01  3.09346E-01  2.64480E-01  3.20164E-01
   3.75020E-01  3.21880E-01  2.62037E-01  1.77741E-01  2.61468E-01 -1.02554E-01 -2.51333E-01 -1.11356E-01 -2.95512E-01 -1.73294E-01
  -2.15446E-01 -8.64487E-02  1.17568E-01  7.25073E-02  1.17646E-01 -2.10424E-01 -2.64730E-01 -4.09523E-01 -5.44702E-01 -4.84141E-01
  -4.86180E-01 -2.74060E-01 -4.72797E-01 -3.14065E-01 -2.22707E-01  1.47892E-02 -1.08709E-01 -1.04816E-01 -1.41097E-02 -3.17461E-01
   7.59108E-02 -1.68949E-01 -1.29271E-01 -2.87956E-02 -1.60515E-01  2.33577E-02 -4.20423E-02 -1.15775E-01 -8.05471E-03  1.20819E-01
   3.12848E-01  5.20516E-02  6.15807E-02  1.94892E-01  1.14925E-02  2.41672E-01  6.78950E-02  2.83834E-01  1.85725E-02 -1.23527E-02
   1.15421E-01 -1.02824E-01  1.76098E-01 -1.20189E-01  3.46507E-02  1.60895E-01  2.03050E-02  2.04916E-02  2.94561E-01  7.56072E-01
   3.88553E-01  2.64592E-01  3.17570E-01 -1.52015E-01 -1.39542E-01  1.62730E-02  1.51191E-01 -2.18573E-01  9.12019E-02  6.02694E-01
  -5.94769E-02 -1.54686E-01 -2.89195E-01 -2.81842E-01 -3.64993E-01 -4.80173E-01 -1.88480E-01 -3.27473E-01 -3.84844E-01 -1.53525E-01
  -4.73119E-01 -5.53545E-01 -5.01283E-02  6.98712E-02 -2.25045E-02 -6.12933E-01 -4.60508E-01  1.29761E-01 -2.53351E-01 -3.04343E-01
  -3.88815E-02 -1.65011E-01 -1.96445E-02  4.05409E-01  3.74060E-01 -1.99020E-01  2.65313E-02  1.23115E-01  1.97352E-01  1.26005E-01
  -2.65683E-01  3.25160E-01  9.66175E-02  2.57481E-02 -7.09456E-02  1.09565E-01  3.05639E-02 -2.83260E-01  1.08877E-01 -9.18698E-02
   1.86336E-01  3.78645E-01  2.23634E-01  6.19767E-02  1.76620E-01  7.84515E-02  1.00007E-01  6.68704E-02 -8.24122E-02 -3.57813E-01
  -1.05058E-01  2.66102E-01 -4.79255E-02  1.70151E-01  1.71902E-02  1.97677E-01  1.77904E-01  2.95298E-02 -4.85508E-02 -2.28373E-01
  -7.41056E-02  2.20841E-01 -8.76852E-02 -9.16284E-02  1.16256E-01 -3.91461E-01 -3.53832E-01 -3.05080E-01  2.60916E-01  2.45862E-01
   8.49509E-03 -1.66710E-01 -6.49339E-03  1.72105E-01 -2.36498E-01  4.34765E-02  2.43915E-01  6.85704E-03 -2.28880E-01  1.75006E-01
  -6.09097E-03 -1.09791E-01  8.71039E-02 -4.29737E-02 -8.96603E-02  1.33323E-01  1.60594E-01 -2.62478E-02  2.50144E-01  1.17758E-01
  -9.62879E-02 -2.13666E-02 -2.93859E-01  3.06161E-02  2.44796E-01 -7.70028E-02  1.98290E-01 -3.09550E-01 -2.52228E-01 -1.40333E-01
  -1.62765E-01 -1.87270E-02  2.28819E-02  4.33554E-01  2.29857E-01 -7.42582E-02 -7.04876E-02  1.52727E-01 -4.11405E-02  3.70640E-01
  -1.18459E-02 -3.54906E-01 -1.19740E-01  1.93806E-01  1.92282E-01  5.85685E-02  3.90765E-01 -3.31047E-02  6.78933E-02 -3.53827E-01
  -3.16944E-01  1.13646E-01  2.90904E-01 -2.35663E-01  1.53628E-03  2.03655E-01 -2.72208E-01 -1.27906E-01 -2.47980E-01  4.14454E-01
  -2.42598E-01 -1.35477E-01  1.16650E-01 -1.00473E-01
 NY points of the fit to the data follow
   1.28863E-01  7.92252E-02  2.49201E-02 -1.70597E-02 -3.92363E-02 -4.31969E-02 -3.85763E-02 -2.64506E-02  2.62325E-03  5.87153E-02
   1.49361E-01  2.75891E-01  4.11771E-01  5.12821E-01  5.52573E-01  5.19798E-01  4.20628E-01  2.84149E-01  1.59762E-01  7.67884E-02
   3.98486E-02  2.87244E-02  2.17331E-03 -3.21259E-02 -6.38100E-02 -8.81766E-02 -1.04555E-01 -1.16307E-01 -1.27295E-01 -1.39108E-01
  -1.52541E-01 -1.69766E-01 -1.93860E-01 -2.25967E-01 -2.63069E-01 -2.95948E-01 -3.08526E-01 -2.86593E-01 -2.24426E-01 -1.26243E-01
  -1.15534E-02  9.52572E-02  1.80559E-01  2.48634E-01  3.06804E-01  3.54451E-01  3.84209E-01  3.80222E-01  3.49613E-01  3.03534E-01
   2.53038E-01  2.00990E-01  1.50163E-01  1.00235E-01  4.77809E-02 -9.66987E-04 -4.79128E-02 -8.73785E-02 -1.16673E-01 -1.40210E-01
  -1.62484E-01 -1.89286E-01 -2.12626E-01 -2.09549E-01 -1.67049E-01 -8.04574E-02  4.39589E-02  1.78936E-01  2.90076E-01  3.53116E-01
   3.60714E-01  3.14634E-01  2.44692E-01  1.68474E-01  9.06027E-02  1.45967E-02 -8.44295E-02 -2.04490E-01 -3.17417E-01 -3.87908E-01
  -3.72981E-01 -2.52205E-01 -6.31478E-02  1.27076E-01  2.71301E-01  3.53643E-01  3.74507E-01  3.51290E-01  2.98683E-01  2.39030E-01
   2.02435E-01  1.81094E-01  1.58934E-01  1.29707E-01  8.52332E-02  1.49768E-02 -8.77860E-02 -2.13938E-01 -3.34591E-01 -4.05001E-01
  -3.83004E-01 -2.61920E-01 -7.61887E-02  1.10856E-01  2.43583E-01  3.03544E-01  3.06355E-01  2.91062E-01  2.76112E-01  2.72530E-01
   2.73186E-01  2.72982E-01  2.71926E-01  2.70848E-01  2.70541E-01  2.71746E-01  2.74082E-01  2.76840E-01  2.75596E-01  2.63777E-01
   2.38233E-01  1.96507E-01  1.39567E-01  8.18011E-02  3.07049E-02 -2.17444E-02 -8.93806E-02 -1.87799E-01 -3.18734E-01 -4.54248E-01
  -5.42766E-01 -5.50277E-01 -4.94336E-01 -4.33731E-01 -4.42118E-01 -5.32421E-01 -6.39103E-01 -6.65379E-01 -5.40670E-01 -3.30674E-01
  -1.36289E-01 -2.94133E-02 -9.89451E-04  8.59853E-03  2.90564E-02  4.98176E-02  6.92900E-02  8.72886E-02  1.03940E-01  1.19552E-01
   1.34726E-01  1.50091E-01  1.66149E-01  1.83417E-01  2.02564E-01  2.24018E-01  2.48300E-01  2.76211E-01  3.09309E-01  3.50854E-01
   4.06929E-01  4.89428E-01  6.18265E-01  7.74194E-01  8.64027E-01  7.85639E-01  4.80331E-01 -3.98655E-02 -5.96420E-01 -9.36959E-01
  -9.34998E-01 -7.06329E-01 -4.62982E-01 -3.38397E-01 -3.30705E-01 -3.11087E-01 -2.87252E-01 -2.66733E-01 -2.52500E-01 -2.41373E-01
  -2.29880E-01 -2.15355E-01 -2.01853E-01 -1.93476E-01 -1.89976E-01 -1.87559E-01 -1.82692E-01 -1.75605E-01 -1.68058E-01 -1.60842E-01
  -1.53335E-01 -1.45347E-01 -1.36448E-01 -1.27608E-01 -1.19248E-01 -1.11572E-01 -1.03766E-01 -9.49660E-02 -8.40049E-02 -7.09041E-02
  -5.76312E-02 -4.72596E-02 -4.24453E-02 -4.28136E-02 -4.45795E-02 -4.32579E-02 -3.84105E-02 -3.63491E-02 -4.46243E-02 -6.34108E-02
  -8.25738E-02 -9.17251E-02 -8.92349E-02 -8.01442E-02 -7.10538E-02 -6.41157E-02 -5.88997E-02 -5.61186E-02 -5.60181E-02 -5.66674E-02
  -5.13104E-02 -2.91033E-02  1.65431E-02  8.20763E-02  1.53795E-01  2.12761E-01  2.49093E-01  2.67603E-01  2.85993E-01  3.17936E-01
   3.43856E-01  3.19972E-01  2.24381E-01  9.54119E-02 -7.98126E-03 -5.69240E-02 -6.41727E-02 -6.47192E-02 -7.18186E-02 -7.97097E-02
  -8.81743E-02 -9.55121E-02 -1.01233E-01 -1.05608E-01 -1.09249E-01 -1.12791E-01 -1.16256E-01 -1.19594E-01 -1.23183E-01 -1.28595E-01
  -1.37595E-01 -1.52110E-01 -1.69254E-01 -1.77597E-01 -1.69271E-01 -1.39540E-01 -8.63894E-02 -2.22527E-02  3.47515E-02  7.73588E-02
   1.08796E-01  1.29953E-01  1.36128E-01  1.33671E-01  1.27893E-01  1.34311E-01  1.51092E-01  1.60765E-01  1.66804E-01  1.64207E-01
   1.54594E-01  1.32384E-01  9.65847E-02  5.87878E-02  2.05881E-02 -1.35457E-02 -4.94895E-02 -9.08212E-02 -1.41681E-01 -2.02020E-01
  -2.64573E-01 -3.11306E-01 -3.15448E-01 -2.56664E-01 -1.30548E-01  3.82944E-02  2.02594E-01  3.15511E-01  3.54323E-01  3.28158E-01
   2.65847E-01  2.05466E-01  1.67130E-01  1.55061E-01  1.66077E-01  1.84213E-01  2.01738E-01  2.11706E-01  2.11608E-01  2.04561E-01
   1.94263E-01  1.86271E-01  1.79025E-01  1.73692E-01  1.67446E-01  1.59183E-01  1.47989E-01  1.33105E-01  1.14571E-01  9.43581E-02
   7.47341E-02  5.74507E-02  4.29256E-02  2.82025E-02  8.21114E-03 -2.21335E-02 -6.40974E-02 -1.15998E-01 -1.70084E-01 -2.15993E-01
  -2.46711E-01 -2.55318E-01 -2.40893E-01 -2.03358E-01 -1.46784E-01 -7.79383E-02 -7.36570E-03  5.24617E-02  9.24234E-02  1.04834E-01
   8.95598E-02  5.42372E-02  4.86143E-03 -4.79127E-02 -9.58298E-02 -1.25629E-01 -1.28009E-01 -1.07617E-01 -1.34590E-01 -3.17469E-01
  -6.91832E-01 -1.19082E+00 -1.62910E+00 -1.75029E+00 -1.44121E+00 -8.71156E-01 -3.57400E-01 -9.38976E-02 -6.03278E-02 -1.00036E-01
  -8.72993E-02 -6.94736E-02 -5.28655E-02 -3.83616E-02 -2.57950E-02 -1.56601E-02 -9.14292E-03 -7.74528E-03 -1.25343E-02 -2.34958E-02
  -3.82937E-02 -5.35582E-02 -6.54953E-02 -7.16014E-02 -7.09458E-02 -6.42721E-02 -5.41588E-02 -4.21411E-02 -3.10447E-02 -2.07712E-02
  -1.18852E-02 -3.90719E-03  3.25050E-03  9.29221E-03  1.42079E-02  1.83246E-02  2.21547E-02  2.60153E-02  2.97921E-02  3.32410E-02
   3.62809E-02  3.92610E-02  4.23456E-02  4.53763E-02  4.80899E-02  5.02584E-02  5.21096E-02  5.41397E-02  5.68794E-02  6.02110E-02
   6.36710E-02  6.64296E-02  6.79697E-02  6.81990E-02  6.74706E-02  6.63266E-02  6.50548E-02  6.37465E-02  6.19898E-02  5.94867E-02
   5.60870E-02  5.20015E-02  4.75696E-02  4.30500E-02  3.86280E-02  3.45021E-02  3.07044E-02  2.70533E-02  2.34131E-02  1.98875E-02
   1.66800E-02  1.40089E-02  1.17008E-02  9.53372E-03  7.33534E-03  5.17281E-03  3.11883E-03  1.23683E-03 -3.59310E-04 -1.68684E-03
  -2.68320E-03 -3.28609E-03 -3.33036E-03 -2.59279E-03 -9.71761E-04  1.50097E-03  4.90714E-03  9.28803E-03  1.48924E-02  2.39536E-02
   4.04490E-02  6.72147E-02  1.04301E-01  1.45874E-01  1.77508E-01  1.85298E-01  1.64803E-01  1.25164E-01  8.37838E-02  5.68181E-02
   5.00553E-02  5.62129E-02  6.88559E-02  8.00839E-02  8.88139E-02  9.71512E-02  1.05038E-01  1.11946E-01  1.17309E-01  1.20972E-01
   1.23137E-01  1.24258E-01  1.24754E-01  1.24548E-01  1.23276E-01  1.20515E-01  1.16024E-01  1.10029E-01  1.03173E-01  9.62420E-02
   8.96539E-02  8.33703E-02  7.71028E-02  7.07942E-02  6.46286E-02  5.90244E-02  5.40628E-02  4.95883E-02  4.53845E-02  4.14712E-02
   3.79121E-02  3.48765E-02  3.25200E-02  3.09353E-02  3.04465E-02  3.11179E-02  3.26602E-02  3.47018E-02  3.71569E-02  4.00983E-02
   4.35657E-02  4.74148E-02  5.12587E-02  5.46292E-02  5.72933E-02  5.92477E-02  6.08441E-02  6.25072E-02  6.44306E-02  6.64671E-02
   6.81100E-02  6.89084E-02  6.86616E-02  6.75667E-02  6.60246E-02  6.42579E-02  6.23140E-02  6.02560E-02  5.83307E-02  5.65536E-02
   5.47297E-02  5.27561E-02  5.04970E-02  4.81060E-02  4.56507E-02  4.31967E-02  4.08884E-02  3.89139E-02  3.73727E-02  3.59868E-02
   3.43064E-02  3.19774E-02  2.89005E-02  2.51352E-02  2.07954E-02  1.59750E-02  1.07160E-02  4.80940E-03 -2.30175E-03 -1.11465E-02
  -2.17856E-02 -3.36950E-02 -4.60477E-02 -5.81955E-02 -6.98334E-02 -8.09634E-02 -9.14975E-02 -1.01170E-01 -1.09669E-01 -1.16604E-01
  -1.21720E-01 -1.24706E-01 -1.25686E-01 -1.25099E-01 -1.23312E-01 -1.20405E-01 -1.16625E-01 -1.12506E-01 -1.08619E-01 -1.05096E-01
  -1.01500E-01 -9.72454E-02 -9.20891E-02 -8.61432E-02 -7.96326E-02 -7.27965E-02 -6.58316E-02 -5.89805E-02 -5.23216E-02 -4.58826E-02
  -3.96511E-02 -3.35636E-02 -2.77595E-02 -2.23514E-02 -1.73926E-02 -1.28032E-02 -8.40536E-03 -4.21851E-03 -4.85924E-04  2.55047E-03
   5.15646E-03  7.64444E-03  1.00002E-02  1.20144E-02  1.35517E-02  1.46623E-02  1.56335E-02  1.64838E-02  1.71412E-02  1.79126E-02
   1.90603E-02  2.06658E-02  2.24877E-02  2.41146E-02  2.53048E-02  2.59264E-02  2.61056E-02  2.60606E-02  2.59131E-02  2.57962E-02
   2.56892E-02  2.55114E-02  2.52722E-02  2.51169E-02  2.51829E-02  2.54985E-02  2.59775E-02  2.62597E-02  2.59879E-02  2.50459E-02
   2.35586E-02  2.21141E-02  2.14480E-02  2.16100E-02  2.19576E-02  2.18655E-02  2.12094E-02  2.02942E-02  1.94480E-02  1.88293E-02
   1.86944E-02  1.91089E-02  1.97271E-02  2.01999E-02  2.04034E-02  2.06381E-02  2.10534E-02  2.15197E-02  2.17981E-02  2.17529E-02
   2.13751E-02  2.06149E-02  1.95572E-02  1.85767E-02  1.80961E-02  1.82711E-02  1.88087E-02  1.92101E-02  1.93132E-02  1.92331E-02
   1.93623E-02  1.98907E-02  2.07917E-02  2.15602E-02  2.15709E-02  2.06142E-02  1.91262E-02  1.78398E-02  1.72245E-02  1.70508E-02
   1.67167E-02  1.58782E-02  1.46488E-02  1.34795E-02  1.25738E-02  1.18502E-02  1.11106E-02  1.02539E-02  9.53924E-03  9.10032E-03
   8.65379E-03  7.89480E-03  6.77881E-03  5.55940E-03  4.62831E-03  4.15376E-03  4.09326E-03  4.46124E-03  5.12044E-03  5.50477E-03
   5.14611E-03  4.13749E-03  2.90261E-03  1.94318E-03
 NY background values follow
     2.084E-02    2.080E-02    2.076E-02    2.071E-02    2.067E-02    2.063E-02    2.059E-02    2.054E-02    2.050E-02    2.046E-02
     2.042E-02    2.037E-02    2.033E-02    2.029E-02    2.025E-02    2.021E-02    2.016E-02    2.012E-02    2.008E-02    2.004E-02
     1.999E-02    1.995E-02    1.991E-02    1.987E-02    1.983E-02    1.978E-02    1.974E-02    1.970E-02    1.966E-02    1.961E-02
     1.957E-02    1.953E-02    1.949E-02    1.944E-02    1.940E-02    1.936E-02    1.932E-02    1.928E-02    1.923E-02    1.919E-02
     1.915E-02    1.911E-02    1.906E-02    1.902E-02    1.898E-02    1.894E-02    1.889E-02    1.885E-02    1.881E-02    1.877E-02
     1.873E-02    1.868E-02    1.864E-02    1.860E-02    1.856E-02    1.851E-02    1.847E-02    1.843E-02    1.839E-02    1.834E-02
     1.830E-02    1.826E-02    1.822E-02    1.818E-02    1.813E-02    1.809E-02    1.805E-02    1.801E-02    1.796E-02    1.792E-02
