 
 $NMID
 ID=''
 FMTDAT='(2E13.5)'
 TRAMP=   1.00000E+0
 VOLUME=   1.00000E+0
 $END
   6.40713E+2  -4.23138E+2
   5.13161E+2   2.25647E+3
   1.39754E+3  -5.15249E+3
  -1.07053E+3  -4.14240E+2
  -2.47550E+3   1.99416E+3
   2.61993E+3   1.70962E+2
   1.92378E+3   2.18538E+3
   1.53273E+1  -4.77234E+2
   1.51109E+3  -4.34463E+3
  -4.44695E+2  -2.84308E+3
   7.49591E+2  -4.19691E+3
   1.46152E+3  -3.97110E+3
   1.05310E+3   3.91423E+3
  -4.60596E+3   2.18876E+3
  -3.20947E+3   1.06964E+2
  -2.19362E+3  -2.71506E+3
   3.29630E+3  -2.76110E+3
   2.59901E+3   2.91194E+2
   4.06300E+2   3.05833E+3
  -2.71681E+3  -9.11310E+2
   3.71154E+2  -2.28637E+3
   2.26916E+3   2.77125E+3
  -3.52146E+3   2.39730E+3
  -2.76453E+3  -1.67702E+3
   1.19440E+3  -9.83607E+2
   2.75888E+3   2.99672E+3
  -1.20821E+3   4.26299E+3
  -1.64580E+3  -6.86809E+2
  -2.35113E+3  -2.13717E+3
   2.95709E+3  -4.59175E+3
   6.62362E+3   2.61276E+3
  -1.36339E+3   5.20650E+3
  -2.74275E+3   2.08649E+3
  -6.52160E+2  -3.08632E+3
  -3.81391E+3   1.75946E+3
  -3.99134E+3  -1.46881E+3
  -4.25544E+2  -4.26888E+3
   3.62215E+3  -1.23000E+2
   1.05786E+3   2.68735E+3
   7.46888E+2   2.33434E+3
  -1.89437E+3   5.51164E+3
  -7.48814E+3   2.87050E+3
  -2.70670E+3  -5.23424E+3
   4.52138E+3  -4.45054E+3
   2.86560E+3  -1.64834E+2
   3.21191E+3   9.01289E+2
   2.34553E+3   1.13548E+3
   3.59302E+3   2.67036E+3
  -9.73668E+2   2.64463E+3
   5.05953E+2   1.82669E+3
  -2.53170E+3  -1.88778E+3
   1.41746E+3  -2.54459E+3
   7.16407E+3  -2.03712E+3
   5.07702E+3   1.70245E+3
   5.72288E+2   1.86414E+3
  -1.14816E+3   2.60503E+3
  -7.85727E+2   7.16677E+2
  -4.05188E+3  -2.02209E+3
  -4.23197E+3  -5.38329E+3
   1.64640E+3  -7.37917E+3
   4.57601E+3  -3.07589E+3
   4.56320E+3   7.88043E+2
   3.41227E+3  -1.59507E+2
  -2.80666E+3  -9.94872E+2
   4.52724E+2  -2.42543E+3
   5.59904E+3  -1.91758E+3
   3.02326E+3   2.70612E+3
  -2.28009E+3   1.32867E+3
  -5.02048E+2  -3.11824E+2
   8.05534E+2  -5.70382E+2
  -1.89214E+2   2.00834E+3
  -4.52659E+3   1.55335E+3
  -1.52136E+3   1.84921E+2
  -1.75589E+3  -1.51339E+3
  -7.00720E+1  -3.99291E+2
   5.24763E+2   1.58959E+3
  -3.23312E+3  -1.28356E+2
  -6.75925E+2  -3.56062E+2
   4.22252E+2  -2.57552E+3
   4.13083E+2  -1.54119E+2
  -1.65584E+3   1.06437E+3
  -9.68331E+2   1.91781E+2
  -3.63603E+2   7.83313E+2
   1.80492E+3   9.41003E+2
  -4.29065E+2   1.82555E+3
  -5.47846E+2  -5.51555E+2
  -4.29291E+2  -3.00543E+3
   3.94181E+3  -3.19541E+3
   2.43547E+3   3.44987E+1
   2.60147E+3   2.38192E+3
   9.02370E+2   2.87531E+3
   3.51654E+2   1.22900E+3
  -3.55636E+2   4.07300E+3
  -8.50560E+2   4.39783E+3
  -4.16804E+3   2.22580E+2
  -2.53687E+3  -3.55033E+3
   2.42565E+3  -9.33707E+1
   1.14272E+3   1.15334E+3
  -3.61954E+2   1.71580E+3
  -4.46576E+3  -3.01190E+3
   4.83100E+2  -2.94953E+3
   4.77598E+3  -1.10369E+3
   8.76660E+2   9.91010E+2
  -1.41415E+3   3.62288E+3
  -1.25134E+3   1.48188E+3
   2.06723E+3   1.32761E+3
   7.46482E+2   1.38138E+3
  -2.26536E+3   1.54258E+3
  -3.59849E+3  -1.61019E+3
   1.71952E+3  -2.32776E+3
   3.27476E+3  -5.04303E+2
   1.40805E+3   2.91974E+2
  -5.70516E+2   1.88953E+3
   1.50468E+3   2.49055E+3
  -1.42668E+3   2.64920E+3
  -1.22269E+3  -1.00898E+3
  -1.12027E+3  -5.29321E+1
  -1.36539E+1  -9.14625E+2
   1.35777E+2  -2.22129E+2
   8.06048E+2  -1.15764E+2
   2.63897E+3   9.04854E+2
  -1.67168E+3   6.49031E+1
  -4.94768E+2   5.13648E+2
   6.32951E+2   1.39400E+2
   1.64102E+3   1.66973E+3
  -2.31015E+3   3.13441E+3
   3.83819E+2   1.89748E+3
   5.11001E+2   6.15036E+2
  -1.45093E+3  -1.30924E+3
  -1.59367E+3   1.57062E+3
  -1.32056E+3  -1.97242E+3
   1.49949E+3  -1.17616E+3
   3.13933E+3   2.29925E+3
  -7.90577E+2   2.64856E+3
  -3.21952E+2   2.59482E+3
  -2.20776E+3  -3.20975E+0
   5.54673E+2   2.17556E+2
  -1.58137E+2  -1.26380E+3
  -6.54109E+2   1.70373E+2
   5.96624E+2  -2.28906E+2
   1.17912E+3  -1.03815E+3
   1.88937E+3  -2.87938E+2
   9.57187E+2   2.89617E+3
  -5.74629E+2   1.91988E+3
  -2.91497E+2  -9.55403E+2
   3.38321E+2  -2.16559E+3
   2.25454E+2   1.67321E+3
   5.07258E+2   1.72250E+3
  -2.12823E+2  -2.11702E+2
  -1.42532E+3   1.75715E+3
  -1.74849E+2   9.37828E+2
   1.48186E+2  -2.09540E+1
  -3.27166E+2   2.09051E+2
   1.33818E+3  -2.14268E+2
   2.40784E+3  -1.53055E+3
  -6.45081E+2  -1.19182E+3
  -1.86882E+3   6.95663E+2
   4.65151E+1  -7.37464E+2
   5.68983E+2   1.54483E+3
   2.90463E+2  -9.97910E+2
   2.79527E+2  -5.99320E+2
   4.35456E+2  -1.71684E+2
  -1.86435E+3  -3.40957E+2
  -4.20254E+2  -7.10582E+2
   1.69209E+3   2.10810E+3
  -2.08044E+3   3.54834E+2
   2.73931E+2  -1.87187E+3
   1.81574E+3  -1.87939E+2
   1.40627E+3   2.79879E+2
  -1.08683E+3   1.29572E+3
  -1.20757E+3  -3.67529E+2
  -5.45799E+2  -8.97795E+2
   8.96415E+2   2.05109E+2
  -6.13297E+1  -1.37069E+3
   3.85748E+2  -1.90126E+3
   6.18232E+2   8.14494E+2
   1.56545E+3  -3.13165E+2
   1.16181E+3   1.30329E+3
   5.67754E+2   8.61520E+2
  -2.32451E+3   6.97474E+2
  -3.26253E+3  -1.29302E+3
   7.39825E+2   8.85436E+1
  -7.74182E+2  -2.31192E+3
  -9.85288E+2  -1.54144E+2
   6.18450E+2  -5.67297E+1
  -2.53315E+2   1.37544E+2
  -1.03107E+2   2.18378E+3
  -1.42103E+3  -8.16622E+2
   5.61924E+2  -1.82949E+3
   5.83021E+2  -1.29593E+3
   8.76486E+2  -4.43718E+2
   7.97922E+2  -5.19638E+2
  -3.76198E+2  -1.63134E+3
   1.31765E+3  -1.05097E+3
  -1.81952E+3   4.01059E+2
   4.13918E+2   9.65351E+2
  -6.50196E+2   1.41529E+3
   1.19157E+2   1.94432E+2
   1.72534E+3   2.40526E+2
   2.61693E+2   2.07848E+2
   7.92526E+1   1.68386E+3
  -2.41620E+3  -5.96115E+2
  -1.58672E+3  -2.03127E+3
   1.23342E+3  -4.38582E+2
   9.63910E+1  -1.10546E+3
  -1.37890E+3  -3.79000E+2
  -2.44976E+3  -1.45425E+2
  -2.49721E+2   5.72494E+2
  -1.31728E+3   1.61839E+3
   2.25524E+2   7.56897E+2
  -3.37579E+2  -3.80763E+2
  -9.99505E+2  -1.24153E+3
   1.60304E+3  -3.95242E+2
   2.42499E+3   6.97355E+2
   1.66241E+2   6.67944E+2
  -1.31418E+3  -9.56197E+2
  -7.51745E+2  -3.08515E+3
  -8.51831E+2   6.02903E+1
  -7.40233E+2   4.57498E+2
  -2.85020E+2  -2.60317E+2
  -4.69956E+2   9.31009E+2
   1.05808E+3   1.95059E+2
   1.27367E+2   1.43524E+3
   9.72967E+2  -1.62767E+3
  -4.09109E+2   1.78535E+2
  -3.00782E+2   8.23305E+2
   2.10166E+2  -2.14363E+2
  -3.25081E+2  -2.52577E+2
  -2.27491E+3   3.55127E+2
   2.40200E+2  -4.92447E+2
  -4.17397E+2   3.03294E+2
   7.40198E+2  -3.51688E+2
  -1.33839E+3  -1.70339E+3
  -6.54073E+2  -2.86672E+3
   2.97101E+2  -1.90058E+2
   1.17747E+3   2.04544E+3
   4.62368E+1   1.97897E+3
  -4.79408E+2   1.32074E+3
   6.09673E+2   4.64251E+2
   2.60423E+3   4.23182E+2
  -1.13080E+2   5.91108E+2
  -1.23476E+3   1.97428E+3
  -2.26161E+2  -1.15220E+3
  -5.84581E+2  -9.44088E+2
   5.15849E+2  -1.02109E+3
  -1.98527E+2   8.83938E+2
   1.07771E+3   2.02113E+3
  -1.09853E+3   7.40126E+1
   1.30676E+3  -1.91182E+2
   4.10594E+2   5.82108E+2
  -1.67544E+3   8.16620E+2
  -2.06584E+3   1.46122E+3
  -3.15618E+2   3.29302E+2
   6.34862E+2  -3.27512E+2
   1.45175E+3  -6.90113E+2
   2.01538E+2   4.22292E+2
   7.95267E+2   7.12256E+1
  -1.07004E+3   1.43052E+3
  -1.11892E+3  -4.67310E+2
  -1.45790E+3  -6.96409E+2
  -2.66898E+2   8.75676E+2
  -1.10368E+3  -2.06692E+3
   1.31759E+3  -1.14550E+3
   2.86465E+2   7.97879E+2
  -6.45490E+2  -1.83982E+3
  -1.45795E+3   6.50448E+2
   7.11153E+2  -1.84719E+3
  -9.87564E+2  -1.53020E+3
  -1.40868E+3  -1.93153E+3
   5.57114E+2  -2.47153E+3
   1.51973E+3  -7.28455E+2
   1.85122E+3   1.71415E+2
  -1.48964E+3   2.47066E+3
  -2.31664E+3  -8.58724E+2
   1.58591E+3   8.84166E+1
   4.54411E+2  -1.66428E+3
  -9.72256E+2   4.83914E+0
  -8.38651E+2   1.41332E+3
  -6.66060E+2  -1.15860E+3
  -4.34901E+2  -1.25102E+3
  -1.59981E+2   9.06456E+2
  -2.32435E+3  -9.94347E+2
   1.80594E+2  -1.01541E+3
  -6.15683E+2  -2.83926E+3
  -9.09133E+0   5.46477E+2
  -3.38735E+1   2.88711E+2
   4.53880E+1   8.45214E+2
  -8.58580E+2  -1.64999E+3
   6.84591E+1   6.72936E+1
   6.34058E+2  -2.79404E+2
   8.58983E+1   9.56475E+2
   6.01074E+2   4.00489E+2
  -9.90042E+2   1.29661E+3
  -3.84018E+2   9.54049E+2
   9.86235E+2  -2.84137E+2
  -6.31875E+2  -1.43766E+3
  -9.61641E+2  -5.03777E+0
   4.84073E+2  -1.09160E+3
   1.35650E+1   5.81525E+2
  -1.57653E+3  -2.07535E+3
  -1.99233E+3  -8.28663E+2
   6.81860E+2   6.58993E+1
  -6.61510E+2   1.60236E+3
  -4.65017E+2  -8.82607E+1
   8.52356E+1  -8.23855E+2
  -1.06907E+3  -2.68100E+1
   1.62998E+3  -7.30888E+2
  -4.69727E+2   1.22241E+3
  -9.60893E+2   9.58843E+2
  -6.74482E+2   4.72015E+2
  -6.34402E+2  -1.19648E+3
  -1.20258E+1  -3.09916E+2
  -1.73209E+3   1.16414E+3
  -1.89186E+3   1.19731E+3
   2.85864E+2   1.36536E+3
   8.73686E+2  -4.98032E+2
  -6.43595E+2   5.75692E+2
   8.98945E+2   1.01666E+2
  -6.44992E+2  -9.73346E+2
  -2.15896E+2  -1.28588E+3
  -7.24804E+2  -1.02914E+3
  -3.31543E+2   5.18669E+1
   2.29176E+2   2.22182E+2
  -1.03132E+3  -1.12120E+3
  -3.96193E+2   1.21757E+3
   5.25187E+2   1.40542E+2
  -1.06555E+3  -8.61637E+2
   1.19708E+3   7.92907E+2
  -1.88328E+2   1.28387E+3
   7.81867E+2   3.11522E+2
  -1.56725E+3   1.45111E+3
   4.98792E+2   1.34168E+3
  -1.51315E+3   2.24734E+0
  -5.98832E+1  -1.65204E+3
  -4.12065E+2   8.30049E+2
  -3.84925E+2   3.34434E+2
   1.11893E+3  -3.30011E+2
  -1.74824E+2  -7.52530E+2
   1.82662E+3  -8.55998E+2
  -1.43039E+3   9.69452E+2
   4.86169E+2  -1.46692E+3
  -1.11003E+3   1.01898E+3
   1.52121E+3  -9.09344E+2
  -1.16488E+3   1.88613E+3
  -1.10440E+3   2.05878E+3
   1.47042E+2  -5.30324E+2
   1.69030E+2  -9.01888E+2
   1.30868E+3   5.49433E+1
   1.46018E+3  -1.58581E+2
  -7.22753E+2   5.74710E+2
   6.43636E+2  -1.19052E+3
   5.75405E+2   1.66243E+2
  -8.58038E+2   1.50181E+2
  -1.15296E+2  -3.75102E+2
   1.29573E+3   2.53850E+2
   3.67084E+2  -2.30718E+3
   2.06211E+3   3.65396E+2
   1.45761E+3   1.54437E+3
   7.67454E+1   1.54472E+3
  -1.35165E+3  -1.29028E+2
  -6.21385E+2   1.61996E+3
   1.12497E+3   1.34847E+3
   2.77232E+2   1.71442E+3
  -1.68997E+3  -3.23762E+2
   8.95552E+1  -7.40960E+2
   5.00555E+2  -3.37614E+2
  -2.17040E+3   6.53767E+2
