 
 $NMID
 ID=''
 FMTDAT='(2E13.5)'
 TRAMP=   1.00000E+0
 VOLUME=   1.00000E+0
 $END
  -1.89318E+4  -1.58475E+3
  -4.58805E+4  -1.73280E+4
  -4.82827E+4  -8.66281E+3
  -4.47227E+4  -7.52259E+3
  -4.63177E+4  -8.93165E+3
  -4.68969E+4  -6.71565E+3
  -4.51939E+4  -6.53176E+3
  -4.57428E+4  -7.37559E+3
  -4.62124E+4  -5.96623E+3
  -4.50371E+4  -5.82198E+3
  -4.51462E+4  -6.32654E+3
  -4.53683E+4  -5.15062E+3
  -4.45765E+4  -4.83920E+3
  -4.47381E+4  -5.35820E+3
  -4.46655E+4  -4.62871E+3
  -4.39131E+4  -4.36973E+3
  -4.39019E+4  -4.52885E+3
  -4.38103E+4  -3.86491E+3
  -4.31811E+4  -3.58834E+3
  -4.31719E+4  -3.80340E+3
  -4.29429E+4  -3.31907E+3
  -4.24062E+4  -2.83382E+3
  -4.23344E+4  -2.89027E+3
  -4.21675E+4  -2.55836E+3
  -4.16083E+4  -2.37799E+3
  -4.15237E+4  -2.13674E+3
  -4.14242E+4  -1.91413E+3
  -4.09052E+4  -1.72259E+3
  -4.06786E+4  -1.69765E+3
  -4.05290E+4  -1.31751E+3
  -4.00998E+4  -9.77941E+2
  -3.99962E+4  -8.60464E+2
  -3.98245E+4  -5.81852E+2
  -3.94005E+4  -3.66830E+2
  -3.92464E+4  -2.74637E+2
  -3.90270E+4   9.48572E+1
  -3.85762E+4   2.66490E+2
  -3.83115E+4   4.74032E+2
  -3.81527E+4   7.43607E+2
  -3.79362E+4   9.72245E+2
  -3.76126E+4   1.12238E+3
  -3.73599E+4   1.15719E+3
  -3.70720E+4   1.22008E+3
  -3.67086E+4   1.35409E+3
  -3.64153E+4   1.61582E+3
  -3.61222E+4   1.74976E+3
  -3.58553E+4   1.83984E+3
  -3.56025E+4   2.05874E+3
  -3.53062E+4   2.22144E+3
  -3.50660E+4   2.38686E+3
  -3.47454E+4   2.54871E+3
  -3.44734E+4   2.64327E+3
  -3.41424E+4   2.80625E+3
  -3.39037E+4   3.01105E+3
  -3.36711E+4   3.13151E+3
  -3.33419E+4   3.30695E+3
  -3.31748E+4   3.35533E+3
  -3.28335E+4   3.46365E+3
  -3.25255E+4   3.52076E+3
  -3.22068E+4   3.63508E+3
  -3.19733E+4   3.70648E+3
  -3.16728E+4   3.79675E+3
  -3.13980E+4   3.99409E+3
  -3.12013E+4   4.03243E+3
  -3.08680E+4   4.10420E+3
  -3.05883E+4   4.19419E+3
  -3.03353E+4   4.30155E+3
  -3.00853E+4   4.49482E+3
  -2.97808E+4   4.49711E+3
  -2.95097E+4   4.56644E+3
  -2.91657E+4   4.72536E+3
  -2.90589E+4   4.73846E+3
  -2.86512E+4   4.86324E+3
  -2.84639E+4   4.94068E+3
  -2.81432E+4   5.00454E+3
  -2.78832E+4   5.15936E+3
  -2.76271E+4   5.26333E+3
  -2.73554E+4   5.37094E+3
  -2.71061E+4   5.44877E+3
  -2.68444E+4   5.58037E+3
  -2.65311E+4   5.64289E+3
  -2.62867E+4   5.76599E+3
  -2.59743E+4   5.87080E+3
  -2.57840E+4   5.91173E+3
  -2.55022E+4   6.03414E+3
  -2.52838E+4   6.02801E+3
  -2.49948E+4   6.09617E+3
  -2.47441E+4   6.19617E+3
  -2.44550E+4   6.32773E+3
  -2.43498E+4   6.41034E+3
  -2.41071E+4   6.45871E+3
  -2.38596E+4   6.57194E+3
  -2.36318E+4   6.62303E+3
  -2.34178E+4   6.74993E+3
  -2.31193E+4   6.78412E+3
  -2.29171E+4   6.84341E+3
  -2.25987E+4   6.94019E+3
  -2.24883E+4   7.01773E+3
  -2.22730E+4   7.03622E+3
  -2.20174E+4   7.11882E+3
  -2.17860E+4   7.09940E+3
  -2.14916E+4   7.22564E+3
  -2.12813E+4   7.32820E+3
  -2.11370E+4   7.36326E+3
  -2.08870E+4   7.39206E+3
  -2.07131E+4   7.50323E+3
  -2.05683E+4   7.51331E+3
  -2.02823E+4   7.65011E+3
  -2.01130E+4   7.63803E+3
  -1.99121E+4   7.71276E+3
  -1.97314E+4   7.74276E+3
  -1.94775E+4   7.74178E+3
  -1.93861E+4   7.79565E+3
  -1.91319E+4   7.80735E+3
  -1.89144E+4   7.90373E+3
  -1.87057E+4   7.85189E+3
  -1.85388E+4   7.90155E+3
  -1.83153E+4   7.88558E+3
  -1.81403E+4   7.96974E+3
  -1.79572E+4   7.96003E+3
  -1.77897E+4   8.03547E+3
  -1.76234E+4   8.04729E+3
  -1.74554E+4   8.07742E+3
  -1.72213E+4   8.01753E+3
  -1.71131E+4   8.07182E+3
  -1.68738E+4   8.12317E+3
  -1.66715E+4   8.14437E+3
  -1.64814E+4   8.11452E+3
  -1.63484E+4   8.13392E+3
  -1.61737E+4   8.10758E+3
  -1.60155E+4   8.08423E+3
  -1.57963E+4   8.05147E+3
  -1.56252E+4   8.10560E+3
  -1.54673E+4   8.07812E+3
  -1.53215E+4   8.09623E+3
  -1.52027E+4   8.13410E+3
  -1.49568E+4   8.10676E+3
  -1.47264E+4   8.14640E+3
  -1.46099E+4   8.11776E+3
  -1.44181E+4   8.06160E+3
  -1.42512E+4   8.10272E+3
  -1.41282E+4   8.09702E+3
  -1.39475E+4   8.09789E+3
  -1.38019E+4   8.18590E+3
  -1.36847E+4   8.07129E+3
  -1.35754E+4   8.10800E+3
  -1.33857E+4   8.13873E+3
  -1.31713E+4   8.07198E+3
  -1.31274E+4   8.16862E+3
  -1.29701E+4   8.09866E+3
  -1.28223E+4   8.11300E+3
  -1.25759E+4   8.06045E+3
  -1.25201E+4   8.12712E+3
  -1.23359E+4   8.07905E+3
  -1.22054E+4   8.13517E+3
  -1.20958E+4   8.05289E+3
  -1.19315E+4   8.10127E+3
  -1.18080E+4   8.12343E+3
  -1.16584E+4   8.04250E+3
  -1.15157E+4   8.10280E+3
  -1.14544E+4   8.11299E+3
  -1.13264E+4   8.05814E+3
  -1.11827E+4   8.06048E+3
  -1.10798E+4   8.08361E+3
  -1.09304E+4   8.09045E+3
  -1.08868E+4   8.07331E+3
  -1.06782E+4   8.07947E+3
  -1.06179E+4   8.02843E+3
  -1.04454E+4   8.08717E+3
  -1.03973E+4   8.03959E+3
  -1.02808E+4   7.99848E+3
  -1.01418E+4   7.91463E+3
  -1.00004E+4   7.92519E+3
  -9.94918E+3   7.88914E+3
  -9.80457E+3   7.94120E+3
  -9.75347E+3   7.81003E+3
  -9.49156E+3   7.86461E+3
  -9.40643E+3   7.81637E+3
  -9.33568E+3   7.84132E+3
  -9.26375E+3   7.88783E+3
  -9.20064E+3   7.76541E+3
  -9.04778E+3   7.76046E+3
  -8.97091E+3   7.71252E+3
  -8.83110E+3   7.79718E+3
  -8.71586E+3   7.71868E+3
  -8.68601E+3   7.67684E+3
  -8.48279E+3   7.76598E+3
  -8.52570E+3   7.65975E+3
  -8.33614E+3   7.60597E+3
  -8.25937E+3   7.66596E+3
  -8.11792E+3   7.60996E+3
  -7.96714E+3   7.56641E+3
  -7.99438E+3   7.56798E+3
  -7.88471E+3   7.59558E+3
  -7.74944E+3   7.49065E+3
  -7.72919E+3   7.51276E+3
  -7.58485E+3   7.50456E+3
  -7.52323E+3   7.35458E+3
  -7.36512E+3   7.44531E+3
  -7.32510E+3   7.43601E+3
  -7.20669E+3   7.44345E+3
  -7.15144E+3   7.38979E+3
  -7.03938E+3   7.39766E+3
  -6.92599E+3   7.32917E+3
  -6.89918E+3   7.33328E+3
  -6.73604E+3   7.30101E+3
  -6.72703E+3   7.39820E+3
  -6.66807E+3   7.32905E+3
  -6.52855E+3   7.33457E+3
  -6.44012E+3   7.30129E+3
  -6.35806E+3   7.25346E+3
  -6.31481E+3   7.29625E+3
  -6.28890E+3   7.14799E+3
  -6.13757E+3   7.16734E+3
  -6.08337E+3   7.14924E+3
  -6.00371E+3   7.13014E+3
  -5.92224E+3   7.14189E+3
  -5.85251E+3   7.03959E+3
  -5.76952E+3   7.02721E+3
  -5.63753E+3   7.03708E+3
  -5.66203E+3   7.01222E+3
  -5.61304E+3   7.03800E+3
  -5.48885E+3   6.93159E+3
  -5.43008E+3   6.92587E+3
  -5.34028E+3   6.90577E+3
  -5.28199E+3   6.86471E+3
  -5.24172E+3   6.85832E+3
  -5.20076E+3   6.85461E+3
  -5.12231E+3   6.77438E+3
  -5.00957E+3   6.78548E+3
  -4.90966E+3   6.77189E+3
  -4.80359E+3   6.77632E+3
  -4.79173E+3   6.76353E+3
  -4.77509E+3   6.70043E+3
  -4.66918E+3   6.69748E+3
  -4.54937E+3   6.67076E+3
  -4.59645E+3   6.63654E+3
  -4.43435E+3   6.62331E+3
  -4.46101E+3   6.54958E+3
  -4.38566E+3   6.51709E+3
  -4.22566E+3   6.53270E+3
  -4.20295E+3   6.56478E+3
  -4.14306E+3   6.51666E+3
  -4.11438E+3   6.43729E+3
  -4.04361E+3   6.44706E+3
  -3.96629E+3   6.39032E+3
  -3.90010E+3   6.40702E+3
  -3.84398E+3   6.38974E+3
  -3.78568E+3   6.33897E+3
  -3.71437E+3   6.27195E+3
  -3.69393E+3   6.27867E+3
  -3.70089E+3   6.21541E+3
  -3.55886E+3   6.16665E+3
  -3.49314E+3   6.16523E+3
  -3.52760E+3   6.12404E+3
  -3.40647E+3   6.10161E+3
  -3.34646E+3   6.03945E+3
  -3.31447E+3   6.01097E+3
  -3.23004E+3   6.05533E+3
  -3.25327E+3   5.99590E+3
  -3.14502E+3   5.99632E+3
  -3.14578E+3   5.95842E+3
  -3.01826E+3   5.87028E+3
  -2.96204E+3   5.89159E+3
  -2.96862E+3   5.82313E+3
  -2.92168E+3   5.83136E+3
  -2.85339E+3   5.77421E+3
  -2.76530E+3   5.76972E+3
  -2.73529E+3   5.72445E+3
  -2.73558E+3   5.66683E+3
  -2.61446E+3   5.67601E+3
  -2.56313E+3   5.60224E+3
  -2.54900E+3   5.59589E+3
  -2.47459E+3   5.52444E+3
  -2.41010E+3   5.47148E+3
  -2.38134E+3   5.54322E+3
  -2.36034E+3   5.40611E+3
  -2.31716E+3   5.46992E+3
  -2.24274E+3   5.46284E+3
  -2.12854E+3   5.36958E+3
  -2.09655E+3   5.39144E+3
  -2.07486E+3   5.36528E+3
  -2.11480E+3   5.28548E+3
  -1.99977E+3   5.22202E+3
  -1.96291E+3   5.19780E+3
  -1.99525E+3   5.20717E+3
  -1.93680E+3   5.21488E+3
  -1.97341E+3   5.17207E+3
  -1.89766E+3   5.13684E+3
  -1.73729E+3   5.07390E+3
  -1.84319E+3   5.06816E+3
  -1.72221E+3   5.00126E+3
  -1.67491E+3   4.99533E+3
  -1.65143E+3   5.01874E+3
  -1.62970E+3   4.92578E+3
  -1.63788E+3   4.94954E+3
  -1.51391E+3   4.82944E+3
  -1.49772E+3   4.81431E+3
  -1.54830E+3   4.81929E+3
  -1.39212E+3   4.80482E+3
  -1.41160E+3   4.79291E+3
  -1.41314E+3   4.68810E+3
  -1.36691E+3   4.74690E+3
  -1.33241E+3   4.65717E+3
  -1.26435E+3   4.68649E+3
  -1.19001E+3   4.63012E+3
  -1.22788E+3   4.66658E+3
  -1.20620E+3   4.65778E+3
  -1.17133E+3   4.55471E+3
  -1.10145E+3   4.52762E+3
  -1.11890E+3   4.46552E+3
  -1.02985E+3   4.47611E+3
  -1.08646E+3   4.38988E+3
  -9.90603E+2   4.39152E+3
  -1.00196E+3   4.40158E+3
  -9.13795E+2   4.36853E+3
  -9.75464E+2   4.31120E+3
  -9.14863E+2   4.32543E+3
  -9.11987E+2   4.27592E+3
  -9.28712E+2   4.22873E+3
  -8.49405E+2   4.21533E+3
  -8.27757E+2   4.17914E+3
  -8.06908E+2   4.18928E+3
  -7.62614E+2   4.15011E+3
  -7.53566E+2   4.11707E+3
  -7.44985E+2   4.10393E+3
  -6.69192E+2   4.06278E+3
  -7.09153E+2   4.06610E+3
  -7.10828E+2   4.04909E+3
  -6.20199E+2   3.99730E+3
  -6.08536E+2   3.98085E+3
  -6.61343E+2   3.98478E+3
  -5.03318E+2   3.91683E+3
  -5.50774E+2   3.93523E+3
  -4.84131E+2   3.93595E+3
  -4.71295E+2   3.85959E+3
  -4.71477E+2   3.88921E+3
  -3.92049E+2   3.78318E+3
  -4.27664E+2   3.82756E+3
  -4.49446E+2   3.81569E+3
  -4.36157E+2   3.72561E+3
  -3.98703E+2   3.73138E+3
  -3.35311E+2   3.73621E+3
  -3.99944E+2   3.70179E+3
  -2.97779E+2   3.69094E+3
  -2.69120E+2   3.64996E+3
  -2.93397E+2   3.62772E+3
  -2.45398E+2   3.60316E+3
  -1.96447E+2   3.61071E+3
  -2.33785E+2   3.53425E+3
  -2.45084E+2   3.55648E+3
  -2.02949E+2   3.56214E+3
  -8.32348E+1   3.49787E+3
  -1.35658E+2   3.45771E+3
  -1.52453E+2   3.44760E+3
  -9.73754E+1   3.44241E+3
  -5.65103E+1   3.44597E+3
  -1.45485E+2   3.45732E+3
  -4.46745E+1   3.41151E+3
  -8.90067E+1   3.38461E+3
  -3.52192E+1   3.33621E+3
  -6.11387E+1   3.27849E+3
  -1.87219E+1   3.28255E+3
   7.94823E-1   3.24043E+3
   3.26729E+1   3.18291E+3
   3.76311E+1   3.19149E+3
   7.26320E+1   3.23822E+3
