 LCModel (Version 6.3-1N) Copyright: S.W. Provencher.          Ref.: Magn. Reson. Med. 30:672-679 (1993).                
 Slice_N1@23_13  02-Jun-2023 14:37:32
 27 lines in following concentration table = NCONC+1
    Conc.  %SD /Cr+PCr  Metabolite                                         
 1.64E-06  19% 2.0E-04 Mac                                                 
 4.09E-02  23%   5.074 Cr                                                  
 2.36E-02  38%   2.926 PCr                                                 
 8.97E-02  10%  11.135 Ins                                                 
 8.19E-02   8%  10.162 NAA                                                 
 8.04E-02  10%   9.973 Tau                                                 
 1.42E-02  40%   1.762 PCho                                                
 2.67E-03 209%   0.332 GPC                                                 
 6.93E-02  13%   8.602 Glu                                                 
 2.86E-02  24%   3.552 Gln                                                 
    0.000 999%   0.000 Ala                                                 
 2.02E-02  63%   2.507 Asc                                                 
 9.45E-03  80%   1.173 Asp                                                 
 7.52E-03  54%   0.933 GABA                                                
 9.79E-03  51%   1.215 Glc                                                 
 9.69E-03  43%   1.202 GSH                                                 
    0.000 999%   0.000 Lac                                                 
 4.28E-03 115%   0.532 NAAG                                                
    0.000 999%   0.000 PE                                                  
 1.69E-02  12%   2.093 GPC+PCho                                            
 8.62E-02   8%  10.694 NAA+NAAG                                            
 9.79E-02  12%  12.154 Glu+Gln                                             
 6.45E-02  10%   8.000 Cr+PCr                                              
 8.62E-02   8%  10.694 NAA+NAAG                                            
 6.45E-02  10%   8.000 Cr+PCr                                              
 9.79E-02  12%  12.154 Glu+Gln                                             
   6 lines in following misc. output table
  FWHM = 0.035 ppm    S/N =   3                                            
  Data shift = 0.041 ppm                                                   
  Ph: -17 deg      -5.6 deg/ppm                                            
  alphaB,S = 3.1E+01,   4.0E+00                                            
   18 spline knots.   Ns = 7(1)                                            
   2 inflections.     3 extrema                                            
  654 points on ppm-axis = NY
      4.000000     3.994181     3.988363     3.982544     3.976726     3.970907     3.965088     3.959270     3.953451     3.947633
      3.941814     3.935995     3.930177     3.924358     3.918540     3.912721     3.906902     3.901084     3.895265     3.889446
      3.883628     3.877809     3.871991     3.866172     3.860353     3.854535     3.848716     3.842898     3.837079     3.831260
      3.825442     3.819623     3.813805     3.807986     3.802167     3.796349     3.790530     3.784712     3.778893     3.773074
      3.767256     3.761437     3.755619     3.749800     3.743981     3.738163     3.732344     3.726526     3.720707     3.714888
      3.709070     3.703251     3.697433     3.691614     3.685795     3.679977     3.674158     3.668339     3.662521     3.656702
      3.650884     3.645065     3.639246     3.633428     3.627609     3.621791     3.615972     3.610153     3.604335     3.598516
      3.592698     3.586879     3.581060     3.575242     3.569423     3.563605     3.557786     3.551967     3.546149     3.540330
      3.534512     3.528693     3.522874     3.517056     3.511237     3.505419     3.499600     3.493781     3.487963     3.482144
      3.476326     3.470507     3.464688     3.458870     3.453051     3.447232     3.441414     3.435595     3.429777     3.423958
      3.418139     3.412321     3.406502     3.400684     3.394865     3.389046     3.383228     3.377409     3.371591     3.365772
      3.359953     3.354135     3.348316     3.342498     3.336679     3.330860     3.325042     3.319223     3.313405     3.307586
      3.301767     3.295949     3.290130     3.284312     3.278493     3.272674     3.266856     3.261037     3.255219     3.249400
      3.243581     3.237763     3.231944     3.226125     3.220307     3.214488     3.208670     3.202851     3.197032     3.191214
      3.185395     3.179577     3.173758     3.167939     3.162121     3.156302     3.150484     3.144665     3.138846     3.133028
      3.127209     3.121391     3.115572     3.109753     3.103935     3.098116     3.092298     3.086479     3.080660     3.074842
      3.069023     3.063205     3.057386     3.051567     3.045749     3.039930     3.034111     3.028293     3.022474     3.016656
      3.010837     3.005018     2.999200     2.993381     2.987563     2.981744     2.975925     2.970107     2.964288     2.958470
      2.952651     2.946832     2.941014     2.935195     2.929377     2.923558     2.917739     2.911921     2.906102     2.900284
      2.894465     2.888646     2.882828     2.877009     2.871191     2.865372     2.859553     2.853735     2.847916     2.842098
      2.836279     2.830460     2.824642     2.818823     2.813004     2.807186     2.801367     2.795549     2.789730     2.783911
      2.778093     2.772274     2.766456     2.760637     2.754818     2.749000     2.743181     2.737363     2.731544     2.725725
      2.719907     2.714088     2.708270     2.702451     2.696632     2.690814     2.684995     2.679177     2.673358     2.667539
      2.661721     2.655902     2.650084     2.644265     2.638446     2.632628     2.626809     2.620991     2.615172     2.609353
      2.603535     2.597716     2.591897     2.586079     2.580260     2.574442     2.568623     2.562804     2.556986     2.551167
      2.545349     2.539530     2.533711     2.527893     2.522074     2.516256     2.510437     2.504618     2.498800     2.492981
      2.487163     2.481344     2.475525     2.469707     2.463888     2.458070     2.452251     2.446432     2.440614     2.434795
      2.428977     2.423158     2.417339     2.411521     2.405702     2.399884     2.394065     2.388246     2.382428     2.376609
      2.370790     2.364972     2.359153     2.353335     2.347516     2.341697     2.335879     2.330060     2.324242     2.318423
      2.312604     2.306786     2.300967     2.295149     2.289330     2.283511     2.277693     2.271874     2.266056     2.260237
      2.254418     2.248600     2.242781     2.236963     2.231144     2.225325     2.219507     2.213688     2.207870     2.202051
      2.196232     2.190414     2.184595     2.178777     2.172958     2.167139     2.161321     2.155502     2.149683     2.143865
      2.138046     2.132228     2.126409     2.120590     2.114772     2.108953     2.103135     2.097316     2.091497     2.085679
      2.079860     2.074042     2.068223     2.062404     2.056586     2.050767     2.044949     2.039130     2.033311     2.027493
      2.021674     2.015856     2.010037     2.004218     1.998400     1.992581     1.986763     1.980944     1.975126     1.969307
      1.963489     1.957670     1.951852     1.946033     1.940215     1.934397     1.928578     1.922760     1.916941     1.911123
      1.905304     1.899486     1.893667     1.887849     1.882030     1.876212     1.870393     1.864575     1.858756     1.852938
      1.847119     1.841301     1.835482     1.829664     1.823845     1.818027     1.812208     1.806390     1.800571     1.794753
      1.788934     1.783116     1.777297     1.771479     1.765660     1.759842     1.754023     1.748205     1.742386     1.736568
      1.730749     1.724931     1.719113     1.713294     1.707476     1.701657     1.695839     1.690020     1.684202     1.678383
      1.672565     1.666746     1.660928     1.655109     1.649291     1.643472     1.637654     1.631835     1.626017     1.620198
      1.614380     1.608561     1.602743     1.596924     1.591106     1.585287     1.579469     1.573650     1.567832     1.562013
      1.556195     1.550376     1.544558     1.538739     1.532921     1.527102     1.521284     1.515465     1.509647     1.503829
      1.498010     1.492192     1.486373     1.480555     1.474736     1.468918     1.463099     1.457281     1.451462     1.445644
      1.439825     1.434007     1.428188     1.422370     1.416551     1.410733     1.404914     1.399096     1.393277     1.387459
      1.381640     1.375822     1.370003     1.364185     1.358366     1.352548     1.346729     1.340911     1.335092     1.329274
      1.323455     1.317637     1.311818     1.306000     1.300182     1.294363     1.288545     1.282726     1.276908     1.271089
      1.265271     1.259452     1.253634     1.247815     1.241997     1.236178     1.230360     1.224541     1.218723     1.212904
      1.207086     1.201267     1.195449     1.189630     1.183812     1.177993     1.172175     1.166356     1.160538     1.154719
      1.148901     1.143082     1.137264     1.131445     1.125627     1.119808     1.113990     1.108171     1.102353     1.096534
      1.090716     1.084898     1.079079     1.073261     1.067442     1.061624     1.055805     1.049987     1.044168     1.038350
      1.032531     1.026713     1.020894     1.015076     1.009257     1.003439     0.997620     0.991802     0.985983     0.980165
      0.974346     0.968528     0.962709     0.956891     0.951072     0.945254     0.939435     0.933617     0.927798     0.921980
      0.916161     0.910343     0.904524     0.898706     0.892887     0.887069     0.881251     0.875432     0.869614     0.863795
      0.857977     0.852158     0.846340     0.840521     0.834703     0.828884     0.823066     0.817247     0.811429     0.805610
      0.799792     0.793973     0.788155     0.782336     0.776518     0.770699     0.764881     0.759062     0.753244     0.747425
      0.741607     0.735788     0.729970     0.724151     0.718333     0.712514     0.706696     0.700877     0.695059     0.689240
      0.683422     0.677603     0.671785     0.665967     0.660148     0.654330     0.648511     0.642693     0.636874     0.631056
      0.625237     0.619419     0.613600     0.607782     0.601963     0.596145     0.590326     0.584508     0.578689     0.572871
      0.567052     0.561234     0.555415     0.549597     0.543778     0.537960     0.532141     0.526323     0.520504     0.514686
      0.508867     0.503049     0.497230     0.491412     0.485593     0.479775     0.473956     0.468138     0.462319     0.456501
      0.450682     0.444864     0.439045     0.433227     0.427408     0.421590     0.415771     0.409953     0.404134     0.398316
      0.392497     0.386679     0.380860     0.375042     0.369223     0.363405     0.357586     0.351767     0.345949     0.340130
      0.334312     0.328493     0.322675     0.316856     0.311038     0.305219     0.299401     0.293582     0.287764     0.281945
      0.276127     0.270308     0.264490     0.258671     0.252853     0.247034     0.241216     0.235397     0.229579     0.223760
      0.217942     0.212123     0.206305     0.200486
 NY phased data points follow
  -1.73767E-01 -1.20967E-01 -4.27719E-01 -4.55022E-01 -1.95910E-01 -2.80725E-02 -1.10646E-01 -5.05732E-03 -1.29098E-01  1.33016E-01
   5.43550E-02 -8.10326E-02  3.53968E-01  4.43704E-01  3.61325E-01  3.67565E-01  2.26749E-01  3.73520E-01  3.62449E-01  1.72967E-02
   1.60841E-01 -1.23557E-02  2.39789E-01 -1.24360E-01 -3.41428E-01  6.97492E-02 -2.99866E-01 -7.05679E-02 -1.05035E-01 -1.67464E-01
   6.64459E-02 -4.93060E-02 -6.50086E-03 -3.77934E-02 -1.53330E-01 -3.13041E-01 -4.08895E-01 -3.89078E-01 -1.29705E-01 -8.65581E-02
  -1.74931E-01  1.67666E-01  7.28714E-02  1.87376E-01  3.45256E-01  5.68807E-01  4.46759E-01  1.33779E-01  1.97933E-01  5.39916E-02
   2.01954E-01 -1.65643E-01  7.77919E-02  2.73811E-01  1.24540E-01 -7.00973E-02 -1.71774E-01 -6.18075E-02 -3.72725E-01 -1.00502E-01
  -2.45906E-01 -1.59444E-01 -1.33553E-01 -3.14396E-01 -2.08410E-01 -3.17855E-01 -1.43590E-01  1.88137E-01  2.38816E-01  2.65000E-01
   2.52271E-01 -6.68376E-02  2.18057E-01  1.78230E-01  4.60099E-02  3.38456E-01 -1.38944E-01 -2.50914E-01 -3.68324E-01 -7.02003E-01
  -4.43819E-01 -3.49051E-01  1.22137E-01  5.33336E-02  2.39823E-01  3.13332E-01 -6.04146E-02  6.42697E-01  5.39350E-01  1.65845E-01
   7.27656E-02  3.00001E-02  4.75462E-03  1.78310E-01  1.63183E-01  1.41196E-01  1.58584E-01 -1.13546E-01 -2.59263E-01 -2.90028E-01
  -2.13466E-01 -6.28370E-01 -3.36309E-01  1.21362E-01  2.02368E-01  4.10190E-01  6.49555E-01  4.58306E-01  4.38265E-01  3.14229E-01
   2.83146E-01  6.74501E-01  2.88941E-01  3.96205E-01  3.61341E-01  4.15481E-01  6.90817E-01  4.77791E-01  2.38984E-01  2.65267E-01
  -1.83721E-02  2.50321E-01  3.10903E-01 -1.22044E-01  2.99536E-01 -1.50621E-01 -1.05500E-01 -1.40011E-01 -4.24156E-01 -4.35304E-01
  -7.04955E-01 -5.61597E-01 -3.76079E-01 -4.34050E-01 -6.50638E-01 -6.91108E-01 -7.54290E-01 -9.34747E-01 -7.67317E-01 -2.95887E-01
  -3.70932E-01 -2.10957E-01 -1.95602E-01 -1.28617E-01  5.94876E-02  1.03589E-01 -1.48270E-01 -1.57106E-01  1.23072E-01 -5.47698E-02
   3.62867E-01  1.02162E-01  2.44995E-02  2.04026E-01  3.09761E-01  7.45606E-01  4.46083E-01  7.52376E-02  4.02967E-01  3.96713E-01
   3.57303E-01  3.88089E-01  1.22897E-01  4.75091E-01  7.11184E-01  8.39968E-01  4.13533E-01  4.60881E-01 -2.69641E-02 -4.06114E-01
  -2.67666E-01 -8.13186E-01 -4.74567E-01 -6.20485E-01 -4.14361E-01 -4.14699E-01 -8.15987E-01 -3.04288E-01 -5.34243E-02 -3.87102E-01
  -2.33810E-01 -2.62475E-01 -3.39359E-01 -8.23188E-02 -2.56033E-01 -1.74518E-01 -5.42501E-01 -3.30240E-01 -1.70476E-01 -4.13426E-01
  -2.18187E-01 -2.41694E-01 -1.35021E-01 -2.83112E-01 -2.83330E-01 -3.02995E-02  5.22817E-04  1.01944E-02 -5.35457E-02 -1.42812E-01
  -1.26167E-01 -1.79468E-01 -2.05477E-01 -1.30488E-01 -2.16022E-03  1.66150E-02 -6.92268E-02  1.97066E-01  2.80162E-01 -1.98259E-01
  -2.47273E-02 -1.75704E-01 -1.36576E-01  2.76138E-01 -1.91871E-01  1.22579E-02 -1.67245E-01 -1.54477E-01  2.80653E-01 -6.39994E-03
  -1.81307E-01 -1.12278E-01 -1.50003E-01  3.65373E-02  1.91696E-01  1.08344E-02  2.61726E-01  2.03690E-01  3.96847E-01  3.98114E-01
   4.93380E-01  4.56940E-01  2.95029E-02  2.54938E-01 -4.65422E-02 -5.08203E-02  1.32918E-01  8.85384E-02 -2.79865E-02 -1.49520E-02
   1.11501E-03 -3.27677E-01 -9.38207E-02  1.30095E-01 -2.12956E-01 -1.31425E-01  6.37359E-02 -6.92875E-02  1.62055E-02 -1.72104E-02
  -1.16657E-01 -2.86823E-02 -1.22348E-01 -1.31314E-01  2.24506E-01 -5.53240E-03 -2.56398E-02 -1.53481E-01 -7.33857E-02  2.83094E-01
  -5.59007E-02  1.70383E-01  4.53762E-02  5.77342E-02 -1.43206E-01  6.09508E-03  3.56426E-01  3.85979E-01  5.16743E-01  7.76145E-03
   3.67904E-01  2.55173E-01  3.31408E-01  3.57684E-01 -1.77734E-01 -3.52246E-02 -5.27961E-02  3.73639E-02  1.92245E-02 -1.48985E-01
  -2.24619E-01 -3.75674E-01 -3.58701E-01 -6.66368E-03 -1.83835E-01  7.97230E-02  1.75199E-01  2.97616E-01  6.31972E-01  3.29781E-01
   5.51232E-01  3.26160E-01  2.31048E-01 -1.45374E-01 -3.59636E-02  1.53134E-01 -1.96568E-01  3.30194E-01  1.49737E-01  1.07568E-01
   2.38592E-01  1.14699E-01  7.03078E-02  1.79717E-01  2.82029E-01  1.43049E-01  3.12605E-01  4.40508E-01  4.28661E-01  1.78174E-01
   3.61930E-01  3.25820E-01  2.86281E-02  1.34062E-01 -4.25333E-02  1.82756E-01  6.26888E-03 -7.87222E-02  1.08253E-01 -1.54123E-01
  -4.61993E-02 -3.10105E-01 -4.54641E-01 -2.53284E-01 -1.49662E-01 -3.39480E-01 -3.02347E-01  8.22019E-02 -2.73452E-02 -1.21200E-02
   1.44095E-01 -5.21554E-02 -5.85034E-02  1.18117E-01 -2.69864E-01 -3.80415E-01 -3.28368E-01 -3.25775E-01 -1.86519E-01 -3.56363E-01
  -8.81354E-01 -9.96294E-01 -8.16312E-01 -1.15883E+00 -1.09211E+00 -7.62740E-01 -4.68119E-01 -3.27626E-01 -2.39736E-01 -1.50504E-01
   3.13734E-01  2.56116E-01 -7.63681E-02  2.80945E-01 -5.44075E-02 -8.31628E-02  1.24612E-01  1.51251E-03  3.55524E-02  1.82471E-01
  -1.87441E-02 -1.37618E-01 -1.41231E-01  1.73987E-01  4.00128E-01 -6.65241E-02 -8.23222E-02  3.30329E-02  2.18432E-01  8.70256E-02
   4.41013E-02  1.21461E-01  1.98265E-01  5.07019E-02  2.74766E-01  4.46665E-01 -1.15610E-01  1.60928E-01  2.64119E-01  9.94872E-02
   5.09331E-03  2.37970E-01  2.70264E-01  2.37415E-01  1.57962E-01  5.23755E-02  2.21257E-01 -4.69559E-02  1.48115E-01  1.94478E-01
   1.53256E-01  3.60562E-01  4.50458E-01  2.61603E-01  2.32835E-01  4.17900E-01  2.74805E-01  2.85174E-02 -1.00846E-01  6.81173E-02
   2.75035E-01  1.97309E-01 -2.92085E-02  1.68118E-02 -1.53720E-01 -2.54361E-01 -1.95056E-03 -2.00897E-01 -2.66075E-01  2.13521E-01
  -1.60514E-01 -3.00048E-01  7.71698E-02 -1.42834E-01  5.39312E-04  1.39746E-01  2.89757E-02 -1.31802E-01 -1.33116E-01 -9.71814E-02
  -4.16130E-02 -1.78976E-01 -1.08803E-01  1.94153E-02 -1.96188E-01  8.47327E-02 -4.18739E-02 -1.87134E-01 -1.76705E-01 -6.74030E-02
  -1.40560E-01 -3.22612E-01  7.86245E-02 -4.00432E-01 -3.23593E-01  5.76596E-02 -1.67813E-01  7.78459E-02 -7.59107E-03 -9.65208E-03
   7.26775E-02 -6.37172E-02 -3.20784E-01 -3.23076E-02  2.21238E-01  3.35335E-01  1.83895E-01 -7.64189E-02  2.85198E-01  9.37650E-02
   2.56601E-01  7.60796E-02  1.55405E-01  8.75190E-02 -2.50896E-03  2.13173E-01  3.99172E-04 -2.22164E-02 -3.59664E-01  3.41543E-02
  -9.43358E-02  1.66029E-01 -4.14510E-02  4.67238E-02  2.81591E-01 -4.83917E-02  2.97714E-01 -1.19845E-01  2.18473E-01 -1.73393E-01
  -4.26749E-01 -2.51548E-01  1.00717E-01 -1.38993E-01 -4.38684E-01 -7.15955E-02 -3.55040E-01 -8.29308E-02 -1.49723E-01  7.38706E-02
  -4.36549E-01 -3.41397E-01  2.25095E-01  7.99402E-02  1.54879E-01  6.68580E-02  3.14950E-01  3.43404E-01  2.00208E-01  5.36587E-02
   3.93771E-02  2.60769E-02  1.17022E-01 -1.05299E-01  1.05283E-01  1.81242E-01  6.63915E-02  1.45477E-01 -1.30096E-01  2.31334E-02
  -4.63122E-02 -3.64189E-02  4.78521E-02 -2.49699E-01 -2.96285E-02  2.71987E-01 -1.21181E-01 -4.18198E-03 -2.93860E-02  2.19245E-01
   1.75005E-01 -7.99871E-03  3.64976E-01 -1.80001E-02  2.41694E-02 -7.70899E-03  2.04586E-03 -7.32529E-02  2.11901E-01  1.74570E-01
  -3.14800E-01 -2.23737E-01 -2.35747E-02 -2.43707E-02 -2.66433E-01 -2.27656E-01 -3.99150E-01 -8.99456E-02 -3.66680E-01 -4.83663E-01
  -3.17652E-01 -4.02709E-01 -2.25531E-01 -1.44434E-01 -1.53418E-01 -3.63398E-01  1.37752E-01  5.15717E-02 -5.77103E-02  1.19730E-01
   3.32584E-02 -1.33481E-01 -1.65457E-01 -1.77375E-02 -5.27408E-02 -6.15855E-02 -6.14498E-02  2.56752E-01  3.61908E-01  2.78759E-01
  -3.22395E-02  2.77627E-02  8.77402E-02 -8.75378E-02 -1.16566E-01 -1.14961E-01  9.58041E-02  1.48944E-02  9.24794E-02  1.59494E-01
   7.44239E-02 -4.24578E-02 -1.39275E-01 -1.38083E-02  7.73069E-02  1.72180E-02 -8.08331E-03 -1.25708E-02  1.17761E-02 -1.33540E-01
  -2.53152E-01 -1.43664E-02 -7.49960E-02 -8.58658E-02  6.67321E-02 -2.64309E-01 -1.37653E-01  1.38023E-01 -2.31893E-01 -1.17525E-01
  -1.12946E-02 -7.80793E-02  1.47228E-01  1.28289E-01  8.76263E-02  4.41790E-01  1.02834E-01  6.30682E-02  3.85806E-01 -1.31577E-01
  -1.49634E-01 -2.10810E-02  3.24387E-01 -8.17684E-02 -2.97131E-01 -1.33120E-01  4.52394E-02  3.18816E-01 -2.83806E-01 -1.51332E-01
  -7.96350E-02 -9.84919E-03 -2.19194E-02  1.27700E-01  3.16198E-01  2.39892E-01  4.44146E-02  9.82098E-02  2.70842E-01 -4.82901E-02
   7.77461E-02  2.75482E-02  3.18868E-01 -1.19876E-01  2.95338E-03  2.69539E-01 -2.24569E-01  9.87034E-02 -5.36723E-02  8.99888E-02
  -7.27343E-02 -1.96701E-01  2.69634E-01 -1.61663E-02 -1.03596E-01  2.94785E-01  1.59858E-01 -3.14439E-02 -6.81055E-02 -1.56288E-02
   5.14427E-02  2.22444E-02  4.77039E-02  1.46297E-01  2.10891E-02 -1.52490E-01 -9.13358E-02 -8.42217E-02  4.48311E-02 -5.63533E-02
   2.79129E-01  5.91164E-02 -7.15416E-02  2.53508E-01 -6.29812E-02  1.02188E-01  1.45927E-01 -1.35288E-01 -8.78771E-02  2.22516E-01
   4.94303E-03  2.07521E-01  1.97115E-01 -1.67593E-01
 NY points of the fit to the data follow
   5.71958E-02  4.44600E-02  3.09344E-02  2.14619E-02  1.57444E-02  4.68973E-02  2.46302E-02 -6.72483E-03  1.17153E-03  1.71461E-01
   1.70538E-01  1.20708E-01  1.68950E-01  3.91370E-01  4.30010E-01  4.29277E-01  4.41101E-01  4.38496E-01  3.74163E-01  2.13475E-01
   9.70557E-02  7.79264E-02  9.53950E-02 -6.81791E-02 -5.29276E-02 -6.64354E-02 -8.32139E-02 -1.00346E-01 -1.11027E-01 -1.23498E-01
  -1.33609E-01 -1.46082E-01 -1.57325E-01 -1.52327E-01 -1.77599E-01 -2.26401E-01 -2.49437E-01 -2.16230E-01 -1.81068E-01 -1.32106E-01
  -4.39918E-02  6.47395E-02  1.74548E-01  2.59754E-01  2.96473E-01  3.17940E-01  3.33404E-01  2.72040E-01  2.13713E-01  1.75200E-01
   1.24086E-01  8.53502E-02  4.39205E-02 -9.36840E-03 -4.56646E-02 -8.47469E-02 -1.31234E-01 -1.63064E-01 -2.34491E-01 -2.71600E-01
  -2.65447E-01 -2.96206E-01 -3.42030E-01 -2.86997E-01 -1.94171E-01 -1.82295E-01 -4.04818E-02  1.32855E-01  2.37607E-01  3.29050E-01
   3.80022E-01  3.13434E-01  3.27638E-01  1.90518E-01  1.06604E-01  1.82457E-01 -2.15014E-02 -2.46670E-01 -3.05432E-01 -3.23614E-01
  -4.33400E-01 -3.87546E-01 -1.79026E-01  1.73207E-02  1.75089E-01  2.81111E-01  3.39559E-01  4.55604E-01  4.24467E-01  3.01659E-01
   3.18772E-01  2.51774E-01  1.93664E-01  1.23143E-01  1.38661E-01  4.69263E-02 -1.35713E-02 -2.04610E-01 -2.95972E-01 -4.12187E-01
  -3.86455E-01 -2.90281E-01 -1.32245E-01  2.78345E-02  1.76049E-01  2.96383E-01  2.98038E-01  4.13019E-01  3.37356E-01  3.97056E-01
   3.56219E-01  3.44017E-01  3.39751E-01  3.36043E-01  3.31506E-01  3.25376E-01  2.97641E-01  3.18785E-01  3.20897E-01  2.88600E-01
   2.55787E-01  2.28182E-01  1.28663E-01  3.35758E-02 -2.54057E-03 -3.61721E-02 -1.26484E-01 -1.93473E-01 -3.70983E-01 -5.86087E-01
  -6.62818E-01 -5.74934E-01 -4.37723E-01 -4.81163E-01 -6.77395E-01 -6.83348E-01 -7.20157E-01 -8.14347E-01 -7.11166E-01 -5.60053E-01
  -3.30819E-01 -2.16261E-01 -2.07162E-01 -8.46647E-02  5.16187E-02  4.05658E-02  5.84495E-02  7.85003E-02  9.84776E-02  1.15933E-01
   1.32685E-01  1.48726E-01  1.64884E-01  1.80377E-01  1.98827E-01  2.19194E-01  2.41955E-01  2.67929E-01  3.01921E-01  3.50601E-01
   3.88156E-01  3.38108E-01  2.72545E-01  4.68961E-01  7.35220E-01  7.40394E-01  4.68408E-01  2.57427E-01 -4.75910E-03 -3.40232E-01
  -5.85431E-01 -6.49214E-01 -5.72757E-01 -4.81127E-01 -5.02749E-01 -4.76247E-01 -2.93897E-01 -2.84080E-01 -2.70387E-01 -2.45505E-01
  -2.40603E-01 -2.19584E-01 -2.05299E-01 -1.95311E-01 -1.89243E-01 -1.84421E-01 -1.74105E-01 -1.66779E-01 -1.60770E-01 -1.53837E-01
  -1.44711E-01 -1.38313E-01 -1.27411E-01 -1.19461E-01 -1.10221E-01 -1.01623E-01 -9.38126E-02 -8.98887E-02 -8.27396E-02 -6.92150E-02
  -5.55698E-02 -5.14563E-02 -5.33660E-02 -5.12831E-02 -4.29085E-02 -3.81227E-02 -4.00664E-02 -4.01001E-02 -3.90180E-02 -4.66679E-02
  -5.47767E-02 -5.96404E-02 -6.06714E-02 -5.59286E-02 -5.37322E-02 -5.03403E-02 -4.53274E-02 -4.06062E-02 -1.54424E-02 -1.29730E-02
  -3.83058E-02 -4.56755E-02  1.99213E-02  1.08888E-01  1.44900E-01  1.29284E-01  1.41334E-01  2.02312E-01  2.45139E-01  2.30507E-01
   2.38115E-01  2.56894E-01  1.93850E-01  1.07872E-01  3.87961E-02 -5.26269E-04 -6.66425E-03 -4.99078E-02 -8.91823E-02 -8.12146E-02
  -8.78746E-02 -9.39697E-02 -9.72079E-02 -1.04047E-01 -1.06089E-01 -1.10811E-01 -1.14015E-01 -1.17064E-01 -1.19537E-01 -1.24264E-01
  -1.00775E-01 -1.23309E-01 -1.65192E-01 -1.62390E-01 -1.18381E-01 -1.20892E-01 -1.39795E-01 -5.99135E-02  3.28227E-03  2.37003E-02
   4.23077E-02  6.23866E-02  1.06094E-01  1.17110E-01  7.48846E-02  8.27129E-02  1.36631E-01  1.20876E-01  1.43084E-01  1.36935E-01
   1.59560E-01  1.31997E-01  9.04820E-02  7.34130E-02  2.41216E-03 -3.02864E-03 -6.12426E-02 -8.95495E-02 -1.35697E-01 -1.77380E-01
  -2.24919E-01 -2.64449E-01 -2.51168E-01 -2.10564E-01 -1.12538E-01  2.46794E-02  1.46535E-01  2.31245E-01  3.13207E-01  3.15229E-01
   3.04881E-01  2.81504E-01  2.31226E-01  2.19254E-01  2.04476E-01  1.86613E-01  1.97060E-01  1.97414E-01  2.00848E-01  1.99398E-01
   1.87157E-01  1.91222E-01  1.73305E-01  1.70698E-01  1.60766E-01  1.50935E-01  1.42742E-01  1.29605E-01  1.16587E-01  9.51527E-02
   7.82718E-02  5.18590E-02  3.15452E-02  7.64498E-03 -2.62355E-02 -6.07647E-02 -1.06076E-01 -1.54477E-01 -2.12543E-01 -2.52882E-01
  -3.00194E-01 -3.22709E-01 -3.28080E-01 -3.00796E-01 -2.51724E-01 -1.79529E-01 -1.08223E-01 -3.54078E-02  1.51020E-02  3.75310E-02
   1.58603E-02  2.27968E-02 -2.21532E-02 -5.33887E-02 -1.41466E-01 -2.98964E-01 -3.62937E-01 -1.23692E-01  1.10915E-02 -3.11178E-01
  -7.22081E-01 -8.99447E-01 -1.05707E+00 -1.22522E+00 -1.10608E+00 -8.37878E-01 -4.93823E-01 -2.99410E-01 -3.26874E-01 -1.48663E-01
   5.64045E-02 -1.14476E-02 -8.02625E-03 -1.37985E-03  9.13509E-03  1.51062E-02  2.09991E-02  2.19475E-02  2.16105E-02  1.71845E-02
   8.06568E-03  2.19137E-04 -1.05050E-02 -1.69290E-02 -2.09236E-02 -1.89287E-02 -1.76775E-02 -7.68928E-03 -2.81347E-03  6.29305E-03
   1.56721E-02  2.12085E-02  2.96924E-02  3.40160E-02  3.88749E-02  4.27825E-02  4.62954E-02  4.96012E-02  5.24984E-02  5.54679E-02
   5.73649E-02  5.98693E-02  6.30440E-02  6.49777E-02  6.76249E-02  6.88996E-02  7.07241E-02  7.15150E-02  7.36255E-02  7.53897E-02
   7.84232E-02  8.01363E-02  8.10875E-02  8.12827E-02  8.06916E-02  8.00108E-02  7.80148E-02  7.62151E-02  7.33397E-02  7.08483E-02
   6.75969E-02  6.26274E-02  5.79423E-02  5.35458E-02  4.88077E-02  4.37899E-02  3.90175E-02  3.48216E-02  3.05592E-02  2.64654E-02
   2.22297E-02  1.91844E-02  1.61989E-02  1.37761E-02  1.07417E-02  8.43833E-03  6.38376E-03  4.38354E-03  2.76433E-03  6.98852E-04
  -5.58315E-04 -1.03255E-03 -1.82308E-03 -1.52774E-03 -7.44726E-04  1.49921E-04  2.11856E-03  5.47930E-03  8.87378E-03  1.19952E-02
   1.44689E-02  1.64012E-02  1.92337E-02  2.21560E-02  2.61014E-02  3.02637E-02  3.57238E-02  4.03989E-02  4.58669E-02  5.20341E-02
   5.89195E-02  6.63688E-02  7.35058E-02  8.15158E-02  8.93457E-02  9.75293E-02  1.05484E-01  1.12638E-01  1.18309E-01  1.22969E-01
   1.25707E-01  1.26648E-01  1.27680E-01  1.27354E-01  1.26108E-01  1.23137E-01  1.18779E-01  1.13235E-01  1.06754E-01  1.00195E-01
   9.27181E-02  8.57496E-02  7.77655E-02  7.13688E-02  6.43844E-02  5.79758E-02  5.19664E-02  4.67655E-02  4.21789E-02  3.80636E-02
   3.37795E-02  3.00030E-02  2.80457E-02  2.56319E-02  2.43466E-02  2.42948E-02  2.54714E-02  2.66821E-02  2.83552E-02  3.08133E-02
   3.41022E-02  3.74830E-02  4.13244E-02  4.50481E-02  4.82345E-02  5.00173E-02  5.19511E-02  5.39945E-02  5.61247E-02  5.74042E-02
   5.82462E-02  5.91307E-02  5.97316E-02  5.89395E-02  5.69284E-02  5.56576E-02  5.38839E-02  5.13205E-02  4.87860E-02  4.62732E-02
   4.37878E-02  4.19971E-02  3.91877E-02  3.65145E-02  3.35597E-02  3.05678E-02  2.82442E-02  2.53602E-02  2.26480E-02  2.03009E-02
   1.84709E-02  1.58907E-02  1.24056E-02  8.19242E-03  3.83950E-03 -1.27240E-03 -6.78573E-03 -1.27705E-02 -1.96330E-02 -2.84170E-02
  -3.78719E-02 -4.86066E-02 -6.04162E-02 -7.27977E-02 -8.42489E-02 -9.48723E-02 -1.05558E-01 -1.16518E-01 -1.25824E-01 -1.31729E-01
  -1.37476E-01 -1.42169E-01 -1.44494E-01 -1.44249E-01 -1.42929E-01 -1.40317E-01 -1.36482E-01 -1.31646E-01 -1.26620E-01 -1.22174E-01
  -1.17099E-01 -1.11906E-01 -1.06151E-01 -9.96789E-02 -9.31336E-02 -8.57444E-02 -7.82614E-02 -7.07139E-02 -6.37027E-02 -5.62031E-02
  -4.90665E-02 -4.15144E-02 -3.60306E-02 -3.02226E-02 -2.39871E-02 -1.80988E-02 -1.35000E-02 -9.80191E-03 -4.63047E-03 -1.08148E-03
   1.97860E-03  4.85211E-03  7.31694E-03  9.61141E-03  1.21433E-02  1.31912E-02  1.45146E-02  1.58437E-02  1.67996E-02  1.76598E-02
   1.81051E-02  1.96817E-02  2.13450E-02  2.26529E-02  2.39556E-02  2.48327E-02  2.54737E-02  2.62126E-02  2.61831E-02  2.60924E-02
   2.63325E-02  2.65623E-02  2.63010E-02  2.58597E-02  2.54246E-02  2.54581E-02  2.71664E-02  2.76874E-02  2.63097E-02  2.60306E-02
   2.63980E-02  2.49707E-02  2.37603E-02  2.36909E-02  2.46972E-02  2.53423E-02  2.40425E-02  2.32059E-02  2.35187E-02  2.37358E-02
   2.31575E-02  2.32517E-02  2.38268E-02  2.51442E-02  2.54985E-02  2.60087E-02  2.62979E-02  2.74206E-02  2.87299E-02  2.92091E-02
   2.91292E-02  2.93940E-02  2.94721E-02  2.91580E-02  2.85149E-02  2.91788E-02  3.07536E-02  3.14252E-02  3.14939E-02  3.13756E-02
   3.29158E-02  3.38068E-02  3.55951E-02  3.71910E-02  3.77034E-02  3.78904E-02  3.78791E-02  3.77408E-02  3.83491E-02  3.85957E-02
   3.84097E-02  3.87942E-02  3.88643E-02  3.95923E-02  3.97174E-02  3.92135E-02  4.03886E-02  4.10005E-02  4.14251E-02  4.19680E-02
   4.31661E-02  4.46275E-02  4.59274E-02  4.58560E-02  4.63529E-02  4.84826E-02  5.03982E-02  5.19429E-02  5.50279E-02  5.79923E-02
   6.04916E-02  6.24055E-02  6.44684E-02  6.67413E-02
 NY background values follow
     6.300E-02    6.282E-02    6.263E-02    6.245E-02    6.226E-02    6.207E-02    6.189E-02    6.170E-02    6.152E-02    6.133E-02
     6.115E-02    6.096E-02    6.078E-02    6.059E-02    6.041E-02    6.022E-02    6.004E-02    5.985E-02    5.966E-02    5.948E-02
     5.929E-02    5.911E-02    5.892E-02    5.874E-02    5.855E-02    5.837E-02    5.818E-02    5.799E-02    5.781E-02    5.762E-02
     5.744E-02    5.725E-02    5.707E-02    5.688E-02    5.669E-02    5.651E-02    5.632E-02    5.614E-02    5.595E-02    5.577E-02
     5.558E-02    5.539E-02    5.521E-02    5.502E-02    5.484E-02    5.465E-02    5.446E-02    5.428E-02    5.409E-02    5.391E-02
     5.372E-02    5.354E-02    5.335E-02    5.316E-02    5.298E-02    5.279E-02    5.261E-02    5.242E-02    5.223E-02    5.205E-02
     5.186E-02    5.168E-02    5.149E-02    5.130E-02    5.112E-02    5.093E-02    5.075E-02    5.056E-02    5.037E-02    5.019E-02
