 LCModel (Version 6.3-1N) Copyright: S.W. Provencher.          Ref.: Magn. Reson. Med. 30:672-679 (1993).                
 Slice_N1@26_14  02-Jun-2023 14:37:57
 27 lines in following concentration table = NCONC+1
    Conc.  %SD /Cr+PCr  Metabolite                                         
 1.69E-06  21% 3.4E-04 Mac                                                 
 2.57E-02  49%   5.178 Cr                                                  
 1.40E-02  84%   2.822 PCr                                                 
    0.110  13%  22.122 Ins                                                 
 4.86E-02  21%   9.798 NAA                                                 
 3.68E-02  33%   7.410 Tau                                                 
 5.46E-03  58%   1.102 PCho                                                
    0.000 999%   0.000 GPC                                                 
 6.28E-02  20%  12.657 Glu                                                 
 1.56E-02  54%   3.147 Gln                                                 
    0.000 999%   0.000 Ala                                                 
    0.000 999%   0.000 Asc                                                 
 3.56E-03 137%   0.718 Asp                                                 
 3.84E-03  75%   0.774 GABA                                                
 4.01E-03  75%   0.809 Glc                                                 
 5.38E-03  80%   1.085 GSH                                                 
    0.000 999%   0.000 Lac                                                 
 4.44E-03 178%   0.896 NAAG                                                
    0.000 999%   0.000 PE                                                  
 5.46E-03  58%   1.102 GPC+PCho                                            
 5.30E-02  18%  10.694 NAA+NAAG                                            
 7.84E-02  19%  15.804 Glu+Gln                                             
 3.97E-02  21%   8.000 Cr+PCr                                              
 5.30E-02  18%  10.694 NAA+NAAG                                            
 3.97E-02  21%   8.000 Cr+PCr                                              
 7.84E-02  19%  15.804 Glu+Gln                                             
   6 lines in following misc. output table
  FWHM = 0.070 ppm    S/N =   1                                            
  Data shift = 0.052 ppm                                                   
  Ph: -12 deg     -15.3 deg/ppm                                            
  alphaB,S = 3.1E+01,   5.1E+01                                            
   18 spline knots.   Ns = 7(2)                                            
   2 inflections.     1 extrema                                            
  654 points on ppm-axis = NY
      4.000000     3.994181     3.988363     3.982544     3.976726     3.970907     3.965088     3.959270     3.953451     3.947633
      3.941814     3.935995     3.930177     3.924358     3.918540     3.912721     3.906902     3.901084     3.895265     3.889446
      3.883628     3.877809     3.871991     3.866172     3.860353     3.854535     3.848716     3.842898     3.837079     3.831260
      3.825442     3.819623     3.813805     3.807986     3.802167     3.796349     3.790530     3.784712     3.778893     3.773074
      3.767256     3.761437     3.755619     3.749800     3.743981     3.738163     3.732344     3.726526     3.720707     3.714888
      3.709070     3.703251     3.697433     3.691614     3.685795     3.679977     3.674158     3.668339     3.662521     3.656702
      3.650884     3.645065     3.639246     3.633428     3.627609     3.621791     3.615972     3.610153     3.604335     3.598516
      3.592698     3.586879     3.581060     3.575242     3.569423     3.563605     3.557786     3.551967     3.546149     3.540330
      3.534512     3.528693     3.522874     3.517056     3.511237     3.505419     3.499600     3.493781     3.487963     3.482144
      3.476326     3.470507     3.464688     3.458870     3.453051     3.447232     3.441414     3.435595     3.429777     3.423958
      3.418139     3.412321     3.406502     3.400684     3.394865     3.389046     3.383228     3.377409     3.371591     3.365772
      3.359953     3.354135     3.348316     3.342498     3.336679     3.330860     3.325042     3.319223     3.313405     3.307586
      3.301767     3.295949     3.290130     3.284312     3.278493     3.272674     3.266856     3.261037     3.255219     3.249400
      3.243581     3.237763     3.231944     3.226125     3.220307     3.214488     3.208670     3.202851     3.197032     3.191214
      3.185395     3.179577     3.173758     3.167939     3.162121     3.156302     3.150484     3.144665     3.138846     3.133028
      3.127209     3.121391     3.115572     3.109753     3.103935     3.098116     3.092298     3.086479     3.080660     3.074842
      3.069023     3.063205     3.057386     3.051567     3.045749     3.039930     3.034111     3.028293     3.022474     3.016656
      3.010837     3.005018     2.999200     2.993381     2.987563     2.981744     2.975925     2.970107     2.964288     2.958470
      2.952651     2.946832     2.941014     2.935195     2.929377     2.923558     2.917739     2.911921     2.906102     2.900284
      2.894465     2.888646     2.882828     2.877009     2.871191     2.865372     2.859553     2.853735     2.847916     2.842098
      2.836279     2.830460     2.824642     2.818823     2.813004     2.807186     2.801367     2.795549     2.789730     2.783911
      2.778093     2.772274     2.766456     2.760637     2.754818     2.749000     2.743181     2.737363     2.731544     2.725725
      2.719907     2.714088     2.708270     2.702451     2.696632     2.690814     2.684995     2.679177     2.673358     2.667539
      2.661721     2.655902     2.650084     2.644265     2.638446     2.632628     2.626809     2.620991     2.615172     2.609353
      2.603535     2.597716     2.591897     2.586079     2.580260     2.574442     2.568623     2.562804     2.556986     2.551167
      2.545349     2.539530     2.533711     2.527893     2.522074     2.516256     2.510437     2.504618     2.498800     2.492981
      2.487163     2.481344     2.475525     2.469707     2.463888     2.458070     2.452251     2.446432     2.440614     2.434795
      2.428977     2.423158     2.417339     2.411521     2.405702     2.399884     2.394065     2.388246     2.382428     2.376609
      2.370790     2.364972     2.359153     2.353335     2.347516     2.341697     2.335879     2.330060     2.324242     2.318423
      2.312604     2.306786     2.300967     2.295149     2.289330     2.283511     2.277693     2.271874     2.266056     2.260237
      2.254418     2.248600     2.242781     2.236963     2.231144     2.225325     2.219507     2.213688     2.207870     2.202051
      2.196232     2.190414     2.184595     2.178777     2.172958     2.167139     2.161321     2.155502     2.149683     2.143865
      2.138046     2.132228     2.126409     2.120590     2.114772     2.108953     2.103135     2.097316     2.091497     2.085679
      2.079860     2.074042     2.068223     2.062404     2.056586     2.050767     2.044949     2.039130     2.033311     2.027493
      2.021674     2.015856     2.010037     2.004218     1.998400     1.992581     1.986763     1.980944     1.975126     1.969307
      1.963489     1.957670     1.951852     1.946033     1.940215     1.934397     1.928578     1.922760     1.916941     1.911123
      1.905304     1.899486     1.893667     1.887849     1.882030     1.876212     1.870393     1.864575     1.858756     1.852938
      1.847119     1.841301     1.835482     1.829664     1.823845     1.818027     1.812208     1.806390     1.800571     1.794753
      1.788934     1.783116     1.777297     1.771479     1.765660     1.759842     1.754023     1.748205     1.742386     1.736568
      1.730749     1.724931     1.719113     1.713294     1.707476     1.701657     1.695839     1.690020     1.684202     1.678383
      1.672565     1.666746     1.660928     1.655109     1.649291     1.643472     1.637654     1.631835     1.626017     1.620198
      1.614380     1.608561     1.602743     1.596924     1.591106     1.585287     1.579469     1.573650     1.567832     1.562013
      1.556195     1.550376     1.544558     1.538739     1.532921     1.527102     1.521284     1.515465     1.509647     1.503829
      1.498010     1.492192     1.486373     1.480555     1.474736     1.468918     1.463099     1.457281     1.451462     1.445644
      1.439825     1.434007     1.428188     1.422370     1.416551     1.410733     1.404914     1.399096     1.393277     1.387459
      1.381640     1.375822     1.370003     1.364185     1.358366     1.352548     1.346729     1.340911     1.335092     1.329274
      1.323455     1.317637     1.311818     1.306000     1.300182     1.294363     1.288545     1.282726     1.276908     1.271089
      1.265271     1.259452     1.253634     1.247815     1.241997     1.236178     1.230360     1.224541     1.218723     1.212904
      1.207086     1.201267     1.195449     1.189630     1.183812     1.177993     1.172175     1.166356     1.160538     1.154719
      1.148901     1.143082     1.137264     1.131445     1.125627     1.119808     1.113990     1.108171     1.102353     1.096534
      1.090716     1.084898     1.079079     1.073261     1.067442     1.061624     1.055805     1.049987     1.044168     1.038350
      1.032531     1.026713     1.020894     1.015076     1.009257     1.003439     0.997620     0.991802     0.985983     0.980165
      0.974346     0.968528     0.962709     0.956891     0.951072     0.945254     0.939435     0.933617     0.927798     0.921980
      0.916161     0.910343     0.904524     0.898706     0.892887     0.887069     0.881251     0.875432     0.869614     0.863795
      0.857977     0.852158     0.846340     0.840521     0.834703     0.828884     0.823066     0.817247     0.811429     0.805610
      0.799792     0.793973     0.788155     0.782336     0.776518     0.770699     0.764881     0.759062     0.753244     0.747425
      0.741607     0.735788     0.729970     0.724151     0.718333     0.712514     0.706696     0.700877     0.695059     0.689240
      0.683422     0.677603     0.671785     0.665967     0.660148     0.654330     0.648511     0.642693     0.636874     0.631056
      0.625237     0.619419     0.613600     0.607782     0.601963     0.596145     0.590326     0.584508     0.578689     0.572871
      0.567052     0.561234     0.555415     0.549597     0.543778     0.537960     0.532141     0.526323     0.520504     0.514686
      0.508867     0.503049     0.497230     0.491412     0.485593     0.479775     0.473956     0.468138     0.462319     0.456501
      0.450682     0.444864     0.439045     0.433227     0.427408     0.421590     0.415771     0.409953     0.404134     0.398316
      0.392497     0.386679     0.380860     0.375042     0.369223     0.363405     0.357586     0.351767     0.345949     0.340130
      0.334312     0.328493     0.322675     0.316856     0.311038     0.305219     0.299401     0.293582     0.287764     0.281945
      0.276127     0.270308     0.264490     0.258671     0.252853     0.247034     0.241216     0.235397     0.229579     0.223760
      0.217942     0.212123     0.206305     0.200486
 NY phased data points follow
   1.21065E-01 -9.00941E-02 -2.14983E-01 -8.45813E-02 -2.57007E-01 -3.56160E-02 -1.79662E-01  2.28842E-01  2.50869E-01 -2.61663E-01
  -6.67643E-02  1.19242E-01  1.60285E-01  4.78076E-02 -6.66107E-02  7.53969E-02  4.67338E-02 -1.29089E-01 -7.03568E-03 -7.87783E-02
  -3.06142E-01 -4.14589E-02  1.59665E-01  5.30829E-03  2.05511E-01 -2.73321E-02  1.52248E-01  2.50359E-01 -4.05198E-02  4.05613E-01
   1.40828E-01  6.50599E-02 -1.91891E-02  2.71423E-02  7.66158E-02  2.77407E-02  6.44986E-02 -1.90837E-01  4.89568E-02 -6.11572E-02
  -1.64823E-02  1.58537E-01  3.00876E-01  1.12179E-01 -1.85367E-03  1.21144E-01 -1.06059E-01 -6.55552E-02 -7.67157E-03  1.06431E-01
  -2.83443E-01 -9.40412E-02 -2.20312E-02 -7.81302E-02  1.62417E-01 -1.07422E-01 -3.83551E-01 -2.32634E-01  1.01671E-01 -3.53276E-01
  -2.49053E-01 -1.97126E-01 -1.24604E-01 -2.98852E-01 -3.70231E-01 -5.65094E-02 -2.45376E-01  9.04820E-02  3.73399E-02  1.52154E-01
  -7.07939E-02  1.30001E-03  1.66494E-01  1.90417E-01  1.12497E-01 -1.18515E-01  1.86589E-02 -2.54656E-01  5.73377E-02 -2.73841E-01
  -1.77762E-01 -1.09736E-01 -5.20654E-01 -1.21217E-01 -7.02183E-02  4.27093E-02 -1.53326E-02  7.03839E-02  1.14967E-01  7.35497E-03
   2.13688E-02  1.82847E-01  2.88292E-01  3.17074E-01  1.13038E-01 -2.07101E-02  3.70366E-01  1.95488E-01  2.18573E-01  2.36770E-01
   1.66397E-02  6.32109E-02 -2.10045E-02  4.25286E-01  5.00866E-01  4.17437E-01  4.84341E-01  8.95802E-02  1.87232E-01  4.49597E-01
   4.51716E-01  6.32222E-01  4.13529E-01  4.06540E-01  5.69426E-01  2.61936E-01  4.07478E-01  1.98001E-01  3.35493E-01  3.42225E-01
  -5.14146E-02 -3.88695E-02 -2.83766E-01  1.71729E-01  1.44642E-01  3.65263E-02 -1.58177E-01 -1.25992E-01 -1.52307E-02 -3.95604E-01
  -3.63918E-01 -3.93133E-01 -7.93527E-02 -3.76375E-01 -2.57797E-01 -9.10578E-02 -4.40563E-01 -9.88150E-02  2.02067E-02 -9.15938E-03
   2.03696E-02 -8.46588E-02 -1.34300E-01  2.37265E-01  3.89641E-01 -2.25966E-02 -2.68041E-02  2.72546E-01  7.27687E-03  9.60693E-02
   3.45207E-01  4.03067E-01  2.00808E-01  8.34230E-03  2.46443E-01  2.34923E-01  4.50333E-01  3.69243E-01  8.71361E-02  1.54832E-01
  -9.04700E-02  6.07448E-02  3.18747E-01  2.36988E-02  6.21843E-02  1.82501E-01  1.82125E-01  1.23721E-01  6.32379E-02 -1.40840E-01
  -1.54741E-01 -3.62581E-01 -5.45811E-01 -7.56141E-02 -4.50670E-01 -1.95704E-01 -1.18447E-01 -6.21538E-01 -2.53805E-01  6.76794E-02
  -7.06400E-03 -2.79322E-01 -3.84639E-01 -1.03412E-01 -4.95148E-02 -1.23850E-01  3.76643E-03 -3.18450E-01 -4.00629E-02 -9.89551E-02
  -1.99347E-01 -1.22859E-01 -8.73112E-03 -3.89974E-02 -3.87586E-01 -5.03630E-02 -3.92154E-01 -4.09506E-01  4.26971E-03  8.59952E-02
  -1.73593E-01  7.81988E-02 -4.16619E-01 -2.17071E-01  3.83660E-01 -2.20913E-01 -1.46189E-01 -3.88034E-01 -9.82338E-02 -2.85571E-01
   9.68716E-02  1.51346E-01 -7.96789E-02 -4.61786E-02 -4.66301E-01 -3.44800E-02 -1.69940E-01  1.06587E-03 -5.94427E-02  1.39079E-01
   2.70718E-01  3.10768E-01 -1.68318E-03 -7.59336E-03  3.80332E-01  6.89440E-02  4.28350E-01  2.77359E-01  3.74816E-01  1.93315E-01
   1.71883E-01  3.36188E-01 -1.86057E-01  9.97783E-02  4.19950E-02 -2.94074E-01  1.56726E-01  1.48120E-01 -1.06516E-01  5.88691E-02
   1.47042E-02 -5.47639E-02 -1.19690E-01 -3.40004E-02 -2.09984E-01 -4.27447E-02  1.48053E-01 -2.00094E-01 -4.41650E-01 -9.65737E-02
   2.87979E-01  4.26874E-02 -1.89621E-01 -1.92195E-01 -6.98362E-02 -1.42373E-01  7.38440E-02  1.69712E-01  2.25733E-01  5.23140E-02
   9.75781E-02  4.52344E-02 -3.13666E-01 -6.76640E-02 -2.69318E-02  1.31486E-01 -6.75816E-02 -1.19413E-01 -2.88596E-01 -1.05420E-01
  -1.59616E-02 -9.67629E-02  1.84149E-01  1.24067E-01  2.36620E-01 -3.00163E-01 -2.70502E-01  9.48688E-02  1.31233E-01 -9.44033E-02
   1.57390E-01  2.96437E-01 -8.59202E-02  9.42099E-03 -4.80856E-01 -5.10511E-01 -1.03496E-01 -9.16451E-02 -1.92391E-01  1.29375E-01
   1.78015E-01  1.00640E-01  2.77319E-01  1.45369E-01  1.63251E-01  4.79296E-01  5.21014E-01  3.00291E-01  1.23384E-01 -1.12048E-02
   1.24172E-01  9.13526E-02  1.36216E-02 -3.03534E-02  2.44938E-01  8.02740E-02  3.14101E-01  4.42421E-01  6.09952E-02  2.95959E-01
   2.04219E-01  4.67181E-01  3.46425E-02 -2.50482E-01  7.30681E-04  2.03143E-01  2.36716E-02 -1.52034E-01  9.14537E-02 -4.90061E-02
  -3.35687E-01 -4.64001E-01  7.63384E-02 -1.12592E-01 -4.27421E-02 -1.53540E-01 -3.54052E-01  1.16126E-01 -2.90989E-02 -2.15069E-01
  -1.67087E-01  4.75932E-02 -1.62401E-02 -3.79200E-01 -3.03063E-01  2.23628E-01 -3.78833E-01 -8.32232E-01 -4.10891E-01 -3.20874E-01
  -4.01871E-01 -3.20747E-01 -4.98960E-01 -4.55625E-01 -4.17542E-01 -5.02925E-01 -1.35969E-01 -3.10836E-01 -1.02989E-01  8.33684E-02
   1.37203E-01  5.75289E-02  1.15650E-01  8.10665E-02  8.36993E-02  2.74499E-01  1.07622E-01  2.03299E-01 -1.21091E-01  1.90958E-01
   1.38201E-01  2.59101E-01  1.44917E-01 -8.82254E-02 -7.67596E-03 -3.54322E-01  1.27504E-01 -6.61886E-02  6.25493E-02  4.64548E-02
   1.06339E-01  1.76513E-01 -4.39899E-03  3.15857E-01  1.14708E-01  4.89165E-01  2.05946E-01 -6.59828E-02  2.71436E-02 -6.74530E-02
   1.66107E-01  1.09225E-01  2.50120E-01 -1.86332E-01  6.88933E-02  4.30524E-01  9.35868E-02  3.93757E-01  2.01732E-01  1.44376E-01
   2.87679E-01  3.45062E-01  2.28093E-02  1.05830E-01  2.95260E-01 -2.20698E-01 -5.29685E-03  4.21592E-02  1.55454E-01  7.22314E-02
  -7.11501E-04  3.53099E-01  5.30304E-03 -1.37695E-01  1.35272E-01  2.19247E-01  4.16929E-02 -2.35640E-02  4.78106E-03 -8.88313E-02
  -2.24216E-02  1.44721E-02 -1.13298E-01 -2.30114E-02 -7.33673E-02 -1.57418E-01 -8.56068E-02 -4.82113E-01 -3.14124E-01  2.60547E-03
  -1.87116E-01  1.51144E-01  1.49318E-03 -3.31298E-01 -1.02093E-02  2.05163E-01 -3.47435E-02  5.85011E-02  1.85704E-01  1.29834E-02
  -1.14426E-01 -2.76063E-01  4.74153E-02 -5.81004E-02 -1.09703E-01  5.34897E-02 -8.12432E-02 -3.29698E-01 -6.90995E-02 -9.91085E-02
  -1.11523E-01  2.80581E-01 -1.14571E-01  1.58388E-01 -9.49522E-02  3.07878E-01  2.16591E-01 -2.26395E-01  2.10031E-01 -1.69215E-01
   2.11850E-01  8.87822E-02  2.03153E-01  1.21029E-01 -1.71551E-01  4.86074E-02 -3.76399E-02  4.48533E-02 -1.36861E-01 -7.05063E-02
  -6.50584E-02 -2.36342E-01 -2.19385E-01  6.63100E-02  4.87481E-01 -3.60231E-03 -2.88012E-01 -8.35908E-02 -1.55266E-01 -6.87305E-02
  -2.98514E-01 -1.90211E-01 -2.42751E-01 -1.63099E-01 -2.05088E-01 -2.20297E-01 -7.12035E-02 -2.78833E-01 -3.75914E-01 -3.57076E-01
  -7.35781E-03 -1.73798E-01  3.79328E-02 -1.82357E-01  2.39859E-01  1.41874E-01 -1.44982E-01  7.47119E-02 -8.56946E-02  2.40099E-01
  -4.76690E-01  1.70143E-01  1.72754E-01 -5.77007E-02  3.28980E-01  2.17182E-01  2.19782E-01 -7.13433E-02 -1.53726E-03  2.28950E-02
  -3.28096E-02  2.55090E-01  5.98571E-01 -7.91436E-03  1.93624E-01  3.82610E-01  5.07502E-02  3.05195E-02  2.17602E-01  7.00388E-02
   1.80525E-01  1.30199E-01  1.01347E-01  6.74817E-01  8.48754E-03 -3.20397E-02  5.94971E-02  3.43182E-02  2.69641E-02 -2.24842E-01
  -4.98981E-01 -1.48199E-01 -1.01614E-01 -1.76429E-02 -2.04288E-03 -2.33465E-01  7.66979E-02 -6.01317E-01 -1.40760E-01 -2.75162E-01
  -9.66928E-03 -1.19520E-01 -4.89968E-01 -1.09440E-01 -4.08937E-01 -2.08244E-01 -3.11097E-01  4.66265E-02 -3.09279E-01 -1.23539E-01
  -1.65422E-01 -3.93263E-01 -1.91519E-01 -1.75421E-01 -8.25687E-02 -2.22124E-01 -1.51935E-01 -7.46498E-02  2.44416E-02 -4.84343E-01
   7.59918E-02  1.96462E-01 -1.04169E-01  6.31345E-02 -1.20894E-01 -2.57035E-01 -1.08568E-01 -2.11058E-02 -1.84496E-01  1.45358E-01
  -6.09348E-03 -1.05918E-01  2.22370E-03  8.43318E-02  7.23183E-02 -1.68667E-01 -1.71752E-01  3.35250E-01  1.46401E-01 -9.81505E-02
   2.61635E-01 -1.62574E-02 -1.24580E-01 -1.31112E-01  1.63236E-01  4.70836E-01  1.01640E-01 -1.78211E-01  2.43638E-01  2.91567E-01
   2.68526E-01  3.01554E-01 -3.26512E-02 -1.37318E-01 -3.32052E-01 -1.92355E-01 -3.71399E-02 -8.74343E-02  5.83710E-02  9.35212E-02
  -1.22004E-01  2.22622E-01 -6.57670E-02 -1.91502E-01  3.07280E-01 -1.98916E-02  2.64260E-01  2.46765E-02 -1.02095E-01  1.44491E-01
  -6.61180E-02 -5.13153E-02 -1.61351E-02  1.50078E-01 -1.17735E-01  1.38600E-01  2.86428E-01  5.24270E-02  1.52697E-01  7.96912E-02
   1.90413E-01 -4.48620E-02 -7.54708E-02  1.43049E-01 -1.24276E-01 -1.81077E-01 -1.68761E-02 -2.38362E-01 -2.06959E-01  1.84399E-01
   7.33802E-02 -1.34039E-01 -3.46148E-02 -1.50163E-02 -1.37605E-01 -1.17892E-01 -2.78002E-02  1.64741E-01  5.19998E-02 -1.28477E-01
   1.74469E-01 -1.75625E-02 -1.89369E-01  1.11598E-01  1.93779E-02  2.47714E-01  8.32207E-02 -4.52658E-02  3.32435E-01 -8.08689E-02
  -9.41765E-02  1.03525E-01  5.47350E-02 -2.98160E-01  1.28487E-01  2.17162E-01 -1.11251E-01  3.28039E-01 -1.88770E-02  3.91733E-02
  -6.88542E-02 -1.15980E-01 -1.83659E-01 -2.56902E-01
 NY points of the fit to the data follow
   6.14151E-02  4.33240E-02  4.77016E-02  4.14814E-02  6.31363E-02  6.85208E-02  1.02206E-01  1.04621E-01  1.41007E-01  1.31331E-01
   1.72065E-01  1.54683E-01  1.97333E-01  1.71420E-01  2.09899E-01  1.75954E-01  2.04169E-01  1.62791E-01  1.76646E-01  1.31403E-01
   1.30266E-01  8.75895E-02  7.48043E-02  3.93303E-02  2.05495E-02 -6.58034E-03 -2.41252E-02 -4.42804E-02 -5.57912E-02 -7.03628E-02
  -7.45749E-02 -8.34010E-02 -8.08080E-02 -8.68170E-02 -8.00424E-02 -7.81150E-02 -6.78578E-02 -5.76278E-02 -4.51818E-02 -2.66382E-02
  -1.41558E-02  1.18134E-02  1.94875E-02  5.02664E-02  4.87698E-02  7.74394E-02  6.43762E-02  8.13672E-02  5.57800E-02  5.38257E-02
   1.77546E-02 -3.55173E-03 -4.84924E-02 -7.94249E-02 -1.31354E-01 -1.57564E-01 -2.12924E-01 -2.21750E-01 -2.68971E-01 -2.61124E-01
  -2.89585E-01 -2.65443E-01 -2.74384E-01 -2.40445E-01 -2.26407E-01 -1.85631E-01 -1.48196E-01 -1.18219E-01 -5.13970E-02 -5.85368E-02
   3.10161E-02 -2.26033E-02  6.93559E-02 -1.13680E-02  5.55892E-02 -3.52278E-02  6.25114E-03 -7.82105E-02 -6.20960E-02 -1.17619E-01
  -1.16383E-01 -1.21147E-01 -1.15685E-01 -6.89863E-02 -4.05954E-02  3.06270E-02  7.32484E-02  1.42069E-01  1.82252E-01  2.19223E-01
   2.57100E-01  2.49052E-01  2.86085E-01  2.27375E-01  2.70555E-01  1.66248E-01  2.27081E-01  1.03145E-01  1.86974E-01  7.75066E-02
   1.74271E-01  8.74010E-02  1.91161E-01  1.29230E-01  2.16755E-01  1.82514E-01  2.43281E-01  2.32774E-01  2.64951E-01  2.69552E-01
   2.75184E-01  2.85652E-01  2.68424E-01  2.76932E-01  2.42208E-01  2.47937E-01  1.98855E-01  2.03133E-01  1.37005E-01  1.43534E-01
   5.66919E-02  7.00136E-02 -3.56190E-02 -1.54631E-02 -1.33588E-01 -1.08271E-01 -2.24124E-01 -1.99572E-01 -2.90070E-01 -2.65425E-01
  -3.19437E-01 -2.91760E-01 -3.06239E-01 -2.77159E-01 -2.57185E-01 -2.35175E-01 -1.91248E-01 -1.79530E-01 -1.24931E-01 -1.17660E-01
  -6.46855E-02 -5.82878E-02 -1.09710E-02 -8.08118E-03  3.25296E-02  3.98767E-02  7.07000E-02  8.83121E-02  1.10092E-01  1.30898E-01
   1.44746E-01  1.63685E-01  1.77591E-01  1.93768E-01  2.11834E-01  2.28757E-01  2.41232E-01  2.54131E-01  2.48778E-01  2.59913E-01
   2.38172E-01  2.47107E-01  2.04515E-01  2.11558E-01  1.47931E-01  1.51457E-01  6.50546E-02  6.50916E-02 -4.00382E-02 -3.73022E-02
  -1.40596E-01 -1.28869E-01 -2.08206E-01 -1.88661E-01 -2.35410E-01 -2.12398E-01 -2.26674E-01 -2.03737E-01 -1.89560E-01 -1.71652E-01
  -1.42210E-01 -1.35570E-01 -1.10825E-01 -1.15259E-01 -1.03317E-01 -1.07912E-01 -9.46682E-02 -9.74570E-02 -8.59856E-02 -8.65120E-02
  -7.72230E-02 -7.55185E-02 -6.82272E-02 -6.45004E-02 -5.92084E-02 -5.42333E-02 -5.01704E-02 -4.47209E-02 -4.14339E-02 -3.67408E-02
  -3.40629E-02 -3.02854E-02 -2.82341E-02 -2.52787E-02 -2.39530E-02 -2.16950E-02 -2.10135E-02 -1.92205E-02 -1.89379E-02 -1.75696E-02
  -1.74216E-02 -1.50315E-02 -1.45837E-02 -9.89959E-03 -9.02902E-03 -8.18974E-04  1.45559E-03  1.22558E-02  1.59036E-02  2.98365E-02
   3.47774E-02  5.12109E-02  5.45243E-02  7.23127E-02  7.34814E-02  9.04274E-02  8.80690E-02  1.00878E-01  9.46073E-02  1.01459E-01
   9.05707E-02  9.14079E-02  7.44788E-02  6.95841E-02  4.76551E-02  3.86868E-02  1.56947E-02  6.44425E-03 -1.42904E-02 -2.10171E-02
  -3.79998E-02 -4.23656E-02 -5.48411E-02 -5.72287E-02 -6.64302E-02 -6.33650E-02 -7.22497E-02 -6.30531E-02 -7.52948E-02 -6.31721E-02
  -7.34050E-02 -5.93957E-02 -6.66441E-02 -5.17586E-02 -5.53041E-02 -3.78273E-02 -3.93865E-02 -1.84667E-02 -1.83430E-02  3.43081E-03
   5.05261E-03  2.42788E-02  2.45214E-02  4.16018E-02  3.50519E-02  5.27702E-02  3.44057E-02  5.43950E-02  2.16761E-02  4.29995E-02
  -2.88283E-03  1.60839E-02 -3.61854E-02 -2.49127E-02 -7.15414E-02 -7.17546E-02 -1.02334E-01 -1.08674E-01 -1.23698E-01 -1.28716E-01
  -1.30307E-01 -1.26014E-01 -1.17212E-01 -9.79271E-02 -7.88947E-02 -4.34573E-02 -1.64851E-02  3.20027E-02  5.83863E-02  1.12272E-01
   1.28091E-01  1.76637E-01  1.77638E-01  2.13425E-01  2.00813E-01  2.21629E-01  1.99881E-01  2.05720E-01  1.82783E-01  1.77090E-01
   1.61429E-01  1.52202E-01  1.44379E-01  1.37922E-01  1.30448E-01  1.24918E-01  1.13131E-01  1.05202E-01  8.82932E-02  7.79474E-02
   5.67779E-02  4.29915E-02  2.07805E-02  1.71857E-03 -1.67078E-02 -4.23851E-02 -5.15438E-02 -8.44131E-02 -7.99704E-02 -1.18889E-01
  -9.97516E-02 -1.40502E-01 -1.10401E-01 -1.46806E-01 -1.12882E-01 -1.37548E-01 -1.09100E-01 -1.16557E-01 -1.09642E-01 -9.93290E-02
  -1.27624E-01 -1.04189E-01 -1.74490E-01 -1.43201E-01 -2.38055E-01 -2.01950E-01 -3.07570E-01 -2.73570E-01 -3.67114E-01 -3.39627E-01
  -4.07942E-01 -3.88882E-01 -4.20818E-01 -4.07160E-01 -3.90451E-01 -3.75261E-01 -3.17496E-01 -2.96625E-01 -2.24480E-01 -1.99075E-01
  -1.32990E-01 -1.06708E-01 -5.49536E-02 -3.23154E-02 -3.00968E-03  1.16797E-02  1.24571E-02  1.63434E-02  3.65337E-03  1.81417E-03
  -3.07637E-05 -8.89622E-04 -1.17738E-03 -2.60352E-03 -1.08400E-03 -2.58585E-03  9.32016E-04  1.32323E-04  5.22896E-03  5.68747E-03
   1.16076E-02  1.33754E-02  1.93197E-02  2.20957E-02  2.72816E-02  3.05219E-02  3.46017E-02  3.77211E-02  4.09334E-02  4.36615E-02
   4.63042E-02  4.87787E-02  5.09707E-02  5.34027E-02  5.50975E-02  5.75107E-02  5.86758E-02  6.10016E-02  6.16494E-02  6.36070E-02
   6.37806E-02  6.50041E-02  6.46833E-02  6.49380E-02  6.39850E-02  6.30703E-02  6.13962E-02  5.93073E-02  5.68507E-02  5.37809E-02
   5.05172E-02  4.67654E-02  4.27044E-02  3.86549E-02  3.40443E-02  3.00178E-02  2.52356E-02  2.13978E-02  1.67322E-02  1.31660E-02
   8.85403E-03  5.66193E-03  1.88059E-03 -8.05461E-04 -3.93215E-03 -6.10906E-03 -8.49272E-03 -1.01686E-02 -1.17512E-02 -1.29101E-02
  -1.36401E-02 -1.42516E-02 -1.40881E-02 -1.41004E-02 -1.30110E-02 -1.23393E-02 -1.03625E-02 -8.87894E-03 -6.18171E-03 -3.77954E-03
  -5.16882E-04  2.85353E-03  6.49711E-03  1.09693E-02  1.49173E-02  2.05864E-02  2.49512E-02  3.16677E-02  3.65952E-02  4.39681E-02
   4.95588E-02  5.71215E-02  6.32882E-02  7.05149E-02  7.69498E-02  8.31851E-02  8.93032E-02  9.39639E-02  9.90052E-02  1.01719E-01
   1.05100E-01  1.05680E-01  1.06988E-01  1.05343E-01  1.04509E-01  1.00761E-01  9.81212E-02  9.25396E-02  8.85881E-02  8.15535E-02
   7.69212E-02  6.90014E-02  6.42986E-02  5.61167E-02  5.17763E-02  4.39523E-02  4.02231E-02  3.34137E-02  3.03924E-02  2.51539E-02
   2.29329E-02  1.94421E-02  1.81382E-02  1.62978E-02  1.59604E-02  1.56048E-02  1.62780E-02  1.71807E-02  1.87719E-02  2.05731E-02
   2.28735E-02  2.52278E-02  2.78134E-02  3.04354E-02  3.27861E-02  3.53255E-02  3.70700E-02  3.91332E-02  4.01178E-02  4.14366E-02
   4.16979E-02  4.20974E-02  4.17186E-02  4.11201E-02  4.01732E-02  3.86236E-02  3.72613E-02  3.49635E-02  3.32727E-02  3.05489E-02
   2.85181E-02  2.55912E-02  2.32278E-02  2.03104E-02  1.76372E-02  1.47744E-02  1.17753E-02  8.89613E-03  5.38512E-03  2.29004E-03
  -1.92476E-03 -5.62054E-03 -1.07388E-02 -1.54255E-02 -2.16160E-02 -2.75321E-02 -3.49853E-02 -4.22221E-02 -5.09049E-02 -5.93809E-02
  -6.90861E-02 -7.84933E-02 -8.87086E-02 -9.83903E-02 -1.08423E-01 -1.17562E-01 -1.26545E-01 -1.34371E-01 -1.41634E-01 -1.47436E-01
  -1.52489E-01 -1.55765E-01 -1.58355E-01 -1.58827E-01 -1.59040E-01 -1.56908E-01 -1.55091E-01 -1.50835E-01 -1.47426E-01 -1.41648E-01
  -1.37017E-01 -1.30348E-01 -1.24884E-01 -1.17786E-01 -1.11678E-01 -1.04621E-01 -9.79378E-02 -9.12630E-02 -8.40545E-02 -7.80179E-02
  -7.05967E-02 -6.52598E-02 -5.79414E-02 -5.33146E-02 -4.65659E-02 -4.26486E-02 -3.67795E-02 -3.34493E-02 -2.86517E-02 -2.57422E-02
  -2.20772E-02 -1.94893E-02 -1.67744E-02 -1.45421E-02 -1.25342E-02 -1.06760E-02 -9.17839E-03 -7.65233E-03 -6.50163E-03 -5.27079E-03
  -4.28474E-03 -3.39465E-03 -2.39779E-03 -1.82594E-03 -7.90845E-04 -4.90449E-04  4.50727E-04  5.46752E-04  1.33514E-03  1.23377E-03
   1.76350E-03  1.52365E-03  1.76308E-03  1.49648E-03  1.49857E-03  1.18965E-03  1.00370E-03  7.42166E-04  4.97870E-04  1.62410E-04
  -6.13303E-05 -5.19838E-04 -6.44046E-04 -1.23994E-03 -1.17927E-03 -1.85996E-03 -1.53790E-03 -2.32742E-03 -1.65671E-03 -2.59446E-03
  -1.53727E-03 -2.49002E-03 -1.17131E-03 -2.01897E-03 -6.29642E-04 -1.32435E-03 -2.87258E-05 -5.95741E-04  5.87349E-04  1.82600E-04
   1.27357E-03  8.75622E-04  1.88323E-03  1.49239E-03  2.43658E-03  2.04119E-03  3.00716E-03  2.68618E-03  3.70597E-03  3.48047E-03
   4.47449E-03  4.34856E-03  5.26873E-03  5.24298E-03  6.01577E-03  5.98290E-03  6.58700E-03  6.38063E-03  6.84875E-03  6.49556E-03
   6.89271E-03  6.56974E-03  6.85215E-03  6.63077E-03  6.86044E-03  6.81721E-03  7.02473E-03  7.36030E-03  7.52528E-03  8.40387E-03
   8.47656E-03  9.70658E-03  9.85158E-03  1.12964E-02  1.16868E-02  1.33373E-02  1.40232E-02  1.58437E-02  1.67682E-02  1.88134E-02
   1.98851E-02  2.22594E-02  2.33771E-02  2.61996E-02
 NY background values follow
     9.162E-02    9.138E-02    9.115E-02    9.092E-02    9.068E-02    9.045E-02    9.022E-02    8.999E-02    8.975E-02    8.952E-02
     8.929E-02    8.905E-02    8.882E-02    8.859E-02    8.836E-02    8.812E-02    8.789E-02    8.766E-02    8.742E-02    8.719E-02
     8.696E-02    8.673E-02    8.649E-02    8.626E-02    8.603E-02    8.579E-02    8.556E-02    8.533E-02    8.510E-02    8.486E-02
     8.463E-02    8.440E-02    8.416E-02    8.393E-02    8.370E-02    8.347E-02    8.323E-02    8.300E-02    8.277E-02    8.253E-02
     8.230E-02    8.207E-02    8.184E-02    8.160E-02    8.137E-02    8.114E-02    8.090E-02    8.067E-02    8.044E-02    8.020E-02
     7.997E-02    7.974E-02    7.951E-02    7.927E-02    7.904E-02    7.881E-02    7.857E-02    7.834E-02    7.811E-02    7.787E-02
     7.764E-02    7.741E-02    7.718E-02    7.694E-02    7.671E-02    7.648E-02    7.624E-02    7.601E-02    7.578E-02    7.554E-02
