 LCModel (Version 6.3-1N) Copyright: S.W. Provencher.          Ref.: Magn. Reson. Med. 30:672-679 (1993).                
 Slice_N1@13_19  02-Jun-2023 14:37:04
 27 lines in following concentration table = NCONC+1
    Conc.  %SD /Cr+PCr  Metabolite                                         
 1.73E-06  21% 2.5E-04 Mac                                                 
 2.39E-02  50%   3.454 Cr                                                  
 3.14E-02  40%   4.546 PCr                                                 
 7.36E-02  13%  10.651 Ins                                                 
 5.94E-02  13%   8.595 NAA                                                 
 5.77E-02  14%   8.350 Tau                                                 
    0.000 999%   0.000 PCho                                                
 1.25E-02  17%   1.812 GPC                                                 
 4.97E-02  20%   7.189 Glu                                                 
 1.03E-02  64%   1.483 Gln                                                 
    0.000 999%   0.000 Ala                                                 
 2.20E-02  62%   3.180 Asc                                                 
 1.10E-02  65%   1.588 Asp                                                 
 1.33E-02  29%   1.921 GABA                                                
 8.45E-03  55%   1.222 Glc                                                 
 3.93E-03  79%   0.569 GSH                                                 
 1.04E-02  77%   1.501 Lac                                                 
 5.52E-04 961% 8.0E-02 NAAG                                                
    0.000 999%   0.000 PE                                                  
 1.25E-02  17%   1.812 GPC+PCho                                            
 5.99E-02  14%   8.675 NAA+NAAG                                            
 5.99E-02  19%   8.672 Glu+Gln                                             
 5.53E-02  12%   8.000 Cr+PCr                                              
 5.99E-02  14%   8.675 NAA+NAAG                                            
 5.53E-02  12%   8.000 Cr+PCr                                              
 5.99E-02  19%   8.672 Glu+Gln                                             
   6 lines in following misc. output table
  FWHM = 0.023 ppm    S/N =   3                                            
  Data shift = 0.012 ppm                                                   
  Ph: -29 deg      -4.3 deg/ppm                                            
  alphaB,S = 3.1E+01,   1.1E+00                                            
   18 spline knots.   Ns = 5(1)                                            
   2 inflections.     1 extrema                                            
  654 points on ppm-axis = NY
      4.000000     3.994181     3.988363     3.982544     3.976726     3.970907     3.965088     3.959270     3.953451     3.947633
      3.941814     3.935995     3.930177     3.924358     3.918540     3.912721     3.906902     3.901084     3.895265     3.889446
      3.883628     3.877809     3.871991     3.866172     3.860353     3.854535     3.848716     3.842898     3.837079     3.831260
      3.825442     3.819623     3.813805     3.807986     3.802167     3.796349     3.790530     3.784712     3.778893     3.773074
      3.767256     3.761437     3.755619     3.749800     3.743981     3.738163     3.732344     3.726526     3.720707     3.714888
      3.709070     3.703251     3.697433     3.691614     3.685795     3.679977     3.674158     3.668339     3.662521     3.656702
      3.650884     3.645065     3.639246     3.633428     3.627609     3.621791     3.615972     3.610153     3.604335     3.598516
      3.592698     3.586879     3.581060     3.575242     3.569423     3.563605     3.557786     3.551967     3.546149     3.540330
      3.534512     3.528693     3.522874     3.517056     3.511237     3.505419     3.499600     3.493781     3.487963     3.482144
      3.476326     3.470507     3.464688     3.458870     3.453051     3.447232     3.441414     3.435595     3.429777     3.423958
      3.418139     3.412321     3.406502     3.400684     3.394865     3.389046     3.383228     3.377409     3.371591     3.365772
      3.359953     3.354135     3.348316     3.342498     3.336679     3.330860     3.325042     3.319223     3.313405     3.307586
      3.301767     3.295949     3.290130     3.284312     3.278493     3.272674     3.266856     3.261037     3.255219     3.249400
      3.243581     3.237763     3.231944     3.226125     3.220307     3.214488     3.208670     3.202851     3.197032     3.191214
      3.185395     3.179577     3.173758     3.167939     3.162121     3.156302     3.150484     3.144665     3.138846     3.133028
      3.127209     3.121391     3.115572     3.109753     3.103935     3.098116     3.092298     3.086479     3.080660     3.074842
      3.069023     3.063205     3.057386     3.051567     3.045749     3.039930     3.034111     3.028293     3.022474     3.016656
      3.010837     3.005018     2.999200     2.993381     2.987563     2.981744     2.975925     2.970107     2.964288     2.958470
      2.952651     2.946832     2.941014     2.935195     2.929377     2.923558     2.917739     2.911921     2.906102     2.900284
      2.894465     2.888646     2.882828     2.877009     2.871191     2.865372     2.859553     2.853735     2.847916     2.842098
      2.836279     2.830460     2.824642     2.818823     2.813004     2.807186     2.801367     2.795549     2.789730     2.783911
      2.778093     2.772274     2.766456     2.760637     2.754818     2.749000     2.743181     2.737363     2.731544     2.725725
      2.719907     2.714088     2.708270     2.702451     2.696632     2.690814     2.684995     2.679177     2.673358     2.667539
      2.661721     2.655902     2.650084     2.644265     2.638446     2.632628     2.626809     2.620991     2.615172     2.609353
      2.603535     2.597716     2.591897     2.586079     2.580260     2.574442     2.568623     2.562804     2.556986     2.551167
      2.545349     2.539530     2.533711     2.527893     2.522074     2.516256     2.510437     2.504618     2.498800     2.492981
      2.487163     2.481344     2.475525     2.469707     2.463888     2.458070     2.452251     2.446432     2.440614     2.434795
      2.428977     2.423158     2.417339     2.411521     2.405702     2.399884     2.394065     2.388246     2.382428     2.376609
      2.370790     2.364972     2.359153     2.353335     2.347516     2.341697     2.335879     2.330060     2.324242     2.318423
      2.312604     2.306786     2.300967     2.295149     2.289330     2.283511     2.277693     2.271874     2.266056     2.260237
      2.254418     2.248600     2.242781     2.236963     2.231144     2.225325     2.219507     2.213688     2.207870     2.202051
      2.196232     2.190414     2.184595     2.178777     2.172958     2.167139     2.161321     2.155502     2.149683     2.143865
      2.138046     2.132228     2.126409     2.120590     2.114772     2.108953     2.103135     2.097316     2.091497     2.085679
      2.079860     2.074042     2.068223     2.062404     2.056586     2.050767     2.044949     2.039130     2.033311     2.027493
      2.021674     2.015856     2.010037     2.004218     1.998400     1.992581     1.986763     1.980944     1.975126     1.969307
      1.963489     1.957670     1.951852     1.946033     1.940215     1.934397     1.928578     1.922760     1.916941     1.911123
      1.905304     1.899486     1.893667     1.887849     1.882030     1.876212     1.870393     1.864575     1.858756     1.852938
      1.847119     1.841301     1.835482     1.829664     1.823845     1.818027     1.812208     1.806390     1.800571     1.794753
      1.788934     1.783116     1.777297     1.771479     1.765660     1.759842     1.754023     1.748205     1.742386     1.736568
      1.730749     1.724931     1.719113     1.713294     1.707476     1.701657     1.695839     1.690020     1.684202     1.678383
      1.672565     1.666746     1.660928     1.655109     1.649291     1.643472     1.637654     1.631835     1.626017     1.620198
      1.614380     1.608561     1.602743     1.596924     1.591106     1.585287     1.579469     1.573650     1.567832     1.562013
      1.556195     1.550376     1.544558     1.538739     1.532921     1.527102     1.521284     1.515465     1.509647     1.503829
      1.498010     1.492192     1.486373     1.480555     1.474736     1.468918     1.463099     1.457281     1.451462     1.445644
      1.439825     1.434007     1.428188     1.422370     1.416551     1.410733     1.404914     1.399096     1.393277     1.387459
      1.381640     1.375822     1.370003     1.364185     1.358366     1.352548     1.346729     1.340911     1.335092     1.329274
      1.323455     1.317637     1.311818     1.306000     1.300182     1.294363     1.288545     1.282726     1.276908     1.271089
      1.265271     1.259452     1.253634     1.247815     1.241997     1.236178     1.230360     1.224541     1.218723     1.212904
      1.207086     1.201267     1.195449     1.189630     1.183812     1.177993     1.172175     1.166356     1.160538     1.154719
      1.148901     1.143082     1.137264     1.131445     1.125627     1.119808     1.113990     1.108171     1.102353     1.096534
      1.090716     1.084898     1.079079     1.073261     1.067442     1.061624     1.055805     1.049987     1.044168     1.038350
      1.032531     1.026713     1.020894     1.015076     1.009257     1.003439     0.997620     0.991802     0.985983     0.980165
      0.974346     0.968528     0.962709     0.956891     0.951072     0.945254     0.939435     0.933617     0.927798     0.921980
      0.916161     0.910343     0.904524     0.898706     0.892887     0.887069     0.881251     0.875432     0.869614     0.863795
      0.857977     0.852158     0.846340     0.840521     0.834703     0.828884     0.823066     0.817247     0.811429     0.805610
      0.799792     0.793973     0.788155     0.782336     0.776518     0.770699     0.764881     0.759062     0.753244     0.747425
      0.741607     0.735788     0.729970     0.724151     0.718333     0.712514     0.706696     0.700877     0.695059     0.689240
      0.683422     0.677603     0.671785     0.665967     0.660148     0.654330     0.648511     0.642693     0.636874     0.631056
      0.625237     0.619419     0.613600     0.607782     0.601963     0.596145     0.590326     0.584508     0.578689     0.572871
      0.567052     0.561234     0.555415     0.549597     0.543778     0.537960     0.532141     0.526323     0.520504     0.514686
      0.508867     0.503049     0.497230     0.491412     0.485593     0.479775     0.473956     0.468138     0.462319     0.456501
      0.450682     0.444864     0.439045     0.433227     0.427408     0.421590     0.415771     0.409953     0.404134     0.398316
      0.392497     0.386679     0.380860     0.375042     0.369223     0.363405     0.357586     0.351767     0.345949     0.340130
      0.334312     0.328493     0.322675     0.316856     0.311038     0.305219     0.299401     0.293582     0.287764     0.281945
      0.276127     0.270308     0.264490     0.258671     0.252853     0.247034     0.241216     0.235397     0.229579     0.223760
      0.217942     0.212123     0.206305     0.200486
 NY phased data points follow
  -3.83158E-01 -1.86217E-01 -1.97253E-01 -5.47119E-01  2.14019E-01  4.06960E-02 -3.11712E-01  2.72586E-01  1.66140E-01  4.03853E-01
  -1.61210E-01 -1.28537E-01  4.03929E-01  4.78920E-01  4.05072E-01  5.77339E-01  4.15640E-01  2.19304E-01  4.07363E-01  2.45973E-01
   2.01479E-01  2.68538E-01  2.02368E-01  1.51932E-01  4.77235E-01  7.37415E-02 -1.40532E-02 -1.25723E-01  4.95278E-03 -8.14179E-02
  -2.46288E-01  9.61839E-02 -3.68103E-01 -9.62267E-02 -5.19856E-02 -9.74288E-02 -2.61514E-01 -1.69367E-01 -1.83649E-01 -6.45729E-01
  -5.29009E-01 -4.75424E-01 -1.33517E-01 -7.93675E-02  4.14748E-02  1.97354E-01  2.53542E-01  4.84210E-01  1.30396E-02 -2.15850E-01
   1.14680E-01  4.85028E-02  1.07708E-01  1.17763E-01  1.29553E-01 -2.07586E-01 -1.15282E-01  2.76583E-01 -8.87451E-02  7.40575E-02
   1.03512E-01 -1.42863E-01 -4.03223E-01 -7.10437E-01 -4.79535E-01 -8.34377E-02 -1.79756E-01  1.65853E-01  4.13922E-01  4.29919E-01
   5.48755E-01  2.85690E-01  4.14042E-01  4.24638E-01  1.26064E-01  8.11455E-02  3.99684E-01 -3.25647E-02 -2.42562E-01 -2.55671E-01
  -3.83641E-01 -2.23813E-01 -2.72490E-01 -3.92463E-02  3.33203E-01  4.85852E-01  3.53737E-01  7.05732E-01  2.62474E-01  9.02856E-02
   2.50830E-01 -2.38606E-01 -3.86442E-02  1.64530E-01  1.22792E-01  9.14892E-02  9.93120E-02  1.05462E-02 -7.44986E-02 -2.41035E-03
   5.42644E-02 -3.65879E-01 -2.60428E-01 -9.30766E-02 -1.98822E-01 -4.41070E-02  1.68110E-01  5.43530E-01  6.15614E-01  5.03685E-01
   2.70579E-01  3.15094E-01  2.28506E-01  4.82351E-01  5.96861E-01  1.57681E-01  1.46727E-01  5.62162E-02 -1.83701E-01  2.03446E-01
   5.20865E-01  2.12004E-01  7.75394E-02 -7.81978E-02  1.43131E-01 -1.74414E-01 -2.73140E-01  8.44919E-02 -2.45515E-03 -1.77463E-02
  -5.44859E-01 -5.51776E-01 -4.33148E-01 -3.78382E-01 -6.07280E-01 -9.30312E-01 -5.64238E-01 -6.25761E-01 -6.79979E-01 -6.42713E-01
  -4.25743E-01 -2.25076E-01 -2.15072E-01 -1.34749E-01 -3.95905E-02 -7.99164E-02 -2.65230E-02  3.76120E-01 -1.62243E-01 -8.44770E-02
  -1.88859E-02 -1.98736E-01  4.13611E-01  1.57783E-01 -1.05152E-01  1.18852E-01  4.24595E-01 -7.58604E-02  1.02617E-01  2.90049E-01
   7.58937E-02  4.57309E-01  4.00551E-01  6.51080E-01  7.54259E-01  7.30239E-01  5.83273E-01  7.49322E-01  2.53114E-01 -2.00899E-01
  -2.39136E-01 -7.92936E-01 -6.41163E-01 -6.56214E-01 -6.42960E-01 -1.69951E-01 -2.06929E-01 -7.00032E-01 -2.77717E-01 -1.61349E-01
  -2.96056E-01 -3.17804E-01 -5.13400E-01 -2.89856E-01 -1.92275E-01 -1.53528E-01 -3.30867E-01 -3.40793E-01 -5.00147E-01 -2.71390E-01
  -2.42408E-01 -2.71129E-01  5.04476E-02 -6.80059E-02 -1.74622E-01 -2.61462E-01 -1.76581E-01 -2.14066E-01  2.30897E-02 -3.57187E-01
  -3.26066E-01  3.28058E-01 -1.60609E-01 -1.14381E-01  5.96486E-02 -1.58310E-01 -4.79498E-02  1.26044E-01  1.41067E-01 -1.76738E-01
  -2.69672E-02 -4.84186E-02 -1.26852E-02  2.84725E-01 -3.70374E-01 -3.82080E-01  2.05131E-01  2.27546E-01 -2.26270E-01 -2.21325E-01
   4.42819E-02  4.49545E-02 -8.75573E-02 -2.99029E-01  1.96497E-01  7.73348E-03  1.65924E-01  4.67765E-01  6.98842E-02  4.29745E-01
   2.72414E-01  1.52552E-01  2.44227E-01 -9.52795E-02 -2.23485E-02 -2.89749E-03 -1.25660E-01 -2.00729E-01 -4.72553E-01 -2.85620E-01
  -3.83923E-02  4.16968E-02  5.99264E-02 -1.41127E-01 -8.66528E-02 -1.02716E-01 -4.69060E-02 -3.54700E-02 -2.76335E-01 -1.46370E-01
   7.86972E-02 -2.24814E-01 -2.10621E-01 -9.98008E-02 -2.70173E-01 -2.00867E-01 -2.35356E-01  1.46469E-02 -5.92722E-02 -1.22254E-01
   2.12099E-01  3.59027E-01  4.06723E-01  5.61261E-02  3.40624E-02  1.24262E-01 -1.88697E-01  1.65621E-03  4.81628E-01  2.85622E-01
   2.24075E-01  2.18392E-01  6.47998E-02  2.67504E-01 -1.79603E-01 -1.32746E-01  1.53844E-01 -3.63694E-01 -2.46775E-01 -2.88318E-01
  -2.69421E-01  9.56466E-03 -6.15029E-02  5.74987E-02 -3.81331E-01 -2.75937E-01  9.55808E-02 -6.67022E-02  1.62359E-01  2.78445E-01
   2.93983E-01  3.26605E-01  7.80878E-02 -2.05541E-01  1.36855E-01  2.41787E-02 -1.13125E-01  3.40575E-01  2.59691E-01 -3.95318E-02
   3.00666E-02  2.29050E-01  1.12308E-01  4.77117E-01  5.08474E-01  8.10045E-02  2.96954E-01  5.74219E-01  2.39780E-01  2.98384E-01
   5.53101E-01  2.46854E-01  2.34221E-01  8.96279E-02  8.10494E-02 -1.73383E-02  8.29631E-02  2.44554E-01  1.96515E-01 -1.59910E-01
  -4.81936E-01  1.95823E-01  3.02090E-02 -6.45252E-02 -1.78446E-02 -3.41446E-01 -1.02108E-01 -2.13367E-01 -1.39661E-02  6.23938E-02
  -1.01477E-01  3.51409E-01  1.71946E-01  5.14537E-02  1.26365E-01 -9.03562E-02 -7.39372E-02 -1.21967E-01 -2.62050E-01 -3.42846E-01
  -3.08460E-01 -4.39944E-01 -2.97858E-01 -1.31484E+00 -1.66896E+00 -5.49441E-01 -2.88652E-01 -1.61585E-02  2.07817E-01  2.17817E-01
   2.90281E-02  5.82402E-01  3.01775E-01 -1.69159E-02  2.62922E-01  8.09503E-02 -1.00191E-03 -1.11175E-01  2.30368E-01 -2.53544E-01
   1.24039E-01  2.83598E-01 -7.72959E-02  1.73222E-01 -1.61269E-01 -3.45902E-01 -3.02651E-01 -1.75753E-01  1.32913E-03  2.19554E-01
  -7.39468E-04 -1.57976E-01  4.83336E-02  4.20396E-01 -1.87587E-01 -1.65652E-01  2.88954E-01  2.31543E-01  2.89564E-02 -2.78268E-01
   3.94797E-01  2.27073E-02  1.66989E-03  4.12026E-01  4.64750E-01 -2.14569E-03  1.25801E-01  6.02012E-01  8.69460E-02  3.00799E-01
   4.87733E-02  1.64928E-02  2.75830E-01  3.12294E-01  3.53056E-02  2.78339E-01  4.11723E-01  5.80094E-02  2.39810E-01  1.53613E-01
   2.14647E-01 -4.11046E-02 -3.33497E-02  1.46844E-01 -3.56641E-02  4.67720E-02 -5.52549E-03 -3.10376E-01  5.26319E-02 -8.81343E-04
   4.14991E-02 -1.28422E-01 -4.03298E-01  1.25761E-02 -4.23508E-01 -3.39632E-02 -3.12213E-02 -1.57308E-01 -3.16600E-01 -4.17200E-01
   2.04099E-01 -4.53489E-01 -4.58364E-01  5.27073E-02 -2.92684E-01 -1.85860E-01 -8.35522E-02 -3.04278E-01 -3.51328E-01 -3.51657E-01
   5.74682E-02 -2.49896E-01 -2.97089E-01 -3.70846E-01 -2.90545E-01  3.43762E-02 -4.49726E-01 -1.17714E-01 -1.31529E-01 -1.90711E-01
   3.29660E-02  1.12837E-01 -1.01662E-01 -3.38178E-02  1.02367E-01 -3.23034E-02 -1.06013E-02 -2.99956E-02 -7.54267E-03 -2.41978E-01
  -1.47967E-01 -1.12338E-01 -5.98602E-02 -2.24113E-01  4.16933E-02  4.11731E-01  8.74357E-02 -4.33302E-01 -3.54333E-01 -5.75415E-02
   9.09293E-02  2.97671E-01 -6.01264E-02  2.77238E-02  1.28674E-01  4.40465E-01 -1.00260E-01 -3.41245E-01  1.28185E-01  3.51028E-02
  -8.52885E-03 -3.38226E-01 -6.26836E-02  1.27595E-01  1.02344E-01  2.47873E-01  3.41753E-01 -2.72283E-01 -2.67796E-01 -8.91047E-03
   8.61900E-02  6.57348E-02  4.31533E-02  6.19712E-01  1.00545E-01  2.10814E-01  8.13702E-02  8.17809E-02  5.55264E-01  8.45342E-02
   3.40579E-04 -8.80655E-02  1.45535E-01  2.54446E-01 -1.81876E-01  6.05397E-02  1.15157E-02 -2.82448E-01  2.09911E-01  1.75651E-01
   1.38574E-01  5.98307E-02 -3.77105E-02 -3.18801E-02  2.27218E-02  5.39937E-01  2.68311E-01  1.74926E-01  2.34534E-01 -8.08247E-03
  -1.27977E-01 -3.02724E-01 -1.13229E-01 -6.59637E-02 -4.89838E-02 -4.15204E-03 -5.33223E-02 -1.21284E-01 -9.79860E-02 -9.12900E-02
  -4.28025E-01 -4.58794E-02 -3.42204E-01 -4.46403E-01  1.71064E-02 -3.38924E-01 -8.33909E-02 -3.11270E-01 -4.84869E-01 -3.48593E-01
  -3.66670E-01 -3.40320E-01  6.14646E-02  8.25932E-02 -3.89442E-01  1.71801E-02  9.66956E-02  2.62033E-02 -1.24019E-01 -3.33688E-01
  -1.66944E-01  8.86548E-02 -3.00489E-01 -5.91826E-02  4.50222E-02 -3.32881E-01  2.10264E-01 -3.88494E-02  3.91475E-02  1.19137E-01
   2.07298E-01  2.20748E-01  1.93850E-02  2.94149E-01  9.98092E-02  2.04502E-01 -8.14255E-02 -1.74112E-02  4.33802E-01  3.29203E-02
   1.70538E-02  1.26067E-01  3.69066E-02  3.04964E-01  1.53401E-01 -1.22365E-01  9.60009E-02 -2.60886E-02  3.99638E-02  2.57419E-01
  -1.16969E-01 -3.11740E-01  5.89895E-02  3.67722E-01  9.74008E-03  4.36794E-02  2.04167E-03 -4.17202E-01 -2.20295E-01  2.23498E-02
   4.16099E-01  1.61474E-01  1.87264E-01  4.80401E-01  1.83287E-01  3.20886E-01  1.55079E-01  8.19487E-02  8.25299E-02 -1.20280E-02
   3.97550E-01  2.95271E-01  1.95059E-02  2.97055E-01 -8.24026E-02  6.10931E-02  3.60753E-01 -4.01917E-02  5.36440E-02 -1.01363E-01
   1.93085E-01  2.03711E-01 -2.96513E-01  1.00369E-01  2.74998E-01 -4.55564E-02 -9.63591E-02  6.22571E-02  3.03435E-01 -6.79006E-02
  -1.56265E-01  4.30843E-01  1.22556E-01 -2.13166E-01 -2.95583E-01  1.13373E-01  1.33417E-01 -1.86485E-01  3.60305E-02 -8.49970E-02
   1.10923E-01  1.49181E-01  1.87688E-01 -8.45280E-02 -1.33102E-01  7.67498E-02  8.29735E-02  2.60930E-01 -2.00435E-01  1.33968E-02
  -8.26248E-02  2.11374E-02  2.29174E-01  5.99233E-02  4.07116E-01 -1.31468E-01  3.30229E-02 -7.47264E-03 -2.44808E-01  2.34970E-01
   1.61368E-01  4.07376E-02 -1.56759E-01  5.52073E-02  2.27433E-01 -5.83824E-02  1.93618E-02  8.28642E-02  1.99138E-02  2.23154E-01
   3.63081E-02 -1.10241E-01  1.16714E-01  1.30203E-01
 NY points of the fit to the data follow
   9.47101E-02  8.54890E-02  6.54394E-02  4.56747E-02  1.90292E-02  1.29923E-02  7.44845E-03  1.19008E-02  2.63877E-02  6.43930E-02
   1.02246E-01  1.73328E-01  2.62931E-01  4.49698E-01  5.39192E-01  4.66561E-01  5.17407E-01  4.02399E-01  3.05853E-01  2.50867E-01
   1.35425E-01  1.44733E-01  1.21357E-01  8.98969E-02  5.43459E-02  2.12119E-02 -1.52424E-03 -2.20466E-02 -3.88452E-02 -5.44094E-02
  -6.47118E-02 -7.62448E-02 -8.51289E-02 -9.62713E-02 -1.12225E-01 -1.36631E-01 -1.65255E-01 -1.93798E-01 -2.12849E-01 -2.22163E-01
  -2.07900E-01 -1.71474E-01 -9.41472E-02 -2.75377E-03  7.93205E-02  1.59254E-01  1.95780E-01  2.10973E-01  1.92569E-01  1.34389E-01
   1.01416E-01  7.37613E-02  3.36776E-02  6.78283E-03 -3.98380E-02 -8.19099E-02 -1.06710E-01 -1.42328E-01 -1.82030E-01 -1.94496E-01
  -1.65187E-01 -1.74221E-01 -2.19177E-01 -3.00692E-01 -2.85871E-01 -2.35278E-01 -2.82126E-01  1.26928E-03  1.69853E-01  2.10706E-01
   3.83648E-01  3.35326E-01  3.25044E-01  2.90390E-01  1.70865E-01  1.04132E-01  1.35326E-02 -9.34459E-02 -1.90759E-01 -2.90585E-01
  -3.92860E-01 -4.37513E-01 -2.34795E-01 -4.10434E-02  9.51963E-02  2.98411E-01  3.67478E-01  4.11611E-01  3.97680E-01  3.12281E-01
   2.74987E-01  2.45062E-01  2.25090E-01  2.06703E-01  1.78872E-01  1.48810E-01  9.69324E-02  2.36214E-02 -6.12552E-02 -1.74807E-01
  -2.70012E-01 -3.28881E-01 -3.04280E-01 -1.76170E-01 -1.46539E-02  1.54442E-01  2.48954E-01  2.74177E-01  2.74643E-01  2.59552E-01
   2.59701E-01  2.61803E-01  2.61789E-01  2.62158E-01  2.60761E-01  2.60370E-01  2.60389E-01  2.63209E-01  2.63802E-01  2.54316E-01
   2.44293E-01  2.18855E-01  1.74682E-01  9.39320E-02  3.43226E-02  3.01017E-02 -1.00004E-01 -1.06597E-01 -1.12405E-01 -1.82963E-01
  -2.96389E-01 -3.45403E-01 -5.29432E-01 -5.43108E-01 -5.40802E-01 -5.62450E-01 -5.62400E-01 -8.66312E-01 -7.73813E-01 -5.74097E-01
  -3.36394E-01 -1.12421E-01 -1.00132E-01 -6.57208E-02 -3.39998E-02 -6.70549E-03  1.73130E-02  3.89021E-02  5.81405E-02  7.59636E-02
   9.18811E-02  1.06062E-01  1.21026E-01  1.35288E-01  1.50639E-01  1.66747E-01  1.84911E-01  2.04849E-01  2.27635E-01  2.54720E-01
   2.85794E-01  3.24756E-01  3.87732E-01  4.96977E-01  5.96862E-01  6.21369E-01  6.05109E-01  5.35292E-01  3.67062E-01 -3.15605E-01
  -6.80753E-01 -7.47587E-01 -6.46415E-01 -3.90475E-01 -3.85355E-01 -3.74128E-01 -3.68488E-01 -3.27351E-01 -3.02387E-01 -2.69545E-01
  -2.51461E-01 -2.38007E-01 -2.26134E-01 -2.08303E-01 -1.99195E-01 -1.87046E-01 -1.80261E-01 -1.74546E-01 -1.65063E-01 -1.57312E-01
  -1.48031E-01 -1.41513E-01 -1.33890E-01 -1.26783E-01 -1.18639E-01 -1.10989E-01 -1.03303E-01 -9.67119E-02 -8.91511E-02 -8.03595E-02
  -7.12868E-02 -6.22213E-02 -5.53134E-02 -4.53000E-02 -3.85482E-02 -3.94081E-02 -4.28681E-02 -4.53611E-02 -3.72004E-02 -3.11016E-02
  -3.91832E-02 -5.43673E-02 -6.63391E-02 -6.84612E-02 -6.32215E-02 -5.91234E-02 -5.64209E-02 -5.51149E-02 -5.50539E-02 -5.43281E-02
  -5.59942E-02 -5.16436E-02 -3.20081E-02 -2.93616E-03  3.18261E-02  6.86954E-02  1.51057E-01  2.15389E-01  1.97029E-01  1.72335E-01
   1.67074E-01  1.92771E-01  2.03432E-01  1.33616E-01  5.87459E-02 -1.48259E-04 -3.10065E-02 -3.56589E-02 -4.76220E-02 -5.27499E-02
  -5.86657E-02 -6.53952E-02 -7.12723E-02 -7.64599E-02 -8.01477E-02 -8.30510E-02 -8.59304E-02 -8.89988E-02 -9.30689E-02 -9.44280E-02
  -1.00200E-01 -1.03753E-01 -1.15464E-01 -1.27401E-01 -1.30666E-01 -1.39531E-01 -1.31316E-01 -1.14929E-01 -3.74461E-02 -1.10731E-02
   5.17213E-03  4.13900E-02  6.35990E-02  8.62526E-02  5.14717E-02  6.80717E-02  7.25823E-02  5.73658E-02  6.64644E-02  3.31229E-02
   4.10144E-02  3.90823E-02  1.83571E-02  5.08199E-03 -2.68235E-02 -4.63000E-02 -7.21838E-02 -9.66719E-02 -1.27819E-01 -1.60819E-01
  -2.02185E-01 -2.37796E-01 -2.72334E-01 -2.78303E-01 -2.39800E-01 -1.85807E-01 -5.99213E-02  6.37686E-02  1.53700E-01  2.28513E-01
   2.11365E-01  1.66080E-01  1.20774E-01  6.40121E-02  6.60861E-02  6.05618E-02  8.83831E-02  1.26951E-01  1.43337E-01  1.71525E-01
   1.67721E-01  1.62687E-01  1.55579E-01  1.45270E-01  1.40316E-01  1.36662E-01  1.32799E-01  1.28186E-01  1.23465E-01  1.17161E-01
   1.08732E-01  9.89859E-02  8.67099E-02  7.17425E-02  5.42001E-02  3.20105E-02  4.39968E-03 -2.65866E-02 -6.91440E-02 -1.08501E-01
  -1.50347E-01 -1.78997E-01 -1.96205E-01 -2.01427E-01 -1.83235E-01 -1.62816E-01 -1.13375E-01 -6.83445E-02 -1.86411E-02  1.29291E-02
   2.06357E-02  1.76726E-02 -2.15394E-02 -4.03419E-02 -9.63242E-02 -9.88863E-02 -1.17856E-01 -8.53248E-02 -9.17627E-02 -2.20738E-01
  -3.36560E-01 -5.64003E-01 -6.81648E-01 -1.31758E+00 -1.32144E+00 -8.95526E-01 -5.30825E-01 -5.10447E-02 -6.92150E-02 -6.73886E-02
  -4.75395E-02 -3.06328E-02 -1.59207E-02 -4.53971E-03  5.46874E-03  1.25375E-02  1.91158E-02  2.23412E-02  2.39653E-02  1.71744E-02
   7.44696E-03 -9.37380E-03 -3.44174E-02 -4.63132E-02 -7.41255E-02 -7.35501E-02 -7.71527E-02 -6.77796E-02 -4.64918E-02 -3.65314E-02
  -1.67704E-02 -9.27444E-03  3.50475E-04  6.16106E-03  1.25115E-02  1.70070E-02  2.05508E-02  2.42940E-02  2.70731E-02  3.11754E-02
   3.44940E-02  3.73750E-02  3.96314E-02  4.22952E-02  4.48207E-02  4.73875E-02  5.00652E-02  5.10873E-02  5.29049E-02  5.39850E-02
   5.73470E-02  5.98835E-02  6.28607E-02  6.47439E-02  6.46930E-02  6.41245E-02  6.17279E-02  5.96269E-02  5.76010E-02  5.54110E-02
   5.25718E-02  4.84487E-02  4.34448E-02  3.83027E-02  3.34133E-02  2.74397E-02  2.22109E-02  1.75791E-02  1.34312E-02  9.30914E-03
   4.53695E-03  1.05029E-03 -2.90660E-03 -5.37621E-03 -7.82597E-03 -1.06554E-02 -1.27482E-02 -1.50936E-02 -1.74569E-02 -1.92663E-02
  -2.09933E-02 -2.20704E-02 -2.26389E-02 -2.36307E-02 -2.31581E-02 -2.16438E-02 -1.99709E-02 -1.69395E-02 -1.38727E-02 -1.04966E-02
  -6.97563E-03 -3.41329E-03 -6.64017E-04  7.36018E-04  3.08552E-03  6.58312E-03  1.20871E-02  1.84762E-02  2.43360E-02  2.98073E-02
   3.56553E-02  4.24281E-02  5.07355E-02  5.91933E-02  6.78532E-02  7.66550E-02  8.43223E-02  9.24477E-02  9.95876E-02  1.04757E-01
   1.08453E-01  1.09449E-01  1.09011E-01  1.07332E-01  1.04699E-01  9.98283E-02  9.28014E-02  8.71005E-02  8.66395E-02  8.96882E-02
   1.05873E-01  1.24483E-01  1.81356E-01  1.92444E-01  2.09694E-01  1.83583E-01  1.23126E-01  9.79349E-02  6.08442E-02  5.60054E-02
   4.86520E-02  4.16271E-02  3.64285E-02  3.21151E-02  2.86728E-02  2.61863E-02  2.57502E-02  2.69522E-02  2.81821E-02  3.03285E-02
   3.31010E-02  3.59422E-02  3.97253E-02  4.34484E-02  4.73049E-02  5.01259E-02  5.22370E-02  5.38879E-02  5.49965E-02  5.61802E-02
   5.75643E-02  5.96217E-02  6.04344E-02  5.97950E-02  5.84523E-02  5.56042E-02  5.41582E-02  5.15085E-02  4.81071E-02  4.57291E-02
   4.28490E-02  4.09222E-02  3.81011E-02  3.51048E-02  3.20584E-02  2.89935E-02  2.62472E-02  2.30369E-02  1.98778E-02  1.74668E-02
   1.58164E-02  1.36858E-02  1.06995E-02  7.00128E-03  2.96377E-03 -1.85316E-03 -7.65982E-03 -1.39419E-02 -2.07754E-02 -2.81496E-02
  -3.68720E-02 -4.80429E-02 -6.03070E-02 -7.43947E-02 -8.71341E-02 -9.92778E-02 -1.11233E-01 -1.22190E-01 -1.32128E-01 -1.40165E-01
  -1.46979E-01 -1.52454E-01 -1.55502E-01 -1.54831E-01 -1.52813E-01 -1.50095E-01 -1.46002E-01 -1.40472E-01 -1.34161E-01 -1.27711E-01
  -1.22227E-01 -1.16920E-01 -1.11317E-01 -1.04631E-01 -9.65691E-02 -8.89069E-02 -8.01904E-02 -7.14995E-02 -6.31674E-02 -5.45216E-02
  -4.68706E-02 -3.88920E-02 -3.22924E-02 -2.51048E-02 -1.78608E-02 -1.20839E-02 -6.75936E-03 -2.17735E-03  2.94639E-03  8.46494E-03
   1.16437E-02  1.40399E-02  1.76146E-02  1.98625E-02  2.28401E-02  2.48787E-02  2.54977E-02  2.71912E-02  2.83507E-02  2.95100E-02
   3.02040E-02  3.09738E-02  3.32095E-02  3.49357E-02  3.68450E-02  3.87371E-02  3.97385E-02  4.02935E-02  4.02177E-02  4.05399E-02
   4.03952E-02  4.04247E-02  4.10141E-02  4.06021E-02  4.06022E-02  4.13146E-02  4.16215E-02  4.22534E-02  4.27304E-02  4.29289E-02
   4.36774E-02  4.28296E-02  4.03355E-02  3.96679E-02  4.07327E-02  4.17430E-02  4.24006E-02  4.18488E-02  4.22982E-02  4.22272E-02
   4.14643E-02  4.17419E-02  4.25450E-02  4.46397E-02  4.58953E-02  4.67658E-02  4.76087E-02  4.88075E-02  5.05008E-02  5.15591E-02
   5.19630E-02  5.29799E-02  5.33139E-02  5.36845E-02  5.29119E-02  5.31302E-02  5.44413E-02  5.57155E-02  5.77450E-02  5.89578E-02
   6.03898E-02  6.17542E-02  6.27486E-02  6.46238E-02  6.73302E-02  6.89685E-02  7.03920E-02  7.00807E-02  6.93411E-02  7.00354E-02
   7.11282E-02  7.33346E-02  7.45106E-02  7.46736E-02  7.52546E-02  7.59174E-02  7.75422E-02  7.96134E-02  8.06947E-02  8.14703E-02
   8.37981E-02  8.65640E-02  8.84956E-02  9.01412E-02  9.18075E-02  9.38967E-02  9.72569E-02  1.00060E-01  1.03465E-01  1.08331E-01
   1.13200E-01  1.17404E-01  1.21057E-01  1.24263E-01
 NY background values follow
     4.302E-02    4.288E-02    4.273E-02    4.259E-02    4.244E-02    4.230E-02    4.216E-02    4.201E-02    4.187E-02    4.172E-02
     4.158E-02    4.143E-02    4.129E-02    4.114E-02    4.100E-02    4.085E-02    4.071E-02    4.057E-02    4.042E-02    4.028E-02
     4.013E-02    3.999E-02    3.984E-02    3.970E-02    3.955E-02    3.941E-02    3.927E-02    3.912E-02    3.898E-02    3.883E-02
     3.869E-02    3.854E-02    3.840E-02    3.825E-02    3.811E-02    3.796E-02    3.782E-02    3.768E-02    3.753E-02    3.739E-02
     3.724E-02    3.710E-02    3.695E-02    3.681E-02    3.666E-02    3.652E-02    3.637E-02    3.623E-02    3.608E-02    3.594E-02
     3.580E-02    3.565E-02    3.551E-02    3.536E-02    3.522E-02    3.507E-02    3.493E-02    3.478E-02    3.464E-02    3.449E-02
     3.435E-02    3.420E-02    3.406E-02    3.392E-02    3.377E-02    3.363E-02    3.348E-02    3.334E-02    3.319E-02    3.305E-02
