 LCModel (Version 6.3-1N) Copyright: S.W. Provencher.          Ref.: Magn. Reson. Med. 30:672-679 (1993).                
 Slice_N1@16_13  02-Jun-2023 14:37:05
 27 lines in following concentration table = NCONC+1
    Conc.  %SD /Cr+PCr  Metabolite                                         
 1.92E-06  15% 2.6E-04 Mac                                                 
 2.56E-02  21%   3.386 Cr                                                  
 3.48E-02  15%   4.614 PCr                                                 
 6.70E-02  10%   8.877 Ins                                                 
 6.78E-02   7%   8.988 NAA                                                 
 6.25E-02   9%   8.279 Tau                                                 
 5.86E-03  23%   0.776 PCho                                                
 3.00E-03  45%   0.397 GPC                                                 
 5.77E-02  12%   7.644 Glu                                                 
 1.68E-02  31%   2.221 Gln                                                 
 2.68E-03 182%   0.356 Ala                                                 
 2.29E-02  41%   3.035 Asc                                                 
 7.57E-03  84%   1.003 Asp                                                 
 9.84E-03  33%   1.304 GABA                                                
 6.86E-03  63%   0.909 Glc                                                 
 8.51E-03  34%   1.128 GSH                                                 
    0.000 999%   0.000 Lac                                                 
 7.91E-03  38%   1.048 NAAG                                                
    0.000 999%   0.000 PE                                                  
 8.86E-03  15%   1.173 GPC+PCho                                            
 7.58E-02   8%  10.036 NAA+NAAG                                            
 7.45E-02  11%   9.865 Glu+Gln                                             
 6.04E-02   8%   8.000 Cr+PCr                                              
 7.58E-02   8%  10.036 NAA+NAAG                                            
 6.04E-02   8%   8.000 Cr+PCr                                              
 7.45E-02  11%   9.865 Glu+Gln                                             
   6 lines in following misc. output table
  FWHM = 0.017 ppm    S/N =   6                                            
  Data shift = 0.017 ppm                                                   
  Ph: -53 deg      -7.2 deg/ppm                                            
  alphaB,S = 2.0E+00,   1.0E+00                                            
   18 spline knots.   Ns = 5(1)                                            
   2 inflections.     1 extrema                                            
  654 points on ppm-axis = NY
      4.000000     3.994181     3.988363     3.982544     3.976726     3.970907     3.965088     3.959270     3.953451     3.947633
      3.941814     3.935995     3.930177     3.924358     3.918540     3.912721     3.906902     3.901084     3.895265     3.889446
      3.883628     3.877809     3.871991     3.866172     3.860353     3.854535     3.848716     3.842898     3.837079     3.831260
      3.825442     3.819623     3.813805     3.807986     3.802167     3.796349     3.790530     3.784712     3.778893     3.773074
      3.767256     3.761437     3.755619     3.749800     3.743981     3.738163     3.732344     3.726526     3.720707     3.714888
      3.709070     3.703251     3.697433     3.691614     3.685795     3.679977     3.674158     3.668339     3.662521     3.656702
      3.650884     3.645065     3.639246     3.633428     3.627609     3.621791     3.615972     3.610153     3.604335     3.598516
      3.592698     3.586879     3.581060     3.575242     3.569423     3.563605     3.557786     3.551967     3.546149     3.540330
      3.534512     3.528693     3.522874     3.517056     3.511237     3.505419     3.499600     3.493781     3.487963     3.482144
      3.476326     3.470507     3.464688     3.458870     3.453051     3.447232     3.441414     3.435595     3.429777     3.423958
      3.418139     3.412321     3.406502     3.400684     3.394865     3.389046     3.383228     3.377409     3.371591     3.365772
      3.359953     3.354135     3.348316     3.342498     3.336679     3.330860     3.325042     3.319223     3.313405     3.307586
      3.301767     3.295949     3.290130     3.284312     3.278493     3.272674     3.266856     3.261037     3.255219     3.249400
      3.243581     3.237763     3.231944     3.226125     3.220307     3.214488     3.208670     3.202851     3.197032     3.191214
      3.185395     3.179577     3.173758     3.167939     3.162121     3.156302     3.150484     3.144665     3.138846     3.133028
      3.127209     3.121391     3.115572     3.109753     3.103935     3.098116     3.092298     3.086479     3.080660     3.074842
      3.069023     3.063205     3.057386     3.051567     3.045749     3.039930     3.034111     3.028293     3.022474     3.016656
      3.010837     3.005018     2.999200     2.993381     2.987563     2.981744     2.975925     2.970107     2.964288     2.958470
      2.952651     2.946832     2.941014     2.935195     2.929377     2.923558     2.917739     2.911921     2.906102     2.900284
      2.894465     2.888646     2.882828     2.877009     2.871191     2.865372     2.859553     2.853735     2.847916     2.842098
      2.836279     2.830460     2.824642     2.818823     2.813004     2.807186     2.801367     2.795549     2.789730     2.783911
      2.778093     2.772274     2.766456     2.760637     2.754818     2.749000     2.743181     2.737363     2.731544     2.725725
      2.719907     2.714088     2.708270     2.702451     2.696632     2.690814     2.684995     2.679177     2.673358     2.667539
      2.661721     2.655902     2.650084     2.644265     2.638446     2.632628     2.626809     2.620991     2.615172     2.609353
      2.603535     2.597716     2.591897     2.586079     2.580260     2.574442     2.568623     2.562804     2.556986     2.551167
      2.545349     2.539530     2.533711     2.527893     2.522074     2.516256     2.510437     2.504618     2.498800     2.492981
      2.487163     2.481344     2.475525     2.469707     2.463888     2.458070     2.452251     2.446432     2.440614     2.434795
      2.428977     2.423158     2.417339     2.411521     2.405702     2.399884     2.394065     2.388246     2.382428     2.376609
      2.370790     2.364972     2.359153     2.353335     2.347516     2.341697     2.335879     2.330060     2.324242     2.318423
      2.312604     2.306786     2.300967     2.295149     2.289330     2.283511     2.277693     2.271874     2.266056     2.260237
      2.254418     2.248600     2.242781     2.236963     2.231144     2.225325     2.219507     2.213688     2.207870     2.202051
      2.196232     2.190414     2.184595     2.178777     2.172958     2.167139     2.161321     2.155502     2.149683     2.143865
      2.138046     2.132228     2.126409     2.120590     2.114772     2.108953     2.103135     2.097316     2.091497     2.085679
      2.079860     2.074042     2.068223     2.062404     2.056586     2.050767     2.044949     2.039130     2.033311     2.027493
      2.021674     2.015856     2.010037     2.004218     1.998400     1.992581     1.986763     1.980944     1.975126     1.969307
      1.963489     1.957670     1.951852     1.946033     1.940215     1.934397     1.928578     1.922760     1.916941     1.911123
      1.905304     1.899486     1.893667     1.887849     1.882030     1.876212     1.870393     1.864575     1.858756     1.852938
      1.847119     1.841301     1.835482     1.829664     1.823845     1.818027     1.812208     1.806390     1.800571     1.794753
      1.788934     1.783116     1.777297     1.771479     1.765660     1.759842     1.754023     1.748205     1.742386     1.736568
      1.730749     1.724931     1.719113     1.713294     1.707476     1.701657     1.695839     1.690020     1.684202     1.678383
      1.672565     1.666746     1.660928     1.655109     1.649291     1.643472     1.637654     1.631835     1.626017     1.620198
      1.614380     1.608561     1.602743     1.596924     1.591106     1.585287     1.579469     1.573650     1.567832     1.562013
      1.556195     1.550376     1.544558     1.538739     1.532921     1.527102     1.521284     1.515465     1.509647     1.503829
      1.498010     1.492192     1.486373     1.480555     1.474736     1.468918     1.463099     1.457281     1.451462     1.445644
      1.439825     1.434007     1.428188     1.422370     1.416551     1.410733     1.404914     1.399096     1.393277     1.387459
      1.381640     1.375822     1.370003     1.364185     1.358366     1.352548     1.346729     1.340911     1.335092     1.329274
      1.323455     1.317637     1.311818     1.306000     1.300182     1.294363     1.288545     1.282726     1.276908     1.271089
      1.265271     1.259452     1.253634     1.247815     1.241997     1.236178     1.230360     1.224541     1.218723     1.212904
      1.207086     1.201267     1.195449     1.189630     1.183812     1.177993     1.172175     1.166356     1.160538     1.154719
      1.148901     1.143082     1.137264     1.131445     1.125627     1.119808     1.113990     1.108171     1.102353     1.096534
      1.090716     1.084898     1.079079     1.073261     1.067442     1.061624     1.055805     1.049987     1.044168     1.038350
      1.032531     1.026713     1.020894     1.015076     1.009257     1.003439     0.997620     0.991802     0.985983     0.980165
      0.974346     0.968528     0.962709     0.956891     0.951072     0.945254     0.939435     0.933617     0.927798     0.921980
      0.916161     0.910343     0.904524     0.898706     0.892887     0.887069     0.881251     0.875432     0.869614     0.863795
      0.857977     0.852158     0.846340     0.840521     0.834703     0.828884     0.823066     0.817247     0.811429     0.805610
      0.799792     0.793973     0.788155     0.782336     0.776518     0.770699     0.764881     0.759062     0.753244     0.747425
      0.741607     0.735788     0.729970     0.724151     0.718333     0.712514     0.706696     0.700877     0.695059     0.689240
      0.683422     0.677603     0.671785     0.665967     0.660148     0.654330     0.648511     0.642693     0.636874     0.631056
      0.625237     0.619419     0.613600     0.607782     0.601963     0.596145     0.590326     0.584508     0.578689     0.572871
      0.567052     0.561234     0.555415     0.549597     0.543778     0.537960     0.532141     0.526323     0.520504     0.514686
      0.508867     0.503049     0.497230     0.491412     0.485593     0.479775     0.473956     0.468138     0.462319     0.456501
      0.450682     0.444864     0.439045     0.433227     0.427408     0.421590     0.415771     0.409953     0.404134     0.398316
      0.392497     0.386679     0.380860     0.375042     0.369223     0.363405     0.357586     0.351767     0.345949     0.340130
      0.334312     0.328493     0.322675     0.316856     0.311038     0.305219     0.299401     0.293582     0.287764     0.281945
      0.276127     0.270308     0.264490     0.258671     0.252853     0.247034     0.241216     0.235397     0.229579     0.223760
      0.217942     0.212123     0.206305     0.200486
 NY phased data points follow
  -5.19591E-02 -3.13846E-01 -5.87632E-02 -2.77548E-01 -3.92954E-02 -1.67705E-01  5.57661E-02 -4.98226E-02 -1.80221E-01  2.59477E-01
   3.40859E-01  6.53353E-01  4.84856E-01  2.89823E-01  4.00275E-01  5.10701E-01  4.49543E-01  2.74150E-02 -1.05833E-01 -7.63839E-03
  -6.69458E-02 -2.40653E-01 -3.51040E-02 -1.77931E-02 -2.95270E-01 -2.11508E-01 -1.99401E-01 -1.92868E-01 -8.99217E-02 -8.59669E-02
  -5.31410E-02 -5.72140E-03 -1.02216E-01 -1.22290E-01 -2.68407E-01 -1.87400E-01 -2.45354E-01 -3.96561E-01 -8.19251E-02 -6.71620E-02
   1.71271E-01  1.32311E-01  3.17544E-01  2.06279E-01  1.19051E-01  4.30173E-01  1.05014E-01  3.45603E-01  1.84382E-01  2.22232E-01
   2.54858E-01  2.53550E-01  1.38960E-01 -2.60399E-01  5.50639E-02 -1.79367E-01 -2.43895E-01 -1.41771E-01 -5.13157E-02 -1.57488E-01
  -2.98895E-01 -3.81497E-01 -3.32941E-01 -4.52389E-02 -3.96895E-01 -1.31302E-01  1.93540E-01  2.04256E-01  3.38253E-01  2.16010E-01
   2.89045E-01  6.80568E-02 -4.16334E-02  2.02361E-01 -8.50582E-02  2.81550E-02 -9.40297E-02 -4.35931E-01 -1.31541E-01 -7.52272E-01
  -7.24828E-01  6.41199E-02  1.41024E-01  1.13290E-01  3.64217E-01  6.20285E-01  4.26523E-01  3.02960E-01  7.88328E-02  1.77075E-01
   3.19973E-01  1.02563E-01  1.31665E-01  1.05818E-01  2.31304E-01  3.67207E-01  1.31531E-01 -2.08672E-01 -4.44787E-01 -3.06235E-01
  -3.50819E-01 -4.28952E-01  1.09991E-01  1.67586E-01  1.46148E-01  2.53152E-01  4.81446E-01  6.17927E-01  1.80035E-01  2.01475E-01
   1.69779E-01  3.41949E-01  4.02794E-01  3.62637E-02  2.39305E-01  4.07249E-01  3.12364E-01  1.64099E-01  1.13643E-01  7.08129E-02
   3.56649E-02  2.36435E-01  7.48484E-02 -1.34363E-01 -9.64652E-03  7.56826E-02  1.57160E-01 -2.56609E-01 -5.14969E-01 -7.45384E-01
  -8.89043E-01 -7.13846E-01 -6.32627E-01 -3.04881E-01 -5.18539E-01 -4.55029E-01 -5.02321E-01 -6.64273E-01 -4.30924E-01 -3.41362E-01
  -8.34358E-02 -8.56921E-02  3.25954E-02 -1.23302E-01 -1.40310E-01  1.92632E-01  1.83385E-01 -5.49351E-02 -1.17126E-02 -1.23271E-02
  -6.51221E-02  4.09150E-01  1.66071E-01 -5.42104E-02  1.48768E-01  1.07607E-01  1.70895E-01  5.81730E-01  6.86927E-01  1.96200E-01
   2.30495E-01  5.10271E-01  5.64985E-01  7.16650E-01  8.64925E-01  9.40946E-01  7.58671E-01 -1.88420E-01 -9.45460E-01 -1.07878E+00
  -6.74295E-01 -4.44542E-01 -4.52957E-01 -2.83476E-01 -4.74927E-01 -2.57676E-01 -4.27777E-01 -6.07388E-01 -5.05369E-01 -3.83174E-01
  -3.09598E-01 -3.85123E-01 -2.36026E-01 -4.45620E-01 -2.04563E-01 -1.68817E-01 -2.52747E-01 -2.20008E-01 -1.85692E-01 -1.56310E-01
  -3.98991E-01 -1.94961E-01 -9.42197E-02 -3.21766E-01 -4.64867E-01 -5.18598E-02  5.91370E-02 -1.00013E-01 -7.87489E-03  3.03470E-02
   9.99128E-02 -1.77192E-01 -1.37125E-01  1.53506E-01 -2.04721E-01 -1.74256E-01  1.46786E-01 -5.62184E-02  7.37204E-02  8.75522E-02
   1.25187E-01  1.28881E-01 -1.39725E-01 -5.88366E-02 -6.88373E-03 -1.13689E-02 -6.27614E-02 -3.03199E-02 -8.78320E-02 -4.74100E-02
   4.98017E-03 -1.49020E-01 -2.17678E-03  1.67741E-01  2.86375E-01  3.55825E-01  5.41517E-01  4.60598E-01  6.04956E-02  3.53744E-01
   4.57835E-01  2.25960E-01  1.62626E-01  1.29256E-01  9.29749E-03 -2.45120E-01  6.90650E-02  4.62385E-02 -1.66588E-01 -5.53496E-02
  -6.35834E-02 -3.12599E-01 -3.28168E-01 -3.76582E-02 -2.83325E-01 -3.66409E-02  1.42612E-01 -1.68388E-01 -5.89980E-02 -5.46390E-02
  -1.42890E-01  9.99834E-02  1.20126E-02  4.00132E-02  3.81370E-01  1.33408E-01  2.26224E-01  7.81183E-02  1.16859E-01  3.42739E-01
   1.92371E-01  3.13279E-01 -1.62953E-01 -4.48553E-02  1.69859E-01 -6.71559E-02  1.34586E-01  1.79192E-01  2.53053E-01  2.24592E-01
   1.36147E-01  1.60097E-01  5.32856E-02 -9.34383E-02 -1.09778E-01 -1.22663E-01  1.13256E-01 -1.50441E-01 -4.03410E-01  1.05832E-01
  -1.72591E-01 -3.27391E-01 -1.32485E-01 -2.82652E-01 -2.07209E-01  2.55580E-01  4.50033E-01  5.30069E-01  5.28887E-01  1.34862E-01
   1.53647E-01  1.68662E-01  2.49937E-01  2.85122E-02  1.11246E-01  9.69272E-02 -5.10872E-02  2.29935E-01  1.34171E-01  4.44500E-01
   2.68072E-01  1.84416E-01  2.12796E-01  3.62481E-01  4.86110E-01  2.97632E-01  3.68097E-01  1.61488E-01  3.68579E-01  3.55077E-01
   4.52261E-01  3.59414E-01  1.91130E-01  2.85452E-01 -2.43953E-02  2.08912E-01  2.61125E-01 -2.15210E-01 -2.05421E-01 -7.63974E-02
  -2.91099E-01 -2.42762E-01 -1.04254E-01 -1.84539E-01 -3.09149E-01 -1.68453E-01  7.90110E-02  1.97168E-01  1.40536E-01 -1.76476E-03
   5.92553E-02  1.08398E-01  5.14678E-02 -3.12324E-01 -4.06725E-01 -2.72748E-01 -3.91925E-01 -3.11952E-01 -8.72602E-02 -3.78011E-01
  -4.83565E-01 -6.58384E-01 -2.07547E+00 -1.74227E+00 -5.85766E-01 -4.53946E-01 -1.06693E-01 -2.06783E-01  3.10163E-01  8.53274E-02
  -9.50765E-03  3.78812E-01  9.61075E-03  3.69216E-01  1.97761E-01  1.28337E-01  1.04351E-01  3.86425E-03 -1.10466E-01  3.27860E-02
   2.39331E-01 -8.31895E-02  3.88728E-02 -4.15368E-02  2.02061E-02 -8.80167E-03  1.59128E-01  7.13320E-03 -2.28572E-02  1.43911E-01
  -9.96470E-02  2.70981E-02  2.31424E-01  2.07235E-01 -2.20351E-01  1.27557E-01  1.72391E-01 -3.40172E-04 -1.31630E-01  1.58065E-01
   3.13422E-01 -1.31636E-01  4.17739E-01  1.23784E-01  1.69730E-01  5.77420E-01  6.91580E-02  1.95315E-03  2.39051E-01  2.01878E-01
   1.46154E-01  1.89094E-01  2.37529E-01  1.08117E-01 -3.86776E-02  2.13721E-01  9.72534E-02 -1.09642E-01 -5.00226E-03  1.96148E-01
   1.24106E-01  2.50401E-01  6.62079E-02 -2.56119E-01  2.83776E-01  6.35373E-02 -2.37032E-01 -9.06327E-02  3.75210E-04  1.81985E-01
   3.46845E-02 -1.41056E-01 -2.41365E-02 -1.09161E-01 -2.82959E-01 -1.74116E-01 -6.11532E-02  1.21893E-01 -2.23311E-01 -4.11725E-01
  -1.11321E-01 -1.52407E-01  1.31110E-02 -1.59503E-02 -1.94661E-01 -1.41577E-01 -2.40943E-01 -1.44881E-01 -7.55471E-02 -3.05169E-01
  -2.22483E-01 -1.77120E-02 -1.30033E-01 -1.30429E-01 -2.99394E-02  1.90238E-01  2.99942E-01  1.00584E-02  1.09520E-01  4.01894E-02
  -8.32262E-02  1.63010E-01 -6.02403E-03 -2.37280E-01 -3.48319E-01 -1.55405E-01  7.85305E-02  1.91623E-01  1.01371E-01  1.87502E-01
   1.97929E-01 -2.74605E-01  1.25699E-01  2.03623E-01  1.31720E-01  4.79905E-02 -3.60249E-01  2.83928E-02  9.52572E-02 -7.88660E-03
  -5.09764E-02 -1.84964E-01 -5.33108E-03  2.06585E-01  2.77101E-02  9.14269E-02  2.67576E-01 -8.07889E-02 -4.85164E-02  2.42311E-01
   3.17306E-01  2.07983E-01 -1.46150E-01 -2.83803E-01 -8.85880E-02 -1.88776E-01 -1.38552E-01  1.31241E-01  1.40077E-01 -4.68480E-02
  -1.53354E-01 -1.18715E-01  4.19104E-03 -7.03880E-02 -5.25973E-02  3.68112E-01  5.02191E-02  7.31664E-02  2.17949E-02 -1.99350E-01
   1.44396E-01 -8.55020E-02  1.49701E-01  8.29309E-02 -2.53340E-01  1.13909E-01  1.97411E-01  3.15669E-01  1.05612E-01 -8.95050E-02
   1.83279E-01  3.51593E-02  6.09062E-03 -1.15254E-01 -7.41904E-02  4.17368E-02 -2.91318E-02  1.53700E-01  2.10995E-01  7.10870E-02
   3.10531E-02  2.50702E-01 -2.91178E-02  1.86918E-01  3.34341E-01  1.02298E-01 -2.27466E-02  6.98232E-02  3.92053E-01 -1.89295E-01
  -8.25921E-02 -8.15564E-02 -3.50701E-01 -2.28783E-01 -3.80488E-01 -2.88508E-01 -3.66032E-01 -4.22082E-01 -4.92606E-01 -3.08724E-01
  -1.74567E-01 -4.40041E-01 -1.71456E-01 -2.30362E-01 -2.03960E-01  7.04489E-02 -1.28578E-01 -1.07252E-01 -2.80666E-01 -1.03529E-01
  -1.60962E-02 -6.17179E-02  3.01635E-02 -3.22220E-02 -4.25041E-02  1.22146E-01  3.10501E-01  1.50451E-01  2.31276E-01  4.49898E-02
   4.02545E-01  2.32588E-01 -8.99372E-03  3.52148E-01  1.26771E-01  1.13752E-01 -5.86069E-02  2.28531E-01  3.93736E-01  1.56532E-01
   1.88496E-01  3.33600E-01  9.76361E-02  7.71802E-02  2.16372E-01  1.18413E-01  1.89592E-01  2.01220E-01  1.40220E-01  5.49895E-02
   1.95121E-01 -3.89455E-03 -4.35439E-02 -1.33307E-01 -4.29500E-02  1.33490E-01  1.66924E-02 -1.70139E-01 -1.80760E-01  2.74347E-01
   1.96754E-01  1.73824E-01 -3.76373E-02 -7.35818E-02  1.38188E-02 -5.41172E-02  4.55462E-01  3.12091E-01  1.23410E-01  1.43682E-01
  -2.69981E-01 -5.54281E-02 -1.41360E-01  4.36908E-02  2.74666E-01 -9.93208E-02  2.22288E-01  2.73283E-01  2.18176E-01 -5.88694E-02
   1.71525E-01  4.42463E-02 -2.40949E-01  1.69258E-01 -6.83860E-02 -1.21661E-01  3.77464E-02 -1.25828E-02 -3.03258E-01 -3.82902E-02
  -5.08595E-02  1.31989E-01  1.76971E-01 -2.15836E-01 -5.45492E-02 -1.29856E-01  1.22536E-01  1.07798E-01 -6.99771E-02  5.55203E-02
   4.86576E-02  1.07984E-01  1.66978E-02 -5.20988E-02  2.68555E-01  1.07750E-01  2.15463E-01  1.03274E-01 -3.65504E-01 -2.18890E-01
   2.81612E-02  1.64798E-01  5.21045E-02  1.95613E-01  1.90174E-02  1.67423E-01  6.48319E-02  6.19361E-02  8.97990E-02 -2.16407E-02
   2.79198E-01  6.34146E-02  9.47106E-02  6.34758E-02  1.91164E-01  1.81593E-01  1.28581E-01 -2.35369E-01 -8.78069E-02  2.18973E-01
  -1.38878E-01 -8.84366E-02  2.06204E-02  1.69413E-01
 NY points of the fit to the data follow
   8.08089E-02  5.64757E-02  1.88060E-02  4.54373E-03 -2.87812E-03  3.77086E-03  1.02976E-02 -1.93190E-02  5.88125E-02  1.83065E-01
   1.83257E-01  5.55013E-01  6.52570E-01  3.97240E-01  2.41175E-01  5.23666E-01  4.98933E-01  1.40569E-01  7.34961E-02  3.03186E-02
   5.31188E-02 -6.72912E-02 -4.39025E-02 -6.49425E-02 -7.69648E-02 -9.14060E-02 -1.06866E-01 -1.10424E-01 -1.17326E-01 -1.28815E-01
  -1.30929E-01 -1.41080E-01 -1.59112E-01 -1.89572E-01 -2.29468E-01 -2.50424E-01 -2.55360E-01 -2.62990E-01 -1.65638E-01 -5.56941E-02
   1.72462E-02  8.87103E-02  1.97883E-01  2.79454E-01  3.42190E-01  3.09325E-01  3.00477E-01  2.26743E-01  1.71719E-01  1.78375E-01
   8.86001E-02  7.34445E-02  2.94905E-02  9.25487E-03 -4.21885E-02 -8.76906E-02 -1.13342E-01 -1.39726E-01 -1.71543E-01 -2.26604E-01
  -2.49007E-01 -3.43878E-01 -3.91455E-01 -1.65436E-01 -2.95502E-01 -1.41803E-01  2.58811E-01  1.53301E-01  3.33173E-01  4.33924E-01
   4.16025E-01  2.85228E-01  1.36847E-01  1.55920E-01  3.50067E-02 -2.06774E-02 -1.55646E-01 -3.02214E-01 -3.53249E-01 -6.38193E-01
  -5.56914E-01 -5.62461E-02  3.80349E-05  1.06742E-01  3.67775E-01  5.04348E-01  4.26491E-01  2.89528E-01  3.00680E-01  2.32305E-01
   1.81909E-01  1.69139E-01  1.43946E-01  1.28126E-01  9.13346E-02  2.42965E-02 -7.40730E-02 -2.47957E-01 -4.09829E-01 -5.25331E-01
  -4.98233E-01 -2.82497E-01 -5.23940E-02  1.98330E-01  3.05823E-01  3.24871E-01  3.24081E-01  2.86873E-01  2.73695E-01  2.45019E-01
   2.41696E-01  2.39055E-01  2.34251E-01  2.32059E-01  2.28346E-01  2.27906E-01  2.29008E-01  2.32088E-01  2.38161E-01  2.05346E-01
   1.85694E-01  1.66691E-01 -3.49824E-02 -1.09933E-02 -6.98352E-03 -1.97820E-01 -9.67996E-02 -1.61611E-01 -5.07495E-01 -4.74981E-01
  -7.86226E-01 -6.61271E-01 -5.30224E-01 -4.32266E-01 -4.32201E-01 -4.91148E-01 -6.39084E-01 -6.70408E-01 -2.69899E-01 -1.89439E-01
  -2.63586E-02 -6.51090E-02  8.53596E-02  5.60938E-02  6.30917E-02  7.96198E-02  9.66522E-02  1.10985E-01  1.25798E-01  1.37763E-01
   1.50125E-01  1.63085E-01  1.75955E-01  1.88884E-01  2.06632E-01  2.24789E-01  2.45517E-01  2.69771E-01  2.96603E-01  3.24899E-01
   3.62729E-01  4.16430E-01  5.45339E-01  7.54666E-01  8.01101E-01  8.14902E-01  6.96666E-01 -2.44097E-01 -1.02426E+00 -1.00290E+00
  -7.04526E-01 -5.95139E-01 -5.64995E-01 -3.85990E-01 -3.15354E-01 -2.81342E-01 -2.91128E-01 -2.63043E-01 -2.63339E-01 -2.38739E-01
  -1.99282E-01 -2.10647E-01 -1.96654E-01 -2.01676E-01 -1.93908E-01 -1.85010E-01 -1.78845E-01 -1.64542E-01 -1.64176E-01 -1.46679E-01
  -1.41713E-01 -1.28167E-01 -1.22192E-01 -1.12552E-01 -1.03308E-01 -9.59615E-02 -8.91261E-02 -8.25047E-02 -7.20033E-02 -6.15142E-02
  -5.61857E-02 -4.20447E-02 -3.66048E-02 -4.52186E-02 -4.85844E-02 -4.68985E-02 -2.91348E-02 -2.25598E-02 -4.34578E-02 -5.86227E-02
  -6.20488E-02 -5.77855E-02 -5.31549E-02 -4.88579E-02 -3.55619E-02 -2.75931E-02 -1.56855E-02 -8.09019E-03 -2.14248E-02 -2.69083E-02
  -2.80433E-02 -4.57603E-03  4.14529E-02  5.58971E-02  1.47226E-01  2.13043E-01  2.12732E-01  1.89826E-01  1.31287E-01  2.85651E-01
   4.03735E-01  2.42609E-01  7.94211E-02  4.62825E-03 -1.53104E-02 -5.84663E-02 -8.86148E-02 -6.67348E-02 -6.93711E-02 -7.31602E-02
  -8.04260E-02 -8.13856E-02 -8.89205E-02 -8.60493E-02 -9.03143E-02 -9.79609E-02 -8.75165E-02 -1.01492E-01 -7.95664E-02 -9.24954E-02
  -9.71207E-02 -7.96294E-02 -1.38221E-01 -1.08685E-01 -1.01754E-01 -1.54839E-01  7.10224E-04  5.26374E-02 -2.58399E-02  9.74440E-02
   1.04039E-01  1.62833E-01  9.10500E-02  3.10443E-02  1.53602E-01  8.06934E-02  1.32466E-01  8.51540E-02  1.22929E-01  1.40911E-01
   8.09372E-02  8.52534E-02  1.89866E-02  9.72992E-03 -3.74042E-02 -6.01141E-02 -9.18905E-02 -1.33390E-01 -1.89631E-01 -2.24102E-01
  -3.20209E-01 -3.42607E-01 -2.84446E-01 -2.65604E-01 -4.76481E-02  1.40904E-01  2.65621E-01  3.91326E-01  3.58911E-01  3.04625E-01
   2.16583E-01  1.45007E-01  1.43839E-01  9.07515E-02  1.24533E-01  1.65851E-01  1.73534E-01  2.03775E-01  1.93306E-01  1.95196E-01
   1.78090E-01  1.71905E-01  1.64945E-01  1.54734E-01  1.52625E-01  1.43218E-01  1.30408E-01  1.19153E-01  8.87674E-02  6.32791E-02
   4.98064E-02  1.14764E-02  1.81196E-02 -5.41571E-03 -9.94130E-03 -4.00734E-02 -6.75193E-02 -1.17208E-01 -1.78992E-01 -1.93974E-01
  -2.56660E-01 -2.51216E-01 -2.46287E-01 -2.15716E-01 -1.34431E-01 -6.16584E-02  3.65427E-02  7.72403E-02  1.08777E-01  9.90526E-02
   3.85548E-02  1.75004E-02 -8.98472E-02 -1.14444E-01 -2.22989E-01 -1.92292E-01 -3.48895E-01 -2.20939E-01  3.67206E-02 -2.65936E-01
  -4.56638E-01 -7.74786E-01 -2.08837E+00 -1.77815E+00 -7.34948E-01 -3.49339E-01 -1.51365E-01 -1.88157E-01  2.03215E-01  2.43604E-02
   5.49405E-03  8.94997E-03  1.89612E-02  2.60003E-02  3.29647E-02  4.14690E-02  4.90706E-02  4.29522E-02  4.40327E-02  2.53527E-02
  -3.28728E-03 -1.05382E-02 -5.14304E-02 -5.12881E-02 -6.44528E-02 -5.67636E-02 -3.41886E-02 -2.60732E-02 -8.13246E-04  2.47511E-03
   2.09284E-02  2.64992E-02  3.64318E-02  4.33232E-02  4.57404E-02  4.94046E-02  5.32142E-02  5.71822E-02  6.18173E-02  6.51373E-02
   6.72737E-02  7.02384E-02  7.31078E-02  7.71699E-02  8.06470E-02  8.12485E-02  8.37228E-02  8.30533E-02  8.73087E-02  9.08993E-02
   9.50042E-02  9.88166E-02  9.95074E-02  1.00492E-01  9.67038E-02  9.49197E-02  9.36195E-02  9.13679E-02  8.81213E-02  8.47710E-02
   7.95103E-02  7.34701E-02  6.89333E-02  6.19695E-02  5.49914E-02  4.93222E-02  4.65220E-02  4.10608E-02  3.38163E-02  3.08348E-02
   2.68133E-02  2.24459E-02  2.02709E-02  1.83090E-02  1.54736E-02  1.29179E-02  1.02104E-02  7.72111E-03  5.22029E-03  3.50809E-03
   3.22254E-03  1.36127E-03  5.84676E-04  3.12738E-03  5.05507E-03  6.89913E-03  1.05612E-02  1.63852E-02  1.92614E-02  2.50127E-02
   3.00576E-02  3.70871E-02  4.29742E-02  5.82991E-02  9.08185E-02  8.64180E-02  9.77611E-02  8.63302E-02  6.98086E-02  7.29218E-02
   7.43370E-02  9.05875E-02  9.47360E-02  1.10787E-01  1.20533E-01  1.32285E-01  1.42326E-01  1.52164E-01  1.57867E-01  1.63000E-01
   1.64050E-01  1.63605E-01  1.65076E-01  1.62182E-01  1.61364E-01  1.57737E-01  1.51444E-01  1.43145E-01  1.32224E-01  1.23365E-01
   1.14196E-01  1.06162E-01  9.69433E-02  8.97182E-02  7.96583E-02  7.37671E-02  6.85933E-02  6.14594E-02  5.65350E-02  5.08626E-02
   4.85865E-02  4.38927E-02  4.08582E-02  3.83094E-02  3.75532E-02  3.96697E-02  4.23087E-02  4.45473E-02  4.72869E-02  5.21694E-02
   5.57636E-02  6.09862E-02  6.81633E-02  7.24668E-02  7.56270E-02  7.71428E-02  8.02394E-02  8.04197E-02  8.20697E-02  8.68593E-02
   8.84507E-02  8.86301E-02  8.78291E-02  8.57374E-02  8.45222E-02  8.25624E-02  7.75568E-02  7.47385E-02  7.25322E-02  7.07824E-02
   6.74192E-02  6.38953E-02  6.19522E-02  5.91087E-02  5.50718E-02  5.14420E-02  4.85376E-02  4.45209E-02  4.39660E-02  4.29684E-02
   3.97841E-02  3.62861E-02  3.33989E-02  3.00582E-02  2.31821E-02  1.56382E-02  1.00553E-02  3.76938E-03 -4.64282E-03 -1.52546E-02
  -2.86300E-02 -4.59773E-02 -6.22011E-02 -7.57843E-02 -9.05675E-02 -1.04896E-01 -1.18019E-01 -1.29255E-01 -1.38780E-01 -1.48406E-01
  -1.55913E-01 -1.56525E-01 -1.54654E-01 -1.54527E-01 -1.53170E-01 -1.46532E-01 -1.37315E-01 -1.31898E-01 -1.27124E-01 -1.20719E-01
  -1.15661E-01 -1.11117E-01 -1.01789E-01 -9.40658E-02 -8.58407E-02 -7.65426E-02 -6.65373E-02 -5.58465E-02 -5.00934E-02 -3.90485E-02
  -3.14679E-02 -2.46038E-02 -1.57061E-02 -8.19923E-03 -2.40378E-03  2.46241E-03  7.92371E-03  1.59897E-02  2.06453E-02  2.07505E-02
   2.55073E-02  3.01934E-02  3.29693E-02  3.39987E-02  3.65896E-02  3.77240E-02  3.86146E-02  4.12663E-02  4.17918E-02  3.98883E-02
   4.18210E-02  4.58225E-02  4.64788E-02  4.85619E-02  5.18418E-02  5.30874E-02  5.14890E-02  5.22694E-02  5.32287E-02  5.15932E-02
   5.23256E-02  5.24001E-02  5.12372E-02  5.20297E-02  5.14162E-02  5.10911E-02  5.32147E-02  5.37459E-02  5.45114E-02  5.46237E-02
   5.04406E-02  4.63214E-02  4.85390E-02  5.13906E-02  5.09767E-02  4.91050E-02  4.98191E-02  5.05002E-02  4.66051E-02  4.57755E-02
   4.56204E-02  4.89909E-02  5.05565E-02  4.97587E-02  5.09643E-02  5.13629E-02  5.32922E-02  5.37228E-02  5.43001E-02  5.51950E-02
   5.59364E-02  5.69047E-02  5.35478E-02  5.14371E-02  5.31748E-02  5.38589E-02  5.49647E-02  5.58564E-02  5.63282E-02  5.82674E-02
   5.59614E-02  5.64239E-02  6.32702E-02  6.37875E-02  6.52301E-02  6.39269E-02  6.01224E-02  5.98614E-02  5.95297E-02  6.21445E-02
   6.24439E-02  6.11298E-02  6.03970E-02  6.06465E-02  6.06260E-02  6.05522E-02  6.17497E-02  5.91540E-02  6.02438E-02  6.29637E-02
   6.40707E-02  6.22638E-02  6.23948E-02  6.37023E-02  6.31509E-02  6.47316E-02  6.43830E-02  6.81448E-02  7.30977E-02  7.46305E-02
   7.62079E-02  7.53468E-02  7.75560E-02  7.77813E-02
 NY background values follow
     3.158E-02    3.157E-02    3.156E-02    3.156E-02    3.155E-02    3.154E-02    3.154E-02    3.153E-02    3.152E-02    3.151E-02
     3.151E-02    3.150E-02    3.149E-02    3.149E-02    3.148E-02    3.147E-02    3.147E-02    3.146E-02    3.145E-02    3.145E-02
     3.144E-02    3.143E-02    3.142E-02    3.142E-02    3.141E-02    3.140E-02    3.140E-02    3.139E-02    3.138E-02    3.137E-02
     3.137E-02    3.136E-02    3.135E-02    3.134E-02    3.134E-02    3.133E-02    3.132E-02    3.131E-02    3.131E-02    3.130E-02
     3.129E-02    3.128E-02    3.128E-02    3.127E-02    3.126E-02    3.125E-02    3.124E-02    3.124E-02    3.123E-02    3.122E-02
     3.121E-02    3.120E-02    3.119E-02    3.119E-02    3.118E-02    3.117E-02    3.116E-02    3.115E-02    3.114E-02    3.113E-02
     3.113E-02    3.112E-02    3.111E-02    3.110E-02    3.109E-02    3.108E-02    3.107E-02    3.106E-02    3.105E-02    3.104E-02
