 LCModel (Version 6.3-1N) Copyright: S.W. Provencher.          Ref.: Magn. Reson. Med. 30:672-679 (1993).                
 Slice_N1@14_12  02-Jun-2023 14:37:11
 27 lines in following concentration table = NCONC+1
    Conc.  %SD /Cr+PCr  Metabolite                                         
 1.56E-06  23% 2.1E-04 Mac                                                 
 3.34E-02  49%   4.484 Cr                                                  
 2.62E-02  63%   3.516 PCr                                                 
 7.04E-02  13%   9.454 Ins                                                 
 8.71E-02   8%  11.691 NAA                                                 
 5.39E-02  16%   7.235 Tau                                                 
 1.45E-02  15%   1.946 PCho                                                
    0.000 999%   0.000 GPC                                                 
 6.77E-02  15%   9.083 Glu                                                 
 1.67E-02  41%   2.241 Gln                                                 
    0.000 999%   0.000 Ala                                                 
 1.21E-02 115%   1.619 Asc                                                 
 5.04E-03 134%   0.677 Asp                                                 
 5.93E-03  63%   0.796 GABA                                                
 7.02E-03  61%   0.943 Glc                                                 
 5.05E-03  71%   0.677 GSH                                                 
 6.52E-03 125%   0.875 Lac                                                 
    0.000 999%   0.000 NAAG                                                
    0.000 999%   0.000 PE                                                  
 1.45E-02  15%   1.946 GPC+PCho                                            
 8.71E-02   8%  11.691 NAA+NAAG                                            
 8.44E-02  14%  11.324 Glu+Gln                                             
 5.96E-02  11%   8.000 Cr+PCr                                              
 8.71E-02   8%  11.691 NAA+NAAG                                            
 5.96E-02  11%   8.000 Cr+PCr                                              
 8.44E-02  14%  11.324 Glu+Gln                                             
   6 lines in following misc. output table
  FWHM = 0.029 ppm    S/N =   3                                            
  Data shift = 0.012 ppm                                                   
  Ph: -61 deg      -8.0 deg/ppm                                            
  alphaB,S = 3.1E+01,   4.8E+01                                            
   18 spline knots.   Ns = 6(1)                                            
   2 inflections.     1 extrema                                            
  654 points on ppm-axis = NY
      4.000000     3.994181     3.988363     3.982544     3.976726     3.970907     3.965088     3.959270     3.953451     3.947633
      3.941814     3.935995     3.930177     3.924358     3.918540     3.912721     3.906902     3.901084     3.895265     3.889446
      3.883628     3.877809     3.871991     3.866172     3.860353     3.854535     3.848716     3.842898     3.837079     3.831260
      3.825442     3.819623     3.813805     3.807986     3.802167     3.796349     3.790530     3.784712     3.778893     3.773074
      3.767256     3.761437     3.755619     3.749800     3.743981     3.738163     3.732344     3.726526     3.720707     3.714888
      3.709070     3.703251     3.697433     3.691614     3.685795     3.679977     3.674158     3.668339     3.662521     3.656702
      3.650884     3.645065     3.639246     3.633428     3.627609     3.621791     3.615972     3.610153     3.604335     3.598516
      3.592698     3.586879     3.581060     3.575242     3.569423     3.563605     3.557786     3.551967     3.546149     3.540330
      3.534512     3.528693     3.522874     3.517056     3.511237     3.505419     3.499600     3.493781     3.487963     3.482144
      3.476326     3.470507     3.464688     3.458870     3.453051     3.447232     3.441414     3.435595     3.429777     3.423958
      3.418139     3.412321     3.406502     3.400684     3.394865     3.389046     3.383228     3.377409     3.371591     3.365772
      3.359953     3.354135     3.348316     3.342498     3.336679     3.330860     3.325042     3.319223     3.313405     3.307586
      3.301767     3.295949     3.290130     3.284312     3.278493     3.272674     3.266856     3.261037     3.255219     3.249400
      3.243581     3.237763     3.231944     3.226125     3.220307     3.214488     3.208670     3.202851     3.197032     3.191214
      3.185395     3.179577     3.173758     3.167939     3.162121     3.156302     3.150484     3.144665     3.138846     3.133028
      3.127209     3.121391     3.115572     3.109753     3.103935     3.098116     3.092298     3.086479     3.080660     3.074842
      3.069023     3.063205     3.057386     3.051567     3.045749     3.039930     3.034111     3.028293     3.022474     3.016656
      3.010837     3.005018     2.999200     2.993381     2.987563     2.981744     2.975925     2.970107     2.964288     2.958470
      2.952651     2.946832     2.941014     2.935195     2.929377     2.923558     2.917739     2.911921     2.906102     2.900284
      2.894465     2.888646     2.882828     2.877009     2.871191     2.865372     2.859553     2.853735     2.847916     2.842098
      2.836279     2.830460     2.824642     2.818823     2.813004     2.807186     2.801367     2.795549     2.789730     2.783911
      2.778093     2.772274     2.766456     2.760637     2.754818     2.749000     2.743181     2.737363     2.731544     2.725725
      2.719907     2.714088     2.708270     2.702451     2.696632     2.690814     2.684995     2.679177     2.673358     2.667539
      2.661721     2.655902     2.650084     2.644265     2.638446     2.632628     2.626809     2.620991     2.615172     2.609353
      2.603535     2.597716     2.591897     2.586079     2.580260     2.574442     2.568623     2.562804     2.556986     2.551167
      2.545349     2.539530     2.533711     2.527893     2.522074     2.516256     2.510437     2.504618     2.498800     2.492981
      2.487163     2.481344     2.475525     2.469707     2.463888     2.458070     2.452251     2.446432     2.440614     2.434795
      2.428977     2.423158     2.417339     2.411521     2.405702     2.399884     2.394065     2.388246     2.382428     2.376609
      2.370790     2.364972     2.359153     2.353335     2.347516     2.341697     2.335879     2.330060     2.324242     2.318423
      2.312604     2.306786     2.300967     2.295149     2.289330     2.283511     2.277693     2.271874     2.266056     2.260237
      2.254418     2.248600     2.242781     2.236963     2.231144     2.225325     2.219507     2.213688     2.207870     2.202051
      2.196232     2.190414     2.184595     2.178777     2.172958     2.167139     2.161321     2.155502     2.149683     2.143865
      2.138046     2.132228     2.126409     2.120590     2.114772     2.108953     2.103135     2.097316     2.091497     2.085679
      2.079860     2.074042     2.068223     2.062404     2.056586     2.050767     2.044949     2.039130     2.033311     2.027493
      2.021674     2.015856     2.010037     2.004218     1.998400     1.992581     1.986763     1.980944     1.975126     1.969307
      1.963489     1.957670     1.951852     1.946033     1.940215     1.934397     1.928578     1.922760     1.916941     1.911123
      1.905304     1.899486     1.893667     1.887849     1.882030     1.876212     1.870393     1.864575     1.858756     1.852938
      1.847119     1.841301     1.835482     1.829664     1.823845     1.818027     1.812208     1.806390     1.800571     1.794753
      1.788934     1.783116     1.777297     1.771479     1.765660     1.759842     1.754023     1.748205     1.742386     1.736568
      1.730749     1.724931     1.719113     1.713294     1.707476     1.701657     1.695839     1.690020     1.684202     1.678383
      1.672565     1.666746     1.660928     1.655109     1.649291     1.643472     1.637654     1.631835     1.626017     1.620198
      1.614380     1.608561     1.602743     1.596924     1.591106     1.585287     1.579469     1.573650     1.567832     1.562013
      1.556195     1.550376     1.544558     1.538739     1.532921     1.527102     1.521284     1.515465     1.509647     1.503829
      1.498010     1.492192     1.486373     1.480555     1.474736     1.468918     1.463099     1.457281     1.451462     1.445644
      1.439825     1.434007     1.428188     1.422370     1.416551     1.410733     1.404914     1.399096     1.393277     1.387459
      1.381640     1.375822     1.370003     1.364185     1.358366     1.352548     1.346729     1.340911     1.335092     1.329274
      1.323455     1.317637     1.311818     1.306000     1.300182     1.294363     1.288545     1.282726     1.276908     1.271089
      1.265271     1.259452     1.253634     1.247815     1.241997     1.236178     1.230360     1.224541     1.218723     1.212904
      1.207086     1.201267     1.195449     1.189630     1.183812     1.177993     1.172175     1.166356     1.160538     1.154719
      1.148901     1.143082     1.137264     1.131445     1.125627     1.119808     1.113990     1.108171     1.102353     1.096534
      1.090716     1.084898     1.079079     1.073261     1.067442     1.061624     1.055805     1.049987     1.044168     1.038350
      1.032531     1.026713     1.020894     1.015076     1.009257     1.003439     0.997620     0.991802     0.985983     0.980165
      0.974346     0.968528     0.962709     0.956891     0.951072     0.945254     0.939435     0.933617     0.927798     0.921980
      0.916161     0.910343     0.904524     0.898706     0.892887     0.887069     0.881251     0.875432     0.869614     0.863795
      0.857977     0.852158     0.846340     0.840521     0.834703     0.828884     0.823066     0.817247     0.811429     0.805610
      0.799792     0.793973     0.788155     0.782336     0.776518     0.770699     0.764881     0.759062     0.753244     0.747425
      0.741607     0.735788     0.729970     0.724151     0.718333     0.712514     0.706696     0.700877     0.695059     0.689240
      0.683422     0.677603     0.671785     0.665967     0.660148     0.654330     0.648511     0.642693     0.636874     0.631056
      0.625237     0.619419     0.613600     0.607782     0.601963     0.596145     0.590326     0.584508     0.578689     0.572871
      0.567052     0.561234     0.555415     0.549597     0.543778     0.537960     0.532141     0.526323     0.520504     0.514686
      0.508867     0.503049     0.497230     0.491412     0.485593     0.479775     0.473956     0.468138     0.462319     0.456501
      0.450682     0.444864     0.439045     0.433227     0.427408     0.421590     0.415771     0.409953     0.404134     0.398316
      0.392497     0.386679     0.380860     0.375042     0.369223     0.363405     0.357586     0.351767     0.345949     0.340130
      0.334312     0.328493     0.322675     0.316856     0.311038     0.305219     0.299401     0.293582     0.287764     0.281945
      0.276127     0.270308     0.264490     0.258671     0.252853     0.247034     0.241216     0.235397     0.229579     0.223760
      0.217942     0.212123     0.206305     0.200486
 NY phased data points follow
   8.93600E-02  1.94601E-01 -2.89894E-01  3.32309E-01 -9.23604E-02 -2.84499E-01  1.52826E-03 -3.19439E-01 -1.87245E-01 -3.55434E-01
  -5.87929E-02 -1.30208E-03  5.10546E-01  1.43885E-01  5.17983E-02  2.23358E-01  3.63759E-02  3.03490E-01 -1.03329E-01 -8.44961E-03
  -1.98251E-01  1.40422E-01  4.20321E-02 -9.78865E-02  1.11598E-01 -9.75514E-02  1.21029E-01 -3.50515E-01  1.39946E-01  1.05376E-01
  -2.65553E-01  2.32251E-01 -2.34731E-01 -8.32216E-02  9.10185E-02 -1.28931E-01  2.01250E-01  6.14459E-02 -1.43660E-01  1.16332E-01
   2.52898E-02 -2.48098E-01 -8.91357E-04  1.96880E-01  1.98086E-02  2.17559E-01  3.25008E-01  1.74929E-01  3.87586E-01  1.06177E-01
   5.70451E-02  1.07452E-01 -3.40974E-01 -5.86845E-02 -4.07391E-03  2.26567E-02 -2.03904E-02 -2.63471E-01 -6.09006E-02 -4.89108E-01
  -2.02452E-01  2.24580E-01 -3.87455E-01 -4.23817E-01 -4.64422E-01 -1.51203E-01  2.53282E-01  1.02436E-01  2.31275E-01  1.18697E-01
   3.33236E-01  2.20563E-01 -6.21950E-03  2.95601E-01 -8.88238E-02 -3.90413E-02  1.13916E-01 -3.11416E-02 -1.39732E-01 -5.37534E-01
  -1.61845E-01 -1.58697E-01 -2.48586E-01  4.88522E-01  3.05923E-01  2.24182E-01  2.73573E-01  1.58060E-01  2.55984E-01 -1.61351E-02
   1.15140E-01  3.48634E-01  5.48864E-02 -2.73120E-01  1.67087E-01 -1.51302E-02 -1.17329E-01  5.39785E-02 -3.11927E-01 -4.04845E-02
  -4.34125E-01 -1.06599E-01 -6.62708E-02 -1.43396E-02  5.84424E-01 -1.73960E-01  1.45716E-01  2.69954E-01  2.04282E-01  4.05358E-01
   1.87546E-01  2.09646E-03  3.37753E-01  7.66291E-01  3.64193E-01  3.37458E-01 -1.56568E-02  1.03846E-01  4.46014E-01  2.18025E-01
  -3.89805E-03  1.45107E-01  4.22081E-02 -2.67106E-01  2.00081E-02 -3.93605E-01 -1.40894E-01 -1.60994E-01 -3.84735E-01 -2.01238E-01
  -2.57150E-01 -2.77796E-01 -6.21126E-01 -2.86808E-01 -6.64149E-01 -7.25050E-01 -6.35867E-01 -9.07612E-01 -4.85796E-01 -5.65146E-01
  -2.28986E-01 -4.38305E-02 -1.15084E-01  3.17131E-02  1.89618E-01  1.55812E-01  7.89127E-02  5.82950E-01  1.13012E-01 -6.70398E-02
   3.30616E-01  8.45694E-02  3.41364E-01  4.41228E-01  2.84885E-01  4.01389E-01  2.45918E-01  1.63966E-01  2.81036E-01  1.71805E-01
   4.74810E-01  4.02284E-01  5.19160E-01  6.64837E-01  4.12343E-01  9.16086E-01  8.30575E-01  3.68808E-01 -4.94043E-01 -7.08094E-01
  -5.42026E-01 -7.34361E-01 -5.89595E-01 -3.05722E-01 -1.58720E-01 -3.16384E-01 -2.30267E-01 -5.51061E-01 -1.46711E-01 -2.74787E-01
  -5.10563E-01 -2.34706E-01 -4.73314E-01 -3.48007E-01 -2.23229E-01  1.88738E-02 -2.16146E-01 -3.47846E-01 -3.78442E-01 -2.64094E-01
  -3.23468E-01 -1.87977E-01  8.20630E-02 -2.29130E-01 -5.34417E-01 -1.93305E-01  2.93981E-01 -3.61590E-01 -1.08372E-01  2.47565E-02
  -2.28375E-01  6.18168E-02  1.81372E-01  2.34930E-01 -1.96417E-02 -1.20327E-01 -9.27719E-02 -1.27986E-01 -3.25043E-01 -2.73894E-02
   5.12336E-02 -1.63896E-01  8.08602E-02  8.96613E-02 -1.75270E-01 -1.97491E-01 -2.04058E-01 -1.56339E-01  1.18991E-01  1.32372E-01
   1.27632E-02 -8.09274E-03 -1.30866E-02  7.57961E-02  1.28849E-01 -6.45989E-02  3.32711E-01  5.60822E-01  2.58452E-01  4.44109E-02
   1.74288E-01  4.26365E-01  8.27813E-02  4.24928E-02  1.74421E-01  3.00888E-02 -1.16455E-01  3.40968E-02  6.93886E-02  1.84951E-02
   8.51434E-04 -1.55640E-01 -3.76295E-01 -4.71843E-01 -9.98984E-02 -1.02030E-01 -1.44974E-01 -7.71080E-02 -1.73514E-01 -2.01336E-01
  -6.28561E-02 -1.31585E-01 -5.04838E-01 -1.06858E-01  7.01718E-02 -1.30637E-01 -5.69409E-02 -4.61360E-01 -1.07073E-03  2.74113E-01
   5.83605E-02  3.03269E-01 -2.88583E-02  1.86483E-01  9.29128E-02  1.59200E-01  3.74597E-01  9.42982E-02  2.41102E-01  3.67723E-01
   6.91955E-03 -1.38830E-01  5.17837E-01  9.09896E-02  9.65091E-02 -4.96948E-03 -1.03838E-01  1.37392E-02 -4.10583E-01  6.02673E-02
  -1.32064E-01 -9.94620E-02 -2.73959E-01 -2.59447E-01 -3.80348E-02  7.96335E-02  3.37851E-01  2.34265E-01  5.43261E-01  4.62992E-01
   3.99181E-01  2.31511E-01  3.88011E-01  1.54830E-01  1.48420E-01  4.10565E-01  1.30215E-01  2.34499E-01  1.85417E-01  4.70761E-01
   3.46231E-02  1.17220E-01  4.65018E-01  2.90118E-02  4.01935E-01  1.92846E-01  3.05573E-01  5.30602E-01  1.82273E-01  5.07561E-01
   1.89746E-01  2.35358E-01  4.52011E-01  3.30466E-01  2.63910E-01 -1.92769E-01 -1.71281E-02 -4.26654E-02 -1.49414E-02  1.86874E-02
  -1.10067E-01 -2.10959E-01 -1.63950E-01 -1.14070E-01 -2.01872E-01 -1.12935E-01 -2.95819E-01 -1.56291E-01 -7.82295E-02  2.32499E-01
   9.35580E-02  8.77658E-02  1.36320E-01 -7.34699E-03  1.86641E-01 -3.03101E-01 -2.46736E-01 -4.54613E-01 -6.45515E-01 -4.69525E-01
  -3.55521E-01 -3.54028E-01 -1.12025E+00 -1.80611E+00 -1.35920E+00 -3.16043E-01 -3.68901E-01 -3.56233E-01  7.17019E-03 -1.65580E-01
   8.06239E-02  9.23407E-02  4.80799E-02  2.75017E-01  1.16709E-01 -5.85563E-02 -2.33914E-01  3.09611E-01  2.76981E-01  1.57159E-01
   1.94503E-01 -8.77534E-02  1.28513E-01  7.08415E-02  3.09955E-01  1.93931E-02  1.36180E-01  5.63263E-02 -2.34826E-02  3.15791E-01
   1.25373E-01  4.17104E-01  8.46937E-02  4.90160E-02  4.90742E-01  2.15855E-01 -1.47218E-01  1.94205E-01  3.98521E-03 -1.47073E-02
   1.55045E-01  6.83313E-03  1.74907E-01  1.08652E-01 -2.68203E-02 -2.72352E-01  1.08797E-01 -7.28859E-02 -7.27161E-02  2.29651E-02
   7.61969E-02  2.96107E-01 -2.57469E-01  1.85501E-01  3.77012E-01  1.73726E-01  6.40370E-02 -1.75310E-02  4.11715E-02 -1.52906E-01
   1.82011E-01  6.74399E-02 -3.07761E-01 -1.08028E-01  1.05252E-01  1.01202E-01 -2.25054E-01 -4.12631E-02  4.46618E-02 -1.60738E-01
  -1.26205E-01 -1.35888E-01  2.69688E-02  3.36774E-02  1.65795E-01 -6.85550E-02 -2.93401E-01 -1.63486E-01  5.37757E-02  1.74021E-02
  -3.45918E-01 -2.01952E-01  7.68405E-02  2.35070E-01 -1.92552E-01 -1.79400E-01 -3.77318E-02 -2.53427E-01 -8.94262E-02 -1.52621E-01
  -2.35570E-01 -1.89780E-01 -1.63679E-01 -3.48693E-01 -1.21244E-01 -6.05568E-02 -2.79431E-01  2.07910E-01  1.41300E-01 -3.42672E-01
  -1.44776E-01  1.30901E-02 -7.81043E-02  5.32227E-02 -7.83916E-02  1.43637E-01  3.85344E-01  1.50220E-01  2.54793E-01  1.46517E-01
   4.44057E-01  5.16410E-01  2.88234E-01  3.80897E-01  2.37706E-01  1.41510E-01  5.96758E-03  6.98326E-02 -2.15999E-01 -2.20313E-01
   1.63566E-01  2.71044E-01  2.66462E-01  3.84312E-01  2.26291E-01 -4.32963E-02  4.81317E-02 -4.87646E-02  9.48769E-02 -1.39983E-01
  -8.57605E-02  2.87222E-02 -1.12716E-01 -1.39483E-01  1.09949E-02  4.72751E-02 -3.36986E-01 -1.02329E-01  5.99833E-03  2.96807E-01
  -1.16915E-01 -4.02128E-02  5.88717E-01  1.70501E-02 -5.80433E-02  4.87857E-02 -1.72376E-01 -3.00948E-01 -2.82746E-02  2.02538E-01
   1.17790E-01 -2.11863E-01 -1.83672E-02 -2.43449E-02 -2.24387E-01 -9.62027E-02 -2.39498E-01 -3.63686E-02 -2.42067E-01 -2.25362E-01
  -1.39446E-01  1.16030E-01  1.43811E-01 -9.40577E-02  2.68150E-01  4.81433E-02  2.21575E-01  9.12989E-02  2.44011E-01  1.99487E-01
  -3.67988E-02  6.61800E-01  2.06215E-01  1.82678E-01  6.88789E-02  1.39937E-01  2.51743E-01 -2.18936E-01  3.19098E-01  2.59268E-01
   2.35849E-01  4.43818E-02 -2.27093E-01 -1.37050E-01 -2.92905E-01 -1.94900E-01 -1.32955E-01 -7.09672E-02 -4.77219E-01 -6.72608E-01
  -4.33832E-01 -4.38683E-01 -3.97043E-01 -3.04324E-01 -2.30556E-02  9.05449E-02  6.75623E-02  2.47032E-02 -5.24845E-02  8.91583E-02
  -1.64751E-01 -4.15147E-02 -4.40063E-03 -2.91086E-01 -5.10231E-02 -1.45468E-01  8.70742E-02  2.79830E-01 -4.42526E-02 -3.97798E-02
   3.46656E-01  4.11593E-01  1.68961E-01  1.82046E-01  2.55392E-01  1.29173E-01 -1.51595E-01  1.34016E-01  1.87793E-01  1.01870E-02
   2.31286E-01  1.04476E-01 -1.21491E-01  4.17164E-02  2.97362E-01 -6.03163E-02 -8.01765E-02  1.65244E-01 -2.22483E-01  1.21945E-02
   1.86019E-01  1.70759E-01  9.09813E-02 -3.28017E-01  8.40930E-02 -1.28940E-01 -3.35984E-01  2.42729E-01  2.67909E-02 -5.12064E-02
  -2.33377E-01 -2.50629E-01 -5.77157E-02 -7.47188E-02  3.45819E-01 -2.72547E-01 -2.38888E-01  2.57287E-01 -1.39181E-01  9.18681E-02
   8.22945E-02 -1.09780E-01 -5.88242E-02  2.69848E-02  3.14191E-02  4.05433E-01  1.75122E-02 -7.12685E-02  3.12621E-01 -1.96717E-01
   7.22931E-02 -3.51339E-02 -1.06425E-01  3.15110E-02 -1.15978E-02  8.60947E-02  1.10375E-01  1.83446E-01  3.36070E-01  1.64411E-01
  -2.77087E-01 -2.02303E-02 -2.90315E-02 -6.31681E-02 -5.71697E-02 -1.30117E-01 -3.99241E-01 -1.94399E-01  4.28584E-01  2.58439E-01
   2.21025E-01  3.26564E-01  3.10556E-01 -1.10962E-01 -7.35038E-02  3.54584E-01  2.50933E-01  5.90037E-01  3.41728E-01  7.29567E-02
   2.67359E-01 -2.24959E-01  8.15460E-02 -8.63273E-02 -3.99465E-01 -3.46677E-02 -5.47132E-02 -3.58001E-02  6.62668E-03  3.47376E-01
   5.67856E-02 -8.51320E-02  1.87796E-02 -1.84672E-01  5.16115E-02 -3.25775E-02 -9.14459E-02  2.32814E-01 -5.03483E-02  9.13421E-03
   2.77140E-01  2.31578E-01 -5.03545E-02 -2.53060E-01
 NY points of the fit to the data follow
   3.73726E-02  3.45220E-02  2.81041E-02  2.09605E-02  1.57514E-02  1.43992E-02  2.13387E-02  3.85019E-02  6.05965E-02  9.73257E-02
   1.55193E-01  2.31132E-01  3.10556E-01  3.77148E-01  4.15360E-01  4.13422E-01  3.63458E-01  2.73819E-01  1.74582E-01  9.13853E-02
   3.21200E-02 -4.00338E-03 -2.51967E-02 -4.20574E-02 -5.77595E-02 -7.16823E-02 -8.29905E-02 -9.17258E-02 -9.86819E-02 -1.04991E-01
  -1.11552E-01 -1.19234E-01 -1.28901E-01 -1.41503E-01 -1.53815E-01 -1.65459E-01 -1.72102E-01 -1.70148E-01 -1.50875E-01 -1.12786E-01
  -5.85803E-02  3.00250E-03  6.53294E-02  1.25470E-01  1.79040E-01  2.16887E-01  2.29764E-01  2.14792E-01  1.78480E-01  1.33195E-01
   8.86794E-02  4.84922E-02  1.21880E-02 -2.29153E-02 -5.98631E-02 -9.92913E-02 -1.41849E-01 -1.82405E-01 -2.20229E-01 -2.58196E-01
  -2.76387E-01 -2.66481E-01 -2.36356E-01 -1.88355E-01 -1.22190E-01 -3.65421E-02  6.20521E-02  1.56491E-01  2.32023E-01  2.85934E-01
   3.04538E-01  2.78568E-01  2.23591E-01  1.51885E-01  6.77309E-02 -1.06601E-02 -8.21258E-02 -1.58347E-01 -2.31018E-01 -2.72168E-01
  -2.53695E-01 -1.71540E-01 -4.80562E-02  8.68436E-02  2.09579E-01  2.96512E-01  3.33590E-01  3.30000E-01  3.02602E-01  2.64602E-01
   2.27449E-01  1.93963E-01  1.57422E-01  1.17805E-01  6.66167E-02  9.81379E-03 -5.79256E-02 -1.29300E-01 -1.95040E-01 -2.32413E-01
  -2.22069E-01 -1.54854E-01 -4.58888E-02  7.24397E-02  1.70352E-01  2.31422E-01  2.57208E-01  2.62057E-01  2.58380E-01  2.52846E-01
   2.48783E-01  2.45084E-01  2.41241E-01  2.37221E-01  2.33276E-01  2.29423E-01  2.23665E-01  2.14519E-01  2.03272E-01  1.82677E-01
   1.51919E-01  1.12178E-01  5.98101E-02 -1.67612E-03 -6.74566E-02 -1.26738E-01 -1.77855E-01 -2.26872E-01 -2.82213E-01 -3.35222E-01
  -3.96199E-01 -4.34310E-01 -4.31653E-01 -4.17444E-01 -4.62718E-01 -5.81970E-01 -7.02358E-01 -7.19748E-01 -6.07369E-01 -4.29624E-01
  -2.54963E-01 -1.23085E-01 -4.63483E-02 -4.24876E-03  2.66493E-02  5.15764E-02  7.26166E-02  9.08980E-02  1.07107E-01  1.21865E-01
   1.35705E-01  1.49202E-01  1.62837E-01  1.77032E-01  1.92275E-01  2.09215E-01  2.28531E-01  2.51000E-01  2.77862E-01  3.11864E-01
   3.58911E-01  4.27029E-01  4.67184E-01  4.85504E-01  5.00419E-01  4.95874E-01  3.83508E-01  1.10039E-01 -2.61421E-01 -5.69017E-01
  -7.03127E-01 -6.85038E-01 -5.87216E-01 -4.76137E-01 -3.97903E-01 -3.51172E-01 -3.14640E-01 -2.84834E-01 -2.61201E-01 -2.42287E-01
  -2.25699E-01 -2.10390E-01 -1.96304E-01 -1.84256E-01 -1.74366E-01 -1.66060E-01 -1.58295E-01 -1.50400E-01 -1.42479E-01 -1.34830E-01
  -1.27406E-01 -1.19987E-01 -1.12557E-01 -1.05174E-01 -9.79977E-02 -9.11321E-02 -8.44125E-02 -7.78407E-02 -7.16383E-02 -6.58408E-02
  -6.01714E-02 -5.44868E-02 -4.97012E-02 -4.70289E-02 -4.62320E-02 -4.56042E-02 -4.40571E-02 -4.24198E-02 -4.24052E-02 -4.44398E-02
  -4.71871E-02 -4.89180E-02 -4.89026E-02 -4.74111E-02 -4.52890E-02 -4.33848E-02 -4.19074E-02 -4.05243E-02 -3.80866E-02 -2.96360E-02
  -1.44677E-02  4.47459E-03  2.84462E-02  6.58432E-02  1.22126E-01  1.82916E-01  2.20226E-01  2.27729E-01  2.27335E-01  2.38948E-01
   2.53357E-01  2.44351E-01  1.97763E-01  1.26554E-01  5.56537E-02  1.75438E-03 -3.05632E-02 -4.69238E-02 -5.67735E-02 -6.48112E-02
  -7.19334E-02 -7.81907E-02 -8.35124E-02 -8.79289E-02 -9.17825E-02 -9.56194E-02 -9.98063E-02 -1.04618E-01 -1.10537E-01 -1.18235E-01
  -1.28802E-01 -1.36084E-01 -1.43035E-01 -1.51459E-01 -1.51636E-01 -1.32674E-01 -9.29246E-02 -4.56500E-02  8.56008E-04  4.48172E-02
   8.62389E-02  1.16742E-01  1.31081E-01  1.38113E-01  1.41217E-01  1.39886E-01  1.33954E-01  1.26183E-01  1.17586E-01  1.07686E-01
   9.45804E-02  7.58858E-02  5.08674E-02  2.13089E-02 -1.05974E-02 -4.37596E-02 -8.01914E-02 -1.18725E-01 -1.59258E-01 -2.00144E-01
  -2.36472E-01 -2.63193E-01 -2.66924E-01 -2.33585E-01 -1.56228E-01 -4.20365E-02  8.81611E-02  2.06387E-01  2.88337E-01  3.25136E-01
   3.20641E-01  2.92192E-01  2.58549E-01  2.31088E-01  2.14461E-01  2.07824E-01  2.06269E-01  2.05589E-01  2.03414E-01  1.99011E-01
   1.92847E-01  1.86099E-01  1.79586E-01  1.73525E-01  1.67912E-01  1.62338E-01  1.56398E-01  1.49708E-01  1.41692E-01  1.31876E-01
   1.19601E-01  1.04329E-01  8.47942E-02  6.11356E-02  3.25985E-02 -7.44154E-04 -3.97647E-02 -8.24800E-02 -1.26177E-01 -1.65773E-01
  -1.97337E-01 -2.16472E-01 -2.21236E-01 -2.11021E-01 -1.87222E-01 -1.52128E-01 -1.07808E-01 -6.01337E-02 -1.69695E-02  1.34041E-02
   2.41461E-02  1.59278E-02 -7.50084E-03 -3.59583E-02 -6.22297E-02 -8.13699E-02 -1.25031E-01 -2.03704E-01 -2.93354E-01 -4.06610E-01
  -6.00806E-01 -8.93709E-01 -1.18301E+00 -1.30236E+00 -1.17284E+00 -8.77966E-01 -5.60040E-01 -3.11487E-01 -1.63918E-01 -9.57441E-02
  -6.11845E-02 -3.69438E-02 -1.94714E-02 -6.49179E-03  3.06924E-03  1.01257E-02  1.49309E-02  1.72818E-02  1.73163E-02  1.50918E-02
   1.13393E-02  6.79656E-03  2.59385E-03 -3.60010E-04 -1.00861E-03  1.05182E-03  5.51243E-03  1.16105E-02  1.82652E-02  2.46208E-02
   3.04016E-02  3.55433E-02  4.01572E-02  4.42411E-02  4.77175E-02  5.06717E-02  5.34191E-02  5.61037E-02  5.87607E-02  6.12780E-02
   6.35499E-02  6.56234E-02  6.76403E-02  6.97136E-02  7.16942E-02  7.34713E-02  7.49621E-02  7.63685E-02  7.79243E-02  7.97447E-02
   8.16893E-02  8.34638E-02  8.46526E-02  8.49357E-02  8.42640E-02  8.28770E-02  8.10814E-02  7.90492E-02  7.66362E-02  7.36865E-02
   7.01658E-02  6.61736E-02  6.17563E-02  5.70311E-02  5.22436E-02  4.76346E-02  4.33273E-02  3.92250E-02  3.52519E-02  3.14503E-02
   2.79270E-02  2.47325E-02  2.19002E-02  1.93592E-02  1.70142E-02  1.47972E-02  1.26680E-02  1.06786E-02  8.95873E-03  7.53571E-03
   6.39552E-03  5.58913E-03  5.25739E-03  5.52458E-03  6.47211E-03  8.00725E-03  1.00133E-02  1.24350E-02  1.52085E-02  1.81821E-02
   2.10304E-02  2.34908E-02  2.57221E-02  2.82797E-02  3.16338E-02  3.58822E-02  4.07251E-02  4.58316E-02  5.11109E-02  5.67392E-02
   6.29650E-02  6.98363E-02  7.71593E-02  8.46651E-02  9.21296E-02  9.93843E-02  1.06233E-01  1.12370E-01  1.17342E-01  1.20884E-01
   1.22897E-01  1.23463E-01  1.22691E-01  1.20697E-01  1.17664E-01  1.15422E-01  1.13001E-01  1.11734E-01  1.12252E-01  1.17266E-01
   1.27895E-01  1.41965E-01  1.52741E-01  1.53971E-01  1.43690E-01  1.24985E-01  1.04443E-01  8.69983E-02  7.39040E-02  6.48328E-02
   5.85292E-02  5.35269E-02  4.95420E-02  4.65619E-02  4.46797E-02  4.39259E-02  4.41790E-02  4.52447E-02  4.69293E-02  4.91088E-02
   5.16941E-02  5.46343E-02  5.77561E-02  6.07955E-02  6.35395E-02  6.58170E-02  6.75854E-02  6.90091E-02  7.03314E-02  7.17122E-02
   7.28934E-02  7.34957E-02  7.33532E-02  7.25648E-02  7.12623E-02  6.95161E-02  6.74256E-02  6.51409E-02  6.28639E-02  6.06343E-02
   5.83526E-02  5.59553E-02  5.34724E-02  5.09576E-02  4.83951E-02  4.57400E-02  4.30688E-02  4.05761E-02  3.83403E-02  3.62087E-02
   3.39322E-02  3.13486E-02  2.83539E-02  2.47962E-02  2.05428E-02  1.56268E-02  1.00940E-02  3.98355E-03 -2.91188E-03 -1.09195E-02
  -2.02821E-02 -3.08160E-02 -4.20644E-02 -5.35276E-02 -6.48807E-02 -7.58198E-02 -8.59875E-02 -9.52035E-02 -1.03454E-01 -1.10518E-01
  -1.15938E-01 -1.19414E-01 -1.21024E-01 -1.21093E-01 -1.19826E-01 -1.17317E-01 -1.13744E-01 -1.09468E-01 -1.04924E-01 -1.00355E-01
  -9.57324E-02 -9.08042E-02 -8.53584E-02 -7.93543E-02 -7.28392E-02 -6.59591E-02 -5.88209E-02 -5.16078E-02 -4.44956E-02 -3.76367E-02
  -3.10498E-02 -2.46387E-02 -1.83622E-02 -1.24851E-02 -7.17621E-03 -2.24778E-03  2.48169E-03  6.95234E-03  1.09456E-02  1.43753E-02
   1.73839E-02  2.01466E-02  2.26452E-02  2.47708E-02  2.65253E-02  2.79955E-02  2.92616E-02  3.03556E-02  3.12828E-02  3.21711E-02
   3.31740E-02  3.43569E-02  3.57150E-02  3.71160E-02  3.83794E-02  3.93328E-02  3.98955E-02  4.01569E-02  4.02588E-02  4.02623E-02
   4.02157E-02  4.01470E-02  4.00707E-02  4.00694E-02  4.01339E-02  4.01450E-02  4.01973E-02  4.04342E-02  4.06243E-02  4.03582E-02
   3.95321E-02  3.85645E-02  3.79062E-02  3.76386E-02  3.75658E-02  3.75657E-02  3.75394E-02  3.72897E-02  3.68022E-02  3.63220E-02
   3.61785E-02  3.64580E-02  3.69894E-02  3.75589E-02  3.81253E-02  3.87094E-02  3.93310E-02  3.98590E-02  4.02969E-02  4.06585E-02
   4.09138E-02  4.09173E-02  4.06376E-02  4.02587E-02  4.00575E-02  4.01527E-02  4.05684E-02  4.12488E-02  4.19830E-02  4.25987E-02
   4.30901E-02  4.36620E-02  4.45066E-02  4.55474E-02  4.64199E-02  4.67392E-02  4.64533E-02  4.59072E-02  4.55728E-02  4.56038E-02
   4.57796E-02  4.57828E-02  4.55081E-02  4.52067E-02  4.51103E-02  4.51487E-02  4.51549E-02  4.51390E-02  4.52673E-02  4.56531E-02
   4.60963E-02  4.64079E-02  4.66686E-02  4.70207E-02  4.74598E-02  4.80479E-02  4.89252E-02  5.02397E-02  5.19074E-02  5.37169E-02
   5.53372E-02  5.66395E-02  5.76997E-02  5.87409E-02
 NY background values follow
     4.498E-02    4.488E-02    4.478E-02    4.468E-02    4.458E-02    4.448E-02    4.438E-02    4.428E-02    4.418E-02    4.408E-02
     4.398E-02    4.388E-02    4.378E-02    4.368E-02    4.358E-02    4.348E-02    4.338E-02    4.328E-02    4.318E-02    4.308E-02
     4.298E-02    4.287E-02    4.277E-02    4.267E-02    4.257E-02    4.247E-02    4.237E-02    4.227E-02    4.217E-02    4.207E-02
     4.197E-02    4.187E-02    4.177E-02    4.167E-02    4.156E-02    4.146E-02    4.136E-02    4.126E-02    4.116E-02    4.106E-02
     4.096E-02    4.086E-02    4.076E-02    4.066E-02    4.055E-02    4.045E-02    4.035E-02    4.025E-02    4.015E-02    4.005E-02
     3.995E-02    3.985E-02    3.974E-02    3.964E-02    3.954E-02    3.944E-02    3.934E-02    3.924E-02    3.914E-02    3.903E-02
     3.893E-02    3.883E-02    3.873E-02    3.863E-02    3.853E-02    3.842E-02    3.832E-02    3.822E-02    3.812E-02    3.802E-02
