 
 $NMID
 ID=''
 FMTDAT='(2E13.5)'
 TRAMP=   1.00000E+0
 VOLUME=   1.00000E+0
 $END
  -2.34941E+3   1.74509E+4
  -1.74867E+4   4.12806E+4
  -8.52770E+3   4.38835E+4
  -6.27550E+3   4.04510E+4
  -6.60434E+3   4.18371E+4
  -3.23580E+3   4.23929E+4
  -1.84541E+3   4.05617E+4
  -1.55581E+3   4.09312E+4
   9.73127E+2   4.12207E+4
   2.44650E+3   3.98916E+4
   3.19168E+3   3.98427E+4
   5.31156E+3   3.97950E+4
   6.84803E+3   3.87480E+4
   7.54909E+3   3.86901E+4
   9.34361E+3   3.83597E+4
   1.06679E+4   3.72980E+4
   1.16392E+4   3.69063E+4
   1.31301E+4   3.64590E+4
   1.43330E+4   3.54084E+4
   1.50549E+4   3.47417E+4
   1.62931E+4   3.40591E+4
   1.74694E+4   3.27709E+4
   1.82452E+4   3.21034E+4
   1.93603E+4   3.11630E+4
   2.02493E+4   2.99432E+4
   2.10580E+4   2.89270E+4
   2.20793E+4   2.80680E+4
   2.27526E+4   2.68717E+4
   2.33517E+4   2.58587E+4
   2.42787E+4   2.48119E+4
   2.51045E+4   2.35757E+4
   2.57066E+4   2.25613E+4
   2.64163E+4   2.16349E+4
   2.68922E+4   2.04609E+4
   2.74016E+4   1.93964E+4
   2.79897E+4   1.82879E+4
   2.84307E+4   1.70488E+4
   2.87005E+4   1.59283E+4
   2.90751E+4   1.47280E+4
   2.93480E+4   1.35309E+4
   2.95533E+4   1.24479E+4
   2.96935E+4   1.13877E+4
   2.97525E+4   1.02617E+4
   2.98183E+4   9.03548E+3
   2.99075E+4   7.84889E+3
   2.99935E+4   6.69829E+3
   2.98957E+4   5.50307E+3
   2.98810E+4   4.37470E+3
   2.97792E+4   3.22265E+3
   2.97150E+4   2.15785E+3
   2.95320E+4   9.68465E+2
   2.93130E+4  -2.02772E+2
   2.91080E+4  -1.24155E+3
   2.88158E+4  -2.43631E+3
   2.86071E+4  -3.46372E+3
   2.82974E+4  -4.46668E+3
   2.80014E+4  -5.48509E+3
   2.77106E+4  -6.48480E+3
   2.72854E+4  -7.34666E+3
   2.68788E+4  -8.18251E+3
   2.64624E+4  -9.13189E+3
   2.60420E+4  -9.96017E+3
   2.56038E+4  -1.08484E+4
   2.51740E+4  -1.16375E+4
   2.46956E+4  -1.22862E+4
   2.42100E+4  -1.29178E+4
   2.37363E+4  -1.36794E+4
   2.31310E+4  -1.42657E+4
   2.25801E+4  -1.48155E+4
   2.20010E+4  -1.53493E+4
   2.14187E+4  -1.58105E+4
   2.07973E+4  -1.62802E+4
   2.02205E+4  -1.66614E+4
   1.95692E+4  -1.70718E+4
   1.88937E+4  -1.74614E+4
   1.82291E+4  -1.77925E+4
   1.75262E+4  -1.81214E+4
   1.68843E+4  -1.83310E+4
   1.62103E+4  -1.85124E+4
   1.54369E+4  -1.87498E+4
   1.48294E+4  -1.89912E+4
   1.40991E+4  -1.90589E+4
   1.34446E+4  -1.92006E+4
   1.26670E+4  -1.92078E+4
   1.20254E+4  -1.93060E+4
   1.13788E+4  -1.93340E+4
   1.06629E+4  -1.92966E+4
   9.96200E+3  -1.91829E+4
   9.20106E+3  -1.92348E+4
   8.48398E+3  -1.91920E+4
   7.74892E+3  -1.90706E+4
   7.10239E+3  -1.89970E+4
   6.39539E+3  -1.89227E+4
   5.73480E+3  -1.87932E+4
   5.17373E+3  -1.86079E+4
   4.49102E+3  -1.84172E+4
   3.80851E+3  -1.82250E+4
   3.11306E+3  -1.80987E+4
   2.57738E+3  -1.77890E+4
   1.98504E+3  -1.74906E+4
   1.37427E+3  -1.72330E+4
   9.35775E+2  -1.69824E+4
   3.36040E+2  -1.67233E+4
  -1.92602E+2  -1.64340E+4
  -8.28979E+2  -1.61181E+4
  -1.23354E+3  -1.57597E+4
  -1.71508E+3  -1.53912E+4
  -2.20923E+3  -1.50722E+4
  -2.58975E+3  -1.46859E+4
  -3.02952E+3  -1.43094E+4
  -3.52146E+3  -1.38779E+4
  -3.90768E+3  -1.34188E+4
  -4.26570E+3  -1.31260E+4
  -4.63699E+3  -1.26300E+4
  -5.00091E+3  -1.22871E+4
  -5.27435E+3  -1.18115E+4
  -5.60255E+3  -1.14043E+4
  -5.84508E+3  -1.10134E+4
  -6.18381E+3  -1.05289E+4
  -6.43262E+3  -1.00886E+4
  -6.65880E+3  -9.59329E+3
  -6.87875E+3  -9.24347E+3
  -7.06831E+3  -8.79249E+3
  -7.26977E+3  -8.35928E+3
  -7.46547E+3  -7.86061E+3
  -7.61988E+3  -7.45056E+3
  -7.79505E+3  -7.01207E+3
  -7.87742E+3  -6.57944E+3
  -7.97961E+3  -6.16970E+3
  -8.20095E+3  -5.73577E+3
  -8.25208E+3  -5.42451E+3
  -8.33324E+3  -4.97444E+3
  -8.44530E+3  -4.54797E+3
  -8.45216E+3  -4.25600E+3
  -8.52506E+3  -3.87684E+3
  -8.54985E+3  -3.52758E+3
  -8.52782E+3  -3.12859E+3
  -8.50717E+3  -2.85198E+3
  -8.46715E+3  -2.50210E+3
  -8.41743E+3  -2.19488E+3
  -8.40111E+3  -1.95889E+3
  -8.34921E+3  -1.63150E+3
  -8.27517E+3  -1.27179E+3
  -8.23249E+3  -1.07229E+3
  -8.08509E+3  -7.37627E+2
  -7.97914E+3  -4.39053E+2
  -7.83712E+3  -2.20333E+2
  -7.73509E+3  -3.18349E+1
  -7.66779E+3   2.46667E+2
  -7.53688E+3   4.66341E+2
  -7.34422E+3   6.52689E+2
  -7.18704E+3   8.43430E+2
  -7.05586E+3   1.05878E+3
  -6.81100E+3   1.23145E+3
  -6.65388E+3   1.45467E+3
  -6.51910E+3   1.68063E+3
  -6.34903E+3   1.80099E+3
  -6.16590E+3   1.90164E+3
  -6.00246E+3   2.08166E+3
  -5.81849E+3   2.20838E+3
  -5.57492E+3   2.31291E+3
  -5.38097E+3   2.48469E+3
  -5.12559E+3   2.63884E+3
  -5.02009E+3   2.67454E+3
  -4.79051E+3   2.81729E+3
  -4.62650E+3   2.90996E+3
  -4.38600E+3   2.93458E+3
  -4.20663E+3   3.06177E+3
  -3.92968E+3   3.17464E+3
  -3.76298E+3   3.19140E+3
  -3.62801E+3   3.31712E+3
  -3.42279E+3   3.27704E+3
  -3.30751E+3   3.31820E+3
  -3.01424E+3   3.38297E+3
  -2.89610E+3   3.44939E+3
  -2.73371E+3   3.38757E+3
  -2.55275E+3   3.41984E+3
  -2.31814E+3   3.41316E+3
  -2.19248E+3   3.43680E+3
  -2.02511E+3   3.45440E+3
  -1.86775E+3   3.36657E+3
  -1.70069E+3   3.38030E+3
  -1.48543E+3   3.27594E+3
  -1.32092E+3   3.26724E+3
  -1.21985E+3   3.22296E+3
  -1.04290E+3   3.17469E+3
  -8.58118E+2   3.09711E+3
  -7.43711E+2   3.07409E+3
  -5.92049E+2   2.99945E+3
  -5.02684E+2   2.98526E+3
  -2.75580E+2   2.78033E+3
  -1.35846E+2   2.73495E+3
  -2.80404E+1   2.70971E+3
   1.35020E+2   2.54713E+3
   2.54502E+2   2.49471E+3
   3.70701E+2   2.40086E+3
   5.26020E+2   2.30401E+3
   5.84513E+2   2.25987E+3
   6.96930E+2   2.14827E+3
   7.81969E+2   1.99733E+3
   9.95310E+2   1.91107E+3
   1.06118E+3   1.85374E+3
   1.13856E+3   1.68943E+3
   1.24381E+3   1.63180E+3
   1.32549E+3   1.49041E+3
   1.39078E+3   1.42495E+3
   1.42710E+3   1.37016E+3
   1.55588E+3   1.24510E+3
   1.71576E+3   1.09412E+3
   1.73475E+3   1.04382E+3
   1.77413E+3   9.47330E+2
   1.83831E+3   7.83629E+2
   1.88242E+3   6.82709E+2
   1.96559E+3   5.39671E+2
   2.05871E+3   4.67913E+2
   1.99107E+3   3.63228E+2
   2.08709E+3   3.01024E+2
   2.08508E+3   1.82523E+2
   2.06244E+3   1.05609E+2
   2.18899E+3  -2.63560E+1
   2.15239E+3  -6.65535E+1
   2.12937E+3  -1.94237E+2
   2.13833E+3  -2.78439E+2
   2.21674E+3  -3.82634E+2
   2.15964E+3  -4.96919E+2
   2.21346E+3  -6.12329E+2
   2.29742E+3  -7.02242E+2
   2.14100E+3  -8.17632E+2
   2.18742E+3  -8.55836E+2
   2.16041E+3  -9.40676E+2
   2.13846E+3  -1.07829E+3
   2.11196E+3  -1.09028E+3
   2.08655E+3  -1.21223E+3
   2.08540E+3  -1.30562E+3
   2.08796E+3  -1.38887E+3
   2.06534E+3  -1.52708E+3
   2.01036E+3  -1.59093E+3
   1.98062E+3  -1.64822E+3
   1.97877E+3  -1.72562E+3
   1.99485E+3  -1.83527E+3
   1.87603E+3  -1.84897E+3
   1.85134E+3  -1.95323E+3
   1.87984E+3  -2.00414E+3
   1.76367E+3  -2.07527E+3
   1.77241E+3  -2.03717E+3
   1.77061E+3  -2.18186E+3
   1.63570E+3  -2.22146E+3
   1.63279E+3  -2.25725E+3
   1.56255E+3  -2.34029E+3
   1.55518E+3  -2.39844E+3
   1.50365E+3  -2.44395E+3
   1.47980E+3  -2.49656E+3
   1.45835E+3  -2.44370E+3
   1.42402E+3  -2.56724E+3
   1.36909E+3  -2.58900E+3
   1.26674E+3  -2.59670E+3
   1.22254E+3  -2.60150E+3
   1.25911E+3  -2.65626E+3
   1.14570E+3  -2.73916E+3
   1.08858E+3  -2.71712E+3
   1.07527E+3  -2.74211E+3
   1.02651E+3  -2.81040E+3
   8.72352E+2  -2.79461E+3
   8.58655E+2  -2.79833E+3
   7.90191E+2  -2.77062E+3
   8.02015E+2  -2.78234E+3
   6.80290E+2  -2.81342E+3
   6.51257E+2  -2.83531E+3
   6.23686E+2  -2.85869E+3
   5.35596E+2  -2.83650E+3
   4.93028E+2  -2.84526E+3
   4.42503E+2  -2.83455E+3
   4.43001E+2  -2.84276E+3
   3.80701E+2  -2.89114E+3
   2.85262E+2  -2.87370E+3
   2.56001E+2  -2.82355E+3
   1.44957E+2  -2.87164E+3
   1.72014E+2  -2.83654E+3
   6.08855E+1  -2.79208E+3
   4.24130E+1  -2.82043E+3
  -2.80782E+1  -2.81192E+3
  -3.48747E+1  -2.75316E+3
  -1.33425E+2  -2.72253E+3
  -1.15594E+2  -2.77462E+3
  -2.03011E+2  -2.73849E+3
  -2.28897E+2  -2.71820E+3
  -3.36935E+2  -2.66978E+3
  -3.31301E+2  -2.61554E+3
  -4.06957E+2  -2.64449E+3
  -4.59988E+2  -2.57435E+3
  -4.41245E+2  -2.50019E+3
  -4.88830E+2  -2.56040E+3
  -5.56936E+2  -2.50455E+3
  -5.90592E+2  -2.45071E+3
  -6.01683E+2  -2.39911E+3
  -6.12206E+2  -2.38233E+3
  -6.79983E+2  -2.35983E+3
  -6.96715E+2  -2.30127E+3
  -7.17661E+2  -2.23806E+3
  -8.25845E+2  -2.19903E+3
  -7.98665E+2  -2.18291E+3
  -8.41422E+2  -2.17612E+3
  -8.87028E+2  -2.13369E+3
  -8.98154E+2  -2.09255E+3
  -9.08988E+2  -2.07949E+3
  -9.91591E+2  -2.02750E+3
  -9.63162E+2  -1.92292E+3
  -9.88832E+2  -1.82396E+3
  -1.01602E+3  -1.90590E+3
  -1.02323E+3  -1.88127E+3
  -1.02492E+3  -1.82222E+3
  -1.01391E+3  -1.71029E+3
  -1.02319E+3  -1.71394E+3
  -1.11191E+3  -1.67578E+3
  -1.08809E+3  -1.59776E+3
  -1.04528E+3  -1.58544E+3
  -1.09819E+3  -1.54227E+3
  -1.09381E+3  -1.45327E+3
  -1.17704E+3  -1.41632E+3
  -1.10563E+3  -1.41423E+3
  -1.16219E+3  -1.35904E+3
  -1.15126E+3  -1.25074E+3
  -1.15771E+3  -1.29981E+3
  -1.11716E+3  -1.22290E+3
  -1.15530E+3  -1.17161E+3
  -1.19510E+3  -1.06725E+3
  -1.16747E+3  -1.14724E+3
  -1.13559E+3  -1.04684E+3
  -1.07748E+3  -9.50135E+2
  -1.07134E+3  -8.83259E+2
  -1.12956E+3  -9.13912E+2
  -1.10449E+3  -7.99730E+2
  -1.06342E+3  -8.35274E+2
  -1.07247E+3  -7.98311E+2
  -1.03708E+3  -7.78982E+2
  -9.78983E+2  -7.53363E+2
  -1.02392E+3  -6.00889E+2
  -1.08451E+3  -5.88537E+2
  -9.98224E+2  -5.75872E+2
  -1.01195E+3  -5.63488E+2
  -9.50074E+2  -5.03087E+2
  -9.53527E+2  -5.59524E+2
  -9.15279E+2  -4.81329E+2
  -8.73107E+2  -4.71793E+2
  -9.25864E+2  -4.02035E+2
  -8.73477E+2  -3.40039E+2
  -7.65409E+2  -3.50771E+2
  -8.11287E+2  -3.26323E+2
  -7.76604E+2  -2.83908E+2
  -8.01156E+2  -3.13494E+2
  -7.44425E+2  -2.28442E+2
  -6.72954E+2  -2.05881E+2
  -6.61296E+2  -2.23046E+2
  -7.31005E+2  -1.74168E+2
  -6.84602E+2  -1.79131E+2
  -6.08200E+2  -1.66300E+2
  -6.88282E+2  -9.25194E+1
  -5.83986E+2  -1.18785E+2
  -5.10730E+2  -6.89925E+1
  -5.00857E+2  -1.41166E+2
  -4.69721E+2  -4.89719E+1
  -5.12317E+2  -8.64920E+1
  -5.14328E+2  -5.99595E+1
  -3.85008E+2  -5.21841E+1
  -3.62684E+2  -5.79618E+1
  -3.53582E+2  -5.64377E+1
  -3.60707E+2  -4.52736E+1
