 
 $NMID
 ID=''
 FMTDAT='(2E13.5)'
 TRAMP=   1.00000E+0
 VOLUME=   1.00000E+0
 $END
   6.77517E+2  -2.60659E+2
   2.88370E+2   2.01382E+3
   1.30690E+3  -4.97233E+3
  -1.16730E+3  -1.17278E+3
  -1.01747E+3  -3.16079E+2
   6.95205E+2  -2.01536E+3
  -2.37759E+3   1.17972E+3
  -4.09489E+3   2.73649E+3
  -3.50009E+3   1.35023E+3
   1.83059E+2   5.42191E+1
   3.53957E+3  -2.75711E+3
   7.29188E+3  -1.72387E+3
   4.55160E+3   2.57608E+3
  -5.65812E+3   3.84720E+2
  -7.48908E+3  -5.02404E+3
  -2.78139E+3  -2.33957E+3
   1.63373E+3  -2.80508E+3
  -5.39825E+2   3.33707E+3
  -8.24726E+2   4.23747E+3
  -4.71086E+2   4.56492E+2
   4.09973E+3  -2.08737E+3
   3.83471E+3   1.65395E+3
  -1.87369E+3   2.66125E+2
  -2.41597E+3  -2.94889E+3
   4.28304E+3  -2.90574E+3
   3.21709E+3   4.23954E+3
  -2.20381E+3  -3.19569E+2
  -2.72693E+3  -4.39628E+3
   1.96625E+3  -7.13896E+3
   7.34822E+3  -4.23955E+3
   4.82230E+3   3.77186E+3
  -3.02626E+3   6.25612E+3
  -7.29844E+3   2.07212E+3
   1.18965E+3  -1.30274E+3
   2.13194E+3   3.24375E+3
  -4.80804E+2  -1.56745E+3
   5.38978E+3  -4.08854E+3
   7.24579E+3  -1.70475E+3
   3.99789E+3   1.94724E+3
   1.71400E+3   1.13887E+3
   2.60705E+2   4.08551E+3
  -3.19977E+3   1.29795E+3
  -3.20698E+3  -8.04672E+3
   2.41934E+3  -6.15584E+3
   5.10398E+2   3.10112E+1
   1.86248E+3   1.46650E+3
  -7.11796E+2  -1.19963E+2
  -1.59027E+3   2.99846E+3
  -2.94120E+3   1.94065E+3
  -6.47017E+3   1.50287E+3
  -4.66302E+3  -2.82301E+2
  -3.39472E+3  -1.92710E+3
   1.46750E+3  -1.96887E+2
   1.98755E+3   4.25576E+3
  -1.86073E+3   2.96404E+3
  -2.53859E+3   2.97011E+3
  -3.30294E+3   2.96327E+3
  -5.07668E+3   4.39436E+2
  -2.98308E+3  -3.51555E+3
  -3.39249E+2  -1.73198E+3
   3.11774E+3   1.26507E+3
   5.67049E+3   2.66212E+3
   2.96193E+3   2.83549E+3
  -3.21593E+2   6.92865E+2
   2.72777E+3  -2.52136E+3
   4.48856E+3  -5.11059E+2
   9.79088E+2   4.18695E+3
  -1.97418E+3   2.23536E+3
   5.24651E+2  -1.42576E+3
  -2.88313E+2  -1.68952E+3
   1.04139E+3  -6.37170E+2
  -1.73211E+3   1.57582E+3
  -2.01153E+3   8.82128E+1
  -2.54464E+2  -1.35426E+3
  -3.53529E+1   2.23163E+3
   1.64345E+3   2.36715E+3
  -1.83905E+3   6.03329E+2
  -1.16840E+3  -4.28308E+2
   1.98904E+3   1.04252E+3
   2.95343E+3   1.46426E+3
  -5.65569E+2   1.21471E+3
  -5.81596E+2  -1.92421E+3
  -3.41884E+2  -2.45721E+2
   1.39853E+3   1.79046E+2
  -2.44445E+3  -2.33659E+3
  -3.37670E+3  -2.69722E+3
  -1.35088E+3  -6.01437E+3
   3.43795E+3  -2.35712E+3
   2.81212E+3  -6.25977E+2
  -1.31812E+2   3.83212E+3
  -2.09659E+3   7.41780E+2
   1.04317E+3   7.25791E+1
  -9.48738E+2   3.43487E+3
  -4.17553E+3   2.54134E+3
  -5.77242E+3  -1.73604E+3
  -1.38293E+3  -3.00671E+3
   2.23088E+3  -1.39506E+3
   1.93576E+3   2.51465E+3
  -3.03582E+3  -7.03242E+2
  -7.40909E+2  -4.10016E+3
   1.83035E+3  -4.73725E+3
   4.11310E+3  -7.42072E+2
  -3.96560E+2   3.82510E+3
  -1.95968E+3   3.78243E+3
  -3.85013E+3  -1.05970E+3
  -1.61924E+3   7.81061E+2
  -1.24380E+3  -5.23931E+2
  -2.28168E+3  -1.40510E+3
  -9.92773E+2  -3.31642E+3
   1.02640E+3  -2.17714E+3
   6.59313E+3   3.87887E+2
   3.72188E+3   2.46975E+3
  -3.73185E+2   1.90073E+3
  -1.44823E+3   2.03888E+3
  -1.04247E+3   2.20758E+3
  -2.43090E+3  -3.44348E+1
  -1.58568E+3  -6.05513E+2
  -1.07510E+3  -1.06472E+3
   1.61792E+2   1.03463E+2
  -1.35679E+3   1.27597E+2
  -2.01361E+3   1.20313E+3
  -1.75086E+3   6.51236E+2
   1.18278E+2  -1.54581E+3
   1.66621E+3  -1.03236E+3
   2.13351E+3   1.55573E+3
   6.65359E+2   6.50731E+2
  -2.05742E+1  -1.60058E+3
   2.11229E+3  -6.14225E+2
  -8.36480E+2   1.45221E+3
   1.20786E+3   3.84682E+2
  -1.67127E+3  -9.87798E+2
   2.70755E+3  -8.37466E+2
   1.14185E+3   4.56067E+2
   1.06376E+3   1.16049E+3
  -4.30202E+3   1.91098E+3
  -1.45377E+3  -2.50990E+3
   3.96629E+2  -1.95376E+3
   2.04637E+2  -1.58921E+3
   1.20491E+3  -7.05409E+2
   4.41863E+1   8.01878E+2
   1.59166E+3  -2.20297E+3
   4.34611E+3   2.07310E+3
   2.11598E+3   2.27431E+3
   5.49270E+2   2.17700E+3
  -2.32161E+1   1.20474E+3
   2.09949E+3  -1.73799E+3
   2.55529E+3   1.30881E+3
  -1.06220E+3  -4.54746E+2
  -2.18496E+3  -1.74202E+3
  -2.29399E+3  -1.12846E+3
  -7.52100E+2  -7.41825E+2
  -2.10784E+3  -2.42937E+3
  -1.82619E+2  -2.96195E+3
   1.88818E+3  -3.72256E+3
   2.44112E+3   8.40640E+2
   2.21400E+3   1.14899E+3
   5.99556E+2   1.37281E+2
   6.26660E+2   1.66472E+3
   1.27142E+3  -2.96540E+2
  -6.93066E+2   1.62372E+3
   1.19284E+3   1.15073E+3
  -1.46460E+2   1.85448E+3
   1.38616E+3  -8.43321E+2
   2.48505E+3  -9.57309E+1
  -2.50011E+2   1.30851E+3
  -2.99281E+3   1.57848E+3
   9.43888E+2  -2.84544E+3
   4.32565E+3  -1.26352E+3
  -1.04219E+2   8.98063E+2
  -1.07946E+3   1.78346E+3
  -3.28444E+2   9.43923E+2
  -2.78620E+3  -2.36964E+3
   8.19941E+2  -4.00838E+2
   1.88246E+3   2.40217E+2
  -1.27781E+3  -9.65369E+2
   1.71197E+3  -6.72312E+2
   1.03030E+3   4.76838E+2
   2.19898E+3   6.67287E+2
   4.79361E+1   1.26503E+3
  -2.07693E+3   1.51279E+2
  -9.28161E+2  -1.21812E+3
   3.55421E+3  -1.02127E+3
   1.51035E+3  -6.04864E+2
  -5.15129E+2   1.42031E+3
  -7.93318E+2   1.01082E+3
   4.51698E+2   1.57718E+3
   1.00900E+3  -1.34855E+3
  -1.75935E+2  -1.32002E+3
  -5.10856E+2  -2.44354E+3
  -4.59437E+1  -1.26813E+3
   1.26488E+3  -1.06202E+3
   3.28999E+2   1.06938E+3
  -1.55604E+1   1.44618E+2
  -1.32682E+3   2.35474E+3
   8.68170E+2  -8.14802E+2
  -1.01854E+2  -1.98828E+2
  -8.02523E+2   1.84129E+3
   3.02062E+2  -5.97704E+2
   1.34030E+3  -2.58505E+2
   5.29023E+2   1.52046E+3
  -2.53757E+3  -1.49856E+2
  -1.38749E+3   3.47806E+2
   8.79359E+2  -1.83215E+3
   1.08150E+3  -2.97576E+3
   2.49304E+3   8.66328E+2
  -1.16994E+3   2.31252E+3
  -1.81393E+3   1.17887E+3
  -1.37676E+2  -1.65543E+2
  -3.61940E+2   1.73635E+3
  -2.29285E+2   7.68856E+2
  -1.38882E+3  -1.47394E+3
   3.00878E+2  -1.71597E+3
   2.33832E+3  -1.47225E+3
   2.46871E+3   1.07795E+3
  -3.50215E+2  -8.38632E+1
  -2.19168E+3  -1.02921E+3
   1.05520E+3  -1.97009E+3
   6.75011E+2   7.99426E+2
  -3.16178E+2  -2.17295E+3
  -7.17368E+2  -2.12045E+2
  -1.72171E+2  -1.02989E+3
   9.92236E+2  -9.06206E+2
  -1.91315E+3  -2.91523E+2
  -1.80230E+3   1.53534E+3
   5.13102E+2  -1.64297E+3
  -3.97485E+2  -7.90521E+1
  -2.00914E+2   2.55130E+3
  -5.21033E+2   2.85816E+2
  -1.02101E+3   1.36265E+3
  -1.11165E+3   9.01425E+2
   4.69418E+2  -7.80731E+2
   1.04983E+3   9.32265E+2
  -3.95303E+2  -1.36279E+3
  -4.34706E+2   4.52626E+2
   3.91235E+3  -2.68486E+2
  -7.12763E+2   2.19102E+3
   5.52820E+2   1.38835E+3
  -2.84189E+3  -3.38126E+2
  -8.87003E+2  -7.83660E+2
  -7.87638E+2  -6.97153E+2
   1.30868E+3  -2.02324E+2
  -9.93269E+1  -4.05920E+1
  -8.79759E+2  -9.62162E+2
  -3.79458E+2   6.99113E+2
   6.21582E+2  -2.08346E+3
  -7.93116E+2   2.82371E+1
  -6.73884E+2  -2.51483E+2
  -4.60787E+2  -7.85703E+2
   7.94099E+2   1.29854E+3
   2.74451E+2   3.67281E+2
  -2.32245E+3   3.25208E+2
  -2.38283E+3  -5.99507E+2
   2.28951E+3   2.74112E+1
  -6.13489E+2  -1.02719E+3
  -1.68190E+2   1.56597E+2
  -8.16772E+2  -1.90063E+3
   7.93023E+2   1.15155E+3
  -2.17705E+2  -2.15920E+2
  -1.56588E+3   1.74416E+3
  -6.49785E+2  -9.15334E+1
  -6.94899E+2  -1.94210E+3
  -1.11667E+3   4.12012E+2
   5.24307E+2  -5.70386E+2
  -1.49588E+3   2.00595E+3
  -1.40784E+3   3.70034E+2
  -1.94390E+3  -5.51337E+2
  -2.40124E+2   2.22095E+2
   3.86737E+2  -1.10652E+3
   6.38630E+2   1.03801E+2
   5.27103E+2  -6.10834E+2
  -1.68185E+2  -8.34750E+1
   1.44765E+3   1.81759E+1
  -1.24279E+3   1.16508E+3
  -6.64664E+2  -2.50038E+2
   9.37218E+2  -2.94616E+3
   1.84897E+3  -6.75671E+2
   1.31120E+3   1.24532E+3
  -2.06957E+3   4.22036E+2
  -8.29636E+2  -2.37672E+3
   2.51340E+3   3.97995E+2
  -8.24382E+2   3.39591E+2
   1.88160E+2   6.58486E+1
  -2.65864E+3  -2.09629E+3
  -1.12505E+3  -1.38328E+3
  -4.48040E+2  -9.68478E+2
  -2.25557E+2   9.69839E+2
   1.49038E+2   3.82835E+2
  -2.50663E+2  -1.09461E+3
   6.42585E+2  -9.10850E+2
   1.37298E+3   1.93048E+2
   5.69067E+2   7.25527E+2
   4.40847E+2  -4.51705E+2
  -1.61906E+3   8.07340E+2
   8.12217E+1   2.79103E+3
   5.40819E+2   1.72753E+3
  -1.11250E+3   4.55265E+1
   5.97795E+2   1.52727E+3
   5.61439E+2   5.55395E+2
   7.10230E+2   1.55650E+3
   1.14119E+2   1.17632E+3
  -6.55903E+2   7.02472E+2
  -3.79817E+2  -1.83937E+3
  -5.24011E+2  -9.80548E+2
  -1.96404E+3  -3.10712E+1
  -1.69066E+3  -2.31780E+3
  -2.44059E+3   4.72424E+2
   2.16488E+3   2.82423E+2
   1.26282E+3   3.19483E+3
   1.02951E+3   6.85069E+2
  -2.15562E+2   1.84739E+2
   2.70931E+1  -1.15685E+3
   5.73122E+2  -9.10552E+2
   8.87479E+2   1.21020E+2
  -4.77058E+2  -2.10398E+2
  -6.99052E+2  -1.81026E+3
   1.93202E+3   7.00088E+2
  -5.08288E+2   1.03426E+3
  -1.46882E+3   1.18915E+3
   3.40881E+2   5.44276E+2
   1.09512E+3  -1.48787E+3
   6.39693E+2  -4.71318E+2
  -8.59346E+2   3.64600E+2
  -2.15204E+3   1.23888E+3
  -4.09485E+2  -1.38248E+3
  -7.10642E+2   1.46098E+3
  -3.35518E+2   1.24897E+3
   2.66810E+2  -3.60883E+2
   6.89732E+2  -6.95157E+2
   7.34907E+2  -1.64158E+3
   7.84561E+2   4.92260E+2
   3.71227E+1   9.76145E+2
  -3.85948E+1   1.35617E+2
  -8.58196E+2  -3.60438E+2
   8.36101E+1  -1.74584E+2
   7.33786E+2  -3.95509E+2
   2.94363E+2   3.00806E+2
  -9.48329E+2  -5.38892E+2
  -1.96217E+2   2.17160E+3
   1.58541E+2   3.50976E+2
  -1.08859E+3   2.42631E+3
  -3.22224E+3  -1.44533E+2
   2.91865E+2  -7.56297E+2
   1.65066E+3  -1.88354E+2
  -4.50538E+2   2.72156E+2
  -8.85885E+2   1.31100E+3
  -2.27844E+3  -2.49501E+3
  -2.07206E+2   8.21049E+2
  -1.08130E+3   3.27674E+2
   3.98751E+2  -6.97778E+2
  -7.41552E+2  -1.87496E+3
  -1.85768E+3  -1.08173E+3
   1.76465E+3   3.00099E+2
  -4.50799E+2   1.45135E+3
  -7.87127E+2   6.41245E+2
  -1.92165E+3  -3.19086E+3
  -2.58555E+1   6.69494E+2
  -5.68451E+2   4.97339E+2
  -5.92106E+2  -9.95761E+2
  -5.51997E+2   1.19898E+3
  -4.30489E+2  -7.93210E+2
   1.90349E+1   1.06383E+3
   1.09834E+3  -1.04782E+3
  -8.89138E+2  -1.24213E+3
  -9.33929E+2  -1.26394E+3
   8.94303E+2   1.92884E+1
  -2.59442E+2  -5.21333E+2
   1.43773E+2  -1.00087E+3
