 
 $NMID
 ID=''
 FMTDAT='(2E13.5)'
 TRAMP=   1.00000E+0
 VOLUME=   1.00000E+0
 $END
   2.90291E+2  -3.15626E+2
   2.34888E+3   2.09561E+3
   5.74729E+0  -6.58946E+3
   1.32197E+3  -3.94539E+3
  -2.32368E+3   7.12411E+2
  -1.89355E+2  -4.09886E+3
  -1.21560E+3   2.47578E+3
  -4.44567E+3   2.17085E+3
  -1.68125E+3  -2.48580E+3
  -9.50781E+2  -1.83616E+3
   3.08357E+3  -1.75207E+3
   6.28335E+3  -1.16112E+3
   3.69409E+3   2.44312E+3
  -9.23517E+2   6.81379E+2
   2.21539E+2  -3.63075E+3
   2.07731E+3  -2.98481E+3
   8.03496E+2  -3.73631E+3
   3.10985E+3  -7.53073E+2
   2.00170E+3  -4.02402E+2
  -4.62056E+2  -1.82350E+3
   1.73364E+3  -4.75124E+3
   5.27309E+3   1.86689E+3
   9.35577E+2   3.19522E+3
  -2.21378E+3  -6.45488E+2
   2.39317E+3  -1.98038E+3
   4.01191E+3   2.62262E+3
  -1.93666E+2   4.63007E+3
  -1.62256E+3  -7.02324E+2
  -1.54939E+3  -4.83452E+3
   3.37567E+3  -3.30967E+3
   6.04857E+3   2.05420E+3
  -3.27931E+2   6.99388E+3
  -4.57315E+3   2.63049E+3
  -1.63594E+3  -2.92117E+2
  -1.82120E+3   3.47075E+3
  -6.24031E+3   1.88429E+3
  -1.35204E+3  -2.35269E+3
   1.08001E+3   2.64007E+3
   1.09360E+3   4.76840E+3
  -5.17450E+2   3.98530E+3
  -3.41812E+3   5.51436E+3
  -2.42684E+3   3.89965E+3
  -3.58768E+3  -4.73573E+3
   3.34958E+3  -6.64328E+3
   3.54801E+3  -2.56269E+3
   2.65191E+3  -1.11254E+3
   3.10648E+2  -2.74486E+2
   1.13069E+3  -4.88022E+2
   1.73314E+3   2.65743E+3
  -1.50566E+3   1.94863E+3
  -3.82433E+3   1.50118E+2
   9.84424E+1  -2.36443E+3
   2.51806E+3  -4.86188E+2
   1.54001E+3   2.41666E+3
  -3.02328E+2   1.40825E+3
  -1.99960E+3   2.55598E+3
  -2.31858E+3   3.73824E+3
  -6.78147E+3   1.98996E+3
  -4.96151E+3  -3.55982E+3
  -8.69653E+2  -3.72751E+3
   2.13284E+3  -3.71813E+3
   2.19794E+3  -4.75741E+2
   1.70510E+3   2.83151E+3
  -8.86805E+2   2.46281E+3
   4.07698E+2  -2.84035E+2
   1.92814E+3   8.12197E+1
   1.41593E+2   4.13341E+3
  -1.69801E+3   2.49880E+3
  -1.80043E+3  -1.92292E+3
  -1.14984E+3  -6.52697E+2
   4.12081E+2  -1.42243E+3
  -3.25485E+2  -1.33008E+3
  -1.77877E+3  -2.26175E+3
  -4.41104E+2  -3.17525E+3
  -2.49528E+2  -1.13575E+3
  -1.76570E+3  -3.78098E+2
  -6.85862E+2   1.84227E+3
  -3.26903E+2  -1.36514E+3
   8.43461E+2  -1.72091E+3
   1.30511E+3   1.99585E+3
  -8.10250E+2   1.10706E+3
   2.25816E+2   8.13480E+2
  -1.02794E+2   3.54471E+2
   8.78260E+2   1.85795E+3
   3.48910E+2   2.44788E+3
  -3.55431E+3   1.91319E+1
  -6.66675E+2  -2.75748E+3
  -5.84320E+2  -3.50400E+3
   2.55611E+3  -2.71551E+2
  -4.58229E+0   4.22425E+2
  -1.40531E+3  -1.08938E+2
  -8.12106E+2  -1.01192E+3
   9.22564E+1   2.38140E+3
  -4.53183E+2   3.32298E+3
  -3.12003E+3  -1.51796E+2
  -1.78571E+3  -3.04865E+3
   1.75375E+3  -1.28409E+3
   1.49052E+3   6.38877E+2
  -9.95983E+2   4.27632E+3
  -3.70470E+3  -5.84411E+2
  -6.83058E+2  -3.68908E+3
   2.94124E+3  -2.55557E+3
   2.36008E+3   1.20573E+3
  -1.07820E+3   2.64524E+3
  -2.19330E+3  -5.44101E+2
  -9.06594E+2  -1.37401E+3
   1.31253E+3  -1.20918E+3
  -2.08160E+3   1.75650E+3
  -3.43553E+3  -3.63741E+3
  -1.74983E+2  -4.68835E+3
   1.55702E+3  -1.60489E+3
   3.40000E+3   8.85279E+1
   1.50574E+3   2.23043E+2
   2.87774E+2   1.75716E+3
   2.04124E+2   1.03024E+3
  -2.41627E+3  -3.11112E+2
   1.78954E+2   3.63223E+2
  -9.54866E+2  -8.31391E+2
   3.92949E+2  -8.04132E+2
   1.98766E+3   2.35632E+2
   1.92435E+3   5.37670E+2
  -5.57229E+2   1.15552E+3
  -6.12279E+2  -1.91643E+3
   7.58884E+2  -2.99170E+3
   1.84906E+3   4.77390E+2
   7.86045E+2   5.40228E+2
   1.18437E+3  -2.05682E+3
   1.88642E+3  -2.04455E+3
  -4.20637E+2   1.35041E+3
   1.31761E+3   1.77636E+3
   1.13809E+3   5.22707E+1
   1.34758E+3  -1.82055E+3
  -2.16376E+2  -5.10860E+2
   2.23507E+3   1.11612E+3
  -1.97636E+3   1.82184E+3
  -1.96495E+3   7.24843E+2
  -1.21395E+3  -2.54245E+3
  -1.89219E+2  -2.54299E+3
   2.35459E+2  -9.20937E+2
  -3.28351E+2   7.60594E+2
   6.70461E+2  -2.23296E+3
   3.25290E+3  -1.95638E+3
   5.22975E+2  -4.77776E+2
   2.09276E+3   1.63432E+3
  -8.16632E-1  -1.32874E+3
   5.40860E+2  -1.04132E+3
   5.28125E+2  -2.46371E+2
   1.31434E+3   1.60437E+3
   9.86407E+2  -2.39302E+2
  -6.60212E+2   1.30099E+3
  -9.39824E+2   7.66933E+2
  -6.80466E+2  -8.31535E+1
  -1.35689E+3  -2.06206E+2
  -1.05357E+3  -1.26401E+3
   2.19302E+3  -1.30466E+3
   2.47840E+3   1.37231E+3
   8.09936E+2   2.50745E+3
   5.29001E+2   1.08892E+3
   1.82818E+3   1.20877E+2
   1.53469E+3   8.26202E+2
  -1.17198E+2  -2.31042E+2
  -1.71374E+3  -2.05677E+3
   5.95691E+2  -1.56036E+2
   2.01452E+2  -6.83128E+2
  -1.13380E+1   1.05081E+3
  -2.45027E+3   1.41598E+2
  -1.74525E+3  -7.79039E+2
   1.71642E+3  -3.50360E+3
   2.06171E+3   8.02292E+2
   4.26560E+2   3.57928E+3
  -1.46276E+3   2.73377E+3
  -9.83082E+2   4.10718E+2
  -3.46918E+2  -1.31506E+3
  -2.68265E+3  -2.49489E+2
   4.99520E+2  -4.27050E+2
  -8.65397E+1   6.64207E+1
   1.16565E+3   1.02657E+3
   1.25810E+3  -3.14957E+2
  -7.76148E+2   7.79885E+2
  -1.59829E+3   2.82937E+3
  -8.51828E+2  -1.97667E+2
  -1.61785E+3  -1.20505E+3
  -9.20163E+2  -6.09735E+2
   7.33130E+1   1.41177E+3
  -5.15327E+2   1.25317E+3
   2.19675E+2  -1.24933E+3
   1.12505E+3   1.13109E+3
  -2.13587E+3   9.98853E+2
  -6.09017E+1  -9.68972E+2
  -5.34694E+2  -1.39679E+3
   2.58130E+3   8.40485E+1
   2.20637E+2   2.12745E+3
   5.91497E+2   1.84518E+3
  -1.48958E+3  -1.18899E+3
  -1.46410E+3  -1.60868E+3
  -1.00414E+3   2.65853E+3
   1.05616E+3  -2.29778E+2
   2.05752E+2  -1.18731E+3
  -1.02126E+3   2.60371E+2
   1.74683E+3   1.26478E+3
   2.11439E+3   4.15113E+3
  -1.94228E+3   3.49162E+2
  -2.85348E+3   2.63529E+2
   8.14264E+2  -2.34968E+3
   1.68343E+3  -2.80701E+2
   1.35037E+3   6.59500E+2
   1.55310E+3   3.48175E+2
   1.22446E+3  -1.54045E+2
   4.08679E+2   2.52073E+2
  -1.65173E+3  -1.00481E+3
  -1.60702E+3   5.90643E+2
  -9.98356E+2  -6.13681E+1
   5.22531E+2  -6.01328E+2
   9.67471E+2  -1.07668E+3
   8.29922E+2   1.27824E+3
  -4.26764E+2   6.84388E+2
   8.04846E+2  -1.24745E+1
   1.62310E+3  -7.87270E+1
   7.48727E+2   2.07745E+3
  -2.05274E+3  -3.19507E+2
   2.00629E+3   9.83586E+2
   6.51251E+2   2.24789E+2
  -2.06421E+3   2.09294E+2
  -1.43925E+3  -2.22702E+2
  -8.90684E+2  -5.12568E+1
   5.13281E+2  -9.54562E+2
   2.23064E+3   2.57941E+2
   1.93627E+2   2.37775E+3
  -1.70946E+2   3.55756E+2
   9.05037E+2  -3.77566E+2
  -2.03176E+3   4.54704E+2
   1.69825E+3   6.88984E+2
  -1.13756E+3  -1.38289E+3
  -2.77907E+2  -2.49739E+1
   1.10977E+2   9.99870E+2
   1.62611E+3   1.85723E+3
   1.73541E+3  -5.02087E+2
  -1.01044E+3   1.46442E+3
  -1.89210E+3   1.03857E+3
  -2.11093E+1  -2.56011E+3
  -4.11620E+1  -7.45530E+1
   1.22180E+3   9.42058E+1
   8.36294E+2  -3.09890E+2
   2.28454E+3  -3.75023E+2
   6.72778E+2   1.90160E+3
   5.64357E+1   1.10239E+3
  -4.99425E+1   8.97411E+2
  -4.78457E+2   2.96986E+2
   3.60050E+2  -3.68767E+3
   1.51010E+3  -5.98772E+2
  -2.34079E+2  -3.80655E+2
   4.60443E+2   6.34139E+2
  -1.15597E+3   1.21628E+3
  -2.82328E+2   1.06989E+2
  -6.58234E+2   7.85985E+2
  -6.69960E+2   1.03950E+3
   5.39687E+2  -9.81794E+1
   1.30249E+3  -1.25694E+3
   2.10030E+3   1.85140E+2
   4.78582E+2   1.06852E+3
  -4.14092E+2  -1.54089E+3
  -1.69121E+2  -1.05094E+3
   1.82774E+3  -1.48579E+3
   9.30759E+1   9.54548E+2
   6.17712E+2   1.59177E+2
   2.29976E+2   7.33525E+2
   6.46265E+2   6.35480E+2
   9.02377E+2   1.69637E+3
   2.61426E+2  -3.71715E+1
  -1.67573E+3   3.15145E+2
  -1.10522E+3  -1.76518E+3
   9.94582E+2   4.06684E+2
  -5.76094E+2   1.06592E+3
  -6.36022E+2   1.98738E+2
  -7.65240E+2  -5.14581E+2
   3.18383E+2   4.95588E+2
  -1.94944E+3   7.78810E+2
  -1.44188E+2  -2.71102E+3
   1.01005E+3  -2.63522E+3
   1.69414E+3  -2.02917E+3
  -1.09783E+3   5.14045E+2
  -9.69569E+2   1.00743E+3
  -2.42936E+3   3.23647E+3
  -4.84441E+2  -2.02509E+2
   7.53327E+2  -7.51334E+2
  -9.93363E+2   1.59309E+3
  -1.04804E+3  -1.53181E+3
  -8.02775E+2  -1.07577E+3
   5.18204E+0  -1.98884E+2
   5.95881E+2  -3.44031E+2
   1.02975E+3  -4.01729E+2
  -4.62759E+2   9.78263E+2
   7.58281E+2  -3.60802E+2
   2.26310E+2   3.39187E+2
   1.01620E+2   2.78546E+3
  -3.00250E+3   1.24039E+3
  -6.20083E+2  -1.74721E+2
   1.14627E+3  -8.49392E+1
  -2.40735E+2  -1.00320E+3
  -3.15406E+2  -1.09421E+3
  -1.19162E+3   1.02022E+3
  -1.75051E+3   7.73064E+2
   4.20588E+2   9.89254E+2
   2.28229E+2  -3.33571E+2
  -2.18076E+3  -1.47248E+3
  -1.03503E+3  -1.36649E+3
  -3.24042E+2  -1.71526E+3
   2.90039E+3   7.46028E+2
  -1.97316E+2   4.44025E+2
   5.39152E+2   1.67380E+3
  -8.65283E+2  -2.12493E+2
  -4.43708E+2   1.12432E+3
   2.27921E+1  -8.98366E+2
   1.06803E+2  -7.38576E+2
  -1.37379E+3   6.56996E+1
  -4.71116E+2   9.41097E+2
   1.30792E+2   1.72772E+2
   1.68074E+3  -8.41512E+2
  -1.97987E+3  -1.53467E+3
  -5.76778E+2  -4.06667E+2
   5.27394E+2   2.49527E+2
   1.20418E+3   1.23450E+3
  -1.86871E+3  -4.43706E+2
  -1.23590E+3   5.98846E+2
   9.41583E+2  -4.51286E+2
   4.29744E+2  -8.90421E+2
  -1.07996E+3   1.85578E+2
  -2.01584E+3  -2.03697E+3
  -4.62671E+2   9.30834E+1
   1.60725E+3  -2.06364E+3
  -1.25673E+3   1.40930E+3
  -1.01185E+3  -2.35385E+2
  -1.79449E+2   2.07041E+1
   2.55871E+2   1.19530E+3
  -1.22151E+3   8.93859E+2
   1.15594E+3  -1.12322E+3
   3.46705E+2   5.01344E+2
  -5.75209E+1  -7.66737E+2
   8.82916E+2   2.12494E+2
   6.07564E+2   2.64475E+3
  -2.19690E+3  -3.76327E+1
  -9.90065E+2  -2.54572E+3
  -9.52643E+2  -6.22398E+2
   1.47161E+3   2.86202E+3
   2.45575E+3   6.70179E+2
  -2.56043E+3  -2.35938E+2
   1.28322E+2  -8.66596E+2
  -5.98714E+2   4.16405E+2
   1.66581E+3   8.59448E+2
  -3.31517E+2   1.32814E+3
  -9.90122E+2   7.10958E+2
   2.01560E+2   9.87250E+1
   1.00785E+3  -1.09228E+3
  -5.94721E+1  -4.31804E+2
  -1.92506E+3  -1.22049E+3
   1.78846E+3  -1.82059E+3
   3.56755E+2   1.46418E+3
   2.33551E+3   3.17357E+2
  -6.64855E+2  -1.56441E+3
   3.94527E+2  -2.49826E+3
  -6.42913E+2  -1.18022E+3
  -2.52849E+2  -4.63901E+2
   3.14621E+3   2.18651E+3
   1.64312E+3  -6.02146E+2
   1.05552E+3  -1.63922E+3
  -4.44018E+2  -7.55374E+2
   1.49703E+3  -5.04237E+2
