 
 $NMID
 ID=''
 FMTDAT='(2E13.5)'
 TRAMP=   1.00000E+0
 VOLUME=   1.00000E+0
 $END
   6.23240E+2  -2.50499E+2
   7.86641E+2   1.87197E+3
   1.77424E+3  -3.82691E+3
  -1.05020E+2  -1.95493E+3
   8.77836E+2  -1.46479E+3
  -2.06017E+3  -3.54139E+3
   7.14250E+2   3.03332E+2
  -1.74876E+3   5.44814E+2
  -1.32410E+3  -2.08420E+3
  -7.62699E+2  -1.18689E+3
  -1.74563E+3  -2.28036E+3
   2.22123E+3  -1.80826E+3
   2.04954E+3   1.91025E+3
  -1.93322E+3   4.50012E+2
  -1.16926E+3   4.39114E+2
   1.31810E+3  -1.10779E+3
   1.29352E+3  -2.59975E+3
   1.43104E+3   7.42761E+1
   1.27280E+3   2.68249E+3
  -9.16140E+2  -1.28449E+3
   2.48246E+3  -3.56683E+3
   1.42626E+3   3.20948E+2
  -2.15534E+2   2.39202E+3
  -2.76513E+3  -2.60547E+3
   9.82761E+2  -2.94401E+3
   8.77362E+2   2.15059E+3
  -1.61986E+3   3.54754E+3
  -5.12248E+3   3.48911E+2
  -2.23623E+3  -3.59239E+3
   2.38179E+3  -1.13342E+3
   5.92580E+2   3.23106E+3
  -5.45565E+3   4.96886E+3
  -4.24686E+3  -1.33579E+3
   1.35864E+3  -2.05484E+3
   3.60792E+2   2.22514E+3
  -2.40482E+3  -8.31986E+2
   2.63826E+3  -7.02412E+2
   1.19581E+3   2.44220E+3
  -1.79498E+3   3.17037E+3
  -1.96815E+3  -7.78110E+2
  -5.02493E+3   1.51081E+3
  -5.44196E+3  -3.25427E+3
   5.65177E+2  -5.15925E+3
   5.37839E+3  -3.55071E+3
   3.45068E+3  -1.48645E+3
   3.34073E+3   1.49737E+2
   3.64780E+3  -1.20367E+3
   3.81376E+3   1.05192E+3
  -3.97196E+2   1.06115E+3
  -8.88264E+2  -1.27468E+2
   5.28309E+2  -1.06180E+3
   1.32941E+3  -1.06489E+3
   2.21868E+3   2.08594E+3
   4.78865E+2   3.84445E+3
  -5.45764E+1   3.59980E+3
  -2.61503E+3   6.38043E+2
  -3.18984E+3   1.81415E+3
  -7.41292E+2  -1.18403E+3
   2.37473E+3  -1.73481E+3
   1.18664E+3  -1.39056E+3
   3.28226E+3   3.03272E+3
  -1.26368E+3   5.17091E+3
  -2.33789E+3   9.34953E+2
  -2.40991E+2  -8.64413E+1
   1.74014E+3   1.55516E+2
  -6.83699E+1   7.17421E+2
  -2.96942E+3   1.99792E+3
  -1.80494E+3  -4.22317E+3
   1.93887E+3  -9.99208E+2
   8.01766E+2   5.96709E+2
   1.99890E+3   9.64369E+2
   1.50525E+3   1.43102E+3
   2.21226E+3   1.24352E+3
   1.55806E+3  -3.83922E+2
   1.86942E+3  -4.53634E+2
   2.53711E+3  -1.87294E+3
   1.50474E+3   3.01156E+2
  -6.13720E+2  -1.25215E+3
  -3.67385E+2  -1.56036E+2
  -1.48425E+3   2.32324E+3
  -7.79937E+2  -6.16711E+2
  -6.08530E+2   2.32391E+2
  -2.54693E+3  -7.09135E+2
  -3.37693E+3  -1.32758E+3
   1.02453E+3  -2.40252E+3
   1.69008E+3  -1.81897E+3
   1.34813E+3   1.74480E+3
  -7.02056E+2   1.34562E+3
  -1.06515E+3  -1.50959E+3
  -2.99020E+2  -5.82505E+2
   9.18102E+2  -5.08226E+2
  -3.29370E+2  -1.60986E+3
  -1.04303E+3  -2.01323E+3
   9.05665E+2  -1.30982E+3
   3.99952E+3   2.91487E+2
   1.76834E+3   9.25989E+2
   2.99734E+2  -1.00073E+3
   1.25933E+3  -1.80751E+3
   1.26380E+3  -9.64215E+2
  -1.15577E+2   1.66521E+2
  -1.14585E+3   4.82612E+2
  -3.19030E+3   3.33387E+2
  -5.58443E+1  -1.43191E+3
   1.11862E+3  -1.72750E+2
   1.00033E+3   1.60742E+3
  -1.49830E+3   1.14343E+3
  -1.14650E+3   7.75891E+2
  -2.19031E+2  -3.65675E+2
  -1.22435E+3   8.86592E+2
  -6.89471E+2   2.46047E+3
   6.45588E+2   2.89043E+2
  -1.68892E+3   1.96426E+2
  -1.81882E+2   1.39484E+3
  -4.83450E+2  -7.65810E+2
   1.14904E+3  -4.05902E+2
   8.51214E+1   5.20910E+2
  -1.16698E+2   9.98732E+2
   1.02547E+1  -2.39661E+3
   8.33765E+2   6.20020E+2
   4.26222E+0  -1.93994E+2
   5.75100E+2  -5.20573E+1
   1.41572E+2   2.77120E+3
   7.75248E+2   9.56284E+2
   6.48362E+2   2.65753E+3
   6.71989E+2   2.48966E+3
  -6.11177E+2   2.55643E+3
  -2.72053E+3  -9.43596E+2
  -1.12413E+3  -2.19719E+3
  -2.20114E+3   6.92203E+1
  -3.77032E+2  -2.15767E+2
  -1.11805E+3   1.79885E+3
  -6.39247E+2  -1.20933E+3
   2.38970E+2  -1.34070E+2
  -7.15012E+2   9.47919E+2
  -6.60066E-1   1.73239E+3
   6.61681E+2   1.85560E+3
  -1.12684E+3  -6.91231E+2
  -1.72376E+2   4.76374E+2
   1.56015E+3  -2.01305E+2
  -5.58376E+2  -4.81423E+2
   1.46121E+2  -7.58592E+2
  -7.34351E+2  -2.18062E+3
  -9.68020E+2   5.14056E+2
   2.50572E+2   8.62518E+2
  -4.63969E+2  -1.05722E+3
  -1.43552E+2   5.77338E+2
  -3.44093E+2  -1.00189E+3
   4.63420E+2   1.51834E+3
   9.27467E+2   3.33741E+2
  -7.87569E+2  -7.24390E+2
  -1.06530E+3   2.67205E+3
   8.45732E+2  -1.87126E+3
   1.41330E+3  -5.15031E+2
   2.75506E+2  -1.96661E+3
   7.63435E+2   1.60342E+3
  -8.04513E+2   2.64808E+2
  -6.31261E+2   3.29827E+2
   8.53740E+2   4.99469E+2
  -2.26384E+3   7.08310E+2
  -6.59580E+2  -6.95302E+2
  -1.06845E+3  -1.31382E+3
  -2.41821E+3  -4.28366E+2
  -1.37139E+2  -9.12858E+2
   9.80786E+2   6.63786E+2
  -3.96973E+2  -8.10837E+1
  -2.86974E+3   3.63667E+2
   1.16219E+3  -5.19600E+2
   3.03876E+3   5.58780E+2
   1.06805E+2  -3.64620E+2
  -5.16690E+1   1.51260E+3
   2.19881E+2  -1.89585E+2
   5.86664E+2  -2.65498E+2
   6.02756E+2   7.46977E+1
  -1.11387E+3  -2.34110E+2
  -1.07994E+3  -3.64335E+2
   2.25827E+2   3.78388E+2
  -5.78877E+2  -8.03071E+2
   2.10756E+2   1.21784E+3
  -1.37805E+3  -1.33886E+3
  -1.03443E+2  -9.85013E+2
   1.03347E+3   3.03060E+2
   1.78180E+2   6.51681E+2
   4.18151E+2   1.06046E+3
   5.69324E+2  -8.73313E+2
  -1.05836E+3   2.14300E+3
  -1.13660E+3  -8.38986E+2
   3.01426E+2  -8.47427E+2
  -5.01911E+2  -1.92428E+3
   5.72110E+1  -2.06862E+2
  -9.50298E+2  -7.93744E+1
   1.07060E+3  -2.94463E+2
  -8.11499E+2   2.78682E+2
   1.88696E+2  -1.34514E+2
   3.31007E+2  -5.34315E+1
   5.43271E+2   3.04740E+2
   5.60646E+2   1.17522E+3
   1.83874E+3  -1.17438E+3
   9.65177E+2  -6.01034E+2
   1.49553E+3  -3.18512E+2
   1.30269E+2  -1.12620E+3
   1.04246E+3   9.30106E+2
  -1.70998E+3   1.09238E+3
  -5.57630E+2  -3.79938E+2
  -2.75051E+2  -1.91196E+3
  -7.42490E+2  -8.00181E+2
   1.20194E+3   1.46956E+3
  -7.68027E+2  -1.30658E+3
  -7.70401E+2   6.74438E+2
   4.62424E+2  -9.54603E+2
   3.40568E+2   2.73357E+3
   1.73674E+3  -5.89651E+2
  -1.69656E+3  -1.97202E+2
  -1.06064E+3   1.73764E+3
  -4.81320E+2   5.11756E-1
   1.26708E+3  -1.74504E+3
   7.81821E+2   9.30563E+2
  -2.34427E+2  -1.01143E+3
   5.93308E+2  -5.26497E+2
   1.73582E+3  -5.05781E+2
   5.25207E+2   7.57185E+2
  -4.53471E+2  -1.07248E+2
  -2.15124E+2   4.06005E+2
  -5.87906E+2  -1.83518E+3
  -2.28385E+2   7.29916E+2
  -1.82195E+3   1.49126E+3
  -1.08706E+2   2.72916E+2
  -2.37398E+2   5.96424E+2
  -1.15274E+3  -1.06262E+2
   6.19407E+2   5.48984E+2
  -1.64530E+2  -5.24591E+2
  -1.50359E+3  -2.03727E+2
  -6.07315E+1   6.00270E+2
   8.33420E+2   9.37689E+2
   2.45224E+2   1.46639E+3
  -1.44704E+3  -2.55318E+3
   1.14549E+3   2.06317E+2
   3.36759E+1   8.29872E+2
   1.20656E+3   5.73843E+2
  -9.96185E+2   7.67728E+2
  -1.88358E+3   7.56957E+2
  -1.45174E+2   2.87629E+3
  -3.19188E+3   2.25255E+3
  -3.94957E+2  -1.59844E+3
  -1.65225E+2   6.23492E+2
   1.06163E+3  -2.15615E+1
  -7.72814E+2   5.19654E+2
  -1.22926E+3  -1.75479E+3
  -1.90668E+3  -1.56608E+2
   1.17808E+3   3.43592E+2
  -1.10416E+3   2.52300E+3
   2.83433E+2   8.01642E+2
  -1.05576E+3   2.08826E+3
  -7.43308E+2   9.82232E+2
   5.20343E+2  -3.53882E+2
  -1.30405E+3   6.07033E+2
   8.63918E+2   1.90001E+3
   5.37644E+2  -1.05169E+3
  -1.26782E+3  -6.20644E+2
  -7.34543E+2   1.17230E+3
   6.50879E+2  -1.40313E+3
  -7.32082E+2   2.14250E+3
   8.88158E+2  -9.89169E+2
   1.56683E+2   2.49324E+2
  -5.16018E+2   2.36445E+3
  -7.28833E+2  -1.47433E+3
   2.28442E+3   2.00064E+2
   7.80791E+2  -1.80969E+2
  -1.75961E+3   1.65225E+2
   1.73787E+3  -8.05132E+2
   5.28095E+2   1.64882E+3
  -1.26936E+2  -5.59371E+2
  -4.66129E+2   5.96361E+2
  -5.33001E+2   4.98588E+2
  -5.85152E+2  -4.82492E+2
  -2.05908E+3   5.13806E+2
   3.11715E+2  -1.04882E+2
   8.07860E+1  -3.45572E+2
  -1.85178E+3  -5.61123E+2
   6.59395E+1   8.10268E+2
   4.02043E+2   1.08998E+2
   1.83246E+2  -2.00528E+3
   4.04698E+2   1.32260E+3
  -1.00510E+3  -2.84223E+2
   1.08018E+3  -7.15240E+2
   2.53215E+3  -1.56709E+3
   2.95012E+2  -4.29072E+1
  -7.10463E+2   1.29644E+3
  -4.30466E+2  -2.80398E+2
   3.79634E+2   3.97478E+1
   5.84719E+2   2.20276E+3
   1.19482E+3   1.95539E+2
  -7.31145E+2   1.10147E+3
   2.87665E+2   7.31396E+2
  -6.80467E+2  -3.82627E+2
   1.46119E+3  -4.72565E+2
  -4.79166E+2   2.95596E+2
   4.32249E+2   5.14417E+2
  -1.36624E+3  -7.48692E+2
  -3.69735E+2  -1.18509E+3
   1.06194E+3  -5.63097E+2
  -6.72374E+2   3.94225E+2
   1.21001E+3  -8.61865E+2
   1.50527E+3   1.43619E+2
   2.03719E+3   1.51692E+2
  -1.55090E+3  -3.11374E+2
  -1.13060E+3   8.81672E+2
   1.85448E+3   9.95375E+2
   4.62868E+1  -2.98724E+3
   4.18397E+2  -1.09908E+3
  -1.44930E+2  -7.05423E+2
  -1.14838E+3   3.98032E+2
  -1.14521E+3   7.29667E+2
   2.21353E+3  -2.05337E+3
  -1.63534E+3  -5.53358E+2
  -1.11867E+3  -3.71641E+2
  -5.05110E+1   6.59155E+2
   2.19116E+3  -4.30043E+2
  -6.55416E+2   8.68539E+1
  -4.66463E+0   8.31880E+1
  -4.87401E+2   6.34604E+2
  -2.16727E+3   2.67766E+2
   2.75122E+3  -9.26705E+2
   3.08109E+2  -3.46958E+2
  -8.40719E+2  -8.12631E+1
   6.03149E+2  -1.63401E+3
   1.35314E+3  -6.93421E+2
  -4.39867E+2  -2.94302E+2
  -1.51658E+3   1.18855E+3
   1.41482E+3  -6.90394E+2
   3.99533E+2   7.15246E+1
   1.16353E+2   5.60327E+2
  -7.54868E+2   3.38972E+2
  -1.91612E+3  -8.13995E+2
  -1.60442E+2  -7.86460E+2
   5.43015E+2  -2.15941E+2
   5.05556E+2  -3.24295E+2
  -6.45172E+2  -1.21064E+3
  -1.40173E+3   9.01674E+1
  -2.77777E+2   7.14998E+2
  -1.32679E+3  -1.32303E+3
  -6.84829E+2   1.84309E+2
   3.55522E+1   1.23888E+3
  -9.46556E+1   3.67636E+2
  -1.21279E+3   9.23354E+2
  -2.28088E+2   1.21017E+3
   3.58421E+2   8.09787E+2
   7.30006E+1   2.03715E+3
  -1.52591E+3  -1.61660E+2
  -2.83283E+1  -1.06862E+3
   9.92931E+2  -8.31956E+2
  -7.01598E+2   2.98370E+2
  -5.07163E+2  -1.93138E+3
   1.34880E+3  -1.33238E+3
   3.39427E+2  -3.56144E+2
  -6.70507E+2  -7.07843E+1
  -2.85263E+1   1.82655E+3
   1.79169E+3  -1.00140E+3
   2.77591E+2  -2.71428E+2
   4.86422E+2   2.47859E+2
  -1.57439E+2  -5.51992E+2
  -4.25076E+2  -3.51617E+2
   3.46731E+1   9.46842E+2
   5.05782E+2   8.84848E+2
   5.97485E+2  -2.43895E+2
  -5.60094E+2  -1.32886E+2
   1.56320E+2  -1.27676E+3
   1.44963E+3   1.08170E+3
