 
 $NMID
 ID=''
 FMTDAT='(2E13.5)'
 TRAMP=   1.00000E+0
 VOLUME=   1.00000E+0
 $END
   5.10836E+2   2.28027E+1
   5.75807E+2  -3.50550E+2
   1.32277E+3  -1.72008E+3
  -2.05705E+3  -1.67832E+3
  -2.51188E+3  -4.85610E+1
  -1.27868E+2   3.05171E+2
  -8.58092E+2  -3.51321E+2
   1.14658E+3   5.78598E+1
   6.19482E+2  -6.84897E+2
   3.91674E+0   1.40452E+3
  -2.28549E+2  -4.05063E+2
  -7.43162E+2  -2.50328E+3
  -2.12260E+3  -3.12761E+3
  -6.12716E+1  -1.46430E+3
  -9.84950E+2  -2.05283E+2
  -3.90991E+2   1.62592E+3
   5.34018E+2   4.26332E+2
   2.20803E+3   2.35050E+3
  -1.06659E+3  -9.10092E+2
  -2.19322E+3  -3.07655E+3
   4.72776E+2  -2.30560E+3
   7.26581E+2  -7.69507E+2
   2.51218E+2   1.73963E+3
   2.01030E+2   1.31650E+3
  -1.08338E+3  -1.96694E+3
  -1.17334E+3  -1.84478E+3
  -2.70080E+2   1.06322E+3
  -1.73271E+3   4.08163E+3
   1.36313E+3   4.20040E+3
  -1.40973E+3   1.63276E+3
  -1.56374E+3   1.25230E+1
   2.03721E+3  -1.10300E+3
   2.29448E+3   1.28103E+3
   7.69206E+2   3.03806E+3
   7.53783E+2  -6.72295E+2
   1.04069E+3   8.58667E+1
   3.41002E+2   2.21336E+3
  -2.00139E+3   1.36027E+1
  -3.04380E+3  -8.11077E+2
  -1.19846E+3   3.28703E+2
   9.77677E+2   1.03164E+3
   3.91413E+3   7.21064E+2
   5.66295E+2   3.75683E+3
   3.24770E+3   1.25320E+3
   2.28542E+3  -2.34629E+3
   7.21520E+1  -3.77554E+3
   1.55866E+3  -3.18457E+3
  -6.57808E+2  -3.06282E+3
   1.50356E+3  -1.62535E+3
   4.21347E+2  -3.63863E+3
   2.29950E+2  -2.68515E+3
   5.60454E+2  -4.15489E+2
   4.86339E+2   1.89773E+2
  -2.89831E+3  -2.80139E+3
   1.45604E+3  -2.71963E+3
  -5.83465E+2   1.03684E+3
  -4.53432E+1  -1.05181E+3
   2.23148E+3   7.22037E+2
   2.85521E+3   1.49003E+3
  -1.11206E+3   2.21861E+3
   1.49050E+2   2.20686E+3
  -2.53196E+3   2.24213E+3
  -2.93485E+3  -1.18539E+3
   6.23443E+2  -1.35620E+3
  -2.39350E+3   6.05566E+2
  -3.53387E+3  -9.20913E+1
  -2.39725E+3   1.24984E+3
   1.02168E+3  -2.37251E+3
   2.43101E+3  -2.35235E+2
   4.85362E+2   1.29250E+3
   1.42672E+3  -1.47834E+3
   1.84884E+3  -7.13431E+2
   1.63636E+3  -1.61298E+3
   2.28622E+3  -5.89062E+2
  -1.56045E+3  -7.03337E+1
  -2.12870E+2   2.63026E+3
  -2.37704E+3  -1.22621E+3
  -2.38026E+2   5.93010E+2
  -1.10876E+3  -1.69398E+2
  -2.04217E+3   6.66959E+2
  -4.50100E+2   1.18438E+3
  -1.04498E+3  -3.12117E+2
   3.35048E+2   1.34256E+3
  -1.38713E+3   1.70351E+3
   5.56711E+1  -1.66836E+3
   5.49295E+2  -1.10700E+3
   3.00570E+3   3.51212E+2
   2.20899E+3   1.74112E+3
   1.68332E+3   8.64535E+2
   7.61969E+2  -1.46856E+3
   8.54646E+2   6.25508E+2
   2.23906E+3   9.96556E+2
  -2.34376E+3   1.29923E+3
  -1.80782E+3   1.10427E+2
  -9.23636E+2  -4.32224E+2
   1.80341E+3   5.56425E+2
  -3.00500E+2   3.60818E+2
  -3.87226E+2   1.42268E+3
  -1.56360E+3  -1.40704E+3
  -2.68677E+2  -8.27626E+2
  -5.56562E+2   3.23009E+2
   1.62375E+3   1.22699E+3
   8.30733E+2   2.79850E+3
  -3.39080E+3   8.80822E+2
  -3.06992E+2   1.25220E+2
   5.77281E+2  -7.98947E+1
   5.98486E+2   1.05525E+3
   1.31002E+3  -4.05695E+2
  -1.25741E+3  -6.38123E+2
   6.53804E+2  -2.40338E+3
   1.59986E+3   1.01195E+3
   7.33897E+2   2.40939E+3
   1.30936E+3   1.40943E+3
  -8.81450E+2   1.40934E+3
   4.94355E+1   1.45756E+3
   8.06730E+2  -2.71894E+2
  -1.58436E+3  -7.17937E+2
   1.94353E+3   1.36510E+3
   1.60801E+3  -7.26827E+2
  -3.42150E+2   1.38226E+3
  -1.04773E+3   1.73997E+3
  -5.68483E+2   1.24846E+2
  -9.55687E+2  -1.00871E+3
  -3.60997E+2  -3.15245E+2
  -1.83548E+3  -4.42140E+2
  -2.01273E+3   1.73613E+3
  -5.79693E+2  -7.88679E+2
   2.66755E+2  -1.25220E+3
  -1.13409E+3   1.63235E+3
   1.29323E+3   2.36669E+2
   9.55807E+2  -4.75520E+2
   8.00030E+2   9.19534E+2
   1.44137E+3   3.85902E+2
   3.90101E+2   4.84103E+2
   1.13320E+3   2.10888E+2
  -3.65930E+2  -1.02867E+3
  -1.92364E+3   1.16196E+3
  -1.73385E+2   1.56816E+2
  -1.58390E+3   4.70913E+2
  -1.58814E+3   4.17725E+2
  -1.40100E+3   1.34146E+3
  -8.07061E+2   1.52694E+2
   3.75150E+2   4.55482E+2
  -8.38136E+2   9.67365E+2
  -1.83323E+3  -4.93714E+2
  -1.63422E+3   8.93120E+2
  -2.70385E+2  -9.33299E+2
   1.41482E+3   4.07292E+2
   6.62814E+2  -8.52936E+2
   4.76371E+2  -7.13828E+2
  -1.47766E+3   1.35210E+3
  -1.08563E+3  -6.62457E+2
  -1.00967E+3  -1.20132E+3
   1.02670E+2   7.41488E+2
   7.09850E+2   1.43281E+3
  -1.44738E+2  -1.17223E+3
  -7.93791E+2  -6.07913E+1
   8.81735E+2   1.66282E+3
  -5.35670E+2  -9.57465E+2
  -4.08185E+2  -1.15767E+3
  -8.09228E+2  -1.65332E+3
  -1.79608E+3   2.54109E+3
  -2.66856E+3  -2.05058E+3
  -1.03933E+3  -1.99541E+3
   1.65159E+2   9.72662E+2
   5.44315E+2  -2.49055E+2
   8.62299E+1  -3.53980E+3
   1.24729E+3  -9.31112E+2
   1.27750E+3  -1.03496E+3
  -3.85806E+2   9.53671E+2
   4.92358E+2   2.26352E+3
  -1.01243E+3   2.10304E+2
   1.99401E+3  -3.78868E+2
   3.14106E+2   8.57413E+2
  -1.14079E+3  -3.74081E+2
  -1.64785E+3   1.34362E+3
   1.36109E+0  -2.57442E+2
   2.63169E+1  -9.00032E+2
  -4.91556E+2  -7.88695E+1
  -5.43119E+2   6.55670E+1
  -2.09310E+3   1.14394E+2
  -1.61506E+3  -1.54725E+3
  -4.97423E+2   5.52554E+2
  -1.09616E+3  -9.01775E+2
   1.93870E+3  -1.42383E+3
  -1.34464E+3  -2.07897E+2
  -4.65193E+1  -2.71099E+3
  -3.25870E+2   1.40152E+2
  -8.76692E+2   1.22947E+3
  -1.76818E+3  -1.77080E+3
  -1.46208E+3  -9.64998E+2
   2.40146E+2   7.02996E+2
   3.64916E+2   1.39310E+3
   1.13578E+3   2.43066E+2
  -1.25380E+3   4.05684E+2
  -2.74951E+2   3.09207E+2
   2.16168E+3  -9.24797E+2
  -1.81621E+3  -7.20176E+2
   8.58776E+2   6.31686E+2
   2.39526E+1  -1.80254E+3
   1.40951E+3  -3.49146E+3
  -1.71344E+2  -8.99251E+2
  -1.63570E+1   1.62225E+3
  -1.16901E+3   6.97874E+2
  -1.07321E+3  -1.82340E+3
   9.60050E+2   3.21828E+2
   2.18241E+3  -2.20168E+2
  -2.36098E+2  -6.25543E+2
  -5.77795E+2  -4.32637E+2
   1.20659E+3  -5.69393E+2
  -4.21665E+2   1.54783E+3
   7.37172E+1   7.17789E+2
   2.13985E+1   1.29118E+3
  -9.76257E+2  -2.15866E+2
  -2.86537E+2   1.18422E+3
   8.81004E+2   8.27143E+2
   1.38870E+3   5.04889E+2
  -3.44035E+2   9.21972E+2
  -2.31180E+3   9.10598E+2
   5.75539E+1  -2.39153E+2
  -1.46308E+3  -9.03470E+2
   1.52057E+3   2.88712E+3
   1.37035E+3  -3.97218E+2
   7.79493E+2  -4.03117E+2
  -8.32401E+2  -4.44421E+2
  -2.00281E+3   1.10244E+3
   1.34165E+2   5.73742E+2
  -1.40961E+1   2.90371E+2
   1.13611E+3  -1.42582E+3
  -3.80229E+2  -5.85541E+2
   1.32071E+3  -5.51259E+2
   1.58467E+3   1.09389E+3
  -1.05139E+2   9.09197E+2
   3.88559E+2   2.73881E+3
  -1.05984E+3   3.25096E+2
  -1.61644E+3  -4.66714E+2
   2.92820E+2  -2.36769E+2
   1.89256E+2   1.77299E+2
  -5.38775E+2   1.77488E+3
  -1.72229E+2   9.12342E+2
   1.16091E+3  -5.66334E+2
  -4.38628E+2  -2.03066E+3
   2.48299E+2  -4.57215E+2
  -2.51886E+2   1.16228E+3
   1.07127E+3  -2.50416E+2
   9.51263E+1   4.50892E+1
  -5.67668E+1  -1.65029E+3
   7.50085E+2   7.93676E+2
  -7.42719E+2   1.04863E+3
   8.69266E+2   7.36211E+1
   9.15749E+2  -1.02472E+3
   2.38053E+2  -3.29740E+2
   4.66930E+2   5.32151E+2
   1.58653E+3  -5.72681E+2
  -5.85425E+2  -1.21075E+3
   9.54393E+2   1.07367E+3
  -5.21423E+2  -2.30094E+2
   4.39705E+2   2.97989E+2
   1.12323E+3  -1.31992E+2
  -3.64169E+2  -7.35477E+2
   1.60828E+3  -2.01982E+3
  -5.60133E+2   9.13154E+2
  -1.85177E+2  -2.51438E+2
   1.04513E+3  -7.56826E+2
   3.81674E+2   1.10913E+1
   1.00990E+3  -1.49680E+2
   1.56712E+3  -3.12021E+1
  -1.43746E+3  -1.60015E+3
   2.74879E+3  -8.04064E+2
   4.06924E+2  -1.13010E+3
   2.16942E+3   2.86084E+2
  -1.94138E+3  -3.00254E+3
   8.34604E+2   7.91978E+2
   4.57944E+2  -8.74020E+2
  -1.34883E+3  -3.09174E+2
   6.93132E+2   3.45068E+1
   6.54616E+2  -1.69884E+2
   1.64593E+3  -2.46116E+2
   2.63682E+3   6.23541E+2
  -4.40346E+2  -4.93467E+2
  -4.52229E+2  -1.50872E+3
  -2.89978E+2  -2.98767E+2
   1.31360E+3  -1.26874E+3
   2.45403E+2  -1.25000E+3
  -4.62540E+2  -5.76166E+2
   1.17467E+3   1.23672E+2
  -6.36948E+2   2.45874E+3
   2.10409E+3  -1.02112E+3
   3.69189E+2   8.01586E+2
  -1.26780E+3   1.02866E+3
   7.94813E+2  -7.08796E+2
  -8.52832E+2   1.77672E+3
   2.65496E+2  -4.72044E+2
  -2.19437E+2  -3.33239E+2
   7.68609E+2  -3.43830E+2
   5.41136E+2   5.51032E+2
  -2.06958E+3   1.29563E+3
  -3.90915E+2  -1.11898E+3
   1.63561E+3   3.25362E+3
  -1.79040E+3  -9.93974E+2
   1.08508E+3  -2.22734E+3
   1.01762E+3  -2.32572E+3
   1.27327E+1   3.14074E+3
   1.66762E+2  -2.02266E+3
   6.66715E+2  -1.44474E+3
  -1.03756E+3   4.04529E+2
  -1.26192E+3   2.98759E+2
   2.74698E+2   8.03191E+2
  -1.88104E+3   6.76080E+2
  -1.69577E+2  -1.23238E+3
  -2.43702E+3  -1.49097E+2
   5.11839E+2   5.64990E+2
   3.60917E+2  -6.38552E+2
  -6.26287E+2   5.97330E+2
  -7.70870E+2   2.63494E+2
   8.00923E+2   7.78097E+2
   9.37906E+1   3.61014E+3
  -1.33531E+3  -1.34314E+2
   4.41672E+2  -1.69246E+3
   1.40123E+3  -7.76192E+2
  -4.64399E+2   1.03630E+3
   9.66705E+2  -7.25751E+2
   1.00937E+2  -1.49075E+3
   6.28332E+2  -1.85017E+2
   1.59719E+3   6.67683E+2
  -1.77024E+3  -2.03695E+2
   5.58210E+2  -2.57213E+2
  -5.52814E+2   1.39345E+3
   1.60553E+3  -1.21123E+3
   8.55244E+2  -2.51365E+3
  -9.33918E+1   3.61444E+2
   4.25294E+2  -8.94490E+2
   1.27181E+3  -3.36156E+2
   1.65108E+3   7.23919E+2
  -1.13575E+3  -2.19717E+2
  -1.16075E+3   2.18485E+2
   1.12007E+3   1.11251E+3
   1.85325E+3   3.11432E+2
   9.05240E+2   1.21102E+3
  -1.45546E+2   1.26436E+3
  -4.65904E+0   8.98415E+2
  -3.41884E+2  -1.85709E+2
   1.29345E+3  -1.76501E+3
   5.09037E+1   1.30451E+3
   6.75656E+2   2.23866E+3
  -2.89973E+1   1.04391E+3
   8.36921E+2   2.97877E+2
   2.27968E+2   5.25438E+2
   8.03263E+2  -8.47293E+1
   1.03674E+3   1.01368E+3
   1.75401E+3   6.46900E+2
   6.70601E+1   4.58631E+1
   7.02826E+2   4.01402E+2
   1.47585E+3  -2.17757E+2
   2.53687E+3   7.25814E+2
  -1.94701E+3   1.61244E+3
   1.69093E+3   2.28301E+2
   2.00896E+3  -8.00716E+2
   4.53988E+2  -1.16020E+3
  -2.17576E+2   9.94233E+2
   7.92859E+2  -7.31728E+1
   1.73051E+3   5.25347E+2
   1.09160E+3   4.12843E+2
   1.10129E+3   8.74489E+2
   2.32969E+2  -1.25593E+3
   4.37014E+2   6.05970E+2
   2.02068E+3   1.23937E+3
