 LCModel (Version 6.3-1N) Copyright: S.W. Provencher.          Ref.: Magn. Reson. Med. 30:672-679 (1993).                
 Slice_N1@17_17  02-Jun-2023 14:37:07
 27 lines in following concentration table = NCONC+1
    Conc.  %SD /Cr+PCr  Metabolite                                         
 8.58E-07  34% 1.3E-04 Mac                                                 
 2.78E-02  30%   4.243 Cr                                                  
 2.46E-02  34%   3.757 PCr                                                 
 5.78E-02  12%   8.833 Ins                                                 
 6.11E-02   9%   9.330 NAA                                                 
 5.55E-02  12%   8.478 Tau                                                 
 1.50E-02  47%   2.288 PCho                                                
 1.33E-03 538%   0.203 GPC                                                 
 4.94E-02  16%   7.538 Glu                                                 
 6.79E-03  77%   1.037 Gln                                                 
    0.000 999%   0.000 Ala                                                 
 3.45E-02  34%   5.263 Asc                                                 
 3.22E-03 184%   0.492 Asp                                                 
 5.69E-03  57%   0.869 GABA                                                
 5.74E-03  68%   0.877 Glc                                                 
 3.89E-03  64%   0.594 GSH                                                 
 3.18E-03 201%   0.486 Lac                                                 
    0.000 999%   0.000 NAAG                                                
    0.000 999%   0.000 PE                                                  
 1.63E-02  11%   2.491 GPC+PCho                                            
 6.11E-02   9%   9.330 NAA+NAAG                                            
 5.62E-02  16%   8.575 Glu+Gln                                             
 5.24E-02  10%   8.000 Cr+PCr                                              
 6.11E-02   9%   9.330 NAA+NAAG                                            
 5.24E-02  10%   8.000 Cr+PCr                                              
 5.62E-02  16%   8.575 Glu+Gln                                             
   6 lines in following misc. output table
  FWHM = 0.029 ppm    S/N =   3                                            
  Data shift = 0.023 ppm                                                   
  Ph: -22 deg      -9.2 deg/ppm                                            
  alphaB,S = 3.1E+01,   2.6E+01                                            
   18 spline knots.   Ns = 5(1)                                            
   2 inflections.     1 extrema                                            
  654 points on ppm-axis = NY
      4.000000     3.994181     3.988363     3.982544     3.976726     3.970907     3.965088     3.959270     3.953451     3.947633
      3.941814     3.935995     3.930177     3.924358     3.918540     3.912721     3.906902     3.901084     3.895265     3.889446
      3.883628     3.877809     3.871991     3.866172     3.860353     3.854535     3.848716     3.842898     3.837079     3.831260
      3.825442     3.819623     3.813805     3.807986     3.802167     3.796349     3.790530     3.784712     3.778893     3.773074
      3.767256     3.761437     3.755619     3.749800     3.743981     3.738163     3.732344     3.726526     3.720707     3.714888
      3.709070     3.703251     3.697433     3.691614     3.685795     3.679977     3.674158     3.668339     3.662521     3.656702
      3.650884     3.645065     3.639246     3.633428     3.627609     3.621791     3.615972     3.610153     3.604335     3.598516
      3.592698     3.586879     3.581060     3.575242     3.569423     3.563605     3.557786     3.551967     3.546149     3.540330
      3.534512     3.528693     3.522874     3.517056     3.511237     3.505419     3.499600     3.493781     3.487963     3.482144
      3.476326     3.470507     3.464688     3.458870     3.453051     3.447232     3.441414     3.435595     3.429777     3.423958
      3.418139     3.412321     3.406502     3.400684     3.394865     3.389046     3.383228     3.377409     3.371591     3.365772
      3.359953     3.354135     3.348316     3.342498     3.336679     3.330860     3.325042     3.319223     3.313405     3.307586
      3.301767     3.295949     3.290130     3.284312     3.278493     3.272674     3.266856     3.261037     3.255219     3.249400
      3.243581     3.237763     3.231944     3.226125     3.220307     3.214488     3.208670     3.202851     3.197032     3.191214
      3.185395     3.179577     3.173758     3.167939     3.162121     3.156302     3.150484     3.144665     3.138846     3.133028
      3.127209     3.121391     3.115572     3.109753     3.103935     3.098116     3.092298     3.086479     3.080660     3.074842
      3.069023     3.063205     3.057386     3.051567     3.045749     3.039930     3.034111     3.028293     3.022474     3.016656
      3.010837     3.005018     2.999200     2.993381     2.987563     2.981744     2.975925     2.970107     2.964288     2.958470
      2.952651     2.946832     2.941014     2.935195     2.929377     2.923558     2.917739     2.911921     2.906102     2.900284
      2.894465     2.888646     2.882828     2.877009     2.871191     2.865372     2.859553     2.853735     2.847916     2.842098
      2.836279     2.830460     2.824642     2.818823     2.813004     2.807186     2.801367     2.795549     2.789730     2.783911
      2.778093     2.772274     2.766456     2.760637     2.754818     2.749000     2.743181     2.737363     2.731544     2.725725
      2.719907     2.714088     2.708270     2.702451     2.696632     2.690814     2.684995     2.679177     2.673358     2.667539
      2.661721     2.655902     2.650084     2.644265     2.638446     2.632628     2.626809     2.620991     2.615172     2.609353
      2.603535     2.597716     2.591897     2.586079     2.580260     2.574442     2.568623     2.562804     2.556986     2.551167
      2.545349     2.539530     2.533711     2.527893     2.522074     2.516256     2.510437     2.504618     2.498800     2.492981
      2.487163     2.481344     2.475525     2.469707     2.463888     2.458070     2.452251     2.446432     2.440614     2.434795
      2.428977     2.423158     2.417339     2.411521     2.405702     2.399884     2.394065     2.388246     2.382428     2.376609
      2.370790     2.364972     2.359153     2.353335     2.347516     2.341697     2.335879     2.330060     2.324242     2.318423
      2.312604     2.306786     2.300967     2.295149     2.289330     2.283511     2.277693     2.271874     2.266056     2.260237
      2.254418     2.248600     2.242781     2.236963     2.231144     2.225325     2.219507     2.213688     2.207870     2.202051
      2.196232     2.190414     2.184595     2.178777     2.172958     2.167139     2.161321     2.155502     2.149683     2.143865
      2.138046     2.132228     2.126409     2.120590     2.114772     2.108953     2.103135     2.097316     2.091497     2.085679
      2.079860     2.074042     2.068223     2.062404     2.056586     2.050767     2.044949     2.039130     2.033311     2.027493
      2.021674     2.015856     2.010037     2.004218     1.998400     1.992581     1.986763     1.980944     1.975126     1.969307
      1.963489     1.957670     1.951852     1.946033     1.940215     1.934397     1.928578     1.922760     1.916941     1.911123
      1.905304     1.899486     1.893667     1.887849     1.882030     1.876212     1.870393     1.864575     1.858756     1.852938
      1.847119     1.841301     1.835482     1.829664     1.823845     1.818027     1.812208     1.806390     1.800571     1.794753
      1.788934     1.783116     1.777297     1.771479     1.765660     1.759842     1.754023     1.748205     1.742386     1.736568
      1.730749     1.724931     1.719113     1.713294     1.707476     1.701657     1.695839     1.690020     1.684202     1.678383
      1.672565     1.666746     1.660928     1.655109     1.649291     1.643472     1.637654     1.631835     1.626017     1.620198
      1.614380     1.608561     1.602743     1.596924     1.591106     1.585287     1.579469     1.573650     1.567832     1.562013
      1.556195     1.550376     1.544558     1.538739     1.532921     1.527102     1.521284     1.515465     1.509647     1.503829
      1.498010     1.492192     1.486373     1.480555     1.474736     1.468918     1.463099     1.457281     1.451462     1.445644
      1.439825     1.434007     1.428188     1.422370     1.416551     1.410733     1.404914     1.399096     1.393277     1.387459
      1.381640     1.375822     1.370003     1.364185     1.358366     1.352548     1.346729     1.340911     1.335092     1.329274
      1.323455     1.317637     1.311818     1.306000     1.300182     1.294363     1.288545     1.282726     1.276908     1.271089
      1.265271     1.259452     1.253634     1.247815     1.241997     1.236178     1.230360     1.224541     1.218723     1.212904
      1.207086     1.201267     1.195449     1.189630     1.183812     1.177993     1.172175     1.166356     1.160538     1.154719
      1.148901     1.143082     1.137264     1.131445     1.125627     1.119808     1.113990     1.108171     1.102353     1.096534
      1.090716     1.084898     1.079079     1.073261     1.067442     1.061624     1.055805     1.049987     1.044168     1.038350
      1.032531     1.026713     1.020894     1.015076     1.009257     1.003439     0.997620     0.991802     0.985983     0.980165
      0.974346     0.968528     0.962709     0.956891     0.951072     0.945254     0.939435     0.933617     0.927798     0.921980
      0.916161     0.910343     0.904524     0.898706     0.892887     0.887069     0.881251     0.875432     0.869614     0.863795
      0.857977     0.852158     0.846340     0.840521     0.834703     0.828884     0.823066     0.817247     0.811429     0.805610
      0.799792     0.793973     0.788155     0.782336     0.776518     0.770699     0.764881     0.759062     0.753244     0.747425
      0.741607     0.735788     0.729970     0.724151     0.718333     0.712514     0.706696     0.700877     0.695059     0.689240
      0.683422     0.677603     0.671785     0.665967     0.660148     0.654330     0.648511     0.642693     0.636874     0.631056
      0.625237     0.619419     0.613600     0.607782     0.601963     0.596145     0.590326     0.584508     0.578689     0.572871
      0.567052     0.561234     0.555415     0.549597     0.543778     0.537960     0.532141     0.526323     0.520504     0.514686
      0.508867     0.503049     0.497230     0.491412     0.485593     0.479775     0.473956     0.468138     0.462319     0.456501
      0.450682     0.444864     0.439045     0.433227     0.427408     0.421590     0.415771     0.409953     0.404134     0.398316
      0.392497     0.386679     0.380860     0.375042     0.369223     0.363405     0.357586     0.351767     0.345949     0.340130
      0.334312     0.328493     0.322675     0.316856     0.311038     0.305219     0.299401     0.293582     0.287764     0.281945
      0.276127     0.270308     0.264490     0.258671     0.252853     0.247034     0.241216     0.235397     0.229579     0.223760
      0.217942     0.212123     0.206305     0.200486
 NY phased data points follow
  -8.82604E-02  3.73312E-02 -4.88828E-03  7.65643E-02 -3.04201E-01 -5.18072E-02 -1.99633E-01 -4.64678E-01 -1.14711E-01 -5.06114E-01
   1.70226E-02  5.10282E-01  6.06435E-01  4.17346E-01 -3.22763E-02  4.96076E-01  5.13054E-01 -8.16651E-02  1.13687E-02  2.62782E-01
   2.45683E-01 -1.57264E-01 -2.64200E-01  6.09121E-02  4.00411E-02 -7.82119E-02  1.33082E-02  5.70080E-02 -1.86612E-01  6.43039E-02
  -7.07565E-02 -4.00047E-02  1.94347E-01 -1.44895E-01 -2.49970E-01 -4.45995E-01 -2.17250E-01 -3.77839E-01 -5.39560E-01 -2.18815E-01
   1.85117E-01  1.83821E-01  3.08317E-02  1.82151E-01  1.29311E-01  3.96539E-01  3.27318E-01  2.96121E-01  2.38346E-01  1.73219E-01
   1.48028E-01 -1.21903E-01  1.57201E-01  1.39040E-01 -1.02319E-01 -7.03895E-02 -4.85164E-02 -5.86542E-02 -5.40485E-02 -7.49119E-02
  -2.90854E-01 -1.48860E-01 -1.43179E-01 -3.48504E-01  9.04408E-03 -1.41069E-01 -1.30625E-01  1.49473E-01  2.18537E-02  2.20167E-01
  -7.47449E-04 -1.11666E-01  3.43393E-02 -9.07651E-02  1.42312E-01 -1.45879E-01 -1.67617E-01  2.31005E-02 -3.23265E-01 -1.39078E-01
  -2.79002E-01 -2.06476E-01  2.20029E-01  2.33663E-01  3.29042E-01  4.66281E-01  2.79958E-01  1.13147E-01  3.14786E-01  2.50457E-01
   3.20891E-02  7.91222E-02  2.90312E-01  2.71329E-03 -3.33837E-02 -1.46155E-02 -2.02242E-01 -1.16587E-01 -1.46700E-01 -1.25654E-01
  -1.55511E-01 -5.97974E-02  7.53271E-02  2.52963E-01  1.03166E-01  1.90560E-01  3.64413E-01  1.51790E-01  3.42545E-01  3.73197E-01
   3.41882E-01  3.61106E-01  2.33847E-01  3.08663E-01  2.63289E-01  3.00123E-01  3.45656E-01  1.47357E-01  3.69946E-01  3.68265E-01
   3.58102E-01  2.57270E-01  1.92224E-01  2.70199E-01 -1.38806E-03 -2.18293E-01 -2.04235E-01 -2.67694E-02 -2.59634E-01 -2.42862E-01
  -4.60723E-01 -5.15936E-01 -2.98854E-01 -3.93597E-01 -4.08207E-01 -5.52230E-01 -9.20651E-01 -1.01055E+00 -7.95022E-01 -5.35260E-01
  -3.24917E-02 -4.08401E-01 -2.00495E-01 -1.48398E-01 -1.42274E-01  1.59180E-01  2.13252E-02  2.07144E-01  4.79362E-02  2.06841E-01
   6.40947E-02  2.98609E-01  1.24777E-02  5.49244E-02  3.22413E-01 -1.20941E-01  1.94895E-01  4.00133E-01  5.14810E-01 -4.71842E-02
   2.01542E-01  6.57048E-01  4.43747E-01  2.38130E-01  6.00555E-01  7.98263E-01  3.29985E-01  2.57663E-01 -5.16016E-01 -6.23304E-01
  -6.15719E-01 -5.03654E-01 -3.84957E-02 -3.26313E-01 -2.86154E-01 -2.95716E-01 -3.90066E-01 -2.29633E-01 -1.15141E-02 -4.05176E-01
  -3.77720E-01 -7.82939E-02 -3.26423E-01 -1.89299E-01 -2.58794E-01 -1.00210E-01 -2.62353E-01 -5.44740E-01 -1.61639E-01 -2.72638E-02
   4.86883E-02 -2.59817E-01 -3.95956E-01 -1.24023E-01  6.05594E-02  8.10662E-02 -5.26515E-02 -2.14304E-01  2.17043E-02  1.65765E-01
  -1.11169E-01 -2.38434E-01 -2.58885E-01  1.25316E-01 -4.33865E-02 -1.27928E-01 -4.12777E-03 -9.60129E-02 -4.98856E-02 -5.06790E-02
   8.10538E-03  5.21906E-02  3.89510E-01 -1.55432E-01 -7.12942E-02  2.92863E-01  8.76302E-02  2.01517E-01 -2.51389E-01  4.98699E-02
   1.32201E-01 -9.66376E-02  3.22969E-01  2.66593E-01  8.63883E-02 -5.74887E-04  8.67039E-02  3.73160E-01  7.89008E-02 -1.10904E-01
   2.07643E-01  9.54133E-02  4.08084E-01  3.52255E-01 -3.22937E-01 -8.72678E-02  3.38954E-02 -1.38172E-02  5.69779E-02 -7.63608E-02
   6.39414E-02  2.84327E-01 -8.58479E-02 -2.65005E-01  2.12279E-02 -3.95608E-02  1.58690E-01  4.06715E-02 -9.02099E-02  1.60117E-01
   1.64181E-01  1.01618E-01 -1.74723E-01 -1.78907E-01  4.70188E-02 -5.15860E-02 -2.70628E-01 -8.21296E-02 -8.97598E-02  7.56339E-02
   1.72651E-01 -2.30805E-01 -2.08514E-04  1.79646E-01  1.84445E-01  6.84112E-02 -6.65924E-02  1.93073E-01  2.28057E-01  5.80318E-02
   1.05209E-01 -1.71149E-01 -2.80881E-01  1.10795E-01 -7.56938E-02 -4.48793E-01 -2.61457E-01 -1.28045E-01 -2.48933E-01 -1.45489E-01
  -1.57966E-01 -1.06100E-01 -6.74458E-02  3.76966E-02  1.09791E-02 -1.42088E-01  2.99576E-01  4.83858E-01  2.50051E-01  2.13743E-01
   3.66297E-01  9.87127E-02 -6.26340E-03 -9.75562E-03 -6.38189E-02  1.61274E-01  2.65307E-01  2.30835E-01 -1.67954E-02  2.26233E-01
   2.74278E-01  1.07354E-02 -1.33292E-01  1.35054E-03  4.03263E-01  1.16989E-01  5.25344E-02  1.27132E-01  2.68312E-02  2.60236E-01
   2.62957E-01  1.67669E-03  1.16947E-01  5.53663E-02  5.02427E-02  3.93425E-01  1.81279E-01 -1.20985E-01 -2.72095E-01 -1.20658E-02
  -7.71532E-03 -1.56825E-01 -8.78026E-02 -9.47138E-02  8.01238E-02 -3.29635E-02 -3.47801E-02  2.51279E-02  1.10052E-01 -9.66507E-02
   2.30048E-02  1.78424E-01  6.40327E-02 -4.73147E-02 -1.64096E-01 -3.69179E-02 -2.09167E-01 -2.89779E-02 -4.05632E-01 -1.65397E-01
  -1.44029E-01 -8.33861E-01 -1.18072E+00 -1.48236E+00 -8.05888E-01 -3.89136E-01  8.87458E-02 -1.50436E-01 -1.58378E-01  1.65339E-01
  -5.87822E-02  3.83669E-02  9.01290E-02  1.33488E-01  1.55335E-01  1.12272E-01  5.39730E-03  3.30554E-01  1.46192E-02  3.03340E-01
   3.37110E-01 -3.57136E-02  2.43726E-01 -4.85924E-03 -2.74672E-02 -1.22763E-01  2.63830E-01  1.09153E-01  1.45921E-01  2.83811E-01
  -1.49631E-01  2.89815E-02 -5.79272E-02  2.01790E-01  1.44797E-01 -1.89981E-02  1.67803E-01  9.20712E-02  1.89924E-01 -1.05645E-02
  -1.52360E-01  4.96626E-02  2.22757E-02 -9.50828E-02 -8.19220E-03  3.88245E-02  6.52079E-02  3.20651E-02 -4.60672E-02  2.21876E-01
   3.33120E-01  1.42688E-01  1.12262E-01  3.23845E-01  1.24806E-01  6.11720E-02  4.13857E-01  2.35368E-01  1.65434E-01  2.16220E-01
   2.69756E-02 -1.44817E-01  4.34638E-02 -8.39217E-02 -2.59335E-01 -2.44414E-01 -2.11922E-01  7.96118E-02  2.93715E-04  1.80067E-01
   1.06219E-01 -8.11813E-02  2.05083E-01  8.17043E-02 -1.30412E-01  2.95036E-02 -9.14563E-03 -8.36316E-02 -2.48339E-01 -1.81460E-01
   1.67373E-01 -9.51466E-02 -1.00534E-01 -1.26801E-01 -1.23518E-01 -2.08622E-02  3.11182E-02 -9.64133E-02 -2.02770E-01 -8.73092E-02
  -3.32993E-01 -1.95511E-01 -5.80659E-02  2.05972E-03  4.23910E-02  4.49943E-03  6.08680E-02 -1.02453E-01 -6.00442E-02 -7.88138E-02
  -3.30104E-01  7.86902E-03 -7.27389E-02 -1.43346E-01  1.47757E-01 -2.02349E-01  8.12220E-02  1.16789E-01  1.63012E-02  1.30871E-01
  -7.87318E-02  8.16113E-02 -1.95453E-02 -6.75513E-02 -7.43707E-03 -3.57517E-01 -1.95776E-01 -7.40402E-02 -2.45455E-01 -1.91541E-01
  -1.49748E-01  5.59174E-02  2.23076E-02  1.60428E-01  3.09437E-02 -1.04816E-01 -9.30703E-02 -6.24862E-02  1.82686E-01 -5.58555E-02
  -1.57857E-02 -1.67932E-02  2.00381E-01  4.10416E-02 -9.20077E-02  3.17244E-01  8.73380E-02  6.22286E-02  7.62572E-02  1.38427E-01
   9.79620E-02  7.70862E-03  1.33082E-01  2.28362E-02  1.15583E-01 -1.33423E-01 -3.77892E-01 -2.23687E-02  1.76570E-01 -6.92086E-02
  -6.03281E-03  2.71559E-01 -8.01210E-02  5.14025E-02 -1.08607E-01 -2.25589E-01  1.29307E-01 -2.80486E-02  1.34171E-01 -1.13693E-02
   4.78264E-02 -5.80886E-02 -7.69427E-02  2.44781E-01 -9.78836E-02  9.86282E-02  2.02270E-01  5.13229E-02  2.14064E-02 -2.25106E-01
   1.01248E-01  3.36702E-01  2.14106E-01 -7.46677E-02  3.65206E-02  3.03716E-01 -6.15417E-02  3.21027E-02  1.63021E-02 -6.30126E-02
  -1.40919E-01  1.38565E-01 -8.38680E-02 -1.71578E-01  8.95600E-02 -4.10026E-01  1.42023E-03 -3.22229E-01 -7.62520E-02 -3.24435E-01
  -5.37479E-01  4.70756E-02 -3.53098E-01 -4.98057E-02 -1.96463E-01  1.05741E-01 -2.27702E-02 -3.53679E-01 -2.34947E-01 -1.57259E-01
  -3.25210E-01 -6.50448E-01 -9.62037E-02 -2.28979E-01 -1.37349E-01  1.60215E-01  2.16627E-01  2.02903E-01  1.89358E-01  3.27035E-01
   2.40540E-01  4.06110E-01  2.11340E-01  1.42365E-01  1.69163E-01 -4.10907E-02  9.43344E-02  8.37956E-02  9.77294E-02  1.07164E-01
   2.39265E-02 -2.19443E-01 -2.99780E-02  1.34246E-01  3.91759E-02  2.36656E-01 -5.46046E-02  1.01816E-01 -6.53710E-02 -9.01539E-02
  -1.44827E-02 -1.83390E-01  1.50971E-01 -3.91728E-02  5.70183E-02  1.02124E-01 -1.07368E-01 -2.66264E-01 -7.10137E-02 -1.56123E-01
  -3.23147E-01  1.36121E-01  2.00588E-01 -1.58520E-01  1.53390E-02  2.42684E-01 -7.05282E-02  1.92905E-02  4.32143E-02  4.33479E-02
   1.43267E-01  2.71520E-01  4.34816E-02  3.89266E-02 -6.36211E-02 -1.34300E-01  7.43264E-02 -5.70466E-01 -1.15374E-01  3.78451E-01
   5.79671E-02  5.25505E-02  1.23698E-01  1.77403E-01 -2.79391E-02 -1.11395E-01  2.44313E-01 -5.62971E-02 -2.28306E-01 -1.12410E-03
   4.66511E-02  3.52050E-01  2.20556E-02  1.00973E-01  2.19737E-01  3.70233E-02 -7.78020E-02  2.13043E-02  1.67012E-01 -9.41811E-02
  -3.72899E-02  7.49076E-02  7.97352E-02 -6.63412E-02 -9.49221E-02 -1.23914E-01  1.47667E-01  1.14833E-01 -3.48162E-02  3.87500E-02
   3.31404E-02 -5.20564E-03 -7.54116E-02  7.79460E-02  5.39891E-02  1.28373E-01  8.04005E-03  1.78759E-01  9.70216E-02 -1.05187E-02
   1.58562E-01 -8.66433E-02 -1.93057E-02  8.23480E-02  9.36614E-02  1.27454E-01  2.34223E-01  2.43031E-02  1.93410E-01  3.15518E-01
  -3.77876E-01 -2.04189E-01  1.82789E-01  1.16442E-02
 NY points of the fit to the data follow
   1.02416E-01  6.96418E-02  3.33098E-02  2.06227E-03 -1.47279E-02 -2.10455E-02 -1.66071E-02  9.26224E-03  3.17175E-02  5.75519E-02
   1.42861E-01  2.53834E-01  3.41134E-01  3.89828E-01  3.97237E-01  3.85655E-01  3.32761E-01  2.34704E-01  1.26173E-01  4.97483E-02
   2.39763E-02  8.93195E-03 -5.97886E-03 -2.06399E-02 -3.56487E-02 -4.96169E-02 -6.10893E-02 -6.95907E-02 -7.69109E-02 -8.42848E-02
  -9.23335E-02 -1.01309E-01 -1.12845E-01 -1.28202E-01 -1.48806E-01 -1.69011E-01 -1.84303E-01 -1.96989E-01 -1.96050E-01 -1.68648E-01
  -1.16210E-01 -4.09154E-02  3.75527E-02  1.08890E-01  1.77040E-01  2.31526E-01  2.57103E-01  2.50461E-01  2.20782E-01  1.85161E-01
   1.49812E-01  1.16926E-01  8.11292E-02  4.35289E-02  2.90285E-03 -4.06349E-02 -8.72616E-02 -1.35860E-01 -1.70779E-01 -2.00776E-01
  -2.32429E-01 -2.17206E-01 -1.70676E-01 -1.24392E-01 -6.51490E-02  4.01209E-03  9.35282E-02  1.87469E-01  2.54726E-01  2.90251E-01
   2.88016E-01  2.60130E-01  2.03215E-01  1.34733E-01  6.70319E-02 -1.92234E-03 -6.10425E-02 -1.37027E-01 -2.26752E-01 -2.69211E-01
  -2.31028E-01 -1.20734E-01  1.72083E-02  1.41702E-01  2.45158E-01  3.12354E-01  3.32434E-01  3.05226E-01  2.60588E-01  2.26451E-01
   1.99182E-01  1.72791E-01  1.40011E-01  1.00745E-01  4.57207E-02 -1.98185E-02 -9.98446E-02 -1.88575E-01 -2.58787E-01 -2.79406E-01
  -2.24970E-01 -9.84189E-02  5.02107E-02  1.77823E-01  2.45693E-01  2.68817E-01  2.65121E-01  2.59159E-01  2.56672E-01  2.55826E-01
   2.55596E-01  2.55190E-01  2.54749E-01  2.54284E-01  2.54307E-01  2.55075E-01  2.56188E-01  2.51350E-01  2.46563E-01  2.41342E-01
   2.12168E-01  1.74146E-01  1.36777E-01  7.92155E-02  2.53660E-02 -3.87448E-02 -1.01111E-01 -1.67776E-01 -2.58127E-01 -3.37298E-01
  -3.73538E-01 -4.04154E-01 -3.58164E-01 -2.91289E-01 -3.52394E-01 -6.02740E-01 -8.85767E-01 -9.75061E-01 -7.67976E-01 -4.60798E-01
  -2.22167E-01 -1.33906E-01 -8.85960E-02 -5.23958E-02 -2.32827E-02  8.57020E-04  2.16267E-02  3.99868E-02  5.64174E-02  7.14435E-02
   8.56396E-02  9.95204E-02  1.13512E-01  1.28115E-01  1.43743E-01  1.60960E-01  1.80639E-01  2.03657E-01  2.31318E-01  2.66160E-01
   3.14162E-01  3.87884E-01  4.43910E-01  4.61731E-01  4.99371E-01  5.08822E-01  3.56614E-01 -2.85324E-04 -4.22120E-01 -6.68256E-01
  -6.58324E-01 -5.09759E-01 -3.82124E-01 -3.27235E-01 -2.96084E-01 -2.69715E-01 -2.42806E-01 -2.19141E-01 -2.00813E-01 -1.88043E-01
  -1.76736E-01 -1.64436E-01 -1.52423E-01 -1.43162E-01 -1.37106E-01 -1.32273E-01 -1.27262E-01 -1.21347E-01 -1.15614E-01 -1.10034E-01
  -1.05005E-01 -9.97842E-02 -9.43890E-02 -8.89085E-02 -8.37872E-02 -7.90140E-02 -7.44830E-02 -6.98673E-02 -6.53508E-02 -6.12586E-02
  -5.71892E-02 -5.29889E-02 -4.90119E-02 -4.67024E-02 -4.66974E-02 -4.68478E-02 -4.52340E-02 -4.26923E-02 -4.19268E-02 -4.42997E-02
  -4.76761E-02 -4.94238E-02 -4.88679E-02 -4.71653E-02 -4.56732E-02 -4.46635E-02 -4.40742E-02 -4.37325E-02 -4.31252E-02 -4.08518E-02
  -2.96245E-02 -1.23399E-02  4.13781E-03  3.32919E-02  8.79260E-02  1.50521E-01  1.84193E-01  1.73098E-01  1.53186E-01  1.59387E-01
   1.79880E-01  1.72958E-01  1.21726E-01  5.41125E-02  4.44471E-03 -2.03143E-02 -3.02169E-02 -3.70791E-02 -4.26864E-02 -4.78584E-02
  -5.26959E-02 -5.72428E-02 -6.10014E-02 -6.39792E-02 -6.66268E-02 -6.91835E-02 -7.22916E-02 -7.58996E-02 -7.98257E-02 -8.53134E-02
  -9.27521E-02 -1.02407E-01 -1.06564E-01 -1.13574E-01 -1.20012E-01 -1.06277E-01 -6.87148E-02 -2.34180E-02  1.12592E-02  4.20433E-02
   7.52542E-02  9.69331E-02  1.06675E-01  1.02072E-01  1.00486E-01  1.00561E-01  8.87146E-02  6.88620E-02  4.91039E-02  3.87349E-02
   2.87585E-02  1.36084E-02 -4.49728E-03 -2.59885E-02 -4.80612E-02 -7.22560E-02 -1.01053E-01 -1.31077E-01 -1.63988E-01 -1.99494E-01
  -2.27038E-01 -2.41464E-01 -2.22248E-01 -1.56099E-01 -5.43995E-02  6.45068E-02  1.66443E-01  2.29107E-01  2.47592E-01  2.27890E-01
   1.94329E-01  1.60374E-01  1.36724E-01  1.24316E-01  1.20163E-01  1.23524E-01  1.31228E-01  1.37041E-01  1.39353E-01  1.36227E-01
   1.31242E-01  1.25329E-01  1.20142E-01  1.15912E-01  1.12107E-01  1.08478E-01  1.04770E-01  1.00672E-01  9.58341E-02  8.97736E-02
   8.22468E-02  7.24918E-02  5.93451E-02  4.32757E-02  2.32686E-02 -8.18409E-04 -3.02288E-02 -6.09523E-02 -9.01417E-02 -1.13898E-01
  -1.31027E-01 -1.40325E-01 -1.41546E-01 -1.32417E-01 -1.12902E-01 -8.22209E-02 -4.44006E-02 -6.72627E-03  1.77400E-02  2.57874E-02
   1.28832E-02 -9.89219E-03 -3.60408E-02 -5.64433E-02 -6.57117E-02 -6.52248E-02 -6.10561E-02 -1.35954E-01 -2.14154E-01 -2.79402E-01
  -4.72354E-01 -8.05577E-01 -1.11937E+00 -1.16797E+00 -8.74478E-01 -4.82920E-01 -1.99726E-01 -1.08910E-01 -7.90927E-02 -5.67900E-02
  -3.94155E-02 -2.61439E-02 -1.58794E-02 -8.00998E-03 -1.66231E-03  2.98657E-03  6.11557E-03  7.55048E-03  6.07441E-03  2.42171E-03
  -3.36400E-03 -1.02178E-02 -1.63277E-02 -2.11536E-02 -2.28702E-02 -2.12928E-02 -1.68448E-02 -1.03781E-02 -4.02963E-03  1.97386E-03
   6.49326E-03  1.04058E-02  1.36533E-02  1.65117E-02  1.88973E-02  2.08277E-02  2.24960E-02  2.42203E-02  2.60130E-02  2.77231E-02
   2.91941E-02  3.04595E-02  3.16859E-02  3.29975E-02  3.43425E-02  3.55098E-02  3.63654E-02  3.71303E-02  3.80079E-02  3.92009E-02
   4.05771E-02  4.18295E-02  4.27433E-02  4.29770E-02  4.26010E-02  4.17509E-02  4.07774E-02  3.97958E-02  3.86992E-02  3.71727E-02
   3.51961E-02  3.29437E-02  3.05425E-02  2.79472E-02  2.52310E-02  2.26667E-02  2.03436E-02  1.81592E-02  1.60041E-02  1.37918E-02
   1.17674E-02  1.00142E-02  8.49057E-03  7.13486E-03  5.87148E-03  4.67773E-03  3.49066E-03  2.30501E-03  1.24991E-03  4.27401E-04
  -2.47817E-04 -7.64934E-04 -1.04858E-03 -9.50181E-04 -4.36175E-04  4.84170E-04  1.67193E-03  3.00509E-03  4.55973E-03  6.27382E-03
   7.89727E-03  9.18701E-03  1.01326E-02  1.12263E-02  1.29739E-02  1.55083E-02  1.84309E-02  2.12699E-02  2.40247E-02  2.69587E-02
   3.03278E-02  3.42029E-02  3.84122E-02  4.26543E-02  4.68494E-02  5.09363E-02  5.48735E-02  5.84516E-02  6.13981E-02  6.34096E-02
   6.44637E-02  6.47199E-02  6.42867E-02  6.32554E-02  6.15956E-02  5.94886E-02  5.84310E-02  5.66037E-02  5.59937E-02  5.84039E-02
   6.44623E-02  7.38527E-02  8.11767E-02  8.08217E-02  7.26279E-02  5.90470E-02  4.71061E-02  3.81257E-02  3.30802E-02  2.93657E-02
   2.62741E-02  2.38479E-02  2.18039E-02  2.01751E-02  1.91491E-02  1.88362E-02  1.91325E-02  1.98528E-02  2.08652E-02  2.20853E-02
   2.35310E-02  2.52432E-02  2.71176E-02  2.89567E-02  3.05406E-02  3.17918E-02  3.26672E-02  3.33136E-02  3.40067E-02  3.48004E-02
   3.56503E-02  3.61190E-02  3.59347E-02  3.53180E-02  3.45084E-02  3.35569E-02  3.23545E-02  3.09589E-02  2.96369E-02  2.84291E-02
   2.72464E-02  2.59182E-02  2.44659E-02  2.30378E-02  2.16439E-02  2.01732E-02  1.85843E-02  1.71132E-02  1.59320E-02  1.49258E-02
   1.37899E-02  1.23564E-02  1.06712E-02  8.73890E-03  6.45158E-03  3.70798E-03  6.31206E-04 -2.71375E-03 -6.35490E-03 -1.06147E-02
  -1.58222E-02 -2.19012E-02 -2.84079E-02 -3.48936E-02 -4.11169E-02 -4.71217E-02 -5.27474E-02 -5.77897E-02 -6.22114E-02 -6.61078E-02
  -6.91526E-02 -7.09418E-02 -7.14466E-02 -7.11028E-02 -7.02042E-02 -6.86696E-02 -6.64144E-02 -6.36679E-02 -6.08528E-02 -5.82992E-02
  -5.58219E-02 -5.31078E-02 -5.00036E-02 -4.64919E-02 -4.27294E-02 -3.87605E-02 -3.46927E-02 -3.06059E-02 -2.65334E-02 -2.26914E-02
  -1.90449E-02 -1.54896E-02 -1.19890E-02 -8.57114E-03 -5.59227E-03 -2.98004E-03 -4.03909E-04  2.19306E-03  4.53932E-03  6.43370E-03
   7.94500E-03  9.43374E-03  1.09216E-02  1.22392E-02  1.31917E-02  1.38892E-02  1.46234E-02  1.53144E-02  1.58600E-02  1.63298E-02
   1.68652E-02  1.75801E-02  1.84485E-02  1.93896E-02  2.02205E-02  2.08129E-02  2.11921E-02  2.13374E-02  2.13869E-02  2.15068E-02
   2.15884E-02  2.16160E-02  2.16527E-02  2.17297E-02  2.18815E-02  2.20414E-02  2.21506E-02  2.23955E-02  2.27864E-02  2.29043E-02
   2.24397E-02  2.17052E-02  2.13734E-02  2.15998E-02  2.19801E-02  2.22160E-02  2.22715E-02  2.22628E-02  2.21270E-02  2.18716E-02
   2.18608E-02  2.22908E-02  2.30092E-02  2.36554E-02  2.40925E-02  2.45771E-02  2.51607E-02  2.57883E-02  2.62547E-02  2.66757E-02
   2.71361E-02  2.74695E-02  2.75399E-02  2.74662E-02  2.75223E-02  2.79790E-02  2.86292E-02  2.94027E-02  3.02041E-02  3.08703E-02
   3.14165E-02  3.20265E-02  3.28948E-02  3.41164E-02  3.52346E-02  3.58553E-02  3.59006E-02  3.57467E-02  3.59686E-02  3.66441E-02
   3.74928E-02  3.81419E-02  3.84725E-02  3.87531E-02  3.93312E-02  4.01933E-02  4.09722E-02  4.16138E-02  4.23850E-02  4.34725E-02
   4.47479E-02  4.58882E-02  4.68488E-02  4.79149E-02  4.92650E-02  5.07328E-02  5.23662E-02  5.43474E-02  5.67828E-02  5.93548E-02
   6.17817E-02  6.39567E-02  6.60226E-02  6.82960E-02
 NY background values follow
     3.327E-02    3.315E-02    3.304E-02    3.292E-02    3.281E-02    3.270E-02    3.258E-02    3.247E-02    3.235E-02    3.224E-02
     3.212E-02    3.201E-02    3.189E-02    3.178E-02    3.166E-02    3.155E-02    3.143E-02    3.132E-02    3.120E-02    3.109E-02
     3.097E-02    3.086E-02    3.074E-02    3.063E-02    3.051E-02    3.040E-02    3.028E-02    3.017E-02    3.005E-02    2.994E-02
     2.982E-02    2.971E-02    2.960E-02    2.948E-02    2.937E-02    2.925E-02    2.914E-02    2.902E-02    2.891E-02    2.879E-02
     2.868E-02    2.856E-02    2.845E-02    2.833E-02    2.822E-02    2.810E-02    2.799E-02    2.787E-02    2.776E-02    2.764E-02
     2.753E-02    2.741E-02    2.730E-02    2.718E-02    2.707E-02    2.695E-02    2.684E-02    2.672E-02    2.661E-02    2.649E-02
     2.638E-02    2.626E-02    2.615E-02    2.603E-02    2.592E-02    2.580E-02    2.569E-02    2.557E-02    2.546E-02    2.534E-02
