 LCModel (Version 6.3-1N) Copyright: S.W. Provencher.          Ref.: Magn. Reson. Med. 30:672-679 (1993).                
 Slice_N1@15_15  02-Jun-2023 14:36:41
 27 lines in following concentration table = NCONC+1
    Conc.  %SD /Cr+PCr  Metabolite                                         
 2.36E-06  14% 2.4E-04 Mac                                                 
 2.99E-02  21%   3.009 Cr                                                  
 4.96E-02  13%   4.991 PCr                                                 
 8.47E-02   9%   8.521 Ins                                                 
 9.65E-02   6%   9.707 NAA                                                 
 4.28E-02  15%   4.304 Tau                                                 
 9.92E-03  21%   0.998 PCho                                                
 7.65E-03  27%   0.769 GPC                                                 
 7.24E-02  11%   7.279 Glu                                                 
 2.61E-02  24%   2.625 Gln                                                 
    0.000 999%   0.000 Ala                                                 
 2.29E-02  48%   2.306 Asc                                                 
 1.79E-02  46%   1.798 Asp                                                 
 1.10E-02  39%   1.103 GABA                                                
 1.47E-02  40%   1.475 Glc                                                 
 7.45E-03  47%   0.749 GSH                                                 
 2.60E-03 237%   0.262 Lac                                                 
 1.40E-02  28%   1.411 NAAG                                                
    0.000 999%   0.000 PE                                                  
 1.76E-02  10%   1.767 GPC+PCho                                            
    0.111   6%  11.118 NAA+NAAG                                            
 9.85E-02  10%   9.905 Glu+Gln                                             
 7.95E-02   7%   8.000 Cr+PCr                                              
    0.111   6%  11.118 NAA+NAAG                                            
 7.95E-02   7%   8.000 Cr+PCr                                              
 9.85E-02  10%   9.905 Glu+Gln                                             
   6 lines in following misc. output table
  FWHM = 0.017 ppm    S/N =   7                                            
  Data shift = 0.017 ppm                                                   
  Ph: -64 deg     -12.3 deg/ppm                                            
  alphaB,S = 2.7E-01,   3.9E-01                                            
   18 spline knots.   Ns = 5(1)                                            
   3 inflections.     1 extrema                                            
  654 points on ppm-axis = NY
      4.000000     3.994181     3.988363     3.982544     3.976726     3.970907     3.965088     3.959270     3.953451     3.947633
      3.941814     3.935995     3.930177     3.924358     3.918540     3.912721     3.906902     3.901084     3.895265     3.889446
      3.883628     3.877809     3.871991     3.866172     3.860353     3.854535     3.848716     3.842898     3.837079     3.831260
      3.825442     3.819623     3.813805     3.807986     3.802167     3.796349     3.790530     3.784712     3.778893     3.773074
      3.767256     3.761437     3.755619     3.749800     3.743981     3.738163     3.732344     3.726526     3.720707     3.714888
      3.709070     3.703251     3.697433     3.691614     3.685795     3.679977     3.674158     3.668339     3.662521     3.656702
      3.650884     3.645065     3.639246     3.633428     3.627609     3.621791     3.615972     3.610153     3.604335     3.598516
      3.592698     3.586879     3.581060     3.575242     3.569423     3.563605     3.557786     3.551967     3.546149     3.540330
      3.534512     3.528693     3.522874     3.517056     3.511237     3.505419     3.499600     3.493781     3.487963     3.482144
      3.476326     3.470507     3.464688     3.458870     3.453051     3.447232     3.441414     3.435595     3.429777     3.423958
      3.418139     3.412321     3.406502     3.400684     3.394865     3.389046     3.383228     3.377409     3.371591     3.365772
      3.359953     3.354135     3.348316     3.342498     3.336679     3.330860     3.325042     3.319223     3.313405     3.307586
      3.301767     3.295949     3.290130     3.284312     3.278493     3.272674     3.266856     3.261037     3.255219     3.249400
      3.243581     3.237763     3.231944     3.226125     3.220307     3.214488     3.208670     3.202851     3.197032     3.191214
      3.185395     3.179577     3.173758     3.167939     3.162121     3.156302     3.150484     3.144665     3.138846     3.133028
      3.127209     3.121391     3.115572     3.109753     3.103935     3.098116     3.092298     3.086479     3.080660     3.074842
      3.069023     3.063205     3.057386     3.051567     3.045749     3.039930     3.034111     3.028293     3.022474     3.016656
      3.010837     3.005018     2.999200     2.993381     2.987563     2.981744     2.975925     2.970107     2.964288     2.958470
      2.952651     2.946832     2.941014     2.935195     2.929377     2.923558     2.917739     2.911921     2.906102     2.900284
      2.894465     2.888646     2.882828     2.877009     2.871191     2.865372     2.859553     2.853735     2.847916     2.842098
      2.836279     2.830460     2.824642     2.818823     2.813004     2.807186     2.801367     2.795549     2.789730     2.783911
      2.778093     2.772274     2.766456     2.760637     2.754818     2.749000     2.743181     2.737363     2.731544     2.725725
      2.719907     2.714088     2.708270     2.702451     2.696632     2.690814     2.684995     2.679177     2.673358     2.667539
      2.661721     2.655902     2.650084     2.644265     2.638446     2.632628     2.626809     2.620991     2.615172     2.609353
      2.603535     2.597716     2.591897     2.586079     2.580260     2.574442     2.568623     2.562804     2.556986     2.551167
      2.545349     2.539530     2.533711     2.527893     2.522074     2.516256     2.510437     2.504618     2.498800     2.492981
      2.487163     2.481344     2.475525     2.469707     2.463888     2.458070     2.452251     2.446432     2.440614     2.434795
      2.428977     2.423158     2.417339     2.411521     2.405702     2.399884     2.394065     2.388246     2.382428     2.376609
      2.370790     2.364972     2.359153     2.353335     2.347516     2.341697     2.335879     2.330060     2.324242     2.318423
      2.312604     2.306786     2.300967     2.295149     2.289330     2.283511     2.277693     2.271874     2.266056     2.260237
      2.254418     2.248600     2.242781     2.236963     2.231144     2.225325     2.219507     2.213688     2.207870     2.202051
      2.196232     2.190414     2.184595     2.178777     2.172958     2.167139     2.161321     2.155502     2.149683     2.143865
      2.138046     2.132228     2.126409     2.120590     2.114772     2.108953     2.103135     2.097316     2.091497     2.085679
      2.079860     2.074042     2.068223     2.062404     2.056586     2.050767     2.044949     2.039130     2.033311     2.027493
      2.021674     2.015856     2.010037     2.004218     1.998400     1.992581     1.986763     1.980944     1.975126     1.969307
      1.963489     1.957670     1.951852     1.946033     1.940215     1.934397     1.928578     1.922760     1.916941     1.911123
      1.905304     1.899486     1.893667     1.887849     1.882030     1.876212     1.870393     1.864575     1.858756     1.852938
      1.847119     1.841301     1.835482     1.829664     1.823845     1.818027     1.812208     1.806390     1.800571     1.794753
      1.788934     1.783116     1.777297     1.771479     1.765660     1.759842     1.754023     1.748205     1.742386     1.736568
      1.730749     1.724931     1.719113     1.713294     1.707476     1.701657     1.695839     1.690020     1.684202     1.678383
      1.672565     1.666746     1.660928     1.655109     1.649291     1.643472     1.637654     1.631835     1.626017     1.620198
      1.614380     1.608561     1.602743     1.596924     1.591106     1.585287     1.579469     1.573650     1.567832     1.562013
      1.556195     1.550376     1.544558     1.538739     1.532921     1.527102     1.521284     1.515465     1.509647     1.503829
      1.498010     1.492192     1.486373     1.480555     1.474736     1.468918     1.463099     1.457281     1.451462     1.445644
      1.439825     1.434007     1.428188     1.422370     1.416551     1.410733     1.404914     1.399096     1.393277     1.387459
      1.381640     1.375822     1.370003     1.364185     1.358366     1.352548     1.346729     1.340911     1.335092     1.329274
      1.323455     1.317637     1.311818     1.306000     1.300182     1.294363     1.288545     1.282726     1.276908     1.271089
      1.265271     1.259452     1.253634     1.247815     1.241997     1.236178     1.230360     1.224541     1.218723     1.212904
      1.207086     1.201267     1.195449     1.189630     1.183812     1.177993     1.172175     1.166356     1.160538     1.154719
      1.148901     1.143082     1.137264     1.131445     1.125627     1.119808     1.113990     1.108171     1.102353     1.096534
      1.090716     1.084898     1.079079     1.073261     1.067442     1.061624     1.055805     1.049987     1.044168     1.038350
      1.032531     1.026713     1.020894     1.015076     1.009257     1.003439     0.997620     0.991802     0.985983     0.980165
      0.974346     0.968528     0.962709     0.956891     0.951072     0.945254     0.939435     0.933617     0.927798     0.921980
      0.916161     0.910343     0.904524     0.898706     0.892887     0.887069     0.881251     0.875432     0.869614     0.863795
      0.857977     0.852158     0.846340     0.840521     0.834703     0.828884     0.823066     0.817247     0.811429     0.805610
      0.799792     0.793973     0.788155     0.782336     0.776518     0.770699     0.764881     0.759062     0.753244     0.747425
      0.741607     0.735788     0.729970     0.724151     0.718333     0.712514     0.706696     0.700877     0.695059     0.689240
      0.683422     0.677603     0.671785     0.665967     0.660148     0.654330     0.648511     0.642693     0.636874     0.631056
      0.625237     0.619419     0.613600     0.607782     0.601963     0.596145     0.590326     0.584508     0.578689     0.572871
      0.567052     0.561234     0.555415     0.549597     0.543778     0.537960     0.532141     0.526323     0.520504     0.514686
      0.508867     0.503049     0.497230     0.491412     0.485593     0.479775     0.473956     0.468138     0.462319     0.456501
      0.450682     0.444864     0.439045     0.433227     0.427408     0.421590     0.415771     0.409953     0.404134     0.398316
      0.392497     0.386679     0.380860     0.375042     0.369223     0.363405     0.357586     0.351767     0.345949     0.340130
      0.334312     0.328493     0.322675     0.316856     0.311038     0.305219     0.299401     0.293582     0.287764     0.281945
      0.276127     0.270308     0.264490     0.258671     0.252853     0.247034     0.241216     0.235397     0.229579     0.223760
      0.217942     0.212123     0.206305     0.200486
 NY phased data points follow
   1.18777E-01  2.96643E-02 -2.16359E-01 -1.27093E-01 -3.91552E-01 -4.89170E-01 -1.86621E-01 -3.34537E-01 -2.74659E-01 -9.38803E-02
   1.46332E-01  3.10327E-01  6.86251E-01  6.12029E-01  1.66554E-01  3.88242E-01  2.87362E-01  3.08391E-01  2.42653E-01  9.02115E-02
   2.90488E-02  6.29133E-02  1.81293E-01  3.83126E-02 -2.74239E-01 -2.94891E-01 -2.01742E-01  5.89384E-02  1.93878E-01 -1.80621E-01
   2.53588E-01  1.78919E-01 -1.03684E-01 -8.84854E-02 -3.67224E-01 -2.75819E-01 -1.95015E-01 -3.42181E-01 -5.66033E-01 -2.66195E-01
   1.14751E-01  2.58199E-01  3.79904E-01  2.31932E-01  9.54129E-02  1.25700E-01  8.53325E-02  8.66495E-02  1.62702E-01  2.48997E-01
   1.67804E-01  1.74380E-01  1.70973E-01  6.37439E-02 -8.59038E-02 -1.98748E-01 -3.90231E-01 -3.72977E-01  4.01520E-02 -3.61133E-01
  -2.48038E-01 -2.93654E-02 -3.78267E-01 -3.49933E-01 -3.32978E-01 -2.57426E-01  3.85072E-02  1.95041E-01  3.53566E-01  6.97241E-01
   3.59153E-01  2.92947E-01  3.33248E-01  2.50033E-01  1.52901E-02 -1.60785E-01 -3.01620E-01 -6.06131E-01 -1.81559E-01 -4.42737E-01
  -7.24774E-01  5.80526E-02  1.85284E-01 -1.47600E-01  5.74884E-01  8.09869E-01  5.62347E-01  2.34928E-01  1.05633E-02  1.54783E-01
   3.97531E-02  3.18330E-01  3.86330E-01  2.04561E-01  5.55713E-02  2.25411E-01 -4.14667E-02  2.73463E-02 -2.41932E-02 -2.72605E-01
   1.92316E-01 -3.99965E-02 -6.07744E-02  8.85463E-02  3.23570E-01  4.15600E-01  5.55328E-01  4.63092E-01  2.22379E-01  1.10657E-01
  -1.89885E-02  2.95416E-01  4.59393E-01  3.04870E-01  5.87516E-03  4.06868E-01  4.42644E-01  2.16588E-01  3.50025E-01  5.83524E-01
   3.08781E-01  5.83147E-02  1.02123E-01 -2.82623E-01 -3.79693E-01 -4.67634E-01 -2.40658E-01 -5.21478E-01 -2.46567E-01 -2.21277E-01
  -5.96938E-01 -3.85027E-01 -5.89574E-01 -3.61610E-01 -5.22228E-01 -5.27311E-01 -1.07640E+00 -1.17977E+00 -6.19270E-01 -5.75093E-01
  -2.91925E-01 -1.90960E-01  3.81391E-02 -4.67859E-02 -1.58573E-02  9.14955E-02  4.87079E-02 -2.09166E-01  3.15594E-02  1.16519E-01
  -2.96084E-01  1.37833E-01  3.20143E-01  1.70019E-01  1.11502E-01  4.33858E-01  3.83038E-01  1.91488E-01  4.59781E-01  2.98716E-01
   4.04736E-01  6.38746E-01  5.48222E-01  8.69918E-01  6.95521E-01  7.57577E-01  1.39481E+00  5.04004E-01 -8.87979E-01 -1.60267E+00
  -1.26169E+00 -7.72940E-01 -8.08680E-01 -8.56701E-01 -7.50368E-01 -6.21423E-01 -4.96134E-01 -2.54076E-01 -4.32970E-01 -3.16143E-01
  -5.33916E-01 -3.97925E-01 -9.67917E-02 -4.67298E-01 -1.85881E-01 -2.41211E-01 -3.37833E-01 -2.54204E-01 -3.39246E-01 -3.64201E-02
  -1.18844E-01 -2.97217E-01  2.37073E-02 -5.44330E-02 -4.12516E-01 -1.06573E-01 -4.56369E-02 -4.25256E-01  1.85381E-02 -1.52131E-01
  -2.87518E-01  7.63419E-02 -1.07003E-01  1.38285E-01 -9.58276E-03 -2.17509E-01 -1.45064E-01 -3.16447E-02  1.87286E-01  1.17319E-01
  -1.40290E-01  9.26298E-02  4.12712E-02 -3.10995E-01  1.29132E-01 -3.99432E-02 -1.01102E-01  2.10002E-01 -1.41239E-01 -2.20220E-01
   1.57908E-01 -4.15340E-02  1.11135E-01  2.14727E-01 -2.02184E-01  2.43608E-01  5.72615E-01  4.44359E-01  2.20565E-01  2.51693E-01
   2.63150E-01  5.35072E-01  4.97464E-01 -4.52623E-02  2.16579E-02  1.80992E-02  1.23899E-02 -5.68265E-02 -4.60235E-02  3.37597E-02
  -1.45035E-01 -7.15598E-02 -1.29206E-01 -8.51681E-02  7.86172E-02 -2.77850E-01 -1.24498E-01 -8.36823E-02  1.03186E-02 -1.91069E-02
  -1.76575E-01  1.67334E-01 -1.26241E-01  2.61365E-01  1.21431E-01 -2.11960E-01  1.65682E-01 -8.96207E-02 -1.81840E-01  8.52780E-02
   3.93175E-01  2.94221E-01  2.40900E-02  6.86889E-02  2.67875E-01  2.65760E-01  3.86642E-01  1.32014E-01  1.38595E-01  4.00493E-01
   1.93744E-01  1.96309E-01 -1.39112E-02 -2.89099E-02  3.53503E-02 -5.98111E-02 -1.41707E-01  2.12020E-02 -1.39086E-02 -3.23483E-01
  -2.43202E-01 -1.67260E-01 -2.34688E-01 -4.42325E-01 -1.05742E-01  2.71915E-01  3.71146E-01  4.98169E-01  8.36842E-01  9.89272E-01
   3.28808E-01  2.17370E-01  2.12720E-01  2.89386E-01  1.35317E-01 -8.95425E-02  8.71334E-02  4.32346E-02  1.73071E-01  3.96412E-02
   4.76186E-01  1.29637E-01  1.43540E-02  4.17673E-01  3.76236E-01  6.39604E-01  2.12750E-01  3.87681E-01  1.07605E-01  1.13217E-01
   5.48002E-01  4.75935E-01  2.39504E-01  7.80730E-03  8.12062E-03  1.93502E-01  5.75440E-01 -1.09366E-01 -3.85025E-03 -1.41417E-01
  -5.10007E-01 -2.70315E-01 -4.13315E-01 -2.78246E-01 -1.40209E-01  1.33629E-01  1.08147E-02  6.05366E-02  2.64858E-01  1.97624E-01
   2.57147E-01 -2.07744E-02 -3.48620E-02  2.66341E-01 -1.04531E-01 -2.10762E-01 -6.03290E-01 -6.51677E-01 -3.85575E-01 -5.57096E-01
  -1.96556E-01 -7.15597E-01 -2.03363E+00 -2.84351E+00 -1.45853E+00 -2.71643E-01 -1.87407E-01 -9.35898E-02 -2.38130E-01  9.53363E-02
   7.40878E-03  5.66036E-02  2.57083E-01  2.05193E-01  2.68186E-02  7.92802E-02  5.85171E-03  4.90930E-02  1.84581E-01  2.86929E-01
  -5.80030E-02 -7.97041E-02  3.64044E-01 -2.69564E-01 -2.09480E-01 -1.85516E-01  1.22180E-02  2.80433E-01  9.51516E-02  4.25438E-02
   1.42131E-01  4.22368E-01  2.88675E-02 -2.53425E-01  2.10630E-02  3.91088E-01  9.92270E-02  2.20199E-01  2.81538E-01  1.10609E-01
   4.12281E-01  1.18537E-01 -7.47815E-02  2.55765E-01  3.28015E-01  3.19554E-01  1.21817E-01  2.19496E-02  4.66527E-01  2.17295E-01
   3.82042E-01  4.04009E-01 -1.11113E-03  1.95673E-01  2.24877E-01  3.19120E-01  2.40587E-01  1.88010E-01  1.67846E-01 -1.59942E-02
  -1.30517E-01  8.24487E-02  5.71830E-02 -9.14202E-02 -8.77613E-02 -2.83973E-01  2.52371E-02  1.74917E-01 -2.58559E-01 -8.54829E-02
  -6.96137E-02 -3.13266E-01 -1.20641E-02 -2.24481E-01 -1.04900E-01 -1.29895E-02 -3.85194E-01 -1.21491E-01 -1.58982E-01 -1.09035E-01
   1.56240E-01 -4.49160E-02 -7.15003E-02 -1.23895E-01 -2.74038E-01 -1.31714E-01 -1.46437E-01 -2.47194E-01 -1.94181E-01 -6.86304E-02
   2.31906E-03  1.17800E-01 -3.91777E-03 -2.79509E-01  5.04236E-02  2.14810E-01 -1.67578E-02 -4.60111E-02 -1.66610E-01 -1.05289E-02
   9.85283E-02 -5.03231E-02  1.99223E-01 -3.70660E-02  1.04636E-02  2.64024E-01 -1.37370E-01 -2.62440E-02  1.95386E-01  1.04052E-01
  -1.93260E-01  1.40852E-01  3.93587E-01 -8.80322E-02 -2.44760E-03 -5.14278E-02 -7.81973E-02  5.97122E-02 -7.70199E-02 -2.10030E-01
  -4.09743E-02  2.66341E-01  2.28399E-01  8.37394E-02 -1.79478E-01 -4.77146E-02  7.04467E-03 -9.27349E-02 -1.64017E-01 -2.25903E-01
  -2.61096E-02 -7.98172E-02  1.90370E-01  1.99135E-01  5.62791E-02 -1.14141E-01 -3.52701E-01 -1.58798E-02 -1.00654E-01 -1.92563E-01
  -7.30441E-02  1.23878E-02  1.04984E-01  2.92544E-02  1.22682E-01  1.40621E-01  3.19872E-01  1.74333E-02 -1.35820E-01  1.31932E-01
  -2.06433E-01  1.67398E-01  1.53753E-01  2.26369E-01  3.35625E-01 -7.41948E-02  1.70313E-01  4.38597E-02  1.37231E-01  2.23550E-01
  -7.81936E-03 -7.54041E-02  1.75521E-01  1.21846E-01  2.74402E-01  3.55734E-01 -1.52453E-01 -1.96155E-02  2.28444E-01  1.32216E-01
  -2.57780E-02  1.40223E-01  1.70273E-01  2.08510E-01 -3.57517E-01 -1.02570E-02  2.16023E-01 -4.76118E-01 -1.21315E-01  1.85732E-02
   5.32406E-02 -3.03203E-01 -4.04505E-02 -2.01734E-01 -4.53823E-01 -1.39475E-01 -5.00628E-01 -5.18855E-01 -4.03442E-01 -4.07879E-01
  -4.59138E-01 -4.24372E-01 -1.87031E-01  5.29425E-03 -4.38351E-01 -2.53051E-01 -2.43425E-02  9.32348E-02  1.69110E-01 -1.83761E-01
  -2.19378E-01 -2.17257E-01 -2.55378E-01 -2.33280E-01  4.56331E-02 -1.03131E-02  8.59458E-02  2.27704E-01  5.01447E-01  1.03458E-01
   9.21528E-02  3.30458E-01  5.91669E-02  4.19417E-01  2.53403E-01  3.74787E-01  3.78419E-01  2.36442E-01  2.37011E-01  4.47603E-01
   2.67977E-01  7.41242E-02  2.46574E-01  1.45910E-01  2.41748E-01  1.83605E-01  3.35890E-01  3.41957E-01  2.17344E-01  2.63187E-02
   8.59938E-02 -2.24279E-02  8.45017E-02  5.09598E-02 -1.70585E-01  1.61405E-01  1.20696E-02  7.02520E-02  1.59186E-01 -4.31149E-02
  -3.90067E-02  2.56444E-01  2.17908E-01  1.87117E-01  4.63013E-02 -5.04253E-02  8.86634E-02 -2.33202E-01 -1.34312E-01  7.55896E-02
  -4.08772E-02  2.68074E-01  1.49678E-01  5.75838E-03  2.73652E-01 -7.32647E-02  1.12319E-01  6.36525E-02  8.08786E-02 -2.66406E-02
  -1.45647E-01  1.55766E-02 -2.82354E-01  1.18159E-01 -3.38443E-02 -4.31020E-02 -1.01917E-02 -4.05032E-02  1.86849E-01  1.76003E-01
   2.17873E-01  2.02781E-01  1.21455E-02 -1.95636E-01  9.99634E-02  1.21773E-01  2.30598E-01  2.50556E-01  8.46931E-02 -2.08352E-02
   3.80447E-02 -1.94304E-01 -2.04867E-01  3.19683E-01  7.97473E-02 -5.94835E-03  2.05183E-01  3.01743E-01 -2.63140E-02  3.68877E-02
   2.85929E-01  3.92069E-03  1.24393E-01  2.81329E-01  6.50111E-02 -2.23789E-01 -6.44234E-02  2.65042E-01  1.78312E-01 -2.78403E-01
  -2.52379E-01 -1.43617E-02 -8.04756E-02  1.11597E-01 -4.74981E-02 -2.44056E-01  1.30829E-01  2.15484E-01 -4.46276E-02 -5.40633E-02
   1.90278E-01  9.98086E-02  1.18306E-02  6.45764E-02
 NY points of the fit to the data follow
  -5.97427E-04 -2.26955E-02 -5.06138E-02 -8.17211E-02 -9.37912E-02 -8.84279E-02 -7.01344E-02 -4.20982E-02  1.42904E-02  6.15971E-02
   5.68268E-02  2.78035E-01  7.47807E-01  7.44767E-01  3.29373E-01  4.20086E-01  5.76047E-01  3.59882E-01  1.57462E-01  8.05749E-02
   7.23906E-02  2.03661E-02 -2.62990E-03 -6.17065E-02 -9.84085E-02 -1.24110E-01 -1.48089E-01 -1.56455E-01 -1.58929E-01 -1.79002E-01
  -1.84178E-01 -1.88490E-01 -2.09395E-01 -2.48233E-01 -2.89768E-01 -3.14375E-01 -3.34975E-01 -3.40754E-01 -3.51067E-01 -2.22066E-01
  -8.33459E-02  1.79740E-02  1.06943E-01  1.66029E-01  2.64167E-01  2.65638E-01  2.77446E-01  2.14014E-01  1.47630E-01  1.21837E-01
   6.65034E-02  1.10360E-02 -1.96939E-02 -4.62119E-02 -9.07568E-02 -1.47036E-01 -2.13365E-01 -2.64033E-01 -2.65136E-01 -2.58121E-01
  -3.05982E-01 -4.00892E-01 -4.24776E-01 -2.62944E-01 -3.34989E-01 -2.65976E-01  1.78153E-01  2.04500E-01  2.32222E-01  4.49980E-01
   4.94758E-01  3.57129E-01  2.05655E-01  1.46111E-01  3.63518E-02 -7.71771E-02 -1.82400E-01 -2.40042E-01 -3.25230E-01 -6.63815E-01
  -7.43927E-01 -2.45689E-01 -1.71502E-03  3.81302E-02  2.93919E-01  5.15335E-01  4.88797E-01  3.71171E-01  3.28919E-01  2.62545E-01
   2.25066E-01  2.16683E-01  1.85604E-01  1.50839E-01  1.12278E-01  6.52116E-02  4.24425E-03 -8.79080E-02 -1.58223E-01 -2.21654E-01
  -1.78512E-01 -3.43010E-02  1.03645E-01  2.23439E-01  2.45179E-01  2.51598E-01  2.49721E-01  2.53163E-01  2.51021E-01  2.57546E-01
   2.63902E-01  2.65481E-01  2.62674E-01  2.62230E-01  2.62205E-01  2.65078E-01  2.68256E-01  2.67904E-01  2.50978E-01  2.33942E-01
   2.23494E-01  1.89659E-01  3.35009E-02 -3.17973E-02 -7.02274E-02 -2.39138E-01 -1.82658E-01 -2.65350E-01 -3.18577E-01 -4.10873E-01
  -4.38068E-01 -3.50484E-01 -3.74598E-01 -1.68912E-01 -3.68066E-01 -6.39486E-01 -1.11021E+00 -1.22277E+00 -7.20854E-01 -3.48285E-01
  -1.28305E-01 -9.84167E-02 -1.23869E-02 -5.51587E-03  1.96996E-02  4.82854E-02  7.31409E-02  9.64210E-02  1.17799E-01  1.35787E-01
   1.55012E-01  1.75014E-01  1.94837E-01  2.15967E-01  2.38924E-01  2.65157E-01  2.95245E-01  3.31220E-01  3.69287E-01  4.14314E-01
   4.81146E-01  5.85918E-01  7.34578E-01  7.86861E-01  7.10933E-01  7.55604E-01  1.27003E+00  6.28854E-01 -9.88524E-01 -1.54424E+00
  -1.19261E+00 -7.53119E-01 -6.52827E-01 -5.02756E-01 -4.61685E-01 -4.43984E-01 -4.01521E-01 -3.51738E-01 -3.39779E-01 -3.37698E-01
  -3.11267E-01 -2.79988E-01 -2.64260E-01 -2.51843E-01 -2.41327E-01 -2.35763E-01 -2.25709E-01 -2.09988E-01 -1.95790E-01 -1.91154E-01
  -1.80090E-01 -1.68071E-01 -1.55874E-01 -1.44334E-01 -1.32202E-01 -1.23309E-01 -1.13732E-01 -1.01018E-01 -8.76715E-02 -7.57799E-02
  -6.73507E-02 -5.66993E-02 -2.85500E-02 -1.79282E-03 -1.67153E-02 -4.91842E-02 -5.50239E-02 -1.55290E-02  2.26611E-02 -1.08986E-02
  -6.45528E-02 -7.91170E-02 -6.76798E-02 -5.58431E-02 -4.70902E-02 -3.93525E-02 -1.83784E-02  8.97805E-03  3.22930E-03 -2.26517E-02
  -1.11242E-02  4.10273E-02  8.65962E-02  7.70327E-02  1.28588E-01  3.20029E-01  4.32998E-01  3.44689E-01  1.86364E-01  2.69679E-01
   5.37557E-01  5.01623E-01  2.33652E-01  6.54859E-02  5.55731E-03 -2.45379E-02 -4.99309E-02 -4.61926E-02 -5.25205E-02 -6.25179E-02
  -7.26738E-02 -8.17949E-02 -8.63731E-02 -9.04160E-02 -9.41567E-02 -1.01374E-01 -1.04920E-01 -1.08117E-01 -1.14031E-01 -1.22413E-01
  -1.27148E-01 -1.22230E-01 -1.33696E-01 -1.31786E-01 -1.37195E-01 -1.84216E-01 -4.55019E-02  1.14811E-01  2.62689E-02  7.12650E-02
   1.72815E-01  2.34359E-01  1.98126E-01  1.09138E-01  1.84370E-01  1.97734E-01  2.19772E-01  1.81583E-01  2.05628E-01  2.37220E-01
   1.99917E-01  1.82040E-01  1.13943E-01  7.90947E-02  2.63337E-02 -3.54351E-03 -5.42334E-02 -1.03405E-01 -1.58568E-01 -2.10483E-01
  -2.59212E-01 -3.27252E-01 -3.28536E-01 -3.02106E-01 -1.77380E-01  1.12615E-01  3.17943E-01  4.68888E-01  5.36583E-01  4.61938E-01
   3.62665E-01  2.73007E-01  2.37510E-01  2.16409E-01  2.02317E-01  2.31382E-01  2.56534E-01  2.74926E-01  2.94564E-01  2.89206E-01
   2.80855E-01  2.63539E-01  2.53920E-01  2.43446E-01  2.32796E-01  2.17589E-01  1.99241E-01  1.79187E-01  1.42106E-01  1.05944E-01
   8.92358E-02  4.21181E-02  4.27231E-02  4.23466E-02  2.88003E-02  2.44848E-02 -1.28252E-02 -8.71203E-02 -1.75093E-01 -2.25941E-01
  -2.61697E-01 -2.69414E-01 -2.45894E-01 -1.94157E-01 -1.20893E-01 -4.06100E-02  3.01200E-02  9.47805E-02  1.26281E-01  1.53133E-01
   9.97296E-02  5.69242E-02 -6.19009E-02 -1.39997E-01 -1.47747E-01 -1.82890E-01 -3.82516E-01 -4.97927E-01 -4.55665E-01 -4.91787E-01
  -3.53937E-01 -5.79111E-01 -2.17351E+00 -2.73576E+00 -1.43900E+00 -4.53025E-01 -1.08972E-01 -1.05421E-01  4.19388E-02 -1.64406E-02
  -7.91672E-03  8.78368E-03  2.50728E-02  3.75559E-02  4.83359E-02  5.81331E-02  6.55775E-02  6.84048E-02  6.36886E-02  5.74902E-02
   2.52001E-02  6.88814E-03 -2.45644E-02 -5.35917E-02 -5.65932E-02 -6.05900E-02 -3.89006E-02 -2.34126E-02  1.13930E-03  1.42500E-02
   2.77238E-02  4.01017E-02  5.32972E-02  6.20330E-02  6.51166E-02  6.98495E-02  7.41837E-02  8.03472E-02  8.60764E-02  8.96890E-02
   9.14705E-02  9.40649E-02  9.84356E-02  1.02585E-01  1.06080E-01  1.08217E-01  1.08665E-01  1.09127E-01  1.13607E-01  1.17422E-01
   1.21128E-01  1.24227E-01  1.25157E-01  1.22821E-01  1.18992E-01  1.15920E-01  1.12345E-01  1.09111E-01  1.05350E-01  9.92668E-02
   9.15186E-02  8.52594E-02  7.84761E-02  6.89505E-02  5.98376E-02  5.44394E-02  4.90102E-02  4.17982E-02  3.49556E-02  3.01198E-02
   2.38729E-02  1.96981E-02  1.73328E-02  1.30460E-02  9.13699E-03  5.78602E-03  1.79427E-03 -1.96803E-03 -4.28385E-03 -5.36513E-03
  -6.33176E-03 -8.83721E-03 -8.68936E-03 -6.12301E-03 -4.14083E-03 -1.49918E-03  2.76008E-03  5.74654E-03  1.06244E-02  1.75424E-02
   2.18389E-02  2.22213E-02  2.22665E-02  2.81441E-02  3.64599E-02  4.59936E-02  5.38895E-02  6.06332E-02  6.82797E-02  7.70755E-02
   8.92038E-02  1.01893E-01  1.14101E-01  1.25614E-01  1.37199E-01  1.47917E-01  1.59557E-01  1.68402E-01  1.74550E-01  1.76790E-01
   1.76321E-01  1.75931E-01  1.73213E-01  1.70117E-01  1.65890E-01  1.59440E-01  1.52976E-01  1.43407E-01  1.31535E-01  1.19935E-01
   1.30545E-01  1.33725E-01  1.31637E-01  1.24754E-01  9.66398E-02  7.81403E-02  6.29813E-02  5.68192E-02  4.69379E-02  4.26880E-02
   3.85194E-02  3.46248E-02  3.11835E-02  2.78398E-02  2.80196E-02  3.22826E-02  3.55599E-02  3.77002E-02  4.26649E-02  4.71931E-02
   5.21223E-02  5.92581E-02  6.56397E-02  6.99403E-02  7.26575E-02  7.59964E-02  7.70929E-02  7.75995E-02  8.03026E-02  8.42081E-02
   8.64458E-02  8.50362E-02  8.30175E-02  8.02759E-02  7.88448E-02  7.51993E-02  6.98293E-02  6.64950E-02  6.37850E-02  6.12891E-02
   5.70820E-02  5.36146E-02  5.02000E-02  4.60312E-02  4.25122E-02  3.88666E-02  3.32876E-02  3.02422E-02  2.98497E-02  2.70393E-02
   2.20245E-02  1.76840E-02  1.43403E-02  8.00287E-03 -1.62282E-03 -1.08072E-02 -1.97223E-02 -2.90239E-02 -3.91723E-02 -5.41030E-02
  -7.31386E-02 -9.35731E-02 -1.10634E-01 -1.26162E-01 -1.43066E-01 -1.59675E-01 -1.73348E-01 -1.82913E-01 -1.93182E-01 -2.03510E-01
  -2.07921E-01 -2.04544E-01 -2.01365E-01 -2.00585E-01 -1.95988E-01 -1.85800E-01 -1.76812E-01 -1.69049E-01 -1.60806E-01 -1.53876E-01
  -1.48067E-01 -1.38477E-01 -1.26677E-01 -1.17328E-01 -1.06603E-01 -9.40103E-02 -8.12893E-02 -7.15419E-02 -6.00375E-02 -4.86883E-02
  -4.12251E-02 -3.19679E-02 -1.97545E-02 -1.12068E-02 -6.42719E-03 -1.41356E-03  7.30160E-03  1.69222E-02  1.95443E-02  2.05427E-02
   2.64963E-02  3.15080E-02  3.37756E-02  3.67468E-02  3.72404E-02  3.83332E-02  4.20320E-02  4.42224E-02  4.23895E-02  4.20847E-02
   4.66802E-02  4.89894E-02  5.04579E-02  5.41492E-02  5.67672E-02  5.61260E-02  5.51324E-02  5.63854E-02  5.58897E-02  5.47800E-02
   5.55766E-02  5.55298E-02  5.47559E-02  5.46326E-02  5.48332E-02  5.55455E-02  5.53492E-02  5.60914E-02  5.90811E-02  5.77593E-02
   5.02389E-02  4.79614E-02  5.25468E-02  5.42956E-02  5.20073E-02  5.01010E-02  5.22855E-02  5.21384E-02  4.88688E-02  4.71096E-02
   4.98437E-02  5.42796E-02  5.43378E-02  5.41705E-02  5.46794E-02  5.64551E-02  5.84295E-02  5.93695E-02  5.88989E-02  6.01147E-02
   6.21512E-02  6.10194E-02  5.74930E-02  5.71159E-02  5.91338E-02  5.97871E-02  6.14536E-02  6.35306E-02  6.59246E-02  6.53256E-02
   6.43009E-02  6.82295E-02  7.18084E-02  7.41303E-02  7.54034E-02  7.25957E-02  6.97320E-02  6.94938E-02  7.16101E-02  7.47691E-02
   7.58417E-02  7.42569E-02  7.33637E-02  7.39540E-02  7.50823E-02  7.80135E-02  7.76830E-02  7.62296E-02  7.86887E-02  8.34145E-02
   8.42867E-02  8.36046E-02  8.57193E-02  8.76964E-02  9.09781E-02  9.24119E-02  9.46402E-02  1.00898E-01  1.06611E-01  1.10701E-01
   1.12610E-01  1.15817E-01  1.19542E-01  1.21617E-01
 NY background values follow
    -4.247E-02   -4.190E-02   -4.132E-02   -4.075E-02   -4.018E-02   -3.960E-02   -3.903E-02   -3.846E-02   -3.788E-02   -3.731E-02
    -3.674E-02   -3.617E-02   -3.560E-02   -3.503E-02   -3.446E-02   -3.389E-02   -3.332E-02   -3.275E-02   -3.219E-02   -3.162E-02
    -3.106E-02   -3.049E-02   -2.993E-02   -2.937E-02   -2.881E-02   -2.826E-02   -2.770E-02   -2.715E-02   -2.660E-02   -2.605E-02
    -2.550E-02   -2.495E-02   -2.441E-02   -2.386E-02   -2.332E-02   -2.279E-02   -2.225E-02   -2.172E-02   -2.119E-02   -2.066E-02
    -2.013E-02   -1.961E-02   -1.909E-02   -1.857E-02   -1.806E-02   -1.755E-02   -1.704E-02   -1.653E-02   -1.603E-02   -1.553E-02
    -1.504E-02   -1.454E-02   -1.405E-02   -1.356E-02   -1.308E-02   -1.260E-02   -1.212E-02   -1.164E-02   -1.117E-02   -1.070E-02
    -1.023E-02   -9.762E-03   -9.299E-03   -8.839E-03   -8.382E-03   -7.927E-03   -7.476E-03   -7.027E-03   -6.580E-03   -6.136E-03
