 LCModel (Version 6.3-1N) Copyright: S.W. Provencher.          Ref.: Magn. Reson. Med. 30:672-679 (1993).                
 Slice_N1@13_14  02-Jun-2023 14:36:35
 27 lines in following concentration table = NCONC+1
    Conc.  %SD /Cr+PCr  Metabolite                                         
 1.48E-06  22% 2.3E-04 Mac                                                 
 4.73E-02  22%   7.433 Cr                                                  
 3.61E-03 300%   0.567 PCr                                                 
 6.70E-02  13%  10.532 Ins                                                 
 8.59E-02   8%  13.502 NAA                                                 
 4.79E-02  17%   7.532 Tau                                                 
 1.69E-02  13%   2.661 PCho                                                
    0.000 999%   0.000 GPC                                                 
 5.21E-02  18%   8.195 Glu                                                 
 2.44E-02  28%   3.839 Gln                                                 
    0.000 999%   0.000 Ala                                                 
 5.44E-04 999% 8.6E-02 Asc                                                 
 3.89E-03 159%   0.612 Asp                                                 
 1.11E-02  31%   1.744 GABA                                                
 3.81E-03 103%   0.599 Glc                                                 
 5.78E-03  70%   0.908 GSH                                                 
 8.69E-03  90%   1.366 Lac                                                 
    0.000 999%   0.000 NAAG                                                
    0.000 999%   0.000 PE                                                  
 1.69E-02  13%   2.661 GPC+PCho                                            
 8.59E-02   8%  13.502 NAA+NAAG                                            
 7.66E-02  15%  12.034 Glu+Gln                                             
 5.09E-02  13%   8.000 Cr+PCr                                              
 8.59E-02   8%  13.502 NAA+NAAG                                            
 5.09E-02  13%   8.000 Cr+PCr                                              
 7.66E-02  15%  12.034 Glu+Gln                                             
   6 lines in following misc. output table
  FWHM = 0.041 ppm    S/N =   3                                            
  Data shift = 0.012 ppm                                                   
  Ph: -68 deg     -11.4 deg/ppm                                            
  alphaB,S = 3.1E+01,   3.7E+01                                            
   18 spline knots.   Ns = 7(1)                                            
   2 inflections.     1 extrema                                            
  654 points on ppm-axis = NY
      4.000000     3.994181     3.988363     3.982544     3.976726     3.970907     3.965088     3.959270     3.953451     3.947633
      3.941814     3.935995     3.930177     3.924358     3.918540     3.912721     3.906902     3.901084     3.895265     3.889446
      3.883628     3.877809     3.871991     3.866172     3.860353     3.854535     3.848716     3.842898     3.837079     3.831260
      3.825442     3.819623     3.813805     3.807986     3.802167     3.796349     3.790530     3.784712     3.778893     3.773074
      3.767256     3.761437     3.755619     3.749800     3.743981     3.738163     3.732344     3.726526     3.720707     3.714888
      3.709070     3.703251     3.697433     3.691614     3.685795     3.679977     3.674158     3.668339     3.662521     3.656702
      3.650884     3.645065     3.639246     3.633428     3.627609     3.621791     3.615972     3.610153     3.604335     3.598516
      3.592698     3.586879     3.581060     3.575242     3.569423     3.563605     3.557786     3.551967     3.546149     3.540330
      3.534512     3.528693     3.522874     3.517056     3.511237     3.505419     3.499600     3.493781     3.487963     3.482144
      3.476326     3.470507     3.464688     3.458870     3.453051     3.447232     3.441414     3.435595     3.429777     3.423958
      3.418139     3.412321     3.406502     3.400684     3.394865     3.389046     3.383228     3.377409     3.371591     3.365772
      3.359953     3.354135     3.348316     3.342498     3.336679     3.330860     3.325042     3.319223     3.313405     3.307586
      3.301767     3.295949     3.290130     3.284312     3.278493     3.272674     3.266856     3.261037     3.255219     3.249400
      3.243581     3.237763     3.231944     3.226125     3.220307     3.214488     3.208670     3.202851     3.197032     3.191214
      3.185395     3.179577     3.173758     3.167939     3.162121     3.156302     3.150484     3.144665     3.138846     3.133028
      3.127209     3.121391     3.115572     3.109753     3.103935     3.098116     3.092298     3.086479     3.080660     3.074842
      3.069023     3.063205     3.057386     3.051567     3.045749     3.039930     3.034111     3.028293     3.022474     3.016656
      3.010837     3.005018     2.999200     2.993381     2.987563     2.981744     2.975925     2.970107     2.964288     2.958470
      2.952651     2.946832     2.941014     2.935195     2.929377     2.923558     2.917739     2.911921     2.906102     2.900284
      2.894465     2.888646     2.882828     2.877009     2.871191     2.865372     2.859553     2.853735     2.847916     2.842098
      2.836279     2.830460     2.824642     2.818823     2.813004     2.807186     2.801367     2.795549     2.789730     2.783911
      2.778093     2.772274     2.766456     2.760637     2.754818     2.749000     2.743181     2.737363     2.731544     2.725725
      2.719907     2.714088     2.708270     2.702451     2.696632     2.690814     2.684995     2.679177     2.673358     2.667539
      2.661721     2.655902     2.650084     2.644265     2.638446     2.632628     2.626809     2.620991     2.615172     2.609353
      2.603535     2.597716     2.591897     2.586079     2.580260     2.574442     2.568623     2.562804     2.556986     2.551167
      2.545349     2.539530     2.533711     2.527893     2.522074     2.516256     2.510437     2.504618     2.498800     2.492981
      2.487163     2.481344     2.475525     2.469707     2.463888     2.458070     2.452251     2.446432     2.440614     2.434795
      2.428977     2.423158     2.417339     2.411521     2.405702     2.399884     2.394065     2.388246     2.382428     2.376609
      2.370790     2.364972     2.359153     2.353335     2.347516     2.341697     2.335879     2.330060     2.324242     2.318423
      2.312604     2.306786     2.300967     2.295149     2.289330     2.283511     2.277693     2.271874     2.266056     2.260237
      2.254418     2.248600     2.242781     2.236963     2.231144     2.225325     2.219507     2.213688     2.207870     2.202051
      2.196232     2.190414     2.184595     2.178777     2.172958     2.167139     2.161321     2.155502     2.149683     2.143865
      2.138046     2.132228     2.126409     2.120590     2.114772     2.108953     2.103135     2.097316     2.091497     2.085679
      2.079860     2.074042     2.068223     2.062404     2.056586     2.050767     2.044949     2.039130     2.033311     2.027493
      2.021674     2.015856     2.010037     2.004218     1.998400     1.992581     1.986763     1.980944     1.975126     1.969307
      1.963489     1.957670     1.951852     1.946033     1.940215     1.934397     1.928578     1.922760     1.916941     1.911123
      1.905304     1.899486     1.893667     1.887849     1.882030     1.876212     1.870393     1.864575     1.858756     1.852938
      1.847119     1.841301     1.835482     1.829664     1.823845     1.818027     1.812208     1.806390     1.800571     1.794753
      1.788934     1.783116     1.777297     1.771479     1.765660     1.759842     1.754023     1.748205     1.742386     1.736568
      1.730749     1.724931     1.719113     1.713294     1.707476     1.701657     1.695839     1.690020     1.684202     1.678383
      1.672565     1.666746     1.660928     1.655109     1.649291     1.643472     1.637654     1.631835     1.626017     1.620198
      1.614380     1.608561     1.602743     1.596924     1.591106     1.585287     1.579469     1.573650     1.567832     1.562013
      1.556195     1.550376     1.544558     1.538739     1.532921     1.527102     1.521284     1.515465     1.509647     1.503829
      1.498010     1.492192     1.486373     1.480555     1.474736     1.468918     1.463099     1.457281     1.451462     1.445644
      1.439825     1.434007     1.428188     1.422370     1.416551     1.410733     1.404914     1.399096     1.393277     1.387459
      1.381640     1.375822     1.370003     1.364185     1.358366     1.352548     1.346729     1.340911     1.335092     1.329274
      1.323455     1.317637     1.311818     1.306000     1.300182     1.294363     1.288545     1.282726     1.276908     1.271089
      1.265271     1.259452     1.253634     1.247815     1.241997     1.236178     1.230360     1.224541     1.218723     1.212904
      1.207086     1.201267     1.195449     1.189630     1.183812     1.177993     1.172175     1.166356     1.160538     1.154719
      1.148901     1.143082     1.137264     1.131445     1.125627     1.119808     1.113990     1.108171     1.102353     1.096534
      1.090716     1.084898     1.079079     1.073261     1.067442     1.061624     1.055805     1.049987     1.044168     1.038350
      1.032531     1.026713     1.020894     1.015076     1.009257     1.003439     0.997620     0.991802     0.985983     0.980165
      0.974346     0.968528     0.962709     0.956891     0.951072     0.945254     0.939435     0.933617     0.927798     0.921980
      0.916161     0.910343     0.904524     0.898706     0.892887     0.887069     0.881251     0.875432     0.869614     0.863795
      0.857977     0.852158     0.846340     0.840521     0.834703     0.828884     0.823066     0.817247     0.811429     0.805610
      0.799792     0.793973     0.788155     0.782336     0.776518     0.770699     0.764881     0.759062     0.753244     0.747425
      0.741607     0.735788     0.729970     0.724151     0.718333     0.712514     0.706696     0.700877     0.695059     0.689240
      0.683422     0.677603     0.671785     0.665967     0.660148     0.654330     0.648511     0.642693     0.636874     0.631056
      0.625237     0.619419     0.613600     0.607782     0.601963     0.596145     0.590326     0.584508     0.578689     0.572871
      0.567052     0.561234     0.555415     0.549597     0.543778     0.537960     0.532141     0.526323     0.520504     0.514686
      0.508867     0.503049     0.497230     0.491412     0.485593     0.479775     0.473956     0.468138     0.462319     0.456501
      0.450682     0.444864     0.439045     0.433227     0.427408     0.421590     0.415771     0.409953     0.404134     0.398316
      0.392497     0.386679     0.380860     0.375042     0.369223     0.363405     0.357586     0.351767     0.345949     0.340130
      0.334312     0.328493     0.322675     0.316856     0.311038     0.305219     0.299401     0.293582     0.287764     0.281945
      0.276127     0.270308     0.264490     0.258671     0.252853     0.247034     0.241216     0.235397     0.229579     0.223760
      0.217942     0.212123     0.206305     0.200486
 NY phased data points follow
   1.54679E-01  1.16315E-01 -1.28849E-01  8.63588E-02 -1.23743E-01 -2.43111E-01  5.69071E-02  2.89746E-02 -1.06023E-01 -1.24742E-02
  -3.09324E-02  1.08389E-01  1.61840E-01  1.71476E-01  2.59716E-01 -9.80070E-02 -1.00206E-01  1.55921E-01  1.43755E-01  1.38699E-01
   7.04976E-02 -6.75714E-02 -6.01557E-02  2.26641E-01  3.84711E-01  5.75267E-02 -1.73923E-01 -9.66186E-02 -1.19364E-01 -2.98790E-01
  -8.74268E-02 -3.28204E-02 -1.88088E-01 -5.70389E-02  7.92758E-02  1.36656E-01 -6.03392E-02 -1.13723E-02 -3.25721E-01 -7.78685E-02
   2.11500E-01  1.00088E-01  3.09354E-01  1.45327E-02  2.31880E-01  3.59506E-01  2.97723E-02 -2.39264E-01 -4.87556E-02  7.75569E-02
   1.03257E-01 -3.81293E-02  7.64197E-02  2.07867E-02 -3.27636E-01  3.80185E-02 -2.97198E-01 -2.78719E-01 -1.72536E-01 -1.85714E-01
  -3.43882E-01 -3.80673E-01 -1.49853E-01 -6.86477E-02 -2.27017E-01 -1.40840E-01  3.18929E-01 -4.56073E-02  4.81511E-01  3.98704E-01
   8.15729E-02  3.21706E-01  1.22826E-01 -1.34592E-01  1.90173E-01  2.93247E-01 -3.18543E-01 -1.80019E-01 -2.00181E-01 -6.47371E-02
  -1.54945E-01 -7.52614E-02  8.23774E-02  1.75645E-01  2.54526E-01  4.83265E-01  4.44169E-01  2.45759E-01  4.50765E-01  6.26862E-02
   2.63773E-01 -2.26015E-02  8.87030E-02  2.03287E-01  1.99060E-01  2.02757E-01 -2.25968E-01  1.88129E-01  5.37022E-02 -1.23294E-01
  -1.42115E-01 -1.13979E-01 -1.22087E-01  7.34121E-02  3.49350E-01  4.22405E-01  4.30683E-01  1.96472E-01  2.38935E-01  3.55656E-01
   1.10468E-01  2.32335E-01  2.67083E-01  8.89519E-02  3.11754E-01  1.12070E-01  3.13781E-01  3.48660E-01  3.19941E-01  2.10988E-01
   4.97013E-02  5.65112E-02 -1.15790E-01  1.87304E-01 -5.76084E-02 -1.35118E-01 -2.41301E-02 -4.21866E-01 -5.83275E-01 -2.13345E-01
  -4.68857E-01 -6.59956E-01 -2.79371E-01 -3.83488E-01 -5.90287E-01 -6.82050E-01 -6.75090E-01 -8.92773E-01 -4.63298E-01 -2.96746E-01
  -5.29607E-01 -2.61385E-01 -8.65465E-02 -1.07693E-01 -1.48728E-01  1.97904E-01 -1.44078E-01 -9.41312E-02  1.61479E-01 -1.55776E-01
   2.90638E-01  1.72918E-01  2.48306E-01  2.35826E-01 -1.02904E-01  2.36236E-01  7.58749E-02  2.87882E-01  1.62821E-01  1.80058E-01
   3.26071E-01 -1.07752E-01  4.68063E-01  6.04289E-01  5.16741E-01  6.44716E-01  4.99976E-01  4.89895E-01  4.80647E-03 -2.29669E-01
  -4.34765E-01 -7.24783E-01 -4.58708E-01 -6.53734E-01 -6.24752E-01 -4.64597E-01 -5.92084E-01 -4.32517E-01 -5.28639E-01 -3.55193E-01
  -1.93175E-01 -3.90820E-01 -2.60797E-01 -2.33154E-01 -2.00406E-01 -1.41849E-01 -3.05395E-01 -2.69825E-01 -3.91012E-01 -2.95960E-01
  -2.67670E-01 -9.17057E-02  1.21205E-02 -2.55319E-01 -9.81600E-02 -3.23101E-01 -4.21918E-01 -4.98967E-01 -2.83756E-01 -3.50235E-01
  -3.76841E-01 -1.12032E-01 -1.81474E-01  4.59728E-01  3.26043E-02 -6.35104E-01 -2.10344E-01 -4.05047E-02 -3.86676E-02  1.85667E-01
  -7.99095E-02 -2.25180E-01 -3.99864E-01 -3.51397E-01 -3.35643E-02 -2.61608E-01 -2.59208E-02 -1.45306E-01 -1.38532E-01 -7.07641E-02
   1.56947E-01  2.52384E-01  4.69713E-02  2.01466E-01 -5.66437E-02  8.80708E-02  4.51075E-01  5.21751E-01  4.18385E-01  5.15113E-01
   1.29690E-01  1.03782E-01  3.68116E-01  2.80565E-02  8.53978E-02 -1.00918E-02 -7.00753E-02 -6.95979E-03 -9.98602E-02 -1.31904E-01
   3.93534E-03 -6.62007E-02  1.13069E-01  6.10317E-02 -4.27335E-01 -1.97209E-01 -2.24280E-01 -4.57216E-01 -3.26573E-01 -1.13120E-01
  -3.75573E-02 -1.99096E-01 -4.03946E-02  4.81128E-02 -6.60595E-02  1.25120E-01  5.05195E-02 -1.94763E-01 -1.83327E-01 -5.86467E-02
   3.52902E-02  2.46906E-01  2.42871E-01  1.59243E-01  1.88734E-01  9.81550E-02  1.88729E-01  7.87804E-02  1.64419E-01  2.55601E-01
   2.88322E-01  2.25960E-01  2.14332E-01  5.06361E-01 -5.17830E-02 -2.02328E-01  1.86331E-01 -1.90512E-01 -2.88935E-01 -2.07932E-01
  -2.94541E-01  2.38745E-02 -1.17819E-01 -3.28543E-01 -1.59415E-01  8.27903E-03  4.69848E-01  6.35008E-01  4.26925E-01  3.81502E-01
   3.89104E-01  1.09177E-01  2.11579E-02  4.45841E-01  2.10544E-01 -2.44455E-01 -4.69630E-03  7.21874E-02  2.13385E-01  2.92448E-01
   3.71961E-01  2.98971E-01  2.06665E-01  3.99063E-01  3.39764E-01  4.03262E-01  5.10685E-01  5.25011E-01  2.25000E-01  1.28324E-01
   2.02901E-01  2.65552E-01 -2.33035E-02  1.83005E-01  2.23831E-01 -2.68084E-02  7.86409E-02 -1.18634E-01  3.93616E-01 -1.91842E-01
  -1.04102E-01 -1.31147E-01 -4.50057E-01 -7.75312E-02 -4.02270E-01  5.66781E-02 -5.28412E-02  1.79219E-01  3.50391E-01 -2.47982E-03
   1.03724E-01  4.53645E-01  2.74268E-01  7.14574E-02  1.83320E-01  1.10220E-01 -7.65578E-02 -2.93414E-01 -2.19628E-01 -5.95531E-01
  -6.13127E-01 -8.98748E-01 -7.72278E-01 -1.01610E+00 -1.16891E+00 -8.51988E-01 -3.86951E-01  3.60815E-01 -3.02663E-01  1.67876E-01
   1.23491E-01 -3.32220E-01  2.22400E-01  4.32497E-01  2.67512E-01 -7.34999E-03  2.79956E-01  4.83794E-01  4.59580E-02 -2.37710E-02
   3.13400E-01 -1.59514E-01 -2.43803E-01 -3.95222E-02 -6.44573E-02  2.66852E-01  3.40388E-01 -3.11278E-01 -4.04189E-02  1.58262E-01
   1.22876E-01  2.70604E-01 -2.32122E-01  5.17502E-02  3.28665E-02 -6.66875E-02  2.08944E-01  3.49220E-01  9.59471E-02  3.78521E-01
   3.49000E-01 -2.08481E-02  9.86634E-02 -1.31659E-01  1.88390E-01 -9.06074E-02  4.68579E-02  2.82881E-01  6.49266E-02  2.37738E-01
  -2.38398E-01 -2.17633E-01  3.67950E-01  1.50414E-01  1.27677E-01 -2.22709E-02 -2.92834E-01  3.26595E-02 -7.92009E-02  4.41441E-02
  -2.45751E-02 -1.03107E-01 -9.30192E-02 -2.93080E-02 -2.46315E-01 -4.22096E-01 -5.05337E-02 -3.63457E-01 -2.20745E-01 -2.96568E-02
  -1.27394E-01 -1.32107E-01 -2.87939E-01 -2.92318E-01 -5.00992E-02 -1.14751E-01 -2.50558E-01 -2.29472E-01 -3.69578E-01 -2.54632E-01
  -1.90522E-01  2.27263E-02 -1.81416E-01 -4.81148E-01 -8.41723E-02  1.03003E-01 -1.86802E-01 -9.52475E-02  3.23319E-03 -1.66104E-01
   1.82336E-01 -2.70262E-01 -2.87983E-01  5.57887E-02 -1.24820E-01  1.78896E-01 -1.69127E-01 -3.21605E-02 -7.73087E-03 -7.22680E-02
  -8.70616E-02  3.49376E-03  2.44270E-01 -5.99517E-02  3.00011E-01 -3.11117E-02  3.75813E-01  2.69012E-01 -1.31944E-01  2.36238E-01
   4.39575E-02  1.63894E-01  1.69744E-01  3.44805E-01 -5.17496E-03  1.42504E-02 -1.41138E-01 -4.05194E-02  1.80989E-01  1.03626E-01
   6.03830E-02  1.67424E-01  4.45710E-01  4.13467E-02  1.15232E-01 -1.60517E-01  9.50480E-02  1.15500E-01 -7.71403E-02 -5.42815E-02
   1.56468E-01  3.19199E-01  3.25956E-02  1.83573E-01  1.64458E-01  2.25862E-01  1.51232E-01  2.25701E-01 -1.15427E-02  1.82192E-01
  -1.90001E-01 -1.06968E-01  1.71020E-01  2.39788E-02  1.01924E-01 -3.52925E-01  2.96722E-01 -1.14375E-02 -1.88613E-01  2.65373E-02
   2.58013E-02  1.49786E-01  3.75556E-01  8.81177E-02 -4.15058E-01  6.81903E-02 -1.33932E-01 -3.93524E-02  4.16371E-03 -7.12628E-02
   2.19243E-02  1.88849E-02 -2.17416E-01 -1.77941E-01  1.90685E-01  2.74091E-01  2.66905E-01  5.89545E-02  3.43803E-02 -2.00355E-01
  -2.44208E-02  1.31303E-01 -1.26015E-01  1.12813E-01  2.85693E-01  8.71183E-02  1.01790E-01 -1.44150E-01 -7.28645E-02  9.65730E-02
  -1.67262E-02  7.20399E-02 -4.77854E-02  1.12691E-01 -1.58598E-01 -3.78771E-01 -2.99246E-01 -3.71098E-01 -2.80137E-01 -4.57583E-01
  -2.68625E-01  1.76739E-03 -3.68820E-01 -2.34158E-01 -3.19670E-02  1.92050E-01  2.59030E-01 -3.22320E-02 -9.45515E-02 -2.72406E-01
   2.32977E-01  5.75271E-02 -4.75004E-02  6.85968E-02 -1.44443E-01  1.36555E-02 -2.37860E-01  1.41545E-01  2.10546E-01 -8.52773E-02
   2.04107E-01  1.47309E-01  2.91426E-03  2.64081E-01  2.35244E-01 -1.24630E-01 -2.06226E-01  2.21868E-01  1.86136E-01 -1.89046E-02
   6.81453E-02  1.37157E-01  1.40749E-01  3.97980E-02  3.24658E-01  1.23502E-01  2.23108E-01  1.68301E-01 -9.10610E-02  1.40869E-01
   1.66916E-01  2.74529E-01  1.97890E-01 -6.94238E-02 -9.70924E-02  1.47945E-01  1.17786E-01  4.97285E-02 -1.06834E-01 -5.10511E-02
   1.11389E-01  7.90298E-02  2.37135E-03 -3.54629E-02 -3.77566E-01 -1.34925E-01  9.78552E-02 -2.25696E-01  1.95944E-01 -2.28948E-01
   9.15126E-03  2.13587E-01  2.57422E-02  2.96306E-01 -8.85244E-02  3.16348E-02 -2.86082E-02 -2.06369E-01 -5.86472E-02 -1.78457E-01
  -1.07616E-01  1.02327E-01 -9.36787E-02  2.74085E-01  7.66888E-02 -5.13589E-02  2.95506E-01 -1.17118E-02  2.16743E-01  2.27391E-01
   1.22418E-01  1.06162E-01 -1.16470E-02 -2.78295E-02 -4.29672E-03  6.87958E-02  8.16116E-02 -9.33436E-02  2.45741E-02 -4.23232E-02
  -3.03741E-02  2.21169E-01  2.16480E-01  1.33182E-01  2.47170E-02  4.45428E-01 -6.73539E-02 -1.36862E-01  4.94316E-02  5.75865E-02
   2.18342E-01 -5.85070E-02  3.66062E-01  3.48330E-01  4.59584E-01  7.55258E-02 -2.81520E-01  1.78108E-01  1.93104E-01  1.33543E-01
   2.26230E-02  9.80179E-02  1.47149E-01 -1.88315E-01 -2.25032E-01  1.52951E-01  9.97099E-02  3.77182E-02  1.86290E-01  4.63861E-02
  -3.31588E-02  2.81340E-01  1.65893E-01  8.97088E-02
 NY points of the fit to the data follow
   7.41768E-03  8.59089E-03  9.26581E-03  9.58619E-03  9.46421E-03  9.54824E-03  1.05614E-02  1.20300E-02  1.39003E-02  2.41497E-02
   5.39948E-02  1.01824E-01  1.58146E-01  2.19413E-01  2.82232E-01  3.37102E-01  3.73208E-01  3.79288E-01  3.35593E-01  2.43772E-01
   1.39915E-01  5.65760E-02  5.18285E-03 -1.74417E-02 -2.57272E-02 -3.47401E-02 -4.59463E-02 -5.63467E-02 -6.61017E-02 -7.58960E-02
  -8.67990E-02 -9.97611E-02 -1.14740E-01 -1.29536E-01 -1.40981E-01 -1.45699E-01 -1.39948E-01 -1.19699E-01 -8.23929E-02 -2.90428E-02
   3.54040E-02  1.01708E-01  1.57492E-01  1.94136E-01  2.07457E-01  1.98211E-01  1.70135E-01  1.30265E-01  8.62793E-02  4.49213E-02
   1.03368E-02 -1.81811E-02 -4.44686E-02 -7.27731E-02 -1.04843E-01 -1.40545E-01 -1.78616E-01 -2.14833E-01 -2.45094E-01 -2.70158E-01
  -2.83775E-01 -2.75763E-01 -2.46358E-01 -1.99740E-01 -1.35619E-01 -5.74844E-02  2.08827E-02  9.86463E-02  1.76807E-01  2.31381E-01
   2.52638E-01  2.44803E-01  2.04069E-01  1.33418E-01  4.76815E-02 -3.94832E-02 -1.19819E-01 -1.89434E-01 -2.43080E-01 -2.66103E-01
  -2.48844E-01 -1.88988E-01 -8.28552E-02  5.14636E-02  1.73056E-01  2.64137E-01  3.21202E-01  3.35975E-01  3.17035E-01  2.83734E-01
   2.43979E-01  2.01216E-01  1.58877E-01  1.10960E-01  5.39526E-02 -7.32870E-03 -6.59183E-02 -1.13609E-01 -1.41467E-01 -1.40095E-01
  -1.03359E-01 -3.46385E-02  5.40267E-02  1.40968E-01  2.07252E-01  2.44132E-01  2.55120E-01  2.51438E-01  2.44229E-01  2.39512E-01
   2.37834E-01  2.38348E-01  2.39288E-01  2.40435E-01  2.41924E-01  2.43743E-01  2.43219E-01  2.38177E-01  2.29601E-01  2.14010E-01
   1.87352E-01  1.49189E-01  9.95565E-02  3.50533E-02 -4.18649E-02 -1.17896E-01 -1.88885E-01 -2.51209E-01 -2.89343E-01 -3.20516E-01
  -3.64895E-01 -4.11304E-01 -4.44222E-01 -4.86694E-01 -5.54264E-01 -6.35328E-01 -7.11416E-01 -7.48414E-01 -6.77730E-01 -5.06427E-01
  -3.16466E-01 -1.63571E-01 -7.00312E-02 -3.23448E-02 -1.88608E-02 -5.20822E-04  1.87869E-02  3.67696E-02  5.32761E-02  6.86194E-02
   8.31514E-02  9.73218E-02  1.11641E-01  1.26419E-01  1.41997E-01  1.58916E-01  1.77817E-01  1.99462E-01  2.25289E-01  2.57969E-01
   3.01773E-01  3.64279E-01  4.29385E-01  4.63809E-01  4.59074E-01  4.19184E-01  3.31845E-01  1.84408E-01 -1.30267E-02 -2.38469E-01
  -4.60822E-01 -5.93605E-01 -5.99488E-01 -5.26838E-01 -4.30644E-01 -3.48774E-01 -3.03065E-01 -2.81953E-01 -2.60922E-01 -2.42205E-01
  -2.27068E-01 -2.13802E-01 -2.01877E-01 -1.91326E-01 -1.82639E-01 -1.75416E-01 -1.69138E-01 -1.62847E-01 -1.55943E-01 -1.48653E-01
  -1.41538E-01 -1.34562E-01 -1.27514E-01 -1.20569E-01 -1.13778E-01 -1.07196E-01 -1.00821E-01 -9.48007E-02 -8.91828E-02 -8.40686E-02
  -7.94140E-02 -7.51545E-02 -7.14917E-02 -6.87853E-02 -6.72447E-02 -6.65651E-02 -6.61967E-02 -6.58421E-02 -6.56013E-02 -6.59214E-02
  -6.69253E-02 -6.79404E-02 -6.81559E-02 -6.74183E-02 -6.61851E-02 -6.50863E-02 -6.44017E-02 -6.37088E-02 -5.97448E-02 -4.78607E-02
  -2.74670E-02 -1.63092E-03  2.83179E-02  6.56101E-02  1.12689E-01  1.63282E-01  2.05889E-01  2.30642E-01  2.36670E-01  2.30988E-01
   2.19706E-01  2.01109E-01  1.63642E-01  1.02792E-01  3.52780E-02 -1.90078E-02 -5.20125E-02 -6.56446E-02 -6.93312E-02 -7.32097E-02
  -7.93021E-02 -8.53774E-02 -9.10165E-02 -9.59795E-02 -1.00464E-01 -1.05044E-01 -1.10281E-01 -1.16930E-01 -1.25608E-01 -1.37301E-01
  -1.48935E-01 -1.56340E-01 -1.61230E-01 -1.61934E-01 -1.51448E-01 -1.26909E-01 -9.17768E-02 -4.90161E-02 -3.61838E-04  4.04369E-02
   6.94117E-02  9.38592E-02  1.10464E-01  1.18994E-01  1.24626E-01  1.31613E-01  1.38643E-01  1.44707E-01  1.48900E-01  1.46447E-01
   1.36776E-01  1.18276E-01  9.18950E-02  5.89357E-02  2.24304E-02 -1.53975E-02 -5.44448E-02 -9.43901E-02 -1.34475E-01 -1.68684E-01
  -1.91052E-01 -1.95304E-01 -1.75939E-01 -1.30027E-01 -5.92512E-02  2.76740E-02  1.18092E-01  1.93295E-01  2.36584E-01  2.45509E-01
   2.26399E-01  1.93059E-01  1.62487E-01  1.44656E-01  1.41019E-01  1.48502E-01  1.62069E-01  1.75783E-01  1.85506E-01  1.89686E-01
   1.88336E-01  1.82889E-01  1.75834E-01  1.69180E-01  1.63211E-01  1.57763E-01  1.52173E-01  1.45320E-01  1.36762E-01  1.25835E-01
   1.11698E-01  9.33393E-02  6.96282E-02  3.99179E-02  4.01755E-03 -3.76181E-02 -8.31020E-02 -1.29490E-01 -1.72381E-01 -2.06588E-01
  -2.26609E-01 -2.28608E-01 -2.11662E-01 -1.77100E-01 -1.30124E-01 -7.79674E-02 -2.79364E-02  1.27218E-02  3.97401E-02  5.12078E-02
   4.87628E-02  3.59679E-02  1.87366E-02  4.23137E-03 -4.17101E-03 -2.03174E-02 -8.20717E-02 -1.99500E-01 -3.50409E-01 -5.25860E-01
  -7.26386E-01 -9.25947E-01 -1.07843E+00 -1.14271E+00 -1.06076E+00 -8.13725E-01 -5.04281E-01 -2.50039E-01 -9.58619E-02 -3.67715E-02
  -3.36359E-02 -3.41964E-02 -2.29782E-02 -1.19666E-02 -3.13026E-03  2.99973E-03  5.97978E-03  5.26731E-03  6.90829E-04 -7.48319E-03
  -1.81622E-02 -2.98614E-02 -4.06040E-02 -4.79494E-02 -5.07905E-02 -4.78227E-02 -3.99120E-02 -2.86381E-02 -1.62105E-02 -4.64328E-03
   4.98961E-03  1.25640E-02  1.85910E-02  2.33934E-02  2.76280E-02  3.12588E-02  3.45801E-02  3.77712E-02  4.08717E-02  4.38678E-02
   4.66803E-02  4.92297E-02  5.15830E-02  5.38841E-02  5.61207E-02  5.82888E-02  6.03797E-02  6.23812E-02  6.43631E-02  6.63645E-02
   6.83054E-02  6.99004E-02  7.09259E-02  7.11622E-02  7.05617E-02  6.92678E-02  6.75032E-02  6.53875E-02  6.29081E-02  6.00069E-02
   5.66349E-02  5.28187E-02  4.86582E-02  4.43610E-02  4.00858E-02  3.59189E-02  3.20079E-02  2.83926E-02  2.49939E-02  2.17700E-02
   1.87728E-02  1.60381E-02  1.35495E-02  1.13342E-02  9.30445E-03  7.35573E-03  5.50501E-03  3.84060E-03  2.41086E-03  1.28961E-03
   5.43043E-04  2.23878E-04  3.83426E-04  1.09665E-03  2.45659E-03  4.35148E-03  6.56366E-03  9.01257E-03  1.16246E-02  1.42826E-02
   1.69387E-02  1.95796E-02  2.22162E-02  2.50877E-02  2.85774E-02  3.28334E-02  3.77350E-02  4.30743E-02  4.86804E-02  5.45496E-02
   6.08530E-02  6.76786E-02  7.48786E-02  8.21371E-02  8.91567E-02  9.56634E-02  1.01408E-01  1.06202E-01  1.09809E-01  1.11995E-01
   1.12683E-01  1.11852E-01  1.09495E-01  1.05905E-01  1.02865E-01  1.01975E-01  1.04166E-01  1.10190E-01  1.19799E-01  1.32057E-01
   1.45757E-01  1.58739E-01  1.66716E-01  1.63950E-01  1.50469E-01  1.28534E-01  1.03797E-01  8.32405E-02  6.95761E-02  6.14721E-02
   5.67891E-02  5.38134E-02  5.10214E-02  4.90377E-02  4.79662E-02  4.78212E-02  4.86218E-02  5.01920E-02  5.22640E-02  5.47156E-02
   5.74310E-02  6.02230E-02  6.29804E-02  6.56121E-02  6.79604E-02  6.98974E-02  7.14615E-02  7.27286E-02  7.37796E-02  7.46579E-02
   7.52730E-02  7.54197E-02  7.49198E-02  7.38074E-02  7.22119E-02  7.02813E-02  6.82102E-02  6.60488E-02  6.38437E-02  6.16691E-02
   5.94893E-02  5.72246E-02  5.48836E-02  5.25180E-02  5.01295E-02  4.77742E-02  4.55083E-02  4.33281E-02  4.11838E-02  3.90146E-02
   3.66682E-02  3.39307E-02  3.06838E-02  2.68615E-02  2.23858E-02  1.71667E-02  1.11806E-02  4.41995E-03 -3.20623E-03 -1.18132E-02
  -2.14182E-02 -3.18382E-02 -4.27030E-02 -5.35946E-02 -6.40684E-02 -7.38050E-02 -8.25940E-02 -9.02871E-02 -9.67171E-02 -1.01703E-01
  -1.05079E-01 -1.06752E-01 -1.06740E-01 -1.05233E-01 -1.02635E-01 -9.92398E-02 -9.51757E-02 -9.06508E-02 -8.59170E-02 -8.10582E-02
  -7.60613E-02 -7.08226E-02 -6.51574E-02 -5.89421E-02 -5.23063E-02 -4.54594E-02 -3.84763E-02 -3.15010E-02 -2.47358E-02 -1.82640E-02
  -1.20633E-02 -6.11857E-03 -4.72740E-04  4.84562E-03  9.77643E-03  1.42871E-02  1.84246E-02  2.22545E-02  2.57692E-02  2.88830E-02
   3.15373E-02  3.38691E-02  3.59798E-02  3.77715E-02  3.92966E-02  4.06139E-02  4.17115E-02  4.27298E-02  4.38099E-02  4.49258E-02
   4.60728E-02  4.73589E-02  4.87475E-02  5.00412E-02  5.11389E-02  5.19815E-02  5.24758E-02  5.26703E-02  5.27535E-02  5.28042E-02
   5.28147E-02  5.28842E-02  5.30742E-02  5.33112E-02  5.35399E-02  5.37475E-02  5.39126E-02  5.40288E-02  5.40272E-02  5.38079E-02
   5.34134E-02  5.29279E-02  5.24873E-02  5.23252E-02  5.24475E-02  5.26318E-02  5.27383E-02  5.27514E-02  5.27363E-02  5.27835E-02
   5.30503E-02  5.36289E-02  5.44389E-02  5.53349E-02  5.62187E-02  5.70540E-02  5.77909E-02  5.84394E-02  5.89995E-02  5.94087E-02
   5.96519E-02  5.98095E-02  5.99233E-02  6.00469E-02  6.02823E-02  6.07821E-02  6.15776E-02  6.25935E-02  6.37164E-02  6.48113E-02
   6.58114E-02  6.67465E-02  6.76879E-02  6.86516E-02  6.95097E-02  7.00477E-02  7.02422E-02  7.02426E-02  7.03047E-02  7.06287E-02
   7.11656E-02  7.16794E-02  7.20246E-02  7.23164E-02  7.27235E-02  7.32792E-02  7.39778E-02  7.47900E-02  7.56294E-02  7.65178E-02
   7.75425E-02  7.86317E-02  7.97354E-02  8.09737E-02  8.24256E-02  8.41264E-02  8.61428E-02  8.83978E-02  9.08199E-02  9.33760E-02
   9.59015E-02  9.82604E-02  1.00539E-01  1.02894E-01
 NY background values follow
     3.942E-02    3.935E-02    3.927E-02    3.920E-02    3.913E-02    3.905E-02    3.898E-02    3.891E-02    3.884E-02    3.876E-02
     3.869E-02    3.862E-02    3.854E-02    3.847E-02    3.840E-02    3.832E-02    3.825E-02    3.818E-02    3.811E-02    3.803E-02
     3.796E-02    3.789E-02    3.781E-02    3.774E-02    3.767E-02    3.759E-02    3.752E-02    3.745E-02    3.738E-02    3.730E-02
     3.723E-02    3.716E-02    3.708E-02    3.701E-02    3.694E-02    3.686E-02    3.679E-02    3.672E-02    3.664E-02    3.657E-02
     3.650E-02    3.643E-02    3.635E-02    3.628E-02    3.621E-02    3.613E-02    3.606E-02    3.599E-02    3.591E-02    3.584E-02
     3.577E-02    3.570E-02    3.562E-02    3.555E-02    3.548E-02    3.540E-02    3.533E-02    3.526E-02    3.518E-02    3.511E-02
     3.504E-02    3.497E-02    3.489E-02    3.482E-02    3.475E-02    3.467E-02    3.460E-02    3.453E-02    3.445E-02    3.438E-02
