 
 $NMID
 ID=''
 FMTDAT='(2E13.5)'
 TRAMP=   1.00000E+0
 VOLUME=   1.00000E+0
 $END
   4.70178E+2   1.63162E+2
  -1.36504E+3   1.63904E+3
   4.44978E+3  -3.81483E+2
   1.02823E+3   6.77268E+2
  -4.70914E+1  -2.15415E+3
   1.64103E+3   7.98617E+2
  -1.41452E+3  -1.44499E+3
  -1.28536E+3  -2.48270E+3
   5.95870E+2  -1.37337E+3
  -8.51030E+2  -2.31328E+3
   2.12650E+3   1.17070E+3
   3.19292E+3   1.67637E+3
  -2.63308E+3   2.88332E+3
  -4.23836E+3   1.11566E+3
  -3.88192E+3  -9.23127E+2
   1.05364E+3  -1.23989E+3
   3.65075E+3   6.69981E+1
   2.21687E+3   2.66193E+3
  -2.61258E+1   1.61151E+3
   7.75949E+1   8.86913E+2
   3.52753E+3   3.38005E+2
   1.25359E+3   5.21628E+3
  -3.25242E+3  -3.57111E+2
  -6.09503E+2  -3.48384E+3
   5.22420E+3  -2.93295E+3
   1.18945E+3   1.39790E+3
  -1.56474E+3   5.77234E+2
  -2.27518E+2  -5.00388E+3
   6.33173E+2  -6.69899E+3
   7.26690E+3  -2.19715E+3
   4.25397E+2   6.31810E+3
  -8.27102E+3   3.27397E+3
  -7.75904E+3  -3.20957E+3
  -1.30706E+3  -1.09118E+3
  -4.08030E+3   6.79532E+1
  -3.52776E+3  -7.01994E+3
   4.79692E+3  -3.43507E+3
   5.62966E+3   3.25075E+3
   2.73775E+3   1.71016E+3
   2.50182E+1   2.43266E+2
  -2.69904E+3   4.12686E+3
  -6.13308E+3  -1.97414E+3
  -2.43737E+3  -7.56937E+3
   5.09844E+3  -2.16307E+3
   2.68329E+3   1.70288E+3
   8.72774E+2   1.17521E+3
   1.57285E+2   1.72647E+3
   9.08829E+2   2.37650E+3
  -2.61175E+3  -1.25003E+1
  -1.64294E+3  -1.98748E+3
  -2.00913E+3  -6.59538E+3
   4.50675E+3  -7.86221E+3
   5.66718E+3  -2.52742E+3
   1.66148E+3   2.67107E+3
  -2.36924E+3   1.26555E+3
  -1.92014E+3   5.00486E+2
  -4.98486E+3   3.60430E+3
  -5.00593E+3  -2.63622E+3
  -1.37076E+3  -6.94038E+3
   2.86983E+3  -3.93097E+3
   4.94506E+3  -1.06688E+3
   4.67897E+3   3.77749E+3
   4.40408E+2   5.68999E+3
  -3.08802E+3   2.40925E+3
   1.59798E+3   1.21083E+3
   3.52254E+3   2.75234E+3
   1.47159E+3   3.06787E+3
  -3.37379E+3   2.94586E+2
   9.40732E+2  -1.43856E+3
   6.07594E+2  -1.50481E+3
  -9.42845E+2   7.71714E+2
  -4.58053E+2   4.73235E+2
   6.18869E+2  -1.98153E+3
   4.17475E+1  -2.46138E+3
   1.33694E+3  -4.24321E+2
   1.45999E+3   1.44491E+3
  -1.04001E+3   1.77630E+3
   5.65684E+2   1.02347E+3
   2.87815E+3  -1.37166E+2
   1.60827E+3   2.82992E+3
  -9.42289E+2   1.48488E+3
   1.42091E+3  -4.75775E+2
   5.17970E+2   3.10046E+3
   1.26753E+3   4.77155E+3
  -2.66032E+3   3.63333E+3
  -2.44700E+3  -1.14407E+3
   1.23471E+3  -3.13828E+3
   2.24096E+3  -2.40682E+3
   4.50812E+3   1.76228E+3
  -2.02132E+2   3.13272E+3
  -1.57118E+2   2.29106E+3
   1.98159E+3   1.32849E+3
   5.84919E+2   3.91001E+3
  -5.62930E+3   3.00840E+3
  -3.27624E+3  -3.18510E+3
   5.42224E+2  -2.22837E+3
   2.36780E+3  -1.31166E+3
   9.83624E+2   3.29308E+3
  -2.42671E+3   3.48120E+3
  -4.22191E+3  -1.71029E+3
   1.50730E+3  -4.76121E+3
   4.85682E+3   4.32269E+2
   1.45958E+3   2.90342E+3
  -7.45099E+2   2.77414E+3
  -1.41233E+3   8.87992E+2
   2.13015E+3   1.79213E+3
   1.81559E+2   1.83267E+2
  -4.07768E+3  -2.05997E+3
   1.04392E+3  -1.59787E+3
   2.58868E+3  -3.08508E+3
   4.93218E+3  -1.09202E+3
   3.37092E+3   1.98956E+3
   6.24026E+2   1.62470E+3
  -2.88095E+2   2.04535E+3
  -1.28137E+3   3.19712E+3
  -1.57177E+3   9.25748E+2
  -2.05746E+3  -7.44985E+2
   9.58760E+2  -1.47924E+3
   1.20392E+3  -1.15979E+3
   1.17063E+3  -9.57606E+2
   2.47790E+3   1.14770E+3
  -1.15892E+3   7.30472E+2
  -1.21959E+3   1.64130E+1
   6.27602E+2  -9.34743E+2
   5.49269E+2   2.65782E+3
   1.34041E+3   1.40205E+3
   5.57543E+2   9.85013E+2
   1.10865E+3   1.01251E+3
  -2.39327E+1   1.19144E+3
   4.59360E+2   4.28662E+2
  -1.85568E+3  -2.19007E+3
  -6.68179E+2  -8.03040E+2
   1.30773E+3   1.38205E+3
   1.08204E+3   3.94104E+3
  -1.65000E+3   2.30043E+3
  -3.86949E+3   1.06271E+3
  -3.40259E+3  -1.48265E+3
  -5.98825E+1  -2.88780E+3
  -7.43062E+1  -1.03117E+3
   4.19651E+2   5.65986E+2
  -2.09880E+3  -1.20156E+3
   1.66097E+3  -3.12307E+2
   1.19557E+3   2.89429E+3
   1.24189E+3   3.58727E+3
   2.14974E+2   1.70797E+2
   1.70955E+2  -1.22762E+3
   1.64809E+2   1.99886E+3
  -8.30143E+2   1.95743E+3
   1.67247E+2   7.37053E+2
   1.24802E+2   2.41136E+3
  -3.07141E+3  -9.19954E+1
  -1.65557E+2  -2.15256E+3
  -7.63869E+2  -2.94064E+3
   9.86059E+2  -3.53356E+3
   6.68179E+2  -3.16623E+2
   6.79766E+2   7.09386E+2
   7.98523E+1   2.98939E+3
  -1.05650E+3   8.51266E+2
   1.08701E+3   1.74611E+3
  -5.17540E+2  -1.27067E+1
   4.96062E+2   1.23237E+3
  -7.20659E+2  -2.90577E+2
   5.57195E+2  -1.78148E+3
  -2.07296E+2  -1.10024E+3
   3.78367E+2   1.98783E+1
  -2.01997E+2  -2.69926E+2
  -5.83592E+2  -1.26182E+3
   1.01043E+3  -1.39503E+3
  -9.27162E+1   2.08314E+3
   8.26487E+2   1.15429E+3
  -4.87259E+2   2.03561E+2
  -7.96111E+2  -1.24242E+1
  -1.51919E+3   3.34954E+1
   2.80010E+2  -1.03399E+3
  -1.82108E+3   1.68711E+2
  -8.62614E+2  -1.15349E+3
   2.83298E+3  -1.47791E+3
   8.43345E+2  -1.20815E+3
  -1.20461E+3   1.24623E+3
  -3.34371E+3   1.23700E+3
  -2.20540E+3   9.99934E+2
  -1.00997E+3  -1.09633E+3
  -1.93213E+3  -9.92392E+2
   7.45143E+2  -1.54084E+3
  -9.09733E+2   7.18152E+2
   1.02272E+3   9.80664E+2
  -1.05940E+3   2.76774E+3
  -1.72114E+3  -2.18006E+2
  -1.84763E+3  -1.31852E+3
  -8.86124E+2  -2.50100E+3
   3.00311E+2  -6.52614E+2
  -1.11872E+3  -1.24988E+3
  -9.18816E+2   1.46381E+3
  -5.72077E+2  -1.29141E+3
  -1.06619E+2  -7.07257E+2
   1.83617E+2   4.70430E+2
  -7.05878E+2  -1.86088E+2
   1.84349E+2  -2.68105E+2
   8.37026E+2  -1.06519E+3
   6.73040E+2   9.33568E+2
  -3.19697E+3   4.65139E+3
  -2.53415E+3   3.97241E+2
  -4.70843E+2  -8.82813E+2
  -8.45222E+2  -1.23211E+3
   1.50731E+3  -9.12117E+2
  -2.28583E+2  -5.39530E+2
  -2.38215E+3   1.89049E+3
  -1.45118E+3   1.68215E+2
  -2.28508E+2  -1.11103E+3
  -1.33789E+3  -6.57795E+2
  -6.50914E+2   7.78635E+2
  -2.21716E+3  -1.05364E+3
   2.56058E+3  -1.44677E+3
   5.27038E+2   2.43665E+3
   3.44335E+2   9.92810E+2
  -1.74701E+3   2.54239E+3
  -1.62912E+3  -1.19249E+3
   1.54756E+3   8.47279E+2
  -1.16608E+3  -1.45186E+3
  -1.06611E+3  -3.90402E+2
   6.41761E+2   7.33002E+1
   1.18223E+2   4.87855E+2
  -3.36191E+3   1.07867E+2
  -1.58232E+3  -6.65456E+2
   7.38550E+2  -1.61245E+3
   3.95392E+2  -3.82129E+2
   2.01430E+3   8.33501E+2
   6.40644E+2   8.86092E+2
  -1.52849E+3   2.42730E+3
  -2.22538E+3  -9.03857E+2
   5.69553E+2  -1.79215E+3
  -2.40355E+2   1.89014E+2
  -9.97973E+2  -8.31887E+2
   7.50344E+2  -1.59102E+3
  -1.70361E+1  -3.69985E+3
   1.30440E+3   9.90190E+2
  -4.08441E+2   1.10835E+3
  -1.64953E+3   9.98462E+2
   2.79855E+2   1.83103E+2
   7.70582E+2  -2.25338E+3
  -8.63127E+2   1.36994E+2
  -3.94988E+2  -9.57857E+2
  -9.16463E+1  -2.18919E+2
   8.11365E+2  -5.12962E+2
   5.65714E+2  -7.82676E+1
   2.88416E+2  -9.10125E+2
  -7.38072E+2   2.48655E+3
  -7.57061E+2  -3.84845E+2
   5.15644E+2  -1.59608E+3
   9.36728E+2  -1.91709E+2
   1.40578E+3   1.22798E+2
  -2.12473E+3  -1.87387E+2
  -1.88210E+3  -2.22741E+2
  -1.92450E+3  -8.75753E+2
  -1.99850E+3  -1.11430E+3
   6.70930E+2  -6.88919E+2
  -1.06315E+2  -1.07548E+3
   1.10816E+3   5.51986E+2
  -2.10231E+1   2.72794E+3
  -9.85290E+2   6.74430E+1
   7.71990E+1  -1.40242E+3
  -1.69034E+2  -4.25182E+2
   1.71931E+3  -6.12110E+2
   1.99276E+2   7.73503E+2
  -7.74974E+2  -1.06052E+3
   8.42874E+2  -2.90669E+2
   2.14191E+3  -7.70962E+2
  -3.60959E+2  -6.12178E+2
   3.16990E+2   2.74556E+3
  -1.15804E+3  -1.34376E+3
   1.30766E+3  -8.80809E+2
   2.26208E+3  -8.74906E+2
   1.44509E+3  -1.68197E+3
  -2.44164E+3   1.15395E+3
  -6.22473E+2  -8.95036E+2
   1.91616E+3   5.36520E+2
   4.38690E+2  -1.44401E+2
  -9.54445E+2  -2.73488E+3
   7.74824E+2   2.58869E+2
   2.93237E+2   7.96577E+1
   2.43268E+3   1.13000E+0
   1.12160E+3  -1.46816E+2
  -9.65944E+2  -2.07020E+3
  -1.98876E+3  -1.76552E+3
   6.48315E+2   8.30333E+2
   8.82393E+1  -1.11383E+3
  -2.57535E+2  -6.72262E+2
  -4.16145E+1  -4.57361E+2
  -4.53727E+2  -1.55538E+3
   1.12848E+3  -1.87489E+2
   1.06424E+3   4.22009E+1
   1.06087E+3  -1.03002E+3
   1.02046E+2   2.03906E+3
   8.26282E+2   1.35414E+3
   2.84109E+2   1.78813E+1
   8.65883E+2  -5.54658E+2
  -1.78216E+3   5.50171E+2
  -4.62751E+2  -6.20248E+2
   2.36958E+3   4.91931E+2
  -1.84420E+2  -1.20031E+3
  -1.07712E+3   3.72704E+2
  -4.45492E+2  -7.22401E+2
   5.11418E+2   2.28158E+1
   3.45315E+1  -6.38786E+2
  -1.11867E+3   1.20066E+3
  -2.32855E+3   1.51248E+3
  -4.15246E+2  -1.06819E+3
   1.84943E+3  -1.62001E+3
   1.03249E+3   7.15686E+2
   2.28082E+2  -7.49952E+2
  -8.40054E+2  -2.12561E+1
  -1.33304E+3   1.08372E+2
  -5.39023E+0  -5.76299E+2
   1.07373E+2  -1.90028E+3
  -3.67023E+2  -4.75036E+2
   9.55849E+2   1.24160E+3
  -5.39877E+2   7.68730E+2
  -2.45010E+2  -1.21667E+2
  -3.89111E+2   1.87524E+1
   5.11996E+1  -3.97648E+2
   4.10630E+2   9.66301E+2
   1.34623E+3  -6.98623E+2
  -1.18390E+3  -2.12668E+3
  -2.93469E+2   1.01522E+3
  -9.13622E+2   8.54497E+2
  -2.31509E+3   1.02398E+3
   1.23089E+3   6.58092E+1
   8.95379E+2  -2.21667E+3
  -1.96680E+3  -5.69931E+2
  -1.99021E+3   9.89951E+2
   8.57312E+2   3.93613E+1
   1.16385E+3  -5.18632E+2
  -1.97679E+3   1.21211E+3
   3.11916E+2  -5.99390E+2
   1.41473E+3  -1.85810E+2
  -3.09296E+2  -5.43372E+2
  -2.71177E+3   2.14107E+3
   6.04060E+2  -1.45409E+3
   3.40962E+2   4.11311E+2
   2.05731E+3  -1.60858E+3
  -8.09999E+0  -1.25710E+3
  -8.20636E+2  -1.94675E+3
   3.36330E+2   2.46519E+1
   1.08440E+2  -8.78266E+1
   5.37694E+2   6.38807E+2
   9.15776E+2   1.63610E+3
   7.41985E+1   8.54925E+2
  -3.14139E+2   9.68675E+2
  -8.55272E+2   4.35868E+2
  -1.47658E+2   3.05678E+2
   9.75194E+1  -7.82918E+1
   4.81963E+2   2.56750E+2
  -1.16260E+3  -1.68309E+3
   4.80062E+2   9.70848E+2
  -8.63738E+2  -1.05449E+3
  -2.29983E+2   7.84247E+2
  -1.69547E+3  -1.30848E+3
   7.36500E+2   3.80137E+2
  -1.21493E+3  -3.41829E+1
  -4.61644E+2   1.04204E+3
  -1.06754E+3   8.01983E+2
  -4.58706E+2  -1.12773E+2
   2.95957E+3   7.59116E+2
  -5.92330E+2   4.88927E+2
   6.86562E+2  -1.00632E+3
  -8.14336E+2   3.60395E+2
   1.10665E+3  -1.01457E+3
