 LCModel (Version 6.3-1N) Copyright: S.W. Provencher.          Ref.: Magn. Reson. Med. 30:672-679 (1993).                
 Slice_N1@15_13  02-Jun-2023 14:36:48
 27 lines in following concentration table = NCONC+1
    Conc.  %SD /Cr+PCr  Metabolite                                         
 1.81E-06  18% 2.1E-04 Mac                                                 
 4.47E-02  20%   5.165 Cr                                                  
 2.45E-02  40%   2.835 PCr                                                 
 8.07E-02  10%   9.322 Ins                                                 
 8.25E-02   8%   9.531 NAA                                                 
 5.62E-02  13%   6.497 Tau                                                 
 4.45E-03 119%   0.514 PCho                                                
 5.65E-03  82%   0.653 GPC                                                 
 5.97E-02  15%   6.899 Glu                                                 
 2.23E-02  29%   2.579 Gln                                                 
    0.000 999%   0.000 Ala                                                 
 1.52E-02  83%   1.752 Asc                                                 
 1.89E-02  39%   2.179 Asp                                                 
 9.72E-03  41%   1.123 GABA                                                
 4.39E-03 112%   0.508 Glc                                                 
 8.09E-03  46%   0.935 GSH                                                 
    0.000 999%   0.000 Lac                                                 
 3.63E-03 122%   0.420 NAAG                                                
    0.000 999%   0.000 PE                                                  
 1.01E-02  20%   1.167 GPC+PCho                                            
 8.61E-02   9%   9.951 NAA+NAAG                                            
 8.20E-02  13%   9.478 Glu+Gln                                             
 6.92E-02   9%   8.000 Cr+PCr                                              
 8.61E-02   9%   9.951 NAA+NAAG                                            
 6.92E-02   9%   8.000 Cr+PCr                                              
 8.20E-02  13%   9.478 Glu+Gln                                             
   6 lines in following misc. output table
  FWHM = 0.023 ppm    S/N =   6                                            
  Data shift = 0.012 ppm                                                   
  Ph: -85 deg     -21.1 deg/ppm                                            
  alphaB,S = 5.2E-01,   6.2E+00                                            
   18 spline knots.   Ns = 5(1)                                            
  ( 3) 3 infls.   ( 3) 1 extrs.                                            
  654 points on ppm-axis = NY
      4.000000     3.994181     3.988363     3.982544     3.976726     3.970907     3.965088     3.959270     3.953451     3.947633
      3.941814     3.935995     3.930177     3.924358     3.918540     3.912721     3.906902     3.901084     3.895265     3.889446
      3.883628     3.877809     3.871991     3.866172     3.860353     3.854535     3.848716     3.842898     3.837079     3.831260
      3.825442     3.819623     3.813805     3.807986     3.802167     3.796349     3.790530     3.784712     3.778893     3.773074
      3.767256     3.761437     3.755619     3.749800     3.743981     3.738163     3.732344     3.726526     3.720707     3.714888
      3.709070     3.703251     3.697433     3.691614     3.685795     3.679977     3.674158     3.668339     3.662521     3.656702
      3.650884     3.645065     3.639246     3.633428     3.627609     3.621791     3.615972     3.610153     3.604335     3.598516
      3.592698     3.586879     3.581060     3.575242     3.569423     3.563605     3.557786     3.551967     3.546149     3.540330
      3.534512     3.528693     3.522874     3.517056     3.511237     3.505419     3.499600     3.493781     3.487963     3.482144
      3.476326     3.470507     3.464688     3.458870     3.453051     3.447232     3.441414     3.435595     3.429777     3.423958
      3.418139     3.412321     3.406502     3.400684     3.394865     3.389046     3.383228     3.377409     3.371591     3.365772
      3.359953     3.354135     3.348316     3.342498     3.336679     3.330860     3.325042     3.319223     3.313405     3.307586
      3.301767     3.295949     3.290130     3.284312     3.278493     3.272674     3.266856     3.261037     3.255219     3.249400
      3.243581     3.237763     3.231944     3.226125     3.220307     3.214488     3.208670     3.202851     3.197032     3.191214
      3.185395     3.179577     3.173758     3.167939     3.162121     3.156302     3.150484     3.144665     3.138846     3.133028
      3.127209     3.121391     3.115572     3.109753     3.103935     3.098116     3.092298     3.086479     3.080660     3.074842
      3.069023     3.063205     3.057386     3.051567     3.045749     3.039930     3.034111     3.028293     3.022474     3.016656
      3.010837     3.005018     2.999200     2.993381     2.987563     2.981744     2.975925     2.970107     2.964288     2.958470
      2.952651     2.946832     2.941014     2.935195     2.929377     2.923558     2.917739     2.911921     2.906102     2.900284
      2.894465     2.888646     2.882828     2.877009     2.871191     2.865372     2.859553     2.853735     2.847916     2.842098
      2.836279     2.830460     2.824642     2.818823     2.813004     2.807186     2.801367     2.795549     2.789730     2.783911
      2.778093     2.772274     2.766456     2.760637     2.754818     2.749000     2.743181     2.737363     2.731544     2.725725
      2.719907     2.714088     2.708270     2.702451     2.696632     2.690814     2.684995     2.679177     2.673358     2.667539
      2.661721     2.655902     2.650084     2.644265     2.638446     2.632628     2.626809     2.620991     2.615172     2.609353
      2.603535     2.597716     2.591897     2.586079     2.580260     2.574442     2.568623     2.562804     2.556986     2.551167
      2.545349     2.539530     2.533711     2.527893     2.522074     2.516256     2.510437     2.504618     2.498800     2.492981
      2.487163     2.481344     2.475525     2.469707     2.463888     2.458070     2.452251     2.446432     2.440614     2.434795
      2.428977     2.423158     2.417339     2.411521     2.405702     2.399884     2.394065     2.388246     2.382428     2.376609
      2.370790     2.364972     2.359153     2.353335     2.347516     2.341697     2.335879     2.330060     2.324242     2.318423
      2.312604     2.306786     2.300967     2.295149     2.289330     2.283511     2.277693     2.271874     2.266056     2.260237
      2.254418     2.248600     2.242781     2.236963     2.231144     2.225325     2.219507     2.213688     2.207870     2.202051
      2.196232     2.190414     2.184595     2.178777     2.172958     2.167139     2.161321     2.155502     2.149683     2.143865
      2.138046     2.132228     2.126409     2.120590     2.114772     2.108953     2.103135     2.097316     2.091497     2.085679
      2.079860     2.074042     2.068223     2.062404     2.056586     2.050767     2.044949     2.039130     2.033311     2.027493
      2.021674     2.015856     2.010037     2.004218     1.998400     1.992581     1.986763     1.980944     1.975126     1.969307
      1.963489     1.957670     1.951852     1.946033     1.940215     1.934397     1.928578     1.922760     1.916941     1.911123
      1.905304     1.899486     1.893667     1.887849     1.882030     1.876212     1.870393     1.864575     1.858756     1.852938
      1.847119     1.841301     1.835482     1.829664     1.823845     1.818027     1.812208     1.806390     1.800571     1.794753
      1.788934     1.783116     1.777297     1.771479     1.765660     1.759842     1.754023     1.748205     1.742386     1.736568
      1.730749     1.724931     1.719113     1.713294     1.707476     1.701657     1.695839     1.690020     1.684202     1.678383
      1.672565     1.666746     1.660928     1.655109     1.649291     1.643472     1.637654     1.631835     1.626017     1.620198
      1.614380     1.608561     1.602743     1.596924     1.591106     1.585287     1.579469     1.573650     1.567832     1.562013
      1.556195     1.550376     1.544558     1.538739     1.532921     1.527102     1.521284     1.515465     1.509647     1.503829
      1.498010     1.492192     1.486373     1.480555     1.474736     1.468918     1.463099     1.457281     1.451462     1.445644
      1.439825     1.434007     1.428188     1.422370     1.416551     1.410733     1.404914     1.399096     1.393277     1.387459
      1.381640     1.375822     1.370003     1.364185     1.358366     1.352548     1.346729     1.340911     1.335092     1.329274
      1.323455     1.317637     1.311818     1.306000     1.300182     1.294363     1.288545     1.282726     1.276908     1.271089
      1.265271     1.259452     1.253634     1.247815     1.241997     1.236178     1.230360     1.224541     1.218723     1.212904
      1.207086     1.201267     1.195449     1.189630     1.183812     1.177993     1.172175     1.166356     1.160538     1.154719
      1.148901     1.143082     1.137264     1.131445     1.125627     1.119808     1.113990     1.108171     1.102353     1.096534
      1.090716     1.084898     1.079079     1.073261     1.067442     1.061624     1.055805     1.049987     1.044168     1.038350
      1.032531     1.026713     1.020894     1.015076     1.009257     1.003439     0.997620     0.991802     0.985983     0.980165
      0.974346     0.968528     0.962709     0.956891     0.951072     0.945254     0.939435     0.933617     0.927798     0.921980
      0.916161     0.910343     0.904524     0.898706     0.892887     0.887069     0.881251     0.875432     0.869614     0.863795
      0.857977     0.852158     0.846340     0.840521     0.834703     0.828884     0.823066     0.817247     0.811429     0.805610
      0.799792     0.793973     0.788155     0.782336     0.776518     0.770699     0.764881     0.759062     0.753244     0.747425
      0.741607     0.735788     0.729970     0.724151     0.718333     0.712514     0.706696     0.700877     0.695059     0.689240
      0.683422     0.677603     0.671785     0.665967     0.660148     0.654330     0.648511     0.642693     0.636874     0.631056
      0.625237     0.619419     0.613600     0.607782     0.601963     0.596145     0.590326     0.584508     0.578689     0.572871
      0.567052     0.561234     0.555415     0.549597     0.543778     0.537960     0.532141     0.526323     0.520504     0.514686
      0.508867     0.503049     0.497230     0.491412     0.485593     0.479775     0.473956     0.468138     0.462319     0.456501
      0.450682     0.444864     0.439045     0.433227     0.427408     0.421590     0.415771     0.409953     0.404134     0.398316
      0.392497     0.386679     0.380860     0.375042     0.369223     0.363405     0.357586     0.351767     0.345949     0.340130
      0.334312     0.328493     0.322675     0.316856     0.311038     0.305219     0.299401     0.293582     0.287764     0.281945
      0.276127     0.270308     0.264490     0.258671     0.252853     0.247034     0.241216     0.235397     0.229579     0.223760
      0.217942     0.212123     0.206305     0.200486
 NY phased data points follow
  -4.41204E-01 -1.30459E-01  9.63011E-03  1.55653E-01 -3.50464E-01 -3.98980E-01 -1.97453E-01 -3.42082E-01 -4.77666E-01 -6.88259E-03
   4.90361E-02  5.38992E-01  5.98770E-01 -1.54250E-01  1.60027E-01  4.95984E-01  4.70670E-01  1.88174E-01  3.28114E-01  4.13510E-01
   2.21734E-01  3.05755E-01  1.96939E-01 -1.00243E-01  1.11042E-01 -7.09893E-02 -1.93994E-01 -3.61804E-03 -1.23421E-02  8.29196E-02
  -2.47108E-01 -2.85434E-01 -3.30372E-01  2.40520E-02 -2.47716E-01 -3.38395E-01 -4.78553E-03 -3.40089E-01 -5.73180E-02 -1.90228E-01
  -6.10191E-02  2.39141E-01 -1.50831E-02  4.65033E-02  4.45779E-01  2.46193E-01  1.34228E-01  4.00092E-01  3.68097E-01 -1.35795E-02
  -2.44275E-02  2.06490E-01 -2.82972E-01  6.97652E-03 -4.96091E-02 -1.65288E-01  7.69833E-02 -1.72010E-01 -1.21901E-01 -1.83837E-01
  -1.56060E-01 -3.36620E-01 -5.04809E-01 -3.26648E-01 -2.59074E-01  5.27176E-02  2.40747E-01 -3.52022E-02  2.19213E-01  4.02255E-01
   2.28949E-01  7.22488E-02 -2.94215E-02 -9.59059E-03 -2.45551E-01 -2.09375E-01  1.10699E-01 -1.53330E-01 -4.71185E-01 -3.18787E-01
  -2.87160E-01  4.94952E-02 -1.41213E-01 -2.26548E-02  5.99845E-01  3.70640E-01  2.31005E-01  2.85420E-01  3.25070E-01  2.65712E-01
   1.49950E-01  2.80378E-01  5.51018E-01  1.43063E-01  9.29901E-02 -7.15840E-03 -2.48867E-01  1.28453E-02 -5.16172E-02 -6.46583E-02
  -8.28729E-02  4.75886E-02  2.14842E-01  4.85765E-01  5.32468E-01  5.26406E-01  2.41569E-01  3.36984E-01  4.99555E-01  4.54288E-02
   1.76524E-01  3.91860E-01  3.23873E-01  4.87582E-02  4.92161E-01  4.90902E-01  1.44793E-02  1.50493E-01  4.26030E-01  3.69942E-01
   2.24668E-01  1.70459E-01 -1.27341E-01 -1.11872E-01 -3.71084E-01 -2.94864E-01 -2.08913E-01 -6.37767E-01 -6.32749E-01 -6.98483E-01
  -7.17667E-01 -4.67177E-01 -4.19788E-01 -6.82042E-03 -1.93032E-01 -5.52324E-01 -4.89438E-01 -7.56822E-01 -3.04219E-01 -1.25944E-01
   1.29896E-01 -7.05587E-02 -2.06572E-01  3.18730E-01 -4.44099E-02  4.17656E-02  1.38149E-01  1.27687E-01  2.39495E-01 -1.37978E-01
  -1.36715E-01  1.30142E-01  8.81013E-02  5.01728E-02  1.79075E-01  2.05352E-01  1.27856E-01  3.02253E-01  1.46945E-01  3.11880E-01
   4.54594E-01  2.75740E-01  4.26860E-01  4.14246E-01  7.36391E-01  8.67061E-01  9.00263E-01  8.19978E-02 -8.06854E-01 -9.08828E-01
  -8.28544E-01 -5.63887E-01 -4.74641E-01 -4.30138E-01 -8.06103E-01 -5.73212E-01 -3.42561E-01 -4.62875E-01 -4.56115E-01 -2.25233E-01
  -1.82717E-01 -3.37042E-01 -5.76853E-02 -2.83755E-01 -1.65350E-01 -1.76137E-01 -3.48487E-01 -1.65857E-01 -1.90704E-01 -1.58482E-01
  -2.02426E-01 -1.36763E-01 -4.01831E-01 -1.25566E-01  9.06650E-02 -3.03710E-01 -1.22921E-02 -1.07757E-01 -7.76360E-02 -3.26943E-02
  -6.40793E-02 -7.58288E-03 -1.38279E-01 -1.76960E-01 -2.26405E-01 -7.74366E-02 -2.27222E-01  1.29847E-01  1.09242E-01 -2.56289E-01
  -1.52283E-01 -1.03034E-01  2.50409E-02 -2.90990E-02 -1.52896E-01 -1.90064E-01 -9.66878E-02 -2.80867E-01 -3.51735E-01 -5.74954E-02
   3.89278E-02  8.03905E-03  1.86549E-01 -5.17941E-02  2.19443E-01  3.77237E-01  3.55045E-01  4.70600E-01  1.23357E-01  5.52359E-01
   5.18805E-01  5.12288E-01  4.36958E-01  3.68438E-01  1.93859E-01 -1.34884E-01  1.16444E-01 -5.68819E-02 -1.61078E-02 -9.09724E-02
  -8.57698E-02  9.45869E-02 -7.59398E-02 -2.60047E-01 -1.45142E-01 -6.25478E-02 -3.94523E-02 -2.12287E-01 -2.99631E-01 -1.40705E-01
  -6.68854E-03  3.16295E-02 -3.25392E-02 -1.71424E-01 -2.68591E-01  1.91476E-01  4.71159E-02  2.88629E-02  2.48251E-01 -5.96822E-02
  -5.99621E-02  5.51219E-02 -6.27738E-02  1.16354E-01  2.96742E-01  1.94081E-01  1.49949E-01  1.31675E-01  2.75490E-01  1.83340E-01
   2.87882E-01  3.10431E-01  2.14187E-01 -1.96876E-01 -2.80879E-01 -1.83082E-01 -9.62623E-02  8.93481E-02 -1.05321E-01 -9.03628E-02
  -2.69323E-01 -1.55580E-01 -2.88233E-01 -2.49510E-01 -1.46568E-01  2.41153E-01  2.11751E-01  1.04769E-01  5.42231E-01  9.99182E-02
   2.33881E-01  2.49717E-01  1.42389E-01  8.29915E-02  5.97670E-02  6.58732E-02  1.62363E-01  1.72162E-01  6.14253E-02 -6.22331E-02
  -7.66576E-02  2.77447E-01  7.74448E-02  2.37459E-01  3.34648E-01  4.20729E-01  4.16173E-01  2.53741E-01  2.34479E-01  2.21234E-01
   1.55402E-01  1.53914E-01  1.55416E-01 -2.08238E-01  8.08303E-02  2.12751E-01  1.86192E-01  1.41582E-01 -7.40429E-02 -2.63521E-01
  -3.34094E-01 -1.14175E-01 -1.54339E-01 -3.38739E-01 -3.58999E-01 -1.28316E-01 -2.23731E-02  7.95167E-02  2.38621E-01 -1.85337E-02
  -1.08001E-01  2.85405E-01  2.56802E-01 -1.45427E-01 -1.18810E-02 -3.91872E-02 -2.96486E-01 -2.57875E-01 -2.91440E-01 -2.56061E-01
  -6.71353E-01 -5.34599E-01 -1.41195E+00 -2.09735E+00 -1.00654E+00 -9.89056E-01 -3.03500E-01 -1.15372E-01 -1.08382E-01  1.49387E-01
  -5.07746E-02  7.52790E-02  2.45936E-01  1.86411E-01 -2.57250E-01 -9.68213E-02 -6.02221E-02  3.47210E-01  3.48103E-01  3.82019E-01
   1.40695E-01 -1.53505E-01  5.28723E-02 -1.68666E-01  9.90676E-02 -2.91977E-01 -9.26555E-02  1.80935E-01  9.64545E-02  1.46443E-01
   1.34908E-01  3.21599E-01  1.71070E-01  3.36900E-01  1.31450E-01  9.34505E-03  3.45246E-01 -2.09966E-02 -2.14219E-01  1.94535E-01
   2.78624E-01  3.94254E-01  1.91957E-01  8.46618E-02  5.57721E-01  5.96392E-01  3.15042E-01  2.42094E-01  3.33286E-01  5.38034E-02
   2.12825E-01  3.01026E-01  1.31177E-01  1.31121E-01  4.06083E-02  4.78315E-01  2.33450E-01  1.57347E-01  5.18186E-01  1.51136E-01
   7.70316E-02  1.09008E-01  7.85707E-02  1.25899E-01  2.01418E-01  9.28616E-02 -5.60706E-02 -8.00458E-02 -3.68640E-02 -1.64745E-01
  -9.46226E-02  9.45999E-02 -2.45215E-01 -1.98732E-01  1.41532E-02 -1.18574E-02 -1.30663E-01  1.21441E-01  1.13282E-01 -2.51083E-01
  -6.56350E-02 -1.00247E-01 -3.14757E-01 -3.21589E-01 -2.78711E-02 -1.31288E-01 -2.48494E-01 -5.86940E-02 -1.92014E-01 -1.69947E-01
  -2.92951E-01 -1.69021E-01 -8.09962E-02 -4.24370E-01 -1.40666E-01 -1.33642E-01 -6.73556E-02 -2.02844E-01 -4.01286E-01  1.79259E-02
  -2.70197E-01 -1.53715E-01 -1.88176E-02  6.22772E-02  9.84585E-03 -2.72280E-01  2.55324E-02 -9.19178E-02  2.04007E-02  5.90822E-02
  -2.63532E-02  8.35944E-02  3.56322E-02  2.39170E-01 -2.42516E-01 -3.36485E-01  2.09885E-01 -1.31824E-01  1.10486E-01  1.16888E-01
  -1.43788E-01  2.11220E-02  4.10167E-03  1.22830E-02 -1.33425E-01 -1.27083E-01 -2.69129E-01  2.07321E-02 -1.94016E-02 -3.05490E-01
  -1.28015E-01 -1.32194E-01 -8.54777E-02 -3.04168E-01 -3.12455E-01  7.16855E-02 -6.96975E-02 -1.27760E-01 -4.44258E-02  8.59602E-03
   1.99713E-01 -2.58366E-01 -3.13857E-02  1.66930E-01  2.94879E-01  4.73898E-01  5.12245E-02  1.41390E-01  2.76546E-01  7.52221E-02
  -3.51234E-02  3.06781E-01 -3.66660E-02  8.55276E-02  4.94430E-01  3.19812E-01  8.36807E-02  2.76401E-02  2.11867E-01 -9.93281E-02
   1.53699E-01  1.12016E-01  1.33156E-02  3.29250E-02 -1.48419E-01  1.39581E-01 -1.49442E-01 -1.92643E-01 -9.49831E-02 -3.06663E-01
   5.29091E-02  1.60866E-03  1.37548E-02  1.70514E-01  2.11255E-01  3.38286E-01 -1.40091E-01 -5.80880E-02  7.16329E-02 -5.19206E-02
   1.18768E-01 -1.02330E-01 -1.14392E-01 -3.74962E-02 -9.64219E-02 -1.60986E-01 -3.67710E-01 -3.29044E-01 -6.48514E-01 -3.51312E-01
  -1.43227E-01 -4.35451E-01 -2.00368E-01 -4.58704E-01 -2.02444E-02  3.34576E-02  1.78548E-02  1.22412E-01 -2.37913E-01  3.57212E-02
   8.24701E-02 -3.06753E-01 -4.43323E-01 -2.22058E-01 -2.25728E-01 -2.42871E-01 -3.31656E-01  3.04812E-02  1.03533E-01  1.97810E-01
   1.93242E-01  2.61683E-02  2.55586E-01  2.21288E-01  1.06719E-01  1.71750E-02  2.51126E-01  1.01186E-01  1.49406E-01 -3.35498E-02
  -1.18463E-02  1.23520E-01  1.71049E-01 -6.34191E-02 -1.08626E-01  3.22771E-01  2.73581E-01  2.21152E-01 -2.22929E-01  3.11607E-01
   3.52625E-01  7.48188E-02 -1.65910E-01  1.13267E-01  3.97217E-01 -1.15558E-01  3.60914E-01  2.63771E-01  5.35351E-02 -1.11472E-01
   6.70146E-02  1.63782E-01  8.34700E-03  3.91987E-02  8.35492E-02 -2.14653E-01 -1.43581E-01  2.44897E-01 -2.99468E-02  3.59032E-02
  -1.12866E-01 -2.41298E-02 -2.63596E-01 -1.03668E-01  2.09066E-01 -2.01775E-01 -9.28848E-02 -8.91766E-02 -6.86075E-02  6.10368E-03
  -3.71746E-02 -2.88773E-02 -8.87708E-02 -6.84852E-02  1.55211E-01 -8.67200E-02 -2.00749E-02  3.03621E-01  9.58917E-02  8.52572E-02
   1.46080E-01  1.07261E-01 -1.54240E-02 -1.04535E-01  5.88023E-02  1.43988E-01 -5.55179E-03 -2.66252E-02  1.13877E-01  7.84303E-02
   1.68054E-01 -6.02153E-03 -8.29766E-02  6.16147E-02 -7.74442E-02  1.37499E-01 -1.01477E-01 -1.08245E-02 -2.06808E-02 -4.37655E-01
  -7.37957E-02  3.09573E-02 -8.36296E-02  1.13975E-01  2.90452E-01  1.60059E-01  1.69422E-01  2.04900E-01  2.44789E-01 -1.35608E-01
  -2.06896E-02  2.21545E-01 -4.88071E-02  1.08926E-01  6.51729E-02  7.90179E-02  1.91814E-01  3.08888E-03 -1.28299E-01  6.15169E-02
  -5.85104E-02 -2.66661E-02 -2.96462E-02  2.05692E-01
 NY points of the fit to the data follow
   1.21863E-02  8.01089E-05 -1.13734E-02 -2.79423E-02 -3.26074E-02 -2.92554E-02 -2.08122E-02  1.52628E-02  2.15120E-03  3.12333E-02
   1.07206E-01  3.09341E-01  3.90456E-01  3.02264E-01  3.73689E-01  5.79732E-01  5.82870E-01  3.92228E-01  2.76302E-01  1.56055E-01
   1.03227E-01  7.72027E-02  1.83074E-02 -1.87758E-02 -4.88707E-02 -7.18445E-02 -8.88763E-02 -1.04859E-01 -1.19130E-01 -1.32585E-01
  -1.43918E-01 -1.54793E-01 -1.69707E-01 -1.89343E-01 -2.09165E-01 -2.26107E-01 -2.40891E-01 -2.52794E-01 -2.37266E-01 -1.67070E-01
  -7.13831E-02  1.82613E-02  6.67939E-02  1.20744E-01  1.82536E-01  2.11310E-01  2.34745E-01  1.93621E-01  1.31889E-01  9.85834E-02
   4.79902E-02  4.70015E-03 -2.78479E-02 -6.48612E-02 -9.96575E-02 -1.42844E-01 -1.94932E-01 -2.38189E-01 -2.28960E-01 -2.70213E-01
  -3.39500E-01 -3.52970E-01 -3.56541E-01 -2.80972E-01 -3.50961E-01 -1.57916E-01  1.59660E-01  9.54513E-02  2.58683E-01  3.89890E-01
   2.94379E-01  2.78352E-01  1.95877E-01  9.73484E-02  1.92751E-02 -6.28951E-02 -1.23222E-01 -2.54204E-01 -4.11456E-01 -5.08325E-01
  -3.46171E-01 -1.17655E-01 -5.44111E-02  1.76358E-01  3.72824E-01  3.88260E-01  4.05751E-01  3.59083E-01  3.01145E-01  2.71752E-01
   2.39813E-01  2.09648E-01  1.63454E-01  1.27820E-01  5.55816E-02  6.01781E-03 -1.24197E-01 -2.06085E-01 -3.02597E-01 -3.09011E-01
  -1.64962E-01 -4.57463E-02  1.52212E-01  2.37344E-01  2.62011E-01  2.78350E-01  2.63208E-01  2.62160E-01  2.57509E-01  2.54996E-01
   2.51796E-01  2.49887E-01  2.48002E-01  2.44700E-01  2.42388E-01  2.41044E-01  2.39552E-01  2.25144E-01  2.24801E-01  2.11669E-01
   1.56358E-01  1.00041E-01  1.40204E-02 -1.79570E-02 -1.38577E-01 -2.66985E-01 -1.69730E-01 -3.58324E-01 -4.58422E-01 -4.86456E-01
  -5.69874E-01 -4.31005E-01 -3.48116E-01 -2.22780E-01 -2.51057E-01 -4.59679E-01 -5.98963E-01 -5.39578E-01 -3.56697E-01 -2.16031E-01
  -1.05141E-01 -4.70006E-02 -1.38950E-02  2.30791E-02  5.02274E-02  7.33500E-02  9.44159E-02  1.12747E-01  1.29602E-01  1.44866E-01
   1.59135E-01  1.73891E-01  1.88947E-01  2.04356E-01  2.22109E-01  2.41342E-01  2.63897E-01  2.91220E-01  3.22388E-01  3.59227E-01
   4.10269E-01  4.89391E-01  5.57167E-01  5.34514E-01  6.46022E-01  7.53261E-01  7.24356E-01  3.97845E-02 -7.51552E-01 -8.56165E-01
  -8.18249E-01 -6.62969E-01 -5.01819E-01 -4.63618E-01 -4.32596E-01 -3.86233E-01 -3.35680E-01 -3.04550E-01 -2.89033E-01 -2.71134E-01
  -2.56284E-01 -2.28689E-01 -2.14327E-01 -2.06196E-01 -1.96199E-01 -1.96313E-01 -1.85310E-01 -1.75385E-01 -1.65914E-01 -1.58491E-01
  -1.49800E-01 -1.39731E-01 -1.29953E-01 -1.19806E-01 -1.09652E-01 -1.00227E-01 -9.11811E-02 -7.91206E-02 -6.88395E-02 -5.92278E-02
  -4.68979E-02 -2.62936E-02 -7.32768E-03 -1.43750E-02 -2.95313E-02 -3.20433E-02 -1.50776E-02  3.95472E-03 -9.42944E-03 -3.96332E-02
  -5.97130E-02 -6.81918E-02 -6.54813E-02 -5.96781E-02 -5.60281E-02 -5.01029E-02 -4.42967E-02 -3.92652E-02 -3.91898E-02 -3.94446E-02
  -2.30340E-02 -5.33199E-03  1.48219E-02  3.98473E-02  1.11084E-01  2.39477E-01  2.95128E-01  2.71704E-01  2.29333E-01  2.80568E-01
   3.84268E-01  3.24630E-01  2.11634E-01  1.18002E-01  2.31359E-02 -1.25474E-02 -3.05236E-02 -4.85967E-02 -5.77637E-02 -6.75408E-02
  -7.56352E-02 -8.39462E-02 -8.78836E-02 -9.14377E-02 -9.45947E-02 -9.60970E-02 -1.03445E-01 -1.02674E-01 -1.07697E-01 -1.08473E-01
  -1.07704E-01 -1.21825E-01 -1.15568E-01 -1.35060E-01 -1.48602E-01 -1.34372E-01 -9.36949E-02  2.76346E-03 -2.25994E-02  2.36533E-02
   1.02963E-01  1.00014E-01  1.45437E-01  7.67953E-02  1.19198E-01  1.54388E-01  1.36032E-01  1.64571E-01  1.49169E-01  1.66921E-01
   1.48599E-01  1.25999E-01  9.26811E-02  5.16708E-02  2.34472E-02 -1.06671E-02 -4.24341E-02 -8.48636E-02 -1.17714E-01 -1.64707E-01
  -2.03678E-01 -2.51284E-01 -2.75160E-01 -2.19771E-01 -1.47202E-01  2.10260E-02  1.64113E-01  2.49664E-01  3.38166E-01  3.09322E-01
   2.70159E-01  2.31772E-01  1.86445E-01  1.77002E-01  1.63329E-01  1.79469E-01  1.90957E-01  1.98769E-01  2.11182E-01  2.02365E-01
   1.96566E-01  1.89924E-01  1.80683E-01  1.74253E-01  1.67670E-01  1.60301E-01  1.51406E-01  1.41012E-01  1.27880E-01  1.10542E-01
   9.66350E-02  7.54414E-02  5.71543E-02  3.80517E-02  6.98133E-03 -1.78513E-02 -6.42444E-02 -1.17052E-01 -1.66371E-01 -2.10575E-01
  -2.36487E-01 -2.55653E-01 -2.41040E-01 -2.23155E-01 -1.83556E-01 -1.31845E-01 -7.80990E-02 -7.56146E-03  3.42273E-02  6.54694E-02
   5.90374E-02  2.77833E-02 -2.97271E-03 -5.41715E-02 -6.88503E-02 -1.10198E-01 -1.42057E-01 -1.66721E-01 -3.20017E-01 -2.05832E-01
  -3.48357E-01 -6.42107E-01 -1.62701E+00 -2.02504E+00 -1.17417E+00 -8.16128E-01 -3.89534E-01 -1.40467E-01 -1.70784E-01 -8.33570E-02
  -4.50225E-02 -2.04290E-02 -2.23040E-03  1.01812E-02  2.03207E-02  2.85163E-02  3.30658E-02  3.69195E-02  3.12284E-02  2.81218E-02
   8.98747E-03 -1.15331E-03 -1.83892E-02 -3.41242E-02 -3.34468E-02 -3.77371E-02 -2.27850E-02 -1.12844E-02  4.41534E-04  1.24841E-02
   1.98305E-02  2.81665E-02  3.50513E-02  4.17409E-02  4.58234E-02  4.89156E-02  5.23320E-02  5.54945E-02  5.94059E-02  6.29873E-02
   6.49901E-02  6.69842E-02  6.93440E-02  7.16838E-02  7.49798E-02  7.64686E-02  7.77953E-02  7.85418E-02  7.97854E-02  8.26120E-02
   8.47450E-02  8.74652E-02  8.87718E-02  8.85760E-02  8.68353E-02  8.43995E-02  8.24807E-02  8.00704E-02  7.72001E-02  7.35196E-02
   6.87395E-02  6.35702E-02  5.89051E-02  5.27453E-02  4.62204E-02  4.10651E-02  3.64074E-02  3.15273E-02  2.61731E-02  2.17257E-02
   1.75659E-02  1.33511E-02  1.05927E-02  8.07338E-03  5.12298E-03  2.82885E-03  2.77741E-04 -2.63128E-03 -4.61727E-03 -6.11014E-03
  -7.27549E-03 -8.29037E-03 -9.03481E-03 -8.01052E-03 -6.68353E-03 -4.76209E-03 -2.18346E-03  8.55396E-04  3.76651E-03  7.98890E-03
   1.25172E-02  1.39791E-02  1.57415E-02  1.78951E-02  2.26231E-02  2.89128E-02  3.51517E-02  4.09168E-02  4.61705E-02  5.25520E-02
   5.99283E-02  6.85230E-02  7.74168E-02  8.65306E-02  9.47014E-02  1.03497E-01  1.11848E-01  1.19491E-01  1.25724E-01  1.29615E-01
   1.31783E-01  1.31717E-01  1.31604E-01  1.29768E-01  1.27214E-01  1.24496E-01  1.18777E-01  1.11873E-01  1.03040E-01  9.39219E-02
   8.52955E-02  7.75395E-02  6.93411E-02  6.13241E-02  5.30964E-02  4.58018E-02  4.04931E-02  3.40029E-02  2.86154E-02  2.38150E-02
   1.97963E-02  1.67130E-02  1.35249E-02  1.10773E-02  9.77019E-03  1.04152E-02  1.20842E-02  1.41834E-02  1.66591E-02  1.96505E-02
   2.28235E-02  2.66997E-02  3.19404E-02  3.56759E-02  3.88845E-02  4.15011E-02  4.30177E-02  4.39761E-02  4.50797E-02  4.75699E-02
   4.92449E-02  4.93608E-02  4.85621E-02  4.68920E-02  4.51899E-02  4.34292E-02  3.97358E-02  3.64350E-02  3.40728E-02  3.12095E-02
   2.83490E-02  2.51323E-02  2.20283E-02  1.90760E-02  1.59029E-02  1.23263E-02  8.77590E-03  5.18032E-03  3.09595E-03  1.36166E-03
  -2.09282E-03 -5.50712E-03 -8.72385E-03 -1.27980E-02 -1.81372E-02 -2.48005E-02 -3.15186E-02 -3.84589E-02 -4.59573E-02 -5.47638E-02
  -6.63320E-02 -8.02549E-02 -9.41619E-02 -1.06738E-01 -1.19416E-01 -1.31950E-01 -1.43101E-01 -1.52856E-01 -1.61408E-01 -1.69409E-01
  -1.75577E-01 -1.77285E-01 -1.76415E-01 -1.75804E-01 -1.73713E-01 -1.69073E-01 -1.62647E-01 -1.56207E-01 -1.49908E-01 -1.44050E-01
  -1.38499E-01 -1.32621E-01 -1.24673E-01 -1.16677E-01 -1.09224E-01 -9.98566E-02 -9.12958E-02 -8.21775E-02 -7.38727E-02 -6.55959E-02
  -5.76780E-02 -5.09953E-02 -4.28975E-02 -3.52891E-02 -3.00524E-02 -2.49673E-02 -1.94350E-02 -1.36080E-02 -8.60180E-03 -6.34854E-03
  -3.19457E-03  5.30441E-04  3.13228E-03  5.54604E-03  7.21995E-03  7.96579E-03  9.50202E-03  1.15230E-02  1.20269E-02  1.19090E-02
   1.29759E-02  1.48451E-02  1.59183E-02  1.78839E-02  2.00721E-02  2.07187E-02  2.08571E-02  2.11355E-02  2.13392E-02  2.10195E-02
   2.10757E-02  2.12285E-02  2.06918E-02  2.09520E-02  2.10742E-02  2.04301E-02  2.09288E-02  2.16405E-02  2.26279E-02  2.31265E-02
   2.06838E-02  1.79242E-02  1.86211E-02  2.00038E-02  1.98986E-02  1.99767E-02  1.98738E-02  2.01703E-02  1.88923E-02  1.78712E-02
   1.82395E-02  1.96463E-02  2.17558E-02  2.21956E-02  2.28706E-02  2.39534E-02  2.51430E-02  2.65139E-02  2.69666E-02  2.80251E-02
   2.94041E-02  3.01575E-02  2.94655E-02  2.85302E-02  2.93604E-02  3.03877E-02  3.12426E-02  3.33271E-02  3.48788E-02  3.58812E-02
   3.64656E-02  3.67974E-02  4.04313E-02  4.32606E-02  4.48017E-02  4.62930E-02  4.43441E-02  4.39001E-02  4.52540E-02  4.68823E-02
   4.89968E-02  4.96699E-02  4.97901E-02  5.05040E-02  5.21205E-02  5.37748E-02  5.55419E-02  5.58528E-02  5.74649E-02  6.09099E-02
   6.31777E-02  6.48313E-02  6.66918E-02  6.94425E-02  7.19255E-02  7.49145E-02  7.79768E-02  8.19464E-02  8.82675E-02  9.28246E-02
   9.72599E-02  1.01401E-01  1.05188E-01  1.09876E-01
 NY background values follow
     2.157E-04    4.022E-04    5.887E-04    7.752E-04    9.617E-04    1.148E-03    1.335E-03    1.521E-03    1.707E-03    1.894E-03
     2.080E-03    2.266E-03    2.451E-03    2.637E-03    2.822E-03    3.008E-03    3.193E-03    3.377E-03    3.562E-03    3.746E-03
     3.930E-03    4.113E-03    4.296E-03    4.479E-03    4.661E-03    4.843E-03    5.025E-03    5.206E-03    5.387E-03    5.567E-03
     5.747E-03    5.926E-03    6.104E-03    6.282E-03    6.460E-03    6.637E-03    6.813E-03    6.989E-03    7.164E-03    7.338E-03
     7.512E-03    7.684E-03    7.857E-03    8.028E-03    8.199E-03    8.368E-03    8.538E-03    8.706E-03    8.873E-03    9.040E-03
     9.206E-03    9.371E-03    9.535E-03    9.698E-03    9.860E-03    1.002E-02    1.018E-02    1.034E-02    1.050E-02    1.066E-02
     1.082E-02    1.097E-02    1.113E-02    1.128E-02    1.143E-02    1.159E-02    1.174E-02    1.189E-02    1.204E-02    1.219E-02
