 LCModel (Version 6.3-1N) Copyright: S.W. Provencher.          Ref.: Magn. Reson. Med. 30:672-679 (1993).                
 Slice_N1@14_18  02-Jun-2023 14:36:49
 27 lines in following concentration table = NCONC+1
    Conc.  %SD /Cr+PCr  Metabolite                                         
 1.34E-06  25% 1.7E-04 Mac                                                 
 2.95E-02  23%   3.769 Cr                                                  
 3.31E-02  20%   4.231 PCr                                                 
 7.74E-02  10%   9.885 Ins                                                 
 7.33E-02   8%   9.363 NAA                                                 
 3.55E-02  19%   4.530 Tau                                                 
 1.50E-02  19%   1.921 PCho                                                
 3.58E-03  73%   0.457 GPC                                                 
 3.95E-02  21%   5.040 Glu                                                 
 2.19E-02  31%   2.794 Gln                                                 
    0.000 999%   0.000 Ala                                                 
 2.20E-02  54%   2.804 Asc                                                 
 1.06E-02  67%   1.348 Asp                                                 
 1.34E-02  28%   1.708 GABA                                                
 9.55E-03  49%   1.220 Glc                                                 
 1.36E-02  28%   1.737 GSH                                                 
 3.02E-03 216%   0.385 Lac                                                 
 1.39E-02  28%   1.774 NAAG                                                
    0.000 999%   0.000 PE                                                  
 1.86E-02  10%   2.378 GPC+PCho                                            
 8.72E-02   8%  11.137 NAA+NAAG                                            
 6.14E-02  17%   7.833 Glu+Gln                                             
 6.27E-02   9%   8.000 Cr+PCr                                              
 8.72E-02   8%  11.137 NAA+NAAG                                            
 6.27E-02   9%   8.000 Cr+PCr                                              
 6.14E-02  17%   7.833 Glu+Gln                                             
   6 lines in following misc. output table
  FWHM = 0.017 ppm    S/N =   6                                            
  Data shift = 0.017 ppm                                                   
  Ph: -40 deg     -13.0 deg/ppm                                            
  alphaB,S = 3.1E+01,   4.9E+00                                            
   18 spline knots.   Ns = 5(1)                                            
   2 inflections.     1 extrema                                            
  654 points on ppm-axis = NY
      4.000000     3.994181     3.988363     3.982544     3.976726     3.970907     3.965088     3.959270     3.953451     3.947633
      3.941814     3.935995     3.930177     3.924358     3.918540     3.912721     3.906902     3.901084     3.895265     3.889446
      3.883628     3.877809     3.871991     3.866172     3.860353     3.854535     3.848716     3.842898     3.837079     3.831260
      3.825442     3.819623     3.813805     3.807986     3.802167     3.796349     3.790530     3.784712     3.778893     3.773074
      3.767256     3.761437     3.755619     3.749800     3.743981     3.738163     3.732344     3.726526     3.720707     3.714888
      3.709070     3.703251     3.697433     3.691614     3.685795     3.679977     3.674158     3.668339     3.662521     3.656702
      3.650884     3.645065     3.639246     3.633428     3.627609     3.621791     3.615972     3.610153     3.604335     3.598516
      3.592698     3.586879     3.581060     3.575242     3.569423     3.563605     3.557786     3.551967     3.546149     3.540330
      3.534512     3.528693     3.522874     3.517056     3.511237     3.505419     3.499600     3.493781     3.487963     3.482144
      3.476326     3.470507     3.464688     3.458870     3.453051     3.447232     3.441414     3.435595     3.429777     3.423958
      3.418139     3.412321     3.406502     3.400684     3.394865     3.389046     3.383228     3.377409     3.371591     3.365772
      3.359953     3.354135     3.348316     3.342498     3.336679     3.330860     3.325042     3.319223     3.313405     3.307586
      3.301767     3.295949     3.290130     3.284312     3.278493     3.272674     3.266856     3.261037     3.255219     3.249400
      3.243581     3.237763     3.231944     3.226125     3.220307     3.214488     3.208670     3.202851     3.197032     3.191214
      3.185395     3.179577     3.173758     3.167939     3.162121     3.156302     3.150484     3.144665     3.138846     3.133028
      3.127209     3.121391     3.115572     3.109753     3.103935     3.098116     3.092298     3.086479     3.080660     3.074842
      3.069023     3.063205     3.057386     3.051567     3.045749     3.039930     3.034111     3.028293     3.022474     3.016656
      3.010837     3.005018     2.999200     2.993381     2.987563     2.981744     2.975925     2.970107     2.964288     2.958470
      2.952651     2.946832     2.941014     2.935195     2.929377     2.923558     2.917739     2.911921     2.906102     2.900284
      2.894465     2.888646     2.882828     2.877009     2.871191     2.865372     2.859553     2.853735     2.847916     2.842098
      2.836279     2.830460     2.824642     2.818823     2.813004     2.807186     2.801367     2.795549     2.789730     2.783911
      2.778093     2.772274     2.766456     2.760637     2.754818     2.749000     2.743181     2.737363     2.731544     2.725725
      2.719907     2.714088     2.708270     2.702451     2.696632     2.690814     2.684995     2.679177     2.673358     2.667539
      2.661721     2.655902     2.650084     2.644265     2.638446     2.632628     2.626809     2.620991     2.615172     2.609353
      2.603535     2.597716     2.591897     2.586079     2.580260     2.574442     2.568623     2.562804     2.556986     2.551167
      2.545349     2.539530     2.533711     2.527893     2.522074     2.516256     2.510437     2.504618     2.498800     2.492981
      2.487163     2.481344     2.475525     2.469707     2.463888     2.458070     2.452251     2.446432     2.440614     2.434795
      2.428977     2.423158     2.417339     2.411521     2.405702     2.399884     2.394065     2.388246     2.382428     2.376609
      2.370790     2.364972     2.359153     2.353335     2.347516     2.341697     2.335879     2.330060     2.324242     2.318423
      2.312604     2.306786     2.300967     2.295149     2.289330     2.283511     2.277693     2.271874     2.266056     2.260237
      2.254418     2.248600     2.242781     2.236963     2.231144     2.225325     2.219507     2.213688     2.207870     2.202051
      2.196232     2.190414     2.184595     2.178777     2.172958     2.167139     2.161321     2.155502     2.149683     2.143865
      2.138046     2.132228     2.126409     2.120590     2.114772     2.108953     2.103135     2.097316     2.091497     2.085679
      2.079860     2.074042     2.068223     2.062404     2.056586     2.050767     2.044949     2.039130     2.033311     2.027493
      2.021674     2.015856     2.010037     2.004218     1.998400     1.992581     1.986763     1.980944     1.975126     1.969307
      1.963489     1.957670     1.951852     1.946033     1.940215     1.934397     1.928578     1.922760     1.916941     1.911123
      1.905304     1.899486     1.893667     1.887849     1.882030     1.876212     1.870393     1.864575     1.858756     1.852938
      1.847119     1.841301     1.835482     1.829664     1.823845     1.818027     1.812208     1.806390     1.800571     1.794753
      1.788934     1.783116     1.777297     1.771479     1.765660     1.759842     1.754023     1.748205     1.742386     1.736568
      1.730749     1.724931     1.719113     1.713294     1.707476     1.701657     1.695839     1.690020     1.684202     1.678383
      1.672565     1.666746     1.660928     1.655109     1.649291     1.643472     1.637654     1.631835     1.626017     1.620198
      1.614380     1.608561     1.602743     1.596924     1.591106     1.585287     1.579469     1.573650     1.567832     1.562013
      1.556195     1.550376     1.544558     1.538739     1.532921     1.527102     1.521284     1.515465     1.509647     1.503829
      1.498010     1.492192     1.486373     1.480555     1.474736     1.468918     1.463099     1.457281     1.451462     1.445644
      1.439825     1.434007     1.428188     1.422370     1.416551     1.410733     1.404914     1.399096     1.393277     1.387459
      1.381640     1.375822     1.370003     1.364185     1.358366     1.352548     1.346729     1.340911     1.335092     1.329274
      1.323455     1.317637     1.311818     1.306000     1.300182     1.294363     1.288545     1.282726     1.276908     1.271089
      1.265271     1.259452     1.253634     1.247815     1.241997     1.236178     1.230360     1.224541     1.218723     1.212904
      1.207086     1.201267     1.195449     1.189630     1.183812     1.177993     1.172175     1.166356     1.160538     1.154719
      1.148901     1.143082     1.137264     1.131445     1.125627     1.119808     1.113990     1.108171     1.102353     1.096534
      1.090716     1.084898     1.079079     1.073261     1.067442     1.061624     1.055805     1.049987     1.044168     1.038350
      1.032531     1.026713     1.020894     1.015076     1.009257     1.003439     0.997620     0.991802     0.985983     0.980165
      0.974346     0.968528     0.962709     0.956891     0.951072     0.945254     0.939435     0.933617     0.927798     0.921980
      0.916161     0.910343     0.904524     0.898706     0.892887     0.887069     0.881251     0.875432     0.869614     0.863795
      0.857977     0.852158     0.846340     0.840521     0.834703     0.828884     0.823066     0.817247     0.811429     0.805610
      0.799792     0.793973     0.788155     0.782336     0.776518     0.770699     0.764881     0.759062     0.753244     0.747425
      0.741607     0.735788     0.729970     0.724151     0.718333     0.712514     0.706696     0.700877     0.695059     0.689240
      0.683422     0.677603     0.671785     0.665967     0.660148     0.654330     0.648511     0.642693     0.636874     0.631056
      0.625237     0.619419     0.613600     0.607782     0.601963     0.596145     0.590326     0.584508     0.578689     0.572871
      0.567052     0.561234     0.555415     0.549597     0.543778     0.537960     0.532141     0.526323     0.520504     0.514686
      0.508867     0.503049     0.497230     0.491412     0.485593     0.479775     0.473956     0.468138     0.462319     0.456501
      0.450682     0.444864     0.439045     0.433227     0.427408     0.421590     0.415771     0.409953     0.404134     0.398316
      0.392497     0.386679     0.380860     0.375042     0.369223     0.363405     0.357586     0.351767     0.345949     0.340130
      0.334312     0.328493     0.322675     0.316856     0.311038     0.305219     0.299401     0.293582     0.287764     0.281945
      0.276127     0.270308     0.264490     0.258671     0.252853     0.247034     0.241216     0.235397     0.229579     0.223760
      0.217942     0.212123     0.206305     0.200486
 NY phased data points follow
   1.23116E-01 -1.23223E-01 -2.72873E-01 -1.73801E-01 -1.67357E-01 -2.43457E-01 -5.71709E-01 -2.29906E-01 -1.30653E-01 -5.81879E-01
   4.19533E-02  2.00632E-01  5.89360E-01  4.40106E-01 -1.05127E-02  4.32098E-01  5.21056E-01  3.36036E-01  1.00736E-01 -1.26802E-02
  -2.05973E-01 -2.34616E-01  2.50342E-02  3.21061E-01  1.60058E-01 -4.43797E-02 -1.20918E-01 -3.16114E-01 -2.52546E-01 -8.60553E-02
  -8.22928E-02 -1.02654E-01  1.85071E-02  1.16765E-01 -2.47749E-01 -3.56746E-01  4.46609E-02 -4.00776E-01 -2.81398E-01  1.90272E-01
   3.32804E-03  2.83408E-01  3.45677E-01  1.98357E-01  1.58469E-01  4.40042E-01  3.04726E-01  8.95174E-02  3.12441E-01  7.09014E-02
   4.12864E-01  2.09403E-01  3.34481E-02  1.27092E-01 -1.40681E-01 -2.53226E-01 -4.27812E-01 -9.76413E-02 -5.88253E-01 -2.31530E-01
  -2.26033E-01 -4.24823E-01 -3.64440E-03 -4.17094E-01 -9.30011E-02 -1.99860E-01  6.47196E-02  3.76315E-03 -3.09980E-02  5.23803E-01
   4.24078E-01  1.76767E-01 -1.84558E-02 -1.35564E-01 -3.98920E-02  2.41337E-01 -3.94794E-01 -3.96785E-01 -4.12925E-01 -7.76123E-01
  -6.03136E-01 -1.18902E-01  1.89381E-01 -1.21745E-01  4.28886E-01  3.83470E-01  5.31340E-02  5.21866E-01  2.62757E-01  2.45263E-01
   9.99038E-02 -1.53255E-01  1.40585E-01 -1.69370E-01  1.75078E-01  3.02656E-01  6.55080E-02  7.32703E-02  2.70964E-01  3.40073E-01
  -2.49980E-01 -6.00016E-02  1.89612E-02  1.31700E-01  1.02444E-01  3.18403E-01  3.89578E-01  3.70304E-01  6.16286E-01  2.01983E-01
   3.76829E-01  3.51351E-01  4.91867E-01  2.20334E-01 -5.35760E-03  3.94293E-01 -4.20686E-03  2.85604E-01  5.59038E-01  1.82700E-01
   2.45269E-01  4.09900E-02 -6.80898E-02  1.38617E-01  7.18408E-02 -1.07401E-01 -2.29491E-01 -4.72548E-02  3.01738E-02 -1.06976E-01
  -2.66454E-01 -2.83530E-01 -4.36573E-01 -2.72147E-01 -3.64242E-01 -7.84215E-01 -1.11349E+00 -1.35539E+00 -5.49526E-01 -5.42093E-01
  -4.94659E-01 -1.98096E-01 -2.03191E-01 -1.01698E-01 -4.31075E-01  1.10834E-03  1.06866E-01  1.12988E-01  5.11918E-02  1.16667E-01
   4.23178E-01  1.51187E-01  5.48459E-01  3.00486E-01 -3.45096E-02  1.70788E-01  6.14371E-02  1.45172E-01  2.36329E-01  3.46153E-01
   4.40419E-01  6.63414E-01  3.89871E-01  6.06021E-01  7.96863E-01  7.35558E-01  1.50511E+00  8.29066E-01 -5.55614E-01 -5.52503E-01
  -4.46093E-01 -6.94553E-01 -2.76005E-01 -5.34321E-01 -5.39695E-01 -2.94893E-01 -6.44628E-01 -4.36636E-01 -5.19734E-01 -3.83350E-01
  -2.12637E-01 -3.51831E-01 -3.87270E-01 -3.21529E-01 -2.44120E-01 -6.40147E-02 -2.99642E-01 -3.39328E-01 -5.85239E-02 -1.91422E-01
  -1.67578E-02 -2.45066E-01 -2.49887E-01  4.01936E-03  7.53631E-02  4.26346E-02 -2.41635E-01 -7.74204E-02  1.26131E-01  3.54348E-02
   1.97027E-02 -2.29906E-01 -1.48699E-01  1.65374E-01  1.28811E-02  1.61730E-02  1.59675E-01  8.23609E-02  9.99609E-02  1.04497E-01
  -4.91776E-01 -1.10881E-02 -2.07799E-02 -3.86571E-01  1.22873E-01 -5.17171E-02 -3.28622E-01 -4.79459E-01 -1.92351E-02 -1.00646E-01
   3.91930E-02  1.94631E-01 -1.47070E-01 -2.87040E-01  1.28477E-01  2.08085E-01  4.12723E-02  4.32517E-01 -1.50292E-01  2.97373E-01
   3.48135E-01  1.79240E-01  1.48606E-01  8.35245E-02  1.52915E-01 -1.96968E-01  3.26867E-01 -2.37610E-01 -3.15039E-01 -1.32636E-02
  -1.95860E-01 -3.90909E-01 -2.55464E-01  8.34072E-02 -9.46907E-02 -1.26293E-01 -2.32172E-01  1.67421E-01 -3.22920E-02 -2.39498E-01
  -7.51075E-02 -2.47663E-01  9.23307E-02  8.89313E-02 -1.91694E-01 -1.70207E-02 -1.58034E-01 -4.93887E-02  1.41036E-01  7.44950E-02
   2.81980E-01  9.41816E-02  2.23313E-01 -1.33818E-03 -2.58882E-02  2.89985E-01  2.00600E-01  2.70042E-01  3.63854E-02  3.92530E-01
   4.21033E-01  3.71522E-01  3.24012E-01 -2.18559E-01 -9.08286E-02  8.68964E-02  1.27135E-01  8.64200E-03 -3.94261E-02  6.68930E-02
   1.06446E-01 -3.08217E-01 -7.19340E-01 -2.51086E-01  2.91010E-01  1.34291E-01  1.02257E-01  5.55767E-01  4.18542E-01  1.79373E-01
   2.63688E-01  1.40616E-01 -2.31744E-02 -1.86927E-02 -1.41664E-03  8.12624E-02 -1.61401E-02  7.48584E-02  1.70104E-02  1.74219E-01
   2.79382E-01 -1.36932E-01  3.79854E-01  7.94745E-02  1.93609E-01  4.05902E-01  2.89372E-01  6.16589E-01  1.32381E-03  4.98559E-02
   1.04209E-01  4.59546E-02  9.53951E-02  2.29292E-01  2.43547E-01 -1.29969E-02 -2.19185E-01  9.21020E-03 -2.99786E-03 -1.28183E-01
   3.66665E-01 -3.24150E-02  1.38478E-02 -9.13035E-02 -1.37531E-01  1.83412E-01 -2.56957E-04  1.76495E-01  4.06300E-01  9.34838E-02
   2.65629E-03  3.18712E-01  1.36390E-01  3.35988E-01  1.08646E-01 -1.25896E-01 -4.68690E-01 -5.44021E-01 -5.44666E-02 -2.88836E-01
  -7.26277E-02 -2.70743E-01 -1.68129E+00 -2.36371E+00 -1.07084E+00 -4.66663E-01 -5.54875E-01  2.05323E-02 -5.72620E-02  1.65592E-01
   4.53780E-01  1.37723E-01  1.17382E-01  2.44658E-01  2.83595E-01  2.32945E-01  1.40973E-01 -5.03570E-03  1.47834E-01 -1.42646E-01
  -2.18780E-01  3.48438E-01 -4.64612E-02  1.04323E-01  1.72109E-01  3.19616E-02 -1.60018E-01 -3.34986E-01  1.82490E-01 -9.46956E-02
   3.19161E-02  2.18515E-01 -3.09134E-02  8.10604E-02  8.31667E-02  2.66375E-02  4.37160E-01  1.20697E-01 -1.71717E-01  2.97298E-01
   4.02963E-02 -1.02014E-01  5.88150E-02  3.02363E-01  1.89691E-01  1.80455E-01  2.72417E-01  3.90548E-02  1.67018E-01  4.06423E-01
   1.41418E-01 -1.09927E-01  1.80283E-01  2.82851E-01  2.78845E-01  2.34444E-01  2.51073E-01  1.14417E-03 -1.71104E-01 -3.13514E-02
  -1.15984E-01  3.66263E-02 -1.57517E-02 -2.96644E-01  2.43500E-03 -6.31404E-02 -2.51756E-01 -8.08599E-02 -2.43290E-01 -2.60873E-01
  -4.73999E-01 -3.89290E-01 -1.20902E-01  4.99112E-02 -1.65462E-01 -2.64972E-01  1.34164E-01 -1.39914E-01  9.82342E-02  3.70849E-02
  -8.01801E-02  2.90526E-02 -2.73436E-01 -2.50988E-01 -2.00977E-01 -4.24285E-02 -1.75186E-01 -2.17929E-02 -2.60164E-02 -7.34748E-02
  -7.53669E-02 -4.17346E-01 -4.24197E-02 -8.80415E-03  4.14105E-02  1.96810E-02 -4.28797E-02  2.64682E-02 -2.42139E-01  2.99999E-01
   1.79507E-01  1.40272E-03  2.92511E-01 -1.41122E-01 -2.11268E-02  3.48827E-01  1.64192E-01  8.24540E-02  3.38360E-01  3.71005E-01
   1.19912E-01  5.01076E-02  2.75395E-01 -1.21325E-02 -1.98801E-01  2.51691E-01  3.21913E-01 -4.92015E-02 -3.68868E-01 -1.93093E-01
  -2.26938E-02  3.37759E-02  2.26705E-01  2.01033E-01  5.68353E-02 -1.54757E-04  1.68942E-01  2.22521E-01 -3.27875E-02  1.57207E-01
   6.86048E-02 -2.43359E-03  1.10388E-01 -2.84663E-01  2.17218E-02 -2.55384E-02 -2.25882E-01 -7.04263E-02 -1.35265E-02 -4.52976E-02
  -8.69486E-02 -4.73817E-02 -3.09678E-01  5.97957E-02 -5.27736E-02 -6.48567E-02 -1.85804E-02 -1.97160E-01  1.28687E-01 -1.53109E-01
   1.18835E-02  2.40454E-01  1.64485E-01  1.33562E-03 -3.43189E-02  3.20741E-02  1.03346E-01  2.61698E-01  7.99969E-02 -9.31297E-02
   4.63138E-02  3.37276E-01 -8.36988E-02 -2.03599E-01  1.82436E-02  1.55554E-01  3.59161E-02 -2.52734E-01  1.98287E-01  2.32596E-01
  -3.89344E-02  1.37430E-01 -8.05943E-03 -1.46550E-01  1.80856E-01  2.02982E-01  3.42949E-01  2.66089E-01  7.38636E-02  1.79434E-02
   8.78527E-02  6.94543E-02 -1.31106E-01  3.10784E-02 -1.79721E-01 -5.41381E-02 -2.85225E-01 -5.09319E-01 -1.96669E-01 -1.12700E-01
  -4.24673E-01 -4.67289E-01  5.46936E-02 -1.69523E-01 -3.61808E-01 -1.95149E-01 -6.87055E-03 -8.55855E-02  9.88199E-02 -2.77171E-01
  -2.84993E-01  1.35155E-01 -1.60495E-01  1.01107E-01 -2.57039E-01 -2.81310E-01  2.70923E-02  2.51686E-01  3.29395E-01  9.56717E-02
   3.49473E-01  2.67317E-01  6.30398E-02  3.96090E-01  3.30796E-01 -1.61419E-01  1.31120E-01  1.54265E-01  6.92706E-02  3.31414E-02
  -1.00341E-01  1.72191E-01  1.38593E-01 -7.51336E-03  1.55110E-01  2.01297E-01  1.76836E-02  8.51603E-02 -1.30854E-01 -7.91609E-02
   2.39975E-01  1.11024E-01  2.67144E-01  2.92022E-02 -1.79824E-01 -1.07264E-02 -4.24987E-02  2.09013E-01  1.05512E-01 -7.52120E-02
  -1.12193E-03  2.71997E-01  2.57643E-01 -5.98222E-02  1.09109E-01  2.50029E-01  3.55247E-01 -1.43620E-02 -3.00744E-01  2.04323E-01
   2.16035E-01 -2.95701E-01 -5.66198E-02 -3.86881E-02  1.70726E-01  3.22530E-01 -2.85412E-01 -5.45207E-02  4.36702E-02  1.81687E-01
   1.21446E-01  1.15567E-01  2.88801E-02 -3.48083E-01  6.98507E-02  2.91593E-01  2.60358E-02 -2.79612E-01  4.36731E-02  9.18214E-02
   4.26944E-03 -2.44248E-01 -3.28137E-01  2.65692E-01  2.68703E-03 -2.67848E-01 -2.27916E-01 -1.46009E-01  1.20711E-01 -5.17757E-02
   2.81845E-02  1.89824E-02 -3.15632E-01  8.22583E-02  1.44167E-01 -1.31112E-01 -9.33159E-02  7.42383E-02  6.18761E-02  1.34316E-01
   2.33161E-01 -4.49317E-01 -5.23952E-02  2.74324E-01 -2.07723E-01  2.83536E-01  2.33851E-01  1.98944E-01  2.32465E-01 -3.06938E-03
   3.91493E-02  1.50902E-01  5.79651E-01 -9.77874E-02 -7.66992E-02  3.67077E-01 -2.51182E-01 -6.61253E-03 -3.93770E-02 -9.69298E-02
   3.35037E-01  2.62117E-02  1.18646E-01  2.99081E-01
 NY points of the fit to the data follow
   3.46676E-02  8.99625E-03 -1.64657E-02 -4.48914E-02 -5.74011E-02 -5.52924E-02 -5.45889E-02 -5.06097E-02 -2.76059E-02 -7.34715E-03
   4.84354E-03  1.95654E-01  4.93133E-01  4.29095E-01  2.65138E-01  5.00721E-01  6.12847E-01  2.85942E-01  1.60912E-01  1.64359E-01
   4.50575E-02  2.18686E-02  5.13013E-03 -2.20288E-02 -4.81499E-02 -7.00520E-02 -9.01576E-02 -1.02764E-01 -1.08452E-01 -1.21233E-01
  -1.34942E-01 -1.39750E-01 -1.52080E-01 -1.83828E-01 -2.17290E-01 -2.42636E-01 -2.63122E-01 -2.92075E-01 -2.33533E-01 -5.25439E-02
   9.45678E-02  1.02249E-01  1.15795E-01  1.52839E-01  1.53020E-01  1.86443E-01  2.04911E-01  1.86195E-01  1.39080E-01  1.35653E-01
   1.02883E-01  3.82146E-02  2.36075E-02 -7.21143E-03 -5.42560E-02 -1.01193E-01 -1.55264E-01 -1.96128E-01 -2.37881E-01 -2.83937E-01
  -3.26668E-01 -3.78358E-01 -3.22133E-01 -2.40465E-01 -2.92426E-01 -1.83744E-01  1.27944E-01  1.57014E-01  1.81120E-01  4.76102E-01
   4.43765E-01  2.95048E-01  2.79612E-01  1.81546E-01  9.83462E-02  1.55315E-02 -8.18054E-02 -1.43617E-01 -3.09793E-01 -6.12400E-01
  -5.94957E-01 -2.19578E-01 -8.61553E-02 -4.81348E-02  2.95403E-01  4.61815E-01  3.85168E-01  3.76414E-01  3.44157E-01  2.87258E-01
   2.56865E-01  2.40652E-01  2.21269E-01  1.98667E-01  1.80907E-01  1.52712E-01  1.14662E-01  5.39526E-02 -3.30228E-02 -1.15632E-01
  -1.48875E-01 -1.02826E-01  3.60640E-03  1.17466E-01  2.05665E-01  2.35927E-01  2.36088E-01  2.50376E-01  2.48814E-01  2.49041E-01
   2.55873E-01  2.57746E-01  2.58924E-01  2.59830E-01  2.61127E-01  2.63942E-01  2.68745E-01  2.72778E-01  2.68501E-01  2.58961E-01
   2.68096E-01  2.06797E-01  8.95372E-02  5.20480E-02  1.11479E-02 -1.09062E-01 -7.34678E-02 -2.67610E-02 -1.34232E-01 -1.55974E-01
  -1.64674E-01 -2.61557E-01 -2.10279E-01 -1.43643E-01 -2.16782E-01 -6.71555E-01 -1.25188E+00 -1.16609E+00 -6.93911E-01 -4.51157E-01
  -3.07919E-01 -1.19826E-01 -8.24849E-02 -5.94441E-02 -3.09054E-02 -3.63714E-03  2.05879E-02  4.24469E-02  6.22439E-02  7.99455E-02
   9.69145E-02  1.14424E-01  1.30825E-01  1.48026E-01  1.67422E-01  1.88175E-01  2.11177E-01  2.39009E-01  2.69878E-01  3.04423E-01
   3.51241E-01  4.19971E-01  5.22132E-01  6.24452E-01  6.27639E-01  8.55105E-01  1.14418E+00  5.70882E-01 -5.98141E-01 -9.15372E-01
  -6.40129E-01 -6.28082E-01 -5.07104E-01 -3.84783E-01 -3.58108E-01 -3.54824E-01 -3.24643E-01 -2.87608E-01 -2.95433E-01 -2.75658E-01
  -2.40405E-01 -2.17643E-01 -2.20780E-01 -2.14126E-01 -2.17551E-01 -2.17636E-01 -2.04682E-01 -1.98976E-01 -1.93878E-01 -1.87527E-01
  -1.76157E-01 -1.66769E-01 -1.57325E-01 -1.48089E-01 -1.39155E-01 -1.31211E-01 -1.24227E-01 -1.15483E-01 -1.05617E-01 -9.90276E-02
  -9.01347E-02 -7.12737E-02 -5.74787E-02 -6.57020E-02 -8.01099E-02 -7.68786E-02 -5.55522E-02 -4.04235E-02 -5.82035E-02 -8.39906E-02
  -8.98207E-02 -9.10642E-02 -8.92360E-02 -8.08568E-02 -7.57810E-02 -6.67516E-02 -4.33935E-02 -2.45155E-02 -3.67803E-02 -5.64008E-02
  -4.93503E-02 -1.77523E-02  6.20717E-03  9.69600E-03  4.78726E-02  1.67547E-01  2.60917E-01  1.99567E-01  1.17051E-01  2.22979E-01
   3.71852E-01  2.93871E-01  1.41150E-01  7.34832E-02  3.41750E-03 -4.75072E-02 -5.76862E-02 -6.51776E-02 -7.18017E-02 -8.06647E-02
  -8.96898E-02 -9.60087E-02 -1.00394E-01 -1.01781E-01 -1.05988E-01 -1.08371E-01 -1.09427E-01 -1.03862E-01 -9.97519E-02 -9.98576E-02
  -9.93606E-02 -9.55266E-02 -1.01161E-01 -1.08084E-01 -1.08222E-01 -1.24145E-01 -5.65426E-02  1.53656E-02  4.72495E-03  3.24024E-02
   1.10760E-01  1.42845E-01  1.25690E-01  7.16225E-02  8.80690E-02  1.72800E-01  1.35486E-01  1.45330E-01  1.79610E-01  1.88708E-01
   1.81119E-01  1.49769E-01  1.30458E-01  8.38312E-02  6.30542E-02  3.40069E-02  8.29312E-03 -2.17448E-02 -5.62524E-02 -8.77191E-02
  -1.34645E-01 -1.84763E-01 -2.09108E-01 -1.99163E-01 -1.27609E-01  9.86268E-03  1.24834E-01  1.92696E-01  2.45729E-01  2.12852E-01
   1.59886E-01  1.20270E-01  6.97278E-02  4.42530E-02  4.01164E-02  6.11232E-02  1.24874E-01  1.57136E-01  1.78238E-01  2.00991E-01
   1.78358E-01  1.73983E-01  1.61337E-01  1.50711E-01  1.42511E-01  1.29827E-01  1.17038E-01  9.97413E-02  6.51076E-02  3.45324E-02
   4.40954E-03 -2.48823E-02 -3.91602E-02 -3.05980E-02 -4.75670E-02 -5.01642E-02 -6.27552E-02 -1.08771E-01 -1.39831E-01 -1.57749E-01
  -1.72875E-01 -1.80386E-01 -1.54075E-01 -1.26723E-01 -7.90983E-02 -2.53656E-02  2.27671E-02  7.17614E-02  1.09638E-01  1.21557E-01
   1.16355E-01  8.93700E-02  4.36917E-02 -1.85182E-02 -9.96299E-03 -1.00637E-01 -3.24611E-01 -3.53312E-01 -1.90471E-01 -2.45599E-01
  -7.07448E-02 -3.47915E-01 -1.71384E+00 -2.28421E+00 -1.14775E+00 -5.77467E-01 -5.80546E-01 -1.13126E-01 -8.65251E-02 -9.55148E-02
  -7.65954E-02 -5.47343E-02 -3.53435E-02 -1.96923E-02 -5.93415E-03  7.20650E-03  2.02956E-02  2.70857E-02  3.05883E-02  2.08138E-02
  -3.25230E-03 -3.08678E-02 -5.85047E-02 -9.24677E-02 -1.12954E-01 -1.13185E-01 -1.16261E-01 -9.45858E-02 -7.69157E-02 -6.34538E-02
  -4.21804E-02 -3.02654E-02 -1.63040E-02 -6.99826E-03 -6.40355E-04  4.63976E-03  9.93462E-03  1.45248E-02  1.96610E-02  2.39325E-02
   2.70071E-02  3.03188E-02  3.37562E-02  3.73273E-02  4.09225E-02  4.37332E-02  4.50570E-02  4.71161E-02  4.97033E-02  5.32172E-02
   5.65628E-02  5.99757E-02  6.25258E-02  6.31788E-02  6.28286E-02  6.17623E-02  6.17433E-02  6.13802E-02  6.02722E-02  5.85594E-02
   5.56035E-02  5.26360E-02  4.99689E-02  4.58530E-02  4.09804E-02  3.81694E-02  3.60129E-02  3.22985E-02  2.84627E-02  2.57470E-02
   2.31028E-02  2.00206E-02  1.84169E-02  1.66740E-02  1.45418E-02  1.30627E-02  1.11862E-02  9.09191E-03  7.49714E-03  6.49293E-03
   5.59934E-03  4.09518E-03  3.34125E-03  4.42640E-03  5.25213E-03  6.00836E-03  8.56731E-03  1.08984E-02  1.30593E-02  1.67807E-02
   2.00133E-02  2.04137E-02  2.04596E-02  2.27971E-02  2.63527E-02  3.13116E-02  3.61007E-02  4.01328E-02  4.39696E-02  4.89153E-02
   5.51499E-02  6.16669E-02  6.88601E-02  7.63025E-02  8.31728E-02  9.02808E-02  9.83255E-02  1.04804E-01  1.10053E-01  1.14145E-01
   1.15978E-01  1.16967E-01  1.17545E-01  1.16951E-01  1.15388E-01  1.13566E-01  1.10478E-01  1.07089E-01  9.82296E-02  9.91907E-02
   1.14074E-01  1.26895E-01  1.29901E-01  1.29776E-01  1.09624E-01  8.80027E-02  8.37916E-02  7.13796E-02  6.52953E-02  6.18549E-02
   5.80638E-02  5.49379E-02  5.17689E-02  4.89548E-02  4.78318E-02  4.84507E-02  4.91409E-02  5.00165E-02  5.22139E-02  5.44482E-02
   5.63633E-02  5.97057E-02  6.39151E-02  6.71466E-02  6.92640E-02  7.17166E-02  7.33229E-02  7.37363E-02  7.52641E-02  7.84023E-02
   8.04712E-02  8.07653E-02  8.06728E-02  7.99165E-02  7.93644E-02  7.87004E-02  7.60025E-02  7.37926E-02  7.32489E-02  7.17633E-02
   6.98562E-02  6.79260E-02  6.62383E-02  6.45768E-02  6.25763E-02  6.04033E-02  5.77138E-02  5.56107E-02  5.50028E-02  5.44464E-02
   5.22509E-02  5.00722E-02  4.86151E-02  4.60967E-02  4.20644E-02  3.76125E-02  3.34712E-02  2.91681E-02  2.38799E-02  1.74311E-02
   8.76662E-03 -2.21641E-03 -1.31297E-02 -2.26439E-02 -3.30292E-02 -4.37477E-02 -5.27813E-02 -6.08776E-02 -6.86040E-02 -7.65921E-02
  -8.27677E-02 -8.46861E-02 -8.48852E-02 -8.65138E-02 -8.66217E-02 -8.34708E-02 -7.95109E-02 -7.61048E-02 -7.26987E-02 -6.93644E-02
  -6.68058E-02 -6.33892E-02 -5.81758E-02 -5.30811E-02 -4.82342E-02 -4.18083E-02 -3.51888E-02 -2.94768E-02 -2.32934E-02 -1.73352E-02
  -1.19416E-02 -6.95291E-03 -5.41039E-04  5.07661E-03  8.53862E-03  1.21889E-02  1.69514E-02  2.23772E-02  2.54608E-02  2.67636E-02
   2.99602E-02  3.35480E-02  3.51226E-02  3.72813E-02  3.89296E-02  3.95291E-02  4.10863E-02  4.28381E-02  4.30988E-02  4.28368E-02
   4.44614E-02  4.63716E-02  4.69633E-02  4.87287E-02  5.11631E-02  5.14086E-02  5.11804E-02  5.20375E-02  5.21986E-02  5.16663E-02
   5.22974E-02  5.24256E-02  5.15731E-02  5.22109E-02  5.25885E-02  5.18493E-02  5.21938E-02  5.31251E-02  5.42611E-02  5.45099E-02
   5.13588E-02  4.88070E-02  5.02580E-02  5.15343E-02  5.05569E-02  5.02938E-02  5.12520E-02  5.10310E-02  4.90345E-02  4.76399E-02
   4.82745E-02  4.92400E-02  5.00658E-02  5.01444E-02  5.01822E-02  5.08703E-02  5.16498E-02  5.20963E-02  5.18989E-02  5.22132E-02
   5.33575E-02  5.32749E-02  5.15644E-02  5.02687E-02  5.07248E-02  5.10743E-02  5.10951E-02  5.20107E-02  5.27740E-02  5.30060E-02
   5.19163E-02  5.17527E-02  5.40920E-02  5.59326E-02  5.62407E-02  5.61664E-02  5.39500E-02  5.20335E-02  5.25608E-02  5.32271E-02
   5.34761E-02  5.24332E-02  5.12316E-02  5.07583E-02  5.03430E-02  5.07660E-02  5.02690E-02  4.82167E-02  4.80060E-02  4.98886E-02
   4.94487E-02  4.78844E-02  4.77429E-02  4.75907E-02  4.71854E-02  4.66522E-02  4.59872E-02  4.70140E-02  4.94002E-02  5.01904E-02
   4.97664E-02  4.98847E-02  4.92559E-02  4.83538E-02
 NY background values follow
     6.617E-03    6.651E-03    6.685E-03    6.719E-03    6.754E-03    6.788E-03    6.822E-03    6.856E-03    6.891E-03    6.925E-03
     6.959E-03    6.993E-03    7.027E-03    7.062E-03    7.096E-03    7.130E-03    7.164E-03    7.199E-03    7.233E-03    7.267E-03
     7.301E-03    7.336E-03    7.370E-03    7.404E-03    7.438E-03    7.472E-03    7.507E-03    7.541E-03    7.575E-03    7.609E-03
     7.643E-03    7.678E-03    7.712E-03    7.746E-03    7.780E-03    7.814E-03    7.849E-03    7.883E-03    7.917E-03    7.951E-03
     7.985E-03    8.020E-03    8.054E-03    8.088E-03    8.122E-03    8.156E-03    8.190E-03    8.225E-03    8.259E-03    8.293E-03
     8.327E-03    8.361E-03    8.396E-03    8.430E-03    8.464E-03    8.498E-03    8.532E-03    8.566E-03    8.601E-03    8.635E-03
     8.669E-03    8.703E-03    8.737E-03    8.771E-03    8.805E-03    8.840E-03    8.874E-03    8.908E-03    8.942E-03    8.976E-03
