 
 $NMID
 ID=''
 FMTDAT='(2E13.5)'
 TRAMP=   1.00000E+0
 VOLUME=   1.00000E+0
 $END
  -5.87396E+1  -2.50368E+2
   2.86524E+3   1.52234E+3
  -9.29596E+2  -6.22953E+3
   1.12365E+3  -3.55234E+3
  -2.48898E+3  -2.28541E+3
  -2.01451E+3  -1.55135E+3
  -2.22702E+3   1.70040E+3
  -4.41383E+3   2.96013E+3
  -4.46316E+3   7.35716E+2
  -1.61233E+3  -1.34113E+3
   2.53434E+3  -2.33945E+3
   4.48922E+3  -2.51783E+2
   3.31875E+3   2.90420E+3
  -2.96756E+2   2.97600E+3
  -1.24612E+3  -1.95108E+3
   6.90757E+2  -1.72971E+3
   5.65871E+2  -5.06862E+2
   1.31591E+3  -1.57602E+3
  -2.84598E+2  -1.29899E+3
  -6.57868E+2  -9.47826E+2
   3.14044E+3  -4.48188E+3
   4.36340E+3   4.86212E+2
   8.33912E+2   3.73959E+3
  -4.35218E+3   4.08561E+2
  -2.46372E+3  -5.16057E+3
   1.45323E+3   1.84304E+3
  -2.63480E+3   5.99215E+3
  -5.04981E+3   6.97179E+2
  -5.43411E+3  -1.40066E+3
   1.19260E+3  -3.25449E+3
   6.66063E+3   2.56793E+3
   2.98054E+3   7.04672E+3
  -3.64069E+3   6.27391E+3
   3.28541E+2   8.55264E+2
   9.28238E+2   4.02347E+3
  -4.09873E+3   8.11499E+2
  -1.70602E+3  -2.63675E+3
   2.73463E+3  -4.49478E+3
   2.35957E+3  -1.75089E+3
   7.29875E+2  -8.51936E+2
  -2.74124E+2   1.40004E+3
  -2.68538E+3   2.83941E+3
  -4.29226E+3  -5.25347E+3
  -1.50637E+3  -7.98435E+3
   1.49377E+3  -4.56140E+3
  -5.61032E+2   5.39197E+2
   2.88053E+3  -3.89280E+2
   1.32187E+3  -8.56548E+2
   2.41157E+3   1.90375E+3
   1.51463E+3   2.09067E+3
  -1.50984E+3   3.94626E+2
  -3.25782E+3  -3.05977E+3
   1.57768E+3  -4.27473E+3
   2.29625E+3  -1.03463E+3
   2.12023E+3   1.78618E+3
  -2.44959E+2   2.86915E+3
   1.21489E+3   5.77803E+3
  -2.49441E+3   3.91250E+3
  -3.78151E+3   2.52420E+2
  -3.12213E+3  -8.18958E+2
   1.23302E+3  -1.55542E+3
   2.60391E+3  -3.18284E+3
   1.24359E+3   3.84594E+1
   1.13850E+3   1.57740E+3
   3.76342E+2   6.31936E+2
   2.73551E+3  -5.09587E+2
   4.36563E+2   1.17458E+3
  -6.69967E+2   2.45691E+3
  -1.14178E+3   3.32900E+2
  -2.38162E+3  -3.54119E+2
   2.01358E+2   2.23660E+3
  -1.27465E+3   5.25704E+2
  -2.00208E+3  -1.21767E+3
  -2.05218E+3  -2.21788E+2
  -3.44249E+2  -1.50378E+2
   1.53636E+2   7.97232E+2
  -8.68968E+2  -9.65592E+2
   1.14891E+3  -1.16176E+3
   3.64259E+3  -1.43330E+3
   6.90049E+2  -2.21938E+2
  -2.48075E+2  -2.28882E+3
  -1.39342E+3  -2.07896E+2
  -5.28962E+2  -2.53939E+1
   2.98473E+3  -6.26692E+1
   1.73290E+3   1.01238E+3
  -1.16708E+3   1.96709E+3
  -2.74284E+3  -1.42012E+3
  -6.62506E+2  -4.01139E+3
   1.36445E+3  -2.96818E+3
   6.81113E+1  -1.11948E+3
  -5.09534E+2   4.20882E+2
   2.46459E+3  -2.74086E+3
   1.46520E+3   1.09460E+3
   9.87400E+2  -4.78181E+2
  -7.11488E+2   1.51599E+3
  -1.50455E+3   6.23217E+2
  -1.30421E+3  -1.51265E+3
   7.68189E+2   1.65184E+2
   7.01834E+2   1.59073E+2
  -1.85723E+3   2.69055E+3
  -8.11531E+2  -1.97499E+3
  -1.05307E+3  -4.23409E+3
   1.12585E+3  -5.92723E+2
   2.32218E+2  -1.51568E+3
   3.48518E+2   1.02093E+3
   9.59269E+2   7.61955E+2
  -2.43759E+3  -1.18917E+2
  -9.08641E+2   1.38058E+3
   4.78842E+2   3.30829E+2
  -6.59874E+1  -4.16748E+2
  -4.94988E+2  -1.27779E+3
   2.21867E+3  -7.49491E+2
   2.88727E+3  -1.10727E+3
   2.44469E+3  -3.54527E+2
   3.05431E+3   1.58147E+3
   1.28326E+3   2.70897E+3
  -7.81135E+2   4.83323E+2
  -9.91208E+2   1.30659E+3
   7.29194E+2   1.43170E+3
  -1.35250E+3   1.99673E+2
   4.52460E+2   1.60194E+3
   1.60074E+2   2.15243E+3
  -4.03048E+2   1.76108E+3
  -7.27011E+2  -7.30086E+2
   6.18052E+2   1.14217E+3
   7.55078E+2  -6.06389E+2
  -1.02923E+1  -5.74476E+2
  -6.38056E+2  -1.11080E+1
  -2.54714E+2  -5.26283E+2
   1.29093E+3  -5.03046E+2
   3.65778E+2   1.39177E+3
  -2.84845E+3   1.41545E+3
  -1.07026E+3   5.37545E+2
  -4.52719E+2   1.10432E+3
   4.25576E+3   9.39666E+2
   5.32470E+1   8.56987E+2
   3.35187E+2  -4.94499E+2
  -2.04395E+3   6.87079E+2
   5.73331E+2  -1.30942E+3
  -3.83000E+2   1.08962E+2
  -2.59943E+2  -1.32917E+3
  -1.26913E+3   6.95084E+2
   6.19657E+2   1.28918E+3
   9.58610E+2   4.92709E+2
   1.43906E+3   8.21374E+2
  -7.13868E+2   8.66054E+2
   1.01126E+3  -1.13712E+3
   6.43495E+1  -2.77766E+2
   1.12693E+3  -2.74261E+2
  -9.95143E+2   1.10213E+3
   1.89057E+3   9.65201E+2
   2.00256E+3   1.40971E+3
  -2.18605E+2  -1.38961E+3
   1.78133E+2   2.11700E+3
  -2.12136E+3   1.83141E+3
   2.05792E+2  -1.01108E+2
  -6.14872E+2   2.27313E+2
   8.41503E+2  -1.04598E+3
   2.08693E+3   2.55144E+2
  -4.47993E+2  -1.80276E+1
   1.01385E+3   2.34479E+2
  -7.06838E+2   8.79545E+2
  -1.76261E+2   3.45945E+2
   1.51996E+2   4.33037E+2
   2.11067E+3  -1.68038E+3
  -5.30249E+2  -5.38401E+1
  -9.28245E+2  -4.15543E+2
  -7.48806E+1  -4.82690E+2
  -9.88393E+1  -2.03674E+3
  -3.13121E+2   6.40479E+2
  -4.26601E+2   4.55309E+2
  -1.18179E+3  -1.04366E+3
  -5.45384E+2   1.03428E+3
  -1.63784E+3   5.73517E+2
  -1.94447E+3   4.05349E+2
  -2.72006E+3   1.01428E+3
  -3.20826E+3   2.26723E+3
  -2.20845E+3  -9.66819E+1
  -7.98978E+2   8.68885E+2
   2.39484E+3   1.07886E+3
   2.36386E+2  -5.11920E+2
  -9.67702E+2  -4.68306E+2
  -2.48895E+1  -1.22562E+2
  -2.41077E+3   7.74781E+2
  -1.13390E+3  -6.71634E+2
  -1.61488E+3  -5.94113E+2
  -2.60543E+2  -1.84261E+3
   5.32351E+2  -2.31128E+2
  -2.25846E+2  -4.94366E+2
  -8.80104E+2   4.03617E+2
  -3.67656E+3  -4.06977E+2
   5.74190E+2  -2.13802E+3
  -4.88948E+2  -3.97373E+2
   2.18793E+2  -1.43275E+3
  -7.26876E+2  -3.97804E+2
  -1.44676E+3   5.18641E+2
   3.67737E+2   9.91893E+2
  -1.36731E+3   1.58442E+3
   1.46648E+3   2.06445E+2
   9.75002E+2  -9.64632E+2
  -5.77597E+2   6.07847E+2
  -6.42947E+2   4.46993E+2
  -3.38843E+2  -1.24321E+2
  -6.66991E+2  -7.56126E+2
  -9.93828E+1  -2.24264E+3
  -1.55427E+3  -2.41633E+3
  -2.49296E+3  -6.33083E+2
   3.12809E+3  -1.92462E+2
   1.00341E+3   3.50077E+2
  -7.41469E+2   5.81530E+2
   2.99490E+2   4.45303E+2
  -3.16782E+2   7.76869E+2
  -2.67508E+3  -4.31330E+2
  -8.07003E+1   2.55215E+1
   2.02635E+3  -2.25611E+2
  -3.16484E+2  -1.83891E+3
  -5.29016E+2  -2.88357E+2
  -2.74324E+2  -1.12100E+3
   3.86689E+1   8.96992E+2
  -1.65063E+3   1.56102E+3
   1.74859E+3   1.12303E+3
  -4.74512E+2  -7.04365E+1
  -6.48841E+2   7.56626E+2
  -4.34802E+2  -1.38950E+2
   1.47812E+3   6.99710E+1
  -1.13963E+3  -4.62761E+1
   1.22158E+3  -3.50722E+2
   1.55837E+3  -1.48195E+2
   1.33490E+3   6.97738E+2
   1.75854E+2  -7.44955E+2
  -2.40225E+2   8.82050E+1
   1.60112E+3  -1.20029E+3
  -1.61185E+2  -2.58257E+3
  -2.72989E+2  -2.66733E+2
  -2.28457E+3   1.22203E+3
   1.37780E+3  -3.79227E+2
  -7.82933E+2   2.50731E+3
   1.40798E+3   1.77094E+3
   9.72223E+2   1.02216E+3
   4.64947E+1  -1.15351E+3
  -1.62879E+2   8.28961E+2
   1.87778E+3   1.62066E+3
   1.43956E+3   7.76530E+2
  -1.54438E+2  -1.69758E+2
  -9.15847E+2  -3.49832E+2
   1.31937E+3  -1.40066E+3
  -6.27629E+2   1.44932E+3
   3.55463E+3   3.58981E+2
   1.76117E+3  -1.75866E+2
  -1.35599E+2   8.97390E+1
   1.54658E+3  -1.06114E+2
   4.09460E+2   4.00214E+2
   1.49897E+3   3.02135E+1
   1.08145E+3   3.21303E+2
   3.44312E+2   7.41339E+2
   9.89663E+2  -2.30894E+2
  -2.80657E+3  -8.10957E+2
   6.41570E+2  -4.05456E+1
  -1.06501E+2  -8.59379E+2
  -1.69536E+2   6.42392E+2
  -1.40355E+3  -1.43416E+3
   9.67429E+2  -1.36688E+3
  -7.66665E+2  -3.06692E+3
  -1.01492E+3  -4.72492E+2
  -1.45396E+3   8.47742E+2
  -4.35555E+2   1.58906E+3
   1.91819E+3  -1.82499E+3
  -7.37742E+2  -1.51796E+3
   2.98891E+1   1.93051E+3
  -2.23953E+2  -2.05975E+3
  -1.81951E+3   1.02270E+3
  -1.47751E+2   6.31747E+2
  -6.63883E+2  -1.96418E+3
   3.65986E+2  -2.71340E+3
  -7.21686E+2   6.85857E+2
   3.57229E+1   1.79076E+3
  -6.19347E+2   1.22709E+3
  -7.39959E+2  -1.05251E+3
   6.46961E+2   1.62222E+2
  -5.46017E+1  -1.60941E+3
  -1.34109E+2   9.45014E+1
  -7.56349E+2  -2.21031E+3
   8.57592E+2  -4.77831E+2
   4.88200E+2  -1.26721E+3
   1.40578E+2   1.29753E+3
   1.22460E+2   1.50349E+2
  -8.45349E+2  -1.22271E+3
  -4.23687E+2  -1.08004E+2
  -1.25819E+3   1.23265E+2
  -9.91503E+2   3.24982E+2
  -2.73983E+2   9.94633E+2
  -5.86618E+2   1.72167E+3
   2.54553E+3  -5.40100E+2
  -2.07146E+2  -3.46525E+2
  -1.17529E+2   2.09957E+2
  -8.34900E+2   4.57387E+2
  -1.22644E+3  -1.20954E+3
  -1.88523E+3  -7.90738E+1
  -4.91386E+2   1.68881E+3
   1.54818E+2   5.04938E+2
  -2.37093E+2   9.61051E+2
   1.59124E+3   1.23893E+3
   2.80208E+2  -1.11580E+3
  -6.83616E+2   6.63838E+2
   4.67547E+2   1.39761E+3
  -1.88787E+2  -8.16702E+2
   8.78478E+2  -2.16056E+3
   7.68432E+2  -9.66000E+1
   6.95532E+2  -1.12809E+3
  -8.82924E+2   2.01009E+3
  -9.49231E+2  -1.27146E+2
  -2.67975E+2   6.03105E+2
  -8.66546E+2   8.36012E+2
   2.81554E+2  -8.12572E+2
  -9.77924E+2   9.13904E+2
   7.61139E+1  -1.66088E+2
  -4.79537E+2  -4.21423E+2
   1.29041E+2  -1.66848E+2
  -1.35611E+3   7.55221E+2
  -5.69249E+2   6.18264E+2
   4.50328E+2   5.12819E+2
   8.12100E+2   4.32357E+2
   7.67970E+2   6.97159E+2
   1.00965E+3   1.52977E+3
  -2.44943E+2   1.78413E+3
  -2.97610E+2   7.53665E+2
   4.03610E+2   2.68531E+2
   5.61772E+2  -1.33724E+3
   1.79711E+3   1.09707E+3
   1.66999E+2  -5.75647E+2
  -5.85306E+2   2.58908E+2
  -7.53918E+2   1.37811E+3
  -1.07299E+3  -6.03445E+2
  -1.21946E+2   2.94198E+2
  -1.81319E+2  -1.09161E+2
   1.02179E+3  -1.32182E+2
  -1.03984E+3   3.88180E+2
   6.72119E+2  -1.47480E+3
  -2.23800E+2   4.73737E+2
   1.15654E+3   1.36644E+3
  -1.12674E+3   6.13941E+2
   6.69497E+2  -7.42420E+2
   2.92046E+2   6.53069E+2
   2.42960E+2  -7.98314E+2
   3.91525E+1   8.04408E+2
  -1.48561E+3   2.93269E+2
   7.92038E+2   2.94415E+2
   1.53150E+3   2.19109E+3
   2.18380E+3  -4.31831E+2
  -8.15475E+1   1.98361E+3
   5.60245E+1  -9.28189E+2
  -5.33548E+2  -3.07186E+1
  -1.42049E+3   1.41939E+3
   7.22923E+2  -1.91047E+2
   1.84168E+3   1.56492E+3
  -9.22681E+2   2.80767E+2
  -7.59319E+2  -1.36612E+3
   4.42637E+2   1.87254E+3
   3.90863E+2  -5.92997E+2
   4.62972E+2   7.26250E+2
  -2.86341E+2  -8.79582E+1
  -5.35742E+2   1.30629E+3
   1.30883E+3  -8.46582E+2
   1.45221E+3   1.22902E+3
   1.15689E+3  -1.45519E+3
   2.65629E+3   4.17479E+1
   4.15837E+2   8.15461E+1
