 
 $NMID
 ID=''
 FMTDAT='(2E13.5)'
 TRAMP=   1.00000E+0
 VOLUME=   1.00000E+0
 $END
  -4.34663E+3   1.67535E+4
  -2.19422E+4   3.85060E+4
  -1.35568E+4   4.20993E+4
  -1.09931E+4   3.90537E+4
  -1.14071E+4   4.02134E+4
  -8.33636E+3   4.10750E+4
  -6.79219E+3   3.93685E+4
  -6.62467E+3   3.96942E+4
  -4.29994E+3   4.00978E+4
  -2.84821E+3   3.88873E+4
  -2.30994E+3   3.87596E+4
  -3.17455E+2   3.87130E+4
   1.03694E+3   3.77471E+4
   1.63756E+3   3.74964E+4
   3.27924E+3   3.71769E+4
   4.79107E+3   3.60417E+4
   5.48401E+3   3.56021E+4
   7.04819E+3   3.50697E+4
   8.40339E+3   3.40730E+4
   9.25907E+3   3.35058E+4
   1.05985E+4   3.28024E+4
   1.19482E+4   3.18163E+4
   1.27777E+4   3.11880E+4
   1.39447E+4   3.05115E+4
   1.49869E+4   2.94857E+4
   1.58066E+4   2.87416E+4
   1.66821E+4   2.80593E+4
   1.74557E+4   2.70453E+4
   1.79724E+4   2.62443E+4
   1.87194E+4   2.52776E+4
   1.94131E+4   2.40729E+4
   1.99688E+4   2.31486E+4
   2.06135E+4   2.22880E+4
   2.11684E+4   2.09466E+4
   2.15866E+4   1.98733E+4
   2.21656E+4   1.87777E+4
   2.26778E+4   1.74378E+4
   2.30490E+4   1.62494E+4
   2.35132E+4   1.50674E+4
   2.39661E+4   1.39665E+4
   2.43977E+4   1.28677E+4
   2.46343E+4   1.18878E+4
   2.48621E+4   1.07699E+4
   2.50263E+4   9.65261E+3
   2.52601E+4   8.61653E+3
   2.53166E+4   7.61887E+3
   2.54761E+4   6.61752E+3
   2.55164E+4   5.58271E+3
   2.54927E+4   4.67121E+3
   2.54177E+4   3.63212E+3
   2.52122E+4   2.70752E+3
   2.51614E+4   1.80875E+3
   2.49766E+4   8.61449E+2
   2.47858E+4  -3.41253E+1
   2.45611E+4  -9.69833E+2
   2.41637E+4  -1.68219E+3
   2.39678E+4  -2.50673E+3
   2.36242E+4  -3.23850E+3
   2.31464E+4  -3.95547E+3
   2.27131E+4  -4.73350E+3
   2.21998E+4  -5.49970E+3
   2.17408E+4  -6.24827E+3
   2.13243E+4  -6.91294E+3
   2.08376E+4  -7.49862E+3
   2.02780E+4  -8.06254E+3
   1.97303E+4  -8.73548E+3
   1.92049E+4  -9.33976E+3
   1.85432E+4  -9.95089E+3
   1.80132E+4  -1.04890E+4
   1.73454E+4  -1.09547E+4
   1.67700E+4  -1.15518E+4
   1.61250E+4  -1.19774E+4
   1.55511E+4  -1.24608E+4
   1.48586E+4  -1.28880E+4
   1.42994E+4  -1.32932E+4
   1.36219E+4  -1.37359E+4
   1.30531E+4  -1.41726E+4
   1.23783E+4  -1.44748E+4
   1.17933E+4  -1.48170E+4
   1.12710E+4  -1.51271E+4
   1.06401E+4  -1.54092E+4
   1.00550E+4  -1.57081E+4
   9.41123E+3  -1.59839E+4
   8.88176E+3  -1.61871E+4
   8.40879E+3  -1.63849E+4
   7.79260E+3  -1.65145E+4
   7.33062E+3  -1.66111E+4
   6.73493E+3  -1.67113E+4
   6.28352E+3  -1.68296E+4
   5.71701E+3  -1.69074E+4
   5.24288E+3  -1.70080E+4
   4.76686E+3  -1.70305E+4
   4.25957E+3  -1.70438E+4
   3.80240E+3  -1.70942E+4
   3.27841E+3  -1.70012E+4
   2.92256E+3  -1.69838E+4
   2.38311E+3  -1.68869E+4
   1.97853E+3  -1.68024E+4
   1.57338E+3  -1.67300E+4
   1.23155E+3  -1.66254E+4
   9.00077E+2  -1.64452E+4
   4.14642E+2  -1.62893E+4
   8.04551E+1  -1.61814E+4
  -2.45801E+2  -1.60446E+4
  -6.01776E+2  -1.58021E+4
  -9.35032E+2  -1.56028E+4
  -1.24602E+3  -1.54261E+4
  -1.46359E+3  -1.51973E+4
  -1.78123E+3  -1.49822E+4
  -2.08328E+3  -1.46862E+4
  -2.29916E+3  -1.44286E+4
  -2.54419E+3  -1.41061E+4
  -2.84529E+3  -1.39260E+4
  -3.01818E+3  -1.36561E+4
  -3.19115E+3  -1.34141E+4
  -3.32459E+3  -1.31391E+4
  -3.58710E+3  -1.28842E+4
  -3.74220E+3  -1.25196E+4
  -3.90854E+3  -1.22588E+4
  -4.03189E+3  -1.20015E+4
  -4.18702E+3  -1.17109E+4
  -4.25357E+3  -1.14644E+4
  -4.27735E+3  -1.12325E+4
  -4.39716E+3  -1.08579E+4
  -4.42371E+3  -1.06671E+4
  -4.50546E+3  -1.02657E+4
  -4.52182E+3  -1.00411E+4
  -4.53865E+3  -9.72384E+3
  -4.62431E+3  -9.52236E+3
  -4.62635E+3  -9.25451E+3
  -4.54603E+3  -8.96090E+3
  -4.51296E+3  -8.67608E+3
  -4.47363E+3  -8.39833E+3
  -4.52140E+3  -8.16833E+3
  -4.44790E+3  -7.93973E+3
  -4.42937E+3  -7.66666E+3
  -4.37525E+3  -7.35341E+3
  -4.32412E+3  -7.07514E+3
  -4.29956E+3  -6.86788E+3
  -4.19875E+3  -6.62600E+3
  -4.12516E+3  -6.38028E+3
  -4.10208E+3  -6.14754E+3
  -4.04135E+3  -5.88851E+3
  -4.05052E+3  -5.69860E+3
  -3.98773E+3  -5.43466E+3
  -3.86021E+3  -5.25322E+3
  -3.80510E+3  -5.03950E+3
  -3.79902E+3  -4.86486E+3
  -3.63144E+3  -4.61126E+3
  -3.58773E+3  -4.47981E+3
  -3.44264E+3  -4.24718E+3
  -3.41372E+3  -4.08380E+3
  -3.35112E+3  -3.88124E+3
  -3.23600E+3  -3.77040E+3
  -3.20722E+3  -3.56110E+3
  -3.10424E+3  -3.43827E+3
  -2.99479E+3  -3.28528E+3
  -2.94929E+3  -3.17838E+3
  -2.86806E+3  -3.05492E+3
  -2.78303E+3  -2.85453E+3
  -2.72360E+3  -2.77667E+3
  -2.52925E+3  -2.61204E+3
  -2.54540E+3  -2.53666E+3
  -2.38205E+3  -2.35773E+3
  -2.30211E+3  -2.31265E+3
  -2.23265E+3  -2.18436E+3
  -2.13399E+3  -2.13623E+3
  -2.06998E+3  -2.02755E+3
  -1.95844E+3  -1.90492E+3
  -1.86980E+3  -1.82536E+3
  -1.81490E+3  -1.82792E+3
  -1.63567E+3  -1.67234E+3
  -1.61492E+3  -1.64041E+3
  -1.48212E+3  -1.59237E+3
  -1.40777E+3  -1.50457E+3
  -1.33645E+3  -1.43054E+3
  -1.26367E+3  -1.41473E+3
  -1.16075E+3  -1.28169E+3
  -1.11150E+3  -1.22750E+3
  -1.01481E+3  -1.22222E+3
  -8.80570E+2  -1.08542E+3
  -8.31078E+2  -1.09857E+3
  -7.57512E+2  -9.77329E+2
  -7.00985E+2  -9.32375E+2
  -5.37242E+2  -8.66628E+2
  -5.28309E+2  -8.76827E+2
  -4.48984E+2  -7.90108E+2
  -3.22103E+2  -8.28229E+2
  -3.08852E+2  -7.22900E+2
  -2.49306E+2  -7.15595E+2
  -1.71222E+2  -6.77808E+2
  -9.74743E+1  -6.39407E+2
  -2.73611E+1  -5.81653E+2
   1.70257E+1  -5.53130E+2
   6.82282E+1  -5.00935E+2
   1.55353E+2  -4.38860E+2
   1.63354E+2  -4.68211E+2
   2.27205E+2  -4.44268E+2
   3.34539E+2  -4.07577E+2
   2.36635E+2  -4.00870E+2
   3.52613E+2  -3.53231E+2
   4.05735E+2  -3.22219E+2
   4.58035E+2  -3.12333E+2
   4.32259E+2  -2.81707E+2
   4.94855E+2  -3.44353E+2
   5.46144E+2  -3.10738E+2
   5.77040E+2  -3.04371E+2
   5.82791E+2  -2.84311E+2
   7.10408E+2  -1.68833E+2
   6.95948E+2  -1.98355E+2
   7.70350E+2  -2.84343E+2
   7.28116E+2  -2.53801E+2
   8.75715E+2  -2.56512E+2
   9.14453E+2  -2.71360E+2
   9.75148E+2  -2.19183E+2
   8.81781E+2  -3.07140E+2
   9.87245E+2  -2.60352E+2
   1.04549E+3  -2.52101E+2
   1.02213E+3  -2.62373E+2
   1.09789E+3  -3.65984E+2
   1.16469E+3  -2.61358E+2
   1.20275E+3  -3.07263E+2
   1.23695E+3  -2.75465E+2
   1.27707E+3  -2.45931E+2
   1.32020E+3  -3.03564E+2
   1.32346E+3  -2.65157E+2
   1.39283E+3  -3.36507E+2
   1.40341E+3  -4.10245E+2
   1.40968E+3  -3.54588E+2
   1.46997E+3  -3.70158E+2
   1.51260E+3  -4.03465E+2
   1.56192E+3  -3.39721E+2
   1.47564E+3  -3.74706E+2
   1.62220E+3  -4.16221E+2
   1.57231E+3  -4.59676E+2
   1.61716E+3  -3.99740E+2
   1.66579E+3  -4.98221E+2
   1.73569E+3  -4.67670E+2
   1.69111E+3  -5.10789E+2
   1.68179E+3  -5.31808E+2
   1.73504E+3  -6.28282E+2
   1.76931E+3  -5.65287E+2
   1.74175E+3  -6.26062E+2
   1.80352E+3  -6.09010E+2
   1.77133E+3  -6.65262E+2
   1.81168E+3  -6.86982E+2
   1.80716E+3  -6.78656E+2
   1.75939E+3  -6.98281E+2
   1.82074E+3  -8.13801E+2
   1.76404E+3  -7.82370E+2
   1.81373E+3  -8.29764E+2
   1.85653E+3  -8.70937E+2
   1.80325E+3  -8.68613E+2
   1.73766E+3  -9.66046E+2
   1.76252E+3  -9.38583E+2
   1.83240E+3  -9.75100E+2
   1.81285E+3  -1.04540E+3
   1.82761E+3  -1.04068E+3
   1.80613E+3  -1.07327E+3
   1.73957E+3  -1.10033E+3
   1.74650E+3  -1.13353E+3
   1.72938E+3  -1.16975E+3
   1.75163E+3  -1.19603E+3
   1.72482E+3  -1.26158E+3
   1.64269E+3  -1.34909E+3
   1.72646E+3  -1.31442E+3
   1.67370E+3  -1.33798E+3
   1.65957E+3  -1.36213E+3
   1.67703E+3  -1.43781E+3
   1.70026E+3  -1.41389E+3
   1.63496E+3  -1.48459E+3
   1.61056E+3  -1.49452E+3
   1.54076E+3  -1.55626E+3
   1.56546E+3  -1.57156E+3
   1.57757E+3  -1.62699E+3
   1.56332E+3  -1.63111E+3
   1.42354E+3  -1.64234E+3
   1.52656E+3  -1.65250E+3
   1.45410E+3  -1.65001E+3
   1.40701E+3  -1.80529E+3
   1.36172E+3  -1.78683E+3
   1.34684E+3  -1.79175E+3
   1.35434E+3  -1.78096E+3
   1.27494E+3  -1.78532E+3
   1.22500E+3  -1.85354E+3
   1.27383E+3  -1.89229E+3
   1.21604E+3  -1.95344E+3
   1.13125E+3  -1.96469E+3
   1.16519E+3  -1.95874E+3
   1.11615E+3  -1.93160E+3
   1.04414E+3  -1.89489E+3
   9.94441E+2  -1.97813E+3
   9.50681E+2  -2.01953E+3
   8.83419E+2  -2.00000E+3
   9.22031E+2  -1.97861E+3
   9.35976E+2  -2.01709E+3
   8.86414E+2  -2.02171E+3
   8.53558E+2  -2.07846E+3
   7.50017E+2  -2.05256E+3
   7.92679E+2  -2.00492E+3
   7.04578E+2  -2.04253E+3
   6.29165E+2  -2.10633E+3
   6.49706E+2  -2.09753E+3
   6.47994E+2  -2.10325E+3
   5.61773E+2  -2.08345E+3
   4.92548E+2  -2.08288E+3
   4.87534E+2  -2.07092E+3
   4.53655E+2  -2.08473E+3
   3.97245E+2  -2.01166E+3
   3.98202E+2  -2.04810E+3
   3.43053E+2  -2.07085E+3
   3.51864E+2  -2.03841E+3
   3.15338E+2  -2.05110E+3
   2.76360E+2  -2.00405E+3
   2.66891E+2  -2.00980E+3
   2.58875E+2  -2.01908E+3
   1.95252E+2  -2.00157E+3
   1.63587E+2  -2.03216E+3
   1.62216E+2  -1.95852E+3
   7.24883E+1  -1.94049E+3
   9.07198E+1  -1.94423E+3
   2.79960E+1  -2.00375E+3
   8.50280E+1  -1.96206E+3
   4.67294E+1  -1.91482E+3
  -4.18894E+1  -1.85954E+3
  -2.18291E+1  -1.90654E+3
  -6.49359E+1  -1.82124E+3
  -8.78284E+0  -1.80257E+3
  -8.84963E+1  -1.84348E+3
  -1.05398E+2  -1.78779E+3
  -1.48305E+2  -1.77964E+3
  -1.16820E+2  -1.74633E+3
  -1.58657E+2  -1.73734E+3
  -1.57197E+2  -1.70263E+3
  -1.70719E+2  -1.67849E+3
  -1.77660E+2  -1.64477E+3
  -2.15350E+2  -1.62314E+3
  -1.85190E+2  -1.61295E+3
  -2.04227E+2  -1.65152E+3
  -2.67876E+2  -1.58177E+3
  -2.29382E+2  -1.51758E+3
  -1.82974E+2  -1.60864E+3
  -2.75314E+2  -1.52837E+3
  -2.79464E+2  -1.44056E+3
  -2.85086E+2  -1.42870E+3
  -2.60201E+2  -1.38354E+3
  -2.82237E+2  -1.42727E+3
  -2.75624E+2  -1.37199E+3
  -2.50392E+2  -1.36005E+3
  -1.90348E+2  -1.33836E+3
  -2.95082E+2  -1.33068E+3
  -3.19714E+2  -1.29849E+3
  -3.17698E+2  -1.29245E+3
  -2.32253E+2  -1.21827E+3
  -2.67666E+2  -1.18386E+3
  -2.54106E+2  -1.20778E+3
  -3.48375E+2  -1.18106E+3
  -2.83816E+2  -1.10987E+3
  -2.72110E+2  -1.13183E+3
  -2.79907E+2  -1.07515E+3
  -2.52919E+2  -1.08386E+3
  -3.30823E+2  -1.04407E+3
  -2.90292E+2  -1.09094E+3
  -2.52556E+2  -9.86855E+2
  -3.14164E+2  -9.66582E+2
  -2.26253E+2  -9.95590E+2
  -2.75907E+2  -9.47157E+2
