 LCModel (Version 6.3-1N) Copyright: S.W. Provencher.          Ref.: Magn. Reson. Med. 30:672-679 (1993).                
 Slice_N1@16_24  02-Jun-2023 14:37:03
 27 lines in following concentration table = NCONC+1
    Conc.  %SD /Cr+PCr  Metabolite                                         
 6.87E-07  59% 9.0E-05 Mac                                                 
 6.13E-02  15%   8.000 Cr                                                  
    0.000 999%   0.000 PCr                                                 
 6.95E-02  18%   9.067 Ins                                                 
 6.69E-02  13%   8.733 NAA                                                 
 6.34E-02  18%   8.277 Tau                                                 
 4.74E-03 355%   0.619 PCho                                                
 9.59E-03 166%   1.251 GPC                                                 
 5.32E-02  24%   6.945 Glu                                                 
 2.13E-02  42%   2.778 Gln                                                 
 2.32E-02  43%   3.030 Ala                                                 
 7.03E-03 266%   0.917 Asc                                                 
 1.30E-02  55%   1.702 Asp                                                 
 3.38E-03 124%   0.441 GABA                                                
 5.94E-03  77%   0.775 Glc                                                 
 6.32E-03  75%   0.824 GSH                                                 
    0.000 999%   0.000 Lac                                                 
    0.000 999%   0.000 NAAG                                                
    0.000 999%   0.000 PE                                                  
 1.43E-02  21%   1.870 GPC+PCho                                            
 6.69E-02  13%   8.733 NAA+NAAG                                            
 7.45E-02  21%   9.724 Glu+Gln                                             
 6.13E-02  15%   8.000 Cr+PCr                                              
 6.69E-02  13%   8.733 NAA+NAAG                                            
 6.13E-02  15%   8.000 Cr+PCr                                              
 7.45E-02  21%   9.724 Glu+Gln                                             
   6 lines in following misc. output table
  FWHM = 0.052 ppm    S/N =   1                                            
  Data shift =-0.035 ppm                                                   
  Ph:  53 deg       0.6 deg/ppm                                            
  alphaB,S = 3.1E+01,   1.0E+02                                            
   18 spline knots.   Ns = 9(1)                                            
   4 inflections.     1 extrema                                            
  654 points on ppm-axis = NY
      4.000000     3.994181     3.988363     3.982544     3.976726     3.970907     3.965088     3.959270     3.953451     3.947633
      3.941814     3.935995     3.930177     3.924358     3.918540     3.912721     3.906902     3.901084     3.895265     3.889446
      3.883628     3.877809     3.871991     3.866172     3.860353     3.854535     3.848716     3.842898     3.837079     3.831260
      3.825442     3.819623     3.813805     3.807986     3.802167     3.796349     3.790530     3.784712     3.778893     3.773074
      3.767256     3.761437     3.755619     3.749800     3.743981     3.738163     3.732344     3.726526     3.720707     3.714888
      3.709070     3.703251     3.697433     3.691614     3.685795     3.679977     3.674158     3.668339     3.662521     3.656702
      3.650884     3.645065     3.639246     3.633428     3.627609     3.621791     3.615972     3.610153     3.604335     3.598516
      3.592698     3.586879     3.581060     3.575242     3.569423     3.563605     3.557786     3.551967     3.546149     3.540330
      3.534512     3.528693     3.522874     3.517056     3.511237     3.505419     3.499600     3.493781     3.487963     3.482144
      3.476326     3.470507     3.464688     3.458870     3.453051     3.447232     3.441414     3.435595     3.429777     3.423958
      3.418139     3.412321     3.406502     3.400684     3.394865     3.389046     3.383228     3.377409     3.371591     3.365772
      3.359953     3.354135     3.348316     3.342498     3.336679     3.330860     3.325042     3.319223     3.313405     3.307586
      3.301767     3.295949     3.290130     3.284312     3.278493     3.272674     3.266856     3.261037     3.255219     3.249400
      3.243581     3.237763     3.231944     3.226125     3.220307     3.214488     3.208670     3.202851     3.197032     3.191214
      3.185395     3.179577     3.173758     3.167939     3.162121     3.156302     3.150484     3.144665     3.138846     3.133028
      3.127209     3.121391     3.115572     3.109753     3.103935     3.098116     3.092298     3.086479     3.080660     3.074842
      3.069023     3.063205     3.057386     3.051567     3.045749     3.039930     3.034111     3.028293     3.022474     3.016656
      3.010837     3.005018     2.999200     2.993381     2.987563     2.981744     2.975925     2.970107     2.964288     2.958470
      2.952651     2.946832     2.941014     2.935195     2.929377     2.923558     2.917739     2.911921     2.906102     2.900284
      2.894465     2.888646     2.882828     2.877009     2.871191     2.865372     2.859553     2.853735     2.847916     2.842098
      2.836279     2.830460     2.824642     2.818823     2.813004     2.807186     2.801367     2.795549     2.789730     2.783911
      2.778093     2.772274     2.766456     2.760637     2.754818     2.749000     2.743181     2.737363     2.731544     2.725725
      2.719907     2.714088     2.708270     2.702451     2.696632     2.690814     2.684995     2.679177     2.673358     2.667539
      2.661721     2.655902     2.650084     2.644265     2.638446     2.632628     2.626809     2.620991     2.615172     2.609353
      2.603535     2.597716     2.591897     2.586079     2.580260     2.574442     2.568623     2.562804     2.556986     2.551167
      2.545349     2.539530     2.533711     2.527893     2.522074     2.516256     2.510437     2.504618     2.498800     2.492981
      2.487163     2.481344     2.475525     2.469707     2.463888     2.458070     2.452251     2.446432     2.440614     2.434795
      2.428977     2.423158     2.417339     2.411521     2.405702     2.399884     2.394065     2.388246     2.382428     2.376609
      2.370790     2.364972     2.359153     2.353335     2.347516     2.341697     2.335879     2.330060     2.324242     2.318423
      2.312604     2.306786     2.300967     2.295149     2.289330     2.283511     2.277693     2.271874     2.266056     2.260237
      2.254418     2.248600     2.242781     2.236963     2.231144     2.225325     2.219507     2.213688     2.207870     2.202051
      2.196232     2.190414     2.184595     2.178777     2.172958     2.167139     2.161321     2.155502     2.149683     2.143865
      2.138046     2.132228     2.126409     2.120590     2.114772     2.108953     2.103135     2.097316     2.091497     2.085679
      2.079860     2.074042     2.068223     2.062404     2.056586     2.050767     2.044949     2.039130     2.033311     2.027493
      2.021674     2.015856     2.010037     2.004218     1.998400     1.992581     1.986763     1.980944     1.975126     1.969307
      1.963489     1.957670     1.951852     1.946033     1.940215     1.934397     1.928578     1.922760     1.916941     1.911123
      1.905304     1.899486     1.893667     1.887849     1.882030     1.876212     1.870393     1.864575     1.858756     1.852938
      1.847119     1.841301     1.835482     1.829664     1.823845     1.818027     1.812208     1.806390     1.800571     1.794753
      1.788934     1.783116     1.777297     1.771479     1.765660     1.759842     1.754023     1.748205     1.742386     1.736568
      1.730749     1.724931     1.719113     1.713294     1.707476     1.701657     1.695839     1.690020     1.684202     1.678383
      1.672565     1.666746     1.660928     1.655109     1.649291     1.643472     1.637654     1.631835     1.626017     1.620198
      1.614380     1.608561     1.602743     1.596924     1.591106     1.585287     1.579469     1.573650     1.567832     1.562013
      1.556195     1.550376     1.544558     1.538739     1.532921     1.527102     1.521284     1.515465     1.509647     1.503829
      1.498010     1.492192     1.486373     1.480555     1.474736     1.468918     1.463099     1.457281     1.451462     1.445644
      1.439825     1.434007     1.428188     1.422370     1.416551     1.410733     1.404914     1.399096     1.393277     1.387459
      1.381640     1.375822     1.370003     1.364185     1.358366     1.352548     1.346729     1.340911     1.335092     1.329274
      1.323455     1.317637     1.311818     1.306000     1.300182     1.294363     1.288545     1.282726     1.276908     1.271089
      1.265271     1.259452     1.253634     1.247815     1.241997     1.236178     1.230360     1.224541     1.218723     1.212904
      1.207086     1.201267     1.195449     1.189630     1.183812     1.177993     1.172175     1.166356     1.160538     1.154719
      1.148901     1.143082     1.137264     1.131445     1.125627     1.119808     1.113990     1.108171     1.102353     1.096534
      1.090716     1.084898     1.079079     1.073261     1.067442     1.061624     1.055805     1.049987     1.044168     1.038350
      1.032531     1.026713     1.020894     1.015076     1.009257     1.003439     0.997620     0.991802     0.985983     0.980165
      0.974346     0.968528     0.962709     0.956891     0.951072     0.945254     0.939435     0.933617     0.927798     0.921980
      0.916161     0.910343     0.904524     0.898706     0.892887     0.887069     0.881251     0.875432     0.869614     0.863795
      0.857977     0.852158     0.846340     0.840521     0.834703     0.828884     0.823066     0.817247     0.811429     0.805610
      0.799792     0.793973     0.788155     0.782336     0.776518     0.770699     0.764881     0.759062     0.753244     0.747425
      0.741607     0.735788     0.729970     0.724151     0.718333     0.712514     0.706696     0.700877     0.695059     0.689240
      0.683422     0.677603     0.671785     0.665967     0.660148     0.654330     0.648511     0.642693     0.636874     0.631056
      0.625237     0.619419     0.613600     0.607782     0.601963     0.596145     0.590326     0.584508     0.578689     0.572871
      0.567052     0.561234     0.555415     0.549597     0.543778     0.537960     0.532141     0.526323     0.520504     0.514686
      0.508867     0.503049     0.497230     0.491412     0.485593     0.479775     0.473956     0.468138     0.462319     0.456501
      0.450682     0.444864     0.439045     0.433227     0.427408     0.421590     0.415771     0.409953     0.404134     0.398316
      0.392497     0.386679     0.380860     0.375042     0.369223     0.363405     0.357586     0.351767     0.345949     0.340130
      0.334312     0.328493     0.322675     0.316856     0.311038     0.305219     0.299401     0.293582     0.287764     0.281945
      0.276127     0.270308     0.264490     0.258671     0.252853     0.247034     0.241216     0.235397     0.229579     0.223760
      0.217942     0.212123     0.206305     0.200486
 NY phased data points follow
  -9.01008E-02 -2.99080E-01 -5.31203E-01 -2.44094E-01 -2.97936E-01 -4.14901E-01 -3.46576E-01 -4.10778E-01 -3.76732E-01 -2.71332E-01
   2.17008E-01  2.54302E-01  4.42437E-02 -1.87923E-01 -2.71153E-01  2.98364E-01  4.68691E-01  2.23213E-01 -1.61261E-02  7.04134E-02
   1.55437E-01  4.11553E-01  6.17564E-01  4.94634E-02  5.21769E-03  3.02488E-01  1.35664E-01 -4.75343E-04 -8.61188E-02 -2.60908E-02
  -3.26113E-02  1.63333E-01  2.41519E-01 -4.80351E-01 -5.56663E-01 -8.23643E-02 -8.57566E-02 -4.94006E-01 -1.20975E-01  2.60762E-01
   8.59281E-02 -7.40550E-02 -4.04939E-01 -1.40876E-01  8.66643E-02  2.87199E-01  2.84700E-01  5.09691E-01  1.24064E-01 -1.90347E-01
   3.00473E-01  1.88117E-02  1.32660E-01  1.21756E-01 -1.67013E-01 -2.13058E-01 -3.24888E-02 -1.37926E-01 -7.53256E-02 -1.48590E-02
  -3.47696E-02  1.17814E-01 -3.53086E-01 -4.68046E-01 -2.48970E-01 -3.78816E-02  1.04843E-01  1.88399E-01 -9.66679E-02  5.01584E-02
   6.82311E-02 -4.94067E-02  1.44291E-01 -1.18785E-01  8.45949E-02  1.09021E-01  7.56552E-02 -5.08841E-02  3.84267E-02  7.78170E-02
  -1.81621E-01  1.37131E-01  5.03480E-02 -2.40138E-01 -1.39984E-01  3.15076E-01  2.76668E-01 -6.71836E-03  1.64670E-01  1.22092E-01
   8.07775E-03  2.57111E-02  2.46751E-01  2.21306E-01 -1.34415E-02 -7.81816E-02 -4.38021E-01 -1.00206E-01  1.34095E-01 -3.62746E-01
   1.20786E-01  2.64186E-01 -1.31295E-02  9.96191E-02  1.69774E-01  4.73378E-01  2.66637E-01  1.48546E-01  3.02838E-01  3.75904E-01
   5.84125E-01  3.27415E-01  8.78616E-02  1.41800E-02  1.77210E-01  1.62344E-01  1.31228E-01  4.66308E-01  1.46091E-01  2.89267E-01
   4.17563E-01  2.59980E-01  6.04681E-01  1.85393E-01 -1.23587E-01  4.01660E-02 -1.37058E-01 -4.28029E-01 -2.78654E-01 -3.15225E-01
  -4.76870E-01 -3.40926E-01 -2.66048E-01 -3.16258E-01 -6.39160E-01 -6.19141E-01 -5.73366E-01 -3.20877E-01 -6.45141E-01 -3.56414E-01
  -2.00204E-01 -5.22983E-01  1.54743E-01 -3.41032E-01 -2.09890E-01 -3.18221E-02  7.23023E-02  1.99791E-01  1.78444E-01  1.33079E-02
  -2.32307E-01  4.66697E-01  2.55366E-01  1.94119E-01  1.94180E-01 -6.85590E-02 -1.25826E-01  3.50860E-01  2.78008E-01  2.87481E-01
   4.65259E-01  2.78992E-01  3.00886E-01  3.58614E-01  7.64673E-01  3.66240E-01  3.94870E-01 -2.64313E-01 -4.48885E-01 -1.70974E-01
  -2.27566E-01 -1.85622E-01 -6.55219E-01 -6.10954E-01 -6.54907E-01 -4.72284E-01 -3.46519E-01 -2.59326E-01 -3.09946E-01 -1.08761E-01
  -2.91638E-01 -2.24290E-01 -9.91081E-02 -3.85558E-02 -5.76771E-01 -9.99677E-01 -1.44618E-01 -2.44003E-01 -1.44820E-01 -3.82309E-01
   7.06418E-02  3.00982E-02 -6.67836E-01 -2.97996E-01  1.02817E-01 -2.56224E-01 -2.99333E-01  1.61902E-02 -2.65045E-01  2.55751E-01
  -1.55160E-01 -7.22908E-02  2.51708E-01  1.87145E-01 -2.02058E-01 -3.96693E-01  1.85660E-02  3.18887E-01  3.62187E-01 -3.70940E-01
   1.68892E-01  1.49270E-02 -1.57931E-01  1.43788E-02 -1.08799E-01 -2.28115E-02 -1.84298E-01 -9.14910E-02  1.43853E-01  1.25884E-01
  -4.64857E-01 -5.39836E-01 -1.65912E-01  3.93776E-01  9.20210E-02  2.22193E-01  3.87196E-01  2.70611E-01  4.10299E-01  1.69397E-01
   8.58705E-01  5.53427E-01 -1.04281E-01  1.80437E-01  1.34957E-01 -2.36667E-01  2.10552E-01  3.79625E-01 -8.48192E-02  1.47573E-01
  -3.32020E-02 -2.88499E-01 -5.05945E-02 -5.34140E-02 -3.45446E-01  1.05899E-01 -1.92137E-02 -7.97585E-02  3.55151E-01 -8.04195E-02
   3.44154E-01  4.69209E-02 -2.33681E-01  1.75273E-01 -2.28761E-01 -2.09825E-01 -1.03418E-01  8.77091E-02  4.11788E-02 -2.77477E-01
  -2.59482E-01  8.71693E-02  2.30520E-01  1.53973E-01  3.21389E-01 -2.07255E-02 -1.73140E-01 -7.88357E-02  2.71619E-01  3.91901E-01
  -1.95806E-01  3.09413E-01  2.01177E-01 -1.45051E-01  2.25255E-01  9.68358E-02 -1.09929E-02 -1.24045E-01  1.67557E-01 -1.35360E-01
  -4.05048E-01 -5.84060E-02 -9.03634E-02 -9.53877E-02  2.43363E-01  6.41330E-02 -4.30104E-02  2.11251E-01  6.59915E-02  2.61960E-01
   1.34632E-02  2.49662E-01  4.04710E-01  2.63766E-01  2.90317E-01  2.94219E-02  6.19579E-02  3.78921E-02 -1.78302E-01  1.03537E-01
   5.36277E-01  6.72989E-02  2.98880E-02 -4.82947E-03  2.33882E-01  7.51392E-02  3.89345E-01  3.58552E-01 -7.55699E-02  5.14959E-01
   1.42531E-02 -1.11910E-01 -1.49309E-01  2.87766E-01  1.69699E-01  3.22780E-01 -6.12875E-02 -4.80113E-01  3.84575E-01 -9.34997E-02
  -2.38927E-01 -3.55972E-01  1.24589E-01 -2.67409E-01 -6.76538E-01 -9.21021E-02 -4.10123E-01 -2.21314E-01  2.10441E-01  7.11598E-02
  -1.74062E-01 -4.09331E-02  1.08487E-01  4.61786E-03  1.87634E-02 -1.59223E-01 -3.12849E-01 -2.42114E-01 -2.29986E-01 -2.14409E-01
  -7.46548E-01 -8.01982E-01 -1.08349E+00 -8.32642E-01 -3.66573E-01 -3.24541E-01 -2.82337E-02 -3.26705E-01 -5.45445E-01 -3.84806E-01
   2.52797E-01  5.15917E-01  3.10547E-01 -1.40400E-01  2.80261E-01 -1.96386E-01  2.55708E-02  3.48570E-01  5.57356E-02  4.09993E-01
   2.33283E-03  5.49225E-01 -2.14206E-01  3.62449E-02  1.38223E-01  6.20464E-03  3.36864E-01  2.88908E-04  3.24946E-01 -3.50771E-01
  -1.76011E-01  1.04411E-01  2.50337E-02 -9.94043E-02  2.17369E-02  3.00972E-01  1.42491E-01  1.62803E-01  1.85065E-01 -2.42857E-01
   2.92436E-02  2.04478E-01  1.45210E-01  3.25214E-01  2.33598E-01  3.90370E-01 -4.06146E-02  6.10544E-02  3.88248E-02  2.98738E-01
   2.09203E-01 -8.37307E-03  2.52737E-01  3.59582E-01  1.53197E-01  1.69717E-02  3.65808E-01 -3.03276E-01  1.84633E-01  2.60442E-01
  -3.14351E-01 -6.10675E-02 -4.24623E-02 -4.04500E-02 -3.33750E-02 -1.63087E-01 -1.01539E-01 -3.57429E-01 -4.02269E-01 -4.92716E-02
  -2.12625E-02  1.07314E-01 -3.26905E-01 -1.18529E-01 -2.08771E-01 -2.59498E-01 -3.39342E-01 -6.31504E-01 -2.42317E-01 -1.41157E-01
  -3.30431E-01 -2.51477E-01  2.77941E-01  1.59591E-03 -1.48727E-01 -2.26905E-01 -1.30298E-01 -2.92081E-01 -6.78322E-01 -2.73444E-01
   9.30726E-02 -5.66781E-03 -5.84318E-03  2.00100E-01  1.60064E-01 -2.97724E-02  1.44983E-02  2.31906E-01  2.28151E-01  7.10826E-01
   4.31864E-01  2.56936E-01  2.20631E-01 -1.32136E-02  2.65781E-01  1.00450E-01  1.52222E-01  1.32623E-01 -7.66951E-02  4.49076E-02
   1.64751E-01  3.62013E-02  7.42433E-02  7.77945E-02  1.42873E-01  1.98666E-01  5.36900E-01  2.56436E-01  2.86976E-02  2.78151E-01
  -1.66805E-01  7.40835E-02  1.66135E-02 -1.90336E-01  1.91515E-01  1.92452E-01 -2.37499E-01 -1.60390E-01 -1.60119E-03 -3.21808E-01
  -2.72997E-01  9.09628E-02  1.78861E-01 -2.12989E-01 -3.77541E-01 -2.96925E-01 -3.68493E-01 -3.03921E-01 -7.34556E-02  1.89297E-01
   1.70572E-01  9.78309E-02  2.05192E-01  4.75180E-02  1.46923E-02  1.37141E-01  8.83967E-02 -2.68425E-01 -2.32651E-02  6.11659E-02
  -4.22204E-02 -1.57102E-01  4.08944E-02  4.59702E-01 -1.24593E-01 -4.95028E-02 -9.85187E-03  2.30839E-01 -2.35307E-01 -1.24407E-01
   2.05389E-01 -3.72427E-01 -1.57076E-01  9.00922E-02  1.39294E-01 -3.50929E-01  3.84383E-01  2.68554E-01 -2.72614E-01 -1.22982E-01
   8.00553E-02  1.21135E-01  5.01442E-02  1.23381E-01  8.41490E-02  1.76219E-01 -2.07158E-02  2.16693E-01 -1.71249E-01  1.68274E-01
   5.08600E-02  1.49542E-01  2.91875E-01 -1.70061E-01  7.26388E-02 -1.78941E-01 -2.22424E-01 -1.72748E-01 -3.16607E-02 -5.11228E-01
  -1.01877E-01  3.56893E-01 -5.51122E-02 -3.05013E-01 -1.06990E-01 -2.86674E-01 -1.50568E-01  4.14288E-03 -3.99718E-01  2.58195E-01
   9.69713E-02 -2.60517E-02  4.62072E-03  1.54841E-01  2.56229E-02  2.74926E-02  1.29152E-01 -3.56951E-01  1.21048E-01  2.40441E-01
  -2.32528E-01  6.13311E-02  3.20870E-01  9.04345E-02  2.37354E-01 -7.61762E-02 -2.01728E-01 -2.54344E-01 -6.97749E-02  2.74824E-02
  -2.31806E-01  3.30515E-04 -2.17231E-02 -2.39491E-01 -5.29344E-02 -1.23221E-03 -1.87189E-02  3.25082E-01 -3.29720E-01 -6.43157E-02
   1.48022E-01 -1.33094E-01 -1.06014E-01 -2.08249E-01  1.33731E-01 -1.46791E-01  1.39370E-01  1.69709E-01 -1.03101E-01 -3.92297E-03
  -2.92148E-01 -2.67760E-01 -1.87287E-01 -3.43445E-01 -4.25941E-02  3.69839E-02 -3.24188E-01 -4.72949E-01 -2.56443E-01  4.61583E-02
  -2.62685E-01 -2.25720E-01  2.15921E-01  1.74097E-02 -1.61978E-01 -1.36562E-01 -5.05263E-01 -1.32174E-01  1.64692E-01  5.84870E-02
   2.67947E-01 -6.35339E-02 -5.88671E-02 -5.67634E-02 -3.95662E-01 -8.08831E-02  2.40537E-02 -1.90170E-01 -1.72487E-01 -2.43843E-01
  -3.54523E-02 -8.16888E-02 -2.19431E-01 -7.52084E-03  1.16052E-01  3.99031E-02  1.55428E-01  3.57304E-01  3.82830E-03 -5.55941E-02
   1.31274E-01 -6.53560E-02 -1.22491E-01 -1.75211E-01 -2.64305E-01  3.11419E-01  3.10991E-01  3.37794E-02 -2.62416E-02 -8.72084E-02
   2.12408E-01 -1.04215E-01  8.37760E-03  1.32622E-01 -8.32197E-02  1.14148E-01  4.57993E-02  3.62213E-04  2.10900E-01  2.77074E-01
  -1.14173E-01 -1.18097E-01  5.02831E-02  1.05823E-01 -5.23419E-02 -4.23430E-01  1.60913E-01  1.62615E-01 -3.04680E-01 -2.15373E-01
  -2.28162E-01 -3.47878E-01  6.45413E-02  2.45382E-01
 NY points of the fit to the data follow
  -2.19889E-02 -2.67990E-02 -2.82625E-02 -2.91875E-02 -3.01037E-02 -3.13192E-02 -3.48790E-02 -3.85957E-02 -3.34420E-02 -1.40358E-02
   2.15883E-02  7.43694E-02  1.43451E-01  2.21068E-01  2.92287E-01  3.41329E-01  3.60382E-01  3.54325E-01  3.34615E-01  3.09005E-01
   2.78345E-01  2.38653E-01  1.87880E-01  1.30540E-01  7.68711E-02  3.59138E-02  7.18787E-03 -1.54580E-02 -3.55743E-02 -5.42405E-02
  -7.21707E-02 -9.02214E-02 -1.07838E-01 -1.23164E-01 -1.33783E-01 -1.37312E-01 -1.30861E-01 -1.13015E-01 -8.41011E-02 -4.66813E-02
  -4.78175E-03  3.80328E-02  7.94348E-02  1.16962E-01  1.47282E-01  1.66896E-01  1.73647E-01  1.67897E-01  1.52449E-01  1.30262E-01
   1.03368E-01  7.28658E-02  3.97593E-02  6.12912E-03 -2.54868E-02 -5.44331E-02 -7.89644E-02 -9.83749E-02 -1.18959E-01 -1.41214E-01
  -1.61857E-01 -1.80002E-01 -1.90628E-01 -1.86804E-01 -1.63861E-01 -1.22783E-01 -6.80383E-02 -6.68894E-03  5.36996E-02  1.08452E-01
   1.52963E-01  1.83850E-01  1.98654E-01  1.92477E-01  1.65490E-01  1.19429E-01  5.77964E-02 -1.03607E-02 -7.45592E-02 -1.21340E-01
  -1.39546E-01 -1.27102E-01 -9.02021E-02 -3.86063E-02  1.90011E-02  7.56212E-02  1.26834E-01  1.70678E-01  2.03680E-01  2.21767E-01
   2.19271E-01  1.94958E-01  1.50230E-01  8.82347E-02  1.74687E-02 -4.96981E-02 -1.01611E-01 -1.29585E-01 -1.29690E-01 -1.04668E-01
  -6.29036E-02 -1.35205E-02  3.70709E-02  8.67249E-02  1.35326E-01  1.81142E-01  2.20591E-01  2.49573E-01  2.66554E-01  2.73622E-01
   2.74764E-01  2.73958E-01  2.73361E-01  2.73447E-01  2.74616E-01  2.76233E-01  2.76959E-01  2.77518E-01  2.76244E-01  2.67571E-01
   2.50650E-01  2.18571E-01  1.67865E-01  9.68513E-02  8.88271E-03 -8.86827E-02 -1.83504E-01 -2.56178E-01 -3.06613E-01 -3.38982E-01
  -3.59269E-01 -3.78847E-01 -4.09518E-01 -4.55035E-01 -5.02381E-01 -5.30825E-01 -5.25527E-01 -4.86329E-01 -4.31997E-01 -3.80106E-01
  -3.35308E-01 -2.90928E-01 -2.36842E-01 -1.70773E-01 -1.00687E-01 -4.22527E-02 -2.95551E-03  2.36811E-02  4.47118E-02  6.27859E-02
   7.91653E-02  9.46486E-02  1.09811E-01  1.25142E-01  1.41124E-01  1.58297E-01  1.77276E-01  1.98817E-01  2.23892E-01  2.66901E-01
   3.23103E-01  3.78750E-01  4.22193E-01  4.42942E-01  4.25124E-01  3.53510E-01  2.29231E-01  7.43692E-02 -7.53703E-02 -1.91232E-01
  -2.70486E-01 -3.26218E-01 -3.72099E-01 -4.09780E-01 -4.27940E-01 -4.16077E-01 -3.74166E-01 -3.21085E-01 -2.77847E-01 -2.47714E-01
  -2.25342E-01 -2.07801E-01 -1.93848E-01 -1.82631E-01 -1.73367E-01 -1.65261E-01 -1.57780E-01 -1.50791E-01 -1.44357E-01 -1.38392E-01
  -1.32578E-01 -1.26687E-01 -1.20735E-01 -1.14849E-01 -1.08900E-01 -1.02601E-01 -9.58705E-02 -8.88453E-02 -8.18150E-02 -7.48366E-02
  -6.79826E-02 -6.17135E-02 -5.65070E-02 -5.23693E-02 -4.90028E-02 -4.65077E-02 -4.56027E-02 -4.70288E-02 -5.07939E-02 -5.58806E-02
  -6.08794E-02 -6.48443E-02 -6.77282E-02 -7.01904E-02 -7.26985E-02 -7.50876E-02 -7.72825E-02 -7.74135E-02 -7.30781E-02 -6.36976E-02
  -4.93523E-02 -2.97068E-02 -3.97521E-03  2.69517E-02  5.88796E-02  8.77325E-02  1.12018E-01  1.32573E-01  1.48940E-01  1.57794E-01
   1.55093E-01  1.39309E-01  1.13557E-01  8.36774E-02  5.50185E-02  2.96700E-02  5.80228E-03 -1.80983E-02 -4.06537E-02 -5.90380E-02
  -7.19488E-02 -8.05111E-02 -8.65896E-02 -9.12734E-02 -9.51435E-02 -9.86636E-02 -1.02197E-01 -1.06295E-01 -1.12378E-01 -1.19223E-01
  -1.25949E-01 -1.32257E-01 -1.36677E-01 -1.36273E-01 -1.28892E-01 -1.15818E-01 -9.82966E-02 -7.73834E-02 -5.52161E-02 -3.25575E-02
  -1.12035E-02  8.42009E-03  2.60385E-02  4.15697E-02  5.49199E-02  6.57859E-02  7.49798E-02  8.21070E-02  8.56629E-02  8.52227E-02
   8.07847E-02  7.22062E-02  5.91537E-02  4.25963E-02  2.26312E-02 -1.68137E-03 -3.09639E-02 -6.48642E-02 -1.00272E-01 -1.33295E-01
  -1.58720E-01 -1.70864E-01 -1.65569E-01 -1.41629E-01 -1.01954E-01 -5.21199E-02  4.59070E-04  4.96553E-02  9.19634E-02  1.26007E-01
   1.52019E-01  1.69990E-01  1.79749E-01  1.81642E-01  1.76673E-01  1.67333E-01  1.56258E-01  1.45522E-01  1.36491E-01  1.29195E-01
   1.23005E-01  1.17361E-01  1.11917E-01  1.06446E-01  1.00862E-01  9.51832E-02  8.92444E-02  8.29225E-02  7.57600E-02  6.74535E-02
   5.72610E-02  4.45491E-02  2.87015E-02  9.11134E-03 -1.45384E-02 -4.20634E-02 -7.27411E-02 -1.04999E-01 -1.36861E-01 -1.65621E-01
  -1.88615E-01 -2.03395E-01 -2.08224E-01 -2.02728E-01 -1.87327E-01 -1.63908E-01 -1.35700E-01 -1.06259E-01 -7.98658E-02 -5.89840E-02
  -4.53644E-02 -3.84268E-02 -3.63822E-02 -3.11679E-02 -3.53115E-02 -6.23442E-02 -1.16583E-01 -1.98653E-01 -3.09644E-01 -4.42808E-01
  -5.75049E-01 -6.74372E-01 -7.15934E-01 -6.98285E-01 -6.44723E-01 -5.80132E-01 -5.16214E-01 -4.49135E-01 -3.69104E-01 -2.75952E-01
  -1.82290E-01 -1.09746E-01 -6.83003E-02 -4.75297E-02 -3.53441E-02 -2.72568E-02 -2.18418E-02 -1.85026E-02 -1.67965E-02 -1.63343E-02
  -1.67042E-02 -1.74871E-02 -1.83036E-02 -1.88294E-02 -1.88588E-02 -1.82912E-02 -1.71087E-02 -1.54097E-02 -1.32870E-02 -1.08607E-02
  -8.25667E-03 -5.59300E-03 -3.02129E-03 -6.57784E-04  1.44341E-03  3.28500E-03  4.92371E-03  6.40680E-03  7.75560E-03  8.98847E-03
   1.01147E-02  1.11621E-02  1.21471E-02  1.30769E-02  1.39443E-02  1.47565E-02  1.55457E-02  1.63389E-02  1.71388E-02  1.79145E-02
   1.86023E-02  1.91425E-02  1.94987E-02  1.96632E-02  1.96440E-02  1.94465E-02  1.90461E-02  1.84023E-02  1.74930E-02  1.63363E-02
   1.49676E-02  1.34277E-02  1.17635E-02  1.00100E-02  8.19504E-03  6.34797E-03  4.49957E-03  2.68226E-03  9.32091E-04 -7.15694E-04
  -2.23687E-03 -3.62221E-03 -4.87196E-03 -5.99809E-03 -7.01642E-03 -7.92549E-03 -8.70433E-03 -9.33753E-03 -9.81401E-03 -1.01122E-02
  -1.01945E-02 -1.00236E-02 -9.53303E-03 -8.65227E-03 -7.33948E-03 -5.68469E-03 -3.92552E-03  1.04491E-03  1.01611E-02  2.64946E-02
   5.11841E-02  8.34618E-02  1.20380E-01  1.56661E-01  1.85538E-01  2.00700E-01  2.00135E-01  1.86876E-01  1.66335E-01  1.43976E-01
   1.21651E-01  9.88559E-02  7.53273E-02  5.25341E-02  3.42530E-02  2.26994E-02  1.79319E-02  1.81279E-02  2.01381E-02  2.21562E-02
   2.38502E-02  2.51203E-02  2.59166E-02  2.61988E-02  2.59382E-02  2.51307E-02  2.38176E-02  2.20608E-02  1.99531E-02  1.75811E-02
   1.50081E-02  1.22793E-02  9.45336E-03  6.60508E-03  3.81439E-03  1.14519E-03 -1.37432E-03 -3.73785E-03 -5.92790E-03 -7.92275E-03
  -9.69415E-03 -1.12122E-02 -1.24485E-02 -1.33839E-02 -1.40091E-02 -1.43144E-02 -1.43073E-02 -1.40095E-02 -1.34442E-02 -1.26316E-02
  -1.16163E-02 -1.04671E-02 -9.25667E-03 -8.05454E-03 -6.90740E-03 -5.82962E-03 -4.83093E-03 -3.91539E-03 -3.10587E-03 -2.45410E-03
  -2.01081E-03 -1.79419E-03 -1.78516E-03 -1.96505E-03 -2.31955E-03 -2.83715E-03 -3.50354E-03 -4.29858E-03 -5.19842E-03 -6.17826E-03
  -7.22481E-03 -8.32444E-03 -9.45804E-03 -1.06123E-02 -1.17729E-02 -1.29188E-02 -1.40381E-02 -1.51335E-02 -1.62252E-02 -1.73473E-02
  -1.85371E-02 -1.98219E-02 -2.12239E-02 -2.27650E-02 -2.44893E-02 -2.64451E-02 -2.86835E-02 -3.12610E-02 -3.42283E-02 -3.76036E-02
  -4.13600E-02 -4.54221E-02 -4.97000E-02 -5.41153E-02 -5.85859E-02 -6.30113E-02 -6.72827E-02 -7.12792E-02 -7.48652E-02 -7.79133E-02
  -8.03401E-02 -8.21147E-02 -8.32380E-02 -8.37294E-02 -8.36291E-02 -8.29891E-02 -8.18916E-02 -8.04273E-02 -7.86770E-02 -7.66909E-02
  -7.44863E-02 -7.20721E-02 -6.94585E-02 -6.66934E-02 -6.38197E-02 -6.08530E-02 -5.78025E-02 -5.46951E-02 -5.15700E-02 -4.84663E-02
  -4.54055E-02 -4.24209E-02 -3.95515E-02 -3.68230E-02 -3.42449E-02 -3.18149E-02 -2.95392E-02 -2.74310E-02 -2.55047E-02 -2.37570E-02
  -2.21673E-02 -2.07288E-02 -1.94465E-02 -1.83168E-02 -1.73330E-02 -1.64796E-02 -1.57267E-02 -1.50372E-02 -1.43869E-02 -1.37659E-02
  -1.31480E-02 -1.25209E-02 -1.19019E-02 -1.13103E-02 -1.07663E-02 -1.02835E-02 -9.85171E-03 -9.46229E-03 -9.12252E-03 -8.84101E-03
  -8.61192E-03 -8.41178E-03 -8.21351E-03 -8.00707E-03 -7.79538E-03 -7.57776E-03 -7.36340E-03 -7.17738E-03 -7.04435E-03 -6.95236E-03
  -6.85684E-03 -6.72395E-03 -6.55136E-03 -6.36711E-03 -6.19552E-03 -6.04988E-03 -5.91333E-03 -5.74737E-03 -5.51206E-03 -5.18585E-03
  -4.78452E-03 -4.33946E-03 -3.85612E-03 -3.32879E-03 -2.74356E-03 -2.10769E-03 -1.43220E-03 -7.38039E-04 -5.94404E-05  5.78044E-04
   1.17286E-03  1.74317E-03  2.32482E-03  2.93593E-03  3.58577E-03  4.28637E-03  5.03506E-03  5.83283E-03  6.68718E-03  7.61282E-03
   8.62402E-03  9.70698E-03  1.08200E-02  1.19047E-02  1.29308E-02  1.39086E-02  1.48800E-02  1.58893E-02  1.69461E-02  1.80256E-02
   1.90859E-02  2.01304E-02  2.12193E-02  2.24022E-02  2.36843E-02  2.50539E-02  2.64974E-02  2.80217E-02  2.96440E-02  3.13631E-02
   3.31726E-02  3.50829E-02  3.71141E-02  3.92991E-02  4.16661E-02  4.42398E-02  4.70137E-02  4.99701E-02  5.30940E-02  5.63814E-02
   5.98412E-02  6.34967E-02  6.73840E-02  7.15309E-02
 NY background values follow
     2.743E-02    2.723E-02    2.703E-02    2.683E-02    2.663E-02    2.643E-02    2.624E-02    2.604E-02    2.584E-02    2.564E-02
     2.544E-02    2.524E-02    2.505E-02    2.485E-02    2.465E-02    2.445E-02    2.425E-02    2.405E-02    2.386E-02    2.366E-02
     2.346E-02    2.326E-02    2.306E-02    2.286E-02    2.267E-02    2.247E-02    2.227E-02    2.207E-02    2.187E-02    2.167E-02
     2.147E-02    2.128E-02    2.108E-02    2.088E-02    2.068E-02    2.048E-02    2.028E-02    2.009E-02    1.989E-02    1.969E-02
     1.949E-02    1.929E-02    1.909E-02    1.890E-02    1.870E-02    1.850E-02    1.830E-02    1.810E-02    1.790E-02    1.771E-02
     1.751E-02    1.731E-02    1.711E-02    1.691E-02    1.671E-02    1.651E-02    1.632E-02    1.612E-02    1.592E-02    1.572E-02
     1.552E-02    1.532E-02    1.513E-02    1.493E-02    1.473E-02    1.453E-02    1.433E-02    1.413E-02    1.394E-02    1.374E-02
