 
 $NMID
 ID=''
 FMTDAT='(2E13.5)'
 TRAMP=   1.00000E+0
 VOLUME=   1.00000E+0
 $END
   1.37617E+1  -4.55428E+2
   3.97646E+2   9.87697E+2
  -2.54513E+2  -2.30267E+3
   7.82255E+1   3.18130E+2
  -9.00187E+2   9.97574E+1
  -1.02054E+2  -3.04833E+2
   1.08773E+2   2.61442E+3
  -1.31396E+3   3.93192E+2
  -2.37070E+2   2.51990E+2
  -3.75750E+2   3.66154E+2
   1.12377E+3  -2.96786E+3
   2.64826E+3  -2.14144E+3
   1.22310E+3   1.54035E+3
  -7.64253E+2   3.12870E+3
  -3.65796E+3   2.03622E+3
  -3.08190E+3  -1.71082E+3
   1.03946E+3  -6.64539E+2
   6.58021E+2  -5.32252E+1
  -1.19624E+1   8.29648E+2
  -2.10176E+2   5.51177E+2
   2.26173E+3  -1.94794E+3
   2.44760E+3   2.19715E+3
  -1.17755E+3   4.08581E+3
  -2.03253E+3  -4.99951E+2
  -5.75900E+2  -2.87022E+3
   2.71252E+3  -6.13976E+2
  -2.13520E+2   1.00511E+2
  -1.66055E+3  -5.48640E+2
  -2.66519E+3  -2.86415E+3
   2.74702E+3  -4.28911E+3
   5.44476E+3   4.28386E+2
   3.41249E+3   4.72890E+3
  -2.98149E+3   2.79065E+3
  -2.31852E+3  -1.22571E+3
   4.14619E+2  -7.66157E+2
  -4.31716E+3   1.98455E+3
  -1.94509E+3  -2.96700E+3
   1.80657E+3  -4.93132E+3
   2.54382E+3  -1.36195E+3
   1.48864E+3  -6.81569E+2
   2.54756E+3   2.53139E+3
   4.29016E+2   2.40685E+3
  -2.39685E+3  -3.16933E+2
  -1.99019E+3  -1.88725E+3
   9.36310E+2  -1.17445E+3
  -3.94534E+2   1.33487E+3
   2.14803E+2   1.87936E+3
  -8.84246E+2   3.33221E+3
   1.01919E+3   4.25119E+3
  -1.57888E+2   6.82833E+2
  -4.25406E+3  -1.05561E+3
  -1.02175E+3  -6.88429E+2
  -8.99345E+2  -5.08603E+3
   2.24688E+3  -1.95373E+3
  -5.06450E+2   1.19496E+3
   5.61697E+2   7.35964E+2
   1.39526E+3   1.72202E+3
  -2.24707E+3   2.09916E+3
  -7.83659E+2  -5.57274E+2
  -2.16133E+3  -2.41133E+3
   1.03188E+2  -2.96299E+3
   2.27982E+3  -1.34046E+3
   2.04434E+3  -9.94699E+2
   1.60672E+3   7.50029E+2
   4.91981E+0   2.07406E+3
   2.97350E+3   4.59412E+2
   1.71149E+3   1.99023E+3
  -2.90985E+3   4.21661E+3
  -2.27431E+3  -1.96187E+2
   3.39688E+2   8.87008E+2
  -1.22734E+3   7.31986E+2
  -3.64780E+2   8.73960E+1
  -3.74188E+2  -7.25588E+2
  -2.75680E+3   1.12205E+2
   1.45037E+3  -2.06323E+2
   6.27302E+2  -1.79357E+3
   7.10405E+2  -2.32240E+3
   3.24615E+2  -1.23173E+3
   3.46953E+3   1.89796E+2
   1.02965E+3   1.49058E+2
   2.33029E+3   4.40675E+2
   1.15244E+3   2.99028E+2
   3.56855E+1  -3.41233E+2
   8.26614E+1  -4.48177E+2
  -2.36870E+3   5.36217E+2
  -1.24549E+3  -4.59840E+1
  -2.76531E+3  -2.31282E+3
  -5.61184E+2   3.56565E+2
  -1.42663E+2  -2.01420E+3
   5.43330E+2   2.42078E+3
  -1.65009E+3  -4.17560E+2
   7.82905E+1  -7.04159E+2
   1.11179E+3   9.99134E+2
  -7.84658E+1   2.10459E+3
  -7.12841E+2   1.95840E+3
  -7.25042E+2  -7.20142E+2
  -3.18768E+2  -1.19845E+3
   8.36029E+2  -1.53329E+3
   1.80031E+3   6.31323E+2
  -1.37287E+3   2.00139E+3
  -6.61143E+2  -7.68266E+2
   6.13860E+2  -1.24292E+2
   1.36431E+3  -1.93201E+3
  -1.68416E+3   7.58174E+1
   1.40905E+3   1.11361E+3
  -2.02984E+2   3.83198E+2
  -2.41344E+1  -4.90606E+2
   6.45505E+2   3.78743E+2
  -1.97318E+3   5.93571E+2
   2.39030E+1   4.24897E+2
  -7.01525E+2  -2.40108E+3
   1.23500E+3   1.28756E+2
   1.59857E+3  -2.31967E+2
   1.83898E+2  -2.16944E+2
   1.62030E+3  -1.71797E+2
   1.26630E+3  -8.49338E+2
  -6.56929E+2  -9.43545E+2
  -1.65818E+3   9.46915E+2
   2.24948E+3   1.04443E+3
   2.01788E+3  -5.94223E+2
   1.50658E+3  -1.69971E+2
   5.32031E+2   3.67232E+2
  -7.59566E+2   6.58538E+2
  -9.29272E+2   1.59365E+2
   1.02849E+3  -5.01895E+2
   4.62136E+2   1.02812E+3
  -2.96976E+3   6.59510E+2
  -6.44464E+2  -6.34590E+2
  -2.91497E+2  -2.63079E+1
  -1.25558E+3   1.95409E+3
   4.44998E+2  -7.02904E+2
  -2.69189E+2  -7.40242E+1
   1.36510E+2   1.58559E+3
  -1.59904E+3   9.25061E+1
  -8.40461E+2   2.03963E+3
  -2.39655E+1  -3.94225E+2
   1.00757E+3  -7.84397E+1
  -1.93030E+3  -9.09275E+2
  -5.82053E+2  -1.21399E+3
   6.10780E+2   8.17559E+1
   1.71823E+2  -1.93255E+3
  -2.05973E+3  -2.03618E+3
  -1.71609E+2  -1.55051E+3
   6.65649E+2   6.77252E+2
  -5.09568E+2  -3.55978E+2
  -1.83140E+3   1.51491E+3
   1.67393E+2   2.49569E+1
  -7.49501E+2  -8.93893E+2
  -7.20476E+2   5.10002E+2
  -3.26677E+3  -9.74443E+2
  -1.10560E+3  -2.05893E+2
   1.24017E+3  -2.51273E+3
   2.97473E+2   1.19745E+3
   1.99103E+3  -1.37434E+3
  -5.72395E+1   9.32350E+2
  -6.71797E+1  -1.18291E+3
   1.01271E+2   1.00476E+3
   2.74664E+2   1.04374E+3
   7.06729E+2   2.26315E+3
  -2.17756E+2   3.79682E+2
  -3.01776E+1  -1.20225E+3
  -1.29267E+3  -2.71739E+2
  -2.57649E+1  -6.28957E+2
  -1.92620E+3  -1.63663E+2
  -3.37807E+2  -3.75540E+2
   1.07955E+2   3.84897E+2
  -4.98941E+2   6.10231E+2
   3.36764E+2   6.77369E+2
   1.07573E+3  -5.70864E+2
  -4.76512E+2   7.35719E+2
   1.15223E+3  -1.58822E+3
  -9.71882E+2  -4.99504E+2
   8.04742E+1   1.31930E+3
   3.55622E+2  -2.43015E+1
   9.56448E+2  -2.37434E+2
   1.97007E+3   1.28223E+3
   3.56637E+2   2.68375E+2
  -1.54553E+3   9.90940E+2
   7.38345E+2   5.50884E+2
  -1.79716E+3  -1.66615E+2
  -6.34058E+2   7.52485E+2
  -9.48879E+1   5.84600E+2
   1.13027E+3   6.80301E+2
  -5.61178E+2   1.47702E+2
   6.76654E+2  -1.49038E+3
   3.47291E+2  -1.24852E+3
  -5.75624E+2  -1.82635E+3
   5.79452E+2  -2.46452E+3
  -1.70075E+2   4.86666E+2
   2.33791E+3  -5.52387E+2
   7.17417E+2   3.82063E+2
  -1.30474E+3  -1.42100E+3
  -2.81808E+1  -1.30963E+3
  -4.49362E+2   2.54576E+2
   1.16578E+3  -5.50413E+2
  -1.25795E-1  -9.52133E+2
   4.81757E+2  -9.00751E+2
   3.60522E+1  -5.86476E+2
   6.34360E+2  -7.17825E+2
  -1.59441E+2  -6.91120E+2
  -3.16078E+2   1.53126E+3
   1.59390E+3   1.65288E+2
   2.65533E+3   4.07131E+2
   7.85516E+2  -6.13420E+2
   3.72959E+2   1.01244E+3
   6.57858E+2   6.69404E+2
  -3.61764E+2   8.94444E+2
   9.19955E+2   2.54375E+2
  -1.28507E+3   3.43430E+2
  -1.19864E+3   2.68257E+2
   3.15642E+1  -3.65325E+3
  -2.03560E+1   8.34962E+2
   1.06855E+3   1.37780E+3
  -6.27662E+2   9.15624E+2
  -1.31673E+3  -2.77422E+2
  -1.29930E+3  -1.01663E+3
  -2.90914E+3   1.12117E+3
   9.18155E+2   9.51299E+2
   4.66437E+1   1.36461E+3
   2.81243E+2   1.91880E+2
   8.58607E+2   3.92123E+2
  -1.53607E+2   9.69075E+2
  -8.24826E+1   3.59942E+2
  -1.98027E+3   5.97692E+2
   6.22440E+2   1.35302E+3
  -7.69903E+1   2.37699E+2
  -2.68049E+3  -1.07139E+2
   6.58006E+2  -5.38733E+2
  -2.18849E+2  -6.29370E+2
  -5.66158E+2  -1.58130E+3
  -5.06710E+2  -1.25218E+3
  -2.85501E+2   7.09013E+2
  -9.37145E+1  -1.37493E+3
  -3.25854E+2   3.87169E+2
  -9.65084E+2   1.84079E+2
   5.56724E+2  -1.02153E+3
   6.26665E+2  -3.86127E+2
  -7.40174E+2   4.16144E+2
  -2.29630E+3   8.98710E+2
  -5.89023E+2   3.68746E+2
  -7.62340E+2   4.71920E+2
  -7.75478E+2   1.14390E+3
  -2.39896E+2   9.49559E+2
   6.60424E+2  -2.38543E+1
   1.94879E+2  -5.11067E+2
  -1.76860E+3  -4.73630E+2
   9.72269E+2   1.14374E+3
   2.36509E+3   1.63348E+3
  -2.13915E+2   6.07815E+2
   1.27701E+2   3.87555E+1
   5.72261E+2  -8.55928E+2
   7.29070E+1  -1.41382E+3
   7.23860E+2   9.19654E+2
  -1.49178E+2   3.56511E+3
   1.29010E+3  -8.08566E+2
   5.49564E+2   2.41118E+3
  -4.63517E+2   1.14125E+2
   1.63879E+1   9.33562E+2
   8.05035E+2  -1.09227E+1
  -1.49845E+2   5.03644E+2
  -2.31451E+2  -2.84596E+2
   1.03197E+3   2.22240E+2
  -6.86354E+2   1.11195E+3
  -8.35677E+2   4.12526E+1
   1.20891E+3   1.17759E+3
  -1.65666E+3  -3.06600E+2
   1.69771E+2   1.13802E+3
  -5.89010E+2  -9.95909E+2
   3.45369E+2  -8.46491E+2
   2.29683E+3  -6.40594E+2
  -7.27306E+2   1.08749E+2
  -3.53402E+2  -2.59075E+2
   4.67102E+1  -1.31547E+3
  -2.15900E+3   2.63602E+2
  -5.49989E+2  -7.68167E+1
   1.07741E+3   2.04498E+3
  -8.94423E+2   9.23304E+2
   4.87342E+2   1.12210E+3
  -5.49354E+2  -4.25405E+2
   5.63399E+2   1.06092E+3
  -3.91302E+1  -1.98085E+2
  -5.75725E+1  -1.60720E+2
  -5.36757E+2   8.21385E+2
   5.69144E+2   1.30833E+3
  -3.76103E+2  -1.94428E+2
  -1.32024E+3  -8.33126E+2
   6.26161E+2   1.19819E+3
   6.77804E+2   4.06940E+2
   2.49094E+2  -1.28167E+3
   1.29441E+2   9.08633E+2
   8.92149E+2   1.43920E+2
  -5.55616E+2  -1.15613E+3
   1.17912E+2   6.24810E+2
   3.53853E+2  -1.12752E+3
   2.04234E+3  -1.10665E+3
  -1.16028E+3   1.48045E+2
  -2.03151E+2  -9.10107E+2
  -2.38460E+2   4.20811E+2
  -1.44369E+3   5.29269E+2
  -4.88740E+2  -1.37211E+2
   1.46671E+2   3.44431E+2
   5.65736E+2   5.85055E+2
  -1.35705E+3   9.53362E+1
  -1.88373E+2   7.05763E+2
   1.93251E+3  -2.25682E+2
   7.95975E+2   4.75727E+2
  -4.19496E+2   1.22562E+3
  -1.76918E+2  -2.83945E+2
   8.27355E+1  -5.76733E+2
  -3.32651E+2   1.68410E+3
  -1.36397E+3   1.25316E+3
  -1.23436E+3  -1.35805E+3
   4.55018E+2  -2.25609E+3
  -6.62968E+2  -1.61880E+3
   2.39768E+2  -7.66327E+2
   3.35697E+2  -1.94568E+3
  -3.52907E+1  -8.63970E+2
   1.41767E+3  -7.92831E+2
  -2.71738E+2   5.68426E+2
   4.94342E+2   1.96656E+3
  -6.33811E+2   1.61209E+2
  -3.31311E+2   1.98328E+2
   5.71676E+2   3.93298E+2
   1.05704E+2  -5.48223E+2
   2.43218E+3  -4.77966E+1
   2.21128E+3  -1.33231E+3
  -7.40037E+1  -9.81637E+2
  -1.75430E+2  -6.20900E+2
  -7.43951E+2  -1.61506E+3
   5.94221E+1  -2.30012E+3
   1.01231E+3   9.33279E+2
   2.97165E+2  -6.02573E+2
   6.91287E+2   4.21398E+2
  -1.11662E+3  -2.01582E+2
  -8.37602E+1  -5.09970E+2
   1.96469E+2   3.39807E+2
  -2.06894E+2   8.38165E+2
  -2.50302E+1   4.28404E+2
   1.10995E+3   7.18309E+2
  -1.36782E+2   1.93097E+3
  -5.55788E+2   1.62689E+1
   1.05945E+3   5.64172E+2
   8.14055E+2   1.69014E+3
  -8.48174E+2  -5.17768E+2
   6.95040E+2   2.24765E+3
   7.46299E+2   1.69667E+3
   3.85043E+2   6.89876E-1
  -7.51737E+2  -4.46297E+2
  -5.60164E+0  -4.46096E+1
   1.01946E+3   4.81669E+2
   4.06398E+1   6.70179E+2
   1.19445E+3  -1.44370E+3
  -4.48875E+2   2.00691E+3
  -7.80338E+2   1.20143E+2
  -1.63972E+2   4.59950E+2
  -2.54904E+2  -3.47844E+2
  -4.57169E+2  -7.81948E+2
  -4.63715E+1  -2.46598E+3
  -3.78315E+2   3.09188E+2
   9.42073E+2  -1.16191E+2
   2.17950E+2   3.88362E+2
   6.36051E+2  -1.51729E+3
  -1.90004E+3   1.95154E+3
   3.70281E+2  -5.04968E+2
  -6.20111E+2   9.67292E+2
  -1.34614E+3   1.58575E+2
   8.40352E+2  -2.67810E+2
