 
 $NMID
 ID=''
 FMTDAT='(2E13.5)'
 TRAMP=   1.00000E+0
 VOLUME=   1.00000E+0
 $END
  -8.70544E+3   1.78745E+4
  -3.42524E+4   3.79889E+4
  -2.67111E+4   4.33780E+4
  -2.41652E+4   4.00375E+4
  -2.60688E+4   4.07935E+4
  -2.41080E+4   4.18550E+4
  -2.34678E+4   4.00578E+4
  -2.46334E+4   4.01380E+4
  -2.34246E+4   4.09152E+4
  -2.30271E+4   3.98091E+4
  -2.36218E+4   3.99447E+4
  -2.25885E+4   4.05734E+4
  -2.20026E+4   4.00855E+4
  -2.24337E+4   4.01565E+4
  -2.15687E+4   4.05330E+4
  -2.09003E+4   4.00059E+4
  -2.10521E+4   3.99636E+4
  -2.02847E+4   4.01110E+4
  -1.95791E+4   3.97414E+4
  -1.97291E+4   3.96592E+4
  -1.90922E+4   3.96574E+4
  -1.83677E+4   3.92900E+4
  -1.83937E+4   3.93068E+4
  -1.79384E+4   3.91840E+4
  -1.73720E+4   3.87002E+4
  -1.71029E+4   3.85544E+4
  -1.67723E+4   3.86309E+4
  -1.63486E+4   3.82351E+4
  -1.62845E+4   3.80358E+4
  -1.58128E+4   3.80322E+4
  -1.53420E+4   3.77898E+4
  -1.50324E+4   3.78438E+4
  -1.49046E+4   3.78734E+4
  -1.45626E+4   3.76143E+4
  -1.43496E+4   3.75916E+4
  -1.39756E+4   3.77333E+4
  -1.36607E+4   3.74896E+4
  -1.32978E+4   3.74694E+4
  -1.29141E+4   3.75746E+4
  -1.25150E+4   3.74483E+4
  -1.23161E+4   3.74023E+4
  -1.21170E+4   3.73473E+4
  -1.18720E+4   3.70465E+4
  -1.15445E+4   3.69821E+4
  -1.10636E+4   3.69037E+4
  -1.08016E+4   3.68170E+4
  -1.05126E+4   3.67283E+4
  -1.01675E+4   3.66837E+4
  -9.82292E+3   3.66267E+4
  -9.53123E+3   3.65074E+4
  -9.22810E+3   3.64131E+4
  -8.88779E+3   3.63238E+4
  -8.49585E+3   3.61752E+4
  -8.15936E+3   3.61921E+4
  -7.88136E+3   3.61502E+4
  -7.63342E+3   3.60146E+4
  -7.35900E+3   3.59471E+4
  -7.11723E+3   3.58782E+4
  -6.98359E+3   3.57236E+4
  -6.65863E+3   3.55535E+4
  -6.40702E+3   3.54690E+4
  -6.09370E+3   3.53875E+4
  -5.85644E+3   3.52721E+4
  -5.66202E+3   3.51980E+4
  -5.38277E+3   3.50782E+4
  -5.15546E+3   3.49245E+4
  -4.89445E+3   3.49009E+4
  -4.63597E+3   3.47607E+4
  -4.47046E+3   3.45742E+4
  -4.20995E+3   3.44984E+4
  -3.96452E+3   3.43212E+4
  -3.73655E+3   3.42420E+4
  -3.49658E+3   3.41316E+4
  -3.31506E+3   3.39601E+4
  -3.06080E+3   3.38258E+4
  -2.80215E+3   3.36883E+4
  -2.58634E+3   3.35036E+4
  -2.39699E+3   3.33903E+4
  -2.18449E+3   3.32657E+4
  -1.94731E+3   3.30978E+4
  -1.70808E+3   3.29090E+4
  -1.52410E+3   3.28668E+4
  -1.28196E+3   3.26333E+4
  -9.94722E+2   3.24999E+4
  -8.98832E+2   3.22894E+4
  -6.88208E+2   3.21362E+4
  -4.72308E+2   3.19466E+4
  -3.51407E+2   3.16936E+4
   1.60975E+1   3.15559E+4
   2.17324E+2   3.14050E+4
   4.31860E+2   3.12664E+4
   6.48973E+2   3.10098E+4
   8.81463E+2   3.08529E+4
   1.10230E+3   3.06585E+4
   1.36733E+3   3.04776E+4
   1.51734E+3   3.01834E+4
   1.80850E+3   2.98837E+4
   2.10655E+3   2.97343E+4
   2.33039E+3   2.95683E+4
   2.49170E+3   2.93358E+4
   2.74147E+3   2.90786E+4
   2.95169E+3   2.88863E+4
   3.25384E+3   2.86211E+4
   3.50413E+3   2.85306E+4
   3.70900E+3   2.82904E+4
   3.93676E+3   2.80287E+4
   4.16864E+3   2.76792E+4
   4.33697E+3   2.75853E+4
   4.52012E+3   2.73636E+4
   4.78777E+3   2.70258E+4
   5.07096E+3   2.67794E+4
   5.36044E+3   2.65555E+4
   5.59950E+3   2.63969E+4
   5.75449E+3   2.61242E+4
   5.95932E+3   2.59014E+4
   6.15262E+3   2.56628E+4
   6.34084E+3   2.54378E+4
   6.47892E+3   2.51234E+4
   6.76307E+3   2.49547E+4
   6.95600E+3   2.47051E+4
   7.15332E+3   2.45377E+4
   7.35636E+3   2.42713E+4
   7.51120E+3   2.40728E+4
   7.67154E+3   2.38969E+4
   7.87638E+3   2.36231E+4
   8.08095E+3   2.34631E+4
   8.16685E+3   2.32281E+4
   8.35256E+3   2.29873E+4
   8.48325E+3   2.27979E+4
   8.64092E+3   2.25608E+4
   8.72825E+3   2.24040E+4
   8.94075E+3   2.22221E+4
   9.09839E+3   2.19683E+4
   9.18636E+3   2.16529E+4
   9.40312E+3   2.15202E+4
   9.47016E+3   2.13649E+4
   9.54077E+3   2.11559E+4
   9.69355E+3   2.08954E+4
   9.80269E+3   2.06679E+4
   9.93531E+3   2.04347E+4
   1.00932E+4   2.02226E+4
   1.01606E+4   2.00760E+4
   1.03017E+4   1.98369E+4
   1.04293E+4   1.96262E+4
   1.05071E+4   1.95267E+4
   1.05269E+4   1.92891E+4
   1.06476E+4   1.91057E+4
   1.07223E+4   1.88919E+4
   1.08781E+4   1.86371E+4
   1.09499E+4   1.85190E+4
   1.10228E+4   1.83788E+4
   1.10217E+4   1.81106E+4
   1.10566E+4   1.79303E+4
   1.11738E+4   1.77558E+4
   1.12631E+4   1.75832E+4
   1.13201E+4   1.72310E+4
   1.14153E+4   1.71763E+4
   1.13810E+4   1.70411E+4
   1.14667E+4   1.68067E+4
   1.14488E+4   1.65819E+4
   1.15361E+4   1.63776E+4
   1.15947E+4   1.62016E+4
   1.15840E+4   1.60386E+4
   1.16050E+4   1.57968E+4
   1.16569E+4   1.56584E+4
   1.16619E+4   1.54946E+4
   1.16885E+4   1.52919E+4
   1.17131E+4   1.51060E+4
   1.17308E+4   1.49061E+4
   1.17817E+4   1.47722E+4
   1.17621E+4   1.46111E+4
   1.17983E+4   1.44743E+4
   1.17731E+4   1.42938E+4
   1.18031E+4   1.40808E+4
   1.18028E+4   1.39146E+4
   1.17940E+4   1.37604E+4
   1.17370E+4   1.34893E+4
   1.17537E+4   1.34385E+4
   1.17746E+4   1.32447E+4
   1.17911E+4   1.31683E+4
   1.18720E+4   1.29689E+4
   1.16757E+4   1.27901E+4
   1.16551E+4   1.25930E+4
   1.17645E+4   1.24913E+4
   1.16471E+4   1.23322E+4
   1.16183E+4   1.22383E+4
   1.16294E+4   1.20155E+4
   1.16704E+4   1.19273E+4
   1.16068E+4   1.17850E+4
   1.15506E+4   1.16932E+4
   1.14913E+4   1.14918E+4
   1.14975E+4   1.13158E+4
   1.14312E+4   1.12289E+4
   1.14511E+4   1.10370E+4
   1.13549E+4   1.09268E+4
   1.13849E+4   1.07916E+4
   1.13771E+4   1.06527E+4
   1.13542E+4   1.04415E+4
   1.12255E+4   1.03669E+4
   1.11890E+4   1.02017E+4
   1.11938E+4   1.01497E+4
   1.11417E+4   1.00845E+4
   1.10642E+4   9.90841E+3
   1.10406E+4   9.77539E+3
   1.10198E+4   9.63862E+3
   1.09049E+4   9.49854E+3
   1.09304E+4   9.42673E+3
   1.08641E+4   9.36917E+3
   1.08031E+4   9.14873E+3
   1.08491E+4   9.06109E+3
   1.07541E+4   8.97181E+3
   1.06584E+4   8.84122E+3
   1.05834E+4   8.73211E+3
   1.05314E+4   8.56677E+3
   1.05500E+4   8.39499E+3
   1.05311E+4   8.33797E+3
   1.04737E+4   8.23816E+3
   1.04090E+4   8.17409E+3
   1.03735E+4   8.05155E+3
   1.02754E+4   7.95771E+3
   1.03068E+4   7.83594E+3
   1.02687E+4   7.72270E+3
   1.02318E+4   7.61884E+3
   1.01542E+4   7.54449E+3
   1.00668E+4   7.41787E+3
   1.00562E+4   7.31411E+3
   1.00758E+4   7.25823E+3
   1.00341E+4   7.12184E+3
   9.94779E+3   7.03848E+3
   9.93529E+3   6.90919E+3
   9.83849E+3   6.87388E+3
   9.84901E+3   6.80566E+3
   9.80552E+3   6.63549E+3
   9.75965E+3   6.56103E+3
   9.70917E+3   6.42198E+3
   9.70467E+3   6.34740E+3
   9.71556E+3   6.30322E+3
   9.69392E+3   6.18978E+3
   9.62912E+3   6.09541E+3
   9.57261E+3   6.02553E+3
   9.50598E+3   5.94379E+3
   9.43629E+3   5.89254E+3
   9.46181E+3   5.76388E+3
   9.37076E+3   5.72102E+3
   9.43038E+3   5.61188E+3
   9.39992E+3   5.61369E+3
   9.39964E+3   5.48266E+3
   9.30672E+3   5.37215E+3
   9.30138E+3   5.29752E+3
   9.27937E+3   5.23673E+3
   9.26933E+3   5.15860E+3
   9.17785E+3   5.14636E+3
   9.17935E+3   5.01059E+3
   9.15243E+3   4.95708E+3
   9.09638E+3   4.86837E+3
   9.06198E+3   4.81399E+3
   9.04678E+3   4.67130E+3
   9.06334E+3   4.58927E+3
   8.96790E+3   4.56467E+3
   8.95229E+3   4.52137E+3
   8.95850E+3   4.33507E+3
   8.80289E+3   4.34691E+3
   8.77626E+3   4.28633E+3
   8.86506E+3   4.17285E+3
   8.75180E+3   4.11550E+3
   8.73714E+3   4.04389E+3
   8.70608E+3   3.93944E+3
   8.67038E+3   3.90491E+3
   8.68837E+3   3.83629E+3
   8.63024E+3   3.79214E+3
   8.60023E+3   3.70361E+3
   8.62103E+3   3.58464E+3
   8.54694E+3   3.53826E+3
   8.54998E+3   3.49174E+3
   8.46351E+3   3.43378E+3
   8.46089E+3   3.35241E+3
   8.48266E+3   3.28792E+3
   8.39356E+3   3.23352E+3
   8.42598E+3   3.18773E+3
   8.37542E+3   3.07666E+3
   8.36714E+3   3.01948E+3
   8.34889E+3   2.91884E+3
   8.35045E+3   2.89413E+3
   8.25361E+3   2.79492E+3
   8.24402E+3   2.76061E+3
   8.22954E+3   2.74104E+3
   8.17224E+3   2.71696E+3
   8.14173E+3   2.58018E+3
   8.15579E+3   2.58717E+3
   8.08993E+3   2.47126E+3
   8.03726E+3   2.41047E+3
   8.02848E+3   2.36403E+3
   7.97410E+3   2.29927E+3
   8.00163E+3   2.17726E+3
   8.06453E+3   2.20113E+3
   7.94625E+3   2.12602E+3
   7.88224E+3   2.07569E+3
   7.88382E+3   1.96118E+3
   7.80783E+3   1.97285E+3
   7.85112E+3   1.90088E+3
   7.78503E+3   1.86776E+3
   7.75309E+3   1.81495E+3
   7.72591E+3   1.73807E+3
   7.71373E+3   1.66438E+3
   7.65953E+3   1.60772E+3
   7.60423E+3   1.54457E+3
   7.56655E+3   1.46704E+3
   7.57829E+3   1.41214E+3
   7.56661E+3   1.39251E+3
   7.52580E+3   1.29792E+3
   7.49693E+3   1.26032E+3
   7.45479E+3   1.22573E+3
   7.47244E+3   1.14155E+3
   7.44951E+3   1.11040E+3
   7.33877E+3   1.09592E+3
   7.32566E+3   9.65927E+2
   7.31720E+3   9.45400E+2
   7.21846E+3   8.31427E+2
   7.18922E+3   8.06265E+2
   7.15859E+3   7.89468E+2
   7.15986E+3   6.94541E+2
   7.07434E+3   6.27982E+2
   7.12448E+3   6.14159E+2
   7.10248E+3   6.20729E+2
   7.01520E+3   5.23009E+2
   6.93608E+3   4.95969E+2
   6.90080E+3   3.94566E+2
   6.88989E+3   3.78997E+2
   6.88178E+3   2.96729E+2
   6.81122E+3   1.91705E+2
   6.88239E+3   2.19305E+2
   6.81282E+3   1.76109E+2
   6.79327E+3   6.92422E+1
   6.68610E+3   6.29093E+1
   6.64422E+3  -9.47771E+1
   6.70579E+3  -2.64842E+1
   6.61179E+3  -1.16120E+2
   6.57666E+3  -1.48169E+2
   6.56795E+3  -1.57855E+2
   6.57364E+3  -2.10087E+2
   6.47192E+3  -2.61292E+2
   6.46945E+3  -2.84671E+2
   6.39183E+3  -3.78707E+2
   6.26773E+3  -3.60786E+2
   6.33361E+3  -4.70422E+2
   6.28625E+3  -5.19628E+2
   6.29281E+3  -5.14702E+2
   6.23567E+3  -5.78281E+2
   6.16740E+3  -7.14629E+2
   6.13735E+3  -6.58520E+2
   6.15770E+3  -7.15443E+2
   6.12273E+3  -8.17093E+2
   6.09723E+3  -8.12444E+2
   6.03054E+3  -8.08153E+2
   6.01696E+3  -8.97895E+2
   5.89605E+3  -8.84138E+2
   5.91410E+3  -9.72698E+2
   5.83688E+3  -1.00752E+3
   5.79597E+3  -1.07440E+3
   5.77535E+3  -1.11836E+3
   5.73966E+3  -1.09699E+3
   5.72898E+3  -1.10653E+3
   5.63589E+3  -1.20950E+3
   5.57336E+3  -1.20318E+3
   5.61779E+3  -1.33376E+3
   5.50012E+3  -1.30375E+3
   5.48674E+3  -1.25670E+3
