 
 $NMID
 ID=''
 FMTDAT='(2E13.5)'
 TRAMP=   1.00000E+0
 VOLUME=   1.00000E+0
 $END
   2.53235E+2   1.11057E+2
  -4.09204E+2   1.74227E+3
   2.49577E+3  -1.25754E+3
   2.15043E+3  -5.15258E+2
   1.61244E+3  -1.62308E+3
   1.81085E+3  -2.90870E+3
  -1.03080E+3  -1.57810E+3
  -3.47536E+3  -7.14776E+2
  -2.57169E+3  -7.69658E+2
  -1.25824E+3  -9.44288E+2
   1.50074E+3  -2.14191E+3
   4.05250E+3   2.19911E+3
   2.17512E+3   4.13795E+3
   2.87088E+2   3.55329E+3
  -2.23979E+3  -1.88777E+3
   1.17154E+3  -3.91123E+3
   1.40762E+3  -2.76220E+3
   3.39595E+3  -8.92686E+2
  -1.11908E+3   9.51621E+2
  -6.85024E+2   1.19600E+1
   1.16859E+3  -1.08051E+3
  -6.56248E+2   2.60625E+3
  -2.54380E+3   4.22568E+3
  -3.23671E+3  -1.91754E+3
   1.00826E+3  -1.62808E+3
   3.14313E+3   2.70957E+3
  -1.92221E+3   2.84784E+3
  -4.08752E+3  -1.64104E+3
  -6.09095E+1  -3.09550E+3
   4.14906E+3  -6.94628E+2
   3.90258E+3   4.82773E+3
  -4.56383E+3   6.05799E+3
  -5.89871E+3  -2.74820E+3
  -6.15355E+2  -2.91458E+3
  -1.55239E+3  -1.89492E+3
  -2.60171E+3  -3.11008E+3
   1.61970E+3  -3.33934E+3
   2.71399E+3   1.43088E+3
   9.36386E+2   4.02906E+3
   5.11609E+2   1.92160E+3
  -2.73831E+3  -7.04809E+2
  -3.76357E+3  -3.61191E+3
  -4.98393E+2  -6.07643E+3
   1.41791E+3  -5.95982E+3
   3.62500E+3  -1.87135E+3
   2.81485E+3  -2.91142E+3
   1.09196E+3  -1.02908E+3
  -1.36705E+3   4.68580E+2
  -2.96320E+3   2.23948E+3
  -5.60026E+2   2.92522E+2
  -2.74657E+3  -2.06861E+3
   1.24444E+3  -1.18546E+3
   3.81270E+3  -7.41761E+2
   4.27829E+3   4.04528E+3
   2.03903E+3   2.79003E+3
  -1.77631E+3   1.21022E+3
  -1.74700E+3   1.02609E+3
  -5.25019E+3  -1.32932E+3
  -5.13074E+2  -4.77861E+3
   2.67561E+3  -3.83726E+3
   6.99443E+3  -8.36849E+2
   2.94373E+3   1.81768E+3
   1.65416E+3   4.52100E+3
  -1.58396E+3   1.73720E+3
   3.34209E+3   1.31448E+3
   2.33045E+3   2.67044E+3
  -5.67876E+2   3.21717E+3
  -1.40780E+3   8.85635E+2
   6.04331E+2   5.71123E+2
   1.83346E+3   1.04578E+3
  -4.87425E+2   1.57520E+3
  -4.79851E+2   2.15501E+2
  -1.97072E+3   6.91330E+2
   1.50148E+3   9.58069E+2
   5.93385E+2   4.89614E+2
  -3.24584E+2   3.36278E+3
  -1.14345E+3   1.18484E+3
  -5.76194E+2  -7.17612E+2
  -5.36971E+2   1.02639E+3
  -8.29746E+2   2.30223E+3
  -1.17481E+3   3.73373E+2
  -6.60493E+1   5.73823E+1
  -2.39741E+3   2.90169E+3
  -3.90460E+3   3.28096E+3
  -3.08683E+3  -6.12173E+2
  -2.14977E+3  -2.78795E+3
   2.09575E+2  -3.05508E+3
   3.03937E+3  -1.17911E+3
   1.46291E+3  -3.34041E+2
   6.67269E+2   1.33222E+3
   8.57908E+2  -3.58058E+2
   5.85207E+2   1.69675E+3
   3.66718E+2   7.56140E+2
  -1.34930E+3   5.56074E+2
  -8.82072E+2  -1.29749E+3
   2.38301E+3  -2.99059E+3
   4.11224E+3  -4.85635E+2
   9.50157E+2   1.64710E+3
  -1.70323E+3   7.73124E+2
  -2.14575E+3  -2.27049E+3
   2.40015E+3  -2.22672E+3
   2.05716E+3   1.30818E+3
  -7.93897E+2   2.81684E+3
  -2.31959E+3   1.82276E+3
  -2.67868E+3   1.14366E+3
  -1.88787E+3  -8.09774E+2
  -3.92373E+2  -1.56692E+3
  -7.45874E+2  -2.08135E+3
   2.08078E+2  -2.93302E+3
   1.16303E+3  -2.14775E+3
   2.66901E+3  -1.15712E+3
   5.99885E+2   2.76953E+3
   5.47889E+2   8.68525E+2
   1.21467E+3   1.83645E+3
  -1.98699E+3   5.47389E+2
  -2.38241E+3  -1.33238E+3
  -5.25767E+2  -1.77295E+3
  -2.71604E+1  -3.89984E+2
   2.02523E+2  -1.40889E+3
   9.99507E+2   1.89713E+3
  -1.53415E+3   1.32681E+3
  -2.32015E+3  -1.72454E+2
   2.75581E+2  -1.84971E+3
   2.04605E+3  -3.18939E+2
   1.39088E+3   9.57519E+2
  -8.77783E+2   5.75684E+2
   1.89509E+3  -7.61834E+2
   1.80228E+3   2.15346E+3
  -1.60091E+3   8.34427E+2
  -1.48151E+3   3.01671E+2
  -2.23308E+2  -6.09201E+2
   2.42043E+3   1.08039E+3
   3.45808E+2   1.07802E+3
  -1.03357E+3   1.99637E+3
  -2.70173E+3  -7.61915E+2
  -2.80900E+2  -2.24191E+3
  -5.08817E+2  -1.37244E+3
   8.96887E+2  -1.53424E+3
   1.89784E+3  -1.32608E+3
  -1.37513E+3  -4.62370E+3
   1.71300E+3   3.00282E+2
   1.96550E+3  -1.52232E+3
   2.02932E+3   5.56084E+2
  -2.28226E+3   1.22286E+2
  -1.34957E+3  -2.17863E+3
   8.41132E+2  -1.64893E+3
   9.34170E+2  -1.52937E+2
  -1.81180E+3  -5.03134E+2
  -5.21833E+2  -1.44360E+3
   1.02408E+3   8.23344E+2
  -1.24472E+3  -2.73124E+3
   7.62411E+2  -2.30863E+3
   9.28961E+2  -1.73192E+3
   1.32705E+3  -2.28733E+3
  -6.98710E+2  -8.92650E+2
  -9.56267E+2  -4.01444E+2
  -4.99968E+2   1.50498E+3
  -1.27675E+2   1.15708E+3
   5.08530E+2  -7.83462E+1
  -8.78706E+2   5.93795E+2
  -1.66688E+3   1.94375E+3
  -2.15797E+2   1.67295E+3
  -1.58564E+2  -7.53962E+2
   1.01457E+2   9.48156E+2
  -2.99283E+2   6.13695E+2
  -6.17769E+2  -1.12608E+3
   1.27655E+3  -9.77213E+2
   5.18988E+2   4.89004E+2
   6.42794E+2   4.76659E+1
  -1.76479E+3  -2.77089E+2
  -2.65398E+3  -9.37494E+2
  -1.56553E+3  -1.79504E+3
  -1.08626E+3  -7.91418E+2
   1.37811E+3  -7.99387E+2
   2.35964E+3  -9.66921E+2
   3.24830E+1  -6.98227E+2
   2.21204E+2  -7.74162E+1
  -6.38939E+2   1.94688E+3
  -1.77238E+3   2.17884E+2
   3.56705E+1  -2.49170E+3
  -8.76248E+2  -8.12012E+2
  -4.64760E+2  -4.74251E+2
   5.39247E+2  -7.82875E+2
   7.65180E+1   3.26634E+2
   1.71966E+3   3.27154E+2
  -1.39493E+3   1.75206E+3
  -4.31214E+2  -2.07890E+3
  -8.38425E+0  -1.08375E+3
  -2.55428E+2  -1.52423E+3
  -9.50279E+1   6.25986E+2
   1.59647E+3   2.02419E+3
  -1.13129E+3   1.30227E+3
  -1.12319E+3  -1.22111E+3
  -8.35634E+2   1.13107E+2
  -1.13558E+3  -3.63059E+1
   2.43843E+0   2.08070E+3
   1.70705E+2   1.45783E+3
   2.45791E+2   5.02585E+2
   6.49015E+2   3.94210E+1
  -1.95063E+3   6.82751E+2
  -3.22332E+3  -4.68411E+2
  -2.41199E+3  -9.28019E+2
   9.43035E+2  -2.45230E+3
   8.46159E+2   1.97905E+3
   2.00063E+3   5.64594E+2
  -7.20294E+2   8.38538E+2
   1.70086E+3   2.89465E+3
   5.65706E+2   1.17956E+3
  -1.39792E+3   5.88191E+2
  -1.73795E+3   6.03420E+2
  -1.10201E+3  -1.42925E+3
   1.29461E+3  -7.06545E+2
   3.33415E+3   1.51641E+3
   4.85463E+2   2.01663E+3
  -1.28632E+3   1.58098E+3
   1.07805E+3   2.21429E+3
   4.09498E+2   1.27310E+1
  -3.21701E+2  -2.20358E+2
   4.44202E+2  -7.48199E+2
  -7.99115E+2  -1.17978E+3
   2.21742E+3  -5.06229E+2
  -1.39437E+3   1.23017E+3
  -7.11785E+2  -3.72710E+2
  -2.20378E+3   2.32849E+2
  -1.14610E+3   2.80166E+1
   1.13151E+3   1.30390E+3
   1.45071E+3   1.25052E+3
  -7.58402E+2  -9.29057E+1
  -5.05083E+2   1.80110E+2
   5.11009E+2  -5.53676E+2
  -1.82380E+2  -2.77597E+2
  -9.57870E+2   1.02868E+3
   8.04425E+2  -1.64901E+3
  -1.59782E+2  -4.56378E+2
   2.07179E+3   5.63531E+2
   1.40014E+3   2.10730E+3
  -1.92970E+3  -5.38939E+2
   1.13914E+3   7.48408E+2
   1.42374E+3   7.01330E+2
   2.59614E+3  -2.52169E+2
   1.57753E+3   8.16622E+2
  -1.75519E+3   2.65632E+2
   1.25426E+2  -8.98200E+2
  -9.68819E+0  -1.06782E+3
   1.49201E+3   1.66140E+3
   5.55566E+2   9.65936E+2
   6.76639E+2   5.10804E+2
   1.96029E+3  -1.36460E+3
   2.72727E+3   1.42397E+3
  -1.48257E+3   1.91325E+2
  -1.33064E+3  -6.95207E+2
  -2.57129E+2  -1.62387E+3
  -4.24758E+1  -6.08495E+2
   7.80622E+2  -9.93280E+2
   3.16738E+2  -7.51698E+2
  -7.31749E+1   7.15225E+2
   9.39934E+2   5.97322E+2
  -1.35938E+3   1.58740E+3
   2.42067E+2  -5.93538E+2
  -8.55143E+2  -1.14117E+3
   2.74267E+3  -7.29194E+2
  -8.22724E+2  -1.62225E+3
   1.41199E+3   4.83736E+2
  -3.60842E+2   2.83553E+2
   2.53102E+2   5.11027E+2
   1.29700E+3  -3.73228E+2
  -3.15509E+2   3.00872E+2
  -7.51344E+2  -6.91005E+2
   2.56341E+2  -9.51120E+2
   1.23497E+3   1.15206E+3
  -6.04558E+2   1.15781E+3
   9.18752E+1  -6.78366E+1
  -1.54306E+2   3.85604E+2
  -1.30301E+3  -9.07372E+2
   5.76664E+2  -7.30751E+2
   9.94739E+2   1.01596E+2
  -1.23894E+3  -2.67091E+1
  -1.43769E+2  -4.73909E+2
   2.32638E+2  -1.02948E+3
  -1.86070E+2   2.53366E+3
  -5.67000E+2   1.62882E+3
  -1.86061E+3   7.95274E+2
  -2.16650E+3  -1.43327E+3
   6.82590E+2  -2.15736E+3
   8.21991E+2   9.23869E+2
  -1.10613E+3   6.36598E+2
   2.83004E+2   6.36152E+2
   2.44401E+2  -1.21445E+3
  -1.40409E+3   1.46254E+3
   4.56606E+2   1.52954E+2
  -6.42808E+2   1.98824E+2
   9.74732E+2  -9.04264E+2
  -1.50344E+3  -7.47578E+2
  -1.51953E+3   1.30835E+3
   9.60598E+2  -5.69224E+2
  -1.65758E+3   3.69971E+2
  -2.97696E+2   3.16717E+0
  -3.16624E+2   1.91444E+2
   4.02847E+2   3.63751E+3
  -5.00523E+2   1.01924E+2
   2.52277E+3   8.10921E+2
   2.05013E+3   2.06037E+3
   8.41792E+0  -6.45196E+2
  -1.25109E+3   6.87244E+2
  -1.77314E+2  -1.39858E+3
   2.36994E+2   1.07734E+3
  -1.46306E+3  -2.01104E+2
   2.01182E+2   2.18094E+3
  -1.22910E+3   1.31983E+3
   1.02419E+2  -4.07365E+2
  -2.93044E+2  -8.35979E+2
  -7.47796E+2  -5.22772E+2
   1.03094E+3   1.28154E+3
   1.31207E+3   8.60654E+2
   7.54331E+2   1.51485E+3
   1.59118E+3  -2.42449E+2
   6.94858E+2  -8.81558E+1
  -5.84267E+2  -4.43594E+2
   1.96651E+3  -1.96105E+3
  -4.82928E+1   8.69722E+2
   1.27694E+3  -4.08599E+1
  -6.19190E+2   3.60926E+2
  -2.00646E+3  -1.13497E+3
   8.24885E+2   6.43550E+2
   2.41079E+2   7.90186E+2
  -3.82165E+2  -1.12489E+3
  -1.67557E+3  -6.06338E+2
  -7.59951E+2  -1.52749E+3
  -1.43745E+3   7.40099E+2
  -1.10940E+3   1.97896E+3
   2.84705E+2  -1.51607E+3
  -7.02909E+2   9.82786E+0
   1.05651E+3   2.56464E+1
  -3.02420E+2   9.32095E+2
   1.02097E+3   1.01437E+3
  -6.80042E+2   9.01918E+2
   1.00577E+3  -3.50077E+2
   3.44326E+1   1.78148E+3
   4.71234E+2   1.19046E+3
  -2.31152E+3   6.46848E+1
  -3.31759E+2  -2.18283E+2
  -8.11290E+1  -5.02565E+2
   4.61439E+2   2.01514E+3
  -1.32803E+3   1.37334E+2
   5.85299E+2   7.07118E+2
  -1.41091E+3  -8.58532E+2
  -4.66610E+2   1.78351E+3
  -1.18207E+3  -5.66678E+2
  -9.37296E+2   1.83239E+3
  -6.40010E+2   1.31238E+3
   6.67105E+2  -8.69929E+1
   2.06620E+3  -1.00151E+2
   1.20416E+2   8.03576E+2
   1.56514E+3  -3.44283E+1
   2.41775E+2  -9.39097E+1
  -2.04097E+2   8.45772E+2
  -9.23824E+2   6.47614E+1
  -1.18767E+3  -2.99818E+2
   3.31651E+2   6.31361E+1
   6.20256E+2   4.76385E+1
   1.38024E+2   5.09896E+2
   1.50261E+3   8.15467E+1
   1.30844E+3   8.62774E+2
  -1.02800E+3   2.49788E+1
   2.22514E+2   8.19059E+2
   9.99753E+0   1.82978E+2
  -1.20890E+2   2.32362E+1
