 LCModel (Version 6.3-1N) Copyright: S.W. Provencher.          Ref.: Magn. Reson. Med. 30:672-679 (1993).                
 Slice_N1@17_24  02-Jun-2023 14:36:41
 27 lines in following concentration table = NCONC+1
    Conc.  %SD /Cr+PCr  Metabolite                                         
 4.36E-07  90% 5.5E-05 Mac                                                 
 2.06E-02  69%   2.579 Cr                                                  
 4.33E-02  32%   5.421 PCr                                                 
 6.79E-02  15%   8.510 Ins                                                 
 7.14E-02  11%   8.944 NAA                                                 
 5.90E-02  16%   7.390 Tau                                                 
 8.38E-03  41%   1.050 PCho                                                
    0.000 999%   0.000 GPC                                                 
 8.30E-02  14%  10.408 Glu                                                 
 2.51E-02  32%   3.151 Gln                                                 
 1.41E-03 616%   0.177 Ala                                                 
 3.49E-02  43%   4.378 Asc                                                 
 7.04E-03  88%   0.882 Asp                                                 
 5.96E-03  59%   0.747 GABA                                                
 4.72E-03  82%   0.591 Glc                                                 
 5.36E-03  87%   0.672 GSH                                                 
    0.000 999%   0.000 Lac                                                 
    0.000 999%   0.000 NAAG                                                
 2.97E-02  44%   3.718 PE                                                  
 8.38E-03  41%   1.050 GPC+PCho                                            
 7.14E-02  11%   8.944 NAA+NAAG                                            
    0.108  13%  13.559 Glu+Gln                                             
 6.38E-02  12%   8.000 Cr+PCr                                              
 7.14E-02  11%   8.944 NAA+NAAG                                            
 6.38E-02  12%   8.000 Cr+PCr                                              
    0.108  13%  13.559 Glu+Gln                                             
   6 lines in following misc. output table
  FWHM = 0.035 ppm    S/N =   2                                            
  Data shift =-0.035 ppm                                                   
  Ph:  96 deg      17.0 deg/ppm                                            
  alphaB,S = 3.1E+01,   5.1E+01                                            
   18 spline knots.   Ns = 7(1)                                            
   2 inflections.     1 extrema                                            
  654 points on ppm-axis = NY
      4.000000     3.994181     3.988363     3.982544     3.976726     3.970907     3.965088     3.959270     3.953451     3.947633
      3.941814     3.935995     3.930177     3.924358     3.918540     3.912721     3.906902     3.901084     3.895265     3.889446
      3.883628     3.877809     3.871991     3.866172     3.860353     3.854535     3.848716     3.842898     3.837079     3.831260
      3.825442     3.819623     3.813805     3.807986     3.802167     3.796349     3.790530     3.784712     3.778893     3.773074
      3.767256     3.761437     3.755619     3.749800     3.743981     3.738163     3.732344     3.726526     3.720707     3.714888
      3.709070     3.703251     3.697433     3.691614     3.685795     3.679977     3.674158     3.668339     3.662521     3.656702
      3.650884     3.645065     3.639246     3.633428     3.627609     3.621791     3.615972     3.610153     3.604335     3.598516
      3.592698     3.586879     3.581060     3.575242     3.569423     3.563605     3.557786     3.551967     3.546149     3.540330
      3.534512     3.528693     3.522874     3.517056     3.511237     3.505419     3.499600     3.493781     3.487963     3.482144
      3.476326     3.470507     3.464688     3.458870     3.453051     3.447232     3.441414     3.435595     3.429777     3.423958
      3.418139     3.412321     3.406502     3.400684     3.394865     3.389046     3.383228     3.377409     3.371591     3.365772
      3.359953     3.354135     3.348316     3.342498     3.336679     3.330860     3.325042     3.319223     3.313405     3.307586
      3.301767     3.295949     3.290130     3.284312     3.278493     3.272674     3.266856     3.261037     3.255219     3.249400
      3.243581     3.237763     3.231944     3.226125     3.220307     3.214488     3.208670     3.202851     3.197032     3.191214
      3.185395     3.179577     3.173758     3.167939     3.162121     3.156302     3.150484     3.144665     3.138846     3.133028
      3.127209     3.121391     3.115572     3.109753     3.103935     3.098116     3.092298     3.086479     3.080660     3.074842
      3.069023     3.063205     3.057386     3.051567     3.045749     3.039930     3.034111     3.028293     3.022474     3.016656
      3.010837     3.005018     2.999200     2.993381     2.987563     2.981744     2.975925     2.970107     2.964288     2.958470
      2.952651     2.946832     2.941014     2.935195     2.929377     2.923558     2.917739     2.911921     2.906102     2.900284
      2.894465     2.888646     2.882828     2.877009     2.871191     2.865372     2.859553     2.853735     2.847916     2.842098
      2.836279     2.830460     2.824642     2.818823     2.813004     2.807186     2.801367     2.795549     2.789730     2.783911
      2.778093     2.772274     2.766456     2.760637     2.754818     2.749000     2.743181     2.737363     2.731544     2.725725
      2.719907     2.714088     2.708270     2.702451     2.696632     2.690814     2.684995     2.679177     2.673358     2.667539
      2.661721     2.655902     2.650084     2.644265     2.638446     2.632628     2.626809     2.620991     2.615172     2.609353
      2.603535     2.597716     2.591897     2.586079     2.580260     2.574442     2.568623     2.562804     2.556986     2.551167
      2.545349     2.539530     2.533711     2.527893     2.522074     2.516256     2.510437     2.504618     2.498800     2.492981
      2.487163     2.481344     2.475525     2.469707     2.463888     2.458070     2.452251     2.446432     2.440614     2.434795
      2.428977     2.423158     2.417339     2.411521     2.405702     2.399884     2.394065     2.388246     2.382428     2.376609
      2.370790     2.364972     2.359153     2.353335     2.347516     2.341697     2.335879     2.330060     2.324242     2.318423
      2.312604     2.306786     2.300967     2.295149     2.289330     2.283511     2.277693     2.271874     2.266056     2.260237
      2.254418     2.248600     2.242781     2.236963     2.231144     2.225325     2.219507     2.213688     2.207870     2.202051
      2.196232     2.190414     2.184595     2.178777     2.172958     2.167139     2.161321     2.155502     2.149683     2.143865
      2.138046     2.132228     2.126409     2.120590     2.114772     2.108953     2.103135     2.097316     2.091497     2.085679
      2.079860     2.074042     2.068223     2.062404     2.056586     2.050767     2.044949     2.039130     2.033311     2.027493
      2.021674     2.015856     2.010037     2.004218     1.998400     1.992581     1.986763     1.980944     1.975126     1.969307
      1.963489     1.957670     1.951852     1.946033     1.940215     1.934397     1.928578     1.922760     1.916941     1.911123
      1.905304     1.899486     1.893667     1.887849     1.882030     1.876212     1.870393     1.864575     1.858756     1.852938
      1.847119     1.841301     1.835482     1.829664     1.823845     1.818027     1.812208     1.806390     1.800571     1.794753
      1.788934     1.783116     1.777297     1.771479     1.765660     1.759842     1.754023     1.748205     1.742386     1.736568
      1.730749     1.724931     1.719113     1.713294     1.707476     1.701657     1.695839     1.690020     1.684202     1.678383
      1.672565     1.666746     1.660928     1.655109     1.649291     1.643472     1.637654     1.631835     1.626017     1.620198
      1.614380     1.608561     1.602743     1.596924     1.591106     1.585287     1.579469     1.573650     1.567832     1.562013
      1.556195     1.550376     1.544558     1.538739     1.532921     1.527102     1.521284     1.515465     1.509647     1.503829
      1.498010     1.492192     1.486373     1.480555     1.474736     1.468918     1.463099     1.457281     1.451462     1.445644
      1.439825     1.434007     1.428188     1.422370     1.416551     1.410733     1.404914     1.399096     1.393277     1.387459
      1.381640     1.375822     1.370003     1.364185     1.358366     1.352548     1.346729     1.340911     1.335092     1.329274
      1.323455     1.317637     1.311818     1.306000     1.300182     1.294363     1.288545     1.282726     1.276908     1.271089
      1.265271     1.259452     1.253634     1.247815     1.241997     1.236178     1.230360     1.224541     1.218723     1.212904
      1.207086     1.201267     1.195449     1.189630     1.183812     1.177993     1.172175     1.166356     1.160538     1.154719
      1.148901     1.143082     1.137264     1.131445     1.125627     1.119808     1.113990     1.108171     1.102353     1.096534
      1.090716     1.084898     1.079079     1.073261     1.067442     1.061624     1.055805     1.049987     1.044168     1.038350
      1.032531     1.026713     1.020894     1.015076     1.009257     1.003439     0.997620     0.991802     0.985983     0.980165
      0.974346     0.968528     0.962709     0.956891     0.951072     0.945254     0.939435     0.933617     0.927798     0.921980
      0.916161     0.910343     0.904524     0.898706     0.892887     0.887069     0.881251     0.875432     0.869614     0.863795
      0.857977     0.852158     0.846340     0.840521     0.834703     0.828884     0.823066     0.817247     0.811429     0.805610
      0.799792     0.793973     0.788155     0.782336     0.776518     0.770699     0.764881     0.759062     0.753244     0.747425
      0.741607     0.735788     0.729970     0.724151     0.718333     0.712514     0.706696     0.700877     0.695059     0.689240
      0.683422     0.677603     0.671785     0.665967     0.660148     0.654330     0.648511     0.642693     0.636874     0.631056
      0.625237     0.619419     0.613600     0.607782     0.601963     0.596145     0.590326     0.584508     0.578689     0.572871
      0.567052     0.561234     0.555415     0.549597     0.543778     0.537960     0.532141     0.526323     0.520504     0.514686
      0.508867     0.503049     0.497230     0.491412     0.485593     0.479775     0.473956     0.468138     0.462319     0.456501
      0.450682     0.444864     0.439045     0.433227     0.427408     0.421590     0.415771     0.409953     0.404134     0.398316
      0.392497     0.386679     0.380860     0.375042     0.369223     0.363405     0.357586     0.351767     0.345949     0.340130
      0.334312     0.328493     0.322675     0.316856     0.311038     0.305219     0.299401     0.293582     0.287764     0.281945
      0.276127     0.270308     0.264490     0.258671     0.252853     0.247034     0.241216     0.235397     0.229579     0.223760
      0.217942     0.212123     0.206305     0.200486
 NY phased data points follow
   9.63108E-02  4.54378E-01  3.02342E-01  1.61021E-01  1.82858E-01  3.07407E-01 -6.57256E-02  9.92130E-02  2.05619E-01  5.24194E-02
   2.63607E-01  2.27885E-01 -1.28801E-01  6.01228E-02 -1.77523E-01 -3.56074E-01 -1.09671E-01 -2.43413E-01  4.33114E-02  1.85097E-01
   7.10436E-03  1.73094E-01  1.35216E-01 -3.24138E-01 -3.31064E-01 -2.57634E-01 -1.67791E-01 -1.27670E-01 -6.81318E-02 -2.89847E-01
  -4.23345E-01 -3.12119E-02 -1.20986E-01  1.60104E-01  1.46207E-01 -2.01905E-02  5.04919E-02 -1.21820E-01 -1.46387E-01 -3.01414E-01
  -7.58346E-02  1.88474E-01  1.41764E-01  2.48355E-01  2.83000E-01  4.30025E-01  3.66439E-01  3.64618E-01  4.73679E-01  5.59218E-01
   5.87507E-01 -5.82309E-02 -3.03570E-03  1.06068E-01 -4.03720E-01 -3.55439E-01 -2.40061E-01 -5.45759E-01 -1.96582E-01  1.59206E-01
  -2.16107E-01 -1.07200E-01  1.85656E-02 -2.77680E-01 -6.55298E-01  1.17849E-01  1.65447E-02 -1.92959E-01  3.26349E-01  3.27999E-02
   4.85432E-01  2.25700E-01  2.60101E-02  6.74441E-04 -1.63773E-01 -2.79282E-01 -2.61118E-01  2.10154E-02 -3.89330E-01  1.07155E-03
  -1.20493E-01 -3.88672E-01 -8.05565E-02  2.36249E-02  2.01519E-01  2.29651E-01  1.73132E-01  2.20033E-02  2.11230E-01 -5.66492E-02
  -2.30946E-02  3.50820E-01  1.14802E-01  1.84050E-01 -1.22997E-01 -1.33780E-01  9.50567E-02 -5.65668E-02 -2.58069E-02 -1.66174E-01
  -2.24881E-01 -4.77173E-01 -2.43729E-01  2.72985E-01  2.09561E-01  4.85936E-01  6.01359E-01  2.71109E-02  2.71343E-01  6.99990E-01
   5.70797E-02  3.33373E-01  5.19633E-01  1.83148E-02  5.56624E-01  6.04215E-01  2.91113E-01  6.01035E-01  7.39156E-02  5.72407E-02
   6.02454E-01  1.92634E-01  2.37395E-01  1.90098E-01  1.13744E-02 -8.80541E-02 -3.74265E-02  9.17757E-02 -3.04320E-01 -3.54619E-01
  -3.65843E-01 -2.24723E-01 -3.86471E-01 -5.23204E-01 -3.48114E-01 -3.25911E-01 -4.22081E-01 -6.07420E-01 -2.62119E-01 -4.91985E-01
  -7.16849E-01 -3.05574E-01 -2.35519E-02  5.34765E-02  3.54111E-03  1.28955E-01  1.42672E-01  1.23157E-01  2.86240E-01  4.81222E-01
   8.88602E-02 -2.52008E-01 -6.60629E-02  1.69966E-01  1.14914E-01  1.27013E-01  3.13236E-01  3.77010E-01  5.39195E-01  2.65326E-01
   2.83402E-01  4.29640E-01  3.95213E-01  4.28794E-01  7.51931E-01  1.19524E+00  6.83328E-01  1.05547E-01 -8.83697E-02 -4.31994E-01
  -1.01004E+00 -6.71204E-01 -2.99280E-01 -4.43111E-01 -4.88824E-01 -6.57327E-01 -2.49722E-01 -2.83925E-01 -2.50702E-01 -3.51382E-02
  -3.97108E-01 -4.11678E-01 -2.99263E-01 -1.60464E-01 -1.70473E-01 -5.36556E-01 -7.02763E-01 -3.45522E-01 -2.12203E-01 -1.54236E-01
   2.27647E-02 -1.47363E-01  5.48196E-02  3.37166E-02 -1.65145E-01 -3.27680E-01 -5.11986E-01 -2.49453E-01 -3.90440E-01 -3.97493E-01
  -2.06795E-01 -2.03453E-01 -2.49756E-01 -1.64324E-01  1.73091E-01  6.36206E-02 -2.26852E-01  2.21520E-01  3.10015E-01  1.10776E-01
   2.11976E-02 -4.80659E-01 -3.13285E-01 -3.38149E-01 -1.68245E-01 -1.89652E-01 -3.04093E-02  2.55643E-03 -3.96639E-01  2.66867E-01
  -1.13914E-01  7.65398E-02  4.31859E-02 -1.74642E-01  2.09519E-01 -1.27481E-01  4.00367E-01  5.32708E-01  1.47229E-01  2.45793E-01
   6.16543E-01  4.97122E-01  2.43839E-03 -1.80686E-02  5.50742E-02  9.59765E-02  1.68604E-01  2.05939E-02  1.03388E-01 -1.36015E-01
  -2.77063E-01  1.76079E-01 -7.50485E-02 -7.33203E-02 -8.40391E-02 -3.22294E-01 -5.68092E-02  1.57772E-01 -8.79947E-02 -3.56757E-01
  -2.41095E-02  1.71236E-01 -6.01959E-02  1.30758E-01 -1.04406E-01 -5.03656E-01 -1.26151E-01 -1.06178E-01 -1.75232E-01 -1.90404E-01
  -7.34107E-02  1.33922E-02  2.09284E-02  9.01234E-02  1.40909E-01  3.45976E-01  2.32796E-01  2.56788E-02  1.96478E-01  4.76437E-01
   1.91887E-01  1.45234E-01  2.77933E-01  1.89449E-02 -4.06954E-01 -7.77501E-02  1.25445E-01 -3.54982E-01 -1.60302E-01 -4.73471E-01
  -3.37328E-01  1.01256E-01 -2.27056E-01 -1.65048E-01 -1.73374E-01  4.19019E-02  3.37206E-01  5.03216E-01  6.96413E-01  3.86387E-01
   3.21744E-01  2.92217E-01  3.36254E-01  4.20588E-01  1.64840E-01  1.23152E-01  2.25969E-01  3.51466E-01  1.86887E-01  3.10206E-01
  -4.82683E-02 -1.67193E-03  3.95752E-01  2.57455E-02  4.39526E-01  5.17292E-01  3.85402E-01  1.73178E-01  3.01630E-02  2.77158E-01
   9.16633E-02 -7.15673E-02  2.56244E-01  5.12720E-01  1.62286E-01  3.95710E-02 -2.25253E-02  2.09320E-01  1.47109E-02 -2.65907E-01
  -3.62465E-01 -4.37647E-01 -1.47761E-01 -4.72406E-01 -2.21835E-01 -1.74673E-01  8.36369E-02  3.00056E-01  2.58028E-02  9.14947E-02
   6.78675E-02  5.37534E-02 -3.37313E-01  2.08622E-01 -9.54922E-02 -3.88041E-01 -1.76234E-01 -3.01323E-01 -3.61791E-01 -6.54932E-01
  -1.61362E-01 -6.19997E-01 -9.55230E-01 -1.42154E+00 -9.88458E-01  1.28105E-01 -3.00245E-01 -1.64908E-01  2.96205E-01  6.91562E-02
   1.14699E-01  4.93806E-01 -1.15566E-01 -7.31363E-02  1.16877E-01  2.50946E-01  7.29922E-02 -1.89310E-01 -1.28502E-01 -3.97505E-01
   3.91273E-01  2.40511E-01 -2.10303E-02  2.09152E-01  1.17568E-01  4.25082E-02  6.58795E-02  2.87431E-01  3.73688E-01  5.11451E-02
  -4.78676E-01 -2.02821E-01 -1.07992E-01  2.62486E-01  1.78043E-01 -3.41297E-01 -4.34436E-02  8.62569E-02  1.19241E-01  1.18598E-01
   2.64733E-01  2.56304E-01  1.79367E-01  9.33062E-02  7.32086E-02  1.54215E-01 -3.96105E-02  1.93090E-01  2.12772E-01  4.80839E-02
  -1.16805E-01  3.08915E-02  2.49800E-01 -2.38539E-01  1.02072E-01  2.87479E-01  2.20941E-01  2.29016E-01 -2.05140E-01 -1.03715E-01
  -3.38512E-02 -9.08569E-02  1.03525E-01  1.14409E-01  9.22826E-02  8.34069E-02 -2.47559E-01 -2.52434E-01  9.85134E-02  2.92951E-01
  -1.15553E-01  2.57927E-03  1.16303E-01 -2.40100E-01  1.23563E-01  2.08984E-01 -9.85331E-02 -1.25430E-02  1.18524E-01 -3.30544E-01
  -1.65750E-01 -7.62060E-02 -1.53919E-01 -3.04630E-01 -1.44310E-01  9.57254E-02 -6.69322E-02  2.39602E-01 -1.63839E-01 -2.09287E-01
  -2.80649E-01 -2.32614E-02  1.85494E-01  2.36625E-01 -8.81384E-02 -9.48687E-02  5.32083E-01 -1.43920E-01  3.92570E-04 -1.67376E-01
  -1.76666E-01 -8.32662E-02 -1.88473E-03  2.58420E-01  8.36444E-02  2.59134E-01 -3.75436E-02  1.05186E-01  2.11403E-01 -2.49049E-01
  -1.24535E-01  4.05175E-01 -2.64774E-01 -1.14268E-01  2.09844E-01 -9.59294E-02  1.11973E-01 -1.89495E-01 -6.92257E-02 -7.87914E-02
   3.01878E-01  3.24334E-01  1.61602E-01  4.54874E-01 -1.76790E-01 -2.55410E-01 -8.07688E-02 -2.77278E-01 -2.50526E-01 -9.33197E-02
   5.31287E-02 -1.37237E-01 -1.09711E-01 -4.18275E-02 -1.38569E-01 -9.45451E-02 -2.63668E-01  1.14833E-01  2.67075E-01 -1.83871E-01
   1.50968E-01  4.10987E-01  1.95670E-01  5.51645E-02  1.60540E-02  1.46412E-01 -3.53640E-02  1.45843E-01  8.69701E-02 -1.79708E-01
  -3.28802E-03 -3.28692E-01  1.32782E-02 -2.07922E-02 -2.29708E-01  2.42959E-01  1.58571E-02 -5.05000E-02  1.88353E-01  9.60697E-02
   7.65044E-02  1.32724E-01 -4.65631E-02 -4.18451E-03  2.58244E-02 -1.03477E-01 -2.01106E-01  1.42121E-01  1.24525E-01 -1.27447E-01
   2.25863E-01  4.28515E-03  1.54066E-01  3.11412E-01 -9.74591E-02  6.87592E-02  1.30140E-02  2.55546E-02  1.94927E-01 -7.96884E-02
  -1.45337E-01 -8.23501E-02 -1.59628E-01 -2.17417E-01 -9.03710E-02 -1.53234E-03 -1.87300E-01 -5.72784E-01 -5.13331E-01 -2.39497E-01
  -2.16382E-01 -4.71168E-01 -1.14548E-01  4.07836E-01 -3.52634E-01 -6.70197E-02  1.80092E-01  1.77818E-01  1.15957E-01  1.95962E-01
   2.02685E-01 -4.10626E-01  4.19741E-01  3.02181E-02  3.66172E-01  2.65594E-01 -2.44745E-01  2.70720E-01 -1.64795E-01  1.94192E-01
   1.42751E-02  1.70985E-01  1.69476E-01  1.13508E-01  1.67795E-02 -2.68638E-01  1.20296E-01 -3.93328E-02 -1.82477E-01 -1.29983E-01
  -1.41952E-01  2.68389E-01  9.25308E-02 -5.73614E-01  1.59141E-01  2.43602E-01 -2.31378E-02 -1.51206E-01 -7.16532E-02  3.11942E-03
  -5.71115E-02  2.14720E-01 -3.19783E-01 -1.03577E-02  1.72186E-01 -7.57248E-02  1.57560E-01  1.74198E-01 -3.21224E-01  1.08935E-02
   1.70793E-01 -3.01837E-01 -3.29601E-02 -2.12568E-01 -9.38510E-02  1.30022E-01 -1.30044E-01  1.25575E-03  1.48228E-01 -2.23169E-01
   9.46846E-02  1.96860E-01  2.31747E-01 -4.45736E-03 -3.45096E-01  1.59420E-01 -5.73784E-02  8.88640E-02 -8.16958E-02 -6.41369E-02
   2.14339E-01 -1.93971E-02  2.78523E-02 -9.48617E-02 -9.81541E-02  1.06765E-01 -1.72879E-01 -1.23286E-01  6.64787E-02 -3.35974E-02
   1.44247E-01 -9.81710E-02  1.82713E-01 -1.20610E-02  7.16540E-02  2.68994E-01  9.49399E-03 -8.03834E-02  3.13954E-03  3.58566E-01
  -1.82207E-01  1.23888E-01 -9.50424E-02  6.62157E-02  2.22246E-01 -2.67214E-01  4.38403E-02  2.43274E-02  8.31084E-02 -3.47222E-01
  -2.69027E-02  3.83490E-02  5.69531E-02  5.82944E-01  2.32669E-01  3.40341E-02  1.45844E-02  2.72394E-01  2.92336E-01 -4.66356E-02
  -1.90265E-01 -1.17483E-01  1.48949E-01  5.02619E-02 -6.80369E-02 -7.83932E-02 -7.61364E-02 -1.83680E-02 -1.99539E-01  1.60938E-01
   5.34889E-02 -1.40386E-01  3.02050E-02 -8.41413E-02
 NY points of the fit to the data follow
   1.57981E-01  1.71821E-01  1.77749E-01  1.75075E-01  1.61798E-01  1.43613E-01  1.23255E-01  1.01603E-01  9.18859E-02  1.12502E-01
   1.66534E-01  2.41230E-01  3.10116E-01  3.46041E-01  3.35831E-01  2.89652E-01  2.31485E-01  1.73129E-01  1.12480E-01  5.45165E-02
   8.12155E-03 -2.77275E-02 -5.56685E-02 -7.56265E-02 -9.04533E-02 -1.03742E-01 -1.15687E-01 -1.26217E-01 -1.36093E-01 -1.46337E-01
  -1.58151E-01 -1.72008E-01 -1.88474E-01 -2.05152E-01 -2.21042E-01 -2.33921E-01 -2.37081E-01 -2.26107E-01 -1.91691E-01 -1.33022E-01
  -5.01042E-02  4.63258E-02  1.46555E-01  2.37173E-01  3.07488E-01  3.48955E-01  3.59262E-01  3.42800E-01  3.08513E-01  2.65533E-01
   2.19967E-01  1.74762E-01  1.29191E-01  8.49528E-02  4.12146E-02 -3.01530E-03 -4.82816E-02 -8.99270E-02 -1.33564E-01 -1.74039E-01
  -2.02647E-01 -2.19944E-01 -2.15962E-01 -1.88185E-01 -1.37209E-01 -6.57624E-02  1.89822E-02  1.09032E-01  1.91967E-01  2.49100E-01
   2.73244E-01  2.63079E-01  2.18832E-01  1.48662E-01  7.28864E-02  8.97083E-04 -7.46231E-02 -1.48905E-01 -2.14607E-01 -2.56957E-01
  -2.55570E-01 -1.98878E-01 -9.28694E-02  3.60564E-02  1.56201E-01  2.50884E-01  3.09128E-01  3.23337E-01  3.04812E-01  2.72614E-01
   2.35091E-01  1.93002E-01  1.53271E-01  1.05086E-01  5.40026E-02 -8.33222E-03 -7.65804E-02 -1.48093E-01 -2.09796E-01 -2.42363E-01
  -2.26149E-01 -1.56536E-01 -4.53616E-02  7.81155E-02  1.82657E-01  2.53110E-01  2.85811E-01  2.93386E-01  2.88401E-01  2.82091E-01
   2.75991E-01  2.72956E-01  2.70760E-01  2.69147E-01  2.68143E-01  2.67309E-01  2.63264E-01  2.58976E-01  2.51605E-01  2.36121E-01
   2.14083E-01  1.79787E-01  1.32607E-01  7.57885E-02  1.34546E-02 -4.78962E-02 -1.10321E-01 -1.77484E-01 -2.47555E-01 -3.17583E-01
  -3.86662E-01 -4.27408E-01 -4.41155E-01 -4.46677E-01 -4.67128E-01 -5.10095E-01 -5.57637E-01 -5.71860E-01 -5.24052E-01 -4.13636E-01
  -2.77093E-01 -1.58639E-01 -7.21705E-02 -1.70986E-02  1.44922E-02  3.41735E-02  5.30915E-02  7.01875E-02  8.58689E-02  1.00623E-01
   1.14927E-01  1.29221E-01  1.43943E-01  1.59544E-01  1.76577E-01  1.95723E-01  2.17894E-01  2.44426E-01  2.77693E-01  3.22460E-01
   3.82771E-01  4.33167E-01  4.72179E-01  5.06095E-01  5.26801E-01  5.01320E-01  3.86244E-01  1.59611E-01 -1.43708E-01 -4.36521E-01
  -6.19476E-01 -6.56459E-01 -5.95241E-01 -4.96761E-01 -4.00998E-01 -3.29903E-01 -2.87470E-01 -2.57720E-01 -2.33769E-01 -2.14452E-01
  -1.98326E-01 -1.83831E-01 -1.71419E-01 -1.61379E-01 -1.53664E-01 -1.47507E-01 -1.42139E-01 -1.36904E-01 -1.31425E-01 -1.25881E-01
  -1.20351E-01 -1.14823E-01 -1.09212E-01 -1.03762E-01 -9.84716E-02 -9.32859E-02 -8.81900E-02 -8.33065E-02 -7.85704E-02 -7.37581E-02
  -6.86345E-02 -6.34924E-02 -5.92249E-02 -5.66105E-02 -5.55434E-02 -5.51879E-02 -5.47044E-02 -5.43026E-02 -5.50840E-02 -5.78999E-02
  -6.22731E-02 -6.66431E-02 -6.96119E-02 -7.08133E-02 -7.07009E-02 -6.98960E-02 -6.88806E-02 -6.72975E-02 -6.14356E-02 -5.11646E-02
  -3.85524E-02 -2.12279E-02  5.91756E-03  4.62672E-02  9.49993E-02  1.38799E-01  1.67714E-01  1.78626E-01  1.78747E-01  1.77123E-01
   1.71203E-01  1.50526E-01  1.11387E-01  6.14030E-02  1.30614E-02 -2.46149E-02 -4.92564E-02 -6.31308E-02 -7.08199E-02 -7.67662E-02
  -8.25152E-02 -8.77578E-02 -9.25796E-02 -9.69709E-02 -1.01301E-01 -1.05798E-01 -1.10801E-01 -1.16794E-01 -1.24068E-01 -1.33009E-01
  -1.39843E-01 -1.48045E-01 -1.56440E-01 -1.60486E-01 -1.55429E-01 -1.38882E-01 -1.12477E-01 -7.68464E-02 -3.93742E-02 -7.03559E-03
   1.99551E-02  3.97519E-02  5.23053E-02  5.74307E-02  6.21711E-02  6.85912E-02  7.42096E-02  7.97729E-02  8.65795E-02  8.94477E-02
   8.36007E-02  6.65988E-02  3.82267E-02  8.73203E-04 -4.40917E-02 -9.11265E-02 -1.40286E-01 -1.90196E-01 -2.37179E-01 -2.79401E-01
  -3.07637E-01 -3.10216E-01 -2.76896E-01 -2.00184E-01 -8.51324E-02  5.12408E-02  1.85354E-01  2.89754E-01  3.49834E-01  3.64697E-01
   3.45193E-01  3.09388E-01  2.73785E-01  2.46580E-01  2.29447E-01  2.21261E-01  2.17798E-01  2.15000E-01  2.10593E-01  2.03869E-01
   1.95182E-01  1.85616E-01  1.76176E-01  1.67605E-01  1.59667E-01  1.52271E-01  1.44951E-01  1.37152E-01  1.28531E-01  1.18324E-01
   1.05508E-01  8.90701E-02  6.76179E-02  4.01858E-02  4.82483E-03 -3.79767E-02 -8.87616E-02 -1.44524E-01 -2.01111E-01 -2.51674E-01
  -2.89479E-01 -3.08710E-01 -3.05159E-01 -2.77788E-01 -2.28795E-01 -1.64457E-01 -9.56021E-02 -3.27081E-02  1.01977E-02  2.97941E-02
   2.32552E-02 -1.07161E-03 -3.49353E-02 -6.64014E-02 -9.01865E-02 -1.35530E-01 -1.83306E-01 -2.32394E-01 -3.01068E-01 -4.19972E-01
  -6.01965E-01 -8.14980E-01 -9.77786E-01 -1.00784E+00 -8.68653E-01 -6.24273E-01 -3.85620E-01 -2.07786E-01 -9.94644E-02 -4.97116E-02
  -3.37624E-02 -2.09551E-02 -8.86505E-03  7.78186E-04  8.38243E-03  1.40174E-02  1.75600E-02  1.90940E-02  1.81770E-02  1.51712E-02
   1.04321E-02  4.85607E-03 -4.27202E-04 -4.22221E-03 -5.77479E-03 -4.61413E-03 -1.12281E-03  3.94120E-03  9.59979E-03  1.49855E-02
   1.96166E-02  2.33679E-02  2.63790E-02  2.87614E-02  3.07659E-02  3.24415E-02  3.39209E-02  3.52835E-02  3.65612E-02  3.77437E-02
   3.88313E-02  3.98175E-02  4.07440E-02  4.16247E-02  4.24691E-02  4.32455E-02  4.39515E-02  4.46023E-02  4.52446E-02  4.59155E-02
   4.66078E-02  4.72469E-02  4.77401E-02  4.80111E-02  4.80300E-02  4.78387E-02  4.74973E-02  4.70366E-02  4.64546E-02  4.57314E-02
   4.48612E-02  4.38414E-02  4.26954E-02  4.14719E-02  4.02134E-02  3.89641E-02  3.77626E-02  3.66121E-02  3.54964E-02  3.44185E-02
   3.34017E-02  3.24695E-02  3.16200E-02  3.08555E-02  3.01593E-02  2.94912E-02  2.88428E-02  2.82331E-02  2.76724E-02  2.71851E-02
   2.67958E-02  2.65239E-02  2.63851E-02  2.64275E-02  2.66621E-02  2.70873E-02  2.77233E-02  2.87944E-02  3.01871E-02  3.19724E-02
   3.41626E-02  3.67460E-02  3.98197E-02  4.32361E-02  4.64860E-02  4.87450E-02  4.93113E-02  4.82068E-02  4.61789E-02  4.41838E-02
   4.31456E-02  4.34171E-02  4.47291E-02  4.66244E-02  4.87766E-02  5.09207E-02  5.29328E-02  5.47768E-02  5.63727E-02  5.76345E-02
   5.85212E-02  5.90360E-02  5.92122E-02  5.90997E-02  5.87173E-02  5.80427E-02  5.70428E-02  5.57113E-02  5.40732E-02  5.22517E-02
   5.03437E-02  4.84246E-02  4.65210E-02  4.46531E-02  4.28399E-02  4.11137E-02  3.94958E-02  3.79972E-02  3.66176E-02  3.53622E-02
   3.42466E-02  3.32758E-02  3.24600E-02  3.18260E-02  3.14119E-02  3.12480E-02  3.13386E-02  3.16401E-02  3.21069E-02  3.27047E-02
   3.34180E-02  3.42159E-02  3.50738E-02  3.59425E-02  3.67413E-02  3.74100E-02  3.79482E-02  3.83860E-02  3.87779E-02  3.91372E-02
   3.94346E-02  3.96136E-02  3.96167E-02  3.94451E-02  3.91165E-02  3.86581E-02  3.81026E-02  3.74879E-02  3.68422E-02  3.61925E-02
   3.55317E-02  3.48458E-02  3.41470E-02  3.34329E-02  3.26915E-02  3.19283E-02  3.11726E-02  3.04506E-02  2.97713E-02  2.91146E-02
   2.84432E-02  2.76998E-02  2.68433E-02  2.58438E-02  2.46670E-02  2.32813E-02  2.17066E-02  1.99459E-02  1.79549E-02  1.56625E-02
   1.30242E-02  1.00546E-02  6.83920E-03  3.49766E-03  1.64430E-04 -3.05482E-03 -6.10669E-03 -8.94719E-03 -1.15234E-02 -1.37654E-02
  -1.55895E-02 -1.69322E-02 -1.77781E-02 -1.81679E-02 -1.81733E-02 -1.78401E-02 -1.71970E-02 -1.63443E-02 -1.53809E-02 -1.43701E-02
  -1.33106E-02 -1.21728E-02 -1.09203E-02 -9.50479E-03 -7.94574E-03 -6.27169E-03 -4.51437E-03 -2.71279E-03 -9.29561E-04  8.10654E-04
   2.49947E-03  4.15236E-03  5.73307E-03  7.22428E-03  8.62261E-03  9.91516E-03  1.11152E-02  1.22317E-02  1.32444E-02  1.41227E-02
   1.48809E-02  1.55498E-02  1.61395E-02  1.66275E-02  1.70213E-02  1.73370E-02  1.75851E-02  1.77822E-02  1.79466E-02  1.80873E-02
   1.82210E-02  1.83941E-02  1.86133E-02  1.88462E-02  1.90565E-02  1.92064E-02  1.92626E-02  1.92289E-02  1.91295E-02  1.89941E-02
   1.88332E-02  1.86580E-02  1.84910E-02  1.83203E-02  1.81312E-02  1.79482E-02  1.77953E-02  1.76598E-02  1.75016E-02  1.72560E-02
   1.69094E-02  1.65038E-02  1.61081E-02  1.57935E-02  1.55507E-02  1.53247E-02  1.50586E-02  1.47417E-02  1.43764E-02  1.40041E-02
   1.36944E-02  1.34879E-02  1.33572E-02  1.32605E-02  1.31626E-02  1.30558E-02  1.29260E-02  1.27821E-02  1.26252E-02  1.24452E-02
   1.22270E-02  1.19494E-02  1.16004E-02  1.12073E-02  1.08076E-02  1.04715E-02  1.02277E-02  1.00324E-02  9.86026E-03  9.66612E-03
   9.43729E-03  9.21906E-03  9.04959E-03  8.92092E-03  8.74511E-03  8.42383E-03  7.94762E-03  7.38638E-03  6.82363E-03  6.32414E-03
   5.86643E-03  5.37573E-03  4.83667E-03  4.26790E-03  3.69185E-03  3.11594E-03  2.54377E-03  1.96974E-03  1.40662E-03  8.56704E-04
   3.10362E-04 -2.49285E-04 -8.38693E-04 -1.44673E-03 -2.04292E-03 -2.61971E-03 -3.14048E-03 -3.58875E-03 -3.97262E-03 -4.34534E-03
  -4.77525E-03 -5.30593E-03 -5.91993E-03 -6.57101E-03
 NY background values follow
     3.997E-03    3.959E-03    3.921E-03    3.884E-03    3.846E-03    3.808E-03    3.770E-03    3.732E-03    3.694E-03    3.656E-03
     3.618E-03    3.580E-03    3.543E-03    3.505E-03    3.467E-03    3.429E-03    3.391E-03    3.353E-03    3.315E-03    3.277E-03
     3.239E-03    3.201E-03    3.163E-03    3.125E-03    3.087E-03    3.049E-03    3.011E-03    2.973E-03    2.935E-03    2.897E-03
     2.859E-03    2.821E-03    2.783E-03    2.745E-03    2.707E-03    2.669E-03    2.631E-03    2.593E-03    2.555E-03    2.517E-03
     2.479E-03    2.441E-03    2.403E-03    2.365E-03    2.327E-03    2.289E-03    2.251E-03    2.213E-03    2.175E-03    2.137E-03
     2.099E-03    2.061E-03    2.023E-03    1.985E-03    1.946E-03    1.908E-03    1.870E-03    1.832E-03    1.794E-03    1.756E-03
     1.718E-03    1.680E-03    1.642E-03    1.604E-03    1.565E-03    1.527E-03    1.489E-03    1.451E-03    1.413E-03    1.375E-03
