 
 $NMID
 ID=''
 FMTDAT='(2E13.5)'
 TRAMP=   1.00000E+0
 VOLUME=   1.00000E+0
 $END
   6.55769E+2  -3.87861E+2
   1.81814E+3   1.12521E+3
   2.17229E+2  -5.19580E+3
  -1.16376E+3  -2.42599E+3
  -2.39966E+3  -1.91024E+3
  -1.60070E+3  -2.77578E+3
  -2.73517E+3   8.55368E+2
  -3.09310E+3   2.29686E+3
  -1.60728E+3   2.29186E+3
  -2.38445E+3   5.32935E+2
  -4.07460E+1  -7.74075E+2
   3.62251E+3  -2.01517E+3
   4.54275E+3  -1.18001E+3
  -2.71759E+2   1.68511E+3
  -2.03487E+3  -9.50631E+2
  -4.95981E+2  -3.37549E+3
   1.76836E+3  -1.57813E+3
   1.41579E+3   3.91026E+1
  -2.96578E+2  -2.07493E+2
  -6.69000E+2  -3.26557E+3
   7.70573E+2  -4.79308E+3
   3.43376E+3   3.12498E+2
   2.64447E+2   2.16293E+3
  -3.28333E+3  -2.88742E+3
   1.57139E+3  -5.81927E+3
   3.15150E+3   3.50269E+3
   1.05731E+3   2.58648E+3
  -4.88685E+3   2.73884E+3
  -2.85526E+3  -2.86853E+3
   5.54574E+2  -5.36278E+3
   4.86198E+3   1.72660E+2
   2.45547E+3   5.81636E+3
  -2.82637E+3   3.98064E+3
  -2.71733E+2  -5.22133E+2
   1.44701E+3   2.81610E+3
  -3.65360E+3   1.59715E+3
  -1.77414E+3  -1.14454E+3
   3.07350E+3  -1.47261E+3
   7.80569E+2   8.84519E+2
   1.44229E+3   2.38923E+3
  -4.23834E+2   5.99865E+2
  -4.57813E+3   1.58922E+3
  -5.03118E+3  -2.00805E+3
  -4.31560E+2  -6.53902E+3
   5.53946E+2  -3.02973E+3
  -1.18016E+1   1.11481E+2
  -5.19859E+2  -1.95464E+3
   2.13349E+3   2.03613E+2
   6.77580E+2   3.27699E+3
  -1.82940E+3   4.09360E+3
  -4.42617E+3   8.61811E+2
  -3.50054E+3  -1.37588E+3
   1.30632E+3  -2.12314E+3
   3.92439E+3  -1.34178E+3
   2.97132E+3   3.88688E+2
   2.21065E+3   4.03528E+2
   6.54898E+2   3.98259E+3
  -2.36592E+3   1.16335E+3
  -1.64450E+3   2.55130E+2
   1.11295E+1  -2.43510E+3
   5.27427E+3  -8.68512E+2
   5.52801E+3   1.09619E+3
   1.45141E+3   4.42021E+3
  -3.84739E+2   2.00427E+3
  -1.11441E+3  -1.81959E+3
   1.49229E+3   1.10334E+3
   1.27195E+3   3.04258E+3
  -1.14652E+3   3.27931E+3
  -5.30422E+2   1.40474E+3
   3.47701E+2  -7.24777E+1
  -5.00876E+2   1.09090E+3
  -5.57470E+2   2.37340E+2
  -8.75830E+2  -1.16264E+3
  -2.48339E+2  -1.10101E+3
   7.54766E+2   4.96379E+2
   1.00233E+3   9.65384E+2
   4.00723E+2   1.84581E+1
  -9.60489E+2  -6.17941E+2
  -9.61862E+2  -2.84586E+3
   4.60972E+2   2.25544E+3
  -8.86736E+2   1.43032E+3
  -6.23873E+2  -6.25570E+2
   3.09042E+1  -9.49110E+2
  -1.43494E+3   9.36167E+2
  -2.83926E+3   2.22043E+3
  -3.07794E+3  -7.60413E+2
  -3.61149E+2  -1.89778E+3
   1.72814E+3  -5.74015E+3
   3.17232E+3  -1.91827E+3
   8.77511E+2   1.34774E+3
   1.16937E+3  -1.53864E+3
   2.90781E+3  -5.79657E+2
   1.41232E+3  -1.99600E+2
  -2.09557E+3   5.25548E+3
  -3.32709E+3   8.35958E+2
  -1.28507E+3  -4.05716E+3
   2.52114E+3  -3.20546E+3
   3.63794E+3   3.30481E+3
  -1.39774E+3   1.53346E+3
  -4.82842E+3   2.40961E+2
  -1.60543E+2  -3.62035E+3
   3.06688E+3  -2.63118E+3
   1.87634E+3   2.17668E+3
  -2.36589E+3   2.53405E+3
  -4.89266E+3   1.02982E+3
  -1.45936E+3  -1.38029E+3
   1.64358E+2   5.46978E+2
  -1.70904E+3   6.14241E+2
  -2.75045E+3  -1.32025E+3
  -1.70759E+3  -4.11405E+3
   3.17494E+3  -1.87155E+3
   3.30391E+3   1.00914E+2
   1.09321E+2   8.38033E+2
   6.94854E+2   1.97999E+2
  -2.66418E+2   7.74091E+2
  -2.32645E+3   1.07676E+3
  -1.22116E+3  -2.14031E+3
   1.70704E+3   7.98515E+1
   5.35979E+2  -2.01313E+3
   1.20214E+3  -1.45788E+3
   3.76736E+2   1.65189E+3
  -2.06294E+3  -4.54271E+2
  -1.15110E+3  -2.09438E+3
   2.23806E+3  -2.68036E+3
  -4.74293E+2  -8.90580E+2
  -8.00553E+1   1.32186E+2
   1.03762E+3  -9.65948E+2
  -9.06109E+2   1.63447E+3
   1.32214E+3   2.80710E+3
  -1.47311E+3   2.74191E+3
  -1.45673E+3  -4.52041E+2
  -2.23837E+2  -1.02893E+3
   3.64557E+3  -8.03825E+2
   2.03555E+3   2.31523E+3
  -6.33687E+2   8.90453E+2
  -1.28121E+3  -1.47195E+3
  -2.09379E+2  -3.00490E+3
  -1.12601E+3   1.64156E+1
  -2.69269E+2  -1.35104E+3
  -1.04644E+3  -1.04939E+3
  -4.57122E+2  -1.23150E+3
   1.18869E+3  -1.59164E+3
   2.49383E+3   1.89588E+3
   2.33876E+2   3.15667E+3
  -7.68034E+2  -1.75749E+3
   1.03462E+3  -1.15972E+3
  -5.65680E+2  -9.17548E+2
  -6.61032E+2   1.19968E+3
   1.90462E+3  -8.01532E+1
  -1.88390E+3   1.55779E+3
  -1.94913E+3  -2.99611E+2
  -1.07654E+3   3.53739E+1
  -7.61778E+1  -1.11318E+3
   1.61072E+3  -2.86143E+2
   1.97912E+3   1.19418E+3
   3.68903E+1   1.63243E+3
  -8.37997E+1   1.92045E+3
  -1.79084E+3   1.27719E+3
   4.80931E+2   3.21736E+2
  -2.26232E+3  -4.34550E+2
  -9.08350E+2  -2.32837E+2
   6.13815E+2   1.30324E+3
  -2.07705E+2  -1.34973E+3
   1.23443E+3   1.37190E+2
  -1.61076E+3   8.02098E+2
  -7.70938E+2  -1.30789E+3
   3.42932E+2  -1.84675E+3
   2.50748E+3   7.03820E+2
   2.12929E+3   2.15049E+3
  -2.60945E+2   1.15731E+3
  -2.01551E+3   8.63931E+2
   1.41230E+2  -1.84658E+3
  -4.26795E+2   1.54319E+3
  -3.06432E+2   1.45306E+3
   1.75254E+3  -2.55253E+1
  -2.56582E+3  -5.94976E+2
   2.24229E+3   2.60807E+3
   2.20243E+3   2.14520E+3
  -9.49095E+2   8.93672E+2
  -9.80425E+2   1.47562E+3
  -4.08953E+2  -1.73201E+3
   2.54521E+3  -1.41742E+3
   1.48479E+3   1.39233E+3
   4.29435E+2  -1.12391E+3
   9.53236E+2  -2.03013E+1
   3.76314E+2   1.67726E+2
  -1.65770E+3   1.87084E+3
  -1.60534E+3  -3.16927E+2
   2.05191E+2  -1.61044E+3
   7.75100E+2  -5.93190E+2
   1.78629E+3   1.61170E+3
   1.45727E+3  -8.67084E+2
  -8.16557E+2   2.68665E+3
  -1.67459E+3   5.96647E+2
  -3.13713E+2   7.84473E+2
   2.10058E+2   7.36653E+2
  -2.99382E+3   2.29418E+3
   9.83508E+2  -1.50219E+3
  -3.05132E+2  -3.25583E+2
   4.71103E+2   2.25876E+3
  -3.13386E+3  -1.17534E+3
  -6.17073E+2  -2.16735E+2
   4.46473E+1  -3.07267E+3
   1.62494E+3  -8.86216E+1
   8.09080E+2  -2.18276E+1
   2.90099E+2  -1.80464E+2
  -6.53119E+2  -1.62349E+2
  -4.98209E+1  -1.77003E+3
   1.25641E+3   1.36602E+3
   2.25371E+3  -7.17227E+0
  -1.65373E+3  -7.69933E+2
  -1.78558E+3  -2.62939E+3
   1.11107E+3   1.78931E+3
   2.84723E+2   2.43805E+2
  -1.55571E+3   1.38135E+3
   7.38710E+2  -9.32806E+2
   1.30251E+2  -1.44049E+3
   2.70504E+2  -7.54446E+2
   1.16010E+3  -6.93975E+2
   2.17272E+3  -1.86135E+2
   5.62716E+2  -1.35267E+2
   7.39968E+2  -1.67372E+3
  -5.93814E+1  -8.58387E+2
  -1.33332E+3   1.25837E+2
   1.20119E+3  -8.68902E+2
   1.81237E+3  -1.55924E+3
   7.27415E+2   1.14082E+3
  -2.58779E+2   5.49018E+1
  -2.75537E+2  -1.44312E+3
  -5.03312E+2  -4.80314E+2
  -1.94956E+2   4.24611E+2
   1.22444E+3   2.24337E+3
   4.64982E+2  -1.09395E+3
  -7.81518E+2  -1.09009E+3
   2.21108E+3  -1.45050E+2
   6.64735E+2   1.50859E+3
  -9.63024E+2  -7.81000E+1
  -5.35036E+1  -7.92197E+2
   8.81581E+2  -1.29727E+3
  -1.09078E+3  -1.63694E+3
  -2.86462E+2   6.50692E+2
  -1.51937E+1   7.54118E+2
  -7.76247E+2  -3.87738E+2
   2.10616E+3   4.52472E+2
  -9.19071E+2  -9.21589E+2
   2.23835E+3  -1.53979E+3
   6.99923E+2   2.30001E+3
  -7.53433E+1  -6.31971E+2
   6.12672E+2   1.02376E+3
   4.18987E+2   8.40560E+2
   4.76131E+1  -2.92155E+2
  -9.31300E+1  -4.84677E+1
  -6.31067E+2   1.20161E+3
  -1.08481E+3   8.45655E+2
  -1.30491E+3   1.22478E+3
  -7.52140E+2  -8.25336E+1
  -6.90919E+2  -4.85469E+2
  -1.40653E+2   1.07815E+3
  -2.39076E+3  -7.09420E+1
   1.18547E+3   3.83135E+2
   6.23235E+2  -1.07879E+3
  -1.43687E+3  -3.18580E+2
   5.30108E+2  -7.88749E+2
  -1.06119E+2   2.56958E+2
   1.04764E+2  -1.49873E+3
   4.77275E+2   1.26613E+3
  -1.62882E+3  -2.96916E+1
  -3.14935E+2  -8.48242E+1
  -5.45831E+1  -8.70303E+2
  -1.10284E+2   2.36292E+2
   9.74290E+2  -4.65260E+2
   1.08166E+3  -5.30970E+1
   5.83558E+2   1.43829E+3
  -2.04732E+3   1.34794E+3
   4.97000E+2  -7.96917E+2
  -2.60482E+2   3.58021E+2
  -6.17349E+2   4.54885E+2
  -1.14521E+3  -3.92250E+1
   2.64734E+3   1.04379E+3
  -1.29479E+3   5.33223E+2
  -3.90999E+2   5.59766E+1
  -1.17505E+3   1.75548E+3
  -8.99821E+2   5.66666E+2
  -2.85902E+3  -1.27837E+3
  -6.76577E+2  -5.94547E+2
   5.37063E+2   6.25854E+1
  -3.34923E+1   4.81974E+2
   1.56701E+3  -2.17906E+3
  -7.56218E+2   1.31648E+3
   8.95156E+2  -4.35218E+2
  -4.40064E+2  -9.71537E+2
  -8.58366E+2   2.73266E+3
   1.79448E+3  -4.59237E+2
  -3.05905E+2   1.45435E+3
  -1.69331E+3  -5.87821E+2
  -2.42481E+2   2.21692E+3
   2.77203E+2   6.89292E+1
   5.28061E+2  -4.74504E+2
   8.55856E+1  -8.15793E+2
   1.00987E+3   3.36834E+2
   9.86159E+2   5.95906E+2
  -1.12274E+3  -6.58346E+2
   1.98137E+2   5.37956E+2
  -5.28927E+2   5.66201E+2
   7.00110E+2  -4.65767E+2
   6.02684E+2  -1.35683E+3
   5.61905E+2   6.33545E+2
  -1.40861E+1  -7.79250E+2
   2.54343E+2  -5.61428E+2
  -1.42910E+2   1.23152E+3
  -2.32207E+2   6.55620E+2
   9.72241E+2   5.62453E+2
   1.22287E+3   1.46223E+3
  -9.94252E+2  -1.46411E+3
  -7.68390E+2  -7.30097E+1
   1.26946E+3   9.11363E+2
  -9.58192E+1   2.34350E+3
  -1.07980E+3  -1.12441E+3
  -6.13111E+2  -2.22434E+3
   2.86182E+2  -8.82859E+2
  -9.71625E+2   1.99747E+2
   3.11801E+2  -3.58783E+2
  -8.81076E+2   3.51804E+2
  -2.52153E+1   6.72641E+2
  -8.11430E+2   2.26400E+2
   5.95964E+2   1.26875E+3
  -1.51287E+3  -7.34002E+2
   1.35887E+3   6.25044E+2
   8.26703E+2  -3.88506E+2
  -3.73219E+2   4.95375E+2
   1.13144E+3   6.87799E+2
   4.54568E+2   8.00204E+2
  -3.95950E+2  -5.82959E+2
   6.47120E+2  -3.18181E+2
  -8.77264E+2  -1.17209E+3
   9.91572E+2  -3.02822E+2
  -4.18163E+2   1.35396E+3
   3.21959E+2   5.90889E+2
  -5.27143E+0   1.33709E+2
  -7.48516E+2   1.79214E+3
  -4.38688E+2  -1.56456E+2
   2.40468E+1   5.73931E+2
   1.54431E+2  -1.09285E+3
  -8.08617E+2  -7.20578E+2
  -5.86738E+2   5.02023E+2
  -1.51704E+2  -3.20304E+3
  -7.86534E+2   9.85721E+2
   1.06080E+3   6.71385E+2
  -1.49287E+3  -5.45526E+2
   1.53753E+3  -5.60999E+2
   6.74441E+2   3.43360E+2
  -1.00663E+3   9.97869E+2
   4.46307E+2  -1.79253E+2
  -1.08534E+3  -1.43057E+1
  -7.40765E+2   4.80716E+2
  -1.50183E+3   3.53282E+2
  -1.79156E+3   5.97436E+2
  -2.34356E+2   4.38159E+2
   1.88095E+3  -1.93552E+3
   8.48406E+1   1.57016E+2
   5.65446E+2   7.45233E+2
  -1.30174E+3   1.00007E+3
   6.20309E+2  -7.63612E+2
   1.50227E+3  -5.14851E+2
  -1.27839E+3   2.46985E+3
   3.86343E+2  -8.61613E+2
  -8.64063E+2   5.04365E+0
