 LCModel (Version 6.3-1N) Copyright: S.W. Provencher.          Ref.: Magn. Reson. Med. 30:672-679 (1993).                
 Slice_N1@25_14  02-Jun-2023 14:37:50
 27 lines in following concentration table = NCONC+1
    Conc.  %SD /Cr+PCr  Metabolite                                         
 1.85E-06  19% 2.5E-04 Mac                                                 
 5.92E-02  14%   8.000 Cr                                                  
    0.000 999%   0.000 PCr                                                 
 9.70E-02  13%  13.097 Ins                                                 
 6.99E-02  12%   9.437 NAA                                                 
 3.75E-02  31%   5.061 Tau                                                 
 1.15E-02  25%   1.555 PCho                                                
    0.000 999%   0.000 GPC                                                 
 7.17E-02  17%   9.679 Glu                                                 
 2.08E-02  41%   2.803 Gln                                                 
    0.000 999%   0.000 Ala                                                 
 2.48E-02  69%   3.348 Asc                                                 
 1.20E-02  67%   1.616 Asp                                                 
 2.63E-03 172%   0.355 GABA                                                
 7.65E-03  68%   1.033 Glc                                                 
 7.79E-03  62%   1.052 GSH                                                 
    0.000 999%   0.000 Lac                                                 
    0.000 999%   0.000 NAAG                                                
    0.000 999%   0.000 PE                                                  
 1.15E-02  25%   1.555 GPC+PCho                                            
 6.99E-02  12%   9.437 NAA+NAAG                                            
 9.24E-02  16%  12.482 Glu+Gln                                             
 5.92E-02  14%   8.000 Cr+PCr                                              
 6.99E-02  12%   9.437 NAA+NAAG                                            
 5.92E-02  14%   8.000 Cr+PCr                                              
 9.24E-02  16%  12.482 Glu+Gln                                             
   6 lines in following misc. output table
  FWHM = 0.076 ppm    S/N =   1                                            
  Data shift = 0.023 ppm                                                   
  Ph: -24 deg     -12.6 deg/ppm                                            
  alphaB,S = 1.6E+01,   5.0E+01                                            
   18 spline knots.   Ns =11(1)                                            
  ( 7) 6 infls.   ( 4) 1 extrs.                                            
  654 points on ppm-axis = NY
      4.000000     3.994181     3.988363     3.982544     3.976726     3.970907     3.965088     3.959270     3.953451     3.947633
      3.941814     3.935995     3.930177     3.924358     3.918540     3.912721     3.906902     3.901084     3.895265     3.889446
      3.883628     3.877809     3.871991     3.866172     3.860353     3.854535     3.848716     3.842898     3.837079     3.831260
      3.825442     3.819623     3.813805     3.807986     3.802167     3.796349     3.790530     3.784712     3.778893     3.773074
      3.767256     3.761437     3.755619     3.749800     3.743981     3.738163     3.732344     3.726526     3.720707     3.714888
      3.709070     3.703251     3.697433     3.691614     3.685795     3.679977     3.674158     3.668339     3.662521     3.656702
      3.650884     3.645065     3.639246     3.633428     3.627609     3.621791     3.615972     3.610153     3.604335     3.598516
      3.592698     3.586879     3.581060     3.575242     3.569423     3.563605     3.557786     3.551967     3.546149     3.540330
      3.534512     3.528693     3.522874     3.517056     3.511237     3.505419     3.499600     3.493781     3.487963     3.482144
      3.476326     3.470507     3.464688     3.458870     3.453051     3.447232     3.441414     3.435595     3.429777     3.423958
      3.418139     3.412321     3.406502     3.400684     3.394865     3.389046     3.383228     3.377409     3.371591     3.365772
      3.359953     3.354135     3.348316     3.342498     3.336679     3.330860     3.325042     3.319223     3.313405     3.307586
      3.301767     3.295949     3.290130     3.284312     3.278493     3.272674     3.266856     3.261037     3.255219     3.249400
      3.243581     3.237763     3.231944     3.226125     3.220307     3.214488     3.208670     3.202851     3.197032     3.191214
      3.185395     3.179577     3.173758     3.167939     3.162121     3.156302     3.150484     3.144665     3.138846     3.133028
      3.127209     3.121391     3.115572     3.109753     3.103935     3.098116     3.092298     3.086479     3.080660     3.074842
      3.069023     3.063205     3.057386     3.051567     3.045749     3.039930     3.034111     3.028293     3.022474     3.016656
      3.010837     3.005018     2.999200     2.993381     2.987563     2.981744     2.975925     2.970107     2.964288     2.958470
      2.952651     2.946832     2.941014     2.935195     2.929377     2.923558     2.917739     2.911921     2.906102     2.900284
      2.894465     2.888646     2.882828     2.877009     2.871191     2.865372     2.859553     2.853735     2.847916     2.842098
      2.836279     2.830460     2.824642     2.818823     2.813004     2.807186     2.801367     2.795549     2.789730     2.783911
      2.778093     2.772274     2.766456     2.760637     2.754818     2.749000     2.743181     2.737363     2.731544     2.725725
      2.719907     2.714088     2.708270     2.702451     2.696632     2.690814     2.684995     2.679177     2.673358     2.667539
      2.661721     2.655902     2.650084     2.644265     2.638446     2.632628     2.626809     2.620991     2.615172     2.609353
      2.603535     2.597716     2.591897     2.586079     2.580260     2.574442     2.568623     2.562804     2.556986     2.551167
      2.545349     2.539530     2.533711     2.527893     2.522074     2.516256     2.510437     2.504618     2.498800     2.492981
      2.487163     2.481344     2.475525     2.469707     2.463888     2.458070     2.452251     2.446432     2.440614     2.434795
      2.428977     2.423158     2.417339     2.411521     2.405702     2.399884     2.394065     2.388246     2.382428     2.376609
      2.370790     2.364972     2.359153     2.353335     2.347516     2.341697     2.335879     2.330060     2.324242     2.318423
      2.312604     2.306786     2.300967     2.295149     2.289330     2.283511     2.277693     2.271874     2.266056     2.260237
      2.254418     2.248600     2.242781     2.236963     2.231144     2.225325     2.219507     2.213688     2.207870     2.202051
      2.196232     2.190414     2.184595     2.178777     2.172958     2.167139     2.161321     2.155502     2.149683     2.143865
      2.138046     2.132228     2.126409     2.120590     2.114772     2.108953     2.103135     2.097316     2.091497     2.085679
      2.079860     2.074042     2.068223     2.062404     2.056586     2.050767     2.044949     2.039130     2.033311     2.027493
      2.021674     2.015856     2.010037     2.004218     1.998400     1.992581     1.986763     1.980944     1.975126     1.969307
      1.963489     1.957670     1.951852     1.946033     1.940215     1.934397     1.928578     1.922760     1.916941     1.911123
      1.905304     1.899486     1.893667     1.887849     1.882030     1.876212     1.870393     1.864575     1.858756     1.852938
      1.847119     1.841301     1.835482     1.829664     1.823845     1.818027     1.812208     1.806390     1.800571     1.794753
      1.788934     1.783116     1.777297     1.771479     1.765660     1.759842     1.754023     1.748205     1.742386     1.736568
      1.730749     1.724931     1.719113     1.713294     1.707476     1.701657     1.695839     1.690020     1.684202     1.678383
      1.672565     1.666746     1.660928     1.655109     1.649291     1.643472     1.637654     1.631835     1.626017     1.620198
      1.614380     1.608561     1.602743     1.596924     1.591106     1.585287     1.579469     1.573650     1.567832     1.562013
      1.556195     1.550376     1.544558     1.538739     1.532921     1.527102     1.521284     1.515465     1.509647     1.503829
      1.498010     1.492192     1.486373     1.480555     1.474736     1.468918     1.463099     1.457281     1.451462     1.445644
      1.439825     1.434007     1.428188     1.422370     1.416551     1.410733     1.404914     1.399096     1.393277     1.387459
      1.381640     1.375822     1.370003     1.364185     1.358366     1.352548     1.346729     1.340911     1.335092     1.329274
      1.323455     1.317637     1.311818     1.306000     1.300182     1.294363     1.288545     1.282726     1.276908     1.271089
      1.265271     1.259452     1.253634     1.247815     1.241997     1.236178     1.230360     1.224541     1.218723     1.212904
      1.207086     1.201267     1.195449     1.189630     1.183812     1.177993     1.172175     1.166356     1.160538     1.154719
      1.148901     1.143082     1.137264     1.131445     1.125627     1.119808     1.113990     1.108171     1.102353     1.096534
      1.090716     1.084898     1.079079     1.073261     1.067442     1.061624     1.055805     1.049987     1.044168     1.038350
      1.032531     1.026713     1.020894     1.015076     1.009257     1.003439     0.997620     0.991802     0.985983     0.980165
      0.974346     0.968528     0.962709     0.956891     0.951072     0.945254     0.939435     0.933617     0.927798     0.921980
      0.916161     0.910343     0.904524     0.898706     0.892887     0.887069     0.881251     0.875432     0.869614     0.863795
      0.857977     0.852158     0.846340     0.840521     0.834703     0.828884     0.823066     0.817247     0.811429     0.805610
      0.799792     0.793973     0.788155     0.782336     0.776518     0.770699     0.764881     0.759062     0.753244     0.747425
      0.741607     0.735788     0.729970     0.724151     0.718333     0.712514     0.706696     0.700877     0.695059     0.689240
      0.683422     0.677603     0.671785     0.665967     0.660148     0.654330     0.648511     0.642693     0.636874     0.631056
      0.625237     0.619419     0.613600     0.607782     0.601963     0.596145     0.590326     0.584508     0.578689     0.572871
      0.567052     0.561234     0.555415     0.549597     0.543778     0.537960     0.532141     0.526323     0.520504     0.514686
      0.508867     0.503049     0.497230     0.491412     0.485593     0.479775     0.473956     0.468138     0.462319     0.456501
      0.450682     0.444864     0.439045     0.433227     0.427408     0.421590     0.415771     0.409953     0.404134     0.398316
      0.392497     0.386679     0.380860     0.375042     0.369223     0.363405     0.357586     0.351767     0.345949     0.340130
      0.334312     0.328493     0.322675     0.316856     0.311038     0.305219     0.299401     0.293582     0.287764     0.281945
      0.276127     0.270308     0.264490     0.258671     0.252853     0.247034     0.241216     0.235397     0.229579     0.223760
      0.217942     0.212123     0.206305     0.200486
 NY phased data points follow
   1.89124E-01  7.41314E-02 -3.76332E-01 -7.64448E-02 -2.62298E-01 -1.34237E-01  9.09907E-02 -6.32789E-02 -1.25708E-01 -5.46508E-01
  -3.78497E-01 -1.30535E-01 -9.94517E-02  2.10324E-01  3.02142E-01  7.32540E-02  6.96617E-01  3.42253E-01  1.38655E-01  5.25125E-01
   1.43760E-01  4.57174E-01  1.07523E-01 -2.18819E-01 -4.96948E-02 -7.60721E-02 -1.12159E-01  1.66843E-01 -1.12219E-01 -3.52487E-01
   3.07713E-01 -1.35530E-01 -5.11701E-01 -1.41896E-01 -1.65177E-02 -5.84270E-02 -2.19632E-01 -5.71140E-02  1.53609E-03 -2.22378E-01
  -1.33762E-01 -3.95635E-02  1.97215E-01  2.90846E-01  2.39878E-02 -3.70215E-02  1.35353E-01  1.08641E-01  2.27620E-01  2.83193E-01
   2.24497E-01  2.27541E-01 -8.26814E-02  1.06610E-01  5.32868E-03 -5.57554E-03 -1.34861E-01 -1.60605E-01 -7.86205E-02 -4.64984E-01
  -4.04820E-02  1.31676E-01 -1.87590E-01 -4.37057E-01 -2.33037E-02  2.44454E-03  1.62867E-01  3.41829E-01 -2.09977E-01 -1.95239E-01
  -1.06418E-01  4.48762E-02 -3.44107E-02  4.61114E-02  5.68264E-02 -1.28906E-01 -2.49373E-01 -3.75444E-01 -2.30472E-01  5.06641E-02
  -1.61433E-01 -2.21990E-01 -1.29390E-01 -4.54432E-01 -1.23180E-01  2.80043E-02  1.04611E-01  3.00432E-01  3.61532E-01  2.21993E-01
   3.81072E-01  3.16828E-01  1.02747E-01  4.23003E-01  1.72227E-01  1.59205E-01  2.23654E-02  8.98833E-02  2.34842E-01  3.25415E-01
   4.41719E-01  1.92650E-01 -8.43412E-02 -2.20922E-01  3.68567E-01  3.81852E-01  7.41707E-02  1.51166E-01  2.87721E-01 -3.03677E-04
   2.03026E-01  6.30856E-01  2.66103E-01  3.80316E-01  3.42828E-01  3.41500E-01  2.74349E-01  1.29683E-01  4.45975E-01  2.93948E-01
  -2.12779E-02  2.68020E-01  2.33028E-01 -1.62613E-01  4.48865E-02  2.08079E-02  1.71582E-01 -3.82894E-03 -4.18995E-01 -4.13051E-01
  -5.18196E-01 -2.62434E-01 -6.26707E-01 -6.50463E-01 -1.78472E-01 -2.58896E-01 -1.18611E-01 -1.97718E-01 -3.90099E-01 -2.64860E-01
  -4.64986E-01 -2.94656E-01  5.06600E-02 -1.80733E-01  1.03687E-01 -1.45673E-02 -9.34418E-04 -4.29500E-02 -7.37192E-02  1.78027E-01
  -2.08833E-01  4.37453E-01  3.20655E-01  5.47396E-02  3.52084E-01  1.62942E-01  2.44541E-01  1.07049E-01  4.15334E-02  2.35357E-01
   4.37365E-01  1.74812E-01  3.76588E-02  1.63702E-01  3.60337E-01  2.30167E-01  1.21861E-01  9.06241E-02 -2.37250E-01 -3.74062E-01
  -2.19751E-01  1.12110E-01 -2.08201E-01 -2.66177E-01 -5.10753E-01 -5.84285E-01 -5.88027E-01 -7.51466E-01  3.83510E-02 -1.61567E-01
  -3.26974E-01 -2.61408E-01 -5.27060E-01 -1.40011E-01 -1.07999E-01 -1.68986E-01 -3.72867E-01 -3.10201E-01 -4.01810E-03 -3.11748E-01
  -2.41177E-01 -3.35310E-01 -4.13874E-02  4.95371E-02 -3.67851E-01  1.13513E-02 -5.40315E-02 -1.40878E-01 -1.78140E-01 -2.08911E-01
  -5.11812E-02  1.35099E-01 -3.37405E-02  3.91454E-02  1.43069E-01 -8.85660E-02  3.92065E-02 -2.83434E-01 -4.57447E-02 -1.23793E-01
  -1.47324E-01  2.87531E-02 -2.18147E-01  8.55650E-02 -4.03068E-02 -3.55372E-01 -3.20037E-01  8.05904E-02  1.29732E-01 -1.70891E-01
  -8.20873E-02  5.45023E-02  8.79700E-02  2.69648E-01  5.98652E-02  3.33914E-01  3.72348E-01  1.36853E-01  2.63916E-01  1.29961E-01
   4.60740E-01  2.83249E-01  4.04160E-01 -7.10838E-02 -6.05521E-02  2.58054E-01 -5.39564E-02  3.02388E-01  9.51880E-03  1.17844E-01
   1.23815E-01  2.81964E-01 -9.57733E-02 -2.20944E-01  4.48235E-02 -2.77629E-01 -1.24679E-01 -2.59233E-01  1.88687E-02 -1.12902E-02
  -9.70613E-02  5.40125E-03  6.83192E-02  6.69326E-02  1.22479E-01  3.05289E-01  7.07194E-02  2.11591E-01 -8.90115E-02 -6.09045E-02
   4.48688E-01 -1.75699E-01 -1.97579E-01 -1.03269E-01 -1.12231E-02  2.68905E-01 -1.84196E-01  2.19115E-01 -9.89867E-02 -1.24629E-01
   1.58662E-01 -1.08676E-01  1.17159E-01 -6.58894E-02  1.91777E-02  4.03303E-02 -1.20388E-02 -1.79228E-01  2.06906E-02 -7.80711E-02
  -1.78571E-01  3.00907E-03  1.00849E-01 -7.76035E-02 -2.20902E-01  2.23909E-01 -1.64895E-01 -6.55417E-02  1.76812E-03  1.54270E-01
   1.13603E-01  2.89961E-01  5.79006E-01  1.77069E-01  2.91706E-01  1.73296E-01  4.30592E-01  3.25350E-01  9.53857E-02  9.01633E-02
   3.11706E-01  2.49577E-01  9.80193E-02  1.77192E-01  7.52611E-02  2.30913E-01  1.70880E-01  4.83129E-01  5.23902E-01  2.77930E-01
   2.22985E-01  4.00573E-01  2.30722E-01  1.17411E-01  2.77764E-03 -9.43204E-02  8.66885E-02 -2.24392E-01 -1.96485E-01 -2.19451E-01
  -1.59029E-01 -1.35315E-01 -2.27940E-01 -5.98676E-01 -3.83858E-01  4.17751E-02 -2.53157E-01 -6.45926E-02 -2.20084E-01 -1.34667E-01
   5.92580E-02 -1.39966E-01 -1.33956E-01 -1.40928E-01 -1.69094E-01 -1.32458E-01 -1.94109E-01 -3.82086E-01 -2.20035E-01 -3.25974E-01
  -4.83252E-01 -4.43667E-01 -8.29959E-01 -6.03789E-01 -3.31942E-01 -6.64035E-01 -2.92009E-01 -1.95817E-01 -6.60632E-01 -3.01394E-01
  -3.66274E-01 -3.22791E-01  2.66653E-01  1.33210E-01  4.24327E-01  1.30402E-01  1.18519E-01  6.66566E-02 -7.62591E-02  5.45202E-01
  -5.82132E-02  7.43148E-02 -1.91591E-01 -2.38650E-01  2.47333E-01 -1.63898E-01  4.18680E-02  2.66990E-01  9.39838E-02 -1.22663E-01
   2.58477E-01  1.78837E-01  3.05269E-01  5.03020E-01  1.33975E-01 -5.90019E-02 -4.47467E-02  2.21738E-01  1.25642E-01  1.51252E-01
   2.24345E-01  2.48500E-02 -8.74988E-02  1.47045E-01  2.12769E-01  2.25999E-01  2.84341E-01  3.49171E-04  1.67977E-02  2.44505E-01
   2.91700E-01  2.41732E-01 -8.11962E-02  1.23306E-01  3.68652E-01  1.67235E-01  4.09444E-01  6.16002E-01  2.67186E-01 -3.08262E-01
   1.37379E-01  2.46641E-01  6.64630E-02  1.30365E-01  7.93032E-02 -9.16154E-03 -2.57640E-01  1.52768E-01  1.18701E-01 -1.58289E-01
  -3.66174E-01 -2.08054E-01 -2.20663E-01 -1.32731E-01 -1.84719E-01 -2.12302E-01 -1.68785E-02 -2.27774E-01  1.55816E-01  1.20732E-01
   2.71739E-01 -2.74342E-01 -2.24177E-01  1.34115E-01 -8.21271E-02  9.11493E-02  6.25520E-02  8.76200E-02 -2.72581E-01 -5.98522E-03
  -1.62120E-01  7.00133E-02 -1.56122E-01 -2.25596E-01  2.06217E-01 -2.57795E-01  8.54588E-02 -1.45942E-01 -2.89557E-01  8.39940E-02
   1.37753E-01 -2.04964E-02  2.94119E-01  7.43334E-02 -7.82685E-02  2.63017E-01 -4.77743E-03  2.07395E-01 -1.70664E-01 -1.44415E-01
   2.35133E-01 -2.96373E-01 -2.35483E-01 -2.67194E-02 -2.81579E-01 -2.12131E-01 -1.54068E-02  1.62761E-01  1.31087E-01  1.41736E-01
   1.17857E-01 -1.76524E-01 -4.99148E-02 -1.18585E-01 -2.79291E-01 -3.71641E-01 -4.68674E-01 -4.37910E-02 -4.26863E-02 -4.64706E-01
  -6.11849E-02 -2.24434E-02 -1.24892E-01  1.28628E-01 -4.32266E-02  1.84016E-01  2.61227E-01  2.71784E-02 -4.93197E-02 -2.03333E-01
  -1.25970E-01 -2.99169E-02 -1.88961E-01 -2.43683E-02 -4.77563E-03 -1.32088E-02 -1.45378E-01 -3.40723E-01 -9.28367E-02 -1.28532E-01
   2.76204E-01  4.45494E-01  6.61397E-03  4.05878E-02  1.95190E-01 -1.52700E-01 -2.60677E-02  4.27678E-01  1.51687E-01  4.58181E-02
   3.79977E-02  7.65441E-02  3.61070E-01  3.88618E-01  2.01902E-01  1.76326E-01  1.11782E-01  1.37065E-01  2.25697E-01  2.21834E-01
   6.30793E-02 -4.63005E-02  1.87725E-01  1.32639E-02 -1.41440E-01  1.60276E-01  1.98212E-01 -1.12326E-01 -2.31595E-01 -2.30658E-01
  -6.14117E-02  2.49962E-01 -1.46990E-02 -5.92717E-01 -1.76652E-01  7.43860E-02 -3.77783E-01 -2.91455E-01 -3.85554E-01 -3.82512E-01
  -2.20231E-01 -2.50889E-01 -3.59569E-01 -2.69259E-01 -3.87162E-01 -4.92354E-01 -2.91308E-01 -2.32201E-01 -1.24822E-01 -2.17904E-01
  -1.42371E-01 -1.10070E-01 -8.89649E-02 -3.39723E-01 -1.06880E-01 -2.63047E-02 -2.23565E-02  3.09697E-01 -1.80286E-01  3.98896E-03
  -1.85944E-01 -1.03797E-01  2.15695E-01  1.07177E-01  3.05492E-01  1.58870E-01  1.09427E-01  1.33713E-02  1.10110E-01  1.73348E-01
   1.11877E-01 -6.73672E-02 -4.81372E-02  1.76740E-01  3.43999E-01  2.39273E-01  1.57038E-01  2.50699E-01 -3.93917E-02  1.27463E-01
   3.27079E-01  2.30668E-01  6.21447E-04  2.14808E-01  9.41190E-02 -6.00801E-03  2.59750E-01 -2.03301E-01  1.49489E-01 -5.32931E-03
  -2.79863E-01  1.80119E-01  2.83699E-01  1.31372E-01 -2.92245E-02  2.02847E-01  2.84765E-02  4.63451E-02  1.97332E-01  6.71789E-02
   3.48894E-02  2.57237E-01  1.30862E-01 -9.66437E-02  1.23072E-01 -5.95509E-02  4.63140E-02  3.44833E-01  3.52027E-01  9.35230E-02
   4.26612E-02  1.30734E-01  5.63017E-02  2.47852E-01  6.57352E-02 -2.29440E-01  1.09502E-02  1.97101E-01 -9.83037E-02 -2.16425E-01
   9.76248E-03  1.28158E-01  5.38095E-02  1.24483E-02  3.29800E-01  3.67288E-01  1.73988E-02  1.14262E-01 -7.46558E-02 -2.11841E-01
  -8.76614E-02 -3.10250E-02 -8.21221E-02 -2.12335E-01  1.51517E-01 -2.11086E-01 -1.12214E-01  1.14492E-02 -2.07349E-01  4.36815E-02
  -1.45262E-01  1.86916E-01  2.70708E-01 -1.37167E-01  3.24236E-02  2.98626E-01 -1.26193E-01 -4.52103E-02  1.01676E-01 -2.08254E-02
  -2.86794E-02 -1.62764E-02  1.42986E-01 -1.51095E-01  2.68711E-02  1.03623E-01  3.94512E-03 -4.59592E-02  1.71521E-01  2.00366E-01
  -1.09604E-01  5.38674E-02  1.92891E-01 -1.74906E-01
 NY points of the fit to the data follow
   1.42648E-02  1.19692E-02  2.07011E-02  2.58838E-02  2.34259E-02  1.77288E-02  1.58280E-02  2.19241E-02  3.65795E-02  5.68518E-02
   7.81281E-02  1.04206E-01  1.41691E-01  1.83455E-01  2.16026E-01  2.38964E-01  2.47291E-01  2.38681E-01  2.31824E-01  2.31202E-01
   2.27677E-01  2.10000E-01  1.67333E-01  1.01889E-01  2.73913E-02 -3.96522E-02 -8.31888E-02 -1.00076E-01 -1.09618E-01 -1.26427E-01
  -1.43281E-01 -1.58284E-01 -1.70052E-01 -1.77976E-01 -1.81976E-01 -1.80674E-01 -1.72048E-01 -1.55095E-01 -1.31264E-01 -1.01095E-01
  -6.58799E-02 -2.84347E-02  1.11686E-02  5.17614E-02  9.14967E-02  1.27322E-01  1.56701E-01  1.76618E-01  1.83419E-01  1.76745E-01
   1.55952E-01  1.23061E-01  8.13482E-02  3.21448E-02 -1.89468E-02 -6.86848E-02 -1.16095E-01 -1.58197E-01 -1.94994E-01 -2.24482E-01
  -2.41101E-01 -2.45917E-01 -2.42432E-01 -2.22642E-01 -1.88040E-01 -1.48945E-01 -9.72124E-02 -3.91119E-02  1.03636E-02  5.62660E-02
   9.15537E-02  1.10359E-01  1.18409E-01  1.12588E-01  9.20971E-02  5.78174E-02  2.55765E-03 -6.32418E-02 -1.09955E-01 -1.37312E-01
  -1.48054E-01 -1.25179E-01 -8.63038E-02 -5.02808E-02 -6.08056E-03  4.93622E-02  1.13484E-01  1.87007E-01  2.60014E-01  3.17667E-01
   3.46946E-01  3.39935E-01  3.07538E-01  2.67775E-01  2.20740E-01  1.71713E-01  1.36445E-01  1.14676E-01  1.00931E-01  9.55007E-02
   9.76013E-02  1.02902E-01  1.11128E-01  1.22689E-01  1.39302E-01  1.63629E-01  1.94020E-01  2.25107E-01  2.50399E-01  2.65262E-01
   2.69019E-01  2.65499E-01  2.60302E-01  2.54094E-01  2.47934E-01  2.40049E-01  2.28079E-01  2.12424E-01  1.91301E-01  1.61996E-01
   1.25885E-01  8.57187E-02  3.88913E-02 -1.05061E-02 -5.38176E-02 -9.79108E-02 -1.46345E-01 -1.96053E-01 -2.48207E-01 -2.94088E-01
  -3.24302E-01 -3.42054E-01 -3.61140E-01 -3.81436E-01 -3.91247E-01 -3.87329E-01 -3.63452E-01 -3.21011E-01 -2.80302E-01 -2.53001E-01
  -2.39415E-01 -2.25769E-01 -1.94099E-01 -1.36777E-01 -6.43684E-02  9.10167E-03  6.28792E-02  8.64227E-02  9.64537E-02  1.11496E-01
   1.26619E-01  1.41384E-01  1.56001E-01  1.70932E-01  1.86774E-01  2.04236E-01  2.24469E-01  2.52463E-01  2.85193E-01  3.12659E-01
   3.26816E-01  3.24325E-01  3.14141E-01  3.04573E-01  2.81334E-01  2.26544E-01  1.52826E-01  6.95742E-02 -1.88508E-02 -8.45279E-02
  -1.31528E-01 -1.86820E-01 -2.60498E-01 -3.47045E-01 -4.22603E-01 -4.58669E-01 -4.43659E-01 -3.83639E-01 -3.04165E-01 -2.47134E-01
  -2.26442E-01 -2.14745E-01 -2.03032E-01 -1.92582E-01 -1.83078E-01 -1.74202E-01 -1.65659E-01 -1.56988E-01 -1.48377E-01 -1.40453E-01
  -1.33374E-01 -1.26474E-01 -1.18900E-01 -1.10645E-01 -1.02170E-01 -9.38286E-02 -8.58879E-02 -7.82465E-02 -7.02128E-02 -6.19511E-02
  -5.44453E-02 -4.84558E-02 -4.38242E-02 -4.00903E-02 -3.66342E-02 -3.36514E-02 -3.17676E-02 -3.14494E-02 -3.31999E-02 -3.61959E-02
  -3.88737E-02 -4.06750E-02 -4.17840E-02 -4.28031E-02 -4.45459E-02 -4.60150E-02 -4.47275E-02 -3.89442E-02 -2.88721E-02 -1.71823E-02
  -4.87840E-03  1.15705E-02  3.38039E-02  5.78384E-02  7.97243E-02  9.78611E-02  1.12492E-01  1.27075E-01  1.41591E-01  1.52946E-01
   1.57769E-01  1.50099E-01  1.30745E-01  1.07272E-01  8.35939E-02  6.15367E-02  4.08582E-02  1.73827E-02 -1.17814E-02 -4.21674E-02
  -6.63305E-02 -7.92512E-02 -8.32695E-02 -8.59947E-02 -9.00755E-02 -9.44524E-02 -9.97349E-02 -1.04601E-01 -1.08287E-01 -1.10996E-01
  -1.12582E-01 -1.13563E-01 -1.12862E-01 -1.08068E-01 -9.94276E-02 -9.00304E-02 -7.83131E-02 -6.29355E-02 -4.91400E-02 -3.41323E-02
  -1.52038E-02  5.11671E-03  2.53344E-02  4.34642E-02  5.89583E-02  6.91123E-02  7.32075E-02  7.31188E-02  7.01798E-02  6.38737E-02
   5.12487E-02  3.67825E-02  2.07535E-02 -2.99586E-04 -2.68240E-02 -5.69063E-02 -8.72594E-02 -1.17294E-01 -1.43047E-01 -1.60832E-01
  -1.69812E-01 -1.67383E-01 -1.51938E-01 -1.24527E-01 -8.75935E-02 -4.32481E-02  1.54364E-03  4.54103E-02  9.10822E-02  1.38040E-01
   1.86822E-01  2.32685E-01  2.66520E-01  2.81795E-01  2.77023E-01  2.56456E-01  2.29960E-01  2.06799E-01  1.89576E-01  1.79287E-01
   1.73605E-01  1.68464E-01  1.63519E-01  1.58279E-01  1.52369E-01  1.45591E-01  1.37723E-01  1.28654E-01  1.17616E-01  1.04052E-01
   8.73618E-02  6.72562E-02  4.36344E-02  1.65866E-02 -1.37186E-02 -4.63382E-02 -7.99301E-02 -1.12745E-01 -1.43085E-01 -1.68870E-01
  -1.88876E-01 -2.02704E-01 -2.09108E-01 -2.08930E-01 -2.02332E-01 -1.89849E-01 -1.73144E-01 -1.53425E-01 -1.32947E-01 -1.13040E-01
  -9.56688E-02 -8.00913E-02 -7.34731E-02 -8.65331E-02 -1.21321E-01 -1.74124E-01 -2.30906E-01 -2.84412E-01 -3.45780E-01 -4.21144E-01
  -4.89810E-01 -5.36545E-01 -5.61989E-01 -5.53825E-01 -5.27189E-01 -5.13623E-01 -5.12711E-01 -5.06326E-01 -4.68515E-01 -3.84756E-01
  -2.65527E-01 -1.39158E-01 -3.89170E-02  7.06241E-03  7.58190E-03  3.48272E-03  7.40687E-03  1.12849E-02  1.42942E-02  1.65095E-02
   1.81953E-02  1.95808E-02  2.07625E-02  2.19695E-02  2.33433E-02  2.48806E-02  2.67184E-02  2.88943E-02  3.13954E-02  3.42819E-02
   3.75099E-02  4.09002E-02  4.43282E-02  4.76936E-02  5.08096E-02  5.38041E-02  5.67115E-02  5.95017E-02  6.21667E-02  6.45968E-02
   6.68186E-02  6.89566E-02  7.10840E-02  7.31613E-02  7.52159E-02  7.71448E-02  7.88967E-02  8.05530E-02  8.21600E-02  8.36495E-02
   8.48658E-02  8.56710E-02  8.59922E-02  8.59161E-02  8.55201E-02  8.47551E-02  8.35361E-02  8.16660E-02  7.90498E-02  7.57361E-02
   7.18563E-02  6.75704E-02  6.30681E-02  5.84574E-02  5.36874E-02  4.88051E-02  4.38309E-02  3.88318E-02  3.39310E-02  2.92919E-02
   2.49619E-02  2.09469E-02  1.72557E-02  1.38285E-02  1.06504E-02  7.73116E-03  5.11173E-03  2.89367E-03  1.05661E-03 -4.47931E-04
  -1.56892E-03 -2.26311E-03 -2.53482E-03 -2.32713E-03 -1.68094E-03 -6.35494E-04  9.12302E-04  2.95347E-03  5.38162E-03  8.14727E-03
   1.12441E-02  1.46703E-02  1.85068E-02  2.27767E-02  2.74303E-02  3.23735E-02  3.75146E-02  4.29470E-02  4.88777E-02  5.54441E-02
   6.26665E-02  7.03616E-02  7.82241E-02  8.60309E-02  9.36706E-02  1.01120E-01  1.08315E-01  1.15012E-01  1.20938E-01  1.25887E-01
   1.29712E-01  1.32382E-01  1.33880E-01  1.34081E-01  1.32880E-01  1.30296E-01  1.26449E-01  1.21619E-01  1.16079E-01  1.09991E-01
   1.03412E-01  9.63511E-02  8.89245E-02  8.13694E-02  7.38888E-02  6.67280E-02  6.00874E-02  5.39864E-02  4.84250E-02  4.34167E-02
   3.89920E-02  3.52869E-02  3.23776E-02  3.02533E-02  2.89012E-02  2.83139E-02  2.83918E-02  2.91103E-02  3.04824E-02  3.23995E-02
   3.48168E-02  3.76551E-02  4.07623E-02  4.39188E-02  4.69265E-02  4.97507E-02  5.24362E-02  5.49140E-02  5.70139E-02  5.86262E-02
   5.96794E-02  6.01333E-02  6.01081E-02  5.96896E-02  5.89579E-02  5.79319E-02  5.64925E-02  5.46399E-02  5.23889E-02  4.97931E-02
   4.70083E-02  4.41702E-02  4.13007E-02  3.83818E-02  3.54600E-02  3.25551E-02  2.96469E-02  2.66628E-02  2.35299E-02  2.02640E-02
   1.67980E-02  1.30505E-02  8.93747E-03  4.38513E-03 -6.71015E-04 -6.32306E-03 -1.26923E-02 -1.99302E-02 -2.81224E-02 -3.72074E-02
  -4.70057E-02 -5.74014E-02 -6.82336E-02 -7.92423E-02 -9.03004E-02 -1.01308E-01 -1.12063E-01 -1.22206E-01 -1.31293E-01 -1.39010E-01
  -1.45246E-01 -1.49949E-01 -1.53147E-01 -1.54933E-01 -1.55284E-01 -1.54164E-01 -1.51753E-01 -1.48228E-01 -1.43725E-01 -1.38383E-01
  -1.32386E-01 -1.25891E-01 -1.18949E-01 -1.11660E-01 -1.04210E-01 -9.66805E-02 -8.90611E-02 -8.13009E-02 -7.33855E-02 -6.53596E-02
  -5.73888E-02 -4.96590E-02 -4.22499E-02 -3.52076E-02 -2.85255E-02 -2.22702E-02 -1.64761E-02 -1.10667E-02 -6.10833E-03 -1.66853E-03
   2.37131E-03  6.01971E-03  9.22032E-03  1.20853E-02  1.46559E-02  1.68820E-02  1.88297E-02  2.05888E-02  2.22344E-02  2.37619E-02
   2.51576E-02  2.64393E-02  2.76343E-02  2.87262E-02  2.97180E-02  3.06165E-02  3.14151E-02  3.21952E-02  3.29274E-02  3.35093E-02
   3.39464E-02  3.42030E-02  3.42745E-02  3.42502E-02  3.41957E-02  3.41987E-02  3.42491E-02  3.41943E-02  3.40301E-02  3.38685E-02
   3.36689E-02  3.34608E-02  3.33771E-02  3.33083E-02  3.31138E-02  3.27938E-02  3.24275E-02  3.21693E-02  3.21335E-02  3.23734E-02
   3.28346E-02  3.33216E-02  3.36956E-02  3.40390E-02  3.44932E-02  3.50377E-02  3.56577E-02  3.63810E-02  3.71439E-02  3.78294E-02
   3.83662E-02  3.88221E-02  3.92607E-02  3.97362E-02  4.03024E-02  4.09189E-02  4.15566E-02  4.21667E-02  4.27610E-02  4.34337E-02
   4.42644E-02  4.52977E-02  4.64702E-02  4.75140E-02  4.82879E-02  4.89015E-02  4.95166E-02  5.02109E-02  5.09429E-02  5.15759E-02
   5.20238E-02  5.22654E-02  5.24500E-02  5.27599E-02  5.32494E-02  5.39055E-02  5.46617E-02  5.53729E-02  5.60580E-02  5.68948E-02
   5.79039E-02  5.90854E-02  6.04265E-02  6.18660E-02  6.34712E-02  6.53049E-02  6.73207E-02  6.95089E-02  7.18200E-02  7.41724E-02
   7.66592E-02  7.93942E-02  8.23571E-02  8.55168E-02
 NY background values follow
     5.091E-02    5.075E-02    5.058E-02    5.042E-02    5.026E-02    5.010E-02    4.994E-02    4.977E-02    4.961E-02    4.945E-02
     4.929E-02    4.913E-02    4.897E-02    4.880E-02    4.864E-02    4.848E-02    4.832E-02    4.816E-02    4.799E-02    4.783E-02
     4.767E-02    4.751E-02    4.735E-02    4.718E-02    4.702E-02    4.686E-02    4.670E-02    4.654E-02    4.637E-02    4.621E-02
     4.605E-02    4.589E-02    4.572E-02    4.556E-02    4.540E-02    4.524E-02    4.508E-02    4.491E-02    4.475E-02    4.459E-02
     4.443E-02    4.427E-02    4.410E-02    4.394E-02    4.378E-02    4.362E-02    4.345E-02    4.329E-02    4.313E-02    4.297E-02
     4.281E-02    4.264E-02    4.248E-02    4.232E-02    4.216E-02    4.199E-02    4.183E-02    4.167E-02    4.151E-02    4.134E-02
     4.118E-02    4.102E-02    4.086E-02    4.069E-02    4.053E-02    4.037E-02    4.021E-02    4.004E-02    3.988E-02    3.972E-02
