 
 $NMID
 ID=''
 FMTDAT='(2E13.5)'
 TRAMP=   1.00000E+0
 VOLUME=   1.00000E+0
 $END
  -3.73305E+2   3.02197E+2
  -1.30113E+3   2.21405E+3
   3.74360E+3   2.38923E+3
   6.36108E+3   6.52941E+1
   3.23479E+3  -4.21807E+3
   8.73936E+2  -2.41249E+3
  -5.57636E+2   1.12405E+3
   3.46314E+2  -2.05655E+3
   1.52921E+2  -3.45961E+3
   7.67375E+1  -5.53807E+3
   2.19109E+3  -3.97248E+3
   3.08849E+3   1.39690E+3
  -9.60397E+2   2.09545E+3
  -4.17169E+3   2.80095E+3
  -4.83248E+3  -1.92481E+3
  -3.75601E+2  -1.42058E+3
   1.84014E+3  -5.85231E+0
  -6.50397E+2   1.24027E+3
  -3.09936E+1   1.51560E+3
  -1.28853E+3   7.34261E+2
   2.67979E+3   2.40681E+3
   1.07966E+3   5.68147E+3
  -1.90410E+3   2.77190E+3
  -1.15977E+3  -2.74603E+3
   2.29445E+3  -1.33947E+3
   4.79979E+1   3.52143E+3
  -1.14401E+3   2.51462E+3
  -2.61748E+3  -3.31747E+3
   1.59937E+3  -5.43912E+3
   4.08557E+3  -3.78248E+3
   3.59776E+3   4.33342E+3
  -2.07340E+3   5.50184E+3
  -6.05350E+3   1.14421E+2
  -9.00048E+2  -4.27017E+2
  -9.45006E+2  -5.57265E+2
  -3.26320E+3  -4.44831E+3
   2.50794E+3  -4.33407E+3
   6.00606E+3  -8.68026E+2
   2.21785E+3   1.12362E+3
   2.14848E+3   1.91023E+3
  -8.84834E+2   3.12771E+3
  -5.12021E+3   3.14098E+2
  -1.03476E+3  -7.81297E+3
   6.27137E+3  -4.41527E+3
   5.54365E+3   2.28127E+3
   2.20889E+3   1.08973E+3
   3.23641E+3   2.07359E+3
   9.72054E+2   3.03007E+3
  -1.15830E+3   4.38331E+3
  -2.42399E+3   2.47973E+3
  -5.36107E+2   2.47333E+2
   4.32289E+2  -1.82435E+3
   1.90689E+3  -7.44815E+2
   2.43465E+2   4.44427E+3
  -1.61515E+3   2.59900E+3
  -2.73926E+3   1.58592E+3
  -4.14243E+3  -1.24223E+3
  -2.46695E+3  -3.65352E+3
  -2.83321E+3  -5.23545E+3
   2.51685E+3  -5.34856E+3
   2.36130E+3  -6.71789E+2
   2.69299E+3   1.57485E+3
   1.65258E+3   3.10449E+3
  -2.72817E+3   1.98346E+3
   1.30929E+2  -1.96004E+3
   1.64804E+3   1.35241E+3
  -7.84922E+2   3.71594E+3
  -3.21121E+3  -8.71484E+2
  -4.80751E+3  -2.79877E+3
   2.10191E+2   7.07537E+2
   1.68950E+2  -1.36347E+2
  -9.97434E+2  -6.96666E+2
  -2.18527E+3  -1.23544E+3
  -2.95652E+3  -2.35352E+3
  -9.84548E+2  -1.15379E+2
   6.04474E+2   4.52072E+2
  -1.95873E+3  -2.80997E+3
   1.25761E+3  -2.41974E+3
   1.10658E+3   1.27443E+3
   3.14444E+3   1.40925E+3
  -6.43790E+2   1.20280E+3
  -3.31648E+3   1.27326E+3
   7.89063E+2  -9.91847E+2
   3.11263E+2   1.72330E+3
  -1.40167E+3   2.33033E+2
  -2.34497E+3  -1.62851E+3
  -2.66216E+3  -2.40541E+3
   2.35802E+3  -2.71217E+3
   3.44154E+3   8.36706E+2
   1.60888E+2   2.42246E+3
   6.20167E+2  -7.91995E+2
   1.22858E+3   1.54337E+3
   1.29751E+3   1.48796E+3
  -2.01156E+3   5.66112E+2
  -2.83709E+3  -1.56459E+2
  -2.56187E+2  -3.85043E+3
   2.79498E+3  -1.75639E+3
   1.01727E+3   9.00326E+2
  -1.58973E+3   8.87852E+2
  -2.41630E+3  -3.72494E+3
   3.64238E+3  -2.77027E+3
   6.34795E+3   3.42789E+2
   2.41453E+3   2.91776E+3
   1.09697E+3   1.13050E+3
  -1.73574E+3   2.83578E+3
  -1.10340E+3   9.29566E+2
  -8.97191E+2   1.21830E+3
  -1.28446E+3  -7.68688E+1
  -3.73809E+2  -2.93003E+3
   1.76959E+3  -2.47548E+3
   5.19612E+3   1.88667E+3
   3.32244E+3   1.98736E+3
   1.91250E+3   1.34631E+3
   2.06972E+3   2.89411E+3
  -1.35771E+3   2.68022E+3
  -3.48569E+3  -2.13111E+2
  -5.04371E+2  -9.85847E+2
   1.07029E+3   1.24877E+2
   4.19588E+2  -3.83711E+2
   3.90457E+3  -3.78424E+1
  -9.55685E+2  -1.37276E+3
  -1.32439E+3   1.83805E+3
  -8.04852E+2  -2.81589E+2
   2.26847E+3  -3.67516E+2
   1.61913E+3   2.63988E+3
  -4.39285E+1   8.50859E+1
  -1.86197E+2   2.70157E+3
   1.52336E+3   1.01050E+3
   2.97460E+2   1.85444E+3
  -1.37031E+3   2.54652E+3
  -6.42368E+1  -1.12673E+3
   1.53058E+3  -3.66485E+2
   2.53806E+3   4.28144E+2
   1.12704E+3   2.66410E+3
  -9.55106E+2   1.68955E+3
  -1.42091E+3   9.48923E+1
  -1.16852E+3  -4.12656E+2
   8.65011E+2   2.59865E+2
   1.13486E+3  -3.28944E+2
  -3.15489E+2  -1.61942E+3
   1.23307E+3  -1.78626E+3
   1.85730E+3  -6.99187E+2
   2.29522E+3   1.55234E+3
   1.15304E+3   4.58370E+2
  -2.26156E+2   1.58312E+3
   3.82350E+2  -1.66193E+1
   9.17638E+1   3.63206E+2
  -9.61907E+2   1.41443E+3
   3.74165E+2   7.51116E+2
   1.41024E+2  -1.31233E+3
   3.08557E+2   2.10626E+3
  -5.02090E+2  -8.76431E+2
   9.87265E+2  -2.92169E+3
   4.08943E+3  -1.06557E+3
   2.69834E+3   5.66881E+2
   1.04860E+3   1.14038E+3
  -6.35516E+2  -9.81533E+2
  -2.23793E+2  -8.85063E+2
  -3.41759E+2  -1.30126E+3
   3.19670E+2  -1.70726E+3
  -5.03444E+2  -9.29840E+2
  -1.25667E+3  -5.37544E+2
  -1.64901E+3   9.68338E+1
   1.79187E+3   2.58324E+2
  -7.94695E+2   1.91751E+3
  -1.57839E+3  -1.22000E+2
  -7.16968E+2  -1.26859E+3
   2.95387E+3  -1.35196E+2
   9.48529E+2   1.78411E+3
  -3.46602E+3   2.52335E+3
  -1.56856E+3   1.43553E+3
  -2.51566E+3  -1.72883E+3
   6.87145E+2  -1.97936E+3
   5.35363E+2  -5.87173E+2
   4.91734E+2  -1.04977E+3
  -2.34516E+2  -1.05384E+3
   1.05786E+3  -7.02305E+2
  -3.62788E+2   2.83633E+3
  -2.38404E+3   1.04996E+3
  -2.78373E+3  -9.93423E+2
  -1.39348E+3  -6.04544E+2
   1.24624E+3  -7.04702E+2
   4.89074E+2   1.21476E+3
   7.90158E+2  -4.90154E+2
  -1.74727E+2  -9.06186E+2
   7.33143E+2   9.37522E+2
  -2.50141E+3   3.93198E+3
  -4.78742E+3  -1.89955E+2
  -2.87619E+3  -1.60743E+3
  -2.18322E+2  -2.87181E+3
   6.69468E+2   2.87712E+2
   3.94780E+2   1.50509E+3
   5.38405E+2  -6.20415E+2
   1.23778E+2  -7.06676E+2
  -1.13216E+3   1.42015E+3
  -8.89480E+2   1.07248E+3
  -1.95801E+2   8.84982E+2
  -8.84501E+2  -9.90852E+1
  -3.72922E+2   3.36220E+2
   2.90246E+3   1.83977E+3
  -2.44951E+3   1.89260E+3
  -2.33476E+3  -1.94367E+3
  -1.88571E+2  -2.02097E+3
   3.53277E+3   5.64779E+2
   1.65891E+2  -5.35592E+2
  -2.59244E+3  -4.56812E+2
  -1.02823E+3  -1.67982E+3
  -1.28600E+2  -1.29086E+3
   1.61367E+3   8.98362E+2
  -3.14689E+2   9.25765E+2
  -1.33122E+3  -4.17715E+2
  -1.71658E+3  -2.89636E+3
   1.54730E+3  -1.16462E+3
   1.89834E+3   1.84859E+3
  -2.17945E+3   6.02052E+2
  -1.63551E+3   5.81491E+2
  -8.41303E+2  -1.13836E+3
  -9.04101E+1   6.32504E+2
  -3.32561E+2   6.47198E+2
  -1.18858E+3  -2.17439E+3
   7.59341E+2   1.80020E+3
   2.36404E+2  -7.91457E+1
  -7.94219E+2   1.10689E+3
  -2.38640E+3   1.48372E+3
   3.24644E+2  -1.56258E+3
  -4.08651E+2  -2.11021E+3
   7.11661E+2   2.86852E+3
   1.79096E+2   1.10125E+3
  -1.27480E+3   6.20856E+2
  -1.70107E+3  -1.08823E+3
   1.21192E+2  -6.39942E+2
  -9.20699E+2   1.85566E+3
  -1.02217E+3  -5.63257E+2
  -3.94377E+2  -9.34628E+2
   2.38055E+3   1.16903E+2
   1.60422E+3   3.21098E+3
  -2.41029E+3   1.29142E+3
   5.54406E+2  -7.74288E+2
  -5.09798E+2  -2.24972E+3
   1.29231E+3  -8.03457E+2
   7.04741E+2  -2.11291E+2
   9.41092E+2   8.48986E+2
  -1.03896E+3  -6.05140E+2
  -7.70119E+2  -2.01335E+3
   1.52700E+3   9.15969E+2
  -2.57214E+2  -1.66959E+3
  -1.29401E+3  -2.15451E+3
   2.02442E+3  -1.56338E+3
   1.86403E+3   1.49945E+2
   1.05351E+3   1.71333E+3
  -9.70634E+2   1.21636E+3
  -2.95038E+3   9.40641E+1
  -1.18479E+3  -2.61920E+3
   8.53763E+1  -1.41110E+3
   1.83600E+3  -8.48826E+2
  -8.62543E+2  -1.28099E+3
   1.60201E+3  -1.15705E+2
   1.53443E+3  -7.21728E+2
   9.69972E+1   1.45955E+3
  -1.53861E+3   2.18957E+2
  -1.07491E+3  -2.31598E+2
   1.75028E+3   5.32446E+2
   1.26192E+3  -3.87057E+2
   1.57614E+3   8.34786E+1
  -7.51290E+2  -6.98562E+2
   2.76913E+2  -1.70774E+3
  -2.37515E+2   7.02397E+2
  -4.16394E+2   1.55964E+3
  -2.96728E+3   5.04248E+2
   2.56379E+2  -3.44838E+3
   2.10170E+3  -7.25620E+2
   6.55435E+2   8.79301E+2
  -1.11109E+3   2.65903E+3
  -2.42722E+3  -8.97348E+2
   1.37164E+3   2.51550E+1
  -8.06553E+2  -2.92959E+2
   1.11255E+3  -8.31714E+2
  -2.69195E+2   8.26079E+1
   8.79901E+2  -1.38236E+3
   1.14617E+3   3.00203E+2
   6.97266E+1   8.50399E+2
  -2.29060E+3   5.36575E+2
  -1.75225E+3  -7.56677E+2
   8.22032E+2  -3.43190E+3
  -4.76842E+2  -1.04403E+3
  -1.53571E+2  -1.29526E+2
  -1.70538E+3  -9.38330E+2
   1.46482E+3  -1.39100E+1
   4.84120E+2   6.86151E+2
   6.23970E+2  -5.12221E+2
   6.22305E+2   3.04458E+3
   1.15593E+3   6.36135E+2
  -5.91666E+2  -2.24462E+3
  -1.02453E+3   3.52671E+0
  -1.57220E+2   8.31580E+2
  -1.53010E+3  -1.01705E+3
   9.26610E+2  -2.09897E+3
   6.12052E+2  -1.02729E+3
   1.57696E+3   3.61564E+2
  -6.46144E+2  -1.84033E+2
   4.25974E+2   3.46759E+2
   1.31178E+3   3.88613E+2
  -2.50039E+2   1.72836E+3
  -8.76031E+2   1.84081E+3
  -2.25753E+3  -4.20332E+2
   2.14244E+3  -1.53094E+3
   1.54739E+3  -4.80502E+2
   1.50780E+3   1.36035E+3
  -2.45654E+3   2.08733E+3
  -1.85973E+3  -7.41963E+2
   2.29649E+2  -2.36294E+3
   1.61217E+3  -1.82275E+3
   7.53267E+2  -1.75783E+3
   1.02443E+3   1.21061E+3
   4.08814E+2  -6.27515E+2
   9.34942E+2   3.68209E+2
  -1.44583E+3   3.00753E+3
  -1.95553E+3  -9.84343E+2
  -2.35999E+3  -7.38461E+2
   2.24686E+3  -1.58488E+3
   1.16917E+3  -2.56706E+2
   3.67932E+2   2.29746E+3
   5.41089E+2  -2.79110E+2
   1.83672E+3  -1.17229E+2
  -1.24159E+3   8.38845E+2
  -1.64410E+3   5.13999E+2
  -5.05512E+2  -9.91611E+2
  -1.84144E+3  -1.84840E+3
   1.55738E+3  -8.54134E+2
   1.95423E+2   1.97028E+3
   1.20701E+2   6.77643E+2
  -2.49949E+3  -7.35667E+1
  -1.45428E+3  -1.50664E+3
  -3.44688E+2  -1.61641E+3
   1.32451E+3  -3.81351E+1
  -1.32891E+3  -7.06687E+1
   1.02634E+3  -7.67053E+2
  -1.01105E+2   7.94042E+2
   1.87741E+3  -9.08936E+2
  -6.53930E+2   1.86905E+2
  -7.13232E+2  -1.88576E+2
  -1.36637E+3  -2.04523E+3
   6.82837E+2   1.35883E+2
   8.57688E+2   1.31832E+3
  -1.53653E+3  -2.48057E+2
  -1.73351E+3  -5.36953E+2
  -6.18762E+1  -4.63713E+1
  -6.94501E+2  -6.83621E+2
  -2.49800E+2  -8.80170E+2
  -2.64598E+2  -1.20760E+3
  -2.79719E+1  -7.44526E+2
   1.85527E+3  -2.20193E+2
  -2.68839E+2  -7.64667E+1
   1.37373E+3  -1.72458E+2
  -7.86396E+2  -3.46635E+2
   3.31295E+3  -1.56038E+3
   3.38639E+2   1.12090E+3
  -6.99127E+2   1.09201E+3
  -2.31068E+3  -3.81880E+2
   3.07532E+2  -2.47910E+2
  -1.23749E+3  -2.04550E+3
  -1.03208E+3   6.88789E+2
   5.02097E+2  -1.45217E+3
  -8.36898E+2  -1.64418E+3
   1.43924E+3  -2.42330E+3
   1.89176E+2   9.96743E+1
   1.28276E+1   2.05023E+2
