 
 $NMID
 ID=''
 FMTDAT='(2E13.5)'
 TRAMP=   1.00000E+0
 VOLUME=   1.00000E+0
 $END
  -1.96706E+4   7.70315E+3
  -5.42316E+4   4.54595E+3
  -5.23801E+4   1.38136E+4
  -4.84008E+4   1.27022E+4
  -5.07379E+4   1.17015E+4
  -5.01671E+4   1.39115E+4
  -4.83280E+4   1.26760E+4
  -4.93376E+4   1.17509E+4
  -4.89302E+4   1.30291E+4
  -4.77970E+4   1.22969E+4
  -4.82470E+4   1.16174E+4
  -4.77825E+4   1.24985E+4
  -4.69556E+4   1.21971E+4
  -4.74334E+4   1.15132E+4
  -4.69772E+4   1.19793E+4
  -4.61993E+4   1.16387E+4
  -4.64018E+4   1.12698E+4
  -4.60904E+4   1.16027E+4
  -4.53949E+4   1.13562E+4
  -4.55751E+4   1.09595E+4
  -4.51973E+4   1.11150E+4
  -4.45870E+4   1.10295E+4
  -4.47183E+4   1.07744E+4
  -4.45065E+4   1.07968E+4
  -4.37331E+4   1.05266E+4
  -4.37415E+4   1.04617E+4
  -4.35484E+4   1.04028E+4
  -4.29864E+4   1.00804E+4
  -4.27939E+4   9.74195E+3
  -4.24654E+4   9.76507E+3
  -4.20132E+4   9.74978E+3
  -4.19243E+4   9.66882E+3
  -4.16769E+4   9.51901E+3
  -4.12722E+4   9.40314E+3
  -4.10776E+4   9.34685E+3
  -4.08185E+4   9.42721E+3
  -4.04644E+4   9.31773E+3
  -4.02101E+4   9.26715E+3
  -3.99913E+4   9.32077E+3
  -3.96538E+4   9.34250E+3
  -3.95289E+4   9.18543E+3
  -3.93068E+4   9.05379E+3
  -3.89945E+4   8.85717E+3
  -3.87473E+4   8.76389E+3
  -3.84944E+4   8.73783E+3
  -3.81888E+4   8.69789E+3
  -3.79966E+4   8.54996E+3
  -3.77547E+4   8.53225E+3
  -3.74706E+4   8.41791E+3
  -3.72897E+4   8.42103E+3
  -3.70125E+4   8.26734E+3
  -3.66787E+4   8.21972E+3
  -3.64626E+4   8.24934E+3
  -3.61805E+4   8.24209E+3
  -3.59561E+4   8.18347E+3
  -3.58524E+4   8.01944E+3
  -3.56532E+4   8.04301E+3
  -3.54306E+4   7.91762E+3
  -3.52005E+4   7.79125E+3
  -3.49065E+4   7.75075E+3
  -3.47093E+4   7.73508E+3
  -3.45325E+4   7.66006E+3
  -3.43884E+4   7.56775E+3
  -3.42453E+4   7.46352E+3
  -3.40666E+4   7.30054E+3
  -3.37903E+4   7.31366E+3
  -3.36915E+4   7.30602E+3
  -3.34133E+4   7.15353E+3
  -3.32628E+4   7.03678E+3
  -3.31483E+4   6.90612E+3
  -3.29301E+4   6.88114E+3
  -3.27800E+4   6.80674E+3
  -3.26455E+4   6.68264E+3
  -3.24463E+4   6.65547E+3
  -3.22463E+4   6.56478E+3
  -3.20825E+4   6.61762E+3
  -3.19153E+4   6.49022E+3
  -3.17599E+4   6.48490E+3
  -3.15389E+4   6.37236E+3
  -3.14773E+4   6.35098E+3
  -3.12525E+4   6.28083E+3
  -3.11634E+4   6.21348E+3
  -3.09615E+4   6.12841E+3
  -3.08219E+4   6.09000E+3
  -3.06640E+4   5.90437E+3
  -3.05857E+4   5.79153E+3
  -3.03818E+4   5.67480E+3
  -3.02187E+4   5.54646E+3
  -3.00847E+4   5.46550E+3
  -2.99578E+4   5.42815E+3
  -2.97572E+4   5.35609E+3
  -2.96079E+4   5.28958E+3
  -2.94598E+4   5.22038E+3
  -2.92876E+4   5.13027E+3
  -2.91489E+4   5.06221E+3
  -2.89641E+4   5.02545E+3
  -2.87314E+4   4.95247E+3
  -2.85882E+4   4.87636E+3
  -2.84610E+4   4.83819E+3
  -2.83971E+4   4.69802E+3
  -2.82490E+4   4.58555E+3
  -2.80753E+4   4.51157E+3
  -2.79217E+4   4.52352E+3
  -2.77998E+4   4.42988E+3
  -2.77018E+4   4.36322E+3
  -2.75087E+4   4.29678E+3
  -2.72982E+4   4.20294E+3
  -2.72054E+4   4.11080E+3
  -2.70948E+4   4.01887E+3
  -2.68464E+4   3.97889E+3
  -2.66456E+4   3.95199E+3
  -2.65175E+4   3.91475E+3
  -2.64308E+4   3.94698E+3
  -2.62593E+4   3.86110E+3
  -2.61111E+4   3.70003E+3
  -2.59977E+4   3.62521E+3
  -2.57777E+4   3.68512E+3
  -2.56188E+4   3.59993E+3
  -2.55220E+4   3.54972E+3
  -2.53511E+4   3.50428E+3
  -2.52619E+4   3.57047E+3
  -2.51194E+4   3.44089E+3
  -2.50087E+4   3.42372E+3
  -2.47067E+4   3.34525E+3
  -2.46024E+4   3.34652E+3
  -2.45368E+4   3.31411E+3
  -2.43624E+4   3.24407E+3
  -2.41823E+4   3.22240E+3
  -2.40103E+4   3.17118E+3
  -2.39592E+4   3.25343E+3
  -2.37904E+4   3.12367E+3
  -2.36268E+4   3.04862E+3
  -2.35011E+4   3.11831E+3
  -2.32972E+4   3.15116E+3
  -2.31885E+4   3.09013E+3
  -2.31018E+4   3.06174E+3
  -2.28853E+4   2.97654E+3
  -2.27037E+4   2.92592E+3
  -2.25334E+4   2.97058E+3
  -2.24361E+4   2.94260E+3
  -2.22482E+4   2.91524E+3
  -2.21233E+4   2.86476E+3
  -2.19600E+4   2.89719E+3
  -2.18172E+4   2.82318E+3
  -2.17697E+4   2.87971E+3
  -2.15302E+4   2.82763E+3
  -2.13961E+4   2.85631E+3
  -2.12471E+4   2.79305E+3
  -2.11033E+4   2.79336E+3
  -2.08814E+4   2.76782E+3
  -2.08134E+4   2.74856E+3
  -2.06993E+4   2.70245E+3
  -2.04863E+4   2.72331E+3
  -2.03314E+4   2.66200E+3
  -2.02242E+4   2.71885E+3
  -2.00279E+4   2.72388E+3
  -1.98924E+4   2.66294E+3
  -1.98021E+4   2.67307E+3
  -1.96681E+4   2.62954E+3
  -1.94343E+4   2.58811E+3
  -1.94042E+4   2.61223E+3
  -1.91972E+4   2.59220E+3
  -1.90190E+4   2.56344E+3
  -1.88794E+4   2.53950E+3
  -1.88010E+4   2.56609E+3
  -1.86653E+4   2.55189E+3
  -1.85200E+4   2.47087E+3
  -1.83799E+4   2.50272E+3
  -1.82758E+4   2.49725E+3
  -1.81972E+4   2.48129E+3
  -1.80903E+4   2.48445E+3
  -1.79070E+4   2.44199E+3
  -1.77821E+4   2.46139E+3
  -1.76246E+4   2.40476E+3
  -1.74276E+4   2.43976E+3
  -1.73739E+4   2.42097E+3
  -1.72204E+4   2.31936E+3
  -1.71681E+4   2.33154E+3
  -1.70551E+4   2.32232E+3
  -1.70101E+4   2.30188E+3
  -1.68522E+4   2.23849E+3
  -1.67269E+4   2.30362E+3
  -1.66062E+4   2.25496E+3
  -1.64808E+4   2.20952E+3
  -1.63536E+4   2.21465E+3
  -1.62967E+4   2.14400E+3
  -1.61421E+4   2.13803E+3
  -1.61177E+4   2.15243E+3
  -1.59700E+4   2.04554E+3
  -1.58244E+4   2.09377E+3
  -1.57015E+4   2.02909E+3
  -1.56231E+4   2.04119E+3
  -1.55583E+4   1.96846E+3
  -1.54956E+4   1.95142E+3
  -1.53897E+4   1.95649E+3
  -1.52054E+4   1.96471E+3
  -1.51752E+4   1.88160E+3
  -1.50490E+4   1.88999E+3
  -1.49811E+4   1.86220E+3
  -1.47917E+4   1.80727E+3
  -1.48571E+4   1.80320E+3
  -1.47440E+4   1.76973E+3
  -1.45883E+4   1.70049E+3
  -1.44591E+4   1.70933E+3
  -1.43924E+4   1.72180E+3
  -1.43082E+4   1.67929E+3
  -1.42238E+4   1.67384E+3
  -1.41455E+4   1.64318E+3
  -1.40162E+4   1.56354E+3
  -1.39665E+4   1.59262E+3
  -1.39434E+4   1.54668E+3
  -1.37373E+4   1.51973E+3
  -1.36931E+4   1.46488E+3
  -1.36146E+4   1.42757E+3
  -1.35542E+4   1.43510E+3
  -1.34643E+4   1.43319E+3
  -1.33777E+4   1.41800E+3
  -1.33261E+4   1.42041E+3
  -1.32243E+4   1.39263E+3
  -1.31402E+4   1.35900E+3
  -1.30630E+4   1.28177E+3
  -1.30026E+4   1.30299E+3
  -1.28847E+4   1.28706E+3
  -1.28933E+4   1.24267E+3
  -1.28143E+4   1.26485E+3
  -1.27128E+4   1.21544E+3
  -1.25980E+4   1.28065E+3
  -1.24964E+4   1.18655E+3
  -1.24573E+4   1.22341E+3
  -1.23438E+4   1.13433E+3
  -1.23763E+4   1.17392E+3
  -1.22445E+4   1.17466E+3
  -1.21909E+4   1.09708E+3
  -1.20786E+4   1.03464E+3
  -1.20279E+4   1.04545E+3
  -1.19008E+4   1.06734E+3
  -1.18643E+4   1.03211E+3
  -1.18376E+4   1.04493E+3
  -1.17872E+4   9.99964E+2
  -1.16753E+4   1.06500E+3
  -1.16293E+4   9.91408E+2
  -1.16030E+4   8.93819E+2
  -1.14750E+4   9.70978E+2
  -1.14319E+4   9.63232E+2
  -1.13463E+4   9.70270E+2
  -1.13657E+4   9.22384E+2
  -1.12153E+4   9.43958E+2
  -1.11558E+4   8.56792E+2
  -1.11015E+4   8.92469E+2
  -1.09749E+4   9.32055E+2
  -1.09802E+4   8.78000E+2
  -1.08576E+4   8.51484E+2
  -1.08818E+4   8.70245E+2
  -1.07799E+4   8.95172E+2
  -1.07563E+4   7.75024E+2
  -1.06184E+4   8.40797E+2
  -1.05961E+4   8.44434E+2
  -1.05322E+4   8.27197E+2
  -1.04531E+4   8.92938E+2
  -1.04061E+4   8.66194E+2
  -1.03786E+4   8.23705E+2
  -1.03151E+4   8.31605E+2
  -1.02463E+4   8.08910E+2
  -1.01243E+4   8.29477E+2
  -1.01937E+4   8.62091E+2
  -1.00943E+4   8.28760E+2
  -1.00596E+4   8.67955E+2
  -9.97075E+3   8.34260E+2
  -9.88171E+3   8.47450E+2
  -9.75392E+3   7.84780E+2
  -9.78770E+3   8.37530E+2
  -9.68432E+3   8.09632E+2
  -9.74572E+3   8.47393E+2
  -9.68650E+3   7.26527E+2
  -9.58610E+3   7.58097E+2
  -9.52858E+3   7.23445E+2
  -9.42572E+3   8.20321E+2
  -9.46188E+3   8.11931E+2
  -9.35853E+3   7.24799E+2
  -9.26113E+3   7.96509E+2
  -9.30238E+3   7.70472E+2
  -9.19335E+3   7.99154E+2
  -9.19920E+3   7.56386E+2
  -9.04144E+3   8.03785E+2
  -9.00708E+3   7.66519E+2
  -8.97901E+3   6.78319E+2
  -8.97937E+3   6.71530E+2
  -8.90757E+3   7.57536E+2
  -8.92194E+3   6.84205E+2
  -8.78500E+3   6.85805E+2
  -8.75142E+3   7.10292E+2
  -8.73897E+3   7.33387E+2
  -8.63874E+3   6.89354E+2
  -8.59763E+3   6.75955E+2
  -8.54972E+3   7.60880E+2
  -8.54589E+3   7.43172E+2
  -8.37236E+3   6.96478E+2
  -8.39227E+3   6.85488E+2
  -8.28370E+3   7.60773E+2
  -8.27969E+3   7.73325E+2
  -8.30539E+3   7.50583E+2
  -8.25690E+3   7.19375E+2
  -8.16236E+3   6.92189E+2
  -8.09653E+3   7.02541E+2
  -8.10973E+3   7.16669E+2
  -8.01365E+3   7.46274E+2
  -7.97180E+3   6.41908E+2
  -7.99212E+3   7.03720E+2
  -7.94021E+3   6.78449E+2
  -7.85946E+3   7.30404E+2
  -7.75845E+3   7.25153E+2
  -7.75621E+3   7.18968E+2
  -7.68457E+3   6.53791E+2
  -7.69998E+3   6.85687E+2
  -7.59393E+3   6.70837E+2
  -7.54631E+3   6.36325E+2
  -7.50926E+3   6.89268E+2
  -7.57134E+3   6.58331E+2
  -7.49905E+3   7.06686E+2
  -7.38523E+3   6.81604E+2
  -7.31342E+3   7.29311E+2
  -7.25737E+3   6.74568E+2
  -7.34880E+3   6.43270E+2
  -7.32437E+3   6.67324E+2
  -7.14817E+3   7.18475E+2
  -7.24129E+3   7.22745E+2
  -7.16577E+3   6.85249E+2
  -7.12389E+3   6.42621E+2
  -7.06487E+3   6.42580E+2
  -6.96772E+3   6.31600E+2
  -6.98999E+3   6.57453E+2
  -6.95503E+3   6.67224E+2
  -6.90544E+3   6.60795E+2
  -6.84212E+3   5.86183E+2
  -6.82827E+3   6.26676E+2
  -6.72050E+3   6.01157E+2
  -6.68096E+3   6.61456E+2
  -6.60530E+3   6.20279E+2
  -6.61461E+3   6.38986E+2
  -6.58305E+3   6.74878E+2
  -6.59569E+3   5.74581E+2
  -6.53574E+3   5.65804E+2
  -6.48239E+3   5.98965E+2
  -6.34989E+3   6.17260E+2
  -6.36715E+3   6.24836E+2
  -6.41168E+3   5.93918E+2
  -6.36137E+3   6.61675E+2
  -6.29173E+3   6.47384E+2
  -6.26265E+3   6.51759E+2
  -6.23690E+3   6.21672E+2
  -6.15934E+3   5.97000E+2
  -6.13694E+3   6.14466E+2
  -6.01926E+3   5.86316E+2
  -6.05857E+3   6.18589E+2
  -6.02827E+3   5.88678E+2
  -5.92728E+3   5.83912E+2
  -5.89930E+3   6.70903E+2
  -5.92874E+3   6.14791E+2
  -5.92916E+3   6.08851E+2
  -5.87971E+3   5.78618E+2
  -5.80996E+3   5.79745E+2
  -5.78461E+3   5.64379E+2
  -5.66755E+3   5.81154E+2
  -5.74657E+3   5.98396E+2
  -5.72330E+3   6.14107E+2
  -5.66749E+3   5.97608E+2
  -5.57465E+3   5.85920E+2
