 
 $NMID
 ID=''
 FMTDAT='(2E13.5)'
 TRAMP=   1.00000E+0
 VOLUME=   1.00000E+0
 $END
  -1.00435E+1  -5.77739E+1
  -8.21647E+2   2.02567E+3
   2.79838E+3  -2.40531E+3
   2.59866E+3  -3.92840E+2
  -2.62231E+2  -1.61429E+3
   1.59422E+3  -1.04409E+3
  -2.90452E+3   3.74761E+2
  -4.68411E+3  -5.63866E+1
  -3.25408E+3  -1.24496E+3
   7.50862E+1  -8.11081E+2
   3.85788E+3   7.56719E+2
   5.77523E+3   2.36968E+3
   3.54139E+2   4.78769E+3
  -3.85012E+3   1.59264E+3
  -3.57166E+3  -3.40320E+3
  -4.19064E+1  -5.96521E+2
   5.93840E+2  -5.90955E+2
   5.68426E+2   1.76316E+3
  -1.24513E+3   2.45517E+3
  -1.51833E+1  -9.67510E+2
   2.88417E+3  -1.83045E+3
   1.50986E+3   4.71417E+3
  -4.57446E+3   1.28988E+3
  -3.41879E+3  -1.11386E+3
   4.50261E+2  -1.80911E+3
  -6.02510E+1   1.64224E+3
  -4.32519E+3   1.00435E+3
  -1.66949E+3  -2.56668E+3
   1.88166E+3  -4.43489E+3
   4.83032E+3  -1.17049E+2
   4.50080E+3   4.87430E+3
  -2.15244E+3   5.02248E+3
  -2.19955E+3  -1.92791E+3
   1.69450E+3  -2.07142E+3
   2.39430E+2  -1.56260E+3
  -1.96925E+3  -5.21895E+3
   3.17459E+3  -5.89663E+3
   5.89394E+3   5.49012E+2
   8.71705E+2   1.81852E+3
  -2.40260E+2   6.63760E+2
  -7.13207E+2   1.03803E+3
  -3.72336E+3  -2.39942E+3
   1.03431E+3  -8.40120E+3
   3.67016E+3  -5.21256E+3
   5.49030E+3   1.89503E+2
   2.93338E+3   8.94871E+2
   2.12040E+3   9.78425E+2
   1.32978E+3   4.36109E+3
  -4.08232E+3   2.41588E+3
  -3.85127E+3   1.02148E+3
  -4.84366E+3  -2.55288E+3
  -1.92244E+3  -1.51560E+3
   1.69144E+3   1.61337E+3
  -2.57151E+3   2.82875E+3
  -1.34061E+3   1.68711E+3
  -2.40332E+3   2.19780E+3
  -5.43155E+3   4.32025E+2
  -3.80914E+3  -5.31882E+3
  -3.48483E+2  -6.65427E+3
   2.42837E+3  -3.67235E+3
   3.41621E+3   2.14974E+1
   4.62988E+3   3.07038E+3
   4.33066E+3   3.31916E+3
  -1.52300E+3   3.22625E+2
   1.85797E+3  -1.53741E+1
   1.35019E+3   4.44149E+3
  -1.09513E+3   6.10957E+3
  -3.13632E+2   7.25589E+2
   1.87990E+3  -4.13228E+2
   2.07209E+3   8.15338E+1
  -1.07201E+1   1.61645E+3
   7.57900E+2   2.74379E+2
  -9.88714E+2  -4.13186E+2
   6.24528E+2  -2.47100E+3
   5.75880E+2  -2.39504E+2
   1.31016E+3  -8.98697E+2
  -1.15341E+3  -1.34018E+3
   1.17157E+3  -1.12097E+3
   1.82772E+3   2.32008E+2
   1.65377E+3   1.85806E+3
   1.29185E+1   1.87320E+2
  -4.15531E+2  -1.18248E+3
   3.18883E+2   1.00914E+3
  -2.79137E+3   5.02986E+2
  -6.52498E+2  -2.91798E+3
   4.33970E+2  -2.54739E+3
   9.75593E+2   3.82442E+2
   3.96930E+3  -1.37254E+3
   3.56727E+3   9.06388E+2
  -2.11358E+2  -1.66503E+2
   3.01229E+2  -5.37127E+1
   1.43349E+3   8.90254E+1
  -2.49630E+2   3.11207E+3
  -1.20583E+3   5.72630E+2
  -4.88729E+2  -3.12481E+3
   1.25400E+3  -2.83136E+3
   1.96281E+3  -2.27588E+2
  -2.73370E+3   4.89430E+3
  -3.88390E+3  -2.22057E+2
  -3.03562E+2  -3.58239E+3
   2.48183E+3  -9.23166E+2
   3.09833E+3   3.13735E+3
   8.73639E+1   2.93137E+3
  -2.23429E+3   1.53794E+3
  -3.64144E+3  -1.66318E+3
  -7.85290E+2  -1.00054E+3
  -1.80289E+3  -2.53880E+3
  -2.56782E+2  -3.18398E+3
   2.41902E+2  -7.01446E+2
   2.68206E+3  -1.55443E+3
   2.43075E+3   1.78071E+3
   1.12912E+3   1.45428E+3
   8.57806E+2   1.59767E+3
  -1.54750E+3   8.79410E+2
  -2.56891E+3   9.87114E+2
  -1.90122E+3  -1.60402E+3
   1.87826E+3  -2.03132E+3
   4.94879E+2  -4.76678E+2
   1.08015E+3  -1.11124E+3
   2.30053E+3   6.77679E+2
  -1.70842E+3   1.10688E+3
  -1.43363E+3   1.17779E+3
   5.78745E+2  -1.43727E+3
   4.05745E+2   1.02886E+3
  -7.49099E+1   9.77515E+2
  -7.85426E+2   3.37238E+2
   1.10392E+2   2.02613E+3
  -9.68969E+2   8.55564E+2
  -4.01655E+2  -6.12337E+2
   3.65225E+1  -2.60012E+2
  -8.03440E+2  -2.37757E+3
   2.18471E+3  -6.42027E+2
  -6.79164E+2   2.09506E+3
  -3.31158E+3  -1.92472E+3
  -1.96322E+3  -2.31951E+3
  -3.46908E+1  -7.87700E+2
  -1.74349E+2  -2.27147E+3
   1.92062E+3  -1.16814E+3
   6.26339E+2  -1.16612E+3
  -2.87210E+2  -9.56053E+2
   1.69055E+3   5.76606E+1
   6.41935E+2   1.29305E+3
   4.95000E+2  -4.90106E+2
  -2.23343E+2   9.38030E+1
  -2.38511E+3   2.58945E+2
   7.78686E+2  -1.49357E+2
  -2.68981E+3  -5.12435E+2
  -2.22211E+3  -1.98673E+2
   6.80431E+2   2.33532E+2
  -5.71122E+2  -2.06186E+2
  -1.17758E+3  -5.75728E+2
   6.56258E+2  -1.59279E+3
  -5.00247E+2  -5.49054E+2
   2.04971E+3   9.97033E+2
   1.12215E+3   2.65440E+3
   1.49054E+3   1.16846E+3
  -1.92439E+2   1.26136E+3
  -2.07590E+2  -3.31060E+2
  -1.91719E+2   5.89624E+1
  -2.24896E+3   1.06642E+3
  -1.32242E+3   2.04670E+2
  -2.97689E+2   1.04026E+2
  -2.04622E+3  -1.19830E+3
   1.78802E+3  -1.66906E+2
  -3.84248E+2   1.55937E+3
  -2.30506E+3  -1.20819E+3
   2.48150E+3  -5.48720E+2
   3.00955E+3   1.56185E+3
  -5.07173E+2   1.08477E+3
  -1.10628E+3   4.35885E+1
  -8.77160E+1   3.91943E+2
  -6.23258E+1  -1.33771E+3
   2.17548E+3  -1.74495E+3
   2.05354E+2  -1.23686E+3
   1.08777E+3   9.41362E+2
   2.86745E+3   2.32086E+2
  -4.83015E+2   2.37722E+3
  -5.25996E+2   4.29171E+2
  -2.00085E+3   1.44276E+3
  -6.79849E+2  -1.73014E+3
  -3.91999E+2  -1.03398E+3
  -4.00879E+2   2.40286E+2
  -7.49589E+2   1.38330E+3
  -3.20378E+2   3.68833E+2
  -1.17866E+3   1.13545E+3
  -2.46520E+3   1.68319E+3
  -9.32759E+2   5.45102E+2
  -5.97127E+2  -7.93871E+2
   5.64782E+2  -2.22439E+3
   1.55263E+3   1.10991E+3
   1.07381E+3  -1.39298E+3
   5.50825E+2   1.34770E+2
  -8.56841E+2   1.64106E+3
  -1.76054E+2  -5.20107E+2
   1.66780E+3  -3.88238E+2
  -7.80169E+1  -3.98519E+2
   3.86429E+2   3.70472E+2
  -1.04810E+3  -2.23874E+3
  -1.40312E+2   2.00530E+3
  -1.66332E+3   1.10257E+3
  -2.62786E+3  -6.61365E+2
  -7.62983E+2  -8.85089E+2
   1.52640E+3  -1.59778E+3
   1.41280E+3   2.77455E+2
   3.61250E+2  -5.75963E+1
  -1.82198E+1  -7.22891E+2
  -4.11769E+2   1.34232E+3
   1.73287E+3   2.22159E+3
  -2.01954E+3   9.74532E+2
  -6.42591E+2   1.09769E+3
   1.04030E+3  -2.31226E+3
   1.27586E+3  -1.39145E+3
   3.40465E+2  -1.51662E+2
  -2.05096E+3  -8.27318E+1
  -8.15863E+2   1.03719E+3
   1.19982E+3  -5.58528E+2
   6.59542E+2  -2.70003E+2
   1.00064E+3  -7.42110E+2
  -1.01212E+3  -1.08390E+3
   5.80830E+2   4.82994E+1
   2.34519E+2   1.32974E+3
   8.08854E+1   1.22834E+3
   3.48865E+2  -1.91079E+3
  -6.31819E+2  -2.35116E+3
  -4.18881E+2  -7.16220E+2
  -1.11873E+3   8.38840E+2
  -1.36919E+2  -1.80856E+2
  -1.68197E+3   2.55863E+1
  -5.22383E+2   8.49677E+1
   5.60908E+2  -1.83979E+3
   7.53979E+2  -2.51432E+2
   2.25279E+3   1.82996E+2
   5.39937E+2  -5.23243E+2
   3.54284E+3   3.79365E+1
   1.30213E+3   1.63029E+2
  -2.03392E+3  -5.89775E+0
  -1.23992E+3  -6.82165E+2
   4.40213E+2  -2.59013E+3
   1.96136E+3  -4.28231E+1
   6.61634E+2   1.47764E+3
   9.94635E+2   1.00081E+2
  -2.24531E+3   3.36095E+2
   8.40813E+2  -1.11868E+3
   2.31872E+2   8.92177E+2
  -1.25819E+3  -1.29218E+3
  -9.99678E+2  -5.32679E+2
  -3.78370E+2  -9.38214E+2
  -8.50240E+2   1.15974E+3
  -5.94512E+2   6.70561E+2
  -2.60810E+3   1.05121E+3
   9.04106E+2   1.06675E+3
   2.38849E+3  -1.32953E+3
   4.64243E+2   9.93936E+2
  -1.76072E+3  -1.29457E+2
   1.69042E+3  -1.79542E+2
   4.13386E+2   4.53277E+2
   2.38850E+3  -1.17567E+2
   5.03026E+2   2.73232E+2
  -1.29333E+3  -1.26337E+3
  -3.52358E+1   7.04792E+1
  -2.81883E+2  -1.80144E+3
   3.10253E+2   4.37046E+2
  -7.77378E+2  -4.09536E+2
  -3.51644E+2  -9.35320E+2
   2.13379E+2   5.86274E+2
  -6.33445E+2   6.50324E+2
  -4.60856E+2   1.03354E+3
  -1.31554E+3  -1.11216E+3
   2.84080E+3  -8.61417E+2
  -5.16852E+2   5.47761E+2
   6.54978E+2   1.65382E+3
   2.51012E+0   3.43776E+2
   9.86948E+2  -9.00330E+2
  -1.46508E+3  -1.95014E+3
   1.34997E+3   4.27899E+1
   1.85261E+2   1.24570E+3
  -4.14826E+2   1.19683E+3
   4.06616E+2   1.08637E+3
   2.16751E+2   1.97865E+3
   7.41932E+2   1.00755E+3
  -1.79091E+3  -2.60643E+1
  -4.04449E+1   1.41269E+2
  -9.94994E+2  -1.18392E+3
  -2.96810E+3   1.27856E+3
   6.12879E+2  -6.09784E+1
  -1.76597E+3  -1.86299E+2
   7.75501E+2  -2.24657E+3
   1.24644E+3   1.73308E+3
   1.10839E+3   2.90563E+2
  -9.89128E+2  -4.43119E+2
  -3.90549E+2  -2.56869E+2
   2.29339E+2  -3.59056E+2
  -1.07818E+3   1.05376E+3
  -6.39199E+2  -1.12852E+3
  -1.04331E+3  -5.21826E+2
  -9.57646E+2  -1.64721E+3
   1.52210E+3   6.55985E+2
   5.13982E+2   5.54692E+2
  -1.96071E+3   4.66716E+2
  -1.15716E+3  -1.13723E+3
  -7.74643E+2   1.31428E+3
  -1.99539E+2   5.08876E+2
   3.10806E+2  -8.02225E+2
   8.82525E+2  -1.61349E+3
   1.15536E+3  -8.05494E+2
  -2.55087E+2   4.01424E+2
   1.70467E+2  -9.34426E+2
   1.54423E+3  -4.38034E+2
  -6.94654E+2   2.21724E+2
   7.57981E+2  -1.60440E+3
   3.49177E+2  -1.15675E+3
   1.19118E+3  -1.15136E+3
   1.21210E+1   9.04067E+2
   1.23268E+3  -4.96850E+2
   7.52167E+2   1.64980E+3
  -2.07443E+2   1.67346E+3
  -2.85916E+3  -7.66004E+2
   3.01533E+2  -1.93253E+3
   2.23759E+3  -2.93831E+2
   1.81733E+3   1.81933E+3
   1.32836E+3  -4.92896E+2
  -1.77520E+3  -4.97393E+2
  -1.23087E+3  -7.54049E+1
  -1.05390E+3   2.39500E+2
   1.62608E+2  -5.98840E+2
   3.04041E+3  -9.76618E+2
   7.42880E+2  -2.86806E+3
  -1.04337E+3  -7.31538E+1
   3.65041E+2   6.12816E+2
  -1.75836E+3   1.02575E+3
  -8.37058E+2  -1.16938E+3
   1.55089E+3  -9.90074E+2
   3.05446E+2   1.89977E+2
  -2.25103E+3  -1.43658E+3
  -1.22728E+3  -1.28610E+2
   1.26072E+3   1.71285E+3
  -6.24036E+2  -1.52792E+2
  -3.75726E+2   1.77228E+3
   5.34954E+1  -2.51417E+2
   9.20454E+1   3.20418E+1
  -8.80985E+2   1.74653E+3
  -1.26408E+3   7.24774E+1
   4.58288E+2   7.31034E+2
  -1.49543E+3   1.63354E+3
   1.08494E+3  -1.19656E+3
   2.49759E+3   3.11350E+2
  -2.82592E+2   1.64784E+3
   1.58883E+2  -8.94855E+2
  -8.33461E+2  -8.53714E+2
  -4.26425E+2  -1.61713E+3
  -7.99945E+2   6.67573E+2
  -1.53009E+3   1.86468E+2
  -1.60928E+3  -2.08377E+3
   4.64909E+1  -1.16889E+2
   1.55461E+2  -7.70394E+2
  -1.72041E+3   1.09471E+3
  -2.81980E+2   1.08984E+3
  -1.88801E+3   8.59896E+2
  -1.29263E+3  -2.32731E+3
   4.37621E+2   4.86003E+2
  -3.08447E+3   1.54254E+1
  -4.71501E+2   9.82977E+2
  -3.51515E+2   2.85732E+2
  -3.84223E+2  -6.85713E+2
  -5.22640E+2   5.12008E+2
  -1.05064E+3   8.38883E+2
   1.17545E+3  -1.40340E+3
