 LCModel (Version 6.3-1N) Copyright: S.W. Provencher.          Ref.: Magn. Reson. Med. 30:672-679 (1993).                
 Slice_N1@21_24  02-Jun-2023 14:37:20
 27 lines in following concentration table = NCONC+1
    Conc.  %SD /Cr+PCr  Metabolite                                         
 1.64E-06  24% 2.0E-04 Mac                                                 
 6.41E-02  12%   8.000 Cr                                                  
    0.000 999%   0.000 PCr                                                 
 8.87E-02  12%  11.069 Ins                                                 
 9.57E-02   9%  11.942 NAA                                                 
 5.66E-02  17%   7.058 Tau                                                 
 1.10E-02  29%   1.366 PCho                                                
    0.000 999%   0.000 GPC                                                 
 7.51E-02  16%   9.374 Glu                                                 
 1.38E-02  53%   1.723 Gln                                                 
 1.27E-03 710%   0.159 Ala                                                 
 1.73E-02  94%   2.161 Asc                                                 
 1.21E-02  53%   1.512 Asp                                                 
 7.36E-03  50%   0.918 GABA                                                
 7.42E-03  54%   0.926 Glc                                                 
 6.14E-03  57%   0.767 GSH                                                 
    0.000 999%   0.000 Lac                                                 
    0.000 999%   0.000 NAAG                                                
    0.000 999%   0.000 PE                                                  
 1.10E-02  29%   1.366 GPC+PCho                                            
 9.57E-02   9%  11.942 NAA+NAAG                                            
 8.89E-02  15%  11.097 Glu+Gln                                             
 6.41E-02  12%   8.000 Cr+PCr                                              
 9.57E-02   9%  11.942 NAA+NAAG                                            
 6.41E-02  12%   8.000 Cr+PCr                                              
 8.89E-02  15%  11.097 Glu+Gln                                             
   6 lines in following misc. output table
  FWHM = 0.041 ppm    S/N =   3                                            
  Data shift = 0.029 ppm                                                   
  Ph:  19 deg     -19.7 deg/ppm                                            
  alphaB,S = 8.7E+00,   5.1E+01                                            
   18 spline knots.   Ns = 6(1)                                            
   2 inflections.     1 extrema                                            
  654 points on ppm-axis = NY
      4.000000     3.994181     3.988363     3.982544     3.976726     3.970907     3.965088     3.959270     3.953451     3.947633
      3.941814     3.935995     3.930177     3.924358     3.918540     3.912721     3.906902     3.901084     3.895265     3.889446
      3.883628     3.877809     3.871991     3.866172     3.860353     3.854535     3.848716     3.842898     3.837079     3.831260
      3.825442     3.819623     3.813805     3.807986     3.802167     3.796349     3.790530     3.784712     3.778893     3.773074
      3.767256     3.761437     3.755619     3.749800     3.743981     3.738163     3.732344     3.726526     3.720707     3.714888
      3.709070     3.703251     3.697433     3.691614     3.685795     3.679977     3.674158     3.668339     3.662521     3.656702
      3.650884     3.645065     3.639246     3.633428     3.627609     3.621791     3.615972     3.610153     3.604335     3.598516
      3.592698     3.586879     3.581060     3.575242     3.569423     3.563605     3.557786     3.551967     3.546149     3.540330
      3.534512     3.528693     3.522874     3.517056     3.511237     3.505419     3.499600     3.493781     3.487963     3.482144
      3.476326     3.470507     3.464688     3.458870     3.453051     3.447232     3.441414     3.435595     3.429777     3.423958
      3.418139     3.412321     3.406502     3.400684     3.394865     3.389046     3.383228     3.377409     3.371591     3.365772
      3.359953     3.354135     3.348316     3.342498     3.336679     3.330860     3.325042     3.319223     3.313405     3.307586
      3.301767     3.295949     3.290130     3.284312     3.278493     3.272674     3.266856     3.261037     3.255219     3.249400
      3.243581     3.237763     3.231944     3.226125     3.220307     3.214488     3.208670     3.202851     3.197032     3.191214
      3.185395     3.179577     3.173758     3.167939     3.162121     3.156302     3.150484     3.144665     3.138846     3.133028
      3.127209     3.121391     3.115572     3.109753     3.103935     3.098116     3.092298     3.086479     3.080660     3.074842
      3.069023     3.063205     3.057386     3.051567     3.045749     3.039930     3.034111     3.028293     3.022474     3.016656
      3.010837     3.005018     2.999200     2.993381     2.987563     2.981744     2.975925     2.970107     2.964288     2.958470
      2.952651     2.946832     2.941014     2.935195     2.929377     2.923558     2.917739     2.911921     2.906102     2.900284
      2.894465     2.888646     2.882828     2.877009     2.871191     2.865372     2.859553     2.853735     2.847916     2.842098
      2.836279     2.830460     2.824642     2.818823     2.813004     2.807186     2.801367     2.795549     2.789730     2.783911
      2.778093     2.772274     2.766456     2.760637     2.754818     2.749000     2.743181     2.737363     2.731544     2.725725
      2.719907     2.714088     2.708270     2.702451     2.696632     2.690814     2.684995     2.679177     2.673358     2.667539
      2.661721     2.655902     2.650084     2.644265     2.638446     2.632628     2.626809     2.620991     2.615172     2.609353
      2.603535     2.597716     2.591897     2.586079     2.580260     2.574442     2.568623     2.562804     2.556986     2.551167
      2.545349     2.539530     2.533711     2.527893     2.522074     2.516256     2.510437     2.504618     2.498800     2.492981
      2.487163     2.481344     2.475525     2.469707     2.463888     2.458070     2.452251     2.446432     2.440614     2.434795
      2.428977     2.423158     2.417339     2.411521     2.405702     2.399884     2.394065     2.388246     2.382428     2.376609
      2.370790     2.364972     2.359153     2.353335     2.347516     2.341697     2.335879     2.330060     2.324242     2.318423
      2.312604     2.306786     2.300967     2.295149     2.289330     2.283511     2.277693     2.271874     2.266056     2.260237
      2.254418     2.248600     2.242781     2.236963     2.231144     2.225325     2.219507     2.213688     2.207870     2.202051
      2.196232     2.190414     2.184595     2.178777     2.172958     2.167139     2.161321     2.155502     2.149683     2.143865
      2.138046     2.132228     2.126409     2.120590     2.114772     2.108953     2.103135     2.097316     2.091497     2.085679
      2.079860     2.074042     2.068223     2.062404     2.056586     2.050767     2.044949     2.039130     2.033311     2.027493
      2.021674     2.015856     2.010037     2.004218     1.998400     1.992581     1.986763     1.980944     1.975126     1.969307
      1.963489     1.957670     1.951852     1.946033     1.940215     1.934397     1.928578     1.922760     1.916941     1.911123
      1.905304     1.899486     1.893667     1.887849     1.882030     1.876212     1.870393     1.864575     1.858756     1.852938
      1.847119     1.841301     1.835482     1.829664     1.823845     1.818027     1.812208     1.806390     1.800571     1.794753
      1.788934     1.783116     1.777297     1.771479     1.765660     1.759842     1.754023     1.748205     1.742386     1.736568
      1.730749     1.724931     1.719113     1.713294     1.707476     1.701657     1.695839     1.690020     1.684202     1.678383
      1.672565     1.666746     1.660928     1.655109     1.649291     1.643472     1.637654     1.631835     1.626017     1.620198
      1.614380     1.608561     1.602743     1.596924     1.591106     1.585287     1.579469     1.573650     1.567832     1.562013
      1.556195     1.550376     1.544558     1.538739     1.532921     1.527102     1.521284     1.515465     1.509647     1.503829
      1.498010     1.492192     1.486373     1.480555     1.474736     1.468918     1.463099     1.457281     1.451462     1.445644
      1.439825     1.434007     1.428188     1.422370     1.416551     1.410733     1.404914     1.399096     1.393277     1.387459
      1.381640     1.375822     1.370003     1.364185     1.358366     1.352548     1.346729     1.340911     1.335092     1.329274
      1.323455     1.317637     1.311818     1.306000     1.300182     1.294363     1.288545     1.282726     1.276908     1.271089
      1.265271     1.259452     1.253634     1.247815     1.241997     1.236178     1.230360     1.224541     1.218723     1.212904
      1.207086     1.201267     1.195449     1.189630     1.183812     1.177993     1.172175     1.166356     1.160538     1.154719
      1.148901     1.143082     1.137264     1.131445     1.125627     1.119808     1.113990     1.108171     1.102353     1.096534
      1.090716     1.084898     1.079079     1.073261     1.067442     1.061624     1.055805     1.049987     1.044168     1.038350
      1.032531     1.026713     1.020894     1.015076     1.009257     1.003439     0.997620     0.991802     0.985983     0.980165
      0.974346     0.968528     0.962709     0.956891     0.951072     0.945254     0.939435     0.933617     0.927798     0.921980
      0.916161     0.910343     0.904524     0.898706     0.892887     0.887069     0.881251     0.875432     0.869614     0.863795
      0.857977     0.852158     0.846340     0.840521     0.834703     0.828884     0.823066     0.817247     0.811429     0.805610
      0.799792     0.793973     0.788155     0.782336     0.776518     0.770699     0.764881     0.759062     0.753244     0.747425
      0.741607     0.735788     0.729970     0.724151     0.718333     0.712514     0.706696     0.700877     0.695059     0.689240
      0.683422     0.677603     0.671785     0.665967     0.660148     0.654330     0.648511     0.642693     0.636874     0.631056
      0.625237     0.619419     0.613600     0.607782     0.601963     0.596145     0.590326     0.584508     0.578689     0.572871
      0.567052     0.561234     0.555415     0.549597     0.543778     0.537960     0.532141     0.526323     0.520504     0.514686
      0.508867     0.503049     0.497230     0.491412     0.485593     0.479775     0.473956     0.468138     0.462319     0.456501
      0.450682     0.444864     0.439045     0.433227     0.427408     0.421590     0.415771     0.409953     0.404134     0.398316
      0.392497     0.386679     0.380860     0.375042     0.369223     0.363405     0.357586     0.351767     0.345949     0.340130
      0.334312     0.328493     0.322675     0.316856     0.311038     0.305219     0.299401     0.293582     0.287764     0.281945
      0.276127     0.270308     0.264490     0.258671     0.252853     0.247034     0.241216     0.235397     0.229579     0.223760
      0.217942     0.212123     0.206305     0.200486
 NY phased data points follow
  -3.10021E-02  2.23473E-02 -8.00609E-02 -1.55423E-01  1.55142E-02 -1.82358E-01 -4.25020E-01 -8.29885E-01 -6.45170E-01 -4.48146E-01
  -4.02766E-01 -2.20886E-01 -1.89663E-01 -9.78249E-02 -3.28110E-03 -7.97747E-02  2.97917E-01  5.32965E-01  3.99773E-01  2.77177E-01
   7.84691E-02  3.38229E-01  1.54944E-01 -9.82954E-02 -1.07928E-01  4.13900E-01  4.67905E-01 -1.74789E-01  6.40267E-02  2.64472E-01
   1.81481E-01  1.48488E-01 -1.47219E-01  2.46877E-02  2.24022E-01 -4.04114E-01 -2.99034E-01 -3.92653E-01 -2.72703E-01 -2.03214E-01
  -2.66625E-01  6.73150E-02 -1.96574E-01  9.89520E-02  2.49794E-01  2.64233E-01 -1.03494E-01  2.54820E-01  6.56695E-01  2.65784E-01
   2.85356E-01  1.29469E-01  7.41188E-02 -8.49291E-02 -1.19168E-01  3.40442E-02  6.71486E-02 -3.39487E-03 -1.56876E-01 -3.51371E-01
  -2.85574E-01 -6.40401E-01 -4.09406E-01 -5.78026E-01 -4.44331E-01  2.23226E-01 -3.17317E-01  1.10952E-01  5.16720E-02  8.33093E-02
  -1.13356E-01  4.61457E-02  4.80091E-01  5.84620E-02  4.11207E-01  4.16597E-01  2.13023E-01 -1.09839E-01 -2.43213E-01 -3.77951E-01
  -4.66665E-01 -3.82047E-01 -7.80983E-02 -1.19616E-01  6.99466E-02  2.84172E-01  2.30115E-01  3.61485E-01  4.06220E-01  6.97059E-01
   1.06036E-01  1.54542E-01  1.27995E-01  1.35074E-01  2.39006E-01 -4.25753E-02  2.66329E-02  9.92753E-02  1.21245E-01 -4.76077E-01
  -1.17919E-01 -2.65262E-03 -2.46855E-01 -1.50923E-01 -1.53706E-01 -1.81910E-01 -1.36923E-01  3.16065E-01  9.04566E-02 -2.90436E-02
   3.73713E-01  4.11425E-01  4.82054E-01  2.12482E-01  3.09964E-01  5.70251E-01  8.28212E-02  1.13975E-01  1.80174E-01  5.28757E-01
   3.88640E-01  2.89836E-01  2.14567E-01  6.52344E-02  3.79862E-01  4.08772E-02 -3.62822E-02 -3.07618E-01 -8.25102E-02 -2.46294E-01
  -3.22906E-01 -2.59813E-01 -2.37459E-01 -1.05080E-01 -7.07551E-01 -5.70311E-01 -5.90259E-01 -4.86678E-01 -6.87294E-01 -5.97491E-01
  -1.13173E-01 -2.43614E-01  6.56952E-02 -5.68608E-03 -2.47383E-01  8.40349E-02  1.14280E-01  1.07562E-01  2.18648E-01  1.66211E-01
   6.49171E-03  7.17068E-03  1.42248E-01 -3.92462E-02  6.62982E-02  1.15052E-02  1.13233E-02 -8.57353E-02  2.16511E-01  4.35875E-01
   2.19127E-01  3.35277E-01  4.74785E-01  7.08272E-01  6.87497E-01  9.02255E-01  4.62796E-01  3.76599E-01  4.35942E-01 -2.12505E-02
  -3.20360E-01 -3.59271E-01 -4.51314E-01 -4.54028E-01 -3.20595E-01 -8.96104E-01 -6.48996E-01 -6.35029E-01 -7.13268E-01 -6.30505E-01
  -2.29430E-01  1.01404E-01 -2.54050E-01  3.29690E-02 -2.46443E-01 -5.95872E-01 -4.06220E-01 -1.67641E-01 -1.32282E-02 -2.98539E-01
  -4.46558E-01 -1.45719E-01  1.07715E-01 -1.59793E-01 -5.16608E-01 -8.31602E-02  1.28296E-01  3.72377E-02 -1.79135E-01  4.14700E-02
   2.85007E-02 -2.29328E-01 -2.55978E-02 -1.46544E-01  1.83805E-01 -1.03349E-01 -1.49364E-01 -6.61144E-02  4.14131E-02  7.65912E-03
   1.52331E-01  2.00791E-01  1.40191E-03  1.81381E-01 -1.08095E-01  1.45707E-01 -2.30872E-01  8.41934E-02  2.76239E-01  2.58057E-01
  -1.07947E-01 -2.01261E-01  1.14352E-01 -1.20071E-01  1.43463E-01 -2.99910E-01  2.10200E-02  1.23222E-01  3.13944E-01  2.56689E-01
   7.63319E-01  7.22724E-01  2.61024E-01  6.44217E-01  2.69482E-01  3.02779E-01 -1.90430E-01 -1.85177E-01 -1.65813E-01  7.34149E-02
  -1.25013E-01 -4.43295E-01 -1.81101E-01 -1.67509E-01  6.39248E-02 -9.24522E-02 -3.30391E-01  9.16170E-02  5.14202E-01  3.00252E-01
   1.54069E-01 -1.80797E-01  1.41652E-01 -2.75628E-01 -2.42005E-01 -5.66128E-02 -2.93799E-01  5.33373E-02 -1.11241E-01  2.91999E-01
   4.68751E-01  9.80553E-02 -4.57801E-02  6.47878E-01  3.06999E-01  6.48245E-02  3.58142E-01  1.79501E-01  1.64893E-01  3.85521E-02
   2.01433E-01  1.55621E-01  2.21244E-01  1.56505E-01  9.70487E-02  9.32706E-02  9.84514E-02 -2.82224E-01 -2.16684E-01 -1.84528E-01
  -5.10756E-01 -3.25642E-01 -6.67655E-01 -4.22060E-01 -8.90661E-02 -4.54726E-01  3.51885E-01  4.77409E-01 -2.55557E-01  8.67087E-01
   4.21244E-01 -4.86961E-02  7.12191E-01  1.53932E-01  1.39816E-01  8.59749E-02  1.79063E-02  1.88721E-01 -1.08601E-01  3.14175E-02
   2.60441E-01 -5.11531E-04 -3.53742E-02  5.87994E-02  3.75952E-01  1.54432E-01  1.17910E-01  6.22560E-01  3.28705E-01  2.40998E-01
   5.18291E-01  3.35034E-01 -1.46265E-02  2.55084E-01  1.08753E-01  1.94682E-01  3.09274E-01 -4.07444E-02  5.81812E-02 -3.39264E-01
  -2.00283E-01 -8.23901E-02 -4.25858E-01 -1.89045E-01 -2.57515E-01 -1.96348E-01 -2.20575E-01 -1.72951E-01  1.14177E-01 -2.49752E-02
   1.77664E-01 -9.31048E-03  6.60330E-02  1.98296E-02 -1.40433E-01  2.54754E-01  2.59515E-01  4.49759E-01 -1.71046E-01 -3.08111E-01
  -1.50126E-01 -1.03286E+00 -1.11102E+00 -1.00308E+00 -1.36778E+00 -1.02096E+00 -5.85716E-01 -7.14976E-01 -5.62200E-01 -3.94073E-01
  -1.51679E-01 -1.12473E-01 -4.81721E-02  1.74587E-01 -1.01959E-01  1.84146E-01  5.35330E-01  2.19022E-01  1.66706E-01  1.40174E-01
   6.36938E-02 -1.62658E-02 -2.86326E-01 -1.00346E-01  1.29747E-01  7.80389E-02 -2.28281E-01 -2.07174E-01  2.58479E-01 -3.65713E-02
  -1.92755E-01  1.08681E-01  1.65129E-01 -8.73738E-02 -2.36667E-02  2.52031E-01  1.18362E-01  9.17293E-03  5.01253E-02  1.87339E-01
  -1.35846E-01 -5.38951E-02 -1.74958E-02  1.00698E-01  3.01184E-01  1.43935E-01  3.57705E-01 -1.79996E-02  1.18785E-01  4.01166E-03
  -6.83926E-02 -1.68037E-02 -7.23320E-02  2.62793E-01  1.89326E-01  3.57448E-01  1.19384E-01  1.93448E-01  4.12361E-01  2.60150E-01
   1.94043E-01  5.13766E-01  3.21369E-01  3.81719E-02  1.36660E-01  1.01002E-01  4.91776E-01  1.86196E-01  1.01569E-01  3.23394E-01
  -2.02636E-01 -1.72654E-01  2.03384E-01 -1.47670E-01  3.33805E-01  2.08754E-01 -2.49391E-01 -5.11245E-02 -2.42151E-01 -1.57764E-01
   3.76773E-03  3.79206E-01 -2.88685E-01 -3.42656E-01 -2.76107E-01 -1.98438E-01  9.46584E-02 -1.80820E-01  2.85131E-01 -8.42893E-02
  -3.68867E-01 -1.18016E-01  9.93020E-02  1.54259E-01 -7.04907E-02  8.14472E-02  1.25134E-01 -4.37999E-01  1.01119E-01  9.33310E-02
  -1.39488E-01  6.37962E-01  3.59002E-01  1.25026E-01 -2.05782E-01  1.66042E-01  1.38534E-01  2.21834E-02  1.62826E-01  8.72592E-03
   4.54532E-01  2.39739E-01  1.94903E-01  1.38905E-01 -5.43411E-03  1.44235E-02 -1.36549E-01 -3.78679E-01 -3.66331E-01 -1.71078E-01
  -1.73413E-01 -2.97688E-01  9.97493E-02 -6.12382E-02 -5.53981E-01 -2.80225E-01 -1.65040E-01 -2.21865E-02 -3.35215E-01 -2.79396E-01
  -3.04285E-01 -2.45733E-01  1.42770E-01  5.93075E-02 -1.74149E-01 -3.14917E-01 -9.49425E-02 -2.07517E-02 -1.71789E-02 -4.35018E-01
  -8.76071E-02  2.14773E-01  6.07546E-02  1.16391E-01 -2.57785E-01 -2.33455E-01 -1.10160E-01  9.92939E-02  3.77497E-01  3.64166E-01
   2.60757E-02 -3.01321E-01 -8.73909E-02  3.38266E-01  6.76603E-02 -1.66528E-01  7.26913E-02  7.80847E-02  2.60500E-02  7.24525E-02
   3.83553E-01  6.38195E-02 -2.11703E-01 -1.34479E-01 -1.02079E-02  5.25755E-01  1.29926E-01  2.36787E-01  4.57205E-01  5.74927E-02
   9.66351E-02 -2.76121E-01 -8.65776E-02 -2.04883E-01 -2.28749E-01  3.32266E-01  1.62189E-01  5.41926E-02  4.16177E-02  1.54903E-01
   3.76125E-01  2.83056E-01 -1.95013E-01  4.84334E-02  3.61492E-01  1.36973E-01 -1.02325E-01 -2.73409E-01 -5.23735E-01 -6.65266E-01
  -1.41279E-01 -5.48018E-01 -5.47496E-01 -3.29132E-01 -7.67311E-01 -4.92518E-01 -1.85188E-01  1.19134E-03 -3.00435E-01 -2.01096E-01
  -2.23119E-01 -4.33840E-01 -2.38111E-01 -5.52368E-01 -2.89848E-01  1.37311E-01 -1.40551E-01 -4.17550E-01 -5.94173E-02 -1.82176E-01
  -1.79609E-01  1.67591E-01 -2.11664E-01  4.33516E-02  5.50481E-02  1.65031E-01  2.15269E-01 -9.64408E-02  4.71088E-02 -1.86423E-01
  -2.17231E-01 -1.99478E-01  1.60686E-02  3.92403E-01  4.21555E-01  1.11946E-02  6.31315E-03  7.14058E-02  4.10078E-02  4.70546E-01
   5.99232E-02  1.21104E-01  2.06799E-01 -4.70104E-02  2.21292E-02 -2.05582E-01 -1.20498E-01 -2.88777E-02  3.19747E-01 -1.37748E-02
  -4.08514E-01  1.91847E-01  6.51227E-02 -9.47893E-02  1.84110E-01  3.66916E-02 -9.58423E-02  3.34911E-01  1.07165E-01 -6.99179E-02
   3.20614E-01  4.57301E-02  6.30299E-02  1.15891E-01  1.75778E-02 -4.12463E-02  1.38202E-01 -1.36562E-01 -1.34758E-01  4.03248E-01
  -4.65834E-02 -7.99474E-04  2.59645E-01 -2.72786E-01 -3.19671E-01  5.19085E-01 -9.84802E-02  9.21930E-02  3.87239E-01 -2.58286E-01
   2.11865E-01 -1.18648E-01  1.10267E-01  6.09970E-02  1.74551E-01  1.42332E-01 -7.33983E-02 -1.53818E-02 -1.02685E-01 -2.29832E-04
  -1.50542E-01  2.15521E-01 -5.21899E-01 -5.51368E-02  3.43505E-01  2.55772E-01  1.98017E-01 -1.22671E-01  4.55216E-01  1.29793E-01
   2.01209E-01 -1.07280E-01 -2.68218E-01 -8.84554E-02 -1.56075E-01  1.16891E-01  1.83976E-01  5.18286E-02  3.44127E-01  3.14747E-01
  -1.53462E-01 -1.04801E-02  4.35554E-03  2.24844E-01  2.24118E-01  1.40036E-01 -1.36330E-02  2.65362E-01  4.12212E-01 -6.30730E-02
  -9.38241E-03  1.32646E-01 -1.03190E-01 -1.04917E-01
 NY points of the fit to the data follow
   4.62051E-02  4.50022E-02  3.87354E-02  2.90019E-02  1.73497E-02  5.36231E-03 -6.14522E-03 -1.64583E-02 -2.64684E-02 -4.69879E-02
  -8.61235E-02 -8.62790E-02 -2.58634E-02  8.55579E-02  2.23723E-01  3.51353E-01  4.45427E-01  4.95674E-01  4.91754E-01  4.42423E-01
   3.70905E-01  2.88390E-01  1.96915E-01  1.17609E-01  7.31989E-02  3.89454E-02  1.03255E-02 -1.36553E-02 -3.33285E-02 -4.92190E-02
  -6.28595E-02 -7.61689E-02 -9.15944E-02 -1.10328E-01 -1.37889E-01 -1.72830E-01 -2.04716E-01 -2.29916E-01 -2.34907E-01 -2.18109E-01
  -1.73470E-01 -1.05765E-01 -2.31944E-02  6.00169E-02  1.32466E-01  1.87768E-01  2.20596E-01  2.29428E-01  2.21749E-01  2.02084E-01
   1.73711E-01  1.43425E-01  1.09775E-01  7.75295E-02  4.25560E-02  4.25857E-03 -3.95580E-02 -1.00547E-01 -1.67390E-01 -2.20695E-01
  -2.92695E-01 -3.58515E-01 -3.89841E-01 -4.01326E-01 -3.73032E-01 -3.02157E-01 -2.00856E-01 -7.21587E-02  6.05345E-02  1.67217E-01
   2.42280E-01  2.94004E-01  3.05413E-01  2.75907E-01  2.37815E-01  1.51129E-01  1.99960E-02 -1.11978E-01 -2.40343E-01 -3.37694E-01
  -3.80724E-01 -3.59368E-01 -2.72688E-01 -1.44039E-01 -3.46775E-03  1.31778E-01  2.45758E-01  3.16868E-01  3.42783E-01  3.49382E-01
   3.37764E-01  3.10574E-01  2.88499E-01  2.61158E-01  2.32896E-01  1.76093E-01  9.65954E-02 -2.22143E-03 -1.03662E-01 -1.80857E-01
  -2.17125E-01 -2.08571E-01 -1.58064E-01 -7.98344E-02  1.00632E-02  9.69995E-02  1.68464E-01  2.22717E-01  2.50433E-01  2.68263E-01
   2.72566E-01  2.74831E-01  2.76754E-01  2.78749E-01  2.80785E-01  2.83537E-01  2.90990E-01  2.98082E-01  2.96205E-01  2.95946E-01
   2.77963E-01  2.35835E-01  1.88177E-01  1.32045E-01  7.64376E-02  1.81072E-02 -5.32178E-02 -1.35106E-01 -2.19672E-01 -2.95818E-01
  -3.20643E-01 -3.21202E-01 -3.31491E-01 -3.73914E-01 -4.33987E-01 -4.88282E-01 -5.27118E-01 -5.40721E-01 -5.21536E-01 -4.65265E-01
  -3.90109E-01 -3.08818E-01 -2.18083E-01 -1.26574E-01 -6.97961E-02 -3.12338E-02 -9.42811E-04  2.44721E-02  4.65719E-02  6.61642E-02
   8.40452E-02  1.00651E-01  1.16488E-01  1.32211E-01  1.48487E-01  1.65549E-01  1.83684E-01  2.03171E-01  2.24574E-01  2.48431E-01
   2.74726E-01  3.00868E-01  3.99960E-01  5.51101E-01  6.74170E-01  7.11031E-01  6.33492E-01  4.57532E-01  2.27377E-01 -2.24773E-02
  -2.48561E-01 -4.08558E-01 -4.99289E-01 -5.38173E-01 -5.22546E-01 -4.50485E-01 -3.88718E-01 -3.48317E-01 -3.18461E-01 -2.93301E-01
  -2.72614E-01 -2.54509E-01 -2.39263E-01 -2.26689E-01 -2.15940E-01 -2.06177E-01 -1.97253E-01 -1.89515E-01 -1.82362E-01 -1.75225E-01
  -1.67870E-01 -1.60555E-01 -1.53029E-01 -1.45646E-01 -1.38316E-01 -1.31113E-01 -1.24217E-01 -1.17405E-01 -1.09587E-01 -1.00143E-01
  -9.01112E-02 -8.14816E-02 -7.49898E-02 -6.92348E-02 -6.29358E-02 -5.68445E-02 -5.22998E-02 -5.02858E-02 -5.11341E-02 -5.47333E-02
  -5.99943E-02 -6.55588E-02 -7.05888E-02 -7.49024E-02 -7.84720E-02 -8.06843E-02 -8.13782E-02 -8.15061E-02 -8.27166E-02 -9.07875E-02
  -9.70457E-02 -8.47090E-02 -5.06531E-02 -2.38992E-03  4.32293E-02  8.25678E-02  1.30758E-01  1.85774E-01  2.38313E-01  2.79549E-01
   3.01311E-01  2.98152E-01  2.69139E-01  2.24180E-01  1.72696E-01  1.18980E-01  6.55988E-02  1.65226E-02 -1.80245E-02 -3.78048E-02
  -5.24326E-02 -6.38975E-02 -7.33497E-02 -8.16478E-02 -8.89319E-02 -9.50601E-02 -1.00440E-01 -1.05347E-01 -1.10403E-01 -1.16852E-01
  -1.25605E-01 -1.49032E-01 -1.72264E-01 -1.84964E-01 -1.93978E-01 -1.91142E-01 -1.73933E-01 -1.37971E-01 -9.10238E-02 -4.16278E-02
   7.04979E-03  5.25044E-02  9.31175E-02  1.17477E-01  1.27260E-01  1.36735E-01  1.38322E-01  1.30343E-01  1.21701E-01  1.12032E-01
   9.95510E-02  7.92498E-02  5.72707E-02  3.28301E-02  4.63045E-03 -2.44540E-02 -6.35731E-02 -1.11898E-01 -1.74175E-01 -2.48926E-01
  -3.15241E-01 -3.59179E-01 -3.63068E-01 -3.15269E-01 -2.23605E-01 -1.03115E-01  2.56156E-02  1.40973E-01  2.29347E-01  2.81798E-01
   3.00559E-01  2.91117E-01  2.66778E-01  2.41067E-01  2.17609E-01  2.03875E-01  1.98391E-01  1.97584E-01  1.99293E-01  2.01000E-01
   2.01850E-01  2.01359E-01  1.98860E-01  1.95533E-01  1.91970E-01  1.88157E-01  1.84688E-01  1.81075E-01  1.76978E-01  1.71572E-01
   1.64746E-01  1.55896E-01  1.43133E-01  1.25120E-01  9.93082E-02  6.75751E-02  2.76731E-02 -1.63056E-02 -6.40922E-02 -1.11587E-01
  -1.56330E-01 -1.93455E-01 -2.17901E-01 -2.23862E-01 -2.07865E-01 -1.74245E-01 -1.26650E-01 -7.56227E-02 -3.12677E-02 -1.70006E-04
   1.24287E-02  8.60804E-03 -7.82977E-03 -2.94016E-02 -4.85586E-02 -5.57219E-02  1.33154E-03  5.66462E-02 -5.92886E-03 -2.04382E-01
  -5.02252E-01 -8.17943E-01 -1.07127E+00 -1.22523E+00 -1.25258E+00 -1.15269E+00 -9.72082E-01 -7.67088E-01 -5.51226E-01 -3.44235E-01
  -2.15644E-01 -1.55405E-01 -1.17211E-01 -8.99366E-02 -6.90885E-02 -5.25118E-02 -3.99941E-02 -3.00871E-02 -2.41265E-02 -2.15616E-02
  -2.26657E-02 -2.67775E-02 -3.25856E-02 -3.83610E-02 -4.27218E-02 -4.44514E-02 -4.32742E-02 -3.93099E-02 -3.32063E-02 -2.57855E-02
  -1.75520E-02 -9.90915E-03 -2.60072E-03  3.43433E-03  8.83695E-03  1.36347E-02  1.79457E-02  2.18996E-02  2.55438E-02  2.88902E-02
   3.21216E-02  3.53290E-02  3.85127E-02  4.14241E-02  4.41103E-02  4.64679E-02  4.86922E-02  5.09587E-02  5.34226E-02  5.61182E-02
   5.89348E-02  6.15332E-02  6.37777E-02  6.55041E-02  6.66313E-02  6.71635E-02  6.70149E-02  6.62612E-02  6.49720E-02  6.31407E-02
   6.06633E-02  5.75391E-02  5.39140E-02  4.98844E-02  4.55343E-02  4.10536E-02  3.64984E-02  3.19688E-02  2.75642E-02  2.32865E-02
   1.92540E-02  1.56084E-02  1.22182E-02  9.07578E-03  6.16320E-03  3.48113E-03  9.85112E-04 -1.39317E-03 -3.67637E-03 -5.81515E-03
  -7.73172E-03 -9.31935E-03 -1.05009E-02 -1.11449E-02 -1.12514E-02 -1.06366E-02 -9.18745E-03 -7.08335E-03 -4.75116E-03 -2.07479E-03
   1.06771E-03  4.98074E-03  1.01109E-02  1.59370E-02  2.18271E-02  2.72045E-02  3.16753E-02  3.52147E-02  3.83873E-02  4.16277E-02
   4.52004E-02  4.95700E-02  5.51730E-02  6.19050E-02  6.97246E-02  7.83662E-02  8.70607E-02  9.53426E-02  1.02909E-01  1.09411E-01
   1.14708E-01  1.18865E-01  1.21899E-01  1.23759E-01  1.24368E-01  1.23594E-01  1.21423E-01  1.17970E-01  1.13377E-01  1.07891E-01
   1.01583E-01  9.47924E-02  8.77396E-02  8.06989E-02  7.38107E-02  6.71729E-02  6.08232E-02  5.48750E-02  4.93704E-02  4.42336E-02
   3.94588E-02  3.51879E-02  3.14857E-02  2.84015E-02  2.61893E-02  2.48593E-02  2.43662E-02  2.46444E-02  2.57497E-02  2.76506E-02
   3.02908E-02  3.34745E-02  3.69806E-02  4.05205E-02  4.38397E-02  4.68682E-02  4.96650E-02  5.22851E-02  5.47558E-02  5.68549E-02
   5.86646E-02  6.01967E-02  6.11736E-02  6.15148E-02  6.12134E-02  6.03578E-02  5.89897E-02  5.72629E-02  5.53213E-02  5.32551E-02
   5.11446E-02  4.89741E-02  4.66496E-02  4.41753E-02  4.15714E-02  3.89297E-02  3.63551E-02  3.38919E-02  3.16069E-02  2.94774E-02
   2.74214E-02  2.52161E-02  2.26751E-02  1.97161E-02  1.63474E-02  1.25183E-02  8.23926E-03  3.26869E-03 -2.67260E-03 -9.79367E-03
  -1.81734E-02 -2.77683E-02 -3.84191E-02 -4.98762E-02 -6.17114E-02 -7.36452E-02 -8.55457E-02 -9.69938E-02 -1.07471E-01 -1.16718E-01
  -1.24656E-01 -1.31017E-01 -1.35570E-01 -1.38190E-01 -1.38964E-01 -1.38063E-01 -1.35807E-01 -1.32625E-01 -1.28834E-01 -1.24691E-01
  -1.20151E-01 -1.15219E-01 -1.09947E-01 -1.04187E-01 -9.79185E-02 -9.10796E-02 -8.38778E-02 -7.64599E-02 -6.88968E-02 -6.13032E-02
  -5.37917E-02 -4.64547E-02 -3.95562E-02 -3.28710E-02 -2.63795E-02 -2.02816E-02 -1.45850E-02 -9.33132E-03 -4.44739E-03  1.45424E-05
   4.06672E-03  7.70863E-03  1.09644E-02  1.38612E-02  1.63878E-02  1.85052E-02  2.03639E-02  2.18940E-02  2.31368E-02  2.43287E-02
   2.55873E-02  2.70137E-02  2.85517E-02  3.01438E-02  3.16525E-02  3.29882E-02  3.41951E-02  3.51240E-02  3.57078E-02  3.61752E-02
   3.64879E-02  3.66094E-02  3.66897E-02  3.67334E-02  3.68824E-02  3.73649E-02  3.79845E-02  3.83466E-02  3.84394E-02  3.83471E-02
   3.80910E-02  3.77097E-02  3.74164E-02  3.73319E-02  3.73796E-02  3.74063E-02  3.72487E-02  3.71126E-02  3.70497E-02  3.69568E-02
   3.69270E-02  3.71254E-02  3.75783E-02  3.82411E-02  3.89864E-02  3.98786E-02  4.08455E-02  4.19276E-02  4.29602E-02  4.38008E-02
   4.44515E-02  4.48539E-02  4.50715E-02  4.52258E-02  4.54398E-02  4.59474E-02  4.66012E-02  4.71781E-02  4.78568E-02  4.86910E-02
   4.98696E-02  5.13331E-02  5.28771E-02  5.43130E-02  5.54502E-02  5.63043E-02  5.70129E-02  5.76438E-02  5.81989E-02  5.85974E-02
   5.89335E-02  5.93824E-02  5.99699E-02  6.05661E-02  6.10840E-02  6.16199E-02  6.22837E-02  6.30864E-02  6.40919E-02  6.51867E-02
   6.63872E-02  6.76623E-02  6.88206E-02  6.99191E-02  7.12765E-02  7.29409E-02  7.49619E-02  7.74079E-02  8.02514E-02  8.31833E-02
   8.60975E-02  8.89898E-02  9.18847E-02  9.49446E-02
 NY background values follow
     4.487E-02    4.475E-02    4.463E-02    4.451E-02    4.439E-02    4.426E-02    4.414E-02    4.402E-02    4.390E-02    4.378E-02
     4.366E-02    4.353E-02    4.341E-02    4.329E-02    4.317E-02    4.305E-02    4.293E-02    4.281E-02    4.268E-02    4.256E-02
     4.244E-02    4.232E-02    4.220E-02    4.208E-02    4.195E-02    4.183E-02    4.171E-02    4.159E-02    4.147E-02    4.135E-02
     4.122E-02    4.110E-02    4.098E-02    4.086E-02    4.074E-02    4.062E-02    4.049E-02    4.037E-02    4.025E-02    4.013E-02
     4.001E-02    3.988E-02    3.976E-02    3.964E-02    3.952E-02    3.940E-02    3.928E-02    3.915E-02    3.903E-02    3.891E-02
     3.879E-02    3.867E-02    3.854E-02    3.842E-02    3.830E-02    3.818E-02    3.806E-02    3.793E-02    3.781E-02    3.769E-02
     3.757E-02    3.745E-02    3.732E-02    3.720E-02    3.708E-02    3.696E-02    3.684E-02    3.671E-02    3.659E-02    3.647E-02
