 LCModel (Version 6.3-1N) Copyright: S.W. Provencher.          Ref.: Magn. Reson. Med. 30:672-679 (1993).                
 Slice_N1@21_17  02-Jun-2023 14:37:50
 27 lines in following concentration table = NCONC+1
    Conc.  %SD /Cr+PCr  Metabolite                                         
 2.78E-06  11% 3.8E-04 Mac                                                 
 2.93E-02  23%   4.040 Cr                                                  
 2.87E-02  24%   3.960 PCr                                                 
 4.40E-02  16%   6.077 Ins                                                 
 7.21E-02   7%   9.960 NAA                                                 
 5.45E-02  12%   7.523 Tau                                                 
 3.90E-03  57%   0.539 PCho                                                
 7.22E-03  30%   0.997 GPC                                                 
 5.19E-02  16%   7.164 Glu                                                 
 1.73E-02  33%   2.391 Gln                                                 
    0.000 999%   0.000 Ala                                                 
 3.39E-02  34%   4.683 Asc                                                 
 7.45E-03  89%   1.028 Asp                                                 
 6.14E-03  58%   0.848 GABA                                                
 3.11E-03 142%   0.429 Glc                                                 
 7.64E-03  41%   1.055 GSH                                                 
    0.000 999%   0.000 Lac                                                 
 6.77E-03  53%   0.935 NAAG                                                
    0.000 999%   0.000 PE                                                  
 1.11E-02  15%   1.535 GPC+PCho                                            
 7.89E-02   8%  10.895 NAA+NAAG                                            
 6.92E-02  14%   9.555 Glu+Gln                                             
 5.79E-02   9%   8.000 Cr+PCr                                              
 7.89E-02   8%  10.895 NAA+NAAG                                            
 5.79E-02   9%   8.000 Cr+PCr                                              
 6.92E-02  14%   9.555 Glu+Gln                                             
   6 lines in following misc. output table
  FWHM = 0.017 ppm    S/N =   6                                            
  Data shift = 0.017 ppm                                                   
  Ph: -32 deg     -19.8 deg/ppm                                            
  alphaB,S = 4.1E-01,   8.6E+00                                            
   18 spline knots.   Ns = 5(1)                                            
  ( 4) 3 infls.   ( 2) 1 extrs.                                            
  654 points on ppm-axis = NY
      4.000000     3.994181     3.988363     3.982544     3.976726     3.970907     3.965088     3.959270     3.953451     3.947633
      3.941814     3.935995     3.930177     3.924358     3.918540     3.912721     3.906902     3.901084     3.895265     3.889446
      3.883628     3.877809     3.871991     3.866172     3.860353     3.854535     3.848716     3.842898     3.837079     3.831260
      3.825442     3.819623     3.813805     3.807986     3.802167     3.796349     3.790530     3.784712     3.778893     3.773074
      3.767256     3.761437     3.755619     3.749800     3.743981     3.738163     3.732344     3.726526     3.720707     3.714888
      3.709070     3.703251     3.697433     3.691614     3.685795     3.679977     3.674158     3.668339     3.662521     3.656702
      3.650884     3.645065     3.639246     3.633428     3.627609     3.621791     3.615972     3.610153     3.604335     3.598516
      3.592698     3.586879     3.581060     3.575242     3.569423     3.563605     3.557786     3.551967     3.546149     3.540330
      3.534512     3.528693     3.522874     3.517056     3.511237     3.505419     3.499600     3.493781     3.487963     3.482144
      3.476326     3.470507     3.464688     3.458870     3.453051     3.447232     3.441414     3.435595     3.429777     3.423958
      3.418139     3.412321     3.406502     3.400684     3.394865     3.389046     3.383228     3.377409     3.371591     3.365772
      3.359953     3.354135     3.348316     3.342498     3.336679     3.330860     3.325042     3.319223     3.313405     3.307586
      3.301767     3.295949     3.290130     3.284312     3.278493     3.272674     3.266856     3.261037     3.255219     3.249400
      3.243581     3.237763     3.231944     3.226125     3.220307     3.214488     3.208670     3.202851     3.197032     3.191214
      3.185395     3.179577     3.173758     3.167939     3.162121     3.156302     3.150484     3.144665     3.138846     3.133028
      3.127209     3.121391     3.115572     3.109753     3.103935     3.098116     3.092298     3.086479     3.080660     3.074842
      3.069023     3.063205     3.057386     3.051567     3.045749     3.039930     3.034111     3.028293     3.022474     3.016656
      3.010837     3.005018     2.999200     2.993381     2.987563     2.981744     2.975925     2.970107     2.964288     2.958470
      2.952651     2.946832     2.941014     2.935195     2.929377     2.923558     2.917739     2.911921     2.906102     2.900284
      2.894465     2.888646     2.882828     2.877009     2.871191     2.865372     2.859553     2.853735     2.847916     2.842098
      2.836279     2.830460     2.824642     2.818823     2.813004     2.807186     2.801367     2.795549     2.789730     2.783911
      2.778093     2.772274     2.766456     2.760637     2.754818     2.749000     2.743181     2.737363     2.731544     2.725725
      2.719907     2.714088     2.708270     2.702451     2.696632     2.690814     2.684995     2.679177     2.673358     2.667539
      2.661721     2.655902     2.650084     2.644265     2.638446     2.632628     2.626809     2.620991     2.615172     2.609353
      2.603535     2.597716     2.591897     2.586079     2.580260     2.574442     2.568623     2.562804     2.556986     2.551167
      2.545349     2.539530     2.533711     2.527893     2.522074     2.516256     2.510437     2.504618     2.498800     2.492981
      2.487163     2.481344     2.475525     2.469707     2.463888     2.458070     2.452251     2.446432     2.440614     2.434795
      2.428977     2.423158     2.417339     2.411521     2.405702     2.399884     2.394065     2.388246     2.382428     2.376609
      2.370790     2.364972     2.359153     2.353335     2.347516     2.341697     2.335879     2.330060     2.324242     2.318423
      2.312604     2.306786     2.300967     2.295149     2.289330     2.283511     2.277693     2.271874     2.266056     2.260237
      2.254418     2.248600     2.242781     2.236963     2.231144     2.225325     2.219507     2.213688     2.207870     2.202051
      2.196232     2.190414     2.184595     2.178777     2.172958     2.167139     2.161321     2.155502     2.149683     2.143865
      2.138046     2.132228     2.126409     2.120590     2.114772     2.108953     2.103135     2.097316     2.091497     2.085679
      2.079860     2.074042     2.068223     2.062404     2.056586     2.050767     2.044949     2.039130     2.033311     2.027493
      2.021674     2.015856     2.010037     2.004218     1.998400     1.992581     1.986763     1.980944     1.975126     1.969307
      1.963489     1.957670     1.951852     1.946033     1.940215     1.934397     1.928578     1.922760     1.916941     1.911123
      1.905304     1.899486     1.893667     1.887849     1.882030     1.876212     1.870393     1.864575     1.858756     1.852938
      1.847119     1.841301     1.835482     1.829664     1.823845     1.818027     1.812208     1.806390     1.800571     1.794753
      1.788934     1.783116     1.777297     1.771479     1.765660     1.759842     1.754023     1.748205     1.742386     1.736568
      1.730749     1.724931     1.719113     1.713294     1.707476     1.701657     1.695839     1.690020     1.684202     1.678383
      1.672565     1.666746     1.660928     1.655109     1.649291     1.643472     1.637654     1.631835     1.626017     1.620198
      1.614380     1.608561     1.602743     1.596924     1.591106     1.585287     1.579469     1.573650     1.567832     1.562013
      1.556195     1.550376     1.544558     1.538739     1.532921     1.527102     1.521284     1.515465     1.509647     1.503829
      1.498010     1.492192     1.486373     1.480555     1.474736     1.468918     1.463099     1.457281     1.451462     1.445644
      1.439825     1.434007     1.428188     1.422370     1.416551     1.410733     1.404914     1.399096     1.393277     1.387459
      1.381640     1.375822     1.370003     1.364185     1.358366     1.352548     1.346729     1.340911     1.335092     1.329274
      1.323455     1.317637     1.311818     1.306000     1.300182     1.294363     1.288545     1.282726     1.276908     1.271089
      1.265271     1.259452     1.253634     1.247815     1.241997     1.236178     1.230360     1.224541     1.218723     1.212904
      1.207086     1.201267     1.195449     1.189630     1.183812     1.177993     1.172175     1.166356     1.160538     1.154719
      1.148901     1.143082     1.137264     1.131445     1.125627     1.119808     1.113990     1.108171     1.102353     1.096534
      1.090716     1.084898     1.079079     1.073261     1.067442     1.061624     1.055805     1.049987     1.044168     1.038350
      1.032531     1.026713     1.020894     1.015076     1.009257     1.003439     0.997620     0.991802     0.985983     0.980165
      0.974346     0.968528     0.962709     0.956891     0.951072     0.945254     0.939435     0.933617     0.927798     0.921980
      0.916161     0.910343     0.904524     0.898706     0.892887     0.887069     0.881251     0.875432     0.869614     0.863795
      0.857977     0.852158     0.846340     0.840521     0.834703     0.828884     0.823066     0.817247     0.811429     0.805610
      0.799792     0.793973     0.788155     0.782336     0.776518     0.770699     0.764881     0.759062     0.753244     0.747425
      0.741607     0.735788     0.729970     0.724151     0.718333     0.712514     0.706696     0.700877     0.695059     0.689240
      0.683422     0.677603     0.671785     0.665967     0.660148     0.654330     0.648511     0.642693     0.636874     0.631056
      0.625237     0.619419     0.613600     0.607782     0.601963     0.596145     0.590326     0.584508     0.578689     0.572871
      0.567052     0.561234     0.555415     0.549597     0.543778     0.537960     0.532141     0.526323     0.520504     0.514686
      0.508867     0.503049     0.497230     0.491412     0.485593     0.479775     0.473956     0.468138     0.462319     0.456501
      0.450682     0.444864     0.439045     0.433227     0.427408     0.421590     0.415771     0.409953     0.404134     0.398316
      0.392497     0.386679     0.380860     0.375042     0.369223     0.363405     0.357586     0.351767     0.345949     0.340130
      0.334312     0.328493     0.322675     0.316856     0.311038     0.305219     0.299401     0.293582     0.287764     0.281945
      0.276127     0.270308     0.264490     0.258671     0.252853     0.247034     0.241216     0.235397     0.229579     0.223760
      0.217942     0.212123     0.206305     0.200486
 NY phased data points follow
   1.59598E-02 -5.00434E-03 -2.12204E-01 -1.32532E-01  1.85217E-01 -3.18706E-01 -2.18704E-01  1.57346E-01  7.34365E-02  4.07850E-02
   4.79231E-01  7.07481E-01  2.75387E-01  2.51188E-01  3.30176E-01  5.68658E-01  3.53494E-01  4.84602E-01  3.02242E-03  7.15971E-03
   3.72840E-01 -4.18700E-01 -2.42864E-01 -1.87963E-01 -1.95092E-01  1.50685E-01  1.48999E-01 -2.32505E-01 -1.39242E-01 -1.09195E-01
  -2.90085E-01 -8.84515E-02 -1.13988E-01 -3.61360E-01 -3.24072E-01 -3.32749E-01 -6.23391E-01 -2.00050E-01 -1.64684E-01  4.69457E-02
   9.25535E-02 -1.80132E-01  5.70960E-02  1.54091E-01  3.63042E-01  4.67684E-01  3.40853E-01  1.44161E-01  3.51487E-01  6.42104E-02
  -1.46749E-01 -2.37181E-02 -4.84527E-03  4.24674E-02  2.22507E-01  4.66215E-02 -2.64843E-01  1.94308E-01 -1.44505E-01 -1.60417E-01
  -1.56967E-01 -3.09688E-01 -7.89240E-02 -1.80263E-01 -1.05999E-01 -2.24342E-02  6.94880E-02 -5.02076E-02  2.19556E-01  2.87876E-01
   2.49017E-01  2.15883E-01  3.93210E-02  2.52956E-01 -4.10228E-02 -1.94783E-01  2.19360E-02  6.73324E-03 -4.36849E-02 -2.63690E-01
  -1.17654E-01  4.66949E-01  2.89064E-01  9.99872E-02  4.55737E-01  1.10986E-01  4.11407E-02  3.64751E-01 -5.50940E-02  1.04708E-02
   1.19938E-01  2.73551E-01  2.45029E-01 -8.11391E-02 -7.19771E-02 -2.37653E-01  1.56250E-01 -4.00297E-02 -2.84748E-01 -5.81218E-01
  -4.85313E-01  2.39898E-03 -2.10520E-01  3.67221E-01  4.76483E-01  3.33445E-01  3.47666E-01  1.79673E-01 -3.84902E-02  7.29878E-02
   2.90083E-01  4.42723E-01  4.79161E-01  6.45114E-02  2.04011E-01  6.14890E-02 -4.92321E-02  1.18838E-01  1.23246E-01 -4.42350E-02
   3.78535E-02  1.70514E-01 -9.81812E-02  6.50066E-02 -2.82624E-01 -3.46603E-01 -3.53732E-01 -7.51885E-01 -3.06334E-01 -6.02949E-01
  -6.97733E-01 -3.65745E-01 -4.84581E-01 -4.46741E-01 -6.57147E-01 -6.48048E-01 -6.96126E-01 -5.85720E-01 -4.30727E-01  1.77722E-02
   1.95695E-02 -2.23202E-01 -1.09785E-01 -2.09913E-01  2.33253E-01  8.43076E-02  1.49486E-01  9.03718E-02  6.16061E-02  1.96951E-01
  -6.65165E-02  3.78680E-02  1.73189E-01  3.10946E-01  1.10786E-01  4.51588E-01  5.05047E-01  1.29157E-01 -9.91157E-03  1.32446E-01
   2.55486E-01  2.74242E-01  4.71051E-01  5.45696E-01  8.09544E-01  8.12471E-01  4.57205E-01 -3.50597E-01 -8.45066E-01 -7.24007E-01
  -6.33242E-01 -5.32342E-01 -5.20023E-01 -4.54031E-01 -2.82955E-01 -3.42672E-01 -3.99210E-01 -4.19289E-01 -1.06594E-01 -1.61555E-01
  -3.78827E-01 -3.30421E-01 -5.74968E-01 -3.09114E-01 -5.12791E-01 -1.19865E-01  7.21959E-02 -3.56963E-01 -1.61453E-01 -3.80082E-01
  -2.44273E-01 -6.42243E-02 -4.22665E-01 -2.09796E-01  3.14529E-02 -4.30354E-01 -7.76483E-02 -1.15664E-01 -1.24208E-01 -1.46451E-01
  -1.50605E-01  1.38195E-01 -1.18789E-01  2.21249E-01 -1.82921E-01 -2.50929E-01  5.70211E-02  3.03238E-02 -1.37192E-01 -1.38603E-01
  -1.69116E-01 -2.83597E-01  2.64184E-01  1.12440E-01  1.28318E-01  1.53626E-01  3.39784E-02 -5.97805E-03 -1.86508E-01  1.64674E-02
   1.22311E-01  1.75273E-01 -3.79655E-02 -4.98371E-02  2.10559E-01  3.95145E-01  4.70052E-01  8.59494E-02  2.68643E-01  3.22842E-01
   1.73440E-01  3.52207E-01  3.27843E-01  1.70182E-02 -3.54348E-01  3.46540E-02 -7.11599E-02 -4.59913E-02  1.64405E-01 -1.79946E-02
  -2.57573E-01 -3.82783E-01 -1.23803E-01 -4.19789E-03 -3.81537E-02 -1.83863E-01  1.24842E-02 -2.19312E-01  2.48161E-02  1.11051E-01
  -4.94713E-02  7.91174E-02  1.00817E-01  3.22458E-01 -1.45334E-01 -3.60995E-02  2.29370E-01  7.95171E-02 -3.00879E-02  7.25949E-02
   9.13467E-02  2.29372E-01  1.67465E-01  9.36217E-04  2.97372E-01  1.77240E-01  3.70764E-01  2.52156E-01 -1.62720E-02  2.15043E-01
   2.65794E-01 -5.29502E-02  1.47168E-03  3.01211E-01  7.57135E-02  1.56265E-01  2.41177E-01 -1.41470E-01 -3.29455E-01 -1.39906E-01
  -2.90074E-01 -4.09991E-01 -6.15625E-02 -1.40005E-01  1.16187E-01  4.05852E-01  3.27146E-01  5.11345E-01  2.37735E-01  4.31689E-01
   3.25665E-01  2.07951E-01  3.80591E-01 -8.99372E-03  4.81069E-02  6.68176E-02  3.18025E-01  1.61354E-01  1.87319E-01  2.07454E-01
   2.12945E-02  2.71303E-01  3.16834E-02  2.97016E-01  3.71665E-01  4.66443E-01  3.97473E-01 -2.00896E-02  1.06091E-01  3.92837E-01
   6.39615E-01  1.43720E-01  2.49319E-01  2.74802E-01  1.31484E-01  3.14814E-01 -5.15232E-02 -9.67000E-03 -2.45018E-01 -1.42373E-01
  -2.48301E-03 -3.89799E-01 -3.67110E-01 -2.37567E-02 -1.50691E-01 -1.79100E-01  8.21913E-02 -5.12778E-03  3.60277E-01  1.74462E-01
  -1.36489E-02 -1.98287E-02  3.85767E-02  4.74660E-02  5.17477E-02 -8.58369E-02 -6.19910E-01 -3.98153E-01 -3.28178E-01 -4.12481E-01
  -3.80068E-01 -8.29328E-01 -2.10169E+00 -1.66782E+00 -5.46882E-01 -6.53821E-01 -3.34756E-01  1.69212E-01  1.76894E-01  6.17298E-02
   2.77670E-01  1.08378E-01  1.58061E-01  1.74696E-01  1.00081E-01 -1.16800E-01  4.67497E-02  9.68268E-02 -4.39972E-02  3.65664E-02
   6.23398E-02  3.57660E-01 -3.48187E-02  7.24437E-02  1.18527E-01  8.42128E-02 -1.03807E-01 -5.93686E-02  3.15976E-01  2.50077E-01
   1.71274E-01  9.31019E-02  1.73446E-01 -3.69957E-02  8.00205E-02 -3.18711E-02  2.43484E-01  4.02606E-01  2.19859E-01  1.64325E-01
  -8.13378E-02 -3.41122E-02  7.19329E-02 -1.31795E-02 -1.92507E-01  1.87498E-01  1.87282E-01  3.14483E-02  2.16103E-01  2.82589E-01
   1.00820E-02  1.90900E-01  4.02295E-01  5.55478E-02  1.89032E-01  2.01378E-01 -1.18610E-01  1.36071E-01  2.78728E-01 -2.54608E-01
   1.60418E-01  2.01694E-01 -1.45317E-01  1.94547E-01 -4.66592E-02 -7.50918E-02 -7.99869E-03 -2.22610E-01 -3.10801E-01  7.63608E-02
  -8.00936E-03 -4.04552E-01  3.18890E-02 -1.78619E-01 -3.29869E-02 -1.30747E-01 -2.21578E-01  1.30447E-01 -5.37743E-01 -5.50345E-01
  -3.78253E-01 -1.21378E-01 -2.58889E-01 -2.21762E-01 -1.86240E-01 -3.42216E-01 -2.26780E-01 -1.64675E-01 -1.86172E-01 -4.09007E-01
   5.84979E-02 -1.63095E-01 -3.06324E-02 -1.51065E-01  2.48550E-02  1.65204E-01 -3.55935E-02  1.33360E-02 -1.83504E-01  2.31468E-01
  -4.09658E-02  3.16269E-01 -7.10489E-02 -1.35669E-01  1.88569E-01  1.48050E-01  3.14457E-01  9.48794E-02  2.59162E-01  3.72388E-01
   4.59247E-01  1.35142E-01  3.31754E-01  9.69756E-02  4.13622E-02  1.85099E-01 -4.37358E-02 -2.21624E-01  1.32635E-02  1.66930E-01
  -6.95360E-03 -1.83787E-02 -2.40247E-01  1.00845E-01 -5.42879E-01 -1.17997E-01  3.58282E-01 -6.07889E-02  1.77872E-01 -1.10658E-01
  -1.80776E-02  7.66002E-02 -2.91705E-02 -9.17448E-02 -3.32300E-02 -3.11907E-01 -3.82451E-01 -1.17221E-01 -2.20491E-01  1.10389E-02
   2.09270E-01  5.36297E-02  2.56327E-01  2.50176E-01  2.43613E-01  2.76693E-01 -1.11703E-01  2.60997E-02  5.69589E-02 -3.53240E-02
   2.10583E-01  2.22551E-01  1.09407E-02  5.70717E-02  7.83525E-02 -1.05466E-01  4.16343E-02  1.15522E-01 -6.78128E-02  1.65216E-01
   1.86823E-01 -1.57807E-02 -6.80324E-03  1.57947E-01  1.32674E-01 -3.40289E-01  5.08391E-02  2.95689E-01  7.25433E-02  1.68803E-01
   1.54970E-01 -1.42645E-01 -6.01639E-02  2.86036E-01 -1.34978E-02 -9.37085E-02 -2.05457E-01 -1.76024E-01  3.85203E-02  1.91171E-01
   3.43433E-01  7.91632E-03 -5.73185E-02 -2.14268E-01 -4.82667E-01 -3.24368E-01 -1.61796E-01  9.46885E-03 -2.14588E-01 -2.95974E-01
  -2.40772E-01 -3.57196E-01 -4.53604E-01 -2.94015E-01 -5.63192E-02 -1.88304E-01 -8.15523E-02 -2.71068E-01 -1.52917E-01 -3.28019E-01
  -2.96742E-01 -2.38226E-02 -2.44844E-01 -2.43358E-02 -1.55888E-01  1.78877E-02  3.63724E-02 -6.19374E-03 -2.56995E-03  2.63461E-02
   6.02821E-02  1.23687E-01  1.43163E-01 -1.59106E-01 -1.38895E-01  7.83195E-02  4.10262E-01  1.04579E-01 -2.94269E-02  1.55634E-01
   2.57854E-01  4.04642E-03  1.19797E-01  3.71798E-01  6.11121E-02  1.24694E-01  1.90344E-01  7.31483E-02 -1.49995E-01  9.38727E-02
   3.28262E-01  1.99960E-01  6.88968E-02 -2.26649E-02 -1.40917E-01  4.20872E-02  2.54743E-01  4.09464E-01  2.01555E-02 -1.55290E-01
   3.14251E-01  1.20586E-01  1.53897E-01  1.10923E-01  1.83789E-01  1.63889E-01  1.91268E-01  3.11501E-02 -8.96807E-02 -1.36915E-01
  -1.14372E-01  3.74774E-01 -1.66013E-01 -2.11585E-02  3.24835E-01  1.38542E-01  1.07985E-01 -4.09760E-02 -1.17784E-01  3.75759E-02
   8.21771E-02  2.80072E-01  1.83703E-01 -8.35067E-02  2.53706E-01  2.30870E-02  2.13865E-01 -3.52624E-02 -2.27849E-01 -7.22327E-02
  -2.52921E-02  2.00010E-01  1.13336E-01  5.02392E-01  1.29136E-01 -7.63735E-02  1.82452E-01  1.76526E-01  1.96548E-01  2.23773E-01
   1.28872E-01  2.11959E-01  2.80735E-01 -3.40266E-02  1.28894E-01  1.78629E-01  1.71840E-01  4.40104E-02  1.09972E-01  2.08053E-01
   1.73269E-01  9.07579E-03 -8.24982E-02  2.08292E-01 -1.06422E-01  7.56898E-02  1.70740E-01  5.99751E-02  3.26711E-01  5.23958E-02
  -6.69833E-02  1.88094E-01  6.81221E-02  1.98093E-01  8.85805E-02  6.30245E-02  5.53850E-01  1.75810E-02  5.30457E-02  2.43074E-01
   2.94480E-01 -1.91765E-02 -1.96167E-01  9.19872E-02
 NY points of the fit to the data follow
   8.59321E-02  4.82536E-02  1.25531E-02  7.74929E-04  2.76193E-03  1.82016E-02  3.13141E-02  6.67440E-02  7.80143E-02  1.19132E-01
   2.60227E-01  4.80922E-01  4.46352E-01  3.13150E-01  3.90754E-01  5.24015E-01  3.95344E-01  1.96028E-01  1.42820E-01  6.77352E-02
  -1.08965E-02 -5.46280E-02 -5.92929E-02 -7.43989E-02 -9.19607E-02 -1.10729E-01 -1.26102E-01 -1.39717E-01 -1.53931E-01 -1.66150E-01
  -1.75972E-01 -1.88160E-01 -2.06076E-01 -2.28238E-01 -2.49667E-01 -2.65451E-01 -2.81884E-01 -2.74956E-01 -2.19272E-01 -1.08599E-01
  -4.11162E-02  2.06725E-02  9.04273E-02  1.98603E-01  2.76758E-01  3.54940E-01  3.56387E-01  2.74660E-01  2.34745E-01  1.72127E-01
   1.05648E-01  6.22822E-02  3.65568E-02 -6.28715E-03 -4.45837E-02 -8.27780E-02 -1.06191E-01 -1.05431E-01 -8.27957E-02 -9.10381E-02
  -1.45095E-01 -1.51164E-01 -1.29304E-01 -1.51638E-01 -1.35537E-01  4.68049E-02  1.50946E-01  1.29163E-01  2.39124E-01  2.96667E-01
   2.25958E-01  1.69216E-01  1.31627E-01  7.52436E-02  1.02158E-02 -4.39622E-02 -8.70745E-02 -1.59683E-01 -2.65654E-01 -2.89179E-01
  -1.56527E-01 -3.30624E-02  2.69638E-02  1.67018E-01  2.75539E-01  2.67836E-01  2.36620E-01  2.12189E-01  1.76046E-01  1.40556E-01
   1.22869E-01  1.04493E-01  7.59624E-02  3.18908E-02 -1.31740E-02 -1.08740E-01 -2.11470E-01 -3.48230E-01 -4.13195E-01 -4.37625E-01
  -3.01324E-01 -1.07063E-01  5.38486E-02  1.96945E-01  2.30353E-01  2.36219E-01  2.12561E-01  1.94435E-01  1.74778E-01  1.71502E-01
   1.69812E-01  1.68769E-01  1.66169E-01  1.62417E-01  1.59450E-01  1.58310E-01  1.57361E-01  1.50774E-01  1.41696E-01  1.34147E-01
   9.81149E-02  5.29146E-02  1.95119E-02 -3.57966E-02 -1.04279E-01 -1.52569E-01 -1.77715E-01 -3.50596E-01 -4.68510E-01 -5.69517E-01
  -6.00011E-01 -5.02724E-01 -4.13660E-01 -3.92996E-01 -6.29271E-01 -7.35115E-01 -6.65750E-01 -5.13400E-01 -3.22839E-01 -1.79011E-01
  -6.77139E-02 -1.69705E-02  1.04002E-02  2.16499E-02  4.20252E-02  6.32504E-02  8.26756E-02  9.97892E-02  1.15193E-01  1.28408E-01
   1.41652E-01  1.54581E-01  1.67488E-01  1.81864E-01  1.98753E-01  2.16577E-01  2.38322E-01  2.63513E-01  2.89299E-01  3.19716E-01
   3.66374E-01  4.39741E-01  5.06500E-01  5.31480E-01  6.10895E-01  6.68830E-01  3.61777E-01 -3.49787E-01 -8.24825E-01 -8.33400E-01
  -7.40254E-01 -6.39692E-01 -4.83497E-01 -3.62554E-01 -3.33486E-01 -3.17369E-01 -2.99957E-01 -2.87514E-01 -2.77186E-01 -2.60556E-01
  -2.40470E-01 -2.31667E-01 -2.23483E-01 -2.14917E-01 -2.06319E-01 -1.96705E-01 -1.85497E-01 -1.73654E-01 -1.63282E-01 -1.52417E-01
  -1.42113E-01 -1.31422E-01 -1.21437E-01 -1.11051E-01 -1.00152E-01 -9.13504E-02 -8.24644E-02 -7.13815E-02 -6.18570E-02 -5.43604E-02
  -4.38218E-02 -3.09123E-02 -2.68499E-02 -3.35100E-02 -3.67720E-02 -2.91338E-02 -1.72614E-02 -1.77468E-02 -3.16592E-02 -4.03423E-02
  -4.07315E-02 -3.84729E-02 -3.17312E-02 -2.39655E-02 -1.58020E-02 -6.34935E-03  2.40489E-03  4.62110E-03 -1.23204E-03 -2.79141E-03
   1.10500E-02  3.44396E-02  5.52513E-02  8.07526E-02  1.56563E-01  2.61205E-01  2.82524E-01  2.16199E-01  2.11647E-01  3.15079E-01
   3.38450E-01  2.27965E-01  1.23554E-01  5.35800E-02 -1.06017E-02 -4.97037E-02 -5.47564E-02 -5.08702E-02 -5.31847E-02 -5.91741E-02
  -6.62019E-02 -7.14656E-02 -7.34330E-02 -7.55333E-02 -7.61218E-02 -7.91191E-02 -7.64429E-02 -7.52053E-02 -7.46064E-02 -7.54543E-02
  -8.01539E-02 -8.49654E-02 -9.34983E-02 -1.00989E-01 -1.14539E-01 -9.02761E-02 -2.49413E-02  2.16894E-02  2.33999E-02  7.70765E-02
   1.32145E-01  1.40553E-01  1.15812E-01  8.98451E-02  1.49918E-01  1.52786E-01  1.37208E-01  1.43419E-01  1.49302E-01  1.41721E-01
   1.10918E-01  8.98487E-02  5.50237E-02  2.46527E-02 -4.77433E-03 -3.16481E-02 -6.18229E-02 -9.93482E-02 -1.32972E-01 -1.76327E-01
  -2.22912E-01 -2.54562E-01 -2.38025E-01 -1.64083E-01 -3.36097E-02  1.35197E-01  2.49560E-01  3.29477E-01  3.55259E-01  3.02351E-01
   2.48529E-01  2.00593E-01  1.69466E-01  1.52968E-01  1.60584E-01  1.75635E-01  1.82165E-01  1.90154E-01  1.88703E-01  1.85161E-01
   1.81866E-01  1.78156E-01  1.72707E-01  1.69178E-01  1.64404E-01  1.55784E-01  1.46298E-01  1.30057E-01  1.09226E-01  8.50721E-02
   6.43847E-02  3.90889E-02  2.53868E-02  6.19130E-03 -1.23985E-02 -3.74284E-02 -7.45851E-02 -1.20628E-01 -1.58808E-01 -1.88161E-01
  -2.14398E-01 -2.20864E-01 -2.07708E-01 -1.84730E-01 -1.41930E-01 -8.98193E-02 -3.16398E-02  2.42368E-02  5.38315E-02  5.88319E-02
   3.26712E-02 -7.26126E-03 -7.00664E-02 -1.12341E-01 -1.46179E-01 -2.19842E-01 -2.74529E-01 -2.43478E-01 -3.28440E-01 -2.95516E-01
  -4.24225E-01 -1.07603E+00 -1.98796E+00 -1.68398E+00 -8.41227E-01 -5.52013E-01 -2.37942E-01  3.16774E-02  1.06274E-01  1.58803E-02
   1.22919E-02  2.16019E-02  3.07046E-02  3.60057E-02  4.21089E-02  4.66593E-02  4.82688E-02  4.74586E-02  4.23330E-02  3.30992E-02
   2.19463E-02  1.40588E-02  2.06177E-03 -3.62108E-03 -4.79652E-03  3.36071E-04  1.12664E-02  2.07061E-02  3.07792E-02  3.99673E-02
   4.89473E-02  5.72155E-02  6.60555E-02  7.22580E-02  7.55864E-02  7.92486E-02  8.30812E-02  8.73917E-02  9.20454E-02  9.56592E-02
   9.80511E-02  1.00864E-01  1.04326E-01  1.07899E-01  1.11419E-01  1.12613E-01  1.13823E-01  1.14979E-01  1.18354E-01  1.22325E-01
   1.26126E-01  1.29427E-01  1.29962E-01  1.27758E-01  1.23229E-01  1.19411E-01  1.15777E-01  1.11278E-01  1.05978E-01  9.91139E-02
   9.08931E-02  8.28026E-02  7.44684E-02  6.37864E-02  5.43858E-02  4.77739E-02  4.08887E-02  3.24860E-02  2.50825E-02  1.95022E-02
   1.31766E-02  7.92810E-03  4.61086E-03  1.02253E-03 -2.78601E-03 -6.05270E-03 -9.74314E-03 -1.34851E-02 -1.59281E-02 -1.73461E-02
  -1.88492E-02 -2.01876E-02 -1.92161E-02 -1.62130E-02 -1.36156E-02 -9.25662E-03 -3.59815E-03  1.87816E-03  7.76657E-03  1.52489E-02
   2.01862E-02  2.14401E-02  2.45949E-02  3.05356E-02  3.99006E-02  5.00277E-02  6.01232E-02  6.90459E-02  7.86096E-02  8.99184E-02
   1.02622E-01  1.16724E-01  1.31340E-01  1.45678E-01  1.58915E-01  1.73107E-01  1.85756E-01  1.96133E-01  2.03600E-01  2.07448E-01
   2.08111E-01  2.07027E-01  2.05046E-01  2.00792E-01  1.96229E-01  1.89459E-01  1.78558E-01  1.65250E-01  1.50612E-01  1.36958E-01
   1.23750E-01  1.11839E-01  9.95062E-02  8.73096E-02  7.56689E-02  6.70309E-02  5.88672E-02  4.97763E-02  4.27702E-02  3.69839E-02
   3.22636E-02  2.77839E-02  2.41029E-02  2.20182E-02  2.27657E-02  2.58726E-02  2.94090E-02  3.39515E-02  3.95369E-02  4.50463E-02
   5.10144E-02  5.88746E-02  6.70020E-02  7.22323E-02  7.66764E-02  8.02930E-02  8.19779E-02  8.29890E-02  8.62949E-02  9.04179E-02
   9.17915E-02  9.10185E-02  8.90343E-02  8.63136E-02  8.35244E-02  7.90279E-02  7.29626E-02  6.90566E-02  6.57844E-02  6.15043E-02
   5.66915E-02  5.24064E-02  4.83382E-02  4.36057E-02  3.86525E-02  3.33441E-02  2.80831E-02  2.41314E-02  2.22532E-02  1.89206E-02
   1.35929E-02  8.86122E-03  3.96507E-03 -3.56455E-03 -1.33984E-02 -2.34641E-02 -3.33593E-02 -4.46327E-02 -5.75101E-02 -7.34396E-02
  -9.37838E-02 -1.16533E-01 -1.37312E-01 -1.56717E-01 -1.76503E-01 -1.94599E-01 -2.09655E-01 -2.22450E-01 -2.34488E-01 -2.44841E-01
  -2.49349E-01 -2.47199E-01 -2.44112E-01 -2.41240E-01 -2.33971E-01 -2.22599E-01 -2.11300E-01 -2.01281E-01 -1.90841E-01 -1.81403E-01
  -1.72614E-01 -1.61823E-01 -1.48506E-01 -1.36008E-01 -1.22768E-01 -1.07427E-01 -9.32443E-02 -7.96541E-02 -6.67359E-02 -5.35382E-02
  -4.25532E-02 -3.11524E-02 -1.86979E-02 -8.65984E-03 -1.35819E-03  6.60802E-03  1.62629E-02  2.47201E-02  2.93691E-02  3.30374E-02
   3.93642E-02  4.41624E-02  4.73310E-02  5.05665E-02  5.28124E-02  5.42349E-02  5.69901E-02  5.92930E-02  5.90393E-02  5.97494E-02
   6.31498E-02  6.58022E-02  6.76825E-02  7.17548E-02  7.47209E-02  7.47394E-02  7.47954E-02  7.56689E-02  7.53127E-02  7.49027E-02
   7.54910E-02  7.51805E-02  7.49575E-02  7.57311E-02  7.55681E-02  7.55254E-02  7.68899E-02  7.85290E-02  8.00351E-02  7.81495E-02
   7.29888E-02  7.13457E-02  7.43403E-02  7.55037E-02  7.46813E-02  7.55751E-02  7.66565E-02  7.54123E-02  7.23894E-02  7.21566E-02
   7.41837E-02  7.71585E-02  7.90733E-02  7.99733E-02  8.16292E-02  8.35667E-02  8.53798E-02  8.65183E-02  8.73260E-02  8.93795E-02
   9.10527E-02  9.04122E-02  8.80532E-02  8.79388E-02  8.97357E-02  9.10016E-02  9.27228E-02  9.56434E-02  9.79968E-02  9.82874E-02
   9.82016E-02  1.01294E-01  1.06778E-01  1.09516E-01  1.10936E-01  1.10107E-01  1.06862E-01  1.06491E-01  1.08376E-01  1.10781E-01
   1.11818E-01  1.11685E-01  1.11774E-01  1.12342E-01  1.13959E-01  1.15624E-01  1.15978E-01  1.15757E-01  1.19279E-01  1.23018E-01
   1.23822E-01  1.24633E-01  1.26961E-01  1.29405E-01  1.31313E-01  1.33725E-01  1.37454E-01  1.43930E-01  1.50749E-01  1.54569E-01
   1.58205E-01  1.61420E-01  1.64388E-01  1.67708E-01
 NY background values follow
    -3.122E-03   -2.782E-03   -2.441E-03   -2.101E-03   -1.761E-03   -1.421E-03   -1.081E-03   -7.410E-04   -4.011E-04   -6.115E-05
     2.787E-04    6.185E-04    9.581E-04    1.298E-03    1.637E-03    1.977E-03    2.316E-03    2.655E-03    2.994E-03    3.332E-03
     3.671E-03    4.009E-03    4.347E-03    4.685E-03    5.023E-03    5.361E-03    5.698E-03    6.035E-03    6.372E-03    6.708E-03
     7.044E-03    7.380E-03    7.716E-03    8.051E-03    8.386E-03    8.721E-03    9.055E-03    9.389E-03    9.722E-03    1.006E-02
     1.039E-02    1.072E-02    1.105E-02    1.138E-02    1.171E-02    1.205E-02    1.238E-02    1.270E-02    1.303E-02    1.336E-02
     1.369E-02    1.402E-02    1.435E-02    1.467E-02    1.500E-02    1.532E-02    1.565E-02    1.597E-02    1.629E-02    1.662E-02
     1.694E-02    1.726E-02    1.758E-02    1.790E-02    1.822E-02    1.854E-02    1.886E-02    1.917E-02    1.949E-02    1.980E-02
