 
 $NMID
 ID=''
 FMTDAT='(2E13.5)'
 TRAMP=   1.00000E+0
 VOLUME=   1.00000E+0
 $END
  -2.20097E+4   4.21091E+3
  -5.75120E+4  -5.71385E+3
  -5.74776E+4   4.31503E+3
  -5.28322E+4   3.88628E+3
  -5.49435E+4   2.41543E+3
  -5.47219E+4   4.83899E+3
  -5.25413E+4   3.86088E+3
  -5.32543E+4   2.57386E+3
  -5.30007E+4   3.88064E+3
  -5.16771E+4   3.14779E+3
  -5.20266E+4   2.05554E+3
  -5.16961E+4   3.04703E+3
  -5.08511E+4   2.73593E+3
  -5.11798E+4   1.78201E+3
  -5.08809E+4   2.26335E+3
  -5.00768E+4   1.90555E+3
  -5.03280E+4   1.30860E+3
  -4.99648E+4   1.64637E+3
  -4.93850E+4   1.57051E+3
  -4.94645E+4   9.86950E+2
  -4.91201E+4   1.20832E+3
  -4.84436E+4   1.22611E+3
  -4.85200E+4   7.80871E+2
  -4.82768E+4   7.76305E+2
  -4.75878E+4   6.28033E+2
  -4.75169E+4   3.28812E+2
  -4.72973E+4   2.76948E+2
  -4.66415E+4  -1.06838E+2
  -4.64582E+4  -5.51853E+2
  -4.61861E+4  -6.39440E+2
  -4.56452E+4  -7.17209E+2
  -4.56015E+4  -9.93586E+2
  -4.52943E+4  -1.21632E+3
  -4.48435E+4  -1.37441E+3
  -4.46266E+4  -1.51790E+3
  -4.44493E+4  -1.52785E+3
  -4.39724E+4  -1.71118E+3
  -4.37688E+4  -1.84970E+3
  -4.35488E+4  -1.81427E+3
  -4.33260E+4  -1.91604E+3
  -4.31312E+4  -2.08020E+3
  -4.30092E+4  -2.30338E+3
  -4.25921E+4  -2.61049E+3
  -4.22415E+4  -2.68995E+3
  -4.20119E+4  -2.79333E+3
  -4.17345E+4  -2.90036E+3
  -4.15617E+4  -3.09137E+3
  -4.13145E+4  -3.23569E+3
  -4.11006E+4  -3.31650E+3
  -4.08922E+4  -3.47466E+3
  -4.06427E+4  -3.66275E+3
  -4.03145E+4  -3.84909E+3
  -4.00025E+4  -3.86751E+3
  -3.97965E+4  -3.90480E+3
  -3.97038E+4  -4.02183E+3
  -3.94105E+4  -4.20461E+3
  -3.91911E+4  -4.34235E+3
  -3.89428E+4  -4.48261E+3
  -3.86078E+4  -4.65075E+3
  -3.82653E+4  -4.72090E+3
  -3.80214E+4  -4.71390E+3
  -3.78257E+4  -4.75208E+3
  -3.76123E+4  -4.82386E+3
  -3.74448E+4  -5.01521E+3
  -3.71970E+4  -5.11097E+3
  -3.69034E+4  -5.21251E+3
  -3.68083E+4  -5.24647E+3
  -3.65660E+4  -5.43440E+3
  -3.62990E+4  -5.50864E+3
  -3.61568E+4  -5.62794E+3
  -3.59108E+4  -5.69267E+3
  -3.57096E+4  -5.80978E+3
  -3.54246E+4  -5.92689E+3
  -3.51806E+4  -6.04201E+3
  -3.49710E+4  -6.11864E+3
  -3.48372E+4  -6.22225E+3
  -3.46379E+4  -6.34643E+3
  -3.42903E+4  -6.46103E+3
  -3.41444E+4  -6.49283E+3
  -3.39116E+4  -6.61216E+3
  -3.36379E+4  -6.70216E+3
  -3.33869E+4  -6.87296E+3
  -3.31384E+4  -6.91108E+3
  -3.29408E+4  -7.07544E+3
  -3.27304E+4  -7.22896E+3
  -3.23534E+4  -7.44834E+3
  -3.20524E+4  -7.51393E+3
  -3.17445E+4  -7.58938E+3
  -3.14896E+4  -7.67586E+3
  -3.12235E+4  -7.72757E+3
  -3.10147E+4  -7.85158E+3
  -3.06368E+4  -7.90195E+3
  -3.03642E+4  -7.92904E+3
  -3.01370E+4  -7.99215E+3
  -2.98795E+4  -8.05992E+3
  -2.94882E+4  -8.08017E+3
  -2.91945E+4  -8.10039E+3
  -2.89875E+4  -8.12050E+3
  -2.88129E+4  -8.14404E+3
  -2.84672E+4  -8.29299E+3
  -2.80997E+4  -8.31354E+3
  -2.77604E+4  -8.28832E+3
  -2.75900E+4  -8.27604E+3
  -2.73447E+4  -8.30125E+3
  -2.70772E+4  -8.35306E+3
  -2.67585E+4  -8.33676E+3
  -2.65012E+4  -8.39356E+3
  -2.62039E+4  -8.30152E+3
  -2.59626E+4  -8.37096E+3
  -2.57155E+4  -8.42587E+3
  -2.54339E+4  -8.28855E+3
  -2.51278E+4  -8.23255E+3
  -2.49401E+4  -8.16053E+3
  -2.47070E+4  -8.20299E+3
  -2.44367E+4  -8.12189E+3
  -2.41834E+4  -8.12976E+3
  -2.39083E+4  -8.11123E+3
  -2.37378E+4  -8.10033E+3
  -2.35181E+4  -7.93800E+3
  -2.32340E+4  -7.93639E+3
  -2.30727E+4  -7.93804E+3
  -2.28378E+4  -7.84745E+3
  -2.26151E+4  -7.79320E+3
  -2.23990E+4  -7.72895E+3
  -2.22330E+4  -7.74897E+3
  -2.19983E+4  -7.66263E+3
  -2.18245E+4  -7.55320E+3
  -2.16399E+4  -7.45479E+3
  -2.14206E+4  -7.43495E+3
  -2.12667E+4  -7.45156E+3
  -2.10893E+4  -7.39232E+3
  -2.09245E+4  -7.27298E+3
  -2.07899E+4  -7.18535E+3
  -2.05229E+4  -7.09906E+3
  -2.04089E+4  -7.05856E+3
  -2.02634E+4  -7.06140E+3
  -2.00753E+4  -6.94508E+3
  -1.99094E+4  -6.96063E+3
  -1.97789E+4  -6.83586E+3
  -1.96490E+4  -6.77152E+3
  -1.95203E+4  -6.72711E+3
  -1.93792E+4  -6.77072E+3
  -1.93199E+4  -6.61128E+3
  -1.91794E+4  -6.62464E+3
  -1.90693E+4  -6.50248E+3
  -1.88536E+4  -6.48376E+3
  -1.87817E+4  -6.40879E+3
  -1.87630E+4  -6.38950E+3
  -1.85394E+4  -6.37931E+3
  -1.85039E+4  -6.33074E+3
  -1.83467E+4  -6.37664E+3
  -1.81942E+4  -6.28452E+3
  -1.81203E+4  -6.29686E+3
  -1.79558E+4  -6.25396E+3
  -1.78965E+4  -6.16038E+3
  -1.78063E+4  -6.17738E+3
  -1.76939E+4  -6.15888E+3
  -1.76097E+4  -6.13901E+3
  -1.74713E+4  -6.14525E+3
  -1.73638E+4  -6.12866E+3
  -1.73208E+4  -6.13543E+3
  -1.71799E+4  -6.08050E+3
  -1.71096E+4  -6.07874E+3
  -1.70312E+4  -6.09085E+3
  -1.68983E+4  -6.03806E+3
  -1.67613E+4  -6.09380E+3
  -1.67280E+4  -6.08760E+3
  -1.65509E+4  -6.06726E+3
  -1.65176E+4  -6.03820E+3
  -1.64206E+4  -6.03894E+3
  -1.62775E+4  -6.13465E+3
  -1.61985E+4  -6.06359E+3
  -1.61114E+4  -6.11471E+3
  -1.59987E+4  -6.10246E+3
  -1.58597E+4  -6.06084E+3
  -1.58309E+4  -6.10191E+3
  -1.56904E+4  -6.07287E+3
  -1.56326E+4  -6.04966E+3
  -1.54631E+4  -6.01156E+3
  -1.54515E+4  -6.09495E+3
  -1.52308E+4  -6.08405E+3
  -1.52104E+4  -6.05812E+3
  -1.50344E+4  -6.03300E+3
  -1.50378E+4  -6.09388E+3
  -1.49152E+4  -6.04986E+3
  -1.48423E+4  -6.04217E+3
  -1.47971E+4  -6.05699E+3
  -1.46709E+4  -5.99004E+3
  -1.45524E+4  -6.10278E+3
  -1.43968E+4  -6.04878E+3
  -1.43438E+4  -5.96198E+3
  -1.42211E+4  -6.03312E+3
  -1.41300E+4  -6.03759E+3
  -1.40828E+4  -5.99515E+3
  -1.39609E+4  -5.99713E+3
  -1.39209E+4  -5.99369E+3
  -1.38544E+4  -6.07966E+3
  -1.36891E+4  -5.96251E+3
  -1.35585E+4  -5.93188E+3
  -1.35838E+4  -5.95218E+3
  -1.35148E+4  -5.97038E+3
  -1.33431E+4  -5.95101E+3
  -1.32721E+4  -5.93284E+3
  -1.32175E+4  -6.00055E+3
  -1.31645E+4  -6.02774E+3
  -1.30191E+4  -6.00696E+3
  -1.30054E+4  -6.00321E+3
  -1.28443E+4  -5.96746E+3
  -1.28007E+4  -6.04164E+3
  -1.27273E+4  -6.03826E+3
  -1.26754E+4  -6.04917E+3
  -1.25462E+4  -6.06012E+3
  -1.24749E+4  -6.04522E+3
  -1.24120E+4  -6.02596E+3
  -1.23129E+4  -6.02213E+3
  -1.22216E+4  -6.10089E+3
  -1.20940E+4  -6.07486E+3
  -1.20895E+4  -6.06812E+3
  -1.19748E+4  -6.05691E+3
  -1.17853E+4  -6.12186E+3
  -1.17881E+4  -6.09814E+3
  -1.16569E+4  -6.16129E+3
  -1.15856E+4  -6.10785E+3
  -1.14672E+4  -6.09667E+3
  -1.13674E+4  -6.13832E+3
  -1.13723E+4  -6.13896E+3
  -1.12546E+4  -6.10837E+3
  -1.12159E+4  -6.13026E+3
  -1.10683E+4  -6.13473E+3
  -1.09566E+4  -6.15229E+3
  -1.08932E+4  -6.09926E+3
  -1.07855E+4  -6.15195E+3
  -1.07013E+4  -6.16023E+3
  -1.06174E+4  -6.11493E+3
  -1.05084E+4  -6.05601E+3
  -1.04657E+4  -6.09306E+3
  -1.04002E+4  -6.05580E+3
  -1.02903E+4  -6.03176E+3
  -1.02103E+4  -6.04807E+3
  -1.00907E+4  -6.09119E+3
  -1.00040E+4  -6.02176E+3
  -9.93815E+3  -6.01998E+3
  -9.81878E+3  -5.98457E+3
  -9.77288E+3  -5.95753E+3
  -9.64367E+3  -5.92897E+3
  -9.57476E+3  -5.92689E+3
  -9.57334E+3  -5.92113E+3
  -9.43357E+3  -5.89456E+3
  -9.42554E+3  -5.84653E+3
  -9.29248E+3  -5.81402E+3
  -9.25732E+3  -5.86598E+3
  -9.16859E+3  -5.81660E+3
  -9.04326E+3  -5.83293E+3
  -9.00063E+3  -5.77310E+3
  -8.96860E+3  -5.73795E+3
  -8.92939E+3  -5.77671E+3
  -8.76708E+3  -5.65054E+3
  -8.71489E+3  -5.67639E+3
  -8.67793E+3  -5.71200E+3
  -8.58494E+3  -5.65107E+3
  -8.51934E+3  -5.63313E+3
  -8.43038E+3  -5.54544E+3
  -8.40860E+3  -5.61291E+3
  -8.35012E+3  -5.55045E+3
  -8.29151E+3  -5.50822E+3
  -8.16039E+3  -5.50331E+3
  -8.11701E+3  -5.49718E+3
  -8.03106E+3  -5.43370E+3
  -7.97551E+3  -5.45349E+3
  -7.93462E+3  -5.48571E+3
  -7.83329E+3  -5.36304E+3
  -7.84958E+3  -5.36284E+3
  -7.73958E+3  -5.29706E+3
  -7.56771E+3  -5.32489E+3
  -7.64286E+3  -5.31232E+3
  -7.51887E+3  -5.26731E+3
  -7.51939E+3  -5.24625E+3
  -7.40285E+3  -5.22129E+3
  -7.36089E+3  -5.17228E+3
  -7.32112E+3  -5.17381E+3
  -7.29070E+3  -5.09221E+3
  -7.22159E+3  -5.11603E+3
  -7.18733E+3  -5.04225E+3
  -7.09141E+3  -5.07498E+3
  -7.02364E+3  -5.07466E+3
  -6.92831E+3  -4.98500E+3
  -6.95211E+3  -4.96653E+3
  -6.86072E+3  -4.97628E+3
  -6.81671E+3  -4.97454E+3
  -6.81208E+3  -4.88876E+3
  -6.76884E+3  -4.88372E+3
  -6.69115E+3  -4.82898E+3
  -6.63853E+3  -4.88403E+3
  -6.60736E+3  -4.77579E+3
  -6.53367E+3  -4.81029E+3
  -6.50577E+3  -4.79618E+3
  -6.36304E+3  -4.75896E+3
  -6.35882E+3  -4.72309E+3
  -6.39994E+3  -4.58600E+3
  -6.29068E+3  -4.73695E+3
  -6.18226E+3  -4.65033E+3
  -6.20588E+3  -4.65806E+3
  -6.20127E+3  -4.55046E+3
  -6.10979E+3  -4.59861E+3
  -6.03061E+3  -4.54754E+3
  -5.94691E+3  -4.51341E+3
  -5.84613E+3  -4.50028E+3
  -5.87036E+3  -4.44687E+3
  -5.82319E+3  -4.43858E+3
  -5.77973E+3  -4.45623E+3
  -5.67494E+3  -4.40942E+3
  -5.63942E+3  -4.35388E+3
  -5.57832E+3  -4.39505E+3
  -5.56048E+3  -4.29908E+3
  -5.52103E+3  -4.29685E+3
  -5.49792E+3  -4.24977E+3
  -5.42379E+3  -4.20136E+3
  -5.32159E+3  -4.19855E+3
  -5.33038E+3  -4.19214E+3
  -5.24269E+3  -4.09840E+3
  -5.26415E+3  -4.13170E+3
  -5.20872E+3  -4.12240E+3
  -5.10206E+3  -4.04487E+3
  -5.09446E+3  -3.99726E+3
  -5.06721E+3  -4.05230E+3
  -4.98412E+3  -3.98794E+3
  -4.94991E+3  -3.98089E+3
  -4.85529E+3  -3.90064E+3
  -4.83214E+3  -3.93504E+3
  -4.80493E+3  -3.88720E+3
  -4.82095E+3  -3.86881E+3
  -4.67959E+3  -3.80465E+3
  -4.63734E+3  -3.80681E+3
  -4.58264E+3  -3.75068E+3
  -4.51192E+3  -3.72382E+3
  -4.60292E+3  -3.67377E+3
  -4.57917E+3  -3.69310E+3
  -4.50996E+3  -3.68561E+3
  -4.43129E+3  -3.57971E+3
  -4.37977E+3  -3.54063E+3
  -4.33635E+3  -3.60831E+3
  -4.28856E+3  -3.53910E+3
  -4.34213E+3  -3.45488E+3
  -4.20746E+3  -3.43827E+3
  -4.17749E+3  -3.47387E+3
  -4.22213E+3  -3.48395E+3
  -4.15181E+3  -3.44131E+3
  -4.12301E+3  -3.35806E+3
  -4.00195E+3  -3.38413E+3
  -4.01542E+3  -3.33218E+3
  -3.97775E+3  -3.26986E+3
  -3.94291E+3  -3.25197E+3
  -3.91246E+3  -3.31035E+3
  -3.87408E+3  -3.18774E+3
  -3.81196E+3  -3.26558E+3
  -3.81078E+3  -3.18827E+3
  -3.84409E+3  -3.14485E+3
  -3.78377E+3  -3.15041E+3
  -3.72105E+3  -3.06466E+3
  -3.68826E+3  -3.09793E+3
  -3.68118E+3  -3.06153E+3
  -3.54790E+3  -3.11381E+3
  -3.65382E+3  -3.01737E+3
  -3.57158E+3  -3.08478E+3
  -3.46821E+3  -3.01510E+3
  -3.49242E+3  -2.98924E+3
  -3.47132E+3  -2.98786E+3
