 
 $NMID
 ID=''
 FMTDAT='(2E13.5)'
 TRAMP=   1.00000E+0
 VOLUME=   1.00000E+0
 $END
  -2.17674E+4  -4.84152E+3
  -5.04305E+4  -2.76386E+4
  -5.46126E+4  -1.79472E+4
  -5.08037E+4  -1.60874E+4
  -5.25183E+4  -1.79710E+4
  -5.34294E+4  -1.52603E+4
  -5.14241E+4  -1.46375E+4
  -5.18934E+4  -1.55666E+4
  -5.24532E+4  -1.38298E+4
  -5.11302E+4  -1.33899E+4
  -5.11749E+4  -1.38421E+4
  -5.14605E+4  -1.23002E+4
  -5.05028E+4  -1.16077E+4
  -5.06827E+4  -1.20105E+4
  -5.08321E+4  -1.10532E+4
  -4.98662E+4  -1.04601E+4
  -4.98972E+4  -1.05393E+4
  -4.98942E+4  -9.66341E+3
  -4.92400E+4  -9.09812E+3
  -4.91977E+4  -9.06412E+3
  -4.90967E+4  -8.27333E+3
  -4.86499E+4  -7.54279E+3
  -4.86332E+4  -7.37291E+3
  -4.84985E+4  -6.90228E+3
  -4.79192E+4  -6.32332E+3
  -4.78340E+4  -5.99708E+3
  -4.78461E+4  -5.52008E+3
  -4.72891E+4  -5.21898E+3
  -4.71451E+4  -5.07695E+3
  -4.68955E+4  -4.60304E+3
  -4.65293E+4  -4.04507E+3
  -4.65231E+4  -3.87185E+3
  -4.63218E+4  -3.57800E+3
  -4.59420E+4  -3.17762E+3
  -4.56911E+4  -2.75752E+3
  -4.55501E+4  -2.27920E+3
  -4.51078E+4  -1.88655E+3
  -4.49326E+4  -1.51853E+3
  -4.47137E+4  -1.08581E+3
  -4.45175E+4  -7.55106E+2
  -4.42346E+4  -3.99332E+2
  -4.40698E+4  -1.69628E+2
  -4.36214E+4   2.15522E+1
  -4.33496E+4   3.66402E+2
  -4.30720E+4   7.49015E+2
  -4.27629E+4   1.10944E+3
  -4.25095E+4   1.43985E+3
  -4.22503E+4   1.77846E+3
  -4.19267E+4   2.06706E+3
  -4.16506E+4   2.44180E+3
  -4.12971E+4   2.67208E+3
  -4.09764E+4   3.02704E+3
  -4.06582E+4   3.32111E+3
  -4.04639E+4   3.75637E+3
  -4.01682E+4   4.03021E+3
  -3.98979E+4   4.25847E+3
  -3.96895E+4   4.57422E+3
  -3.93374E+4   4.73641E+3
  -3.89905E+4   4.96960E+3
  -3.87534E+4   5.17120E+3
  -3.83554E+4   5.50619E+3
  -3.80953E+4   5.77775E+3
  -3.78448E+4   6.05506E+3
  -3.75123E+4   6.21651E+3
  -3.72257E+4   6.44215E+3
  -3.69765E+4   6.67048E+3
  -3.67079E+4   6.87474E+3
  -3.64068E+4   7.04972E+3
  -3.61161E+4   7.27001E+3
  -3.57751E+4   7.49948E+3
  -3.55235E+4   7.68331E+3
  -3.52518E+4   7.95440E+3
  -3.49986E+4   8.16476E+3
  -3.46497E+4   8.38264E+3
  -3.44064E+4   8.61264E+3
  -3.40499E+4   8.88259E+3
  -3.38041E+4   9.02052E+3
  -3.35836E+4   9.33307E+3
  -3.32578E+4   9.58706E+3
  -3.29294E+4   9.87946E+3
  -3.28157E+4   1.00308E+4
  -3.25076E+4   1.01433E+4
  -3.22564E+4   1.03925E+4
  -3.20376E+4   1.06001E+4
  -3.18305E+4   1.07662E+4
  -3.16157E+4   1.09360E+4
  -3.12833E+4   1.09710E+4
  -3.10608E+4   1.11505E+4
  -3.08148E+4   1.13026E+4
  -3.05708E+4   1.14758E+4
  -3.03888E+4   1.16637E+4
  -3.01091E+4   1.17568E+4
  -2.98427E+4   1.19865E+4
  -2.96063E+4   1.21621E+4
  -2.93729E+4   1.22288E+4
  -2.90573E+4   1.23548E+4
  -2.87864E+4   1.24829E+4
  -2.85210E+4   1.26360E+4
  -2.83566E+4   1.27738E+4
  -2.82520E+4   1.28086E+4
  -2.78903E+4   1.29091E+4
  -2.76092E+4   1.31192E+4
  -2.74123E+4   1.32015E+4
  -2.71832E+4   1.33455E+4
  -2.70354E+4   1.34174E+4
  -2.67469E+4   1.34938E+4
  -2.65573E+4   1.35187E+4
  -2.62515E+4   1.35686E+4
  -2.61377E+4   1.36857E+4
  -2.58170E+4   1.36705E+4
  -2.55042E+4   1.38065E+4
  -2.53255E+4   1.38941E+4
  -2.50308E+4   1.39921E+4
  -2.48882E+4   1.40408E+4
  -2.46458E+4   1.40535E+4
  -2.44227E+4   1.41386E+4
  -2.41763E+4   1.41927E+4
  -2.39163E+4   1.42021E+4
  -2.36758E+4   1.41642E+4
  -2.34379E+4   1.42213E+4
  -2.31864E+4   1.42644E+4
  -2.29894E+4   1.43180E+4
  -2.27076E+4   1.42960E+4
  -2.24195E+4   1.43249E+4
  -2.21994E+4   1.43300E+4
  -2.18938E+4   1.44312E+4
  -2.16704E+4   1.44387E+4
  -2.13910E+4   1.44325E+4
  -2.12226E+4   1.45060E+4
  -2.09717E+4   1.45305E+4
  -2.06147E+4   1.45268E+4
  -2.03254E+4   1.45097E+4
  -2.01418E+4   1.45134E+4
  -1.99356E+4   1.46277E+4
  -1.97269E+4   1.45329E+4
  -1.94153E+4   1.45778E+4
  -1.90963E+4   1.45719E+4
  -1.88106E+4   1.45920E+4
  -1.85570E+4   1.45680E+4
  -1.82298E+4   1.46451E+4
  -1.80091E+4   1.46025E+4
  -1.77272E+4   1.46127E+4
  -1.74143E+4   1.46328E+4
  -1.72377E+4   1.47456E+4
  -1.70388E+4   1.47011E+4
  -1.67389E+4   1.46830E+4
  -1.64714E+4   1.47289E+4
  -1.62514E+4   1.47208E+4
  -1.60448E+4   1.47385E+4
  -1.57371E+4   1.46984E+4
  -1.55569E+4   1.47326E+4
  -1.52747E+4   1.47131E+4
  -1.49912E+4   1.46698E+4
  -1.47014E+4   1.47692E+4
  -1.45370E+4   1.47221E+4
  -1.42582E+4   1.47487E+4
  -1.40099E+4   1.47787E+4
  -1.38073E+4   1.47154E+4
  -1.35557E+4   1.47621E+4
  -1.33064E+4   1.47259E+4
  -1.31343E+4   1.47678E+4
  -1.29372E+4   1.47877E+4
  -1.28000E+4   1.46885E+4
  -1.24803E+4   1.47094E+4
  -1.22304E+4   1.47330E+4
  -1.20864E+4   1.46727E+4
  -1.19290E+4   1.46731E+4
  -1.15961E+4   1.46269E+4
  -1.14265E+4   1.46671E+4
  -1.12402E+4   1.46383E+4
  -1.10615E+4   1.46205E+4
  -1.08996E+4   1.45470E+4
  -1.05995E+4   1.45327E+4
  -1.04202E+4   1.45414E+4
  -1.01816E+4   1.44593E+4
  -9.99598E+3   1.44701E+4
  -9.86020E+3   1.43345E+4
  -9.65197E+3   1.44138E+4
  -9.50919E+3   1.43665E+4
  -9.31289E+3   1.43242E+4
  -9.08323E+3   1.42585E+4
  -8.86838E+3   1.42007E+4
  -8.74413E+3   1.41921E+4
  -8.52274E+3   1.41984E+4
  -8.28956E+3   1.41477E+4
  -8.15593E+3   1.40950E+4
  -7.94701E+3   1.39762E+4
  -7.80883E+3   1.40326E+4
  -7.66166E+3   1.38514E+4
  -7.45515E+3   1.38639E+4
  -7.28141E+3   1.38456E+4
  -7.11030E+3   1.37640E+4
  -6.95956E+3   1.37349E+4
  -6.75719E+3   1.37176E+4
  -6.61540E+3   1.36361E+4
  -6.43277E+3   1.36010E+4
  -6.29814E+3   1.35630E+4
  -6.12165E+3   1.33945E+4
  -5.97261E+3   1.34089E+4
  -5.79200E+3   1.33348E+4
  -5.65141E+3   1.33344E+4
  -5.50953E+3   1.32795E+4
  -5.42865E+3   1.32319E+4
  -5.24825E+3   1.31742E+4
  -5.12217E+3   1.31253E+4
  -5.00811E+3   1.30767E+4
  -4.88601E+3   1.30355E+4
  -4.70088E+3   1.29594E+4
  -4.51637E+3   1.28659E+4
  -4.44463E+3   1.28083E+4
  -4.30229E+3   1.27435E+4
  -4.25227E+3   1.26295E+4
  -4.11185E+3   1.26141E+4
  -3.89453E+3   1.25496E+4
  -3.79952E+3   1.24325E+4
  -3.72538E+3   1.24096E+4
  -3.62054E+3   1.23414E+4
  -3.47647E+3   1.21938E+4
  -3.41204E+3   1.21635E+4
  -3.34177E+3   1.20536E+4
  -3.19060E+3   1.19893E+4
  -3.13386E+3   1.18762E+4
  -3.01043E+3   1.18778E+4
  -2.95665E+3   1.17080E+4
  -2.78800E+3   1.16633E+4
  -2.70327E+3   1.15026E+4
  -2.63003E+3   1.14892E+4
  -2.54067E+3   1.14192E+4
  -2.39967E+3   1.12947E+4
  -2.38652E+3   1.12431E+4
  -2.32812E+3   1.11217E+4
  -2.18555E+3   1.10072E+4
  -2.06281E+3   1.08972E+4
  -2.01363E+3   1.08715E+4
  -1.97689E+3   1.07581E+4
  -1.80283E+3   1.07116E+4
  -1.79680E+3   1.06453E+4
  -1.72436E+3   1.05037E+4
  -1.66797E+3   1.03902E+4
  -1.52185E+3   1.02914E+4
  -1.43200E+3   1.01896E+4
  -1.44974E+3   1.01578E+4
  -1.33584E+3   1.00043E+4
  -1.26054E+3   9.98130E+3
  -1.17132E+3   9.84565E+3
  -1.14171E+3   9.79865E+3
  -1.14353E+3   9.68041E+3
  -1.02096E+3   9.56964E+3
  -9.06926E+2   9.49625E+3
  -8.70709E+2   9.42273E+3
  -8.19409E+2   9.30487E+3
  -8.36406E+2   9.24890E+3
  -7.29224E+2   9.11595E+3
  -6.77484E+2   8.99058E+3
  -6.09829E+2   8.94591E+3
  -5.00990E+2   8.85665E+3
  -5.12639E+2   8.71337E+3
  -4.17704E+2   8.68465E+3
  -4.12221E+2   8.62970E+3
  -3.50766E+2   8.50451E+3
  -2.98105E+2   8.46692E+3
  -2.56280E+2   8.32410E+3
  -2.43701E+2   8.24875E+3
  -1.49327E+2   8.15507E+3
  -1.69043E+2   8.07050E+3
  -3.06104E+1   7.95410E+3
  -4.19432E+1   7.85996E+3
  -3.02436E+1   7.81818E+3
   2.00307E+1   7.74619E+3
   9.16139E+1   7.59963E+3
   1.16106E+2   7.55291E+3
   1.42604E+2   7.51094E+3
   9.51378E+1   7.38167E+3
   1.59003E+2   7.28679E+3
   1.90422E+2   7.16626E+3
   2.20384E+2   7.07313E+3
   3.16561E+2   7.00513E+3
   2.96973E+2   6.91520E+3
   3.69898E+2   6.79300E+3
   3.72213E+2   6.72238E+3
   3.72855E+2   6.64503E+3
   4.20303E+2   6.60346E+3
   4.09672E+2   6.45206E+3
   4.07697E+2   6.45812E+3
   4.55544E+2   6.33577E+3
   4.55115E+2   6.24274E+3
   5.48418E+2   6.17661E+3
   4.93835E+2   6.07768E+3
   5.51266E+2   6.00544E+3
   5.81668E+2   5.92302E+3
   5.88079E+2   5.85728E+3
   6.09993E+2   5.78428E+3
   6.41160E+2   5.68586E+3
   6.24409E+2   5.64225E+3
   6.40340E+2   5.49320E+3
   7.01495E+2   5.45297E+3
   6.21078E+2   5.41829E+3
   6.58297E+2   5.31590E+3
   6.87849E+2   5.27973E+3
   7.37769E+2   5.22366E+3
   7.11487E+2   5.06378E+3
   7.14040E+2   5.06574E+3
   7.40891E+2   4.99169E+3
   6.87191E+2   4.91005E+3
   7.45704E+2   4.84725E+3
   7.80580E+2   4.83847E+3
   7.05986E+2   4.67773E+3
   7.31076E+2   4.66760E+3
   7.31087E+2   4.58922E+3
   6.98314E+2   4.46988E+3
   7.59301E+2   4.45129E+3
   7.15651E+2   4.36934E+3
   7.42077E+2   4.30391E+3
   7.77119E+2   4.23265E+3
   7.39881E+2   4.17005E+3
   7.78801E+2   4.11925E+3
   7.37966E+2   4.10199E+3
   7.45035E+2   4.00764E+3
   7.08087E+2   3.98291E+3
   7.19397E+2   3.87161E+3
   7.12537E+2   3.79295E+3
   6.86098E+2   3.75235E+3
   7.53956E+2   3.70097E+3
   7.72935E+2   3.58529E+3
   7.26642E+2   3.61614E+3
   7.14833E+2   3.57863E+3
   6.64260E+2   3.44943E+3
   7.53865E+2   3.42780E+3
   6.96854E+2   3.33146E+3
   7.24763E+2   3.33008E+3
   7.13387E+2   3.34001E+3
   7.65002E+2   3.22028E+3
   7.07261E+2   3.18771E+3
   7.37303E+2   3.09604E+3
   6.91028E+2   3.04539E+3
   7.67586E+2   3.00284E+3
   7.13557E+2   2.95287E+3
   6.27122E+2   2.89454E+3
   6.55244E+2   2.89145E+3
   6.37531E+2   2.80602E+3
   6.26523E+2   2.80077E+3
   6.14460E+2   2.75760E+3
   6.35497E+2   2.71866E+3
   5.94193E+2   2.64779E+3
   5.99220E+2   2.64284E+3
   6.08461E+2   2.52407E+3
   7.13364E+2   2.51081E+3
   6.51537E+2   2.50368E+3
   6.16938E+2   2.44432E+3
   6.61343E+2   2.41801E+3
   5.78060E+2   2.40491E+3
   5.94339E+2   2.40285E+3
   6.09497E+2   2.32785E+3
   6.62618E+2   2.28824E+3
   6.03338E+2   2.22713E+3
   5.76579E+2   2.16970E+3
   4.81643E+2   2.17733E+3
   5.50687E+2   2.15471E+3
   5.30133E+2   2.06220E+3
   5.42512E+2   2.06119E+3
   5.60132E+2   2.04287E+3
   5.70484E+2   1.96078E+3
   5.87267E+2   2.01904E+3
   5.52879E+2   1.90969E+3
   5.25406E+2   1.83119E+3
   6.24104E+2   1.79965E+3
   5.71777E+2   1.84215E+3
