 
 $NMID
 ID=''
 FMTDAT='(2E13.5)'
 TRAMP=   1.00000E+0
 VOLUME=   1.00000E+0
 $END
   8.59782E+2  -3.20675E+2
   6.52447E+2   2.90429E+3
   4.33629E+3  -9.40239E+3
  -3.37856E+3  -2.82887E+3
  -1.88750E+3   2.42139E+3
   1.98914E+2  -5.95718E+2
  -1.23837E+3   1.85834E+3
  -5.06929E+3   4.82238E+2
  -2.11772E+2  -4.87726E+3
   1.52398E+3  -3.37945E+3
   3.70444E+3  -1.56666E+3
   3.12371E+3   2.44332E+3
  -2.65621E+3   4.53298E+3
  -5.32340E+3  -2.19867E+3
   8.84609E+1  -4.02107E+3
   4.75965E+2   8.42708E+2
   6.11918E+2   3.58577E+1
   1.10938E+2  -3.50687E+2
   1.80978E+3   3.83313E+2
   2.34220E+3  -7.26386E+2
   1.76418E+3   3.85802E+2
   2.51733E+3   3.52276E+3
  -2.87893E+3   2.04431E+3
  -2.28437E+2  -3.88053E+3
   2.71409E+3  -3.16577E+3
   9.84151E+1   3.01045E+3
  -3.68183E+3  -1.48453E+3
  -1.76943E+3  -3.09744E+3
   1.03746E+3  -3.60584E+3
   3.57650E+3   9.67399E+2
  -5.04333E+2   6.30555E+3
  -5.58673E+3   5.34956E+3
  -4.77394E+3  -8.25330E+1
   2.18558E+2  -1.86812E+2
  -1.81269E+3   1.49941E+3
   1.10278E+2   8.35703E+1
   4.09551E+3  -1.91399E+3
   5.33510E+3   4.01079E+3
  -4.00057E+2   2.88155E+3
   1.00935E+3   7.28905E+2
  -1.19470E+3  -3.76045E+2
  -2.29131E+3  -1.90293E+3
  -2.09045E+2  -6.65066E+3
   3.88103E+3  -6.23850E+3
   1.27986E+3  -1.12253E+2
  -9.19437E+2  -1.55281E+3
   3.21424E+2   4.61026E+1
  -5.37041E+2   1.90450E+3
  -1.33342E+1   1.36856E+3
   9.14551E+2  -6.92517E+2
   3.90676E+2  -1.73043E+3
   1.81271E+3  -1.12080E+3
   1.53034E+3   1.59031E+3
   5.29928E+2   9.77695E+2
  -3.30633E+3   3.24804E+3
  -2.62266E+3   1.55425E+3
  -4.23122E+3   2.88257E+3
  -2.62720E+3  -1.62255E+3
   1.84352E+2  -1.28434E+3
   2.77193E+3  -2.48486E+3
   3.02181E+3   1.72300E+2
   1.23453E+3   3.23074E+3
  -9.05391E+2   1.33623E+3
  -2.11219E+3  -8.72506E+2
   1.83178E+3  -2.42161E+3
  -2.78566E+2   2.28804E+3
  -6.85091E+2   9.43805E+2
  -1.95036E+3  -1.15163E+3
   1.84686E+2  -3.21589E+3
   4.11560E+3  -2.53292E+2
  -1.71932E+2  -1.26730E+3
  -4.17983E+2   4.53300E+2
  -1.99065E+3  -1.09830E+3
  -6.91477E+2  -1.71082E+3
   7.68429E+2   8.14307E+2
  -8.73112E+1   2.19318E+3
  -5.81326E+2   1.35798E+3
  -3.84572E+2   9.88258E+1
   1.12200E+3  -1.11830E+3
   9.91388E+2   1.82641E+3
  -1.11453E+3   5.70476E+2
  -1.63816E+2  -1.26985E+3
  -1.67751E+2  -7.43770E+2
  -1.11469E+3   1.20375E+3
  -1.59920E+3   4.36412E+2
  -3.39029E+3  -2.63506E+3
   2.64313E+2  -4.94622E+3
   2.93663E+3  -2.68563E+3
   2.91097E+3   4.84267E+2
   2.07995E+2   3.89800E+3
   8.66557E+2  -3.18110E+2
   1.47994E+3   4.72902E+2
   5.26612E+2   2.57807E+3
  -1.71002E+3   4.39768E+2
  -1.99630E+3  -1.28884E+3
   1.54667E+3  -3.62695E+2
   5.34521E+2   1.73217E+3
   8.05053E+2   2.22646E+3
  -2.26550E+3   2.82280E+3
  -1.65653E+3  -3.35264E+3
   3.52331E+3  -1.90718E+3
   4.59810E+3   2.32461E+3
   1.40657E+3   4.04451E+3
  -2.59306E+3   1.27043E+3
  -9.27572E+2  -9.58118E+2
  -9.64723E+2   4.22603E+2
  -1.30783E+3  -1.93288E+3
  -1.76798E+3  -8.58803E+2
  -2.22017E+3  -3.94931E+3
   1.31218E+3  -4.60543E+3
   4.41250E+3  -2.03119E+3
   9.53052E+2   1.74539E+3
  -2.23401E+2   1.46167E+3
  -7.05362E+2   1.85655E+3
   2.27741E+2   2.52126E+3
  -2.58432E+3   3.01863E+1
  -6.50738E+1  -4.97307E+2
  -6.31489E+2  -9.87201E+2
   2.54742E+3   7.64258E+2
  -5.62735E+2  -4.27930E+2
  -1.34743E+3   3.03977E+3
  -2.62221E+3  -4.42990E+2
  -2.10235E+3  -1.88630E+3
   1.38185E+3   6.12979E+2
   2.34165E+2   2.05281E+2
   6.30459E+2   1.22727E+3
  -4.60449E+2   1.75812E+3
  -3.58519E+2   2.18366E+3
  -5.91089E+2   1.29549E+3
  -3.42273E+3   9.26752E+2
  -1.67584E+3  -1.45947E+3
  -2.46924E+1  -1.53026E+3
   2.35608E+3   7.41991E+2
   8.40056E+2   2.81880E+3
   6.73270E+1   4.94792E+2
  -5.66837E+2  -1.12215E+3
   5.92048E+2  -1.09837E+3
   4.49800E+2  -1.04890E+3
   3.99197E+2  -3.04480E+3
   1.98290E+2  -2.02822E+3
   3.47689E+2  -8.50067E+2
   5.43408E+2   6.12854E+2
   1.58318E+3   3.07591E+3
   2.24119E+2   1.55068E+3
   1.03033E+3   4.87317E+2
   9.89244E+2   1.92174E+2
   1.97322E+2   1.42495E+3
   1.34022E+3   1.51570E+3
  -4.81390E+2   1.91872E+3
  -1.52663E+3   9.38839E+2
  -8.81381E+2   9.40377E+2
  -3.05240E+3  -2.18481E+3
   6.26923E+2  -1.74011E+3
  -5.50395E+2  -2.90148E+3
   1.28325E+3  -1.00490E+3
  -8.04805E+2   1.10691E+3
  -1.21326E+3  -4.06608E+2
   4.17435E+2   2.97812E+2
   2.64744E+2  -1.47780E+3
  -1.74159E+2   1.35845E+3
  -5.14475E+1  -5.21786E+2
  -8.01955E+2  -3.53575E+2
   1.68538E+3  -1.18970E+3
  -2.87113E+2  -1.20618E+3
   5.59904E+2   9.04379E+2
  -1.44629E+3  -2.83824E+2
  -1.02696E+2  -1.15082E+3
   2.23118E+3  -2.85860E+3
   1.13795E+3   9.98465E+2
  -1.44974E+2   1.26785E+3
  -3.83986E+3  -1.15115E+3
  -5.37707E+2  -1.84024E+3
   4.92112E+2  -6.65006E+2
  -4.11964E+2   2.76235E+2
   1.95892E+3  -1.27926E+3
  -8.83962E+2   2.11117E+2
   1.51492E+3   1.22341E+2
   1.40857E+3  -1.00503E+3
   3.08449E+2   2.51848E+3
  -4.55710E+2  -1.04104E+2
  -2.03937E+3  -3.27838E+1
   4.85156E+2  -8.21594E+2
   1.67593E+3  -2.45932E+2
  -2.62427E+2  -1.09542E+2
   7.45050E+2   1.33923E+3
   9.28039E+1   1.61236E+3
  -3.52463E+2   8.81564E+2
  -1.52962E+3   1.28676E+2
  -1.24324E+3  -7.55257E+2
   1.12545E+3  -1.55319E+3
   1.36823E+3  -9.68493E+2
  -7.75991E+2   1.27890E+3
  -6.88700E+2   6.73098E+2
   1.38127E+3  -4.12999E+2
  -1.92692E+2   1.19443E+2
  -2.35160E+2   1.22032E+3
  -3.37148E+2   1.23906E+3
  -8.05349E+2   4.76105E+2
  -8.99474E+2  -5.82166E+2
   7.99312E+2   8.60115E+2
  -2.89623E+3  -1.12188E+2
  -3.52168E+2  -1.10007E+3
   4.16445E+1  -2.29176E+3
  -1.25280E+2  -3.66458E+2
   3.04658E+3   8.63886E-1
  -1.55488E+3   2.33041E+2
  -1.39627E+2   5.14541E+2
   5.72048E+2  -1.65009E+2
   2.73424E+3   2.09485E+2
   1.84084E+3  -6.83756E+2
  -2.14452E+3   6.96315E+2
  -3.81949E+2  -9.22760E+2
   1.78149E+3   3.84604E+2
   8.47625E+2   9.69128E+2
  -1.88600E+2   1.43791E+2
  -2.30325E+2   1.29023E+3
  -1.32597E+3  -1.50913E+3
   6.06111E+2  -1.83263E+3
  -3.58570E+1   1.96458E+3
   1.79207E+2  -3.75287E+2
  -1.16946E+3   8.16862E+2
   7.87736E+2  -3.01122E+2
  -9.28059E+2   5.44027E+2
  -4.49364E+2  -7.43667E+2
  -8.34093E+2  -1.02953E+3
   1.80386E+3  -1.36538E+3
  -1.21432E+3  -6.30007E+1
   9.67636E+2   2.26841E+3
  -2.47434E+3   3.39941E+2
   1.44450E+2   9.24789E+2
  -2.08667E+2  -8.74841E+2
   2.41669E+2   1.30423E+3
  -1.41493E+3   1.06274E+3
  -2.02168E+3  -1.73904E+3
   1.24699E+3   3.02475E+2
   1.02306E+3   1.49037E+3
  -4.29558E+2   1.27943E+3
  -2.89950E+3  -4.03071E+2
   2.87063E+3  -1.91824E+3
   1.24003E+3  -1.69024E+3
  -1.52987E+3  -6.76877E+1
  -3.78730E+2   4.45196E+2
  -7.85479E+2  -9.91685E+2
  -5.70899E+2  -1.34526E+3
  -6.40228E+2  -1.65600E+3
   2.64934E+2  -7.36566E+2
  -1.30741E+3   3.03818E+1
  -7.94464E+2  -1.97110E+3
   2.80061E+2  -1.11188E+2
   5.89709E+2   2.02884E+3
  -2.14200E+3   1.05872E+3
  -7.15955E+2  -1.02692E+3
   8.57388E+2  -4.13128E+2
  -2.36830E+2  -5.28267E+2
  -5.95747E+2   8.98844E+2
   4.70453E+2  -3.50159E+2
  -1.02079E+3  -1.26688E+3
  -1.49885E+3   2.09561E+3
   2.43773E+3   3.85174E+2
  -1.78757E+3   1.74562E+3
  -1.10147E+3  -1.32630E+3
   3.85426E+1   7.25598E+2
  -6.82362E+2   2.69173E+2
   1.95155E+2   7.42371E+2
  -2.33572E+3   2.15831E+2
  -1.67205E+2  -8.79649E+2
   3.59762E+2  -1.36030E+3
   1.42878E+3  -1.03712E+2
  -3.62642E+1   2.43995E+2
  -5.69746E+2  -1.63076E+3
  -1.72430E+3   1.95917E+2
   3.41226E+2   1.16081E+3
  -7.70338E+2   3.06432E+3
  -5.56822E+2  -1.72254E+3
  -7.96111E+1  -1.55708E+3
   7.76455E+2  -8.86915E+2
  -8.39316E+1   5.35287E+2
   4.80731E+2  -1.14717E+3
  -1.95034E+2   3.33572E+2
  -2.57075E+1  -3.98047E+2
  -5.03529E+2  -1.61841E+3
  -1.00369E+3   6.75608E+2
   1.70842E+2  -6.07694E+2
  -3.53994E+2  -4.66226E+2
   1.09283E+3  -7.16940E+1
   8.60231E+2  -5.01266E+1
   1.09741E+3  -3.66332E+2
  -5.32770E+2  -2.45307E+3
   2.75499E+2   7.81937E+2
  -4.49988E+2  -3.36495E+2
   9.08491E+2  -1.36971E+3
   6.85773E+2   1.51535E+3
  -1.39612E+3  -1.46538E+3
  -1.86211E+3   2.09447E+3
   6.85149E+2   2.51960E+2
  -4.72296E+1   7.97459E+2
   2.76977E+3  -2.11720E+3
  -7.52984E+2  -7.96557E+1
   2.04193E+3  -5.47136E+2
  -1.53641E+2   1.69123E+2
  -1.54137E+3   9.88348E+1
   1.56295E+3  -1.22882E+2
   1.04202E+3   5.92409E+2
   5.59805E+2   1.22651E+3
   6.03548E+2  -1.15044E+3
  -7.73909E+2   1.01620E+2
   2.46543E+3  -8.05972E+2
  -2.08969E+2   5.49727E+2
  -4.44023E+2  -3.28819E+2
  -1.31716E+3   8.03547E+1
  -2.60418E+3  -7.23177E+2
  -1.08814E+3  -7.19481E+2
   7.97052E+2   2.07784E+2
   2.07075E+3   1.51759E+2
   3.62638E+2   3.29629E+2
   1.18760E+3  -2.38497E+3
   2.52998E+2  -2.72749E+2
  -1.88239E+3  -1.49167E+3
   2.16902E+2  -1.74393E+3
   6.70039E+2  -3.04406E+2
   9.87783E+2  -1.39779E+3
   3.09902E+2  -6.29358E+2
  -3.85121E+2  -1.59019E+3
  -1.18558E+3  -1.83869E+2
   2.86342E+3   4.06507E+2
   2.36740E+3  -2.29998E+2
  -1.12782E+2  -6.86499E+2
   5.36845E+2  -2.75262E+2
   1.74223E+3  -2.53352E+2
  -1.51612E+3  -5.89203E+2
   1.32633E+3  -1.25249E+3
   2.64342E+3   4.81252E+2
  -4.18612E+0  -1.18308E+3
   8.95520E+2   1.04751E+3
   6.42259E+2  -1.58888E+2
   8.31219E+2   1.70264E+2
  -4.32595E+2   2.04654E+2
  -4.24027E+2  -1.28937E+3
  -1.59285E+3   3.73486E+2
   4.59763E+2  -1.35718E+2
  -7.57979E+2  -5.59506E+2
   6.48164E+2   1.42661E+1
   1.03269E+3   4.84966E+2
  -1.18392E+3   2.00886E+3
  -5.96655E+2   4.80338E+2
  -1.71451E+3  -1.05654E+3
  -1.47641E+3  -2.08784E+2
   2.05351E+2  -6.21927E+2
   2.23895E+3   1.76002E+3
  -1.48719E+3  -6.03710E+1
   1.00543E+3   3.14384E+2
   1.25515E+3  -1.51242E+2
   9.74805E+2  -1.60395E+3
   1.80878E+3   4.46404E+2
  -7.07432E+2  -1.38662E+3
  -6.48549E+2   1.08924E+3
   1.55878E+3   5.37447E+2
   9.89706E+2   2.02983E+2
  -1.05366E+3  -6.62080E+2
  -1.85949E+3   2.73269E+2
   3.41609E+2  -1.14975E+2
  -1.01118E+3   3.20442E+2
   2.89017E+2  -1.78769E+3
   5.99798E+2  -8.79606E+1
   1.58262E+3  -6.99651E+2
   1.05702E+2  -1.41301E+2
   1.51415E+3   9.95128E+2
