 
 $NMID
 ID=''
 FMTDAT='(2E13.5)'
 TRAMP=   1.00000E+0
 VOLUME=   1.00000E+0
 $END
   3.14424E+2   1.71519E+2
  -1.66037E+2   1.69180E+3
   1.75895E+3  -1.21752E+3
   1.08504E+3  -7.62761E+1
   1.65210E+3  -7.17618E+1
   3.16101E+3  -1.09280E+3
   2.10030E+3  -5.84722E+2
   1.50747E+3  -1.11740E+3
  -3.99124E+2  -2.44852E+3
   8.88106E+2  -3.65369E+3
  -5.46275E+2  -2.72353E+3
   3.66654E+3  -3.89856E+3
   3.58999E+3   1.23358E+3
  -1.43590E+3   8.26922E+2
  -4.40415E+2  -2.81585E+3
   1.63407E+2  -1.64647E+3
  -1.85889E+2  -1.91419E+3
   1.53513E+2  -1.27510E+3
  -6.13056E+2  -7.34270E+2
  -9.56983E+1  -1.14046E+3
   3.07044E+3  -1.43684E+3
   7.61318E+2   2.60551E+3
  -2.40394E+3   2.56506E+2
  -2.30800E+3  -1.30589E+2
   1.68040E+2  -6.35458E+1
  -2.69024E+2   3.61868E+3
  -1.14597E+3   3.11343E+3
  -3.57192E+3  -6.53622E+2
  -2.05629E+3  -1.99430E+3
   3.70723E+3  -3.17513E+3
   3.97599E+3   1.31838E+3
  -3.82912E+3   7.52085E+3
  -8.18998E+3   4.17415E+2
   3.04707E+2   3.23273E+2
  -2.09160E+3   2.61228E+3
  -5.91901E+3  -1.09624E+3
   2.66097E+3  -1.14621E+3
   3.70175E+3   2.46994E+3
  -8.34850E+1   2.70908E+3
  -3.88736E+3   5.10153E+1
  -4.78617E+3   2.40370E+3
  -3.42672E+3  -4.40945E+2
  -2.26799E+3  -5.01206E+3
   4.09725E+3  -7.39595E+3
   2.51564E+3  -1.03403E+3
   7.43591E+2   1.91287E+3
  -9.52554E+2   4.75444E+2
   9.04597E+2   1.89628E+3
  -1.54145E+3   7.29385E+2
  -2.49094E+3   3.10704E+2
  -1.48309E+3  -1.37870E+3
   1.83969E+3  -8.38241E+2
   2.37584E+3   8.91162E+2
   1.47285E+3   1.97056E+3
  -1.67130E+3   1.93327E+3
  -2.36998E+3   1.12075E+3
  -3.86240E+3  -4.57203E+2
  -2.79462E+3  -5.99162E+3
   2.99961E+3  -4.59995E+3
   6.88466E+3  -2.45349E+3
   2.88893E+3   1.02903E+3
   1.58688E+3   3.00222E+3
  -8.89860E+1   9.36236E+2
  -8.18773E+2  -6.20781E+2
   2.40213E+3   7.16917E+2
   5.51573E+2   3.13957E+3
  -2.66362E+3   2.64799E+3
  -2.02359E+3  -3.11992E+3
   1.52094E+3  -1.05433E+3
   3.74428E+3  -1.04995E+3
  -8.14457E+2  -2.90541E+0
  -6.67594E+1  -8.14758E+2
   2.18681E+3  -1.92359E+3
   2.77959E+3   4.76813E+2
   6.98399E+2   1.48769E+3
  -2.50597E+2   2.03226E+3
  -2.03591E+2   1.92460E+3
   6.32724E+2   2.42402E+3
   2.08348E+3   1.74289E+3
  -1.20975E+3   1.27488E+3
  -9.08635E+2  -1.59268E+3
  -2.85536E+3  -1.38703E+3
  -2.94647E+2   4.03147E+2
  -1.62588E+3  -1.12366E+3
  -1.34325E+3  -5.07302E+2
   7.29329E+2  -3.61265E+3
   3.30022E+3  -1.05900E+3
   3.03028E+3   7.07382E+2
   2.26620E+3   3.64147E+3
  -3.17767E+2   2.44406E+2
   1.76180E+3   2.89809E+2
   1.30084E+2   2.15024E+3
  -1.67106E+3   9.48892E+2
   5.69177E+2  -2.76010E+3
   1.92504E+3  -2.81323E+3
   2.00736E+3   1.66905E+3
   6.47984E+2   3.29114E+3
  -2.52257E+3   2.06455E+3
   1.96879E+2  -1.32130E+3
   2.48034E+3  -2.80274E+2
   3.54410E+3   3.47895E+3
  -1.83966E+3   3.66218E+3
  -2.68087E+3   2.78178E+2
   6.39484E+2  -2.67072E+3
   6.36019E+2  -1.83557E+3
  -6.21026E+2   1.26352E+3
  -2.28167E+2  -1.30601E+0
  -1.42824E+3  -4.47782E+2
   2.03523E+3   8.26152E+2
   5.95601E+2   1.42621E+3
  -6.01881E+2   1.81503E+3
  -1.94415E+3   1.58161E+3
   2.28516E+2   1.66350E+3
  -1.03024E+3  -5.52426E+1
  -2.13092E+1  -1.28628E+3
  -1.08554E+3   2.77486E+3
   1.88366E+3   6.34169E+2
   7.30618E+2  -5.49591E+2
   9.05716E+2   1.97830E+3
  -5.97560E+2   8.67839E+2
   1.67474E+3   5.83616E+1
  -1.49923E+3   2.58132E+2
   1.18037E+3   2.90675E+3
  -3.49128E+2   1.84081E+3
  -1.66920E+3   4.37149E+2
  -2.40640E+2   2.21771E+3
   2.13070E+3   8.47082E+2
  -1.21398E+3   1.91085E+3
  -2.90313E+3   8.20586E+2
   8.77258E+2   3.53451E+2
   2.55784E+2   9.68647E+2
   6.38055E+2   2.17293E+3
  -2.01121E+3  -2.12895E+3
  -9.71984E+2  -6.09884E+2
   1.77303E+3  -2.75809E+2
  -7.11253E+2   2.26946E+2
   1.36779E+3  -8.75948E+2
  -3.54459E+2  -1.58813E+2
   2.63300E+2  -8.18006E+1
  -4.18927E+2   7.53943E+2
  -1.62297E+2  -2.30201E+2
  -3.34931E+3  -8.11629E+2
  -1.46989E+3  -3.38931E+2
   1.37931E+3  -4.31561E+2
   8.42608E+1  -3.94320E+2
   2.36498E+2   1.52645E+2
  -8.50553E+2   3.44166E+2
   1.60434E+3   1.67698E+2
  -1.68482E+3  -1.48217E+2
  -2.17963E+2   9.96476E+2
   1.03094E+3  -2.21398E+2
   1.55659E+2  -8.60701E+1
   1.58916E+2  -5.49241E+1
   4.49728E+2   1.36995E+3
   3.28338E+2  -5.75306E+2
  -3.26575E+2  -1.53210E+3
  -1.60476E+3  -1.63542E+3
   6.19681E+2   9.38264E+2
   2.47358E+2  -3.74700E+2
   7.54124E+2   1.76302E+3
   1.53701E+3  -1.85595E+3
   1.23305E+3   1.48768E+3
  -8.38446E+2  -2.48689E+1
  -5.19369E+2  -5.67828E+1
  -2.34568E+2  -5.41641E+2
   1.12344E+2   2.11612E+3
  -1.04524E+3   3.47124E+2
   6.35977E+2  -3.05215E+3
  -2.94400E+2  -4.77376E+2
   9.23443E+2  -2.82711E+3
   3.71718E+2  -2.71466E+2
   7.60417E+2   1.41397E+3
   1.19433E+3  -3.68771E+2
   2.00498E+3   9.10720E+2
   3.00553E+2  -5.42432E+2
  -2.28726E+2   9.77133E+2
  -5.84788E+2   9.20761E+2
   5.37272E+2   2.38324E+2
  -2.65006E+2  -9.56799E+2
   2.50014E+2   4.75603E+2
  -1.18353E+3   1.76363E+2
   3.55915E+2  -3.14740E+2
  -3.67082E+2   6.01806E+2
   1.27421E+2   5.27782E+2
  -8.28169E+2  -2.03617E+3
  -8.09128E+2  -1.79974E+2
  -9.67942E+2  -1.23608E+3
   1.07303E+3   1.01450E+3
  -4.56361E+2  -1.29127E+0
  -6.76819E+2  -7.98495E+2
  -2.38573E+3  -9.65832E+2
   3.34755E+1  -1.55707E+3
  -1.15781E+3  -1.19401E+2
  -3.10797E+2   1.37794E+3
   6.44856E+2  -6.65115E+2
   5.39484E+2  -8.96817E+2
  -4.63396E+2   1.70015E+2
   1.56214E+1  -8.75318E+2
  -6.89976E+2   1.57372E+3
  -6.51276E+2  -5.69155E+2
   9.10366E+2   1.26919E+3
  -1.57978E+3   1.38175E+3
   3.18888E+1  -1.56557E+2
  -9.93781E+2  -2.37796E+3
  -4.82886E+2  -9.33317E+2
  -6.28201E+2  -1.50435E+3
   9.46409E+2  -3.63389E+2
   6.50093E+2  -1.09043E+3
   9.48256E+2   2.87707E+2
  -3.85279E+2   2.64005E+2
  -9.27047E+2   2.52282E+3
  -2.85794E+3  -1.30502E+3
  -1.28127E+3   2.13552E+3
  -1.13699E+3   3.30954E+2
   8.71098E+2  -1.13403E+3
   1.20725E+2   1.25280E+3
  -1.69691E+3  -3.41946E+2
   7.04279E+2   2.43799E+3
  -4.60371E+2   1.01057E+3
  -1.95427E+3   4.64871E+1
   1.55847E+1   2.13521E+3
  -5.09654E+2   3.23690E+3
  -9.54775E+2   1.18701E+3
   2.30773E+2   5.32343E+2
  -3.28111E+2   1.40324E+3
  -4.62568E+2  -7.65030E+2
  -5.40868E+2   1.88313E+2
  -1.45848E+3   2.50628E+3
   1.94905E+2  -1.07937E+2
  -7.03987E+2   6.36706E+2
   3.22499E+2   3.55516E+2
  -3.17976E+2   2.34038E+3
  -2.11669E+3   6.90935E+2
  -1.41595E+3   4.61214E+2
  -2.46232E+3   6.62406E+2
   2.42158E+3  -2.30358E+3
   1.13042E+3   3.75550E+2
   3.70835E+2  -2.77237E+2
  -3.94613E+2  -5.93390E+2
  -1.75985E+3   4.91517E+2
  -1.45953E+3  -1.41281E+3
  -1.59464E+3   1.85346E+3
  -1.65584E+3   2.30592E+3
  -6.92158E+2   2.40054E+3
  -1.95518E+3   5.23463E+2
  -8.52554E+2  -1.63602E+3
   1.41263E+3   2.53529E+3
  -2.21808E+3   8.43909E+2
  -7.19018E+2  -7.23442E+2
   6.02819E+2   5.03284E+2
  -7.38640E+2   5.27666E+2
  -3.01818E+3   1.63553E+3
   1.37483E+3   1.41608E+2
  -4.50742E+2   3.53578E+2
  -1.03253E+3  -1.05996E+3
  -3.67640E+2  -1.11249E+3
  -5.76909E+2  -5.77674E+2
   7.42432E+2   1.59747E+3
  -6.26727E+1  -2.23495E+2
  -1.07868E+3   1.62617E+2
   1.47935E+3  -6.14381E+2
  -5.69050E+2  -1.06352E+3
  -5.75028E+2  -1.83868E+2
  -1.74800E+3   2.93223E+2
  -1.67295E+3   2.07035E+3
   2.32492E+2   4.67851E+2
  -2.68509E+2  -2.17283E+2
  -5.73487E+2   6.95551E+2
  -1.65168E+3   5.50346E+1
  -6.16262E+2  -1.64104E+3
   3.77303E+2  -2.25170E+3
  -4.96852E+2   9.59836E+2
  -9.24844E+2   1.20075E+3
  -7.55620E+2  -9.59155E+2
  -3.04084E+0   1.48137E+3
   1.05300E+2   5.07410E+1
   7.87762E+1  -4.74141E+2
  -1.01333E+3   3.29474E+2
  -4.33357E+2  -4.55002E+2
  -1.76554E+3   1.09639E+3
   1.02366E+3  -1.00339E+3
  -1.75868E+2   6.32200E+2
  -1.03852E+3  -1.68956E+3
   4.50259E+2  -4.21389E+2
  -6.40402E+1   5.36032E+2
  -9.91749E+2   4.69080E+2
  -5.32505E+2   7.12862E+2
  -1.08961E+3   7.37166E+1
  -8.18089E+1  -7.71600E+2
  -8.42970E+2  -1.42008E+2
  -6.70310E+2  -1.23776E+3
  -1.35375E+3   1.76878E+3
   7.16994E+2  -5.53792E+2
  -2.95719E+3  -3.48679E+2
  -3.28593E+2  -4.39458E+2
  -6.22616E+2  -1.45052E+3
   1.71418E+3  -9.53468E+2
   3.97429E+1  -1.07147E+3
  -1.55252E+3  -3.09199E+2
  -1.43082E+2  -5.43683E+2
  -4.78216E+1  -1.49023E+3
   1.00155E+3  -1.18450E+3
  -9.29021E+2   2.65189E+2
   2.61893E+3   3.50619E+2
   4.52608E+2  -8.28065E+2
  -3.67992E+1  -1.14987E+2
   2.66536E+2  -1.37690E+3
   1.37058E+3   3.63225E+2
  -6.88980E+2  -6.88754E+2
  -1.83556E+1  -1.17183E+3
   2.56525E+2   5.75374E+2
   1.13032E+2   8.55258E+1
   8.15565E+2   2.74141E+2
  -1.66484E+3  -1.07162E+2
  -2.32198E+3  -2.54805E+3
  -6.35899E+2   2.16892E+3
   8.05374E+2   1.17445E+3
  -1.28181E+3  -3.76356E+2
  -1.53921E+3  -1.16058E+3
  -3.12597E+2  -6.61183E+2
   4.40427E+2   4.24916E+2
   1.53544E+3   3.11536E+1
   3.76020E+2  -2.31010E+2
  -5.96354E+1   8.18369E+2
  -4.14059E+2   1.72904E+3
  -1.08289E+3  -5.10760E+2
   7.28126E+1  -8.79841E+2
   7.26407E+2  -1.56586E+3
   2.99183E+2  -2.32958E+2
   1.98477E+1   7.52077E+2
   4.17275E+2   3.30865E+2
  -5.89985E+2   9.17451E+2
  -1.86421E+2  -3.48362E+2
   4.53221E+2  -1.64526E+3
  -2.80018E+2   9.30298E+2
   1.38345E+3   2.07027E+3
   2.08940E+2  -1.17948E+3
  -2.73026E+1   1.12419E+2
  -3.18799E+3   6.60437E+0
  -1.73124E+3   8.28570E+2
   1.53509E+3   4.06448E+2
  -1.12280E+3  -1.11098E+3
   1.77730E+3   9.76387E+2
  -5.50321E+2  -8.94560E+2
   6.02788E+2   1.60763E+3
  -4.99207E+2   4.10175E+2
   9.44742E+2   1.22522E+3
   1.80619E+3  -1.10896E+3
   1.50855E+3   2.45766E+2
  -9.99901E+2  -1.20491E+3
   4.57618E+2  -1.34387E+3
   1.71724E+1   1.02861E+3
   2.25575E+2  -3.99691E+2
  -6.80994E+2  -6.83623E+2
  -1.67789E+3  -4.98425E+2
   1.26494E+3  -1.48861E+3
   1.33472E+3  -6.72966E+2
   1.36703E+3  -2.60117E+2
  -1.17688E+3  -4.39433E+0
   6.72069E+2  -7.84285E+2
   3.25796E+2   1.44858E+2
  -6.71389E+2   5.19312E+2
   7.49227E+2  -1.08341E+3
   1.92012E+1  -2.89529E+2
   5.54679E+2   6.32691E+1
  -1.35643E+3   1.51614E+2
   6.60778E+2  -7.18935E+2
