 
 $NMID
 ID=''
 FMTDAT='(2E13.5)'
 TRAMP=   1.00000E+0
 VOLUME=   1.00000E+0
 $END
  -2.07247E+4  -6.82257E+3
  -4.64162E+4  -3.15218E+4
  -5.14494E+4  -2.25111E+4
  -4.74781E+4  -2.02916E+4
  -4.86649E+4  -2.21487E+4
  -4.98538E+4  -1.95136E+4
  -4.77408E+4  -1.88859E+4
  -4.79617E+4  -1.98185E+4
  -4.86622E+4  -1.82128E+4
  -4.73987E+4  -1.76985E+4
  -4.73597E+4  -1.80866E+4
  -4.77743E+4  -1.67645E+4
  -4.69467E+4  -1.60091E+4
  -4.69382E+4  -1.64689E+4
  -4.70603E+4  -1.54878E+4
  -4.63334E+4  -1.48642E+4
  -4.63266E+4  -1.50813E+4
  -4.63264E+4  -1.42087E+4
  -4.57838E+4  -1.35833E+4
  -4.57383E+4  -1.36186E+4
  -4.56656E+4  -1.27413E+4
  -4.51828E+4  -1.19659E+4
  -4.50828E+4  -1.18817E+4
  -4.48765E+4  -1.13186E+4
  -4.44139E+4  -1.06158E+4
  -4.42475E+4  -1.03690E+4
  -4.41323E+4  -9.93025E+3
  -4.36279E+4  -9.45374E+3
  -4.33082E+4  -9.26335E+3
  -4.31869E+4  -8.76825E+3
  -4.27648E+4  -8.16313E+3
  -4.26499E+4  -7.92167E+3
  -4.25198E+4  -7.51688E+3
  -4.20199E+4  -7.09246E+3
  -4.17947E+4  -6.71843E+3
  -4.16461E+4  -6.15242E+3
  -4.11664E+4  -5.67130E+3
  -4.09243E+4  -5.36496E+3
  -4.07000E+4  -4.84488E+3
  -4.04390E+4  -4.41583E+3
  -4.02448E+4  -4.21630E+3
  -4.00288E+4  -3.97114E+3
  -3.96641E+4  -3.67322E+3
  -3.92875E+4  -3.36744E+3
  -3.90159E+4  -3.00819E+3
  -3.86694E+4  -2.62406E+3
  -3.84916E+4  -2.38465E+3
  -3.82371E+4  -2.17614E+3
  -3.78788E+4  -1.82078E+3
  -3.76192E+4  -1.57194E+3
  -3.72680E+4  -1.31033E+3
  -3.69456E+4  -1.07617E+3
  -3.66019E+4  -6.91317E+2
  -3.63256E+4  -4.07290E+2
  -3.60541E+4  -1.74159E+2
  -3.57702E+4   4.99210E+1
  -3.54778E+4   2.97917E+2
  -3.50937E+4   5.44065E+2
  -3.47528E+4   8.17239E+2
  -3.43416E+4   1.00614E+3
  -3.40033E+4   1.25629E+3
  -3.37250E+4   1.50576E+3
  -3.34291E+4   1.82770E+3
  -3.31299E+4   1.96219E+3
  -3.28640E+4   2.19742E+3
  -3.25826E+4   2.42467E+3
  -3.23272E+4   2.67208E+3
  -3.19829E+4   2.81129E+3
  -3.17269E+4   2.97276E+3
  -3.14143E+4   3.16662E+3
  -3.10937E+4   3.36120E+3
  -3.08409E+4   3.55900E+3
  -3.04775E+4   3.72645E+3
  -3.01263E+4   3.89181E+3
  -2.97770E+4   4.07185E+3
  -2.94736E+4   4.26334E+3
  -2.91686E+4   4.44647E+3
  -2.88988E+4   4.59446E+3
  -2.84817E+4   4.84609E+3
  -2.81619E+4   4.95114E+3
  -2.78360E+4   5.14780E+3
  -2.75180E+4   5.26267E+3
  -2.72288E+4   5.39682E+3
  -2.69931E+4   5.56978E+3
  -2.66494E+4   5.65751E+3
  -2.62948E+4   5.75730E+3
  -2.59603E+4   5.88230E+3
  -2.55904E+4   6.03200E+3
  -2.53479E+4   6.24750E+3
  -2.49579E+4   6.37789E+3
  -2.46768E+4   6.45960E+3
  -2.43228E+4   6.60446E+3
  -2.40762E+4   6.79592E+3
  -2.37719E+4   6.89088E+3
  -2.35092E+4   6.97358E+3
  -2.30869E+4   7.18035E+3
  -2.27712E+4   7.30354E+3
  -2.24984E+4   7.46249E+3
  -2.22638E+4   7.53088E+3
  -2.19356E+4   7.66534E+3
  -2.15074E+4   7.71158E+3
  -2.12471E+4   7.86781E+3
  -2.10503E+4   8.06008E+3
  -2.07388E+4   8.08358E+3
  -2.04298E+4   8.19830E+3
  -2.01785E+4   8.22251E+3
  -1.99142E+4   8.42707E+3
  -1.96789E+4   8.50519E+3
  -1.93348E+4   8.54243E+3
  -1.90036E+4   8.64095E+3
  -1.87013E+4   8.80956E+3
  -1.84297E+4   8.87417E+3
  -1.82178E+4   9.00991E+3
  -1.79706E+4   9.11067E+3
  -1.78170E+4   9.14325E+3
  -1.74902E+4   9.27153E+3
  -1.72651E+4   9.35427E+3
  -1.70671E+4   9.41620E+3
  -1.68102E+4   9.53063E+3
  -1.65692E+4   9.60216E+3
  -1.63233E+4   9.66605E+3
  -1.61473E+4   9.76530E+3
  -1.58559E+4   9.84222E+3
  -1.55967E+4   9.83112E+3
  -1.54415E+4   9.91206E+3
  -1.51753E+4   9.98057E+3
  -1.49916E+4   1.00283E+4
  -1.47620E+4   1.00705E+4
  -1.46006E+4   1.01551E+4
  -1.43833E+4   1.01539E+4
  -1.41958E+4   1.02039E+4
  -1.39533E+4   1.01186E+4
  -1.38341E+4   1.03145E+4
  -1.36573E+4   1.02727E+4
  -1.33672E+4   1.02996E+4
  -1.32412E+4   1.03734E+4
  -1.29792E+4   1.03123E+4
  -1.28672E+4   1.02708E+4
  -1.26109E+4   1.03807E+4
  -1.24299E+4   1.03544E+4
  -1.22711E+4   1.03025E+4
  -1.20852E+4   1.02780E+4
  -1.18540E+4   1.03320E+4
  -1.17026E+4   1.03463E+4
  -1.15422E+4   1.02896E+4
  -1.13633E+4   1.03186E+4
  -1.12111E+4   1.02836E+4
  -1.10090E+4   1.02982E+4
  -1.08475E+4   1.02781E+4
  -1.06750E+4   1.02756E+4
  -1.04942E+4   1.02359E+4
  -1.04064E+4   1.01518E+4
  -1.01627E+4   1.00871E+4
  -1.00208E+4   1.01047E+4
  -9.85084E+3   1.00238E+4
  -9.64468E+3   9.98416E+3
  -9.50685E+3   9.89389E+3
  -9.38265E+3   9.96292E+3
  -9.21230E+3   9.80108E+3
  -9.00727E+3   9.81842E+3
  -8.90749E+3   9.76180E+3
  -8.79713E+3   9.68569E+3
  -8.57648E+3   9.70438E+3
  -8.45553E+3   9.60452E+3
  -8.29506E+3   9.56319E+3
  -8.11723E+3   9.46909E+3
  -7.95268E+3   9.40773E+3
  -7.76428E+3   9.29213E+3
  -7.62693E+3   9.30588E+3
  -7.46668E+3   9.27217E+3
  -7.35950E+3   9.17493E+3
  -7.23025E+3   9.09227E+3
  -7.14167E+3   9.07404E+3
  -6.97329E+3   8.98718E+3
  -6.75774E+3   8.97198E+3
  -6.61728E+3   8.88442E+3
  -6.54383E+3   8.81234E+3
  -6.38577E+3   8.67967E+3
  -6.26869E+3   8.65879E+3
  -6.08484E+3   8.59212E+3
  -6.01968E+3   8.53194E+3
  -5.91881E+3   8.40185E+3
  -5.72525E+3   8.33134E+3
  -5.60917E+3   8.20704E+3
  -5.45658E+3   8.15256E+3
  -5.34348E+3   8.11347E+3
  -5.25184E+3   8.11118E+3
  -5.11462E+3   7.95410E+3
  -4.98521E+3   7.88184E+3
  -4.97595E+3   7.87593E+3
  -4.79378E+3   7.79400E+3
  -4.67720E+3   7.66185E+3
  -4.57934E+3   7.58771E+3
  -4.50839E+3   7.50894E+3
  -4.38578E+3   7.40649E+3
  -4.20343E+3   7.33345E+3
  -4.10427E+3   7.21963E+3
  -4.09067E+3   7.16707E+3
  -3.87646E+3   7.10702E+3
  -3.84618E+3   7.02198E+3
  -3.77538E+3   6.99069E+3
  -3.69466E+3   6.81650E+3
  -3.56427E+3   6.76653E+3
  -3.36029E+3   6.64469E+3
  -3.36874E+3   6.60874E+3
  -3.28760E+3   6.44773E+3
  -3.16058E+3   6.41447E+3
  -3.09999E+3   6.31796E+3
  -3.03661E+3   6.28746E+3
  -2.95214E+3   6.20177E+3
  -2.80937E+3   6.08979E+3
  -2.76437E+3   6.07021E+3
  -2.68671E+3   5.97162E+3
  -2.58605E+3   5.83197E+3
  -2.49832E+3   5.87887E+3
  -2.49424E+3   5.70222E+3
  -2.39072E+3   5.65357E+3
  -2.33166E+3   5.60044E+3
  -2.24271E+3   5.45844E+3
  -2.18020E+3   5.49954E+3
  -2.11536E+3   5.29077E+3
  -2.02211E+3   5.28829E+3
  -2.00432E+3   5.21378E+3
  -1.90019E+3   5.15877E+3
  -1.84132E+3   5.06871E+3
  -1.78366E+3   4.90466E+3
  -1.69184E+3   4.87960E+3
  -1.70112E+3   4.83905E+3
  -1.53124E+3   4.82361E+3
  -1.53490E+3   4.70094E+3
  -1.46142E+3   4.64794E+3
  -1.39900E+3   4.57910E+3
  -1.33625E+3   4.49000E+3
  -1.25945E+3   4.39352E+3
  -1.27971E+3   4.35993E+3
  -1.27444E+3   4.31378E+3
  -1.08183E+3   4.23593E+3
  -1.11154E+3   4.13960E+3
  -1.05763E+3   4.07336E+3
  -1.00349E+3   4.04924E+3
  -1.02052E+3   4.06266E+3
  -9.48900E+2   3.87484E+3
  -8.49821E+2   3.86372E+3
  -8.40608E+2   3.84750E+3
  -8.29783E+2   3.74970E+3
  -7.59935E+2   3.69012E+3
  -7.08355E+2   3.65083E+3
  -7.02654E+2   3.58296E+3
  -6.59643E+2   3.54274E+3
  -5.93385E+2   3.48990E+3
  -6.15327E+2   3.44627E+3
  -5.10558E+2   3.41687E+3
  -4.58438E+2   3.30867E+3
  -5.31223E+2   3.24698E+3
  -3.94364E+2   3.20025E+3
  -4.30049E+2   3.18824E+3
  -4.40692E+2   3.17097E+3
  -4.02590E+2   3.14247E+3
  -3.98109E+2   3.06530E+3
  -2.91974E+2   3.04026E+3
  -2.78460E+2   2.94529E+3
  -2.76153E+2   2.85853E+3
  -2.30451E+2   2.81181E+3
  -1.94210E+2   2.76321E+3
  -2.37732E+2   2.77029E+3
  -1.89855E+2   2.67726E+3
  -1.96458E+2   2.62871E+3
  -1.38128E+2   2.61074E+3
  -1.20875E+2   2.52075E+3
  -7.75410E+1   2.48781E+3
  -1.18203E+2   2.50945E+3
  -6.74794E+1   2.45099E+3
  -7.51261E+1   2.41412E+3
  -5.48206E+1   2.37985E+3
  -2.82416E+1   2.25144E+3
   2.86688E+1   2.24249E+3
  -4.20915E+0   2.24275E+3
   3.59409E+1   2.23326E+3
   7.89453E+1   2.12068E+3
   6.38576E+1   2.13617E+3
   7.04668E+1   2.09406E+3
   6.19705E+1   2.01485E+3
   1.03636E+2   2.03669E+3
   1.43102E+2   1.93665E+3
   1.32474E+2   1.94963E+3
   1.28722E+2   1.90138E+3
   1.18610E+2   1.88582E+3
   1.27095E+2   1.78180E+3
   6.73243E+1   1.81293E+3
   1.30947E+2   1.79391E+3
   1.75141E+2   1.74098E+3
   1.79483E+2   1.68615E+3
   1.45541E+2   1.65871E+3
   1.97098E+2   1.64977E+3
   1.80845E+2   1.59576E+3
   2.16960E+2   1.60271E+3
   2.15209E+2   1.55873E+3
   1.57778E+2   1.50395E+3
   1.42151E+2   1.50044E+3
   2.07373E+2   1.46088E+3
   1.68588E+2   1.41301E+3
   2.15439E+2   1.42499E+3
   2.54882E+2   1.39472E+3
   2.83786E+2   1.38465E+3
   1.96003E+2   1.33919E+3
   2.52681E+2   1.32286E+3
   2.21459E+2   1.27868E+3
   3.22396E+2   1.29484E+3
   2.94464E+2   1.23135E+3
   3.39393E+2   1.22961E+3
   2.81674E+2   1.21455E+3
   2.27192E+2   1.15785E+3
   2.75123E+2   1.16359E+3
   2.22102E+2   1.14957E+3
   2.54523E+2   1.12086E+3
   2.98599E+2   1.03385E+3
   2.36245E+2   1.12884E+3
   2.61193E+2   1.03636E+3
   2.62909E+2   1.07511E+3
   2.95294E+2   1.00928E+3
   2.15795E+2   1.01112E+3
   3.10575E+2   1.05362E+3
   2.73296E+2   1.01062E+3
   2.04271E+2   9.65129E+2
   2.79104E+2   9.73643E+2
   2.79814E+2   9.18607E+2
   2.92748E+2   9.38644E+2
   2.67328E+2   9.28115E+2
   3.55563E+2   9.66387E+2
   3.17669E+2   9.12883E+2
   2.56820E+2   8.49776E+2
   2.78895E+2   8.69810E+2
   2.80052E+2   8.39453E+2
   2.70196E+2   8.40650E+2
   2.60965E+2   7.71509E+2
   2.76826E+2   8.59168E+2
   1.88807E+2   8.24906E+2
   2.53084E+2   7.71731E+2
   3.12197E+2   7.41766E+2
   2.40888E+2   7.65097E+2
   2.18027E+2   7.28279E+2
   1.91490E+2   7.28603E+2
   2.60081E+2   7.40082E+2
   2.51000E+2   6.39474E+2
   2.66341E+2   6.62693E+2
   2.82500E+2   6.49120E+2
   1.97150E+2   5.84947E+2
   2.37864E+2   6.48931E+2
   1.82479E+2   5.98971E+2
   2.06279E+2   6.11281E+2
   1.76620E+2   6.25767E+2
   1.52843E+2   5.92487E+2
   2.47321E+2   5.91200E+2
   1.81508E+2   5.96024E+2
   1.65637E+2   5.68254E+2
   1.25059E+2   5.42140E+2
   1.90491E+2   5.99833E+2
   1.57624E+2   5.28680E+2
   1.86894E+2   5.18954E+2
   2.10900E+2   5.20756E+2
   2.01561E+2   5.17154E+2
   1.60057E+2   5.44020E+2
   2.08091E+2   4.47896E+2
   2.45114E+2   4.44946E+2
   1.67357E+2   4.39976E+2
   2.15475E+2   4.13724E+2
   1.52254E+2   3.66044E+2
