 
 $NMID
 ID=''
 FMTDAT='(2E13.5)'
 TRAMP=   1.00000E+0
 VOLUME=   1.00000E+0
 $END
   1.60922E+3   1.16134E+4
  -3.90354E+3   2.96897E+4
   2.42683E+3   2.98891E+4
   3.27943E+3   2.71252E+4
   3.44869E+3   2.77967E+4
   5.65959E+3   2.73347E+4
   6.32633E+3   2.59141E+4
   6.81582E+3   2.60115E+4
   8.50962E+3   2.55682E+4
   9.33186E+3   2.43811E+4
   9.90879E+3   2.42704E+4
   1.13281E+4   2.37801E+4
   1.22800E+4   2.27236E+4
   1.29277E+4   2.25084E+4
   1.41495E+4   2.20681E+4
   1.50429E+4   2.11104E+4
   1.56556E+4   2.05270E+4
   1.67454E+4   1.98569E+4
   1.73892E+4   1.88582E+4
   1.78518E+4   1.81745E+4
   1.86376E+4   1.73142E+4
   1.92504E+4   1.61380E+4
   1.96811E+4   1.53205E+4
   2.02891E+4   1.43822E+4
   2.06444E+4   1.31096E+4
   2.10144E+4   1.21098E+4
   2.14405E+4   1.10268E+4
   2.17930E+4   9.94558E+3
   2.19089E+4   8.86252E+3
   2.23129E+4   7.71356E+3
   2.26620E+4   6.40241E+3
   2.28893E+4   5.34057E+3
   2.32070E+4   4.22911E+3
   2.34899E+4   3.09131E+3
   2.36383E+4   2.01674E+3
   2.38945E+4   9.36504E+2
   2.40301E+4  -1.37800E+2
   2.40805E+4  -1.10204E+3
   2.41855E+4  -2.17241E+3
   2.42296E+4  -3.14216E+3
   2.41465E+4  -3.98446E+3
   2.41368E+4  -4.89092E+3
   2.40216E+4  -5.69531E+3
   2.38865E+4  -6.50775E+3
   2.36496E+4  -7.37043E+3
   2.34737E+4  -8.25015E+3
   2.31269E+4  -9.08423E+3
   2.29164E+4  -9.89614E+3
   2.25775E+4  -1.06687E+4
   2.21460E+4  -1.13868E+4
   2.17009E+4  -1.21154E+4
   2.12853E+4  -1.28319E+4
   2.07019E+4  -1.36162E+4
   2.02901E+4  -1.43211E+4
   1.96423E+4  -1.50732E+4
   1.91303E+4  -1.56744E+4
   1.86808E+4  -1.62203E+4
   1.81139E+4  -1.68507E+4
   1.74626E+4  -1.73651E+4
   1.68615E+4  -1.79245E+4
   1.61473E+4  -1.85051E+4
   1.55817E+4  -1.89525E+4
   1.48400E+4  -1.94600E+4
   1.41978E+4  -1.99767E+4
   1.35607E+4  -2.03519E+4
   1.27327E+4  -2.07174E+4
   1.21009E+4  -2.11721E+4
   1.13118E+4  -2.15387E+4
   1.06330E+4  -2.18412E+4
   9.96030E+3  -2.20461E+4
   9.24759E+3  -2.23275E+4
   8.50748E+3  -2.25773E+4
   7.81674E+3  -2.27374E+4
   7.11014E+3  -2.28715E+4
   6.34157E+3  -2.29481E+4
   5.71026E+3  -2.30490E+4
   4.91269E+3  -2.31321E+4
   4.23763E+3  -2.31934E+4
   3.57597E+3  -2.30900E+4
   2.84581E+3  -2.30843E+4
   2.15623E+3  -2.30041E+4
   1.51618E+3  -2.29059E+4
   7.44389E+2  -2.27436E+4
   6.93560E+1  -2.26582E+4
  -5.28781E+2  -2.24381E+4
  -1.21552E+3  -2.22239E+4
  -1.82128E+3  -2.18718E+4
  -2.49672E+3  -2.16459E+4
  -3.16117E+3  -2.14572E+4
  -3.79446E+3  -2.10719E+4
  -4.46167E+3  -2.07453E+4
  -5.03011E+3  -2.03970E+4
  -5.65303E+3  -2.00635E+4
  -6.14722E+3  -1.96883E+4
  -6.68365E+3  -1.92050E+4
  -7.33963E+3  -1.87996E+4
  -7.82065E+3  -1.83475E+4
  -8.30430E+3  -1.78697E+4
  -8.82087E+3  -1.73864E+4
  -9.22031E+3  -1.69286E+4
  -9.64027E+3  -1.63558E+4
  -1.01129E+4  -1.58171E+4
  -1.04849E+4  -1.52181E+4
  -1.08680E+4  -1.47442E+4
  -1.11609E+4  -1.41586E+4
  -1.15574E+4  -1.36172E+4
  -1.19056E+4  -1.29611E+4
  -1.21280E+4  -1.24471E+4
  -1.24312E+4  -1.17812E+4
  -1.26533E+4  -1.12005E+4
  -1.28393E+4  -1.05631E+4
  -1.30595E+4  -9.97832E+3
  -1.32170E+4  -9.34909E+3
  -1.34435E+4  -8.69767E+3
  -1.34716E+4  -8.17387E+3
  -1.36100E+4  -7.52479E+3
  -1.36402E+4  -6.94015E+3
  -1.37157E+4  -6.30125E+3
  -1.37401E+4  -5.67995E+3
  -1.37476E+4  -5.14762E+3
  -1.37429E+4  -4.54421E+3
  -1.36623E+4  -3.93503E+3
  -1.36210E+4  -3.41578E+3
  -1.35986E+4  -2.87119E+3
  -1.34385E+4  -2.29812E+3
  -1.32791E+4  -1.73871E+3
  -1.32008E+4  -1.16073E+3
  -1.29689E+4  -6.43381E+2
  -1.28130E+4  -1.48390E+2
  -1.26609E+4   3.43142E+2
  -1.24355E+4   8.25821E+2
  -1.22120E+4   1.29545E+3
  -1.18997E+4   1.76468E+3
  -1.16744E+4   2.19733E+3
  -1.13719E+4   2.61971E+3
  -1.10500E+4   3.08802E+3
  -1.07631E+4   3.41616E+3
  -1.04359E+4   3.80440E+3
  -1.00873E+4   4.12351E+3
  -9.71478E+3   4.50364E+3
  -9.32360E+3   4.80708E+3
  -8.97326E+3   5.11080E+3
  -8.60361E+3   5.41557E+3
  -8.14898E+3   5.67012E+3
  -7.78007E+3   5.83873E+3
  -7.27592E+3   6.09110E+3
  -6.92916E+3   6.31514E+3
  -6.53544E+3   6.49312E+3
  -6.00629E+3   6.70627E+3
  -5.57815E+3   6.82719E+3
  -5.08739E+3   6.93179E+3
  -4.67322E+3   7.08041E+3
  -4.18325E+3   7.14729E+3
  -3.67958E+3   7.31467E+3
  -3.26983E+3   7.28546E+3
  -2.77313E+3   7.31883E+3
  -2.32570E+3   7.34118E+3
  -1.89904E+3   7.33730E+3
  -1.35183E+3   7.32293E+3
  -9.67243E+2   7.32105E+3
  -4.83030E+2   7.26188E+3
  -6.80817E-1   7.23202E+3
   4.60671E+2   7.13866E+3
   8.43651E+2   7.03995E+3
   1.35343E+3   6.91813E+3
   1.76321E+3   6.74980E+3
   2.14508E+3   6.56857E+3
   2.53934E+3   6.44985E+3
   2.97220E+3   6.25631E+3
   3.40194E+3   5.99098E+3
   3.79134E+3   5.84839E+3
   4.10760E+3   5.69969E+3
   4.56094E+3   5.39865E+3
   4.86952E+3   5.14451E+3
   5.14858E+3   4.86115E+3
   5.52870E+3   4.65832E+3
   5.82349E+3   4.33703E+3
   6.12909E+3   4.12215E+3
   6.40198E+3   3.77426E+3
   6.61837E+3   3.47609E+3
   6.86665E+3   3.12170E+3
   7.18884E+3   2.82608E+3
   7.37467E+3   2.44415E+3
   7.61069E+3   2.13983E+3
   7.78765E+3   1.77822E+3
   7.93166E+3   1.48100E+3
   8.06427E+3   1.08294E+3
   8.21966E+3   7.03107E+2
   8.38422E+3   3.59060E+2
   8.43882E+3  -1.92128E+1
   8.56476E+3  -4.17130E+2
   8.59808E+3  -7.45677E+2
   8.70577E+3  -1.12466E+3
   8.79196E+3  -1.49224E+3
   8.76626E+3  -1.79128E+3
   8.77010E+3  -2.14229E+3
   8.67568E+3  -2.57573E+3
   8.69838E+3  -2.86709E+3
   8.69248E+3  -3.30438E+3
   8.65204E+3  -3.55205E+3
   8.64302E+3  -4.01132E+3
   8.52308E+3  -4.32520E+3
   8.49085E+3  -4.59211E+3
   8.28987E+3  -5.00619E+3
   8.13403E+3  -5.24485E+3
   8.06551E+3  -5.59189E+3
   7.93141E+3  -5.96417E+3
   7.73050E+3  -6.23549E+3
   7.61404E+3  -6.55421E+3
   7.47680E+3  -6.77337E+3
   7.25857E+3  -7.09476E+3
   7.09110E+3  -7.37684E+3
   6.84809E+3  -7.63319E+3
   6.61620E+3  -7.85519E+3
   6.39149E+3  -8.16743E+3
   6.21391E+3  -8.36607E+3
   5.93832E+3  -8.56164E+3
   5.68137E+3  -8.81503E+3
   5.43255E+3  -8.94644E+3
   5.20652E+3  -9.14215E+3
   4.89136E+3  -9.33696E+3
   4.57803E+3  -9.43972E+3
   4.38210E+3  -9.66139E+3
   4.03586E+3  -9.76561E+3
   3.84855E+3  -9.92763E+3
   3.51651E+3  -9.93317E+3
   3.23719E+3  -1.01066E+4
   2.99551E+3  -1.01562E+4
   2.68901E+3  -1.02635E+4
   2.38658E+3  -1.03037E+4
   2.12020E+3  -1.02924E+4
   1.79661E+3  -1.03343E+4
   1.52672E+3  -1.03994E+4
   1.20116E+3  -1.03739E+4
   9.08213E+2  -1.02923E+4
   5.62066E+2  -1.03224E+4
   3.21522E+2  -1.03777E+4
   9.23589E+1  -1.03621E+4
  -1.85847E+2  -1.02438E+4
  -5.41953E+2  -1.01662E+4
  -7.41230E+2  -1.01433E+4
  -1.14711E+3  -1.00627E+4
  -1.35593E+3  -9.99519E+3
  -1.57312E+3  -9.89284E+3
  -1.77886E+3  -9.77957E+3
  -2.05595E+3  -9.64905E+3
  -2.32769E+3  -9.49516E+3
  -2.54193E+3  -9.38193E+3
  -2.89269E+3  -9.22503E+3
  -3.09097E+3  -9.08880E+3
  -3.28382E+3  -8.95338E+3
  -3.47364E+3  -8.78527E+3
  -3.69879E+3  -8.63410E+3
  -3.94920E+3  -8.41143E+3
  -4.12940E+3  -8.22163E+3
  -4.28937E+3  -8.09240E+3
  -4.52084E+3  -7.84413E+3
  -4.62972E+3  -7.62723E+3
  -4.76811E+3  -7.43067E+3
  -4.93696E+3  -7.33483E+3
  -5.11173E+3  -7.01977E+3
  -5.23761E+3  -6.82067E+3
  -5.31325E+3  -6.59438E+3
  -5.52990E+3  -6.39053E+3
  -5.66734E+3  -6.13561E+3
  -5.61570E+3  -5.89399E+3
  -5.76366E+3  -5.71650E+3
  -5.88733E+3  -5.53156E+3
  -5.93267E+3  -5.26764E+3
  -5.95100E+3  -4.94533E+3
  -6.06149E+3  -4.81019E+3
  -6.09197E+3  -4.54204E+3
  -6.23331E+3  -4.33386E+3
  -6.20202E+3  -4.06892E+3
  -6.21153E+3  -3.87242E+3
  -6.22275E+3  -3.66834E+3
  -6.20304E+3  -3.38201E+3
  -6.20806E+3  -3.16985E+3
  -6.20403E+3  -2.96060E+3
  -6.21224E+3  -2.72869E+3
  -6.18639E+3  -2.41362E+3
  -6.15418E+3  -2.28383E+3
  -6.08738E+3  -2.06158E+3
  -6.08559E+3  -1.90078E+3
  -6.00348E+3  -1.69609E+3
  -5.93543E+3  -1.44421E+3
  -5.87621E+3  -1.24671E+3
  -5.82621E+3  -1.09388E+3
  -5.70929E+3  -8.77310E+2
  -5.60134E+3  -6.94322E+2
  -5.49898E+3  -5.15433E+2
  -5.41157E+3  -3.45139E+2
  -5.38296E+3  -1.64201E+2
  -5.23797E+3   9.23005E-1
  -5.08115E+3   2.47384E+2
  -5.02319E+3   3.38470E+2
  -4.84225E+3   4.68516E+2
  -4.75146E+3   6.29381E+2
  -4.66497E+3   7.76516E+2
  -4.51328E+3   8.58606E+2
  -4.37851E+3   1.00908E+3
  -4.22110E+3   1.16489E+3
  -4.05882E+3   1.25523E+3
  -3.95351E+3   1.38839E+3
  -3.76555E+3   1.43510E+3
  -3.61202E+3   1.57857E+3
  -3.45218E+3   1.61653E+3
  -3.33357E+3   1.73282E+3
  -3.19009E+3   1.79184E+3
  -3.04626E+3   1.80796E+3
  -2.91703E+3   1.84707E+3
  -2.71281E+3   1.98545E+3
  -2.53003E+3   2.03292E+3
  -2.52812E+3   2.01044E+3
  -2.29278E+3   2.06403E+3
  -2.14106E+3   2.06328E+3
  -1.89930E+3   2.17397E+3
  -1.85246E+3   2.14669E+3
  -1.64374E+3   2.15974E+3
  -1.55527E+3   2.11734E+3
  -1.34315E+3   2.14059E+3
  -1.19470E+3   2.14521E+3
  -1.15024E+3   2.07213E+3
  -9.56586E+2   2.11507E+3
  -8.46848E+2   2.05658E+3
  -6.64745E+2   2.12786E+3
  -4.86967E+2   2.02551E+3
  -4.08044E+2   2.01492E+3
  -2.87978E+2   1.96787E+3
  -1.31934E+2   1.89978E+3
   1.21417E+1   1.89107E+3
   4.22097E+1   1.86554E+3
   1.58247E+2   1.81236E+3
   2.61574E+2   1.66871E+3
   3.65726E+2   1.61075E+3
   4.91631E+2   1.60121E+3
   5.77417E+2   1.53262E+3
   6.88185E+2   1.49608E+3
   7.81128E+2   1.34772E+3
   8.55852E+2   1.25574E+3
   9.55104E+2   1.22649E+3
   9.94349E+2   1.11446E+3
   1.10441E+3   1.06461E+3
   1.13229E+3   1.00936E+3
   1.16304E+3   9.03127E+2
   1.24999E+3   8.22960E+2
   1.38350E+3   7.09496E+2
   1.34198E+3   5.90390E+2
   1.42504E+3   5.15185E+2
   1.43538E+3   3.90028E+2
   1.46871E+3   3.80618E+2
   1.55230E+3   3.06724E+2
   1.60585E+3   1.05577E+2
   1.58457E+3   4.88118E+1
   1.61024E+3  -8.80768E+1
   1.60674E+3  -1.73606E+2
   1.65630E+3  -2.18346E+2
   1.60588E+3  -3.92291E+2
   1.60053E+3  -4.62205E+2
   1.59633E+3  -4.88513E+2
   1.62854E+3  -6.40987E+2
   1.59261E+3  -6.81449E+2
   1.61341E+3  -7.81774E+2
   1.56867E+3  -8.62040E+2
   1.57885E+3  -9.31581E+2
   1.54721E+3  -1.04276E+3
   1.48535E+3  -1.10169E+3
