 
 $NMID
 ID=''
 FMTDAT='(2E13.5)'
 TRAMP=   1.00000E+0
 VOLUME=   1.00000E+0
 $END
  -2.86773E+2   1.13230E+3
  -3.25833E+3  -3.24102E+2
   3.95721E+3   3.79841E+3
  -6.83977E+1   2.17366E+3
   1.88608E+3  -5.74960E+2
   3.66575E+3   3.19423E+3
  -2.55347E+3   3.74493E+2
   2.06171E+3  -1.62583E+3
   2.18401E+3   1.24566E+3
   1.07734E+3  -2.13685E+3
   4.02616E+3   1.01523E+3
   2.50683E+2   5.77150E+3
  -2.93160E+3   3.92942E+3
  -7.71870E+2  -3.16113E+3
   2.78832E+3  -1.56876E+3
   1.32655E+3   6.72695E+2
   3.90352E+2   2.35852E+3
  -2.37584E+3   2.79046E+3
  -5.54343E+1  -9.59879E+1
   4.01309E+3  -2.43584E+2
  -1.01817E+3   4.65274E+3
  -6.52536E+3   1.28024E+3
  -1.58783E+2  -5.21512E+3
   4.04199E+3   1.17165E+3
  -1.00884E+3   3.69691E+3
  -2.42184E+3  -1.84895E+3
  -1.06627E+3  -5.73612E+3
   1.20023E+3  -2.12193E+3
   6.83177E+2   1.14588E+3
  -1.87733E+3   4.09218E+3
  -8.51566E+3  -7.24864E+2
  -2.47727E+3  -5.81532E+3
   5.68449E+3  -2.35122E+3
  -5.12961E+2   1.31317E+3
  -5.21352E+3  -2.02982E+3
   3.92772E+3   6.48498E+2
   9.64044E+2   3.81072E+3
  -5.35428E+3  -2.31582E+3
   4.58976E+2  -4.13597E+3
   3.95354E+3  -2.98615E+3
   4.55892E+3  -2.55451E+3
   7.74645E+3   1.64050E+2
   3.77613E+3   6.06857E+3
  -5.32835E+3   5.04967E+3
  -1.49722E+2   1.10549E+3
   6.79600E+0   1.72158E+3
  -5.24425E+2   2.94232E+2
  -3.50953E+2  -2.30278E+3
   2.18645E+3  -7.55065E+2
   6.62796E+2  -1.06389E+3
   4.72128E+2   2.36329E+3
  -2.60198E+3   2.32160E+3
   1.44295E+3  -1.16784E+3
   4.01315E+2  -2.23045E+3
   3.06165E+2  -1.37206E+2
   1.75209E+3  -2.62175E+3
  -1.46026E+3   1.94174E+3
  -2.77961E+3   3.45403E+3
  -5.31460E+3   2.79367E+3
  -5.24775E+3   3.13466E+2
  -3.24662E+3  -2.13992E+3
  -1.37908E+3  -1.05365E+3
   3.80023E+3   1.81359E+3
   1.18080E+3   3.06235E+3
  -2.20581E+3   4.17265E+2
  -3.75651E+2  -1.92595E+3
   3.62696E+3   3.60814E+3
  -2.29490E+1   2.14593E+3
   1.00827E+3  -4.74876E+2
  -6.77623E+2  -1.35038E+3
  -2.29775E+2   2.33859E+3
  -1.33416E+3   1.10614E+3
  -1.29450E+3  -4.63981E+2
  -5.29003E+2  -3.03696E+3
  -8.62776E+2  -9.28536E+2
  -8.07731E+1   6.04366E+2
  -2.64500E+2   1.69128E+3
  -1.94834E+3  -2.02121E+3
   1.75580E+3  -3.25462E+2
   4.04503E+2   3.33996E+2
   1.08798E+3   4.22328E+2
   4.97991E+2  -4.84970E+2
   1.59958E+2   2.05575E+3
   3.23489E+3   1.17063E+3
   3.27538E+2   1.73619E+3
  -1.40717E+3   3.37560E+2
  -1.33830E+3  -2.94385E+3
   1.35519E+3  -7.35431E+2
   9.03120E+2   1.23803E+2
  -1.27193E+3   1.23521E+3
  -7.51832E+1  -1.59590E+3
   7.68435E+2  -1.42558E+3
   3.36950E+2   8.69840E+2
  -2.67022E+3   5.14478E+2
  -2.41192E+3  -3.42902E+3
   1.84610E+3  -2.45468E+3
   4.09378E+3   3.39331E+2
   1.54464E+3   9.33793E+2
  -9.45806E+2  -2.06699E+2
   1.33727E+3  -1.33875E+3
   1.67338E+3  -1.63697E+3
   2.12686E+3   2.49630E+3
   2.82899E+3  -8.41808E+2
   6.61991E+2   4.73456E+2
   8.35697E+2  -2.35091E+3
  -9.73747E+2  -1.43053E+3
   1.56158E+3  -3.78508E+2
   9.92165E+1  -1.21251E+3
   4.24502E+2  -2.11355E+2
   3.68327E+3  -9.53550E+2
   4.90175E+2   9.91288E+2
  -2.10903E+2   2.51241E+2
   4.69354E+1   4.64321E+2
   1.37891E+3   3.49877E+2
   2.24619E+2  -1.80402E+2
   4.49169E+2  -1.32555E+3
  -5.36999E+2  -6.25580E+2
   1.76722E+3   4.04190E+2
   1.11704E+3   1.44144E+3
   3.45601E+2   1.82893E+3
  -5.42933E+2   6.74356E+2
   1.07620E+2   5.39765E+2
   1.10000E+3   1.52844E+2
   7.15206E+1   1.72126E+3
  -1.31747E+3   8.30767E+2
   4.47310E+2   3.79760E+2
  -3.49550E+2   2.15159E+3
  -2.48426E+2  -5.00233E+2
  -1.33478E+3  -8.83607E+2
   1.94962E+2  -1.40786E+2
  -5.53458E+2   2.91807E+2
   6.36758E+2   6.86067E+2
  -1.32103E+3  -2.39053E+2
  -9.89147E+2  -1.00572E+3
   1.93430E+3   4.77633E+2
  -4.42037E+2   3.14182E+2
  -1.29655E+2  -2.53620E+2
  -1.46342E+3  -2.07929E+2
  -1.63303E+2  -8.32731E+2
  -1.46545E+3   8.04841E+2
   9.93150E+2  -4.41615E+1
  -1.43521E+2   1.06064E+3
  -1.28648E+3   1.24059E+3
  -7.50853E+2  -1.64919E+2
  -1.76547E+2  -5.20509E+2
   1.13080E+3  -3.41057E+2
   1.49255E+3   1.27860E+2
  -1.66038E+3  -1.10326E+3
  -1.47897E+3   5.67542E+2
  -1.09648E+3  -2.79902E+2
   3.93036E+2   1.27739E+3
   4.93639E+2  -2.46407E+2
  -1.01522E+2  -1.26287E+3
   4.74848E+2   3.03728E+2
  -7.84518E+2   2.27519E+3
  -1.15314E+3  -1.64828E+2
  -7.13470E+2   5.09555E+2
  -9.33420E+2   1.43226E+3
  -1.57826E+3   7.97638E+2
   3.09983E+2   1.34119E+3
   8.39702E+1  -7.85526E+2
   3.11900E+2  -5.33124E+2
  -6.81754E+2   6.78692E+2
  -1.51199E+2  -1.62378E+2
   9.10969E+1  -2.45162E+2
   2.22441E+3  -2.16266E+2
   1.38677E+2  -1.11320E+3
   7.42189E+1   6.46564E+1
  -2.03373E+3  -2.09414E+3
   1.66390E+3  -6.36529E+2
   6.64039E+1   1.43024E+3
   1.12992E+3  -1.05171E+3
  -1.69475E+2  -5.84732E+2
  -2.70555E+2   7.54801E+2
  -1.60545E+3  -9.30013E+2
   6.99101E+1  -5.38069E+2
   4.12423E+1   1.18360E+2
  -2.05865E+2   1.96410E+3
  -2.08439E+2   1.97458E+3
  -1.21392E+3  -1.72635E+3
  -1.10768E+3   9.24595E+2
  -8.69185E+2   1.51186E+3
   4.61019E+1   5.65570E+2
   6.13628E+2  -1.13526E+3
   8.31589E+1   1.62263E+2
  -2.54357E+2  -1.84003E+2
  -7.19773E+2  -4.66984E+2
   4.80955E+2   1.61562E+3
   2.39452E+3  -5.40592E+2
   1.81804E+3   5.84131E+2
  -1.40938E+3   2.62611E+2
  -6.56647E+0  -1.16407E+3
   1.28858E+3   5.80380E+2
   8.74210E+2  -1.98333E+3
   9.14657E+2   4.77933E+2
   6.03804E+2   5.59163E+2
   1.61535E+3  -3.46377E+2
  -6.11135E+1  -1.37531E+3
  -2.79212E+2   6.86551E+1
  -1.46002E+3  -3.04907E+3
   1.18369E+2  -1.66267E+3
   4.65302E+2  -1.75537E+3
   7.92888E+2  -1.51850E+3
   1.22628E+3   6.58347E+2
  -4.91857E+2   7.16954E+0
  -6.79479E+2   2.89153E+2
   9.70575E+2  -1.51501E+2
  -7.39516E+1  -5.90136E+2
  -5.05797E+2  -1.59141E+3
   5.70953E+2  -8.10075E+1
   1.04869E+3  -1.07220E+2
  -1.40108E+3  -1.51876E+3
   5.17092E+2   2.99670E+2
  -1.21063E+3   3.26679E+2
   2.37652E+2  -1.67225E+2
   5.34885E+2  -1.03030E+3
   1.77648E+2  -1.63701E+3
  -3.19319E+2   3.95437E+2
   1.96242E+3  -6.15842E+2
   3.09844E+2   4.66415E+2
   1.68098E+1  -7.11671E+2
   7.99561E+2  -1.37626E+3
  -8.76769E+2   1.32787E+3
  -8.73941E+2   1.44392E+2
   9.04094E+2   1.93291E+2
  -9.67652E+2   1.05932E+2
  -4.18552E+2   2.02513E+2
   2.67719E+3  -8.41310E+2
  -4.07479E+2  -2.63276E+2
   3.05284E+2  -5.65898E+2
   3.35372E+2  -3.09483E+2
   3.22261E+2   5.93055E+2
   3.19434E+2  -4.33020E+2
   1.03816E+3  -2.88459E+2
  -2.55821E+2  -1.03221E+3
   3.08898E+2   2.23487E+2
  -6.59388E+2  -5.10925E+2
   2.02928E+3  -5.65052E+2
   8.34478E+2   1.32621E+3
  -3.15112E+0   1.15390E+3
   5.25761E+2   1.64509E+3
   6.46108E+2  -4.26231E+2
   7.82615E+2  -5.65383E+2
  -8.83056E+2   2.14329E+2
  -2.57086E+2  -7.84654E+2
   1.07748E+3   1.36547E+3
   1.26503E+3   1.28423E+3
   3.08419E+2  -1.73352E+1
   4.51481E+2   8.71271E+2
  -6.92301E+2  -8.48256E+2
  -2.60310E+2  -1.64874E+3
   4.25496E+2  -2.96743E+2
  -2.38819E+3   2.96094E+1
  -1.76874E+3   1.26672E+3
   1.97907E+2   4.81607E+2
  -2.09375E+3   1.62476E+2
   4.25507E+2   2.43549E+2
   8.68465E+2  -1.47656E+3
   9.67406E+2  -4.60763E+2
   1.68837E+2   1.80760E+3
  -1.76495E+3  -6.20665E+2
  -1.42478E+3   7.98753E+2
   2.03908E+3  -3.74398E+2
   1.86384E+2   6.43375E+2
  -4.15654E+2   9.21721E+2
  -3.12161E+2  -1.27565E+2
  -1.31849E+3  -3.03803E+2
  -3.18169E+2  -7.52004E+2
  -1.82596E+2   2.24279E+3
  -7.47143E+2   1.16576E+3
  -7.40181E+2   8.20853E+2
  -2.04082E+3  -1.03929E+3
  -8.79510E+2   1.30830E+3
  -6.04132E+2   1.24015E+2
  -9.64313E+2   9.18206E+2
   3.11467E+2  -3.26551E+2
  -4.00391E+1  -5.82489E+2
   2.20727E+2   2.91572E+2
  -8.54044E+2  -1.23088E+3
  -1.03386E+3   7.67214E+2
  -2.55071E+3  -2.98092E+2
   6.70046E+2  -1.82588E+2
   1.72737E+3   1.89028E+3
   6.28569E+2   1.03213E+3
  -2.05010E+3   1.54481E+3
   1.37799E+3  -2.01081E+3
  -1.95125E+2  -7.11030E+2
  -8.50401E+2   1.70421E+2
   7.50741E+2  -6.97592E+2
  -9.83939E+2   1.75441E+3
  -9.96121E+2   5.91650E+2
   5.65291E+1   4.76705E+2
  -1.06401E+2  -1.00977E+3
   5.22625E+2   5.49493E+2
  -8.74664E+1   2.58094E+2
  -6.95798E+2   8.71353E+2
  -1.24884E+3  -1.22525E+3
   5.75560E+1  -5.51292E+2
  -1.09238E+3   2.36444E+0
   4.36596E+1  -2.34337E+2
   6.89781E+2   3.95738E+2
  -1.36292E+3   7.60095E+2
   5.67868E+2   5.68921E+1
   8.69681E+2   7.45963E+2
  -3.35311E+2  -1.63592E+2
  -1.96682E+3  -5.38633E+2
  -5.07362E+2   2.24254E+2
  -8.64955E+2  -3.06719E+2
   1.05252E+3   5.11297E+2
  -8.00846E+1  -3.43341E+2
  -1.07842E+2  -6.99493E+2
  -6.36415E+2  -1.22308E+2
   1.29629E+3  -6.70189E+2
   1.12981E+3  -2.39671E+0
   1.30869E+1  -8.59871E+0
   6.92194E+2   4.90862E+2
  -1.17844E+3  -1.29220E+3
  -1.31699E+3  -6.04625E+2
  -1.27456E+3  -7.37882E+2
   4.55197E+2   1.12820E+3
   1.56979E+3   5.44831E+2
   7.54222E+1  -3.32411E+2
  -1.69362E+2   9.08281E+2
   7.42760E+2  -1.16683E+3
  -6.38414E+1   1.65749E+3
   1.61671E+3  -1.12747E+2
  -1.62354E+3  -2.04548E+3
  -1.23037E+3   6.70761E+2
  -5.09851E+2  -8.06012E+2
   1.23727E+3   1.12011E+3
   1.90900E+3  -4.33162E+2
   1.41884E+2   6.25836E+2
  -3.43060E+2   1.03835E+3
   1.17333E+3  -1.93689E+2
  -1.00906E+3   1.67990E+3
   7.99059E+2   3.76333E+2
  -4.97615E+2  -7.93739E+2
   1.79403E+3  -1.55682E+3
  -2.13731E+3   5.50289E+2
   1.00002E+3   1.06839E+3
   2.62147E+3   7.33718E+2
  -2.80280E+3  -1.29192E+3
   1.14663E+2  -7.49735E+2
   1.49694E+1  -2.24582E+2
  -7.20535E+2  -1.77845E+3
  -3.64072E+2  -6.35574E+2
  -1.31428E+2  -2.83648E+2
  -5.92555E+2  -9.82746E+1
   3.86571E+2  -9.98642E+1
  -1.54672E+3  -6.12920E+2
   5.80219E+2   1.87894E+3
  -1.44473E+3   3.99262E+2
   1.36305E+3  -1.31911E+2
   4.92739E+2   2.52786E+2
  -1.02991E+3   3.80039E+2
  -1.23645E+3   1.60190E+2
  -4.08871E+2  -1.18897E+2
  -1.11092E+3  -8.72934E+2
   2.12407E+3  -1.05056E+3
  -3.82838E+2  -5.98335E+2
  -1.58653E+2   7.53425E+2
   6.94950E+2  -1.81341E+2
  -6.36671E+2  -5.14959E+2
  -1.77400E+3   3.94468E+2
   8.36481E+2   7.23069E+2
  -5.53632E+0   2.87505E+2
   3.09068E+2   3.05242E+2
