 
 $NMID
 ID=''
 FMTDAT='(2E13.5)'
 TRAMP=   1.00000E+0
 VOLUME=   1.00000E+0
 $END
  -2.18016E+2  -4.26961E+2
   5.82080E+2  -3.81092E+2
  -3.75962E+3  -2.66161E+3
  -1.19352E+3   1.95345E+3
  -2.14418E+3   3.47502E+3
   5.22641E+3   2.76636E+3
   3.32750E+3   1.03944E+3
   1.47261E+3  -2.48358E+3
  -3.22774E+3  -2.66901E+3
  -4.18507E+3   1.38133E+3
   1.04524E+3  -2.16105E+3
   1.81361E+3  -1.35037E+3
   1.50258E+3   8.69771E+2
   2.03373E+3   5.06152E+3
  -3.30548E+2   1.38034E+3
   4.15822E+2  -2.39642E+3
  -1.97730E+3  -4.17524E+3
  -4.15485E+2  -2.09184E+3
  -9.66825E+2   1.57159E+3
  -3.30634E+3   1.62071E+2
  -6.00597E+2   1.89517E+3
   2.06852E+3   1.29933E+3
   8.47682E+2   3.40531E+3
  -2.42479E+2   3.26807E+3
  -2.80362E+3  -1.18952E+3
   2.72969E+3  -8.91798E+2
   1.79658E+3   2.08932E+3
   9.23505E+2   4.37305E+3
  -2.67117E+3   1.39723E+3
  -3.21128E+3  -9.54036E+2
   8.95364E+2  -2.72833E+3
   4.36605E+3   1.08375E+3
   3.24272E+3   2.81740E+3
  -6.10327E+2   3.08910E+3
  -1.78905E+3   1.77825E+3
  -2.03809E+3   2.64793E+3
  -3.69204E+3   3.99515E+2
  -1.55832E+3  -2.01873E+3
  -1.27611E+2  -3.41485E+3
  -8.23195E+1  -3.46402E+3
   1.49175E+3  -3.77193E+2
   3.89380E+3   1.48236E+3
  -9.80109E+2   1.72068E+3
  -3.67750E+3   5.35159E+2
  -1.81817E+3  -2.06871E+3
  -2.28900E+3  -8.53566E+2
  -1.80336E+3  -1.00586E+3
   1.41557E+2  -2.08272E+3
   5.68193E+2  -5.55244E+2
   1.52501E+3   5.06636E+2
  -1.59530E+3   8.06852E+2
  -2.54180E+3   3.76895E+3
  -3.40421E+3  -2.03326E+2
  -2.93909E+3  -2.47558E+3
   1.56746E+3  -2.26375E+3
   1.31228E+3  -3.89917E+3
   4.33941E+3  -2.27487E+3
   4.03951E+3   4.44475E+2
   9.51241E+2   4.77403E+3
   8.07693E+1   3.06457E+3
  -1.18016E+3   1.27139E+3
  -6.15561E+2   5.87969E+1
   7.95008E+1   6.59066E+2
   1.61672E+3   1.06516E+3
  -1.47005E+3   2.14243E+3
  -3.21506E+3   1.40818E+3
   5.22413E+2  -3.40693E+3
   1.15839E+3  -2.94004E+2
  -1.86407E+3   1.87938E+2
  -1.29868E+3   7.72191E+2
   7.97558E+2  -2.07700E+3
  -3.11778E+2  -3.46642E+3
   1.29189E+2  -1.98836E+3
   1.33841E+3  -1.83133E+3
  -1.54874E+3  -6.97856E+2
  -7.28457E+2  -3.06510E+3
   4.32937E+1  -2.17202E+3
   6.99647E+2   1.64522E+2
  -7.56449E+2   1.08612E+2
   1.04947E+3  -1.90413E+3
   2.01961E+3  -1.11655E+3
   1.05963E+2  -2.61643E+2
  -8.19440E+2  -2.13881E+3
   7.36093E+2  -2.08261E+3
   2.55819E+3  -3.69247E+2
   3.93300E+3  -9.16924E+2
   1.25810E+3   1.67332E+3
  -2.73752E+2   1.58280E+3
  -1.74607E+2   5.51528E+2
  -9.54299E+2  -2.47579E+2
  -2.99754E+3   2.53332E+2
  -2.21709E+3   1.08715E+3
   4.41746E+2  -2.05457E+3
  -8.23467E+2  -2.64419E+3
   2.62131E+3  -1.54166E+3
   1.12488E+3   2.54110E+3
  -1.87190E+3   1.05402E+3
  -2.35283E+3  -3.70149E+2
   1.16739E+3  -1.33980E+3
   4.28504E+3  -7.26720E+2
   1.86630E+3   4.43538E+3
  -1.09821E+3   2.92077E+3
  -2.36199E+3   9.12842E+2
  -3.03943E+3  -1.07714E+3
  -6.44339E+2  -1.68172E+3
   2.50385E+2  -6.18670E+2
   1.11785E+3  -4.19432E+2
  -1.47205E+3  -2.37616E+2
   3.18787E+3  -2.98340E+3
   2.17202E+3   1.37234E+3
  -5.15747E+2   1.78394E+3
   2.55222E+2   1.05900E+3
  -1.27118E+3  -8.19859E+2
  -4.49562E+1  -2.74682E+1
  -3.71170E+2  -1.48460E+3
   5.26145E+2  -4.30409E+2
   2.08588E+3  -8.59627E+2
   9.88992E+2  -1.25581E+2
   1.45925E+3  -1.28347E+3
  -1.13208E+3   7.36264E+2
  -1.54435E+3   1.74179E+3
  -1.37728E+3  -8.11851E+2
   2.09147E+3  -1.39531E+2
   9.32166E+2   1.61584E+3
  -1.66716E+3   1.04122E+3
  -9.26548E+2   1.40294E+3
   3.72281E+1   4.26602E+1
   2.66897E+2   1.73213E+3
  -1.80908E+3   6.67955E+2
  -2.05065E+3  -1.60835E+3
   5.27394E+2  -3.46979E+3
   1.38017E+3  -3.92394E+2
   1.36360E+3   7.62564E+2
   2.49434E+2   7.21500E+2
  -6.66518E+2  -1.12388E+3
  -4.71654E+2  -1.23996E+3
   2.27458E+3  -2.06511E+3
   7.35971E+1  -1.19319E+3
   1.48325E+3  -1.59481E+3
   1.19908E+3   6.83589E+2
  -3.58234E+2   5.38400E+2
   1.64946E+3   1.86810E+3
  -5.21038E+3   9.72288E+1
  -1.00253E+3   1.48169E+3
   3.84410E+2  -1.91131E+3
   6.12364E+2  -4.97356E+2
   1.18971E+3  -1.99657E+2
  -3.46905E+2   5.66511E+2
  -8.85854E+2   2.27404E+3
   1.53189E+3   9.17766E+2
  -1.14899E+3  -1.59018E+3
  -1.02222E+3  -3.31450E+2
   2.67025E+2  -9.89531E+2
   1.05100E+3   6.72804E+2
  -7.88283E+2   2.38050E+3
  -1.00292E+3   9.36557E+2
  -2.58673E+3  -2.05486E+2
   6.64871E+2   1.71518E+3
  -1.51298E+3  -7.42381E+2
  -3.54335E+2  -1.08610E+3
  -3.49192E+2  -5.43296E+2
  -1.18620E+3   8.05703E+2
   6.19605E+2   8.78060E+2
   1.42050E+3   1.46876E+3
   9.21708E+2  -7.27991E+2
  -4.62956E+1  -9.35318E+2
   2.93786E+3  -5.81864E+2
   1.23552E+3   1.95192E+3
  -1.57619E+2   2.91633E+3
  -1.77215E+3   1.66990E+3
  -1.02521E+3  -3.69083E+2
  -2.79117E+2  -3.93044E+2
   7.80380E+2  -8.53358E+2
  -1.36439E+2  -1.35056E+3
   1.40761E+2  -5.94581E+2
   1.27599E+3  -4.83037E+2
   1.10310E+3  -6.37314E+1
   2.15636E+3  -7.66787E+2
   1.39945E+2  -4.44273E+2
   1.40760E+1  -7.22594E+1
   1.47707E+3  -1.20808E+3
   1.00327E+3  -5.40168E+2
  -1.25738E+3  -4.49604E+2
   3.97846E+2  -9.14855E+2
  -1.18587E+3  -1.98183E+3
  -3.20651E+2  -9.43208E+2
  -2.77929E+2   2.67469E+2
  -5.37210E+2   1.32166E+3
  -3.98555E+2  -3.14004E+3
   2.15066E+2  -1.52925E+3
   3.61502E+2  -5.06774E+2
  -1.78695E+3  -4.33310E+2
  -2.34562E+3   1.11081E+3
  -3.26098E+3  -8.61775E+2
  -6.37923E+2   3.82645E+2
  -8.21769E+2  -1.12339E+3
   6.09419E+2  -3.12667E+2
  -1.71592E+3  -1.88883E+2
   8.72795E+2   1.79845E+3
   1.10380E+1   8.93689E+2
  -6.46431E+1   1.66713E+3
  -1.40716E+3   1.07427E+3
  -1.74198E+3  -2.10546E+3
  -1.72251E+3   1.25521E+3
  -4.36570E+2  -3.05585E+2
   7.31982E+2   3.93092E+2
  -2.41231E+3   2.82727E+2
  -3.24536E+3   1.04157E+3
  -7.35367E+2  -3.00732E+2
  -3.70861E+2  -5.28380E+2
  -2.06682E+3  -2.62758E+2
  -1.70903E+3  -9.72824E+2
  -1.46620E+3  -8.13931E+2
   2.45453E+3  -1.31326E+3
   4.36987E+2   1.27333E+3
   6.98301E+2   8.12108E+2
   1.13690E+3  -7.11449E+2
  -1.22952E+3   3.65826E+1
   1.51004E+2  -4.37041E+2
  -1.30720E+3  -1.78992E+2
   5.44809E+2  -2.05504E+3
   5.36696E+2  -6.73329E+2
  -1.14960E+3   2.91556E+2
   4.79444E+2   8.15524E+1
   1.17166E+3  -1.00044E+3
   4.69690E+2   1.02410E+3
   1.32414E+1  -2.19656E+3
   3.65138E+2  -9.51979E+2
   9.41075E+2  -3.18282E+2
   2.96495E+2   5.28327E+1
  -1.28829E+3  -1.22703E+3
  -1.59841E+3   8.72605E+2
  -4.04804E+2   1.43714E+3
  -2.16693E+1  -1.32090E+3
   1.15305E+3  -3.59556E+3
   2.22131E+3  -5.79349E+2
   1.42702E+3   4.34131E+2
  -7.49221E+2   1.94937E+3
   5.23398E+2   1.34043E+3
   2.06816E+2   1.51963E+2
   9.94706E+2  -5.54085E+2
  -5.83734E+2  -9.29434E+2
   2.33927E+2  -1.29942E+2
  -4.81506E+2   6.65485E+2
   6.45199E+2  -2.06983E+2
  -7.96855E+2   5.21622E+2
   8.93986E+2   8.82327E+2
  -8.71896E+2   1.32648E+3
   4.21169E+2   4.63150E+2
   1.93316E+3  -1.22591E+3
   2.34870E+3   4.09239E+2
   1.10429E+3   2.37224E+3
   8.29118E+2  -5.94431E+2
  -8.44660E+2   8.56176E+2
   1.64028E+2   1.42174E+3
  -6.88059E+1  -4.77145E+2
   6.26905E+2  -3.45947E+2
  -1.68530E+3  -2.83763E+3
  -4.81202E+2   7.67368E+2
  -1.47734E+3  -6.20217E+2
  -4.36994E+2   1.71131E+3
   3.37903E+2  -3.76875E+2
   1.41602E+3  -1.51351E+3
   3.09630E+1  -1.43549E+3
   3.41911E+2  -3.15800E+2
   4.67118E+2  -5.41081E+2
  -2.13644E+2   3.80323E+2
   6.16481E+2   1.42338E+3
  -9.17773E+2   1.35336E+3
  -5.72139E+2   1.12800E+3
   1.32826E+3   3.04119E+1
   2.13316E+2   4.35644E+2
  -2.80378E+2   1.02261E+3
   9.93241E+2   2.41673E+2
   1.15756E+3  -1.08274E+3
  -6.06968E+2   3.94575E+2
  -4.20105E+2  -2.14561E+2
  -1.40527E+3   8.18823E+2
   1.08995E+3  -6.86445E+1
  -1.73297E+3  -1.73955E+3
  -1.51690E+2   1.42833E+2
   2.04702E+3   3.35117E+2
   2.01714E+3   9.78965E+2
   1.23502E+3   1.90412E+3
   3.71530E+2   2.08155E+3
   2.41845E+2   5.83113E+2
   1.88518E+3   8.19529E+2
   7.42483E+2   1.15364E+3
  -1.11724E+2   1.41845E+2
   7.62908E+2  -6.29983E+2
   4.25182E+0   1.15726E+3
   8.39624E+2   2.67578E+3
   5.60224E+1   1.76263E+3
  -1.10990E+3  -2.05167E+2
   1.45563E+3   2.14874E+3
   1.50188E+3   2.28691E+3
   1.97754E+3   7.28951E+2
  -1.35309E+3   1.21819E+3
  -1.42444E+3  -9.07947E+2
  -1.97489E+2   1.20194E+3
   4.13342E+2   1.64391E+3
  -1.59250E+3   7.13310E+2
  -7.42857E+2  -8.53843E+2
   1.50434E+2   4.66807E+2
   1.39436E+3   1.51647E+3
   9.66045E+2  -5.21200E+2
   3.26087E+2  -7.41735E+2
  -1.50466E+3  -1.12977E+3
   7.77194E+2   2.07830E+2
  -1.24675E+3   3.90349E+2
  -1.18566E+2   3.36976E+2
   6.39005E+2   6.03973E+2
   7.57428E+2  -1.90898E+3
  -5.75679E+2   2.51004E+3
   8.31637E+2   3.86059E+2
  -1.29074E+3  -4.40105E+2
  -3.21502E+3   2.81433E+3
  -1.38648E+3   1.87950E+3
  -5.28386E+2   2.85469E+3
  -7.83350E+2   2.39080E+3
  -5.03480E+2   1.08119E+3
  -1.18697E+3  -2.99706E+2
  -2.11660E+2   1.79061E+3
  -1.46654E+3   1.68384E+2
   3.54944E+2   1.10686E+3
   1.18604E+2   2.52048E+2
   4.80611E+2   2.15647E+3
  -6.16849E+2   2.14361E+3
   1.11086E+3   9.72826E+2
  -5.84955E+2   7.13872E+2
  -2.18717E+3  -3.22091E+2
  -2.35770E+2  -1.63070E+2
  -1.10817E+3   7.77721E+2
   1.32532E+3   1.53479E+3
   1.68035E+3   6.75032E+2
   2.03080E+3   7.98994E+2
  -1.59523E+3   9.66445E+2
  -3.15172E+2  -1.80220E+2
  -8.91754E+2  -5.66311E+2
   7.19451E+1  -3.41437E+2
  -1.45925E+3   1.02133E+3
  -1.44672E+3   4.02893E+2
  -8.40243E+2  -3.11754E+1
  -2.11332E+3   2.00664E+3
   1.04316E+3   1.30327E+3
   7.04200E+2  -2.93756E+2
  -8.72092E+2  -1.64321E+3
  -7.38488E+2   4.55938E+2
   1.93305E+2   2.07648E+3
  -1.86854E+3  -8.83895E+2
   1.61416E+2   3.81505E+2
  -3.22660E+2   2.22625E+3
  -1.23470E+3  -1.07228E+2
  -9.96757E+2  -1.48493E+2
   1.42915E+3   2.93460E+2
   3.01174E+3  -9.72675E+2
   8.15996E+2   2.77695E+3
  -2.51823E+3  -8.34375E+1
  -1.32900E+2   9.42474E+2
   8.12583E+2  -1.33350E+2
  -2.68115E+1  -1.15831E+3
  -3.34049E+2   3.65466E+2
  -2.70132E+3  -7.06028E+1
  -4.09722E+2   1.48082E+3
   6.04367E+1   1.38485E+3
  -2.54796E+2   1.18038E+3
  -7.41106E+2   1.02413E+3
