 LCModel (Version 6.3-1N) Copyright: S.W. Provencher.          Ref.: Magn. Reson. Med. 30:672-679 (1993).                
 Slice_N1@21_11  02-Jun-2023 14:37:26
 27 lines in following concentration table = NCONC+1
    Conc.  %SD /Cr+PCr  Metabolite                                         
 2.53E-06  13% 2.9E-04 Mac                                                 
 2.27E-02  58%   2.594 Cr                                                  
 4.74E-02  28%   5.406 PCr                                                 
 7.10E-02  11%   8.098 Ins                                                 
 9.74E-02   7%  11.108 NAA                                                 
 5.51E-02  13%   6.286 Tau                                                 
 6.95E-03  57%   0.793 PCho                                                
 3.08E-03 125%   0.351 GPC                                                 
 8.95E-02  10%  10.206 Glu                                                 
 1.40E-02  44%   1.600 Gln                                                 
    0.000 999%   0.000 Ala                                                 
 3.26E-02  37%   3.722 Asc                                                 
 1.60E-02  48%   1.825 Asp                                                 
 5.93E-03  68%   0.676 GABA                                                
 9.34E-03  55%   1.066 Glc                                                 
 8.79E-03  38%   1.002 GSH                                                 
    0.000 999%   0.000 Lac                                                 
 9.13E-04 530%   0.104 NAAG                                                
    0.000 999%   0.000 PE                                                  
 1.00E-02  19%   1.144 GPC+PCho                                            
 9.83E-02   7%  11.212 NAA+NAAG                                            
    0.103  10%  11.806 Glu+Gln                                             
 7.01E-02   9%   8.000 Cr+PCr                                              
 9.83E-02   7%  11.212 NAA+NAAG                                            
 7.01E-02   9%   8.000 Cr+PCr                                              
    0.103  10%  11.806 Glu+Gln                                             
   6 lines in following misc. output table
  FWHM = 0.035 ppm    S/N =   4                                            
  Data shift = 0.023 ppm                                                   
  Ph: -65 deg     -16.7 deg/ppm                                            
  alphaB,S = 3.4E-01,   2.1E+01                                            
   18 spline knots.   Ns = 6(1)                                            
  ( 6) 5 infls.   ( 2) 2 extrs.                                            
  654 points on ppm-axis = NY
      4.000000     3.994181     3.988363     3.982544     3.976726     3.970907     3.965088     3.959270     3.953451     3.947633
      3.941814     3.935995     3.930177     3.924358     3.918540     3.912721     3.906902     3.901084     3.895265     3.889446
      3.883628     3.877809     3.871991     3.866172     3.860353     3.854535     3.848716     3.842898     3.837079     3.831260
      3.825442     3.819623     3.813805     3.807986     3.802167     3.796349     3.790530     3.784712     3.778893     3.773074
      3.767256     3.761437     3.755619     3.749800     3.743981     3.738163     3.732344     3.726526     3.720707     3.714888
      3.709070     3.703251     3.697433     3.691614     3.685795     3.679977     3.674158     3.668339     3.662521     3.656702
      3.650884     3.645065     3.639246     3.633428     3.627609     3.621791     3.615972     3.610153     3.604335     3.598516
      3.592698     3.586879     3.581060     3.575242     3.569423     3.563605     3.557786     3.551967     3.546149     3.540330
      3.534512     3.528693     3.522874     3.517056     3.511237     3.505419     3.499600     3.493781     3.487963     3.482144
      3.476326     3.470507     3.464688     3.458870     3.453051     3.447232     3.441414     3.435595     3.429777     3.423958
      3.418139     3.412321     3.406502     3.400684     3.394865     3.389046     3.383228     3.377409     3.371591     3.365772
      3.359953     3.354135     3.348316     3.342498     3.336679     3.330860     3.325042     3.319223     3.313405     3.307586
      3.301767     3.295949     3.290130     3.284312     3.278493     3.272674     3.266856     3.261037     3.255219     3.249400
      3.243581     3.237763     3.231944     3.226125     3.220307     3.214488     3.208670     3.202851     3.197032     3.191214
      3.185395     3.179577     3.173758     3.167939     3.162121     3.156302     3.150484     3.144665     3.138846     3.133028
      3.127209     3.121391     3.115572     3.109753     3.103935     3.098116     3.092298     3.086479     3.080660     3.074842
      3.069023     3.063205     3.057386     3.051567     3.045749     3.039930     3.034111     3.028293     3.022474     3.016656
      3.010837     3.005018     2.999200     2.993381     2.987563     2.981744     2.975925     2.970107     2.964288     2.958470
      2.952651     2.946832     2.941014     2.935195     2.929377     2.923558     2.917739     2.911921     2.906102     2.900284
      2.894465     2.888646     2.882828     2.877009     2.871191     2.865372     2.859553     2.853735     2.847916     2.842098
      2.836279     2.830460     2.824642     2.818823     2.813004     2.807186     2.801367     2.795549     2.789730     2.783911
      2.778093     2.772274     2.766456     2.760637     2.754818     2.749000     2.743181     2.737363     2.731544     2.725725
      2.719907     2.714088     2.708270     2.702451     2.696632     2.690814     2.684995     2.679177     2.673358     2.667539
      2.661721     2.655902     2.650084     2.644265     2.638446     2.632628     2.626809     2.620991     2.615172     2.609353
      2.603535     2.597716     2.591897     2.586079     2.580260     2.574442     2.568623     2.562804     2.556986     2.551167
      2.545349     2.539530     2.533711     2.527893     2.522074     2.516256     2.510437     2.504618     2.498800     2.492981
      2.487163     2.481344     2.475525     2.469707     2.463888     2.458070     2.452251     2.446432     2.440614     2.434795
      2.428977     2.423158     2.417339     2.411521     2.405702     2.399884     2.394065     2.388246     2.382428     2.376609
      2.370790     2.364972     2.359153     2.353335     2.347516     2.341697     2.335879     2.330060     2.324242     2.318423
      2.312604     2.306786     2.300967     2.295149     2.289330     2.283511     2.277693     2.271874     2.266056     2.260237
      2.254418     2.248600     2.242781     2.236963     2.231144     2.225325     2.219507     2.213688     2.207870     2.202051
      2.196232     2.190414     2.184595     2.178777     2.172958     2.167139     2.161321     2.155502     2.149683     2.143865
      2.138046     2.132228     2.126409     2.120590     2.114772     2.108953     2.103135     2.097316     2.091497     2.085679
      2.079860     2.074042     2.068223     2.062404     2.056586     2.050767     2.044949     2.039130     2.033311     2.027493
      2.021674     2.015856     2.010037     2.004218     1.998400     1.992581     1.986763     1.980944     1.975126     1.969307
      1.963489     1.957670     1.951852     1.946033     1.940215     1.934397     1.928578     1.922760     1.916941     1.911123
      1.905304     1.899486     1.893667     1.887849     1.882030     1.876212     1.870393     1.864575     1.858756     1.852938
      1.847119     1.841301     1.835482     1.829664     1.823845     1.818027     1.812208     1.806390     1.800571     1.794753
      1.788934     1.783116     1.777297     1.771479     1.765660     1.759842     1.754023     1.748205     1.742386     1.736568
      1.730749     1.724931     1.719113     1.713294     1.707476     1.701657     1.695839     1.690020     1.684202     1.678383
      1.672565     1.666746     1.660928     1.655109     1.649291     1.643472     1.637654     1.631835     1.626017     1.620198
      1.614380     1.608561     1.602743     1.596924     1.591106     1.585287     1.579469     1.573650     1.567832     1.562013
      1.556195     1.550376     1.544558     1.538739     1.532921     1.527102     1.521284     1.515465     1.509647     1.503829
      1.498010     1.492192     1.486373     1.480555     1.474736     1.468918     1.463099     1.457281     1.451462     1.445644
      1.439825     1.434007     1.428188     1.422370     1.416551     1.410733     1.404914     1.399096     1.393277     1.387459
      1.381640     1.375822     1.370003     1.364185     1.358366     1.352548     1.346729     1.340911     1.335092     1.329274
      1.323455     1.317637     1.311818     1.306000     1.300182     1.294363     1.288545     1.282726     1.276908     1.271089
      1.265271     1.259452     1.253634     1.247815     1.241997     1.236178     1.230360     1.224541     1.218723     1.212904
      1.207086     1.201267     1.195449     1.189630     1.183812     1.177993     1.172175     1.166356     1.160538     1.154719
      1.148901     1.143082     1.137264     1.131445     1.125627     1.119808     1.113990     1.108171     1.102353     1.096534
      1.090716     1.084898     1.079079     1.073261     1.067442     1.061624     1.055805     1.049987     1.044168     1.038350
      1.032531     1.026713     1.020894     1.015076     1.009257     1.003439     0.997620     0.991802     0.985983     0.980165
      0.974346     0.968528     0.962709     0.956891     0.951072     0.945254     0.939435     0.933617     0.927798     0.921980
      0.916161     0.910343     0.904524     0.898706     0.892887     0.887069     0.881251     0.875432     0.869614     0.863795
      0.857977     0.852158     0.846340     0.840521     0.834703     0.828884     0.823066     0.817247     0.811429     0.805610
      0.799792     0.793973     0.788155     0.782336     0.776518     0.770699     0.764881     0.759062     0.753244     0.747425
      0.741607     0.735788     0.729970     0.724151     0.718333     0.712514     0.706696     0.700877     0.695059     0.689240
      0.683422     0.677603     0.671785     0.665967     0.660148     0.654330     0.648511     0.642693     0.636874     0.631056
      0.625237     0.619419     0.613600     0.607782     0.601963     0.596145     0.590326     0.584508     0.578689     0.572871
      0.567052     0.561234     0.555415     0.549597     0.543778     0.537960     0.532141     0.526323     0.520504     0.514686
      0.508867     0.503049     0.497230     0.491412     0.485593     0.479775     0.473956     0.468138     0.462319     0.456501
      0.450682     0.444864     0.439045     0.433227     0.427408     0.421590     0.415771     0.409953     0.404134     0.398316
      0.392497     0.386679     0.380860     0.375042     0.369223     0.363405     0.357586     0.351767     0.345949     0.340130
      0.334312     0.328493     0.322675     0.316856     0.311038     0.305219     0.299401     0.293582     0.287764     0.281945
      0.276127     0.270308     0.264490     0.258671     0.252853     0.247034     0.241216     0.235397     0.229579     0.223760
      0.217942     0.212123     0.206305     0.200486
 NY phased data points follow
  -2.31005E-01 -2.73141E-01  1.96265E-01 -4.25284E-02 -3.58633E-01 -1.80349E-01  6.16374E-02  3.89917E-02  2.55951E-02  2.08050E-01
   2.10189E-01  1.96505E-01  5.48168E-01  4.63163E-01  3.93171E-01  3.95982E-01  2.60159E-01  1.24189E-01  1.82525E-01  9.18893E-03
  -2.42036E-02  2.85737E-01  6.98777E-03 -7.82531E-02 -3.03388E-01 -3.34116E-01  3.74579E-02 -4.03113E-02 -2.75375E-01 -1.49740E-01
  -2.36162E-01 -3.19953E-01 -1.77443E-01 -2.62684E-01 -4.31436E-01 -3.68881E-01 -2.51373E-01 -2.35788E-01 -1.53730E-01 -3.74421E-01
  -1.01936E-01  1.51590E-01  3.39529E-01  2.14146E-01  3.10050E-01  8.08289E-01  5.52314E-01  3.15891E-01  2.16072E-01  1.99260E-01
  -1.31143E-02 -7.15349E-02  8.98723E-02  2.95505E-01  8.54575E-02  1.65666E-01  9.14270E-02 -2.18432E-01 -1.72713E-01 -9.97780E-02
  -5.21499E-02 -4.05024E-01 -2.78601E-01 -3.55421E-01 -1.10325E-01 -9.17143E-02  6.02216E-02  3.64475E-01  1.13542E-01  1.91722E-01
   9.19349E-02  5.28461E-02 -7.22340E-02  2.48398E-02 -1.89423E-01 -3.03852E-01 -3.65037E-01 -4.32199E-01 -3.43911E-01 -6.31981E-01
  -2.60278E-01  2.41067E-01  9.03142E-03  1.51774E-01  3.41925E-01  1.30917E-01  2.60881E-01  3.03566E-01  3.18957E-01  3.61138E-02
   2.14609E-01  1.28592E-01  8.20564E-02  2.54967E-01 -1.34603E-01  1.17636E-01 -6.15725E-02 -3.88784E-02  1.17279E-01  9.93078E-03
  -1.59707E-02 -1.93070E-02  6.32828E-03  1.27929E-01  3.35242E-01  2.75324E-01  5.48386E-01  2.95375E-01  2.38424E-01  3.99780E-01
   2.05655E-01  3.80690E-01  4.43032E-01  2.58866E-01  1.40810E-01  5.06841E-01  2.77708E-01  2.17764E-01  2.71282E-01 -1.45295E-02
   4.43794E-01  8.28284E-02 -3.95272E-02  7.86259E-02 -3.67311E-01 -2.05955E-01 -2.33537E-01 -6.44141E-01 -5.94965E-01 -6.02531E-01
  -5.76964E-01 -2.75378E-01 -6.70310E-01 -5.88692E-01 -4.40843E-01 -4.57673E-01 -3.54514E-01 -3.91292E-01 -3.56755E-01 -4.19360E-01
  -2.87404E-01 -3.29887E-01 -6.66345E-02  2.87488E-02  1.58658E-01 -8.07915E-03 -1.69398E-01  2.98499E-01  1.86414E-01  1.79308E-01
   1.68852E-01 -2.09488E-01 -1.03727E-01  2.90674E-01  3.26264E-01  3.85457E-01  4.75617E-01  3.13634E-01  6.15710E-02  1.78793E-01
   5.23089E-01  6.36051E-01  4.31360E-01  7.93636E-01  8.12322E-01  5.53238E-01  5.04873E-01 -1.32608E-01 -2.65719E-01 -1.00382E+00
  -1.04386E+00 -7.92735E-01 -7.82856E-01 -2.75269E-01 -4.83552E-01 -5.34399E-01 -4.86377E-01 -1.80213E-01 -1.59754E-01 -1.73602E-01
  -3.48275E-01 -3.68946E-01 -2.65152E-01 -4.28685E-01 -1.48481E-01 -9.16711E-02 -3.04404E-01 -3.70221E-01 -1.68373E-01 -3.21059E-01
  -3.38067E-01 -2.77619E-01 -2.04249E-01 -4.36177E-01 -5.65945E-01 -1.14095E-01 -1.79743E-01  1.77439E-01  4.08962E-01 -1.42339E-01
  -5.36950E-02  1.18285E-01 -9.80819E-02 -2.03278E-02 -1.58823E-01  1.17422E-02 -1.38236E-01 -2.13604E-01  5.51867E-02 -2.16740E-01
   2.42464E-01 -1.12704E-01 -4.17466E-01  4.66990E-02 -1.61825E-01 -2.73361E-01 -1.97342E-01  1.18756E-02 -2.34707E-01 -3.70123E-02
   3.11276E-01 -9.00510E-02  1.79013E-02  2.17849E-01  1.42590E-01  2.32868E-01  4.82741E-01  5.77352E-01  3.82886E-01  1.74788E-01
   3.37591E-01  7.12071E-01  4.89523E-01  1.26375E-01  1.58768E-01  3.90283E-02 -2.26628E-01 -2.38961E-01  1.63328E-02 -7.59290E-02
  -1.35265E-01  8.88680E-02  6.29551E-02 -2.03507E-01 -2.57900E-01  3.03809E-02 -1.86739E-01  2.80951E-02 -1.03006E-01 -2.39888E-01
   3.37127E-02 -3.40096E-01 -7.60368E-02 -7.87961E-02  6.96883E-02  2.36457E-02 -1.32602E-01  1.37414E-01  1.14149E-01  1.28574E-01
   3.04701E-01  4.15459E-01  3.06685E-01  2.50552E-01  3.92397E-02  2.66630E-01 -1.61408E-01 -1.02978E-01 -4.80905E-02 -3.70007E-02
   4.22791E-01 -5.65155E-02  1.90700E-01 -3.79904E-02 -2.45091E-01 -1.61192E-01 -3.14609E-01 -1.95374E-01 -1.16504E-01 -1.33779E-01
  -1.08508E-01 -2.69035E-01 -1.88140E-01 -1.85392E-01 -2.20800E-01  4.46721E-01  2.12080E-01  5.10111E-01  7.18534E-01  5.70953E-01
   5.05020E-01  3.18491E-01  2.51562E-01  1.22529E-01  3.93598E-01  8.78028E-02  1.56490E-02  2.80989E-01  5.22790E-01  2.57347E-01
   3.84664E-01  3.51962E-01  2.83363E-01  5.04000E-01  2.45528E-01  3.65762E-01 -2.42978E-02  2.11983E-01  4.86109E-01  2.65108E-01
   8.81090E-02  1.91886E-01  2.04449E-01  1.18937E-01  3.11924E-01 -9.16772E-02  2.03917E-02  1.33481E-01 -1.54292E-01 -2.42837E-01
  -6.85927E-02 -1.94328E-01 -3.80110E-01 -3.39126E-01 -2.14326E-01  1.37331E-02 -1.25526E-01  3.12923E-01  1.52278E-01 -4.91376E-02
   3.30421E-01 -6.78617E-02  9.97864E-03  4.05140E-02 -1.57490E-01 -3.38121E-01 -4.22474E-01 -2.48736E-01 -3.71767E-01 -4.58111E-01
  -8.37341E-01 -9.02104E-01 -1.13009E+00 -1.71596E+00 -1.36337E+00 -8.83952E-01 -5.81912E-01 -2.37398E-01 -8.42623E-02  2.87963E-01
   2.97634E-01  6.56423E-02  1.89703E-01  5.57827E-02  5.00427E-02  5.10576E-02  9.99691E-02  2.82662E-01  2.15020E-01  2.51324E-01
   1.02186E-01 -9.31088E-02  3.72302E-01  1.85499E-01 -1.18603E-01  4.11818E-01  2.29047E-01  8.10641E-02  1.31375E-01  1.15960E-01
  -4.57208E-02 -1.95612E-02  1.46915E-01 -5.22664E-02  1.46535E-02  1.49687E-01  3.59558E-01  1.79385E-01 -4.25093E-02  8.71601E-02
   9.02319E-02  1.65697E-01  3.61437E-01  5.70338E-02 -3.74688E-02  2.75475E-01  1.96522E-01 -1.15457E-01  1.16027E-01  4.47635E-01
   1.05592E-01  1.70373E-01  3.59966E-01  3.15902E-01 -1.93705E-02  3.00430E-01  3.98174E-01  1.18910E-01  4.02782E-01  1.53565E-02
  -9.98559E-02  1.38890E-02  2.65272E-02  4.53001E-02  6.17450E-03 -1.08098E-01 -1.62806E-01 -8.04934E-02  9.72312E-03 -1.63110E-01
  -2.01512E-01 -2.47283E-01 -4.69574E-01 -2.75167E-01 -3.71804E-01 -3.44788E-01 -2.53925E-01 -1.66213E-01 -3.15634E-01 -3.28413E-01
  -1.26611E-01 -1.08309E-01 -6.15164E-02  7.64442E-04 -1.76438E-01 -1.83251E-01  2.04219E-02 -1.91108E-01  1.46498E-01 -1.76845E-01
  -3.30064E-01 -2.09218E-01 -1.51575E-01 -7.79477E-03 -1.64768E-01  4.75123E-02 -5.26558E-02 -1.02521E-01 -1.28270E-01  1.44235E-01
  -8.00370E-02 -1.09857E-01 -8.71335E-02  1.12668E-01  3.22342E-01  8.37159E-02  3.84994E-01 -3.50113E-03  2.89052E-01  6.27165E-01
   4.47344E-01  2.47488E-01  8.58155E-02 -9.36042E-02 -1.07063E-01  3.13141E-01  1.44418E-01  1.35704E-01  4.73298E-02 -1.82151E-01
  -1.70123E-01  1.02307E-01  4.15149E-01  3.61093E-01 -5.49626E-02 -2.67738E-01 -2.79831E-01 -3.37246E-01 -3.07949E-01 -3.14789E-01
  -1.51112E-01 -9.43373E-02  2.20414E-02  2.04947E-01  1.85688E-01  1.19327E-01  1.39895E-01 -5.13992E-02 -8.07378E-02 -5.60765E-02
  -3.24980E-01 -1.41828E-01 -3.93683E-02 -2.42529E-01 -6.92581E-03  6.67115E-02  3.93044E-03  1.09040E-01  1.65546E-01  3.06050E-01
   7.36200E-02  1.73835E-01  9.57230E-02  1.67820E-01  1.50323E-01 -7.87506E-02  2.71643E-01 -5.38546E-02  1.68504E-02  1.98429E-02
   4.69813E-03  5.62909E-02  2.50702E-02 -3.30531E-02 -9.51605E-02  1.46327E-01 -6.83164E-02  1.62869E-01  1.61346E-01  3.49168E-02
   5.95853E-02  2.06064E-01  1.68333E-01  1.64029E-01  2.33862E-01  8.24364E-02  1.03047E-01 -1.48747E-01 -4.53123E-02 -1.20385E-01
   9.85849E-02  4.36736E-02 -1.11136E-01 -3.82582E-02 -1.07054E-01 -7.36172E-02 -4.38831E-01 -4.52061E-01 -6.56069E-01 -4.44695E-01
  -2.01224E-01 -3.43069E-01 -3.04357E-01 -1.51681E-01 -2.18187E-02 -1.24948E-01 -2.99376E-02 -1.44541E-01 -1.69701E-01 -1.17119E-01
  -3.82105E-01 -2.48431E-01 -2.37673E-01 -1.35402E-01  3.28000E-01 -1.46571E-01  1.14707E-01  1.50180E-01 -2.03660E-02  3.68106E-01
   9.25759E-02  3.15939E-01  2.17796E-01  5.25819E-02  2.66126E-02  2.77509E-01  1.93324E-02 -2.02305E-01  1.33666E-01  1.83830E-01
   3.47292E-01  5.10321E-02  2.15976E-01 -3.55896E-02 -2.30365E-02  4.75903E-01  2.12980E-01  9.37091E-02  2.15748E-01  1.18732E-01
   7.02636E-02  2.46586E-01  1.21536E-01 -8.08967E-03 -1.12633E-02  3.54350E-01  2.39532E-01 -1.91795E-01 -9.06076E-02  1.96394E-01
   1.09796E-01 -4.48848E-04  3.70662E-01  1.25470E-01  3.32352E-02  1.99999E-01 -1.08481E-01 -2.15757E-02  9.54420E-02 -1.36361E-01
  -4.75534E-02  6.07292E-02 -6.04827E-02  3.31249E-02  2.63605E-01  2.11433E-01  6.69699E-02  4.77660E-02  1.09286E-01 -5.42211E-02
  -1.31327E-01  9.31550E-02 -2.76610E-02  8.24771E-02  1.39773E-01  4.96910E-03  5.81792E-02  8.72364E-02  8.44517E-03  1.15953E-01
   2.45880E-01  2.69788E-02  7.01349E-02  1.13340E-01  4.63043E-02 -2.11041E-01 -7.85370E-02  2.67513E-01 -1.34027E-01 -9.37395E-02
   2.26609E-01  1.66120E-01  1.12414E-01 -2.21678E-01  1.22409E-01  2.47646E-01 -7.83986E-02  3.70541E-01  1.50218E-01  1.06104E-01
   7.40200E-02  7.45187E-02  2.65329E-01 -1.26147E-01 -2.07167E-01 -2.05257E-01 -1.42468E-01  4.52484E-02  2.15121E-01 -1.34726E-01
  -6.34657E-03  1.53566E-01 -3.49159E-02  2.22041E-01  2.48774E-01  4.40720E-01  3.52992E-01  1.00653E-01  3.01085E-02  1.26469E-01
  -3.32401E-02 -1.64322E-01  3.28820E-01  1.75550E-01
 NY points of the fit to the data follow
   5.13105E-02  2.31957E-02 -6.90874E-03 -3.11015E-02 -4.38180E-02 -4.43047E-02 -1.86408E-02  2.19337E-02  7.23168E-02  1.57620E-01
   2.44757E-01  3.42543E-01  4.61804E-01  5.28743E-01  5.05486E-01  4.23783E-01  3.16921E-01  1.96840E-01  9.59134E-02  4.05015E-02
   3.82492E-03 -3.46145E-02 -5.65083E-02 -8.32483E-02 -1.11934E-01 -1.36214E-01 -1.56452E-01 -1.71018E-01 -1.82317E-01 -1.93866E-01
  -2.08045E-01 -2.25040E-01 -2.46449E-01 -2.74340E-01 -3.01231E-01 -3.26865E-01 -3.41538E-01 -3.33236E-01 -2.99911E-01 -2.30500E-01
  -1.17257E-01  1.29311E-02  1.45633E-01  2.68050E-01  3.60507E-01  4.09627E-01  4.07235E-01  3.58344E-01  2.80041E-01  2.03047E-01
   1.37164E-01  8.42470E-02  4.27401E-02  5.91162E-03 -4.06708E-02 -8.82057E-02 -1.39890E-01 -1.83618E-01 -2.32460E-01 -2.71388E-01
  -2.82540E-01 -3.02982E-01 -2.79425E-01 -2.06693E-01 -1.31682E-01 -3.00537E-02  9.91051E-02  2.05087E-01  2.65983E-01  2.95572E-01
   2.88122E-01  2.21255E-01  1.33029E-01  4.39975E-02 -5.81693E-02 -1.45392E-01 -2.34880E-01 -2.98936E-01 -3.39675E-01 -3.58221E-01
  -2.83688E-01 -1.25437E-01  3.86860E-02  1.84895E-01  3.11261E-01  3.78964E-01  3.68777E-01  3.31147E-01  2.89264E-01  2.28653E-01
   1.82820E-01  1.53502E-01  1.18214E-01  6.83874E-02  8.08071E-03 -6.13795E-02 -1.34276E-01 -1.98348E-01 -2.40070E-01 -2.41410E-01
  -1.89209E-01 -8.64172E-02  4.14048E-02  1.59190E-01  2.36337E-01  2.67585E-01  2.65050E-01  2.51353E-01  2.38464E-01  2.33324E-01
   2.33489E-01  2.33779E-01  2.33299E-01  2.32148E-01  2.30799E-01  2.28529E-01  2.18480E-01  2.10824E-01  1.92714E-01  1.55478E-01
   1.24841E-01  6.95108E-02 -8.56468E-03 -5.92433E-02 -1.39215E-01 -2.15495E-01 -2.83992E-01 -3.46715E-01 -4.05020E-01 -4.66615E-01
  -4.87173E-01 -4.86462E-01 -4.50592E-01 -3.99235E-01 -3.71510E-01 -3.84766E-01 -4.32674E-01 -4.79652E-01 -4.31552E-01 -3.16783E-01
  -1.77193E-01 -5.71942E-02  2.04716E-02  5.50529E-02  6.26786E-02  8.21523E-02  1.02335E-01  1.21574E-01  1.39595E-01  1.56684E-01
   1.72820E-01  1.89168E-01  2.06357E-01  2.24664E-01  2.44870E-01  2.68032E-01  2.94525E-01  3.26065E-01  3.65244E-01  4.16456E-01
   4.90696E-01  5.95118E-01  6.26360E-01  6.76690E-01  6.43273E-01  5.04987E-01  3.51729E-01  4.76703E-02 -4.26855E-01 -8.28614E-01
  -9.55408E-01 -8.80669E-01 -7.04891E-01 -4.92694E-01 -3.44674E-01 -3.48213E-01 -3.34599E-01 -3.14698E-01 -2.95099E-01 -2.81918E-01
  -2.68082E-01 -2.53681E-01 -2.39362E-01 -2.26499E-01 -2.15576E-01 -2.07318E-01 -2.00896E-01 -1.92423E-01 -1.81813E-01 -1.70793E-01
  -1.60896E-01 -1.49745E-01 -1.39095E-01 -1.28009E-01 -1.16892E-01 -1.05417E-01 -9.36092E-02 -8.18457E-02 -6.98331E-02 -5.77177E-02
  -4.71975E-02 -3.62341E-02 -2.61817E-02 -2.09089E-02 -2.11622E-02 -2.50608E-02 -2.72110E-02 -2.62571E-02 -2.82244E-02 -3.67246E-02
  -4.94422E-02 -5.96906E-02 -6.34020E-02 -6.08975E-02 -5.36634E-02 -4.72037E-02 -4.37772E-02 -4.18255E-02 -3.89027E-02 -2.58733E-02
  -6.25286E-03  2.40286E-02  6.60313E-02  1.11459E-01  1.76212E-01  2.51470E-01  3.12398E-01  3.47367E-01  3.43487E-01  3.31567E-01
   3.35578E-01  3.20968E-01  2.58574E-01  1.59830E-01  6.06020E-02 -1.90456E-02 -6.36834E-02 -6.76502E-02 -6.28845E-02 -6.78115E-02
  -7.35585E-02 -7.99389E-02 -8.55424E-02 -8.96354E-02 -9.19925E-02 -9.46932E-02 -9.73861E-02 -1.01322E-01 -1.07411E-01 -1.15237E-01
  -1.27983E-01 -1.31623E-01 -1.41570E-01 -1.46313E-01 -1.27475E-01 -1.13341E-01 -6.71464E-02  2.07215E-03  5.92860E-02  1.02744E-01
   1.39456E-01  1.75189E-01  1.83277E-01  1.74800E-01  1.73408E-01  1.61810E-01  1.45188E-01  1.31549E-01  1.11436E-01  9.15889E-02
   6.28968E-02  3.41147E-02  3.02681E-03 -3.75537E-02 -7.93896E-02 -1.29871E-01 -1.78033E-01 -2.32539E-01 -2.88413E-01 -3.26769E-01
  -3.55394E-01 -3.48152E-01 -2.88604E-01 -1.86445E-01 -3.68108E-02  1.40037E-01  3.05270E-01  4.29428E-01  4.89019E-01  4.85951E-01
   4.30421E-01  3.60828E-01  3.08053E-01  2.69496E-01  2.54495E-01  2.54859E-01  2.56765E-01  2.59436E-01  2.59655E-01  2.56790E-01
   2.51676E-01  2.45014E-01  2.39601E-01  2.33610E-01  2.28257E-01  2.22164E-01  2.14211E-01  2.04534E-01  1.91957E-01  1.75978E-01
   1.55460E-01  1.29756E-01  9.92027E-02  6.07323E-02  1.80757E-02 -3.21803E-02 -8.59572E-02 -1.42471E-01 -1.96903E-01 -2.40036E-01
  -2.70571E-01 -2.81294E-01 -2.70803E-01 -2.38695E-01 -1.88258E-01 -1.22050E-01 -4.90950E-02  1.08047E-02  5.08334E-02  5.25414E-02
   2.79563E-02 -2.27914E-02 -7.76328E-02 -1.24157E-01 -1.50869E-01 -1.54376E-01 -1.84216E-01 -2.80897E-01 -3.80322E-01 -5.83060E-01
  -8.23270E-01 -1.04683E+00 -1.35479E+00 -1.55945E+00 -1.42650E+00 -9.97646E-01 -5.39067E-01 -1.73692E-01  4.40152E-02  7.36321E-02
   1.78645E-03  2.96395E-03  1.23089E-02  2.15540E-02  2.81372E-02  3.30556E-02  3.65117E-02  3.69414E-02  3.60322E-02  3.26622E-02
   2.83157E-02  2.37988E-02  2.02075E-02  1.85303E-02  1.93319E-02  2.29686E-02  2.94293E-02  3.75949E-02  4.61386E-02  5.42044E-02
   6.10499E-02  6.72510E-02  7.24207E-02  7.77053E-02  8.20525E-02  8.56304E-02  8.89036E-02  9.21126E-02  9.54131E-02  9.88591E-02
   1.01996E-01  1.04752E-01  1.07143E-01  1.09749E-01  1.12088E-01  1.14570E-01  1.16614E-01  1.18390E-01  1.20392E-01  1.22794E-01
   1.25236E-01  1.27333E-01  1.28275E-01  1.27587E-01  1.25193E-01  1.21402E-01  1.17153E-01  1.12534E-01  1.07530E-01  1.01815E-01
   9.51274E-02  8.75207E-02  7.94368E-02  7.12434E-02  6.30900E-02  5.51068E-02  4.81110E-02  4.16023E-02  3.51809E-02  2.92548E-02
   2.38595E-02  1.87467E-02  1.44004E-02  1.06195E-02  7.19102E-03  3.81762E-03  5.70704E-04 -2.33009E-03 -4.99726E-03 -7.06967E-03
  -8.28995E-03 -8.91792E-03 -8.79082E-03 -7.49491E-03 -4.87242E-03 -1.43462E-03  2.68258E-03  7.53334E-03  1.23167E-02  1.70878E-02
   2.19779E-02  2.64426E-02  3.03509E-02  3.48710E-02  4.08252E-02  4.84718E-02  5.73041E-02  6.69293E-02  7.65385E-02  8.62610E-02
   9.70795E-02  1.08891E-01  1.21484E-01  1.34405E-01  1.46902E-01  1.58417E-01  1.68905E-01  1.77975E-01  1.84869E-01  1.89394E-01
   1.91447E-01  1.91163E-01  1.88997E-01  1.85397E-01  1.80242E-01  1.73454E-01  1.64979E-01  1.54571E-01  1.42598E-01  1.29919E-01
   1.17796E-01  1.06103E-01  9.52484E-02  8.49734E-02  7.49859E-02  6.56032E-02  5.74096E-02  5.02095E-02  4.36081E-02  3.78410E-02
   3.30478E-02  2.91346E-02  2.63487E-02  2.49018E-02  2.46123E-02  2.60602E-02  2.89991E-02  3.29698E-02  3.76293E-02  4.29469E-02
   4.83803E-02  5.38469E-02  5.94559E-02  6.47858E-02  6.91819E-02  7.25831E-02  7.53015E-02  7.72983E-02  7.87138E-02  8.04537E-02
   8.18634E-02  8.21439E-02  8.11984E-02  7.88392E-02  7.56493E-02  7.19705E-02  6.80781E-02  6.39515E-02  5.98754E-02  5.61122E-02
   5.22802E-02  4.81842E-02  4.41082E-02  3.98272E-02  3.54509E-02  3.12103E-02  2.70471E-02  2.30019E-02  1.92379E-02  1.57945E-02
   1.19555E-02  7.21993E-03  1.61018E-03 -4.96014E-03 -1.27854E-02 -2.17768E-02 -3.19696E-02 -4.31868E-02 -5.58892E-02 -7.03104E-02
  -8.65124E-02 -1.04535E-01 -1.23550E-01 -1.42186E-01 -1.59711E-01 -1.75855E-01 -1.90162E-01 -2.02428E-01 -2.12388E-01 -2.20045E-01
  -2.24936E-01 -2.26578E-01 -2.24727E-01 -2.20413E-01 -2.14423E-01 -2.06980E-01 -1.98230E-01 -1.88942E-01 -1.79641E-01 -1.70168E-01
  -1.61011E-01 -1.51766E-01 -1.41401E-01 -1.29980E-01 -1.17819E-01 -1.05433E-01 -9.27044E-02 -8.02536E-02 -6.84740E-02 -5.70353E-02
  -4.62323E-02 -3.62567E-02 -2.64542E-02 -1.72674E-02 -8.91118E-03 -1.42879E-03  5.21869E-03  1.19052E-02  1.78555E-02  2.27013E-02
   2.68432E-02  3.06260E-02  3.39424E-02  3.67100E-02  3.91433E-02  4.11765E-02  4.24696E-02  4.39420E-02  4.56098E-02  4.69272E-02
   4.85654E-02  5.07045E-02  5.29629E-02  5.49958E-02  5.69835E-02  5.84834E-02  5.88147E-02  5.88249E-02  5.89099E-02  5.85543E-02
   5.83671E-02  5.85217E-02  5.85242E-02  5.86738E-02  5.90626E-02  5.93842E-02  5.96021E-02  5.98177E-02  5.99321E-02  5.97145E-02
   5.86929E-02  5.72001E-02  5.61484E-02  5.62809E-02  5.69333E-02  5.72950E-02  5.77391E-02  5.78218E-02  5.73554E-02  5.69866E-02
   5.73694E-02  5.85878E-02  6.02460E-02  6.19898E-02  6.37615E-02  6.51283E-02  6.64793E-02  6.77395E-02  6.88746E-02  6.96950E-02
   7.02395E-02  7.07805E-02  7.08636E-02  7.08232E-02  7.13092E-02  7.23467E-02  7.39718E-02  7.61035E-02  7.81918E-02  8.03905E-02
   8.20212E-02  8.36299E-02  8.56948E-02  8.79587E-02  9.00004E-02  9.11965E-02  9.14381E-02  9.11793E-02  9.11054E-02  9.21133E-02
   9.38223E-02  9.51942E-02  9.61484E-02  9.70080E-02  9.79803E-02  9.94565E-02  1.01471E-01  1.03422E-01  1.05175E-01  1.07621E-01
   1.10403E-01  1.12893E-01  1.15429E-01  1.18294E-01  1.21447E-01  1.25191E-01  1.29631E-01  1.34709E-01  1.40300E-01  1.46321E-01
   1.51877E-01  1.56948E-01  1.62083E-01  1.67110E-01
 NY background values follow
    -1.863E-02   -1.823E-02   -1.783E-02   -1.744E-02   -1.704E-02   -1.664E-02   -1.625E-02   -1.585E-02   -1.545E-02   -1.506E-02
    -1.466E-02   -1.426E-02   -1.387E-02   -1.347E-02   -1.307E-02   -1.268E-02   -1.228E-02   -1.189E-02   -1.149E-02   -1.110E-02
    -1.071E-02   -1.031E-02   -9.920E-03   -9.528E-03   -9.136E-03   -8.745E-03   -8.354E-03   -7.963E-03   -7.573E-03   -7.184E-03
    -6.795E-03   -6.407E-03   -6.020E-03   -5.633E-03   -5.247E-03   -4.862E-03   -4.477E-03   -4.093E-03   -3.710E-03   -3.328E-03
    -2.947E-03   -2.566E-03   -2.186E-03   -1.807E-03   -1.429E-03   -1.052E-03   -6.760E-04   -3.008E-04    7.354E-05    4.469E-04
     8.193E-04    1.191E-03    1.561E-03    1.931E-03    2.299E-03    2.667E-03    3.033E-03    3.399E-03    3.763E-03    4.127E-03
     4.489E-03    4.851E-03    5.211E-03    5.571E-03    5.929E-03    6.286E-03    6.642E-03    6.998E-03    7.352E-03    7.705E-03
