 
 $NMID
 ID=''
 FMTDAT='(2E13.5)'
 TRAMP=   1.00000E+0
 VOLUME=   1.00000E+0
 $END
  -9.49654E+2   7.39403E+1
  -1.37994E+3  -1.56628E+3
   2.20483E+3   4.35081E+3
   1.78202E+3  -1.27388E+2
   2.04346E+3  -2.54288E+3
  -1.36428E+3   1.73868E+3
  -3.69610E+3  -1.20923E+3
   1.12041E+3  -2.04079E+3
  -1.33599E+3   1.52963E+3
   1.03234E+3  -1.50968E+3
   2.35983E+3   3.91049E+3
  -2.34211E+3   4.73841E+3
  -2.61241E+3  -1.55565E+3
   1.62718E+3  -2.38130E+3
  -2.35483E+0   1.33687E+3
  -1.29948E+3   1.49148E+3
  -1.58303E+3   2.37324E+3
  -3.50563E+2   7.09424E+2
   4.51547E+2  -4.83503E+2
   1.59128E+3   3.34954E+3
  -3.03058E+3   1.77371E+3
   1.23652E+3  -4.05557E+3
   3.72850E+3   9.92323E+2
  -1.21056E+3   2.99585E+3
  -3.09351E+3  -2.32267E+2
   2.09379E+3  -3.79740E+3
   1.56326E+3  -2.16419E+3
  -3.56741E+1   1.39627E+3
  -2.93490E+3   1.03261E+3
  -5.35473E+3  -2.01407E+3
   1.62074E+3  -4.79264E+3
   3.46091E+3   6.21561E+2
  -3.07319E+2   4.26707E+3
  -1.14254E+3   2.52713E+3
   2.59687E+2   4.01402E+2
   1.88985E+2  -7.61771E+2
   4.06672E+2  -1.75363E+2
   3.87278E+3  -2.56432E+3
   4.32018E+3   8.27481E+2
   2.38132E+3   1.19700E+2
   2.31333E+2   1.38341E+3
  -1.55664E+3   1.06151E+3
  -8.16011E+2  -1.12925E+3
   1.04821E+3  -3.94103E+3
   3.19387E+3  -5.32921E+2
   1.42869E+3   2.65322E+3
   4.05835E+2   1.38105E+3
  -7.52442E+2   2.70098E+3
  -1.12898E+3   1.90899E+3
  -4.34024E+3   2.86245E+3
  -3.48156E+3  -7.65255E+2
  -4.20165E+2  -2.74015E+3
   1.81987E+3   9.49148E+2
  -1.67754E+3   2.67263E+3
  -1.77207E+3  -1.66710E+3
  -1.40198E+3  -8.88444E+2
   3.06828E+2  -3.10438E+3
   1.23117E+3  -3.01529E+3
   5.71552E+3  -1.21170E+3
   3.21849E+3   3.03400E+3
  -8.42021E+2   1.63348E+3
  -2.17584E+3   2.35826E+3
  -3.36823E+2   1.09206E+3
  -4.14583E+2  -2.39360E+3
  -3.56884E+2  -4.26701E+2
  -2.65182E+3  -8.64639E+2
  -1.24383E+3  -3.65869E+3
  -5.65194E+1  -4.17951E+3
   3.97222E+3  -1.43109E+3
   2.77250E+3  -3.13139E+2
   1.08073E+3  -1.12495E+3
   3.59619E+2  -1.54035E+3
   1.85139E+3   5.47966E+2
   2.54868E+3   2.37842E+3
   4.31914E+2   1.93427E+3
  -7.52490E+2   2.85999E+3
  -1.89396E+3   1.08860E+3
   1.62272E+3   5.20280E+2
  -1.40429E+3   1.39345E+3
  -2.03537E+3  -2.88276E+2
  -5.40739E+2  -3.67471E+2
  -1.09012E+3   1.14578E+3
  -1.47073E+3   4.28537E+1
  -2.27570E+3   1.17786E+3
   4.41345E+2  -2.58094E+2
   6.07939E+2   1.54092E+3
  -3.53649E+3   1.08953E+3
  -3.25994E+3  -2.47686E+3
  -1.31214E+3  -3.81342E+3
   2.31760E+3  -6.58350E+2
   3.71124E+2  -1.18874E+3
  -6.99604E+2  -7.75322E+2
   3.15214E+3  -1.74179E+3
   1.73260E+3  -8.35275E+2
  -2.81067E+3   1.74569E+3
  -1.75508E+3  -9.47031E+2
   2.61020E+2  -2.22178E+3
   3.88367E+3   5.25552E+2
   6.17464E+2   1.61922E+3
  -3.01657E+3  -6.05652E+2
  -3.62430E+2  -3.27714E+3
   2.31794E+3  -2.83044E+3
   2.01819E+3   3.26761E+2
   1.95175E+2   9.72888E+2
  -2.81644E+2  -1.21518E+3
   7.19756E+2  -8.09058E+2
  -7.62343E+2  -8.76616E+2
  -1.81767E+3   2.22707E+3
  -1.27803E+3  -3.86324E+2
   1.51048E+3  -2.81441E+3
   2.63926E+3   1.16834E+3
   2.08501E+3   1.54732E+3
  -9.06336E+2   4.12965E+2
  -4.85336E+2  -8.03727E+2
  -1.63674E+3  -1.04345E+3
   4.79318E+2  -1.28571E+3
   3.90025E+2  -1.11758E+3
   6.71511E+2  -6.00231E+1
  -1.05058E+3   1.47677E+3
  -9.88896E+2   1.13847E+2
  -1.31056E+3   1.23052E+3
  -1.51511E+3  -7.02262E+2
   1.15854E+3   1.03178E+3
   2.37313E+2  -4.37867E+2
  -2.20210E+3   1.06607E+3
   4.41370E+2  -5.00298E+2
   6.05809E+2  -3.17385E+2
   9.21712E+2  -1.52716E+3
   6.82399E+2  -1.47022E+3
   1.98620E+3  -1.44010E+3
  -3.51245E+2  -4.68648E+1
   1.76159E+3  -1.76495E+3
   8.31542E+2  -4.45393E+1
   1.32357E+3  -7.62064E+2
   1.54609E+3  -5.26203E+2
   6.80821E+2  -1.09845E+3
  -1.36401E+3   1.94798E+3
  -3.72968E+1  -1.39802E+3
  -1.27476E+3   1.38051E+3
   1.20898E+3  -6.47995E+2
   1.84622E+3  -8.95562E+2
  -1.73702E+3  -5.01169E+2
  -1.22125E+3   7.89514E+2
  -1.45739E+3   9.35284E+2
  -3.12810E+3   3.18589E+2
  -2.01242E+3   2.62888E+2
   7.31115E+2   1.72120E+3
  -7.64154E+2  -4.66117E+2
   1.51368E+2  -2.06388E+2
   1.71563E+2  -2.05240E+2
  -1.09119E+3   1.52421E+3
  -3.50452E+2   1.15352E+3
  -1.19990E+3   3.38467E+3
   1.07928E+3   1.06438E+3
  -1.49788E+3   1.72441E+3
  -1.07217E+3   3.16574E+3
  -1.27781E+3   5.69886E+2
   2.84630E+2  -7.66955E+1
  -5.48564E+2   9.73094E+2
   5.71767E+2   3.38440E+2
   8.38064E+2   1.27172E+2
   1.15733E+3  -5.27322E+2
  -2.07512E+3  -1.43465E+2
  -1.42275E+2  -4.24264E+2
  -1.27766E+3   9.45927E+1
  -6.49286E+1  -4.19472E+2
   3.67405E+2   1.24113E+2
  -1.49673E+3   2.26265E+2
   6.88192E+2   9.81697E+2
   1.87002E+1   1.13695E+3
  -6.54210E+1  -5.80779E+2
  -2.42951E+2  -8.04899E+2
  -1.08492E+3  -5.33757E+2
  -1.28551E+3   4.59605E+2
   1.14901E+1   3.34461E+2
  -2.31694E+2  -5.84520E+2
   7.26000E+2   1.43021E+3
   1.49880E+3   3.10717E+2
  -2.09988E+3  -1.24717E+3
   2.15148E+2   3.80536E+2
  -1.21778E+3   1.53441E+3
  -2.04180E+2   5.14755E+2
  -9.45417E+2   1.64599E+3
   8.41494E+2   4.23029E+2
  -1.23898E+3   1.08856E+3
  -1.06292E+3  -7.34051E+2
  -1.60020E+2  -9.03748E+2
   4.39175E+1   2.22393E+3
  -1.35020E+3   8.16634E+2
   1.67943E+3  -4.64784E+2
  -1.77653E+2  -1.93040E+2
  -9.91020E+2   1.99852E+3
  -1.63624E+3   2.83271E+3
   1.61032E+2   4.06044E+2
  -6.72210E+2  -2.20856E+2
  -1.08551E+3   1.10615E+2
  -1.52137E+3   6.08753E+2
  -1.60339E+2  -1.67223E+1
  -1.20679E+3   8.46030E+2
   1.72936E+2  -1.06809E+3
  -1.83890E+3  -6.91809E+2
  -1.26375E+3  -1.31864E+3
  -2.08418E+2  -9.98827E+2
   9.47277E+2   3.31717E+2
   3.33014E+2   4.41252E+2
  -3.95312E+2  -2.52584E+3
   2.69757E+3  -7.88893E+2
  -1.54215E+3  -2.19065E+3
   1.72383E+3   2.82716E+2
  -3.50033E+2  -1.19951E+3
  -8.55770E+1   1.84971E+3
   9.38941E+2   1.11141E+2
   1.01375E+3   1.36730E+3
   1.08973E+3  -1.34351E+3
  -1.53065E+2  -1.34455E+3
   1.20829E+3   5.85026E+2
   2.89926E+3  -2.00278E+3
   6.22186E+2  -1.44249E+2
   8.76763E+2  -8.22130E+2
   3.42209E+2  -4.13630E+2
  -2.56944E+1   2.59584E+3
   1.88723E+3  -1.10577E+3
   1.62189E+3   1.31015E+3
   2.99501E+3  -1.01767E+3
   7.38407E+2  -1.77145E+3
  -3.66090E+1   8.18868E+2
  -1.46795E+2  -4.35715E+2
   1.01158E+2   1.31576E+3
  -1.13985E+3   1.82804E+3
   6.39192E+2   8.38397E+2
  -5.25677E+2   1.38082E+3
   1.06904E+3   1.25045E+3
   8.50170E+2  -1.03234E+1
  -2.48387E+2   1.00178E+3
  -5.26153E+2   1.20466E+3
  -9.20067E+2   8.64475E+2
   7.64213E+1   9.82893E+2
  -8.22558E+2   5.84243E+2
   1.22623E+3   1.41616E+3
  -2.47261E+2   2.49811E+3
  -3.26872E+2   2.06119E+2
  -1.33422E+2   5.04417E+1
  -2.38584E+2   7.28243E+2
  -1.33631E+3   1.28215E+3
  -2.50187E+2   1.32319E+3
   4.31526E+2  -7.79479E+2
  -8.65399E+2  -1.76149E+2
  -2.29192E+3  -1.28243E+2
  -6.26234E+2   1.52491E+3
   3.76383E+2  -1.38168E+3
  -2.71163E+3  -2.28769E+3
   3.28899E+2  -4.54603E+2
  -8.65101E+2  -4.20308E+2
   1.35539E+2   1.87999E+1
  -1.65234E+3  -3.55618E+2
  -4.31505E+2  -6.62330E+2
  -3.82321E+2  -5.66279E+1
   5.71398E+0  -1.82601E+2
   1.33452E+3  -5.88313E+2
  -3.10291E+2  -1.44079E+3
   9.07945E+2  -1.25255E+3
  -6.15879E+2  -3.34590E+2
   5.18870E+2  -6.88302E+2
   2.23919E+2  -1.35418E+3
  -9.77943E+2   3.51327E+2
   3.40330E+2   1.49815E+2
  -1.29476E+3  -2.79875E+2
   7.40228E+2  -1.40046E+3
   1.33025E+3  -3.01297E+2
   1.90807E+3  -2.02456E+3
   1.19481E+2  -9.77766E+1
   2.99824E+3  -1.34770E+2
   7.29624E+2  -4.74228E+2
  -5.70563E+1  -5.11546E+2
  -6.42726E+2  -4.25003E+2
  -6.07169E+2  -1.70281E+2
   1.67640E+3  -1.11485E+3
   1.36521E+3   6.67933E+2
   2.02095E+3  -3.40062E+1
   4.74682E+2  -9.51064E+1
   1.39056E+3   6.14731E+2
   5.34515E+2  -1.01322E+3
   3.31045E+3   6.35642E+2
   9.98699E+2  -2.82628E+2
   1.49306E+3  -1.77243E+3
  -5.15929E+2   1.54758E+3
   8.06516E+2  -3.17337E+2
   1.34266E+3   1.61974E+3
  -1.00861E+2   8.03998E+2
   1.56650E+3  -1.03745E+3
   3.42546E+2   1.36238E+2
   1.71783E+3   8.62916E+2
   8.11352E+2   7.59314E+2
   7.31317E+1   1.48453E+3
   1.61476E+2  -1.18663E+3
   1.12733E+3  -1.00040E+2
   5.02281E+2   6.30664E+2
   1.71874E+3   2.06306E+3
  -5.79097E+1   3.69887E+2
   7.13372E+2   8.33798E+2
   3.72238E+2  -1.78256E+2
   1.76694E+1  -9.14049E+2
  -2.23775E+1   1.53800E+3
  -1.13595E+3   1.11213E+3
   4.98646E+1  -8.42415E+2
   1.34944E+3  -1.05647E+2
   4.59157E+2  -1.64165E+2
  -3.63198E+2  -7.44706E+1
   7.61993E+2   5.09743E+2
  -1.38723E+3   1.30992E+3
  -7.92224E+2   9.82980E+2
   4.61663E+2   1.79050E+2
  -1.27867E+2  -2.59148E+3
  -8.14023E+2  -1.57560E+2
  -1.73482E+3  -1.77336E+3
   3.94769E+2   2.21344E+2
  -6.76064E+2   1.76181E+2
  -8.03875E+2  -6.80009E+2
  -2.13614E+2   5.72229E+2
   4.38820E+2   2.28621E+2
  -1.65402E+2   1.84101E+3
   6.83193E+2   9.69209E+1
  -1.07810E+2  -1.57697E+3
  -5.56992E+2   7.54719E+2
   8.05551E+2  -5.78064E+1
   1.58263E+3  -9.49638E+2
   8.20412E+2  -7.16183E+2
  -6.04669E+2  -4.76204E+2
   8.39769E+2   5.68433E+2
   1.37067E+3  -1.22216E+3
   8.89543E+2  -2.24926E+3
   2.08360E+3  -5.03518E+2
  -6.87924E+1  -7.64017E+2
   2.33843E+3   1.11603E+3
  -7.39331E+2   9.52587E+2
  -7.59345E+2  -2.29690E+2
   3.50449E+2   1.83897E+3
   8.14532E+1  -1.55738E+3
   1.93065E+3   2.77530E+2
   1.05416E+3   3.14861E+2
   1.98607E+3  -5.53097E+2
   1.90747E+3   1.70766E+3
   4.92737E+2  -9.37578E+2
   1.69879E+3  -2.29824E+2
  -1.40285E+3  -1.25587E+3
   1.62109E+3   2.61662E+2
  -1.85133E+3  -3.36304E+2
   4.83950E+2  -1.15058E+2
   1.40455E+3  -2.49158E+3
  -1.40069E+3   2.79925E+2
   1.40685E+3  -2.96362E+2
  -1.67617E+1   1.53968E+3
   3.53503E+2  -1.49462E+3
  -1.60190E+3   1.49626E+3
   1.34538E+3  -1.01945E+2
   1.09356E+3   1.46946E+3
  -7.23506E+2  -7.98059E+2
  -9.92748E+2  -1.94448E+3
  -2.18179E+3  -1.33531E+2
  -7.01904E+2   9.73580E+2
  -1.48735E+3   1.23859E+3
  -1.10949E+3  -1.23578E+3
  -3.07885E+2   1.04556E+3
   2.75581E+2  -1.53656E+3
  -4.78836E+2  -3.43382E+2
  -9.11861E+2  -5.27235E+2
  -6.84156E+2  -7.82586E+2
