 LCModel (Version 6.3-1N) Copyright: S.W. Provencher.          Ref.: Magn. Reson. Med. 30:672-679 (1993).                
 Slice_N1@15_12  02-Jun-2023 14:36:51
 27 lines in following concentration table = NCONC+1
    Conc.  %SD /Cr+PCr  Metabolite                                         
 1.47E-06  22% 1.9E-04 Mac                                                 
 3.82E-02  33%   5.026 Cr                                                  
 2.26E-02  53%   2.974 PCr                                                 
 7.74E-02  11%  10.189 Ins                                                 
 8.06E-02   8%  10.615 NAA                                                 
 5.12E-02  15%   6.738 Tau                                                 
 1.48E-02  14%   1.945 PCho                                                
    0.000 999%   0.000 GPC                                                 
 6.90E-02  14%   9.078 Glu                                                 
 2.99E-02  24%   3.934 Gln                                                 
 6.16E-04 999% 8.1E-02 Ala                                                 
 2.08E-02  62%   2.737 Asc                                                 
 8.98E-03  81%   1.182 Asp                                                 
 7.48E-03  52%   0.985 GABA                                                
 9.06E-03  52%   1.193 Glc                                                 
 1.17E-02  38%   1.538 GSH                                                 
    0.000 999%   0.000 Lac                                                 
 4.15E-03 124%   0.546 NAAG                                                
    0.000 999%   0.000 PE                                                  
 1.48E-02  14%   1.945 GPC+PCho                                            
 8.48E-02   9%  11.160 NAA+NAAG                                            
 9.88E-02  12%  13.012 Glu+Gln                                             
 6.08E-02  10%   8.000 Cr+PCr                                              
 8.48E-02   9%  11.160 NAA+NAAG                                            
 6.08E-02  10%   8.000 Cr+PCr                                              
 9.88E-02  12%  13.012 Glu+Gln                                             
   6 lines in following misc. output table
  FWHM = 0.029 ppm    S/N =   3                                            
  Data shift = 0.012 ppm                                                   
  Ph: -64 deg      -7.0 deg/ppm                                            
  alphaB,S = 1.6E+01,   1.4E+01                                            
   18 spline knots.   Ns = 6(1)                                            
  ( 3) 2 infls.   ( 1) 1 extrs.                                            
  654 points on ppm-axis = NY
      4.000000     3.994181     3.988363     3.982544     3.976726     3.970907     3.965088     3.959270     3.953451     3.947633
      3.941814     3.935995     3.930177     3.924358     3.918540     3.912721     3.906902     3.901084     3.895265     3.889446
      3.883628     3.877809     3.871991     3.866172     3.860353     3.854535     3.848716     3.842898     3.837079     3.831260
      3.825442     3.819623     3.813805     3.807986     3.802167     3.796349     3.790530     3.784712     3.778893     3.773074
      3.767256     3.761437     3.755619     3.749800     3.743981     3.738163     3.732344     3.726526     3.720707     3.714888
      3.709070     3.703251     3.697433     3.691614     3.685795     3.679977     3.674158     3.668339     3.662521     3.656702
      3.650884     3.645065     3.639246     3.633428     3.627609     3.621791     3.615972     3.610153     3.604335     3.598516
      3.592698     3.586879     3.581060     3.575242     3.569423     3.563605     3.557786     3.551967     3.546149     3.540330
      3.534512     3.528693     3.522874     3.517056     3.511237     3.505419     3.499600     3.493781     3.487963     3.482144
      3.476326     3.470507     3.464688     3.458870     3.453051     3.447232     3.441414     3.435595     3.429777     3.423958
      3.418139     3.412321     3.406502     3.400684     3.394865     3.389046     3.383228     3.377409     3.371591     3.365772
      3.359953     3.354135     3.348316     3.342498     3.336679     3.330860     3.325042     3.319223     3.313405     3.307586
      3.301767     3.295949     3.290130     3.284312     3.278493     3.272674     3.266856     3.261037     3.255219     3.249400
      3.243581     3.237763     3.231944     3.226125     3.220307     3.214488     3.208670     3.202851     3.197032     3.191214
      3.185395     3.179577     3.173758     3.167939     3.162121     3.156302     3.150484     3.144665     3.138846     3.133028
      3.127209     3.121391     3.115572     3.109753     3.103935     3.098116     3.092298     3.086479     3.080660     3.074842
      3.069023     3.063205     3.057386     3.051567     3.045749     3.039930     3.034111     3.028293     3.022474     3.016656
      3.010837     3.005018     2.999200     2.993381     2.987563     2.981744     2.975925     2.970107     2.964288     2.958470
      2.952651     2.946832     2.941014     2.935195     2.929377     2.923558     2.917739     2.911921     2.906102     2.900284
      2.894465     2.888646     2.882828     2.877009     2.871191     2.865372     2.859553     2.853735     2.847916     2.842098
      2.836279     2.830460     2.824642     2.818823     2.813004     2.807186     2.801367     2.795549     2.789730     2.783911
      2.778093     2.772274     2.766456     2.760637     2.754818     2.749000     2.743181     2.737363     2.731544     2.725725
      2.719907     2.714088     2.708270     2.702451     2.696632     2.690814     2.684995     2.679177     2.673358     2.667539
      2.661721     2.655902     2.650084     2.644265     2.638446     2.632628     2.626809     2.620991     2.615172     2.609353
      2.603535     2.597716     2.591897     2.586079     2.580260     2.574442     2.568623     2.562804     2.556986     2.551167
      2.545349     2.539530     2.533711     2.527893     2.522074     2.516256     2.510437     2.504618     2.498800     2.492981
      2.487163     2.481344     2.475525     2.469707     2.463888     2.458070     2.452251     2.446432     2.440614     2.434795
      2.428977     2.423158     2.417339     2.411521     2.405702     2.399884     2.394065     2.388246     2.382428     2.376609
      2.370790     2.364972     2.359153     2.353335     2.347516     2.341697     2.335879     2.330060     2.324242     2.318423
      2.312604     2.306786     2.300967     2.295149     2.289330     2.283511     2.277693     2.271874     2.266056     2.260237
      2.254418     2.248600     2.242781     2.236963     2.231144     2.225325     2.219507     2.213688     2.207870     2.202051
      2.196232     2.190414     2.184595     2.178777     2.172958     2.167139     2.161321     2.155502     2.149683     2.143865
      2.138046     2.132228     2.126409     2.120590     2.114772     2.108953     2.103135     2.097316     2.091497     2.085679
      2.079860     2.074042     2.068223     2.062404     2.056586     2.050767     2.044949     2.039130     2.033311     2.027493
      2.021674     2.015856     2.010037     2.004218     1.998400     1.992581     1.986763     1.980944     1.975126     1.969307
      1.963489     1.957670     1.951852     1.946033     1.940215     1.934397     1.928578     1.922760     1.916941     1.911123
      1.905304     1.899486     1.893667     1.887849     1.882030     1.876212     1.870393     1.864575     1.858756     1.852938
      1.847119     1.841301     1.835482     1.829664     1.823845     1.818027     1.812208     1.806390     1.800571     1.794753
      1.788934     1.783116     1.777297     1.771479     1.765660     1.759842     1.754023     1.748205     1.742386     1.736568
      1.730749     1.724931     1.719113     1.713294     1.707476     1.701657     1.695839     1.690020     1.684202     1.678383
      1.672565     1.666746     1.660928     1.655109     1.649291     1.643472     1.637654     1.631835     1.626017     1.620198
      1.614380     1.608561     1.602743     1.596924     1.591106     1.585287     1.579469     1.573650     1.567832     1.562013
      1.556195     1.550376     1.544558     1.538739     1.532921     1.527102     1.521284     1.515465     1.509647     1.503829
      1.498010     1.492192     1.486373     1.480555     1.474736     1.468918     1.463099     1.457281     1.451462     1.445644
      1.439825     1.434007     1.428188     1.422370     1.416551     1.410733     1.404914     1.399096     1.393277     1.387459
      1.381640     1.375822     1.370003     1.364185     1.358366     1.352548     1.346729     1.340911     1.335092     1.329274
      1.323455     1.317637     1.311818     1.306000     1.300182     1.294363     1.288545     1.282726     1.276908     1.271089
      1.265271     1.259452     1.253634     1.247815     1.241997     1.236178     1.230360     1.224541     1.218723     1.212904
      1.207086     1.201267     1.195449     1.189630     1.183812     1.177993     1.172175     1.166356     1.160538     1.154719
      1.148901     1.143082     1.137264     1.131445     1.125627     1.119808     1.113990     1.108171     1.102353     1.096534
      1.090716     1.084898     1.079079     1.073261     1.067442     1.061624     1.055805     1.049987     1.044168     1.038350
      1.032531     1.026713     1.020894     1.015076     1.009257     1.003439     0.997620     0.991802     0.985983     0.980165
      0.974346     0.968528     0.962709     0.956891     0.951072     0.945254     0.939435     0.933617     0.927798     0.921980
      0.916161     0.910343     0.904524     0.898706     0.892887     0.887069     0.881251     0.875432     0.869614     0.863795
      0.857977     0.852158     0.846340     0.840521     0.834703     0.828884     0.823066     0.817247     0.811429     0.805610
      0.799792     0.793973     0.788155     0.782336     0.776518     0.770699     0.764881     0.759062     0.753244     0.747425
      0.741607     0.735788     0.729970     0.724151     0.718333     0.712514     0.706696     0.700877     0.695059     0.689240
      0.683422     0.677603     0.671785     0.665967     0.660148     0.654330     0.648511     0.642693     0.636874     0.631056
      0.625237     0.619419     0.613600     0.607782     0.601963     0.596145     0.590326     0.584508     0.578689     0.572871
      0.567052     0.561234     0.555415     0.549597     0.543778     0.537960     0.532141     0.526323     0.520504     0.514686
      0.508867     0.503049     0.497230     0.491412     0.485593     0.479775     0.473956     0.468138     0.462319     0.456501
      0.450682     0.444864     0.439045     0.433227     0.427408     0.421590     0.415771     0.409953     0.404134     0.398316
      0.392497     0.386679     0.380860     0.375042     0.369223     0.363405     0.357586     0.351767     0.345949     0.340130
      0.334312     0.328493     0.322675     0.316856     0.311038     0.305219     0.299401     0.293582     0.287764     0.281945
      0.276127     0.270308     0.264490     0.258671     0.252853     0.247034     0.241216     0.235397     0.229579     0.223760
      0.217942     0.212123     0.206305     0.200486
 NY phased data points follow
   1.18539E-02 -4.12066E-02 -2.06455E-01 -2.80556E-01 -3.71788E-01 -1.89389E-01 -3.79063E-01 -5.74267E-01 -3.23496E-02 -1.68229E-01
   2.20718E-01  1.11004E-01  2.43739E-01  4.06393E-01  4.03589E-01  3.64780E-01  2.11679E-01  1.96445E-01 -1.80834E-02  2.10752E-01
   7.67187E-02  5.74391E-03 -2.16783E-01 -4.13878E-02 -1.14549E-02 -2.19415E-01  1.67538E-02  1.65203E-01  1.98105E-01  5.16048E-02
  -7.44988E-02 -8.76058E-02 -1.04781E-01 -2.42959E-01 -3.25751E-01 -4.06637E-01 -1.63409E-01 -2.39262E-01 -2.32189E-01  4.99274E-02
   7.17135E-02  1.02000E-01  2.29557E-01  1.41204E-01  2.39422E-01  2.54348E-01  2.62740E-01  4.98053E-01  3.25410E-01  3.68499E-01
   1.23498E-02  1.39905E-01 -5.98238E-02 -2.93291E-01 -2.02566E-01 -6.91556E-02  2.35409E-01 -2.23457E-01  7.93201E-03 -3.14340E-01
  -3.01318E-01 -4.30007E-02 -1.84966E-01 -1.82238E-01 -3.33920E-01  5.71218E-02 -4.31546E-02 -5.72158E-02  1.33471E-01  2.22842E-01
   2.73362E-01 -6.20814E-02  6.26718E-02  7.37169E-02 -1.18201E-01 -1.26977E-01 -3.53188E-01 -4.25974E-01 -5.05042E-01 -2.00552E-01
  -3.55644E-01 -2.83034E-01 -7.25725E-04  8.23450E-02  4.18575E-01  1.24990E-01  5.17556E-01  4.21392E-01  2.48586E-01  2.13461E-01
   3.11437E-02  3.10756E-01  1.39742E-01  1.16114E-01  7.08079E-02  6.33896E-02  6.11994E-02 -1.77467E-02 -2.29221E-02 -1.80571E-01
  -3.35386E-01 -4.73075E-02  1.31110E-01  6.95403E-02  3.28346E-02  5.01136E-02  6.10893E-02  5.66560E-02  2.05191E-01  1.95555E-01
   2.91116E-01  3.12440E-01  2.87513E-01  5.82916E-01  3.99155E-01  3.94870E-01  9.63430E-01  6.58879E-01  3.04186E-01  2.28368E-01
   3.23632E-01  1.07664E-01  2.84711E-01  1.35761E-01 -2.86210E-01  1.82975E-01 -1.39701E-01 -8.46894E-02 -4.53637E-01 -5.03820E-01
  -3.65303E-01 -3.10741E-01 -4.03053E-01 -5.73202E-01 -3.49154E-01 -7.92415E-01 -6.80434E-01 -7.29712E-01 -5.29709E-01 -4.63235E-01
  -1.22387E-01 -3.85572E-01  7.03715E-02  3.17417E-01 -6.80527E-02  4.70011E-01 -2.08654E-01  2.87232E-01  1.59878E-01  2.70927E-02
   2.02755E-01  6.38869E-02  1.20738E-01  1.90046E-02  1.33693E-01  6.77009E-02  2.45585E-01  8.34510E-02  2.74338E-01  2.18980E-01
   3.76558E-01  5.54784E-01  6.35753E-01  3.79351E-01  4.78953E-01  8.51933E-01  4.70578E-01  7.63794E-02 -4.18414E-01 -4.53517E-01
  -6.26145E-01 -5.41242E-01 -4.35987E-01 -3.52293E-01 -5.14868E-01 -4.57653E-01 -3.67729E-01 -1.58447E-01 -9.86025E-02 -6.74207E-01
  -2.49124E-01 -1.68280E-01 -2.51169E-01 -4.25428E-01 -4.15927E-01 -2.99253E-01 -1.99248E-01 -2.38977E-01 -8.49279E-01 -4.24277E-01
  -1.47281E-02 -3.99767E-01 -3.90892E-01 -2.33499E-01 -2.23039E-01 -2.96844E-01 -3.32428E-01  3.25583E-02 -3.15821E-01 -2.01370E-01
  -1.58756E-02 -2.37693E-01 -1.14114E-01 -3.16969E-01 -5.80362E-02 -8.33974E-02  9.25924E-02  2.44959E-01  2.19169E-01  9.77428E-02
  -1.20134E-01  8.85713E-02  8.81718E-02  1.07831E-01 -4.73781E-02  1.68569E-01 -3.16445E-02 -1.66826E-01  1.13222E-01  1.70714E-01
   3.53294E-01  1.54611E-01  4.52406E-01  4.83256E-01  3.67099E-01  4.15396E-01  1.05079E-01  2.07689E-01  4.59117E-01  4.08813E-01
   1.92130E-01  1.31382E-01  3.33288E-01  1.76498E-01 -2.73062E-01  1.12928E-01 -5.17286E-03 -2.80066E-01 -6.72681E-02  2.95351E-02
  -4.91921E-02 -1.78891E-01 -1.95214E-01 -2.81836E-01  1.99590E-01 -2.31325E-02 -3.51043E-02 -2.05007E-01 -1.75255E-01  3.57050E-01
   5.88589E-04  4.03400E-02  7.76097E-02 -6.69188E-02 -2.57425E-01  1.70930E-01 -4.04474E-02 -2.11533E-01 -7.49734E-02 -2.80180E-02
   1.13795E-01 -1.35565E-01  2.30362E-01  2.53628E-02 -4.72173E-03  2.14428E-01  4.04714E-01  1.94249E-01  1.11400E-01  2.66850E-01
   7.21483E-02  2.79165E-02 -1.76673E-02  2.69125E-01 -1.91903E-01 -8.00769E-02  2.30437E-01 -2.53486E-01 -3.03418E-01 -2.91767E-01
  -2.59413E-01 -2.15752E-01 -3.12516E-01  6.72998E-03  9.83522E-02  1.45544E-01  3.95902E-01  2.42704E-01  3.84686E-01  5.17855E-01
   4.16210E-01  1.52147E-01  3.41015E-01  6.55426E-02  3.44523E-02  2.77568E-01  5.48608E-02  3.71536E-01  1.60137E-01  3.49635E-01
   3.42400E-01  2.56647E-01  3.58686E-01  1.27425E-01  3.24501E-01  6.42445E-02  5.94486E-02  3.62057E-01  3.37495E-02  1.40517E-01
   2.59406E-01 -9.70695E-03  2.99001E-01  4.91297E-01  1.90852E-01 -2.98178E-01 -1.02080E-01  4.24516E-04 -2.64067E-01 -2.33764E-01
  -4.30083E-01 -3.14373E-01 -1.89897E-01 -3.73598E-01 -3.84460E-01 -1.29942E-01 -1.22882E-02 -7.83273E-02 -6.97727E-03  3.14666E-01
   1.96101E-01  2.47717E-01  3.29278E-01 -2.34757E-01 -2.33325E-01 -4.96915E-02 -5.62099E-02 -3.36619E-01 -3.12120E-01 -2.06742E-01
  -8.24106E-01 -1.01647E+00 -1.17933E+00 -1.30947E+00 -6.10215E-01 -7.03366E-01 -7.06242E-01 -1.03266E-01 -1.08571E-01  1.06440E-01
   1.55764E-01  2.80651E-01  1.56526E-01 -9.58229E-02  7.64180E-02  2.70546E-01  2.80405E-01  3.90778E-02  1.70360E-01  1.24138E-01
   1.65397E-01  3.59231E-01  3.56374E-01  1.07522E-01  2.20994E-01  6.06236E-02 -3.23113E-01  1.24460E-01 -1.65826E-01 -2.18847E-01
   3.08873E-02 -2.48397E-02 -6.26972E-02  4.40865E-02  1.23514E-01 -1.99373E-01  1.41535E-01  2.35928E-01  8.24926E-02  1.31164E-02
   4.95978E-02  8.82089E-02  2.39151E-02  3.50002E-01  1.40798E-01 -2.15717E-02  9.16440E-02 -3.20077E-02  4.55916E-02  3.34069E-01
   4.15231E-01  1.35386E-01  3.41866E-01  5.33656E-01  2.73449E-01  2.86712E-01  1.61615E-01  2.30325E-01  4.55803E-02  2.09352E-01
   2.88923E-01  9.56798E-02  2.68516E-01 -2.37817E-01  1.02945E-01 -1.57422E-01 -2.53775E-02  8.00540E-02 -2.57697E-01  2.14086E-01
   1.43650E-02  4.17306E-02 -5.65552E-01 -1.11115E-01 -4.49720E-02 -3.57315E-01  1.26057E-01 -1.31025E-01 -2.63113E-01  2.16876E-02
   7.64174E-02 -2.91743E-01  2.49091E-02 -3.05088E-01 -1.17520E-01 -1.15361E-01 -1.46325E-01  1.40988E-01 -2.31530E-01 -1.57173E-01
   1.51522E-02 -1.77278E-01 -4.52079E-01  2.98726E-01  1.23151E-01  2.10098E-01  2.61654E-01 -1.13238E-01 -7.25007E-02 -6.85909E-02
   2.03079E-01 -2.40718E-01 -2.58332E-01 -7.95355E-02 -5.07236E-02 -8.38064E-02  7.25313E-02  2.11380E-01  1.35837E-01 -1.01756E-01
   2.35683E-01  5.46963E-02 -1.70735E-01  3.82301E-01 -8.86372E-02  1.69404E-01  1.26966E-01 -7.23399E-03  3.24380E-01  2.83339E-01
  -3.92874E-02 -5.82123E-02  2.87778E-02 -1.40555E-01  1.02984E-01 -9.21280E-02  5.79169E-02 -2.46983E-01 -4.46897E-01 -4.52768E-01
  -4.66224E-01  5.10536E-02 -8.88784E-02 -5.60629E-02 -1.13697E-01 -8.70169E-02  9.21143E-02 -2.08515E-01 -1.04617E-01 -2.84783E-03
  -8.71758E-02  6.30634E-02 -5.99694E-02 -9.84829E-03 -2.77288E-02  1.05081E-01  4.25313E-01  2.27858E-01  1.22510E-01  2.55081E-01
   3.74341E-01  1.71594E-01  5.02615E-02  8.14281E-02  6.17213E-02 -3.00778E-02  2.19060E-02  1.81410E-01  3.14421E-02 -5.64225E-02
  -1.55994E-01 -8.90913E-02  4.11570E-02  1.79606E-02  9.60157E-03 -7.50953E-02  1.25855E-02 -5.08127E-02 -3.01716E-02  8.23183E-02
   2.37987E-01  3.55407E-01  7.64016E-02  1.40347E-01  1.65993E-02 -5.13008E-02  4.00600E-02 -1.00003E-01 -3.84154E-02  4.67060E-02
   1.46718E-01  5.69408E-02 -1.98029E-01 -1.62770E-01 -1.68026E-01 -3.93785E-01 -4.09226E-02 -2.69854E-01 -7.95565E-01 -2.71162E-01
  -1.85901E-01 -7.05103E-01 -1.07093E-01  1.24429E-01 -5.10940E-01 -1.94335E-01 -5.55161E-02  1.28825E-01  5.62677E-03 -3.31731E-01
  -2.19872E-01 -1.46270E-01  1.08022E-01  8.51406E-02  2.15016E-01  2.20029E-01  1.31558E-01  3.37589E-01  1.18412E-01 -6.45475E-02
   2.67867E-01  1.61763E-01  1.38220E-01  1.39684E-01  1.86026E-02  2.72262E-01  2.73753E-01  3.47387E-01  1.32451E-01  2.00337E-01
   3.94888E-01  4.13723E-02  9.70385E-02  1.51109E-01  5.10884E-02 -1.88365E-01 -3.27273E-02  2.68871E-01  4.83850E-02  8.64135E-02
  -1.12440E-01  2.13829E-01  3.16813E-01  5.22591E-02  1.31729E-01 -1.31083E-01  2.46053E-01  1.11706E-01  1.15578E-01  1.47631E-01
  -1.05327E-01  1.03391E-01  6.14600E-02 -1.61704E-01 -1.92327E-01  1.84591E-01  5.95460E-02  5.30230E-02  6.77439E-02  9.11959E-02
   7.10175E-02 -2.53859E-02 -2.19226E-01 -2.21759E-01 -1.05959E-02  3.33093E-02  9.54879E-02 -4.44208E-01 -9.36237E-02 -3.35636E-02
  -9.95628E-02 -9.35475E-02 -2.89558E-01  1.73604E-02 -2.25947E-01  1.82923E-01  3.04289E-01 -1.07278E-01  4.49039E-02  1.43703E-01
  -1.00858E-01  4.44219E-02 -6.35287E-02 -2.38569E-01 -2.23710E-02 -1.53473E-02  1.85099E-01  1.20260E-01  1.17870E-01  4.47609E-02
  -3.77531E-02 -2.26958E-01 -1.00271E-01  6.49750E-02  3.72485E-02  2.71912E-01  2.39770E-01  2.43489E-01  6.68800E-03  2.11588E-01
   1.08129E-02 -1.82069E-02 -7.00105E-02 -2.29546E-01  2.90665E-01 -9.11360E-02 -6.78588E-02 -5.49536E-02  6.37284E-04  1.57633E-01
   6.87004E-02 -2.03610E-01 -2.24710E-01  7.34458E-02 -1.47969E-01  5.96606E-02  1.76931E-01  2.07323E-01 -4.20211E-02  1.45500E-01
  -7.89226E-02 -9.08111E-02  2.36154E-01 -1.98945E-01
 NY points of the fit to the data follow
   3.49044E-02  1.90409E-02  1.45034E-03 -1.51288E-02 -2.72686E-02 -3.52279E-02 -3.48595E-02 -1.43532E-02 -1.01042E-04  2.49328E-02
   1.20625E-01  2.14238E-01  2.71937E-01  3.54028E-01  4.27912E-01  4.50749E-01  4.09136E-01  3.04761E-01  2.11623E-01  1.32912E-01
   6.58921E-02  1.61603E-02 -2.97099E-02 -4.06336E-02 -6.11485E-02 -7.91082E-02 -9.37653E-02 -1.06286E-01 -1.17909E-01 -1.28965E-01
  -1.41617E-01 -1.58817E-01 -1.82616E-01 -2.09103E-01 -2.31951E-01 -2.46640E-01 -2.52368E-01 -2.34609E-01 -1.72590E-01 -7.99206E-02
   1.77002E-02  1.09362E-01  1.84360E-01  2.48961E-01  3.01052E-01  3.17557E-01  3.05530E-01  2.78030E-01  2.38066E-01  1.95503E-01
   1.47670E-01  1.03159E-01  6.16130E-02  1.81733E-02 -2.59706E-02 -7.44515E-02 -1.26786E-01 -1.82541E-01 -2.23564E-01 -2.63946E-01
  -3.02664E-01 -2.85655E-01 -2.58003E-01 -2.37002E-01 -1.64628E-01 -6.71755E-02  3.99015E-02  1.56942E-01  2.40962E-01  3.02951E-01
   3.15938E-01  2.83363E-01  2.29585E-01  1.44787E-01  5.31151E-02 -4.85554E-02 -1.26769E-01 -2.38638E-01 -3.58199E-01 -3.78638E-01
  -3.18122E-01 -2.14063E-01 -7.26632E-02  8.14128E-02  2.35299E-01  3.39123E-01  3.73711E-01  3.65705E-01  3.34129E-01  3.06123E-01
   2.64009E-01  2.21606E-01  1.81899E-01  1.42541E-01  8.27407E-02  1.37996E-02 -6.08427E-02 -1.44946E-01 -1.98788E-01 -2.02612E-01
  -1.58324E-01 -6.08989E-02  4.71851E-02  1.39660E-01  2.18375E-01  2.48944E-01  2.79141E-01  2.71970E-01  2.76431E-01  2.69607E-01
   2.70010E-01  2.70549E-01  2.71240E-01  2.71480E-01  2.72717E-01  2.74456E-01  2.75886E-01  2.65854E-01  2.59272E-01  2.51777E-01
   2.04605E-01  1.53473E-01  1.04480E-01  3.15715E-02 -4.67243E-02 -1.18293E-01 -1.89193E-01 -2.52485E-01 -3.13352E-01 -3.38224E-01
  -3.95176E-01 -4.00830E-01 -3.37230E-01 -4.10825E-01 -5.80047E-01 -7.23231E-01 -7.46165E-01 -6.42903E-01 -5.00362E-01 -3.75930E-01
  -2.24361E-01 -1.19847E-01 -2.32832E-02 -8.82521E-03  1.05615E-02  3.22586E-02  5.24070E-02  7.06713E-02  8.74931E-02  1.03455E-01
   1.18851E-01  1.34151E-01  1.49875E-01  1.66562E-01  1.84544E-01  2.04832E-01  2.27869E-01  2.54318E-01  2.86529E-01  3.28728E-01
   3.89424E-01  4.84985E-01  5.28366E-01  5.39316E-01  6.06366E-01  5.88623E-01  3.53777E-01 -3.59228E-03 -3.35084E-01 -5.18932E-01
  -5.75248E-01 -5.83138E-01 -5.22671E-01 -4.45917E-01 -3.41565E-01 -2.90212E-01 -2.68663E-01 -2.55390E-01 -2.41531E-01 -2.27487E-01
  -2.12077E-01 -2.00012E-01 -1.91254E-01 -1.87747E-01 -1.83788E-01 -1.80848E-01 -1.77404E-01 -1.73178E-01 -1.69438E-01 -1.61798E-01
  -1.55342E-01 -1.45913E-01 -1.38364E-01 -1.29840E-01 -1.22259E-01 -1.14186E-01 -1.06368E-01 -9.86051E-02 -9.15633E-02 -8.44102E-02
  -7.64690E-02 -6.88352E-02 -6.39329E-02 -6.30694E-02 -6.28659E-02 -6.00776E-02 -5.69319E-02 -5.73102E-02 -6.20989E-02 -6.77179E-02
  -7.17200E-02 -7.37866E-02 -7.43426E-02 -7.37289E-02 -7.09782E-02 -6.65866E-02 -6.33027E-02 -6.23526E-02 -6.13359E-02 -4.98481E-02
  -3.09015E-02 -1.44121E-02  1.47619E-02  6.63054E-02  1.29579E-01  1.76292E-01  1.82589E-01  1.89679E-01  2.27374E-01  2.54901E-01
   2.44742E-01  1.93517E-01  1.28984E-01  7.30039E-02  1.89038E-02 -2.69918E-02 -5.80695E-02 -7.35059E-02 -7.75526E-02 -8.59470E-02
  -9.33542E-02 -1.00191E-01 -1.05145E-01 -1.10108E-01 -1.13995E-01 -1.17395E-01 -1.21341E-01 -1.23908E-01 -1.27116E-01 -1.32342E-01
  -1.41443E-01 -1.43124E-01 -1.47827E-01 -1.63439E-01 -1.45900E-01 -1.04290E-01 -7.24653E-02 -3.90349E-02 -5.07265E-03  3.80136E-02
   6.82893E-02  7.08352E-02  7.95214E-02  8.42070E-02  9.95337E-02  1.13772E-01  1.19692E-01  1.44784E-01  1.57555E-01  1.63593E-01
   1.53461E-01  1.26506E-01  1.00173E-01  5.80992E-02  2.19354E-02 -2.32215E-02 -7.07288E-02 -1.19594E-01 -1.70717E-01 -2.26080E-01
  -2.67822E-01 -2.90596E-01 -2.76509E-01 -2.02879E-01 -9.31305E-02  3.88884E-02  1.70613E-01  2.65008E-01  3.20496E-01  3.26010E-01
   3.03778E-01  2.72215E-01  2.35955E-01  2.17149E-01  2.03889E-01  2.03453E-01  2.09296E-01  2.11313E-01  2.13391E-01  2.10111E-01
   2.05263E-01  1.98859E-01  1.91424E-01  1.84271E-01  1.76151E-01  1.68034E-01  1.57346E-01  1.45555E-01  1.31376E-01  1.14181E-01
   9.67094E-02  7.55056E-02  5.02996E-02  2.03456E-02 -1.71190E-02 -6.39781E-02 -1.18970E-01 -1.75530E-01 -2.28257E-01 -2.71683E-01
  -2.97795E-01 -3.03876E-01 -2.87008E-01 -2.49405E-01 -1.96852E-01 -1.31150E-01 -6.32507E-02 -2.54071E-04  4.18075E-02  6.35035E-02
   5.85150E-02  3.01030E-02 -1.53632E-03 -3.76031E-02 -7.07644E-02 -9.44661E-02 -1.54115E-01 -2.57949E-01 -3.14278E-01 -4.36810E-01
  -7.58281E-01 -1.09376E+00 -1.23526E+00 -1.14660E+00 -9.05723E-01 -6.73314E-01 -4.47778E-01 -2.47744E-01 -1.15678E-01 -4.99969E-02
  -5.92961E-02 -4.51742E-02 -3.08036E-02 -1.81357E-02 -7.57376E-03  8.88732E-05  5.93255E-03  7.60267E-03  5.53701E-03  3.04015E-04
  -8.53716E-03 -1.87184E-02 -2.77782E-02 -3.47697E-02 -3.63711E-02 -3.36503E-02 -2.75483E-02 -1.79266E-02 -9.52669E-03  5.87532E-04
   8.03978E-03  1.59207E-02  2.16324E-02  2.67592E-02  3.09392E-02  3.47772E-02  3.85206E-02  4.19420E-02  4.50855E-02  4.79786E-02
   5.07800E-02  5.35256E-02  5.61646E-02  5.88087E-02  6.09805E-02  6.29976E-02  6.49683E-02  6.72113E-02  6.95584E-02  7.21677E-02
   7.44890E-02  7.64432E-02  7.75623E-02  7.76957E-02  7.72345E-02  7.61834E-02  7.50294E-02  7.33290E-02  7.10631E-02  6.82326E-02
   6.50990E-02  6.14350E-02  5.72474E-02  5.28653E-02  4.88064E-02  4.49008E-02  4.10781E-02  3.73546E-02  3.37708E-02  3.04622E-02
   2.76047E-02  2.47655E-02  2.22920E-02  1.99605E-02  1.77615E-02  1.56854E-02  1.35442E-02  1.17616E-02  1.02750E-02  8.89274E-03
   7.77721E-03  7.21161E-03  7.15886E-03  7.75470E-03  8.92166E-03  1.06304E-02  1.27410E-02  1.53920E-02  1.86636E-02  2.17581E-02
   2.45363E-02  2.77741E-02  3.15918E-02  3.61215E-02  4.09341E-02  4.52759E-02  4.89165E-02  5.23858E-02  5.62905E-02  6.11031E-02
   6.68334E-02  7.36562E-02  8.10013E-02  8.87405E-02  9.66961E-02  1.04245E-01  1.11250E-01  1.17234E-01  1.21963E-01  1.25460E-01
   1.27756E-01  1.29022E-01  1.29222E-01  1.28516E-01  1.26882E-01  1.23928E-01  1.19581E-01  1.14154E-01  1.08219E-01  1.01984E-01
   9.59090E-02  8.97065E-02  8.34769E-02  7.74772E-02  7.20308E-02  6.68574E-02  6.20479E-02  5.74755E-02  5.34036E-02  4.98948E-02
   4.68392E-02  4.40704E-02  4.18420E-02  4.07944E-02  4.05417E-02  4.10544E-02  4.22687E-02  4.41397E-02  4.65150E-02  4.93048E-02
   5.24595E-02  5.57884E-02  5.89462E-02  6.19020E-02  6.44723E-02  6.65306E-02  6.82275E-02  6.99508E-02  7.16972E-02  7.32657E-02
   7.43105E-02  7.45036E-02  7.43155E-02  7.36995E-02  7.24123E-02  7.06944E-02  6.87737E-02  6.70210E-02  6.52917E-02  6.33555E-02
   6.14167E-02  5.92488E-02  5.72471E-02  5.51440E-02  5.27908E-02  5.04213E-02  4.83209E-02  4.66127E-02  4.48768E-02  4.29372E-02
   4.08253E-02  3.84384E-02  3.54929E-02  3.18283E-02  2.74435E-02  2.26496E-02  1.72907E-02  1.10885E-02  3.73981E-03 -5.08821E-03
  -1.50638E-02 -2.56508E-02 -3.66826E-02 -4.78708E-02 -5.89377E-02 -6.93237E-02 -7.86444E-02 -8.73418E-02 -9.50993E-02 -1.01280E-01
  -1.05322E-01 -1.07837E-01 -1.08979E-01 -1.08770E-01 -1.07061E-01 -1.04290E-01 -1.00930E-01 -9.73540E-02 -9.38064E-02 -9.00284E-02
  -8.58115E-02 -8.12662E-02 -7.62466E-02 -7.06230E-02 -6.45167E-02 -5.81076E-02 -5.15836E-02 -4.49624E-02 -3.86803E-02 -3.26579E-02
  -2.65787E-02 -2.06910E-02 -1.50639E-02 -1.01768E-02 -5.67358E-03 -8.28472E-04  3.52695E-03  7.22457E-03  1.04709E-02  1.34337E-02
   1.63018E-02  1.88690E-02  2.08322E-02  2.25057E-02  2.39800E-02  2.54464E-02  2.65309E-02  2.71820E-02  2.81128E-02  2.91797E-02
   3.03561E-02  3.16966E-02  3.31155E-02  3.44372E-02  3.53584E-02  3.60518E-02  3.63930E-02  3.64153E-02  3.65382E-02  3.64646E-02
   3.62790E-02  3.61896E-02  3.61386E-02  3.62593E-02  3.63046E-02  3.62246E-02  3.64903E-02  3.68502E-02  3.64704E-02  3.53961E-02
   3.43682E-02  3.39481E-02  3.36872E-02  3.31761E-02  3.28789E-02  3.28552E-02  3.26315E-02  3.20038E-02  3.12705E-02  3.10516E-02
   3.12922E-02  3.15402E-02  3.18052E-02  3.20346E-02  3.26261E-02  3.31689E-02  3.34722E-02  3.36128E-02  3.38016E-02  3.39990E-02
   3.37025E-02  3.30626E-02  3.24400E-02  3.20258E-02  3.19057E-02  3.19555E-02  3.21579E-02  3.26841E-02  3.29057E-02  3.31658E-02
   3.34651E-02  3.40371E-02  3.47678E-02  3.51826E-02  3.50342E-02  3.44369E-02  3.35987E-02  3.30767E-02  3.27531E-02  3.22886E-02
   3.17870E-02  3.10280E-02  3.02650E-02  2.97899E-02  2.93336E-02  2.85491E-02  2.77553E-02  2.74181E-02  2.72494E-02  2.69557E-02
   2.63853E-02  2.57362E-02  2.53783E-02  2.50577E-02  2.45730E-02  2.43304E-02  2.46490E-02  2.53731E-02  2.59006E-02  2.62107E-02
   2.63572E-02  2.60640E-02  2.58236E-02  2.56577E-02
 NY background values follow
     3.055E-02    3.051E-02    3.046E-02    3.042E-02    3.037E-02    3.033E-02    3.028E-02    3.024E-02    3.019E-02    3.015E-02
     3.010E-02    3.006E-02    3.001E-02    2.997E-02    2.992E-02    2.988E-02    2.983E-02    2.979E-02    2.974E-02    2.970E-02
     2.965E-02    2.961E-02    2.956E-02    2.952E-02    2.947E-02    2.943E-02    2.938E-02    2.934E-02    2.929E-02    2.925E-02
     2.920E-02    2.916E-02    2.911E-02    2.907E-02    2.902E-02    2.898E-02    2.893E-02    2.889E-02    2.884E-02    2.880E-02
     2.875E-02    2.871E-02    2.866E-02    2.862E-02    2.857E-02    2.853E-02    2.848E-02    2.844E-02    2.839E-02    2.835E-02
     2.830E-02    2.826E-02    2.821E-02    2.817E-02    2.812E-02    2.808E-02    2.803E-02    2.799E-02    2.794E-02    2.790E-02
     2.785E-02    2.781E-02    2.776E-02    2.772E-02    2.767E-02    2.763E-02    2.758E-02    2.754E-02    2.749E-02    2.745E-02
