 
 $NMID
 ID=''
 FMTDAT='(2E13.5)'
 TRAMP=   1.00000E+0
 VOLUME=   1.00000E+0
 $END
   2.38099E+2  -7.25000E+2
   9.23075E+2  -1.84405E+2
  -1.91949E+3  -3.08854E+3
  -1.77836E+3   1.98041E+3
  -1.27846E+3   2.44916E+3
   1.40991E+3   1.54601E+3
  -5.80625E+2   1.09951E+3
   1.19830E+3   2.65657E+3
   2.46093E+3   3.21399E+2
   2.13016E+3  -1.78178E+3
   1.48191E+3  -2.13444E+3
   4.55759E+2  -4.56712E+3
   1.42346E+3  -6.99601E+2
  -6.35058E+2   1.42400E+3
  -4.37351E+3   2.05193E+3
  -2.92383E+3  -7.83377E+2
  -5.95100E+2  -1.38930E+3
   2.34765E+3   1.27986E+3
  -1.04491E+3   6.04946E+1
  -2.35859E+3   5.73344E+2
   1.17377E+3  -3.26892E+3
   4.62081E+3   2.53694E+2
   1.69613E+2   6.43271E+3
  -7.50181E+3   2.25451E+3
  -1.76011E+3  -2.15347E+3
   1.98822E+3  -8.49665E+1
   1.53029E+3   1.47453E+3
  -2.51648E+3   3.61730E+3
  -2.63338E+3  -1.04771E+3
   1.06464E+0  -3.40960E+3
   7.38934E+3   9.96265E+2
   4.36005E+3   7.53190E+3
  -1.01290E+3   4.22583E+3
  -4.37386E+1  -4.02882E+2
   1.28961E+3   7.66938E+2
  -1.95628E+3   4.69513E+2
  -4.12468E+3  -4.52172E+3
   2.96391E+3  -5.83834E+3
   1.82317E+3  -2.58767E+3
   4.02296E+2  -1.09003E+3
   1.87093E+3  -6.14923E+2
   1.06099E+3   3.99983E+3
  -3.81905E+3   2.13465E+3
  -3.41633E+3  -1.89322E+3
   2.51688E+2  -2.94930E+3
   9.70149E+2  -2.81502E+3
  -3.62967E+2  -2.33619E+3
   1.39018E+3   1.38811E+2
   9.30372E+2   2.44328E+3
   2.16784E+2   6.62031E+2
  -3.07194E+3   2.15120E+2
  -4.15287E+3  -1.95550E+3
   1.00016E+1  -2.93964E+3
   6.67327E+2  -5.54490E+3
   2.46644E+3  -3.14065E+3
   3.89112E+3  -2.01022E+3
   2.53373E+3   1.19494E+3
  -1.23809E+3   2.33021E+3
  -2.82478E+3   3.34598E+3
  -2.40282E+3   3.54132E+2
   1.75684E+3  -2.46996E+2
   2.09925E+3  -2.85773E+3
   1.97882E+3   1.56759E+3
   1.13762E+2   2.02921E+3
  -3.59200E+3   7.84667E+2
   1.19822E+3  -2.65827E+3
   2.65176E+3   1.63502E+2
   2.02136E+3   1.09175E+3
   9.79492E+2   2.63545E+3
  -2.21497E+3   2.22445E+3
  -1.63919E+3   1.82367E+3
  -1.42244E+3   4.99008E+2
  -8.10659E+2   6.78391E+2
   2.29825E+2   1.31770E+3
  -8.96261E+2   6.21544E+1
   1.91006E+2   5.41035E+1
  -1.35812E+3  -2.71197E+2
  -3.88171E+3   1.75067E+3
  -2.25603E+3  -1.19509E+3
  -1.93494E+3  -1.73286E+3
  -1.69975E+3  -1.78232E+3
   6.99151E+1  -4.39220E+2
  -7.12473E+2  -1.01271E+3
   1.51975E+3  -1.82908E+3
   3.93216E+3  -3.05917E+1
  -5.72600E+2   2.11632E+3
  -3.10711E+3   1.46589E+2
  -2.45164E+3  -7.75943E+2
   1.10760E+2  -4.14187E+2
   1.37613E+3  -8.35272E+2
  -3.89291E+2   2.38794E+2
  -1.28170E+3   6.99856E+2
   6.61186E+2  -8.06030E+2
   2.09887E+3   5.59278E+2
   5.10898E+1   2.91835E+3
  -2.82007E+3   1.11244E+3
   3.23986E+2  -1.72328E+3
  -2.64455E+2  -1.09258E+3
   5.10591E+2   3.06258E+3
  -6.28305E+2   2.65479E+3
  -3.66794E+3   1.61420E+3
  -1.77708E+3  -2.49954E+3
  -1.17401E+3  -2.05831E+3
   2.79179E+3  -1.11777E+3
   7.37787E+2   2.33704E+2
   2.00732E+3  -1.37665E+3
   1.50449E+3   9.33896E+2
   2.64556E+3   1.12985E+3
  -1.31387E+3   2.21444E+2
  -2.91396E+3   2.24895E+3
  -6.87596E+2  -8.83646E+2
   1.11037E+3  -2.09381E+3
   1.80500E+3   4.89275E+2
   9.84976E+2   2.79753E+2
   2.80721E+2  -1.82289E+3
   3.33567E+3   1.03216E+3
   1.79358E+3   9.45538E+2
   1.00757E+3  -1.24124E+3
  -1.25459E+3  -3.55457E+2
  -1.06324E+2  -1.45954E+3
   9.65288E+2  -2.39209E+3
   3.14855E+3  -6.58147E+2
   2.37019E+3  -8.34611E+2
   3.41772E+2   9.58918E+2
   1.98593E+3  -1.28945E+3
  -3.61488E+2  -9.57428E+2
   6.45493E+1   9.57789E+2
   1.67642E+3  -1.12787E+3
   2.65255E+3  -5.91995E+2
   2.69731E+3  -8.84049E+1
   3.01274E+3   1.59015E+3
  -2.12009E+2   2.79988E+3
  -1.87630E+3   1.79661E+3
  -1.60024E+3  -1.29581E+3
   1.65852E+3  -1.16801E+3
  -1.33665E+2   9.07152E+1
   2.16214E+3   7.89766E+2
  -5.69450E+1  -3.47976E+1
   1.92217E+3   2.42770E+3
  -1.64472E+3   1.20337E+3
  -3.32186E+2   2.88230E+3
  -3.12805E+3   8.10271E+2
  -2.83772E+3  -6.20787E+2
   3.09622E+2   6.88414E+2
   1.65830E+3   6.50627E+2
  -8.27103E+2   3.53386E+2
   4.92873E+2   1.66969E+3
   5.93174E+2   1.78267E+2
  -1.53213E+2  -1.71751E+3
   1.39429E+3  -5.96080E+2
   9.89769E+2   9.44241E+2
  -1.32320E+3  -3.75149E+2
   8.74891E+1   5.09225E+2
  -1.33031E+3   1.41242E+2
  -7.00495E+2   1.95890E+3
  -9.11890E+2   1.62132E+2
   2.97470E+2   2.32335E+2
  -7.23726E+2  -1.34599E+2
   1.50272E+2  -8.76735E+1
  -7.21015E+2   4.08136E+2
   2.21678E+3  -5.58684E+2
   6.82530E+1  -2.84818E+3
   1.61591E+3  -1.43361E+3
  -1.46680E+3   3.18145E+2
   1.12431E+3  -1.54914E+2
  -7.39732E+2  -3.20518E+2
   9.07691E+2   4.92017E+2
  -5.22303E+2   7.68560E+1
  -1.51287E+3   5.89672E+2
  -1.90258E+3  -8.18926E+2
  -9.02760E+2  -1.56519E+3
  -9.18209E+2   5.38902E+0
  -2.82933E+2  -1.16372E+3
  -5.53708E+2   1.83642E+3
  -7.06386E+2   2.11209E+1
   6.06871E+2   8.76503E+2
  -1.69787E+3   3.32453E+3
   2.21037E+2   2.79527E+2
  -2.19832E+2  -1.00342E+3
  -1.27471E+3  -3.27324E+3
  -1.77306E+3  -1.29242E+3
   1.38831E+2  -5.62366E+2
  -9.81556E+2  -7.84136E+2
   1.24418E+3  -3.88529E+2
   6.06156E+2   1.19421E+3
  -4.21173E+2   1.53276E+3
  -3.79069E+1   4.08623E+2
  -8.28497E+2   5.94437E+2
  -3.25580E+2   2.38633E+2
  -1.39291E+3   6.28839E+2
  -2.45421E+3  -3.45863E+2
  -2.56224E+3  -2.05035E+3
   3.08176E+2  -8.70353E+2
  -6.65452E+2   3.77629E+2
  -1.68166E+3   1.01005E+3
   1.72529E+3  -1.57336E+2
   7.24403E+2   2.30549E+3
   1.84916E+1   2.02912E+3
  -8.53136E+2   1.62839E+3
  -5.72481E+2  -9.72230E+2
   5.33002E+1  -8.90395E+2
   3.36160E+2  -8.97732E+2
   1.22269E+3   9.28224E+2
   1.02637E+3   7.33589E+2
   3.02810E+2   8.37798E+1
  -8.10027E+2  -1.96402E+2
  -4.82287E+2  -1.54236E+3
   8.41226E+2   1.67882E+3
   5.67557E+2  -3.49611E+2
  -1.44127E+3   3.14062E+2
  -1.24765E+2   5.30320E+1
   6.65624E+2   2.50470E+3
   4.33624E+2  -2.90212E+2
  -1.21936E+3  -1.35337E+3
   5.18777E+2  -2.16658E+3
   1.26570E+3  -8.03600E+2
   8.55780E+2   2.99468E+2
  -1.77595E+3   5.43679E+2
  -6.30129E+1  -3.43526E+2
   2.36015E+3   9.68806E+2
   8.20635E+2  -8.24895E+2
  -2.72898E+3   1.49676E+3
   7.80999E+0  -8.62297E+2
   1.72945E+0  -4.34276E+1
  -9.12328E+2  -2.16473E+3
  -5.61637E+2  -7.33553E+2
   4.96332E+2  -7.44316E+2
  -5.88132E+2  -1.58789E+2
  -2.26578E+2   6.79768E+2
  -5.45047E+2   1.91358E+3
   1.26415E+3   2.70050E+3
  -3.06467E+2  -4.04652E+2
   1.36262E+3   4.44120E+1
  -6.14836E+2  -9.00656E+2
  -1.82635E+3  -1.34097E+3
  -3.22849E+3  -1.85448E+2
   1.95617E+3  -1.45576E+3
   9.09352E+2  -2.56489E+3
   4.55061E+2  -1.69440E+2
   1.15186E+3   1.75883E+3
   1.06556E+3  -2.04016E+3
   2.01549E+3  -2.91127E+2
  -9.93019E+2   1.48301E+3
  -4.27999E+2  -1.68351E+2
   9.83493E+2  -1.68215E+3
   1.82288E+3  -2.51514E+2
  -5.90860E+2   2.99645E+2
  -5.85772E+2  -2.01478E+3
   5.73281E+2   5.86101E+2
  -1.17496E+3  -2.27875E+3
   1.64972E+3  -1.56903E+3
   1.08036E+3   1.13342E+3
   7.31128E+2  -2.49500E+3
   5.96955E+1   3.62355E+2
   9.31673E+2   2.01949E+3
   4.72178E+2   7.27051E+2
   5.29987E+2   1.73226E+2
   7.31623E+2  -2.43873E+3
  -6.29877E+2   1.55552E+3
   3.31762E+2  -1.46226E+3
   6.82707E+2  -9.74891E+2
   2.84049E+3   1.15841E+3
  -9.82862E+2   1.99601E+3
  -2.00045E+2  -2.13565E+2
   7.66854E+2  -2.56458E+2
  -2.14315E+2   4.00709E+1
  -1.08460E+3   1.12271E+3
  -1.24936E+3  -7.65761E+2
  -3.16389E+2   3.93570E+2
  -2.54196E+2  -8.35798E+2
  -5.53697E+2   2.51055E+2
  -1.66160E+2  -5.58848E+2
   3.71837E+2   5.76479E+1
   9.25364E+2  -1.25405E+3
   2.22995E+1  -2.53454E+2
  -1.73668E+3  -4.90579E+2
  -8.77780E+2   1.35672E+3
   4.10583E+2   9.49829E+2
   1.42455E+3   4.05883E+2
  -1.78986E+3   1.18903E+3
   4.51350E+2   1.32792E+3
  -1.57396E+3   4.11118E+2
  -4.52136E+2  -3.99729E+1
  -5.17515E+2  -5.84475E+2
   3.27788E+2  -1.73001E+3
   1.03541E+2  -1.94629E+3
   3.09874E+3  -6.06826E+2
   1.41525E+3  -4.19989E+2
   9.05816E+2   1.59967E+3
   2.89933E+2  -5.81959E+2
  -1.21250E+2   3.52565E+1
  -9.29505E+2   1.53509E+3
  -2.31043E+3   5.45411E+2
  -4.35541E+2   4.17552E+2
   3.13400E+2   1.03541E+3
  -8.31718E+1   6.80636E+1
   9.84065E+2   3.36562E+1
  -3.40137E+2   4.81429E+2
  -5.01334E+2  -5.85691E+2
   4.39161E+2   6.17591E+2
  -9.57379E+2  -8.12230E+2
   1.57339E+3  -9.55100E+2
   1.00365E+3  -9.16132E+2
   4.77995E+2   6.34377E+2
   1.94985E+2   1.46138E+3
   3.72306E+2   2.43919E+3
   3.82621E+2   3.10469E+2
  -3.80821E+2   3.98979E+1
   1.00626E+3  -1.84425E+2
   3.55480E+2  -6.27988E+1
   6.58142E+2   1.14810E+3
  -3.08677E+2   2.48569E+3
   1.09482E+3   2.27648E+2
  -1.00461E+3   1.06320E+3
   2.04137E+2   1.51348E+3
   8.51120E+1  -1.86474E+3
  -2.97192E+2  -2.50623E+2
   2.59735E+3   1.02043E+3
   8.87990E+2  -6.00952E+1
   6.12411E+2   5.79219E+2
  -8.56670E+2  -8.20919E+2
  -1.53084E+3   2.28877E+2
  -7.97434E+2   8.55604E+2
   5.87890E+2  -2.85281E+2
   2.16754E+3   3.18526E+2
   2.91792E+2  -1.39637E+3
  -1.85788E+3   8.80306E+2
  -2.09072E+2  -9.16133E+2
   8.37360E+2   9.91623E+1
   1.19162E+2  -3.29416E+2
  -9.82880E+2  -1.11822E+3
  -2.44386E+2   4.17721E+2
   1.82807E+3  -8.88220E+1
   8.42793E+2  -7.91336E+2
  -1.81273E+3  -1.05450E+3
   2.78100E+2   3.17418E+2
  -3.86075E+2   8.69351E+2
   1.53789E+3   6.73009E+2
  -3.41402E+2  -4.73595E+2
  -1.29662E+3  -4.01237E+2
   2.29736E+2  -4.19733E+2
  -4.00619E+2   1.86620E+2
   2.08790E+3   1.61017E+2
   6.67768E+2  -2.12215E+1
  -1.46792E+3  -1.76351E+3
   1.04317E+3  -8.32089E+2
  -3.07851E+2   2.35094E+3
  -1.62965E+2   9.26812E+2
  -2.67823E+2  -8.81784E+2
   7.24662E+2  -5.29347E+2
  -8.24245E+2   5.16048E+2
  -1.45805E+3  -1.94107E+3
   3.20339E+2   2.27228E+2
   3.99062E+2   1.25555E+3
   2.52372E+3   1.33900E+2
  -1.21217E+3   8.31228E+2
  -1.15724E+3  -6.74354E+2
  -2.63787E+2  -7.93245E+2
  -2.08244E+2  -2.48621E+2
   1.87903E+3  -9.92263E+1
  -2.33239E+3  -1.34193E+3
   3.57811E+2  -5.47840E+1
  -7.20097E+2  -1.84063E+3
   9.84645E+2   2.11920E+2
  -2.77846E+2   5.48595E+2
   8.67799E+2  -2.04105E+3
  -4.93133E+2   1.40219E+3
