 
 $NMID
 ID=''
 FMTDAT='(2E13.5)'
 TRAMP=   1.00000E+0
 VOLUME=   1.00000E+0
 $END
  -1.81770E+4   1.00090E+4
  -5.25679E+4   1.08106E+4
  -4.99788E+4   1.86009E+4
  -4.65514E+4   1.58104E+4
  -4.92550E+4   1.39617E+4
  -4.86383E+4   1.49325E+4
  -4.72545E+4   1.25554E+4
  -4.84627E+4   1.07964E+4
  -4.80398E+4   1.08834E+4
  -4.70069E+4   8.88284E+3
  -4.75838E+4   7.30690E+3
  -4.70878E+4   7.22485E+3
  -4.61763E+4   5.69972E+3
  -4.65382E+4   4.13252E+3
  -4.60454E+4   3.73467E+3
  -4.52689E+4   2.37586E+3
  -4.53902E+4   1.11930E+3
  -4.48906E+4   5.79195E+2
  -4.41063E+4  -4.16212E+2
  -4.41012E+4  -1.67503E+3
  -4.35101E+4  -2.15875E+3
  -4.29276E+4  -3.01692E+3
  -4.27459E+4  -4.13902E+3
  -4.21517E+4  -4.81915E+3
  -4.13106E+4  -5.73172E+3
  -4.10316E+4  -6.60691E+3
  -4.04829E+4  -7.29986E+3
  -3.95219E+4  -8.20245E+3
  -3.90617E+4  -9.22293E+3
  -3.83631E+4  -9.72751E+3
  -3.75507E+4  -1.03266E+4
  -3.71162E+4  -1.10976E+4
  -3.65193E+4  -1.17405E+4
  -3.56775E+4  -1.22513E+4
  -3.51346E+4  -1.27989E+4
  -3.45209E+4  -1.32154E+4
  -3.36534E+4  -1.37109E+4
  -3.31175E+4  -1.41286E+4
  -3.24883E+4  -1.45408E+4
  -3.17915E+4  -1.49896E+4
  -3.12896E+4  -1.55092E+4
  -3.06649E+4  -1.60262E+4
  -2.98761E+4  -1.64904E+4
  -2.92273E+4  -1.68515E+4
  -2.86292E+4  -1.72262E+4
  -2.79605E+4  -1.76811E+4
  -2.73366E+4  -1.80738E+4
  -2.67031E+4  -1.84508E+4
  -2.60821E+4  -1.87779E+4
  -2.54193E+4  -1.92084E+4
  -2.47593E+4  -1.95120E+4
  -2.40057E+4  -1.98370E+4
  -2.34269E+4  -2.00152E+4
  -2.27946E+4  -2.04812E+4
  -2.20611E+4  -2.06806E+4
  -2.14628E+4  -2.10095E+4
  -2.07030E+4  -2.13122E+4
  -2.00013E+4  -2.15640E+4
  -1.91622E+4  -2.18414E+4
  -1.85100E+4  -2.20225E+4
  -1.77298E+4  -2.21364E+4
  -1.69944E+4  -2.23699E+4
  -1.63965E+4  -2.24529E+4
  -1.56376E+4  -2.26468E+4
  -1.49052E+4  -2.27727E+4
  -1.41156E+4  -2.28089E+4
  -1.34683E+4  -2.29571E+4
  -1.26868E+4  -2.30866E+4
  -1.19039E+4  -2.31517E+4
  -1.11722E+4  -2.31430E+4
  -1.04259E+4  -2.30992E+4
  -9.65591E+3  -2.31913E+4
  -8.91619E+3  -2.31221E+4
  -8.14324E+3  -2.30913E+4
  -7.37574E+3  -2.29466E+4
  -6.56917E+3  -2.29114E+4
  -5.85148E+3  -2.27060E+4
  -5.09805E+3  -2.26132E+4
  -4.35764E+3  -2.24711E+4
  -3.61152E+3  -2.23872E+4
  -2.85681E+3  -2.21615E+4
  -2.19291E+3  -2.19140E+4
  -1.41360E+3  -2.15968E+4
  -6.83336E+2  -2.13365E+4
   1.51344E+1  -2.10542E+4
   7.13309E+2  -2.06890E+4
   1.46446E+3  -2.02665E+4
   2.08881E+3  -1.98774E+4
   2.70880E+3  -1.95268E+4
   3.38113E+3  -1.91265E+4
   3.90420E+3  -1.86496E+4
   4.52053E+3  -1.81860E+4
   5.02165E+3  -1.77033E+4
   5.51869E+3  -1.72400E+4
   6.05587E+3  -1.67094E+4
   6.52679E+3  -1.61811E+4
   6.93411E+3  -1.55034E+4
   7.35155E+3  -1.50387E+4
   7.77053E+3  -1.44959E+4
   8.16419E+3  -1.38907E+4
   8.49048E+3  -1.33000E+4
   8.69198E+3  -1.26091E+4
   9.04862E+3  -1.20702E+4
   9.33406E+3  -1.15792E+4
   9.56674E+3  -1.08729E+4
   9.64613E+3  -1.03350E+4
   9.88824E+3  -9.65914E+3
   1.00341E+4  -9.03343E+3
   1.01168E+4  -8.38532E+3
   1.02002E+4  -7.84152E+3
   1.01716E+4  -7.24004E+3
   1.01799E+4  -6.71847E+3
   1.02367E+4  -6.08754E+3
   1.02016E+4  -5.50475E+3
   1.01877E+4  -4.98653E+3
   1.00649E+4  -4.38995E+3
   9.98483E+3  -3.89576E+3
   9.86010E+3  -3.36472E+3
   9.72129E+3  -2.94031E+3
   9.57403E+3  -2.42126E+3
   9.34595E+3  -2.01292E+3
   9.22723E+3  -1.56317E+3
   8.96742E+3  -1.11700E+3
   8.73275E+3  -7.83733E+2
   8.53547E+3  -4.09269E+2
   8.29057E+3  -4.07733E+1
   8.05537E+3   2.87554E+2
   7.73430E+3   6.25438E+2
   7.39630E+3   9.01656E+2
   7.31582E+3   1.19372E+3
   6.97495E+3   1.42575E+3
   6.66219E+3   1.68985E+3
   6.43107E+3   1.93559E+3
   6.12830E+3   2.16349E+3
   5.85103E+3   2.40162E+3
   5.57480E+3   2.55157E+3
   5.36678E+3   2.67527E+3
   5.07399E+3   2.86049E+3
   4.73937E+3   2.95398E+3
   4.47867E+3   3.02456E+3
   4.20150E+3   3.22443E+3
   3.95224E+3   3.29832E+3
   3.67789E+3   3.38912E+3
   3.39429E+3   3.47925E+3
   3.12802E+3   3.44648E+3
   3.01553E+3   3.50931E+3
   2.69904E+3   3.54315E+3
   2.50283E+3   3.60323E+3
   2.19116E+3   3.68377E+3
   1.97462E+3   3.65739E+3
   1.77385E+3   3.65478E+3
   1.59076E+3   3.69376E+3
   1.24906E+3   3.67881E+3
   1.10300E+3   3.58921E+3
   9.03586E+2   3.65926E+3
   7.90717E+2   3.59890E+3
   5.31292E+2   3.53742E+3
   4.35562E+2   3.61958E+3
   1.55258E+2   3.51559E+3
  -2.21867E+1   3.44121E+3
  -1.58212E+2   3.36880E+3
  -2.95279E+2   3.34942E+3
  -4.11925E+2   3.28563E+3
  -6.48322E+2   3.31808E+3
  -7.11612E+2   3.21841E+3
  -9.01686E+2   3.13052E+3
  -1.05201E+3   3.09266E+3
  -1.15365E+3   2.96066E+3
  -1.23700E+3   2.89553E+3
  -1.32110E+3   2.87972E+3
  -1.49319E+3   2.83184E+3
  -1.54848E+3   2.76646E+3
  -1.63013E+3   2.70785E+3
  -1.68232E+3   2.57152E+3
  -1.80118E+3   2.47955E+3
  -1.84678E+3   2.43696E+3
  -1.97361E+3   2.42171E+3
  -1.98501E+3   2.32447E+3
  -2.06512E+3   2.23210E+3
  -2.18947E+3   2.12836E+3
  -2.21021E+3   2.04488E+3
  -2.30192E+3   1.93968E+3
  -2.35082E+3   1.90508E+3
  -2.35569E+3   1.81405E+3
  -2.34337E+3   1.72216E+3
  -2.37968E+3   1.75627E+3
  -2.42581E+3   1.63801E+3
  -2.48650E+3   1.58358E+3
  -2.49260E+3   1.46924E+3
  -2.52907E+3   1.38640E+3
  -2.51196E+3   1.32399E+3
  -2.47978E+3   1.34713E+3
  -2.48129E+3   1.27229E+3
  -2.53985E+3   1.17613E+3
  -2.51578E+3   1.13897E+3
  -2.47073E+3   1.09282E+3
  -2.48724E+3   1.00133E+3
  -2.59039E+3   9.67390E+2
  -2.45264E+3   8.74120E+2
  -2.50276E+3   8.93127E+2
  -2.52409E+3   8.69385E+2
  -2.44885E+3   7.66791E+2
  -2.46885E+3   7.03559E+2
  -2.48131E+3   6.05729E+2
  -2.44090E+3   6.07113E+2
  -2.39771E+3   5.85168E+2
  -2.41735E+3   5.95718E+2
  -2.36873E+3   5.58926E+2
  -2.40982E+3   5.37431E+2
  -2.34959E+3   4.09972E+2
  -2.36797E+3   4.46059E+2
  -2.28867E+3   3.83606E+2
  -2.29739E+3   4.10036E+2
  -2.30398E+3   3.23557E+2
  -2.32608E+3   4.04481E+2
  -2.19291E+3   4.02260E+2
  -2.26152E+3   3.79938E+2
  -2.17049E+3   2.94589E+2
  -2.17249E+3   3.24032E+2
  -2.22759E+3   2.25645E+2
  -2.17127E+3   2.85646E+2
  -2.16214E+3   2.22745E+2
  -2.08837E+3   2.47753E+2
  -2.06074E+3   2.64425E+2
  -2.13413E+3   2.51050E+2
  -2.07236E+3   1.93439E+2
  -2.03895E+3   1.60192E+2
  -1.98453E+3   1.19071E+2
  -2.02154E+3   1.55117E+2
  -1.95806E+3   1.01250E+2
  -1.93222E+3   8.17069E+1
  -1.92892E+3   1.49236E+2
  -1.95401E+3   4.26578E+1
  -1.97084E+3   2.14276E+1
  -1.80792E+3   2.36463E+1
  -1.84331E+3   4.15635E+1
  -1.82990E+3  -4.72557E+0
  -1.79163E+3  -1.75903E+1
  -1.76987E+3   1.33641E+1
  -1.70204E+3  -4.48772E+1
  -1.77587E+3  -2.37897E+1
  -1.72965E+3  -7.89907E+1
  -1.59166E+3  -5.08279E+1
  -1.64267E+3  -4.56969E+1
  -1.63362E+3  -1.22389E+2
  -1.56460E+3  -1.55643E+2
  -1.56292E+3  -1.83945E+2
  -1.52503E+3  -1.65759E+2
  -1.51209E+3  -1.51760E+2
  -1.50898E+3  -1.61354E+2
  -1.46438E+3  -2.27047E+2
  -1.46827E+3  -2.19031E+2
  -1.38175E+3  -1.56556E+2
  -1.41775E+3  -2.48631E+2
  -1.29131E+3  -1.50427E+2
  -1.30180E+3  -1.76712E+2
  -1.26059E+3  -2.43795E+2
  -1.24441E+3  -2.60458E+2
  -1.20597E+3  -1.98346E+2
  -1.18844E+3  -2.27279E+2
  -1.13100E+3  -2.69705E+2
  -1.05499E+3  -2.59845E+2
  -1.13933E+3  -2.66242E+2
  -1.03510E+3  -2.38200E+2
  -1.01735E+3  -2.49374E+2
  -1.00197E+3  -3.13457E+2
  -1.03973E+3  -2.56521E+2
  -9.84361E+2  -2.85102E+2
  -9.89698E+2  -3.28235E+2
  -9.20922E+2  -3.10390E+2
  -8.36356E+2  -2.88271E+2
  -8.43513E+2  -2.66185E+2
  -8.26834E+2  -3.23225E+2
  -7.55486E+2  -2.60923E+2
  -7.86135E+2  -2.94663E+2
  -7.31729E+2  -3.04376E+2
  -7.85226E+2  -2.97002E+2
  -7.23816E+2  -2.83752E+2
  -7.01464E+2  -3.26488E+2
  -6.61185E+2  -2.26592E+2
  -5.46173E+2  -2.85642E+2
  -6.19588E+2  -2.59572E+2
  -6.33302E+2  -2.78839E+2
  -5.78813E+2  -2.69049E+2
  -5.76306E+2  -2.92812E+2
  -5.33488E+2  -2.49206E+2
  -5.30091E+2  -2.66078E+2
  -5.08917E+2  -2.14994E+2
  -4.96035E+2  -2.74502E+2
  -4.64836E+2  -2.76978E+2
  -4.02323E+2  -2.59651E+2
  -4.40127E+2  -2.25261E+2
  -4.20784E+2  -1.97027E+2
  -3.90523E+2  -2.53164E+2
  -3.97133E+2  -2.44117E+2
  -3.93500E+2  -1.85588E+2
  -3.10700E+2  -2.16824E+2
  -3.39287E+2  -1.67035E+2
  -3.05206E+2  -1.92263E+2
  -2.72179E+2  -2.20278E+2
  -2.73813E+2  -1.87121E+2
  -3.27372E+2  -2.11658E+2
  -2.83456E+2  -2.09429E+2
  -2.56759E+2  -2.15157E+2
  -2.15741E+2  -1.83154E+2
  -1.95835E+2  -1.97946E+2
  -1.81315E+2  -1.60268E+2
  -2.25226E+2  -1.75990E+2
  -2.67789E+2  -2.17237E+2
  -2.25208E+2  -1.39582E+2
  -2.14255E+2  -1.74399E+2
  -1.15210E+2  -1.53441E+2
  -1.72335E+2  -9.42872E+1
  -1.60322E+2  -1.07553E+2
  -1.65122E+2  -1.38036E+2
  -7.43742E+1  -5.66379E+1
  -1.50194E+2  -1.51220E+2
  -1.45216E+2  -1.11445E+2
  -1.70340E+2  -1.13810E+2
  -1.25494E+2  -1.11520E+2
  -1.26373E+2  -2.67793E+1
  -6.47938E+1  -9.70611E+1
  -8.06910E+1  -1.30871E+2
  -1.02685E+2  -5.35878E+1
  -7.53233E+1  -6.26212E+1
  -1.08166E+2  -8.35439E+1
  -1.14727E+2  -1.13498E+2
  -7.62988E+1  -8.52194E+1
  -1.21391E+2  -1.22763E+2
  -3.55235E+1  -1.96919E+1
  -9.03977E+1  -8.31959E+1
  -6.73220E+1  -8.86540E+1
  -6.43561E+1  -7.02505E+1
  -1.69174E+1  -2.37008E+1
  -4.66052E+1  -1.56922E+1
  -1.12895E+2  -2.23728E+1
  -1.05301E+2  -8.12110E+1
  -5.95375E+1  -2.04008E+1
  -5.62886E+1  -3.91538E+1
  -1.82041E+1  -6.47377E+1
  -7.22165E+1  -5.98866E+1
  -7.69347E+1  -4.30751E+0
  -7.62055E+1  -1.10513E+1
  -1.58579E+1   3.16433E+1
   5.47840E+0  -3.41308E+1
  -3.01330E+1   4.66674E+1
  -6.13561E-1  -5.10857E+0
   1.91630E+1  -3.14759E+1
  -8.84294E+0  -3.94813E+1
  -3.57340E+0  -5.02819E+1
   8.14519E-1  -1.01376E+1
   8.69870E+0  -2.07963E+1
  -1.65507E+1   3.04341E+1
  -2.48648E+1   1.84055E+1
   6.16278E+1   2.12684E+1
  -2.81013E+1   4.05110E+1
  -4.03426E+1   2.06238E+1
  -4.98737E+1   1.46937E+1
  -2.64069E+1   1.75665E+1
  -3.23055E+1  -2.83513E+1
   6.15326E+0   4.72981E+1
  -3.26461E+1  -1.19080E+1
   5.47472E+1   1.59727E+1
   1.64603E+1  -4.04800E+1
   9.53978E+0   5.56123E+0
   7.19966E+1  -1.21670E+1
  -7.11844E+0   1.00954E+2
