 LCModel (Version 6.3-1N) Copyright: S.W. Provencher.          Ref.: Magn. Reson. Med. 30:672-679 (1993).                
 Slice_N1@19_24  02-Jun-2023 14:37:34
 27 lines in following concentration table = NCONC+1
    Conc.  %SD /Cr+PCr  Metabolite                                         
 1.61E-06  24% 2.2E-04 Mac                                                 
 1.28E-02 109%   1.759 Cr                                                  
 4.55E-02  31%   6.241 PCr                                                 
 5.93E-02  15%   8.135 Ins                                                 
 9.44E-02   8%  12.954 NAA                                                 
 5.19E-02  16%   7.117 Tau                                                 
 1.16E-02  19%   1.593 PCho                                                
    0.000 999%   0.000 GPC                                                 
 6.99E-02  15%   9.590 Glu                                                 
 1.88E-02  38%   2.579 Gln                                                 
 3.89E-03 205%   0.534 Ala                                                 
 3.94E-02  36%   5.400 Asc                                                 
 7.56E-03  84%   1.036 Asp                                                 
 5.35E-03  66%   0.734 GABA                                                
 5.75E-03  70%   0.789 Glc                                                 
 5.60E-03  65%   0.769 GSH                                                 
    0.000 999%   0.000 Lac                                                 
 8.86E-03  61%   1.215 NAAG                                                
    0.000 999%   0.000 PE                                                  
 1.16E-02  19%   1.593 GPC+PCho                                            
    0.103   8%  14.169 NAA+NAAG                                            
 8.87E-02  14%  12.168 Glu+Gln                                             
 5.83E-02  11%   8.000 Cr+PCr                                              
    0.103   8%  14.169 NAA+NAAG                                            
 5.83E-02  11%   8.000 Cr+PCr                                              
 8.87E-02  14%  12.168 Glu+Gln                                             
   6 lines in following misc. output table
  FWHM = 0.029 ppm    S/N =   3                                            
  Data shift =-0.017 ppm                                                   
  Ph:  71 deg       4.4 deg/ppm                                            
  alphaB,S = 7.5E+00,   3.5E+01                                            
   18 spline knots.   Ns = 5(1)                                            
   3 inflections.     2 extrema                                            
  654 points on ppm-axis = NY
      4.000000     3.994181     3.988363     3.982544     3.976726     3.970907     3.965088     3.959270     3.953451     3.947633
      3.941814     3.935995     3.930177     3.924358     3.918540     3.912721     3.906902     3.901084     3.895265     3.889446
      3.883628     3.877809     3.871991     3.866172     3.860353     3.854535     3.848716     3.842898     3.837079     3.831260
      3.825442     3.819623     3.813805     3.807986     3.802167     3.796349     3.790530     3.784712     3.778893     3.773074
      3.767256     3.761437     3.755619     3.749800     3.743981     3.738163     3.732344     3.726526     3.720707     3.714888
      3.709070     3.703251     3.697433     3.691614     3.685795     3.679977     3.674158     3.668339     3.662521     3.656702
      3.650884     3.645065     3.639246     3.633428     3.627609     3.621791     3.615972     3.610153     3.604335     3.598516
      3.592698     3.586879     3.581060     3.575242     3.569423     3.563605     3.557786     3.551967     3.546149     3.540330
      3.534512     3.528693     3.522874     3.517056     3.511237     3.505419     3.499600     3.493781     3.487963     3.482144
      3.476326     3.470507     3.464688     3.458870     3.453051     3.447232     3.441414     3.435595     3.429777     3.423958
      3.418139     3.412321     3.406502     3.400684     3.394865     3.389046     3.383228     3.377409     3.371591     3.365772
      3.359953     3.354135     3.348316     3.342498     3.336679     3.330860     3.325042     3.319223     3.313405     3.307586
      3.301767     3.295949     3.290130     3.284312     3.278493     3.272674     3.266856     3.261037     3.255219     3.249400
      3.243581     3.237763     3.231944     3.226125     3.220307     3.214488     3.208670     3.202851     3.197032     3.191214
      3.185395     3.179577     3.173758     3.167939     3.162121     3.156302     3.150484     3.144665     3.138846     3.133028
      3.127209     3.121391     3.115572     3.109753     3.103935     3.098116     3.092298     3.086479     3.080660     3.074842
      3.069023     3.063205     3.057386     3.051567     3.045749     3.039930     3.034111     3.028293     3.022474     3.016656
      3.010837     3.005018     2.999200     2.993381     2.987563     2.981744     2.975925     2.970107     2.964288     2.958470
      2.952651     2.946832     2.941014     2.935195     2.929377     2.923558     2.917739     2.911921     2.906102     2.900284
      2.894465     2.888646     2.882828     2.877009     2.871191     2.865372     2.859553     2.853735     2.847916     2.842098
      2.836279     2.830460     2.824642     2.818823     2.813004     2.807186     2.801367     2.795549     2.789730     2.783911
      2.778093     2.772274     2.766456     2.760637     2.754818     2.749000     2.743181     2.737363     2.731544     2.725725
      2.719907     2.714088     2.708270     2.702451     2.696632     2.690814     2.684995     2.679177     2.673358     2.667539
      2.661721     2.655902     2.650084     2.644265     2.638446     2.632628     2.626809     2.620991     2.615172     2.609353
      2.603535     2.597716     2.591897     2.586079     2.580260     2.574442     2.568623     2.562804     2.556986     2.551167
      2.545349     2.539530     2.533711     2.527893     2.522074     2.516256     2.510437     2.504618     2.498800     2.492981
      2.487163     2.481344     2.475525     2.469707     2.463888     2.458070     2.452251     2.446432     2.440614     2.434795
      2.428977     2.423158     2.417339     2.411521     2.405702     2.399884     2.394065     2.388246     2.382428     2.376609
      2.370790     2.364972     2.359153     2.353335     2.347516     2.341697     2.335879     2.330060     2.324242     2.318423
      2.312604     2.306786     2.300967     2.295149     2.289330     2.283511     2.277693     2.271874     2.266056     2.260237
      2.254418     2.248600     2.242781     2.236963     2.231144     2.225325     2.219507     2.213688     2.207870     2.202051
      2.196232     2.190414     2.184595     2.178777     2.172958     2.167139     2.161321     2.155502     2.149683     2.143865
      2.138046     2.132228     2.126409     2.120590     2.114772     2.108953     2.103135     2.097316     2.091497     2.085679
      2.079860     2.074042     2.068223     2.062404     2.056586     2.050767     2.044949     2.039130     2.033311     2.027493
      2.021674     2.015856     2.010037     2.004218     1.998400     1.992581     1.986763     1.980944     1.975126     1.969307
      1.963489     1.957670     1.951852     1.946033     1.940215     1.934397     1.928578     1.922760     1.916941     1.911123
      1.905304     1.899486     1.893667     1.887849     1.882030     1.876212     1.870393     1.864575     1.858756     1.852938
      1.847119     1.841301     1.835482     1.829664     1.823845     1.818027     1.812208     1.806390     1.800571     1.794753
      1.788934     1.783116     1.777297     1.771479     1.765660     1.759842     1.754023     1.748205     1.742386     1.736568
      1.730749     1.724931     1.719113     1.713294     1.707476     1.701657     1.695839     1.690020     1.684202     1.678383
      1.672565     1.666746     1.660928     1.655109     1.649291     1.643472     1.637654     1.631835     1.626017     1.620198
      1.614380     1.608561     1.602743     1.596924     1.591106     1.585287     1.579469     1.573650     1.567832     1.562013
      1.556195     1.550376     1.544558     1.538739     1.532921     1.527102     1.521284     1.515465     1.509647     1.503829
      1.498010     1.492192     1.486373     1.480555     1.474736     1.468918     1.463099     1.457281     1.451462     1.445644
      1.439825     1.434007     1.428188     1.422370     1.416551     1.410733     1.404914     1.399096     1.393277     1.387459
      1.381640     1.375822     1.370003     1.364185     1.358366     1.352548     1.346729     1.340911     1.335092     1.329274
      1.323455     1.317637     1.311818     1.306000     1.300182     1.294363     1.288545     1.282726     1.276908     1.271089
      1.265271     1.259452     1.253634     1.247815     1.241997     1.236178     1.230360     1.224541     1.218723     1.212904
      1.207086     1.201267     1.195449     1.189630     1.183812     1.177993     1.172175     1.166356     1.160538     1.154719
      1.148901     1.143082     1.137264     1.131445     1.125627     1.119808     1.113990     1.108171     1.102353     1.096534
      1.090716     1.084898     1.079079     1.073261     1.067442     1.061624     1.055805     1.049987     1.044168     1.038350
      1.032531     1.026713     1.020894     1.015076     1.009257     1.003439     0.997620     0.991802     0.985983     0.980165
      0.974346     0.968528     0.962709     0.956891     0.951072     0.945254     0.939435     0.933617     0.927798     0.921980
      0.916161     0.910343     0.904524     0.898706     0.892887     0.887069     0.881251     0.875432     0.869614     0.863795
      0.857977     0.852158     0.846340     0.840521     0.834703     0.828884     0.823066     0.817247     0.811429     0.805610
      0.799792     0.793973     0.788155     0.782336     0.776518     0.770699     0.764881     0.759062     0.753244     0.747425
      0.741607     0.735788     0.729970     0.724151     0.718333     0.712514     0.706696     0.700877     0.695059     0.689240
      0.683422     0.677603     0.671785     0.665967     0.660148     0.654330     0.648511     0.642693     0.636874     0.631056
      0.625237     0.619419     0.613600     0.607782     0.601963     0.596145     0.590326     0.584508     0.578689     0.572871
      0.567052     0.561234     0.555415     0.549597     0.543778     0.537960     0.532141     0.526323     0.520504     0.514686
      0.508867     0.503049     0.497230     0.491412     0.485593     0.479775     0.473956     0.468138     0.462319     0.456501
      0.450682     0.444864     0.439045     0.433227     0.427408     0.421590     0.415771     0.409953     0.404134     0.398316
      0.392497     0.386679     0.380860     0.375042     0.369223     0.363405     0.357586     0.351767     0.345949     0.340130
      0.334312     0.328493     0.322675     0.316856     0.311038     0.305219     0.299401     0.293582     0.287764     0.281945
      0.276127     0.270308     0.264490     0.258671     0.252853     0.247034     0.241216     0.235397     0.229579     0.223760
      0.217942     0.212123     0.206305     0.200486
 NY phased data points follow
  -4.56161E-01 -1.47497E-02  3.57814E-02  5.05661E-02 -1.46981E-01 -2.09756E-02 -7.43994E-02 -2.80916E-02  1.29589E-01  3.37513E-01
   7.77215E-01  2.38545E-01  2.63765E-02  4.52034E-02  2.21872E-01  2.00964E-01  7.21482E-02  1.87263E-01 -1.78210E-01 -2.92377E-01
  -8.44931E-02 -2.47355E-02  2.31280E-01 -1.15397E-01 -3.24545E-01  1.51471E-01 -1.80162E-01  1.91335E-01  6.81487E-02  4.45762E-03
   5.87232E-02 -3.49231E-01 -8.12111E-02 -1.50194E-01 -4.00223E-02 -1.92448E-01 -1.54637E-01 -6.03058E-01 -3.18114E-01 -2.15118E-01
  -4.36516E-01  1.28178E-01  1.12679E-01  5.32777E-01  2.46720E-01  3.01361E-01  5.12578E-01  3.43778E-01  3.41070E-01  2.73016E-01
   1.06105E-01  3.58346E-01  3.07376E-01 -6.81408E-02  1.18334E-01 -2.75094E-01 -6.99373E-02 -3.19648E-01 -3.67078E-01 -3.88705E-01
  -2.52701E-01  1.91974E-01 -4.39616E-01 -2.05677E-01 -3.77823E-01 -4.33806E-02  2.13300E-01  5.54011E-02  4.09015E-01 -2.13753E-02
   2.52629E-01  7.52449E-03 -5.69404E-01 -2.34130E-01 -8.85431E-02 -2.64391E-01 -5.53264E-02  1.57238E-01 -2.35041E-01 -2.29033E-01
  -3.01172E-02 -7.75959E-03 -2.76638E-01  3.66123E-01  4.31394E-01  3.00525E-01  7.15788E-01 -1.47552E-01  3.20822E-01  2.17061E-01
   1.96787E-01  4.60000E-01 -1.18961E-01  4.71527E-02 -9.32093E-02  8.72078E-02 -9.70362E-02 -1.28161E-01 -1.57512E-01 -1.13711E-01
   1.30544E-01 -1.97294E-01 -5.30815E-01  2.28996E-01  6.16282E-01  3.74931E-01  7.07220E-01  1.46009E-01  5.77353E-01  5.47224E-01
   1.47947E-01  1.75534E-01  4.52215E-02  9.71895E-02 -5.09908E-02  1.29531E-01 -4.73901E-02  3.69449E-01  2.64354E-01  3.54836E-01
   3.26666E-02  1.17837E-02  5.16585E-01 -2.94988E-01  1.60483E-01 -1.25034E-01 -5.76015E-01 -2.33673E-01 -5.77598E-01 -6.28881E-01
  -3.15570E-01 -4.83766E-01 -6.01895E-01 -4.40526E-01 -6.58958E-01 -5.63544E-01 -5.40666E-01 -3.03310E-01 -3.05673E-01 -1.60102E-01
   4.82530E-01  1.89282E-03 -3.98209E-01 -1.65695E-03  5.93711E-02  7.34508E-02  5.55758E-02 -6.52942E-02  6.41693E-02 -3.25119E-02
   4.71541E-03  1.86822E-01  2.07822E-01 -3.32003E-02  3.09021E-01  1.80727E-01 -1.07423E-01  4.58942E-01  3.41727E-01  5.01775E-01
   3.04919E-01  5.23795E-01  5.58214E-01  6.08644E-01  1.00935E+00  3.99018E-01  4.01237E-01 -3.50438E-01 -6.86086E-01 -8.35045E-01
  -9.03713E-01 -5.50228E-01 -7.11100E-01 -3.00783E-01 -3.32632E-01 -2.08350E-01 -1.29201E-01 -4.48202E-01 -2.82773E-01 -3.99871E-02
  -5.63230E-01 -5.77279E-01 -3.25134E-01 -3.23450E-01 -1.37168E-01 -4.32645E-01 -2.45629E-01 -4.95831E-01 -5.03537E-01 -2.41780E-01
  -2.99850E-01 -2.95717E-01 -5.07980E-01 -1.62186E-01 -1.59880E-02 -2.85644E-03 -2.04825E-01 -3.80637E-01 -2.50252E-02  1.52737E-01
  -4.57124E-02 -6.97645E-02  1.78106E-01  1.81305E-01 -5.45917E-03 -3.19736E-01 -5.79377E-02  4.18320E-01  2.75139E-01  1.77417E-01
   1.05669E-01 -1.70607E-01 -3.71699E-01 -8.81087E-02 -2.93665E-02 -3.49520E-01  2.02159E-01 -9.96554E-02 -3.63626E-01  2.27138E-01
  -2.14520E-01 -1.70559E-01 -9.16158E-02 -1.46417E-01  5.44191E-01  4.27316E-01  1.87620E-01  4.76176E-01 -3.01141E-02  2.36333E-01
   3.75713E-01 -4.51492E-02  3.01244E-01  1.42639E-02 -1.49112E-01 -3.40113E-01 -2.94760E-01 -1.73940E-01 -6.54740E-02  1.21533E-01
   4.72348E-03  2.00907E-01  3.20905E-01 -1.21920E-01 -4.23606E-01 -1.40173E-02 -2.58558E-01  9.26805E-02  2.94782E-01  9.62374E-02
   1.95438E-02 -3.77243E-01 -1.50897E-01 -1.59827E-01 -1.06437E-01 -1.06421E-02 -1.15101E-01  6.83735E-02  4.22783E-01  1.53727E-01
   4.71159E-01  2.34896E-01 -1.65509E-01  5.94775E-01  5.05133E-01  2.49393E-01  8.87101E-02  3.40173E-01  2.97008E-01  3.63130E-01
   5.11765E-01  2.64457E-01  2.72170E-01 -1.38179E-01  4.72295E-02  3.85848E-01 -2.94233E-01 -2.87801E-01 -1.17265E-01 -3.96396E-01
   9.63273E-02  2.00848E-02 -1.01222E-01  1.85292E-01  2.87271E-01  5.23101E-01  6.58234E-01  5.22995E-01  7.39628E-01  6.41627E-01
   5.49404E-01  2.92121E-01 -1.07172E-01  2.84436E-01 -3.96923E-02  2.15190E-01 -2.35810E-01 -8.39197E-03  7.66996E-01  2.68761E-01
   3.97970E-01  3.82023E-01  4.36097E-01  5.23000E-01  2.92704E-01  8.53522E-02  7.88014E-01  3.66588E-01  3.56111E-01  4.49420E-01
   1.31541E-01  4.69841E-01 -2.83222E-02  3.28870E-01  1.06387E-01  1.65523E-02  4.22440E-02 -4.27553E-01 -3.23927E-01  9.17763E-02
  -3.87105E-02 -4.46193E-01 -5.17383E-01 -9.23861E-02  3.23016E-01 -5.14748E-02  3.34745E-01  2.27788E-01  3.77468E-02 -1.76467E-01
   8.34049E-03  1.99817E-01 -3.67927E-01 -1.53086E-01 -2.87044E-01 -3.63232E-01 -6.62549E-01 -5.77772E-01 -1.77973E-01 -5.74319E-01
  -7.03832E-01 -1.29865E+00 -1.78749E+00 -1.37465E+00 -1.08800E+00 -5.44151E-01 -4.61238E-01  1.71754E-01  8.63129E-01  1.31662E-01
   1.11657E-01  3.11655E-02 -1.32507E-01 -1.56377E-01 -2.18950E-01 -1.31479E-01 -1.24127E-01 -3.47056E-02 -2.41031E-01  1.92198E-01
   1.60257E-01 -1.32989E-01  2.45465E-01  3.68153E-03  2.43766E-01  1.99715E-01 -8.15848E-02  1.83906E-01 -2.71732E-01 -1.41461E-01
   4.05645E-01 -6.53129E-02 -3.82647E-01 -1.88402E-01 -1.21191E-01  3.19789E-01  6.70582E-02 -8.82904E-02  4.78736E-02 -5.53091E-02
   1.06131E-01 -1.28729E-01  6.73704E-02  3.49679E-01  1.40369E-01 -1.57369E-01 -5.58381E-03 -1.20681E-01  4.51990E-01  3.02671E-01
  -5.66837E-02  4.14922E-01 -8.00887E-02  2.99110E-01  1.82227E-01  1.40221E-01  5.22181E-02 -1.31116E-01  1.40587E-01  1.04002E-01
  -1.13974E-01 -2.27065E-01  1.65409E-01 -1.26685E-01 -3.80272E-01 -1.78064E-01  3.72151E-01  1.03217E-01 -1.59639E-02  2.58111E-01
   1.85248E-02 -1.25365E-01 -1.14070E-01  1.68417E-02 -9.87603E-02 -2.85734E-01 -6.54167E-02  1.30635E-01 -4.15845E-02  1.61820E-01
   7.67813E-02  3.36100E-01 -9.04717E-02 -9.06115E-02  3.99340E-01 -4.56017E-02  6.36112E-02 -3.32309E-02 -2.28430E-01 -2.59269E-02
   2.22491E-01 -1.55595E-01 -8.06933E-02 -3.96181E-02  1.33329E-01  3.49135E-01  3.30902E-01  2.39259E-01  1.03211E-01  6.90930E-02
  -2.46747E-01  2.59175E-01  4.07580E-01  3.27399E-01  1.12924E-01  3.43644E-01  1.55514E-01  4.15676E-03  4.23163E-01  1.81167E-01
   2.32903E-01  1.72648E-01  3.54864E-01  3.26812E-01  1.11487E-01 -2.66849E-02 -1.20106E-01 -2.82119E-01  9.58362E-02  6.79425E-02
  -1.29287E-01  1.70271E-01 -9.01026E-02 -1.23783E-01 -1.95978E-02  5.01807E-02 -1.51085E-01 -2.00123E-01 -4.87050E-01 -2.79380E-01
   7.28038E-02 -2.20188E-01 -3.05265E-01 -2.46655E-01 -3.43222E-01 -8.26059E-02  2.89827E-01  3.70723E-02 -4.48111E-02 -1.61500E-01
   1.02469E-01 -5.74351E-02 -1.04958E-01 -2.97694E-02 -1.33588E-01  1.46034E-01  1.09844E-01 -3.32013E-02  1.76521E-03  2.07114E-01
  -7.01084E-02 -1.03759E-01 -7.97487E-02  2.22631E-01  1.33291E-01 -2.93625E-02  3.56826E-01  1.23276E-01  1.78651E-01  2.28818E-02
  -1.39119E-01  1.01920E-01 -1.61588E-01  3.13928E-02  9.12365E-02 -2.15652E-01  5.90677E-02  2.46468E-01  3.52294E-01  2.17619E-02
   2.76040E-01  1.78475E-01  1.92493E-01  3.08290E-01 -1.45340E-01  2.13774E-01  1.46365E-01  5.96373E-02 -3.44979E-01 -8.50646E-02
  -1.59492E-01 -2.58611E-01 -8.60034E-02 -2.17701E-01 -2.20899E-01 -7.56692E-01  6.91113E-03 -1.24150E-01 -6.61402E-01 -9.00445E-02
   3.32452E-02  2.43896E-02  3.85857E-03 -4.47486E-01  1.77993E-01  5.79398E-02 -4.94841E-01  2.45601E-01 -2.59813E-01 -1.70962E-01
   1.28510E-01 -1.56505E-01 -1.83963E-01  7.86921E-02  1.10028E-01  2.20658E-01  3.59630E-01  5.17116E-02  1.12888E-01  1.94554E-01
   7.78714E-02 -2.87880E-01  8.19832E-02  1.86946E-01  2.24163E-02  9.78302E-02  1.79116E-01  1.20535E-01  5.23241E-03  1.53494E-01
   2.63741E-01  1.70217E-01 -2.27195E-02  9.91570E-02  3.99710E-02  1.95462E-01  8.69607E-02 -2.45556E-01 -7.93490E-02  1.87786E-02
  -2.27026E-01  4.15081E-01  2.25300E-01 -4.62719E-02  5.85837E-01  1.36637E-01 -9.71982E-02 -1.35502E-01 -3.89526E-02 -2.04673E-01
   1.18999E-01  1.85964E-01  4.89681E-02  5.41568E-02  2.33836E-01  9.01887E-02 -1.89576E-01  2.22704E-01  6.88662E-02  4.08758E-01
  -6.77931E-02  7.78495E-02  3.81192E-01  3.80383E-01 -8.39343E-02 -1.12446E-01  1.08409E-01 -3.03432E-01  1.99045E-01 -1.58300E-01
   2.47583E-01 -2.03429E-01  6.03088E-02  9.90606E-02 -3.30238E-01 -1.84185E-02 -6.39487E-02  3.96319E-01 -9.27952E-02  8.89756E-02
  -1.57964E-01  5.42687E-02  2.13567E-01  1.03584E-01  2.48986E-01  2.44770E-01  8.37928E-02 -1.87632E-01 -2.10780E-01 -2.96639E-01
   4.36927E-01  2.32919E-01  2.24410E-01 -2.92432E-02 -2.36990E-01  7.55673E-02  1.21455E-01  1.54275E-02 -9.52975E-02 -2.15947E-02
   2.79510E-01  6.02350E-01 -2.78017E-01  9.02053E-02  8.65036E-02  1.55574E-01  1.63133E-01 -4.60140E-01  2.10045E-01 -4.05608E-01
  -1.24456E-01  3.24628E-01 -3.18802E-01 -2.34565E-02 -6.80531E-02 -3.10052E-02  1.60834E-02  7.83419E-02  3.19232E-01 -5.01083E-02
   8.50085E-03  1.68528E-01  1.74245E-01  1.77758E-01
 NY points of the fit to the data follow
   1.07474E-01  6.76916E-02  2.71506E-02 -3.05859E-03 -1.91528E-02 -2.00637E-02 -9.82646E-03  2.71738E-02  1.05896E-01  2.11744E-01
   3.32555E-01  4.34764E-01  4.79217E-01  4.49037E-01  3.58679E-01  2.35254E-01  1.10994E-01  2.07757E-02 -1.25776E-02 -2.59067E-02
  -5.26028E-02 -6.66870E-02 -7.96101E-02 -9.55349E-02 -1.10031E-01 -1.22705E-01 -1.32512E-01 -1.39839E-01 -1.46307E-01 -1.54208E-01
  -1.64648E-01 -1.78622E-01 -1.97246E-01 -2.19907E-01 -2.44114E-01 -2.64604E-01 -2.68133E-01 -2.47393E-01 -1.92323E-01 -1.08249E-01
   1.56522E-03  1.15841E-01  2.24129E-01  3.05173E-01  3.55440E-01  3.71671E-01  3.62105E-01  3.34386E-01  2.89677E-01  2.40845E-01
   1.85784E-01  1.38986E-01  8.72069E-02  4.21158E-02 -1.09697E-02 -5.54168E-02 -9.73406E-02 -1.34770E-01 -1.63565E-01 -1.76629E-01
  -1.82383E-01 -1.86710E-01 -1.72300E-01 -1.41587E-01 -9.15446E-02 -1.32574E-02  8.78414E-02  1.85434E-01  2.58375E-01  2.95836E-01
   2.96938E-01  2.44400E-01  1.72709E-01  1.15214E-01  3.57048E-02 -5.10255E-02 -1.38580E-01 -2.21621E-01 -2.84238E-01 -3.00535E-01
  -2.47140E-01 -1.31812E-01  1.76976E-02  1.70357E-01  2.92092E-01  3.51810E-01  3.46569E-01  3.17633E-01  2.82029E-01  2.23455E-01
   1.77649E-01  1.51544E-01  1.19227E-01  7.07310E-02  3.91714E-03 -8.51480E-02 -1.77173E-01 -2.50503E-01 -2.76709E-01 -2.40961E-01
  -1.44802E-01 -1.41716E-02  1.16996E-01  2.14535E-01  2.63810E-01  2.73136E-01  2.53511E-01  2.38679E-01  2.24572E-01  2.21507E-01
   2.19237E-01  2.16694E-01  2.13980E-01  2.11422E-01  2.09040E-01  2.07359E-01  2.05866E-01  2.03582E-01  1.92144E-01  1.72627E-01
   1.44468E-01  9.89152E-02  4.63851E-02 -1.94934E-02 -9.38807E-02 -1.91257E-01 -2.90833E-01 -3.88788E-01 -4.59755E-01 -4.84046E-01
  -4.62560E-01 -4.47992E-01 -4.63603E-01 -4.98870E-01 -5.58531E-01 -5.81990E-01 -5.50064E-01 -4.28575E-01 -2.74956E-01 -1.10633E-01
   7.44607E-03  3.77731E-02  3.48986E-02  5.03401E-02  6.72437E-02  8.31731E-02  9.78775E-02  1.11454E-01  1.24168E-01  1.36197E-01
   1.48093E-01  1.60438E-01  1.73686E-01  1.88293E-01  2.04687E-01  2.22912E-01  2.43663E-01  2.68108E-01  2.97969E-01  3.36821E-01
   3.91095E-01  4.73989E-01  5.99058E-01  6.62101E-01  6.17640E-01  4.20596E-01  8.29740E-02 -3.18177E-01 -6.45408E-01 -8.17210E-01
  -8.16795E-01 -6.77901E-01 -4.64136E-01 -2.97850E-01 -2.97255E-01 -2.83034E-01 -2.64121E-01 -2.44474E-01 -2.28838E-01 -2.13610E-01
  -2.01694E-01 -1.90530E-01 -1.80351E-01 -1.70945E-01 -1.64016E-01 -1.58190E-01 -1.52577E-01 -1.45565E-01 -1.37721E-01 -1.30456E-01
  -1.22308E-01 -1.15091E-01 -1.07495E-01 -9.99477E-02 -9.22912E-02 -8.54649E-02 -7.87852E-02 -7.13639E-02 -6.33021E-02 -5.54416E-02
  -4.88380E-02 -4.45771E-02 -4.21898E-02 -4.05863E-02 -3.93144E-02 -3.83642E-02 -3.85284E-02 -4.05034E-02 -4.39889E-02 -4.90586E-02
  -5.36990E-02 -5.51133E-02 -5.12684E-02 -4.22858E-02 -3.28932E-02 -2.59109E-02 -2.08272E-02 -1.75344E-02 -1.48982E-02 -1.09125E-02
   5.33455E-03  3.99469E-02  9.15950E-02  1.49661E-01  1.98676E-01  2.36108E-01  2.67766E-01  2.94434E-01  3.15783E-01  3.20962E-01
   2.97576E-01  2.46864E-01  1.65568E-01  6.74832E-02 -2.20292E-02 -7.44154E-02 -7.87924E-02 -7.06707E-02 -7.52874E-02 -8.12592E-02
  -8.79245E-02 -9.41398E-02 -9.97793E-02 -1.04958E-01 -1.10288E-01 -1.15398E-01 -1.20115E-01 -1.24014E-01 -1.28114E-01 -1.33241E-01
  -1.41863E-01 -1.55913E-01 -1.60893E-01 -1.54028E-01 -1.34037E-01 -9.19626E-02 -3.50977E-02  2.81690E-02  8.49011E-02  1.30502E-01
   1.59624E-01  1.68280E-01  1.69555E-01  1.75721E-01  1.64801E-01  1.51432E-01  1.54954E-01  1.50610E-01  1.44360E-01  1.23400E-01
   1.01720E-01  7.42579E-02  3.59830E-02 -2.77734E-03 -4.57666E-02 -8.46034E-02 -1.33844E-01 -1.86430E-01 -2.42965E-01 -2.91049E-01
  -3.07896E-01 -2.79617E-01 -1.95668E-01 -6.22867E-02  9.54175E-02  2.43887E-01  3.51522E-01  3.98722E-01  3.95318E-01  3.49823E-01
   2.92536E-01  2.46489E-01  2.10733E-01  1.98131E-01  1.97401E-01  1.98666E-01  2.02090E-01  2.02995E-01  2.01126E-01  1.96485E-01
   1.88740E-01  1.81566E-01  1.73917E-01  1.66002E-01  1.56646E-01  1.44623E-01  1.29298E-01  1.10084E-01  8.97163E-02  6.95520E-02
   5.29439E-02  4.08184E-02  3.05580E-02  1.82825E-02 -2.83509E-03 -3.58868E-02 -8.17423E-02 -1.35257E-01 -1.89967E-01 -2.32915E-01
  -2.60688E-01 -2.61703E-01 -2.36536E-01 -1.87154E-01 -1.17311E-01 -4.18908E-02  2.73440E-02  7.25135E-02  8.84910E-02  7.17219E-02
   2.98678E-02 -2.64676E-02 -9.42042E-02 -1.55726E-01 -2.03454E-01 -2.22569E-01 -2.11982E-01 -2.26841E-01 -3.79817E-01 -6.62202E-01
  -1.03409E+00 -1.38904E+00 -1.57401E+00 -1.49831E+00 -1.17551E+00 -7.37776E-01 -3.09444E-01 -1.87242E-02  4.08973E-02 -3.32103E-02
  -3.01304E-02 -1.81310E-02 -6.07659E-03  4.23696E-03  1.32449E-02  2.02584E-02  2.44665E-02  2.56234E-02  2.25720E-02  1.58148E-02
   5.86502E-03 -4.98196E-03 -1.46387E-02 -2.07845E-02 -2.23480E-02 -1.88386E-02 -1.18520E-02 -2.45694E-03  8.10948E-03  1.74302E-02
   2.65395E-02  3.38322E-02  4.02170E-02  4.55229E-02  4.99681E-02  5.38506E-02  5.72056E-02  6.04322E-02  6.35742E-02  6.66655E-02
   6.94454E-02  7.21434E-02  7.47411E-02  7.70492E-02  7.92319E-02  8.10422E-02  8.28706E-02  8.49051E-02  8.74830E-02  9.01897E-02
   9.27439E-02  9.44578E-02  9.50230E-02  9.44354E-02  9.30946E-02  9.13789E-02  8.92638E-02  8.70191E-02  8.42930E-02  8.09026E-02
   7.67653E-02  7.20715E-02  6.71339E-02  6.22560E-02  5.76114E-02  5.32845E-02  4.91039E-02  4.52156E-02  4.16319E-02  3.83098E-02
   3.51901E-02  3.25667E-02  3.02455E-02  2.81085E-02  2.59372E-02  2.39080E-02  2.20591E-02  2.03228E-02  1.90145E-02  1.80099E-02
   1.73766E-02  1.73099E-02  1.78526E-02  1.90440E-02  2.10507E-02  2.38857E-02  2.75028E-02  3.14795E-02  3.57307E-02  4.13849E-02
   4.96254E-02  6.05647E-02  7.49873E-02  8.97641E-02  1.01501E-01  1.07210E-01  1.06118E-01  9.93953E-02  9.10222E-02  8.57107E-02
   8.66312E-02  9.28005E-02  1.01841E-01  1.12992E-01  1.21845E-01  1.29917E-01  1.37109E-01  1.43021E-01  1.47298E-01  1.49977E-01
   1.51293E-01  1.51461E-01  1.50888E-01  1.49328E-01  1.46466E-01  1.42141E-01  1.36312E-01  1.29391E-01  1.21944E-01  1.14450E-01
   1.07124E-01  1.00223E-01  9.36021E-02  8.72580E-02  8.11016E-02  7.55116E-02  7.04918E-02  6.60737E-02  6.20654E-02  5.84520E-02
   5.51656E-02  5.25729E-02  5.09222E-02  5.01642E-02  5.04429E-02  5.16458E-02  5.36764E-02  5.63268E-02  5.95016E-02  6.29929E-02
   6.67716E-02  7.07683E-02  7.45135E-02  7.75429E-02  7.99927E-02  8.19812E-02  8.36401E-02  8.53186E-02  8.70518E-02  8.85446E-02
   8.95103E-02  8.97226E-02  8.90617E-02  8.75534E-02  8.55169E-02  8.33165E-02  8.11378E-02  7.89094E-02  7.67253E-02  7.45731E-02
   7.23759E-02  7.02097E-02  6.76446E-02  6.49420E-02  6.22811E-02  5.97733E-02  5.74943E-02  5.54446E-02  5.36350E-02  5.17427E-02
   4.94963E-02  4.66383E-02  4.29248E-02  3.84812E-02  3.36087E-02  2.82206E-02  2.20809E-02  1.48302E-02  6.31158E-03 -3.68074E-03
  -1.50913E-02 -2.74521E-02 -4.00216E-02 -5.22913E-02 -6.38561E-02 -7.46945E-02 -8.46821E-02 -9.34704E-02 -1.00820E-01 -1.06216E-01
  -1.09683E-01 -1.11162E-01 -1.10810E-01 -1.08686E-01 -1.05270E-01 -1.01079E-01 -9.65796E-02 -9.18007E-02 -8.69492E-02 -8.23182E-02
  -7.75676E-02 -7.21529E-02 -6.59620E-02 -5.91211E-02 -5.17139E-02 -4.40829E-02 -3.65728E-02 -2.92437E-02 -2.19826E-02 -1.50251E-02
  -8.45370E-03 -2.14152E-03  3.80579E-03  9.39834E-03  1.45739E-02  1.93902E-02  2.38335E-02  2.77130E-02  3.13635E-02  3.46200E-02
   3.73292E-02  3.96449E-02  4.17391E-02  4.37324E-02  4.53320E-02  4.63087E-02  4.71913E-02  4.80740E-02  4.88636E-02  5.00078E-02
   5.14381E-02  5.30306E-02  5.47829E-02  5.63697E-02  5.74373E-02  5.78972E-02  5.81169E-02  5.81598E-02  5.79481E-02  5.78130E-02
   5.77465E-02  5.76312E-02  5.74844E-02  5.75316E-02  5.79034E-02  5.83371E-02  5.86885E-02  5.87410E-02  5.82011E-02  5.72639E-02
   5.62474E-02  5.53757E-02  5.49741E-02  5.49366E-02  5.51099E-02  5.51741E-02  5.46938E-02  5.38996E-02  5.34728E-02  5.34787E-02
   5.37197E-02  5.41837E-02  5.48803E-02  5.57414E-02  5.63025E-02  5.68010E-02  5.73804E-02  5.80526E-02  5.84515E-02  5.84620E-02
   5.80974E-02  5.74498E-02  5.68350E-02  5.64982E-02  5.65052E-02  5.68929E-02  5.75858E-02  5.82399E-02  5.87820E-02  5.92356E-02
   6.00771E-02  6.10477E-02  6.19566E-02  6.25085E-02  6.24918E-02  6.20178E-02  6.12888E-02  6.06373E-02  6.03764E-02  6.03081E-02
   6.01887E-02  5.99514E-02  5.94100E-02  5.87627E-02  5.82581E-02  5.80293E-02  5.79814E-02  5.79309E-02  5.79350E-02  5.79848E-02
   5.79857E-02  5.79275E-02  5.77706E-02  5.74778E-02  5.74870E-02  5.81727E-02  5.93357E-02  6.06435E-02  6.20045E-02  6.30346E-02
   6.37057E-02  6.40976E-02  6.42702E-02  6.47463E-02
 NY background values follow
     2.516E-02    2.514E-02    2.512E-02    2.510E-02    2.508E-02    2.506E-02    2.504E-02    2.501E-02    2.499E-02    2.497E-02
     2.495E-02    2.493E-02    2.491E-02    2.489E-02    2.487E-02    2.484E-02    2.482E-02    2.480E-02    2.478E-02    2.476E-02
     2.474E-02    2.472E-02    2.470E-02    2.467E-02    2.465E-02    2.463E-02    2.461E-02    2.459E-02    2.457E-02    2.455E-02
     2.452E-02    2.450E-02    2.448E-02    2.446E-02    2.444E-02    2.442E-02    2.440E-02    2.437E-02    2.435E-02    2.433E-02
     2.431E-02    2.429E-02    2.427E-02    2.425E-02    2.422E-02    2.420E-02    2.418E-02    2.416E-02    2.414E-02    2.412E-02
     2.410E-02    2.407E-02    2.405E-02    2.403E-02    2.401E-02    2.399E-02    2.397E-02    2.394E-02    2.392E-02    2.390E-02
     2.388E-02    2.386E-02    2.384E-02    2.381E-02    2.379E-02    2.377E-02    2.375E-02    2.373E-02    2.371E-02    2.368E-02
