 LCModel (Version 6.3-1N) Copyright: S.W. Provencher.          Ref.: Magn. Reson. Med. 30:672-679 (1993).                
 Slice_N1@20_13  02-Jun-2023 14:37:21
 27 lines in following concentration table = NCONC+1
    Conc.  %SD /Cr+PCr  Metabolite                                         
 1.95E-06  16% 2.5E-04 Mac                                                 
 4.29E-02  19%   5.610 Cr                                                  
 1.83E-02  45%   2.390 PCr                                                 
 8.83E-02   9%  11.535 Ins                                                 
 7.25E-02   8%   9.475 NAA                                                 
 7.06E-02  10%   9.223 Tau                                                 
 6.38E-03  37%   0.834 PCho                                                
 6.80E-03  31%   0.889 GPC                                                 
 6.72E-02  12%   8.782 Glu                                                 
 2.11E-02  30%   2.752 Gln                                                 
    0.000 999%   0.000 Ala                                                 
 3.60E-02  32%   4.709 Asc                                                 
 1.19E-02  61%   1.558 Asp                                                 
 2.89E-03 130%   0.378 GABA                                                
 1.14E-02  43%   1.494 Glc                                                 
 1.49E-02  25%   1.945 GSH                                                 
    0.000 999%   0.000 Lac                                                 
 6.64E-03  62%   0.868 NAAG                                                
    0.000 999%   0.000 PE                                                  
 1.32E-02  13%   1.723 GPC+PCho                                            
 7.91E-02   8%  10.343 NAA+NAAG                                            
 8.82E-02  11%  11.533 Glu+Gln                                             
 6.12E-02   9%   8.000 Cr+PCr                                              
 7.91E-02   8%  10.343 NAA+NAAG                                            
 6.12E-02   9%   8.000 Cr+PCr                                              
 8.82E-02  11%  11.533 Glu+Gln                                             
   6 lines in following misc. output table
  FWHM = 0.017 ppm    S/N =   5                                            
  Data shift = 0.023 ppm                                                   
  Ph: -18 deg      -3.0 deg/ppm                                            
  alphaB,S = 3.1E+01,   7.1E+00                                            
   18 spline knots.   Ns = 5(1)                                            
   3 inflections.     1 extrema                                            
  654 points on ppm-axis = NY
      4.000000     3.994181     3.988363     3.982544     3.976726     3.970907     3.965088     3.959270     3.953451     3.947633
      3.941814     3.935995     3.930177     3.924358     3.918540     3.912721     3.906902     3.901084     3.895265     3.889446
      3.883628     3.877809     3.871991     3.866172     3.860353     3.854535     3.848716     3.842898     3.837079     3.831260
      3.825442     3.819623     3.813805     3.807986     3.802167     3.796349     3.790530     3.784712     3.778893     3.773074
      3.767256     3.761437     3.755619     3.749800     3.743981     3.738163     3.732344     3.726526     3.720707     3.714888
      3.709070     3.703251     3.697433     3.691614     3.685795     3.679977     3.674158     3.668339     3.662521     3.656702
      3.650884     3.645065     3.639246     3.633428     3.627609     3.621791     3.615972     3.610153     3.604335     3.598516
      3.592698     3.586879     3.581060     3.575242     3.569423     3.563605     3.557786     3.551967     3.546149     3.540330
      3.534512     3.528693     3.522874     3.517056     3.511237     3.505419     3.499600     3.493781     3.487963     3.482144
      3.476326     3.470507     3.464688     3.458870     3.453051     3.447232     3.441414     3.435595     3.429777     3.423958
      3.418139     3.412321     3.406502     3.400684     3.394865     3.389046     3.383228     3.377409     3.371591     3.365772
      3.359953     3.354135     3.348316     3.342498     3.336679     3.330860     3.325042     3.319223     3.313405     3.307586
      3.301767     3.295949     3.290130     3.284312     3.278493     3.272674     3.266856     3.261037     3.255219     3.249400
      3.243581     3.237763     3.231944     3.226125     3.220307     3.214488     3.208670     3.202851     3.197032     3.191214
      3.185395     3.179577     3.173758     3.167939     3.162121     3.156302     3.150484     3.144665     3.138846     3.133028
      3.127209     3.121391     3.115572     3.109753     3.103935     3.098116     3.092298     3.086479     3.080660     3.074842
      3.069023     3.063205     3.057386     3.051567     3.045749     3.039930     3.034111     3.028293     3.022474     3.016656
      3.010837     3.005018     2.999200     2.993381     2.987563     2.981744     2.975925     2.970107     2.964288     2.958470
      2.952651     2.946832     2.941014     2.935195     2.929377     2.923558     2.917739     2.911921     2.906102     2.900284
      2.894465     2.888646     2.882828     2.877009     2.871191     2.865372     2.859553     2.853735     2.847916     2.842098
      2.836279     2.830460     2.824642     2.818823     2.813004     2.807186     2.801367     2.795549     2.789730     2.783911
      2.778093     2.772274     2.766456     2.760637     2.754818     2.749000     2.743181     2.737363     2.731544     2.725725
      2.719907     2.714088     2.708270     2.702451     2.696632     2.690814     2.684995     2.679177     2.673358     2.667539
      2.661721     2.655902     2.650084     2.644265     2.638446     2.632628     2.626809     2.620991     2.615172     2.609353
      2.603535     2.597716     2.591897     2.586079     2.580260     2.574442     2.568623     2.562804     2.556986     2.551167
      2.545349     2.539530     2.533711     2.527893     2.522074     2.516256     2.510437     2.504618     2.498800     2.492981
      2.487163     2.481344     2.475525     2.469707     2.463888     2.458070     2.452251     2.446432     2.440614     2.434795
      2.428977     2.423158     2.417339     2.411521     2.405702     2.399884     2.394065     2.388246     2.382428     2.376609
      2.370790     2.364972     2.359153     2.353335     2.347516     2.341697     2.335879     2.330060     2.324242     2.318423
      2.312604     2.306786     2.300967     2.295149     2.289330     2.283511     2.277693     2.271874     2.266056     2.260237
      2.254418     2.248600     2.242781     2.236963     2.231144     2.225325     2.219507     2.213688     2.207870     2.202051
      2.196232     2.190414     2.184595     2.178777     2.172958     2.167139     2.161321     2.155502     2.149683     2.143865
      2.138046     2.132228     2.126409     2.120590     2.114772     2.108953     2.103135     2.097316     2.091497     2.085679
      2.079860     2.074042     2.068223     2.062404     2.056586     2.050767     2.044949     2.039130     2.033311     2.027493
      2.021674     2.015856     2.010037     2.004218     1.998400     1.992581     1.986763     1.980944     1.975126     1.969307
      1.963489     1.957670     1.951852     1.946033     1.940215     1.934397     1.928578     1.922760     1.916941     1.911123
      1.905304     1.899486     1.893667     1.887849     1.882030     1.876212     1.870393     1.864575     1.858756     1.852938
      1.847119     1.841301     1.835482     1.829664     1.823845     1.818027     1.812208     1.806390     1.800571     1.794753
      1.788934     1.783116     1.777297     1.771479     1.765660     1.759842     1.754023     1.748205     1.742386     1.736568
      1.730749     1.724931     1.719113     1.713294     1.707476     1.701657     1.695839     1.690020     1.684202     1.678383
      1.672565     1.666746     1.660928     1.655109     1.649291     1.643472     1.637654     1.631835     1.626017     1.620198
      1.614380     1.608561     1.602743     1.596924     1.591106     1.585287     1.579469     1.573650     1.567832     1.562013
      1.556195     1.550376     1.544558     1.538739     1.532921     1.527102     1.521284     1.515465     1.509647     1.503829
      1.498010     1.492192     1.486373     1.480555     1.474736     1.468918     1.463099     1.457281     1.451462     1.445644
      1.439825     1.434007     1.428188     1.422370     1.416551     1.410733     1.404914     1.399096     1.393277     1.387459
      1.381640     1.375822     1.370003     1.364185     1.358366     1.352548     1.346729     1.340911     1.335092     1.329274
      1.323455     1.317637     1.311818     1.306000     1.300182     1.294363     1.288545     1.282726     1.276908     1.271089
      1.265271     1.259452     1.253634     1.247815     1.241997     1.236178     1.230360     1.224541     1.218723     1.212904
      1.207086     1.201267     1.195449     1.189630     1.183812     1.177993     1.172175     1.166356     1.160538     1.154719
      1.148901     1.143082     1.137264     1.131445     1.125627     1.119808     1.113990     1.108171     1.102353     1.096534
      1.090716     1.084898     1.079079     1.073261     1.067442     1.061624     1.055805     1.049987     1.044168     1.038350
      1.032531     1.026713     1.020894     1.015076     1.009257     1.003439     0.997620     0.991802     0.985983     0.980165
      0.974346     0.968528     0.962709     0.956891     0.951072     0.945254     0.939435     0.933617     0.927798     0.921980
      0.916161     0.910343     0.904524     0.898706     0.892887     0.887069     0.881251     0.875432     0.869614     0.863795
      0.857977     0.852158     0.846340     0.840521     0.834703     0.828884     0.823066     0.817247     0.811429     0.805610
      0.799792     0.793973     0.788155     0.782336     0.776518     0.770699     0.764881     0.759062     0.753244     0.747425
      0.741607     0.735788     0.729970     0.724151     0.718333     0.712514     0.706696     0.700877     0.695059     0.689240
      0.683422     0.677603     0.671785     0.665967     0.660148     0.654330     0.648511     0.642693     0.636874     0.631056
      0.625237     0.619419     0.613600     0.607782     0.601963     0.596145     0.590326     0.584508     0.578689     0.572871
      0.567052     0.561234     0.555415     0.549597     0.543778     0.537960     0.532141     0.526323     0.520504     0.514686
      0.508867     0.503049     0.497230     0.491412     0.485593     0.479775     0.473956     0.468138     0.462319     0.456501
      0.450682     0.444864     0.439045     0.433227     0.427408     0.421590     0.415771     0.409953     0.404134     0.398316
      0.392497     0.386679     0.380860     0.375042     0.369223     0.363405     0.357586     0.351767     0.345949     0.340130
      0.334312     0.328493     0.322675     0.316856     0.311038     0.305219     0.299401     0.293582     0.287764     0.281945
      0.276127     0.270308     0.264490     0.258671     0.252853     0.247034     0.241216     0.235397     0.229579     0.223760
      0.217942     0.212123     0.206305     0.200486
 NY phased data points follow
   4.87269E-02 -8.65975E-02 -5.73842E-02 -1.67500E-01 -2.82920E-01 -2.95236E-01 -1.17542E-01 -8.96337E-02 -1.87888E-01 -1.09013E-01
  -3.34127E-01  2.72168E-01  4.01876E-01  2.32851E-01  4.67216E-01  7.74639E-01  4.63377E-01  2.32022E-01 -6.81643E-02 -1.90038E-01
   1.87805E-01  1.36148E-01  2.36136E-01  1.05572E-01  1.30393E-01 -1.13911E-01 -1.36777E-01 -1.50516E-01  4.22693E-02 -5.55125E-02
  -2.97197E-01 -1.58016E-02 -1.35996E-01 -2.58728E-01 -1.50503E-01 -1.87218E-01 -6.81393E-01 -3.92609E-01 -5.04258E-01 -2.32121E-01
   9.01981E-02  1.23476E-01  3.93209E-01  3.22735E-01  4.30838E-01  1.92428E-01  4.44166E-01  3.77060E-01  3.36066E-01  1.08892E-01
   2.16964E-01  2.99195E-01  3.20564E-02  1.96804E-01  7.68980E-02  4.03539E-02 -3.70953E-01  6.75458E-02  1.19960E-02 -3.64274E-01
  -1.47687E-01 -5.47248E-01 -3.00966E-01 -2.26362E-01 -5.80764E-01 -2.75770E-01  1.01274E-01  2.59286E-01  1.17576E-01  3.12877E-01
   2.61863E-01 -1.54934E-01  1.88027E-01 -4.50607E-02  2.00473E-02 -3.24184E-02 -3.51901E-01 -1.08582E-01 -2.24889E-01 -4.12864E-01
  -5.98626E-01 -1.03914E-01  6.19665E-02  1.75555E-01  4.50200E-01  3.54753E-01  4.32284E-01  3.84996E-01  4.77275E-01  2.82846E-01
   2.48685E-02 -1.11888E-01  6.67848E-02  1.58499E-01  1.37133E-02  3.37502E-01  2.60507E-01  4.97628E-02 -1.03424E-01 -3.05243E-01
  -2.39705E-01 -2.50354E-01 -2.79168E-01 -1.07896E-01  1.86251E-01  1.48824E-01  3.93077E-01  5.43373E-01  1.82746E-01  3.56895E-01
   3.42876E-01  2.25285E-01  3.03303E-01  2.60940E-01  4.97812E-01  3.62193E-01  1.47306E-01  3.70076E-01  3.36766E-01  5.08848E-01
   5.88307E-01  1.83787E-01  2.06893E-01  6.04391E-02 -3.00620E-01 -2.40191E-01 -1.91559E-01 -2.93436E-01 -4.33493E-01 -5.37230E-01
  -5.80056E-01 -6.99899E-01 -6.71945E-01 -5.73931E-01 -8.38707E-01 -8.46664E-01 -7.58383E-01 -9.56004E-01 -6.09793E-01 -3.69080E-01
  -2.01618E-01  1.08691E-01 -5.13513E-02 -9.32134E-03 -3.70086E-02  1.93497E-02  1.49295E-01  1.42630E-01  3.91073E-02 -1.06751E-01
   1.33722E-01  4.87515E-02  2.00742E-01  2.83330E-01  1.71938E-01  3.74015E-01  3.65416E-01  2.70817E-01  2.06019E-01  3.68065E-01
   4.36550E-01  3.23490E-01  4.79121E-01  5.74694E-01  4.89517E-01  1.09821E+00  9.42435E-01  1.08598E-01 -3.37144E-01 -7.91780E-01
  -7.54041E-01 -7.29619E-01 -4.10413E-01 -3.15568E-01 -2.94879E-01 -4.45765E-01 -5.93333E-01 -2.90674E-01 -3.62480E-01 -1.78085E-01
  -2.76973E-01 -3.27933E-01 -2.56763E-01 -2.25579E-01 -1.33378E-01 -2.76089E-01 -2.81688E-01 -8.18314E-02 -6.03279E-02 -3.02976E-01
  -2.74080E-01 -2.09351E-01 -2.18673E-01 -3.28562E-01 -1.81259E-01 -2.30982E-01 -4.03114E-03  1.99822E-01 -1.53532E-01  8.83594E-03
  -1.24808E-01 -1.18125E-01  3.62931E-02 -8.78325E-02 -2.72810E-01 -1.85750E-02  3.91356E-02 -1.12836E-01  1.62958E-01 -1.05731E-01
  -2.64285E-02 -1.93041E-01 -1.53250E-01  2.00961E-01  7.94263E-02  8.34925E-02  8.76076E-03  8.19736E-02  7.13837E-02  2.12547E-01
  -6.00279E-03 -1.71295E-02  1.51684E-01 -5.74038E-02  1.71355E-01  3.92130E-01  3.52586E-01  2.94524E-01  2.00297E-01  2.24730E-01
   5.71990E-01  3.01093E-01  1.58190E-01  3.17282E-01  2.56414E-01 -7.92324E-02 -1.01831E-01  3.83624E-01  5.43745E-02  1.01907E-01
  -4.60913E-02 -2.87008E-01  1.11081E-01 -2.70684E-02 -1.74837E-01  5.51829E-03 -1.26703E-01 -1.70737E-01  2.12657E-01  1.98279E-01
   1.60465E-01  1.04748E-01  8.64188E-02  3.00928E-01 -4.57888E-02 -1.59700E-01  3.00577E-01 -1.20692E-01 -1.35877E-01  1.61333E-01
   9.71993E-02  4.64325E-01  2.13577E-01  4.49538E-02  9.73335E-02  2.61979E-01  2.43649E-01 -4.19645E-02  7.00241E-02  2.06808E-01
   3.51983E-01  2.88712E-01  1.26274E-01  9.94584E-03 -1.39462E-01 -1.45297E-01  7.67719E-02  1.86812E-01 -2.43339E-01 -5.02070E-01
  -1.28752E-01 -2.93470E-01 -3.83646E-01 -4.04107E-01 -3.79427E-01  4.48605E-02  4.66583E-01  5.01036E-01  4.63803E-02  4.58931E-01
   6.15344E-01  3.58177E-01  1.21338E-01  1.10299E-01  1.66180E-01  3.12655E-02  7.54089E-02  3.42165E-02  1.75603E-02 -4.82397E-02
   1.64619E-01  5.34900E-02  2.98540E-01  3.56521E-01  1.83141E-01  3.02105E-01  1.94544E-01  1.27615E-01  4.73784E-02  2.79496E-01
   2.37580E-01  7.90244E-02  2.72186E-01  1.42995E-01 -1.66558E-01  6.78968E-02 -1.31589E-01 -7.89485E-02 -1.24928E-02 -3.12526E-01
  -4.12153E-01 -4.50295E-01 -1.23765E-01 -2.48559E-01 -2.25355E-01 -3.26399E-01 -4.74394E-02 -2.78092E-02  9.39483E-02  5.78332E-01
  -5.25416E-02  8.69883E-02  1.31326E-01 -1.36796E-01 -2.92044E-01 -2.87394E-01 -5.93376E-02 -5.55236E-01 -5.02565E-01 -4.75460E-01
  -3.90305E-01 -7.78903E-01 -2.04577E+00 -1.43189E+00 -5.92060E-01 -5.89039E-01 -3.40511E-01 -1.57822E-01 -5.95222E-02  2.50953E-01
   1.88804E-01 -2.46136E-01  7.10641E-02  1.94383E-01  5.03779E-02 -1.24873E-02  7.81540E-02 -1.12015E-01 -2.67013E-01 -3.74832E-02
   2.88318E-02  2.89266E-01  1.76478E-02 -1.52976E-01  2.21595E-01  1.81580E-01  1.36542E-01  1.08311E-01  2.00617E-01  3.05673E-01
   1.79640E-01  3.90499E-01  2.76267E-01  3.95613E-01  1.00485E-01 -1.27906E-01  2.29564E-01  1.55498E-01  3.33475E-01  1.59727E-01
   1.78954E-01  1.42086E-01  1.33109E-01  2.42178E-01  2.97203E-01  1.04675E-01  1.02417E-01  3.55671E-02 -6.39169E-02  1.81800E-01
  -1.60732E-01  3.86646E-01  4.66078E-01  2.15870E-01  2.43193E-01  3.11850E-01  3.85063E-01  2.01765E-01  1.41359E-01  1.21740E-01
   8.90290E-02 -1.22274E-01  1.67051E-01 -3.14502E-02 -7.81562E-02 -5.84770E-03 -1.35263E-01 -2.76875E-01 -2.54861E-01  5.75521E-02
   1.22791E-01 -3.63952E-02  1.08964E-01  2.48673E-01 -2.47636E-01  1.17739E-01  4.02761E-02 -2.34350E-01 -1.62873E-02 -1.43518E-01
  -2.20588E-01 -1.75609E-01 -1.82309E-01 -2.20572E-02  6.72168E-02 -3.34445E-01 -2.94264E-01 -2.34432E-01 -9.97875E-02  9.22835E-02
  -2.13034E-01 -1.21930E-01  1.02256E-01 -1.94877E-01  3.92961E-02 -1.30287E-01 -2.23490E-01 -9.88253E-02 -2.01137E-01  9.89123E-02
  -1.51540E-01 -1.22589E-01 -8.51822E-02  1.14493E-02  1.97418E-01  3.58010E-01  2.30889E-01 -5.93110E-02 -7.51826E-02  1.29874E-01
   1.98310E-01  1.10587E-01  5.47636E-01  3.01312E-01  1.51440E-01 -3.77242E-03 -2.29501E-01  4.56097E-02  1.11907E-02 -3.25193E-02
   9.24238E-02  2.06795E-01  2.71333E-01 -6.19115E-02 -1.78450E-02 -1.16715E-02 -4.53863E-01 -2.11024E-01 -9.51041E-02 -1.66519E-01
  -2.02113E-01 -2.05002E-01 -5.20682E-01 -1.98940E-01 -7.36166E-02 -3.34804E-01  1.34346E-01 -8.02150E-02 -3.29787E-01 -2.03974E-01
   1.61718E-02  3.43351E-01  3.17236E-01 -1.55157E-01  1.70776E-01  1.00433E-01 -1.08997E-01  2.32927E-01 -6.98650E-02 -5.29816E-02
   3.16422E-01 -4.13535E-02 -1.45894E-01  1.69579E-01 -3.47477E-01 -4.81411E-02 -4.77462E-02 -1.82434E-01  2.09941E-01  1.63827E-01
   1.01194E-01  1.48577E-01  7.30325E-02  2.46652E-01  4.31820E-01 -9.74874E-02  3.20811E-01  2.20522E-01  2.60863E-01  2.55954E-01
  -2.41202E-01  1.66242E-03 -5.42477E-02  1.57805E-01  8.90671E-02  8.57636E-02  4.79578E-02 -9.85267E-03  1.92555E-01  5.02962E-02
  -8.69038E-02 -2.24574E-01 -1.01616E-01 -1.67954E-01 -3.75424E-01 -3.90320E-01 -7.29036E-01 -4.15801E-01 -3.41667E-01 -3.12742E-01
  -3.10553E-01 -4.74884E-01  4.71435E-02 -2.48049E-01 -1.46808E-01  6.84911E-03 -9.59435E-02 -1.66798E-01 -2.12163E-01 -6.24803E-02
   4.11622E-02  1.30594E-01  2.38664E-02  1.21041E-01 -1.15585E-01 -2.08068E-02  3.24189E-01  1.84127E-01  6.57005E-03  2.63618E-01
   4.88263E-02 -1.34488E-01 -1.00993E-01 -1.40551E-01 -2.14316E-01  1.86017E-01  2.59778E-01 -3.84870E-01  1.36452E-01  7.15612E-02
   1.97951E-01  5.01393E-02 -4.65208E-02  2.82137E-01  1.18364E-01  1.48833E-01 -6.73048E-02  1.93246E-01 -4.11244E-02 -9.94312E-02
   1.10284E-01  3.11429E-02 -6.70099E-02 -3.93965E-02  5.75642E-02 -7.58438E-04  1.97201E-01  1.35427E-01 -4.67553E-02  1.42803E-01
   8.89098E-02  1.06792E-01  3.77452E-02  2.33528E-02  1.61391E-01 -3.41999E-01 -6.31947E-02  8.63962E-02 -7.55401E-02 -3.43951E-01
  -1.00830E-01  7.61004E-02 -1.27858E-01  1.68559E-01 -3.04879E-01 -1.74169E-01  3.76834E-02 -2.13902E-02  3.07496E-02  3.15567E-01
   6.75426E-02 -1.14165E-02  1.08187E-01 -1.50234E-01  2.57574E-01 -1.32747E-01 -6.85488E-02 -6.96655E-02 -2.02092E-01  1.91764E-01
  -1.35208E-01 -1.52447E-01 -9.38311E-02  1.38347E-02  7.06519E-02 -1.23150E-01  2.53827E-01  2.60831E-01  6.77006E-02 -6.03179E-02
   4.34087E-03 -5.98668E-03 -3.33847E-02  2.12295E-01 -1.30293E-01 -3.78250E-02  1.40286E-01  1.23409E-01 -1.55955E-01  1.01401E-01
   2.07638E-01  1.58788E-01  2.06642E-01 -2.00203E-01  3.62293E-01  2.19715E-01 -5.12309E-03  1.06388E-01  1.41841E-01  1.96105E-02
  -1.49008E-01  3.48228E-02  2.28792E-02  2.37877E-01  3.57473E-01  9.76536E-02 -3.05362E-02 -1.61476E-01 -1.28327E-01  7.21265E-02
  -1.81647E-01  1.38662E-01  6.16021E-02 -8.06141E-02
 NY points of the fit to the data follow
   1.25379E-01  9.28158E-02  5.13615E-02  1.42986E-02 -7.81586E-04 -9.55575E-04  5.32389E-03  1.11407E-02  2.81999E-02  3.68756E-02
   7.16578E-02  2.32806E-01  3.22329E-01  3.22625E-01  5.34088E-01  7.34600E-01  5.41031E-01  3.10984E-01  2.14908E-01  1.09326E-01
   5.30102E-02  3.79898E-02  7.10127E-03 -3.13185E-02 -6.33319E-02 -8.98368E-02 -1.14334E-01 -1.29415E-01 -1.38626E-01 -1.51989E-01
  -1.63298E-01 -1.71412E-01 -1.87602E-01 -2.15547E-01 -2.49722E-01 -2.85753E-01 -2.99856E-01 -3.25024E-01 -3.26380E-01 -1.97849E-01
   1.08685E-03  1.00985E-01  1.70514E-01  2.67054E-01  3.30524E-01  3.77841E-01  3.93404E-01  3.33634E-01  2.70730E-01  2.46505E-01
   1.93298E-01  1.29544E-01  9.69488E-02  5.54182E-02 -1.90355E-03 -6.01850E-02 -1.15818E-01 -1.50054E-01 -1.76843E-01 -1.93738E-01
  -2.61348E-01 -3.78995E-01 -3.27091E-01 -2.53117E-01 -3.54985E-01 -2.11012E-01  1.54947E-01  2.16010E-01  2.59135E-01  4.67762E-01
   4.73830E-01  3.71918E-01  3.06184E-01  2.10083E-01  1.10101E-01  1.00955E-02 -8.90369E-02 -1.69055E-01 -3.53382E-01 -5.59260E-01
  -4.61413E-01 -1.91560E-01 -6.83336E-02  1.08511E-01  3.91345E-01  5.00747E-01  4.79967E-01  4.49157E-01  3.90204E-01  3.26367E-01
   2.86010E-01  2.59895E-01  2.26959E-01  1.91592E-01  1.51481E-01  9.78290E-02  3.16923E-02 -6.61625E-02 -2.04996E-01 -3.50013E-01
  -4.29453E-01 -3.80790E-01 -2.10749E-01  7.66830E-03  1.95844E-01  2.94622E-01  3.24960E-01  3.30446E-01  3.22971E-01  3.17313E-01
   3.15187E-01  3.11396E-01  3.06366E-01  3.00945E-01  2.96433E-01  2.92883E-01  2.90231E-01  2.85852E-01  2.69259E-01  2.60905E-01
   2.46784E-01  1.47467E-01  6.84722E-02  5.69450E-02 -6.67835E-02 -2.12068E-01 -1.28818E-01 -1.29171E-01 -2.80859E-01 -3.95473E-01
  -5.37441E-01 -7.27927E-01 -6.71952E-01 -5.63525E-01 -6.27457E-01 -7.83548E-01 -8.43041E-01 -7.67305E-01 -5.61745E-01 -3.36066E-01
  -1.93301E-01 -9.56267E-02 -3.47316E-02 -1.77095E-03  2.80776E-02  5.44953E-02  7.69012E-02  9.66889E-02  1.14381E-01  1.29363E-01
   1.43677E-01  1.58389E-01  1.72352E-01  1.86768E-01  2.02734E-01  2.20220E-01  2.40115E-01  2.63180E-01  2.88376E-01  3.16969E-01
   3.56158E-01  4.14295E-01  4.98222E-01  5.55918E-01  5.56019E-01  7.33808E-01  8.04039E-01  1.84618E-01 -6.40227E-01 -8.31591E-01
  -7.19311E-01 -6.25650E-01 -4.60796E-01 -3.46638E-01 -3.14767E-01 -2.88781E-01 -2.50570E-01 -2.22333E-01 -2.25441E-01 -2.36316E-01
  -2.20435E-01 -1.95803E-01 -1.84086E-01 -1.77997E-01 -1.76159E-01 -1.80511E-01 -1.77642E-01 -1.68087E-01 -1.61546E-01 -1.58078E-01
  -1.50755E-01 -1.40207E-01 -1.30375E-01 -1.19851E-01 -1.09500E-01 -1.01133E-01 -9.29986E-02 -8.38975E-02 -7.44627E-02 -6.65985E-02
  -5.88095E-02 -4.61524E-02 -3.18094E-02 -2.74534E-02 -3.50228E-02 -4.22424E-02 -3.59316E-02 -2.03960E-02 -1.76341E-02 -3.31618E-02
  -4.97324E-02 -5.62912E-02 -5.63159E-02 -5.27275E-02 -4.73923E-02 -4.21489E-02 -3.42511E-02 -2.49920E-02 -2.41496E-02 -2.89686E-02
  -2.50904E-02  4.12890E-04  2.07248E-02  3.38959E-02  1.18060E-01  2.47432E-01  2.64516E-01  1.89134E-01  1.74449E-01  2.36181E-01
   2.77755E-01  2.34846E-01  1.41515E-01  6.49888E-02  5.96700E-03 -3.50201E-02 -5.23047E-02 -6.31367E-02 -7.27521E-02 -8.11771E-02
  -9.06916E-02 -9.75733E-02 -1.01810E-01 -1.02525E-01 -1.03205E-01 -1.03106E-01 -1.02294E-01 -9.97793E-02 -9.68063E-02 -9.48253E-02
  -9.73538E-02 -1.02285E-01 -1.10692E-01 -1.14961E-01 -1.30907E-01 -1.25268E-01 -5.17730E-02  1.87978E-02  1.31067E-02  3.59476E-02
   1.16738E-01  1.38541E-01  8.60470E-02  8.07965E-02  1.20108E-01  1.09328E-01  8.94485E-02  1.03855E-01  1.10936E-01  1.24561E-01
   1.23879E-01  1.02376E-01  7.19142E-02  3.24310E-02 -2.54828E-03 -3.75742E-02 -7.36598E-02 -1.14678E-01 -1.56134E-01 -2.00934E-01
  -2.61511E-01 -3.03801E-01 -3.10692E-01 -2.94501E-01 -2.00452E-01 -2.74826E-02  1.37608E-01  2.84418E-01  3.78357E-01  3.69925E-01
   3.23771E-01  2.81543E-01  2.39442E-01  2.10665E-01  1.94436E-01  1.87704E-01  1.82984E-01  1.78668E-01  1.74350E-01  1.68347E-01
   1.63762E-01  1.58975E-01  1.52370E-01  1.47071E-01  1.41783E-01  1.33110E-01  1.23249E-01  1.11790E-01  9.24001E-02  7.11452E-02
   4.72816E-02  2.05512E-02 -5.05308E-03 -2.71844E-02 -5.79442E-02 -9.29537E-02 -1.36132E-01 -1.89706E-01 -2.40602E-01 -2.77707E-01
  -3.04475E-01 -3.17446E-01 -3.09270E-01 -2.85028E-01 -2.38533E-01 -1.64947E-01 -8.69789E-02 -1.89967E-02  2.99051E-02  4.48853E-02
   3.44148E-02 -6.28111E-03 -6.42392E-02 -1.32329E-01 -1.61907E-01 -1.99260E-01 -2.66002E-01 -3.15471E-01 -4.00597E-01 -3.20251E-01
  -3.33586E-01 -1.04458E+00 -1.81551E+00 -1.53895E+00 -9.22487E-01 -5.79442E-01 -2.74910E-01 -1.07319E-01 -7.47482E-02 -5.03031E-02
  -2.93878E-02 -1.24756E-02  5.97707E-04  9.85628E-03  1.65661E-02  2.28080E-02  2.74860E-02  3.02553E-02  3.16667E-02  3.01817E-02
   2.60281E-02  2.21281E-02  1.67037E-02  1.01858E-02  6.80438E-03  6.29218E-03  8.48906E-03  1.29331E-02  1.77533E-02  2.31908E-02
   2.86805E-02  3.48105E-02  4.21809E-02  4.80247E-02  5.14280E-02  5.45357E-02  5.78848E-02  6.13305E-02  6.53588E-02  6.82352E-02
   7.00324E-02  7.21496E-02  7.49353E-02  7.77950E-02  8.05652E-02  8.26837E-02  8.32955E-02  8.39884E-02  8.62021E-02  8.91469E-02
   9.20084E-02  9.51938E-02  9.69753E-02  9.66779E-02  9.50669E-02  9.27614E-02  9.02817E-02  8.80297E-02  8.54917E-02  8.17089E-02
   7.66225E-02  7.15875E-02  6.62686E-02  5.95217E-02  5.24588E-02  4.70135E-02  4.22824E-02  3.67662E-02  3.14238E-02  2.67094E-02
   2.19751E-02  1.80137E-02  1.53374E-02  1.21389E-02  8.96344E-03  6.35675E-03  3.35232E-03  4.57395E-04 -1.67264E-03 -3.11144E-03
  -4.24781E-03 -5.89284E-03 -6.64769E-03 -5.60219E-03 -4.44390E-03 -2.79527E-03  1.44892E-04  3.21039E-03  6.93511E-03  1.20644E-02
   1.62998E-02  1.79550E-02  1.90720E-02  2.21725E-02  2.74702E-02  3.39209E-02  4.06065E-02  4.66946E-02  5.26292E-02  5.94696E-02
   6.80794E-02  7.76976E-02  8.73429E-02  9.73447E-02  1.07096E-01  1.16730E-01  1.26778E-01  1.35909E-01  1.42794E-01  1.47495E-01
   1.49881E-01  1.50976E-01  1.51055E-01  1.50268E-01  1.48602E-01  1.45672E-01  1.40696E-01  1.33032E-01  1.23151E-01  1.13758E-01
   1.05265E-01  9.69470E-02  8.87851E-02  8.01765E-02  7.12083E-02  6.38352E-02  5.78467E-02  5.14346E-02  4.54010E-02  4.04673E-02
   3.61858E-02  3.24380E-02  2.90643E-02  2.58391E-02  2.45492E-02  2.59958E-02  2.76065E-02  2.91548E-02  3.22577E-02  3.57556E-02
   3.92790E-02  4.42163E-02  4.94916E-02  5.36914E-02  5.70977E-02  5.99853E-02  6.19257E-02  6.29360E-02  6.46718E-02  6.76376E-02
   6.99407E-02  7.06230E-02  7.00186E-02  6.87133E-02  6.72029E-02  6.51649E-02  6.17048E-02  5.84028E-02  5.60300E-02  5.35407E-02
   5.06981E-02  4.77482E-02  4.47651E-02  4.14760E-02  3.84263E-02  3.52033E-02  3.10493E-02  2.77327E-02  2.61019E-02  2.40797E-02
   2.09604E-02  1.78916E-02  1.48936E-02  1.04897E-02  4.32244E-03 -2.35802E-03 -9.08521E-03 -1.59504E-02 -2.36436E-02 -3.36856E-02
  -4.67704E-02 -6.15554E-02 -7.63667E-02 -9.03064E-02 -1.04651E-01 -1.19144E-01 -1.32040E-01 -1.42967E-01 -1.53260E-01 -1.63280E-01
  -1.70421E-01 -1.72890E-01 -1.73278E-01 -1.73809E-01 -1.72135E-01 -1.67261E-01 -1.61441E-01 -1.55567E-01 -1.49214E-01 -1.43766E-01
  -1.39030E-01 -1.32808E-01 -1.25095E-01 -1.17660E-01 -1.09719E-01 -1.00151E-01 -9.06166E-02 -8.19073E-02 -7.26686E-02 -6.35509E-02
  -5.61407E-02 -4.84200E-02 -3.92376E-02 -3.15078E-02 -2.59870E-02 -2.08177E-02 -1.44118E-02 -7.21229E-03 -2.81296E-03 -3.51226E-04
   3.91160E-03  7.99378E-03  1.06102E-02  1.34700E-02  1.52610E-02  1.63321E-02  1.87219E-02  2.04849E-02  2.02477E-02  2.04086E-02
   2.23978E-02  2.43981E-02  2.58345E-02  2.84014E-02  3.08774E-02  3.14439E-02  3.14934E-02  3.21699E-02  3.21442E-02  3.15338E-02
   3.19192E-02  3.20826E-02  3.12743E-02  3.11133E-02  3.14618E-02  3.16237E-02  3.17116E-02  3.22880E-02  3.40240E-02  3.40877E-02
   3.04885E-02  2.78667E-02  2.88293E-02  2.98260E-02  2.89899E-02  2.84389E-02  2.90976E-02  2.92966E-02  2.74661E-02  2.59589E-02
   2.67915E-02  2.85137E-02  2.93607E-02  2.96905E-02  3.02815E-02  3.10637E-02  3.24222E-02  3.35156E-02  3.37786E-02  3.44348E-02
   3.57580E-02  3.56222E-02  3.39684E-02  3.29473E-02  3.32140E-02  3.36584E-02  3.44724E-02  3.59749E-02  3.72574E-02  3.76133E-02
   3.75429E-02  3.87726E-02  4.10689E-02  4.32376E-02  4.47502E-02  4.44354E-02  4.27362E-02  4.17638E-02  4.20643E-02  4.35494E-02
   4.46585E-02  4.41138E-02  4.34061E-02  4.31616E-02  4.32763E-02  4.44449E-02  4.48652E-02  4.36391E-02  4.41633E-02  4.65632E-02
   4.75010E-02  4.74312E-02  4.79937E-02  4.88694E-02  4.99378E-02  5.08624E-02  5.16673E-02  5.43236E-02  5.81891E-02  6.11457E-02
   6.30569E-02  6.50185E-02  6.67197E-02  6.77712E-02
 NY background values follow
     5.579E-02    5.562E-02    5.546E-02    5.529E-02    5.513E-02    5.496E-02    5.479E-02    5.463E-02    5.446E-02    5.429E-02
     5.413E-02    5.396E-02    5.380E-02    5.363E-02    5.346E-02    5.330E-02    5.313E-02    5.297E-02    5.280E-02    5.263E-02
     5.247E-02    5.230E-02    5.213E-02    5.197E-02    5.180E-02    5.163E-02    5.147E-02    5.130E-02    5.114E-02    5.097E-02
     5.080E-02    5.064E-02    5.047E-02    5.030E-02    5.014E-02    4.997E-02    4.980E-02    4.964E-02    4.947E-02    4.930E-02
     4.914E-02    4.897E-02    4.880E-02    4.864E-02    4.847E-02    4.830E-02    4.814E-02    4.797E-02    4.780E-02    4.764E-02
     4.747E-02    4.730E-02    4.714E-02    4.697E-02    4.680E-02    4.664E-02    4.647E-02    4.630E-02    4.614E-02    4.597E-02
     4.580E-02    4.564E-02    4.547E-02    4.530E-02    4.514E-02    4.497E-02    4.480E-02    4.464E-02    4.447E-02    4.430E-02
