 LCModel (Version 6.3-1N) Copyright: S.W. Provencher.          Ref.: Magn. Reson. Med. 30:672-679 (1993).                
 Slice_N1@13_18  02-Jun-2023 14:37:06
 27 lines in following concentration table = NCONC+1
    Conc.  %SD /Cr+PCr  Metabolite                                         
 8.97E-07  39% 1.2E-04 Mac                                                 
 5.79E-02  11%   8.000 Cr                                                  
    0.000 999%   0.000 PCr                                                 
 7.03E-02  12%   9.705 Ins                                                 
 8.51E-02   8%  11.753 NAA                                                 
 5.02E-02  16%   6.938 Tau                                                 
 7.87E-03  57%   1.087 PCho                                                
 1.57E-02  28%   2.170 GPC                                                 
 6.33E-02  15%   8.746 Glu                                                 
 1.45E-02  45%   2.001 Gln                                                 
    0.000 999%   0.000 Ala                                                 
 3.02E-02  44%   4.167 Asc                                                 
 9.97E-03  81%   1.376 Asp                                                 
 1.11E-02  39%   1.527 GABA                                                
 8.69E-03  62%   1.201 Glc                                                 
 3.57E-03  92%   0.493 GSH                                                 
 2.30E-02  35%   3.170 Lac                                                 
    0.000 999%   0.000 NAAG                                                
    0.000 999%   0.000 PE                                                  
 2.36E-02   9%   3.257 GPC+PCho                                            
 8.51E-02   8%  11.753 NAA+NAAG                                            
 7.78E-02  14%  10.747 Glu+Gln                                             
 5.79E-02  11%   8.000 Cr+PCr                                              
 8.51E-02   8%  11.753 NAA+NAAG                                            
 5.79E-02  11%   8.000 Cr+PCr                                              
 7.78E-02  14%  10.747 Glu+Gln                                             
   6 lines in following misc. output table
  FWHM = 0.023 ppm    S/N =   4                                            
  Data shift = 0.017 ppm                                                   
  Ph: -28 deg      -5.2 deg/ppm                                            
  alphaB,S = 3.1E+01,   9.9E+00                                            
   18 spline knots.   Ns = 5(1)                                            
   2 inflections.     1 extrema                                            
  654 points on ppm-axis = NY
      4.000000     3.994181     3.988363     3.982544     3.976726     3.970907     3.965088     3.959270     3.953451     3.947633
      3.941814     3.935995     3.930177     3.924358     3.918540     3.912721     3.906902     3.901084     3.895265     3.889446
      3.883628     3.877809     3.871991     3.866172     3.860353     3.854535     3.848716     3.842898     3.837079     3.831260
      3.825442     3.819623     3.813805     3.807986     3.802167     3.796349     3.790530     3.784712     3.778893     3.773074
      3.767256     3.761437     3.755619     3.749800     3.743981     3.738163     3.732344     3.726526     3.720707     3.714888
      3.709070     3.703251     3.697433     3.691614     3.685795     3.679977     3.674158     3.668339     3.662521     3.656702
      3.650884     3.645065     3.639246     3.633428     3.627609     3.621791     3.615972     3.610153     3.604335     3.598516
      3.592698     3.586879     3.581060     3.575242     3.569423     3.563605     3.557786     3.551967     3.546149     3.540330
      3.534512     3.528693     3.522874     3.517056     3.511237     3.505419     3.499600     3.493781     3.487963     3.482144
      3.476326     3.470507     3.464688     3.458870     3.453051     3.447232     3.441414     3.435595     3.429777     3.423958
      3.418139     3.412321     3.406502     3.400684     3.394865     3.389046     3.383228     3.377409     3.371591     3.365772
      3.359953     3.354135     3.348316     3.342498     3.336679     3.330860     3.325042     3.319223     3.313405     3.307586
      3.301767     3.295949     3.290130     3.284312     3.278493     3.272674     3.266856     3.261037     3.255219     3.249400
      3.243581     3.237763     3.231944     3.226125     3.220307     3.214488     3.208670     3.202851     3.197032     3.191214
      3.185395     3.179577     3.173758     3.167939     3.162121     3.156302     3.150484     3.144665     3.138846     3.133028
      3.127209     3.121391     3.115572     3.109753     3.103935     3.098116     3.092298     3.086479     3.080660     3.074842
      3.069023     3.063205     3.057386     3.051567     3.045749     3.039930     3.034111     3.028293     3.022474     3.016656
      3.010837     3.005018     2.999200     2.993381     2.987563     2.981744     2.975925     2.970107     2.964288     2.958470
      2.952651     2.946832     2.941014     2.935195     2.929377     2.923558     2.917739     2.911921     2.906102     2.900284
      2.894465     2.888646     2.882828     2.877009     2.871191     2.865372     2.859553     2.853735     2.847916     2.842098
      2.836279     2.830460     2.824642     2.818823     2.813004     2.807186     2.801367     2.795549     2.789730     2.783911
      2.778093     2.772274     2.766456     2.760637     2.754818     2.749000     2.743181     2.737363     2.731544     2.725725
      2.719907     2.714088     2.708270     2.702451     2.696632     2.690814     2.684995     2.679177     2.673358     2.667539
      2.661721     2.655902     2.650084     2.644265     2.638446     2.632628     2.626809     2.620991     2.615172     2.609353
      2.603535     2.597716     2.591897     2.586079     2.580260     2.574442     2.568623     2.562804     2.556986     2.551167
      2.545349     2.539530     2.533711     2.527893     2.522074     2.516256     2.510437     2.504618     2.498800     2.492981
      2.487163     2.481344     2.475525     2.469707     2.463888     2.458070     2.452251     2.446432     2.440614     2.434795
      2.428977     2.423158     2.417339     2.411521     2.405702     2.399884     2.394065     2.388246     2.382428     2.376609
      2.370790     2.364972     2.359153     2.353335     2.347516     2.341697     2.335879     2.330060     2.324242     2.318423
      2.312604     2.306786     2.300967     2.295149     2.289330     2.283511     2.277693     2.271874     2.266056     2.260237
      2.254418     2.248600     2.242781     2.236963     2.231144     2.225325     2.219507     2.213688     2.207870     2.202051
      2.196232     2.190414     2.184595     2.178777     2.172958     2.167139     2.161321     2.155502     2.149683     2.143865
      2.138046     2.132228     2.126409     2.120590     2.114772     2.108953     2.103135     2.097316     2.091497     2.085679
      2.079860     2.074042     2.068223     2.062404     2.056586     2.050767     2.044949     2.039130     2.033311     2.027493
      2.021674     2.015856     2.010037     2.004218     1.998400     1.992581     1.986763     1.980944     1.975126     1.969307
      1.963489     1.957670     1.951852     1.946033     1.940215     1.934397     1.928578     1.922760     1.916941     1.911123
      1.905304     1.899486     1.893667     1.887849     1.882030     1.876212     1.870393     1.864575     1.858756     1.852938
      1.847119     1.841301     1.835482     1.829664     1.823845     1.818027     1.812208     1.806390     1.800571     1.794753
      1.788934     1.783116     1.777297     1.771479     1.765660     1.759842     1.754023     1.748205     1.742386     1.736568
      1.730749     1.724931     1.719113     1.713294     1.707476     1.701657     1.695839     1.690020     1.684202     1.678383
      1.672565     1.666746     1.660928     1.655109     1.649291     1.643472     1.637654     1.631835     1.626017     1.620198
      1.614380     1.608561     1.602743     1.596924     1.591106     1.585287     1.579469     1.573650     1.567832     1.562013
      1.556195     1.550376     1.544558     1.538739     1.532921     1.527102     1.521284     1.515465     1.509647     1.503829
      1.498010     1.492192     1.486373     1.480555     1.474736     1.468918     1.463099     1.457281     1.451462     1.445644
      1.439825     1.434007     1.428188     1.422370     1.416551     1.410733     1.404914     1.399096     1.393277     1.387459
      1.381640     1.375822     1.370003     1.364185     1.358366     1.352548     1.346729     1.340911     1.335092     1.329274
      1.323455     1.317637     1.311818     1.306000     1.300182     1.294363     1.288545     1.282726     1.276908     1.271089
      1.265271     1.259452     1.253634     1.247815     1.241997     1.236178     1.230360     1.224541     1.218723     1.212904
      1.207086     1.201267     1.195449     1.189630     1.183812     1.177993     1.172175     1.166356     1.160538     1.154719
      1.148901     1.143082     1.137264     1.131445     1.125627     1.119808     1.113990     1.108171     1.102353     1.096534
      1.090716     1.084898     1.079079     1.073261     1.067442     1.061624     1.055805     1.049987     1.044168     1.038350
      1.032531     1.026713     1.020894     1.015076     1.009257     1.003439     0.997620     0.991802     0.985983     0.980165
      0.974346     0.968528     0.962709     0.956891     0.951072     0.945254     0.939435     0.933617     0.927798     0.921980
      0.916161     0.910343     0.904524     0.898706     0.892887     0.887069     0.881251     0.875432     0.869614     0.863795
      0.857977     0.852158     0.846340     0.840521     0.834703     0.828884     0.823066     0.817247     0.811429     0.805610
      0.799792     0.793973     0.788155     0.782336     0.776518     0.770699     0.764881     0.759062     0.753244     0.747425
      0.741607     0.735788     0.729970     0.724151     0.718333     0.712514     0.706696     0.700877     0.695059     0.689240
      0.683422     0.677603     0.671785     0.665967     0.660148     0.654330     0.648511     0.642693     0.636874     0.631056
      0.625237     0.619419     0.613600     0.607782     0.601963     0.596145     0.590326     0.584508     0.578689     0.572871
      0.567052     0.561234     0.555415     0.549597     0.543778     0.537960     0.532141     0.526323     0.520504     0.514686
      0.508867     0.503049     0.497230     0.491412     0.485593     0.479775     0.473956     0.468138     0.462319     0.456501
      0.450682     0.444864     0.439045     0.433227     0.427408     0.421590     0.415771     0.409953     0.404134     0.398316
      0.392497     0.386679     0.380860     0.375042     0.369223     0.363405     0.357586     0.351767     0.345949     0.340130
      0.334312     0.328493     0.322675     0.316856     0.311038     0.305219     0.299401     0.293582     0.287764     0.281945
      0.276127     0.270308     0.264490     0.258671     0.252853     0.247034     0.241216     0.235397     0.229579     0.223760
      0.217942     0.212123     0.206305     0.200486
 NY phased data points follow
  -5.74504E-02  1.85505E-01 -5.53601E-02 -4.32760E-01 -7.59462E-02 -3.75162E-01 -9.47718E-02 -1.86675E-01  3.59629E-02  1.50455E-01
  -1.88854E-01  2.51249E-01 -2.58731E-01 -3.56377E-02  2.36509E-01  4.38492E-01  4.81935E-01  7.96044E-02  2.06098E-01  3.23343E-01
   2.69340E-01  3.60430E-01  2.86758E-01  1.30100E-01  1.13955E-01 -1.13604E-01  9.73376E-02  6.08643E-02 -1.87712E-01  1.01840E-01
   3.45212E-01  4.28214E-02 -2.42702E-01  3.67541E-02 -1.70661E-02 -6.95356E-01 -6.49109E-01 -3.57323E-01 -2.73776E-01 -9.67989E-03
  -4.66904E-01 -2.53380E-01  1.49200E-01  6.47366E-02  4.44099E-01  9.69649E-02 -6.10540E-02  2.15379E-01  1.23116E-01 -1.59686E-02
   1.13920E-02  2.27244E-01 -1.25984E-01 -4.86056E-02 -1.43299E-01 -1.77070E-01  1.00059E-01  1.94739E-02  2.76598E-02 -2.39872E-01
   1.14869E-01 -1.74583E-01 -1.84150E-01  3.01796E-02 -2.82681E-01 -6.97928E-03  1.01635E-01  1.39204E-01  1.25186E-01  2.62569E-01
   2.22538E-01  8.24681E-02  1.55461E-01  4.43623E-01 -7.27696E-02 -1.47829E-01 -1.26178E-01 -4.28236E-01  2.97814E-02 -2.06510E-01
  -3.44357E-01 -1.07599E-01  2.12931E-01  1.13224E-01  2.76859E-01  3.10686E-01  6.69787E-02  4.50414E-01  4.15460E-01  2.57341E-01
   3.73123E-01 -4.57914E-02  9.43121E-02  4.65439E-01 -1.23311E-01  1.71358E-01 -9.08896E-03  9.42022E-02  1.37327E-01  6.59546E-02
   7.66417E-02 -3.40721E-01  1.12490E-01  3.94606E-02  4.73779E-01  4.31850E-01  3.87728E-01  2.88474E-01  2.27809E-01  3.59771E-01
   1.54591E-01  4.41126E-01  4.30784E-01  6.43915E-01  2.17575E-01  1.48792E-01  3.98136E-01  3.75340E-01  9.30565E-02  2.06844E-01
   2.00143E-01  1.46591E-02  2.31278E-01 -8.26955E-02 -1.21940E-01 -3.43174E-01 -1.25109E-01 -2.65122E-01 -4.42082E-01 -3.01283E-01
  -3.80588E-01 -5.26294E-01 -3.99276E-01 -3.86528E-01 -7.78562E-01 -7.25066E-01 -1.32413E+00 -1.10080E+00 -8.08137E-01 -7.98699E-01
  -2.65923E-01 -2.47476E-01 -2.43306E-01 -2.00840E-01 -4.59973E-01 -2.82726E-01  2.85375E-02  1.00768E-01  2.20254E-01  4.66031E-02
   1.60398E-01 -1.42628E-01  1.90369E-01  5.47329E-01  1.38341E-01  6.85647E-02  1.25314E-01  1.01412E-01 -6.45288E-02  1.44145E-01
   2.29970E-01  2.57578E-01  1.64389E-01  4.99184E-01  8.18257E-01  8.14547E-01  8.90188E-01  2.62801E-01 -6.41980E-01 -5.80787E-01
  -6.10686E-01 -6.26423E-01 -2.94613E-01 -5.08564E-01 -2.59989E-01 -6.50302E-01 -5.38817E-01 -3.41733E-01 -5.78701E-01 -3.01560E-01
  -4.41827E-01 -3.58220E-01 -1.68686E-01 -1.19722E-01 -1.24911E-01 -2.07970E-02 -2.17534E-01 -3.56937E-01 -3.19678E-01 -1.13346E-02
  -1.28215E-03 -1.75180E-01 -3.75523E-02  4.79277E-02 -1.52151E-01 -2.63779E-01 -1.95354E-01 -3.40369E-01 -3.83322E-02 -5.66983E-01
  -2.78398E-01 -6.90388E-02 -1.73270E-01  4.03240E-01 -2.33733E-01  4.51784E-02  2.36919E-02 -4.19642E-01  8.45164E-02  1.44277E-01
   1.34979E-03 -1.38216E-01 -3.50925E-01 -1.86473E-01  8.27118E-02 -5.76611E-02  8.13998E-02  9.01261E-02 -3.71191E-01 -6.25410E-02
  -1.20378E-01 -3.10147E-01  4.38114E-02  9.95158E-03 -2.58828E-02  1.27740E-03  2.21572E-01  1.00373E-01  3.11480E-01  2.74549E-01
   1.37967E-01  3.39262E-01  2.39285E-01  2.92330E-01 -6.97806E-02 -4.15099E-02 -2.62051E-02  6.47308E-02  1.84728E-01  4.77089E-02
  -5.38559E-02 -2.07831E-01 -1.12785E-01 -2.87701E-01 -1.40475E-01 -1.29052E-02 -8.11604E-02 -1.29059E-01 -4.24477E-01 -2.18079E-01
  -2.17488E-01  1.56405E-01  2.71094E-01 -4.81851E-01 -1.37089E-01 -2.73543E-01  4.19133E-02  1.79680E-01 -1.31959E-01  1.85405E-01
  -3.58383E-02 -2.25885E-02 -3.17556E-01  3.53842E-01  1.41926E-01 -7.54710E-02  4.14741E-01  1.34135E-01  4.97591E-01  1.21476E-02
   2.05067E-01  1.63749E-01 -9.25189E-03  3.81996E-01 -1.61702E-01 -1.50272E-01 -1.98057E-02 -1.68249E-01 -3.97967E-01 -2.24686E-01
  -1.84907E-01 -1.13651E-01  4.77917E-02 -2.22732E-01  3.22190E-01  2.06702E-01  2.31196E-01  5.99229E-01  1.15557E-01  3.10558E-01
   2.22647E-01  9.76724E-02  5.02937E-01  4.22638E-01  2.49160E-01  2.41594E-02 -2.17573E-02  3.04477E-01  4.93776E-01  4.39122E-01
   2.67035E-01  5.45395E-01  3.64895E-01  5.07990E-01  4.60635E-01  4.78021E-02  5.46692E-01  1.96766E-01  5.00116E-01  3.07901E-01
  -1.30552E-01  5.18565E-02  1.71846E-01  5.33180E-01  1.00019E-01  5.46858E-02 -9.92179E-03 -1.80083E-02  4.76811E-02  9.66230E-02
  -1.07440E-02 -2.40941E-01 -3.04744E-02  9.21445E-02 -4.21091E-01 -2.79178E-01  7.50873E-02  5.74633E-02  1.73175E-01  3.58756E-02
   4.21463E-01 -1.26950E-01  1.76501E-01  2.67422E-01 -1.10066E-01  1.32985E-02 -1.47320E-01 -5.36128E-02 -2.68052E-01  1.78703E-01
  -3.13746E-01 -7.17563E-01 -1.60423E+00 -1.77734E+00 -6.16066E-01 -6.77282E-01 -6.69662E-01 -2.84960E-01  5.78383E-02 -1.56448E-01
  -4.03541E-02  1.59754E-01 -1.28872E-01 -3.09833E-02  3.72944E-01 -1.41986E-01  1.17220E-01  3.03131E-01 -1.26205E-01  2.12138E-01
   5.25382E-02  7.15547E-02 -1.39191E-01 -1.83512E-01 -7.37060E-02 -1.69576E-01  4.17843E-02  8.03028E-02 -3.61510E-04  1.69297E-01
   1.26980E-01 -1.33499E-01 -1.80174E-02  3.41338E-01  2.23146E-01  9.92402E-02  3.26442E-01 -3.37921E-02  1.51158E-01  2.21293E-01
   5.93061E-02  1.49807E-01  4.64268E-02  1.18552E-02  7.61623E-02  2.41518E-01  1.93361E-01  2.20667E-02 -1.27704E-01  3.36085E-01
   2.65106E-01 -9.46135E-02  2.98124E-01  3.35170E-01  8.23500E-02 -9.00099E-02  4.21985E-02  2.88547E-01 -1.02545E-01 -1.09950E-01
   1.12298E-01  1.70314E-01  1.41022E-01 -1.97145E-01  1.01100E-01 -2.30075E-01 -1.98102E-01  9.68641E-02 -3.02363E-01 -2.74979E-01
  -3.05012E-01 -3.66972E-01 -3.05813E-01 -1.75528E-01 -2.31077E-01  2.74298E-01  1.49934E-01 -1.96479E-01  9.41040E-02 -2.23814E-01
  -1.91082E-01 -1.85981E-01 -4.88267E-01 -3.13223E-01  3.45936E-02 -2.16181E-01 -1.32824E-01  3.32159E-02 -1.06601E-01 -1.94104E-03
  -2.50581E-01 -3.26415E-01 -1.76030E-01  3.66755E-01  3.33634E-01 -1.85808E-01 -1.80614E-02  2.13781E-02 -1.19808E-01 -2.78557E-01
  -1.55646E-01  2.71759E-03 -7.98331E-02  5.90633E-02  1.63776E-01 -1.59684E-01 -7.36072E-02 -5.10281E-02  3.60694E-02  2.38261E-01
  -1.75035E-01 -1.71305E-01 -1.68106E-01 -1.90956E-01 -2.49092E-01 -1.03484E-01 -4.17176E-03 -1.23813E-02 -6.22988E-02 -5.71727E-02
   2.22820E-01 -1.75271E-02  2.79253E-01  3.92925E-01  5.69188E-02  1.06713E-02  3.11029E-01  1.35994E-01  5.75713E-03  3.03956E-01
   8.61236E-02  1.30612E-01  3.29688E-01  4.24172E-01  3.80485E-01  2.65195E-01 -9.46931E-02 -1.49684E-01  7.09724E-02  2.21145E-01
  -1.76628E-01  6.75946E-02  3.58641E-01 -3.16964E-02  3.26965E-01 -4.96716E-02 -1.90542E-01 -2.10434E-02  1.44225E-01 -6.84615E-02
  -2.07011E-01  7.82968E-02 -1.17440E-01 -1.72776E-01  6.61666E-02  2.41881E-01 -3.65595E-02  1.62798E-01  1.89440E-01  1.82249E-01
  -1.27206E-01 -1.92377E-01  1.80276E-01 -6.92586E-02 -1.56882E-01 -3.27203E-01  1.17260E-02  4.72631E-01  2.61923E-01  1.40273E-01
  -1.10461E-02 -2.13269E-01 -1.20898E-01 -2.79345E-02  2.51001E-01  5.53569E-02 -1.07476E-01 -1.04202E-01 -4.81311E-02  1.38100E-02
  -3.15746E-02 -4.05762E-02 -1.75739E-01  7.88696E-02 -2.32258E-01 -3.97285E-01 -4.80005E-01 -1.22700E-01 -1.85346E-01 -5.49187E-01
  -5.90745E-02 -6.99091E-02 -3.21435E-03 -1.06164E-01  7.88835E-02  3.72169E-02  3.99524E-02  4.04448E-02 -4.78359E-01 -1.79931E-01
   8.28933E-02  3.45702E-02 -1.46436E-01 -8.61530E-02  3.80558E-01 -2.98356E-01 -1.65629E-01  2.82123E-01 -4.05557E-02  2.93482E-01
   7.00607E-02  3.06000E-01  4.27892E-01  5.24954E-01  4.65026E-02 -1.91893E-01  2.97286E-01  1.53054E-01  2.79195E-01  2.48755E-01
   3.93467E-01 -1.00394E-02  6.04732E-01  4.35767E-01 -2.45780E-02  2.00003E-01 -2.24786E-01  3.39230E-01 -7.36182E-02 -3.66828E-01
   4.02946E-02 -4.73888E-02 -7.16990E-02  4.21619E-02 -7.01194E-02  6.60185E-02  6.73492E-02  7.48870E-02  2.75665E-01 -2.60874E-01
  -2.85639E-01  4.68782E-02 -5.78960E-02  1.13504E-02  2.78621E-01  3.93453E-01  3.07676E-01 -1.42269E-01 -2.15030E-02  1.27322E-01
  -5.40182E-02  1.93661E-01  2.37402E-01 -1.38679E-01 -2.05381E-02 -6.92712E-02 -2.18229E-01  1.12982E-01  1.32875E-01  1.62404E-01
  -9.88350E-02  2.65720E-01 -6.29405E-03 -2.50229E-01  1.18222E-01 -6.00421E-02  1.68907E-01  6.25889E-02  6.36834E-02 -1.29336E-03
  -4.16734E-02  1.20130E-01  2.47322E-01 -1.26877E-01 -9.53232E-02  6.61741E-02 -3.09728E-02 -1.17616E-01 -3.42499E-01  2.31755E-02
  -1.27101E-01 -1.74955E-01  4.18049E-02  2.90826E-01 -1.05489E-01 -1.11000E-01  3.39023E-01  1.01894E-01  3.22886E-01  1.38512E-01
  -6.56728E-03 -1.99354E-02 -1.29529E-01 -6.59304E-02 -5.81078E-02  3.60267E-02 -2.57625E-01 -2.05793E-01  1.69690E-01  3.03423E-03
   1.80816E-01  7.88123E-02 -3.93933E-02 -1.94048E-01 -3.44736E-01  4.79770E-02  1.63442E-03 -1.37462E-01 -1.93212E-01  1.12023E-01
   1.32782E-01  2.85804E-01  4.81866E-01  3.62169E-01
 NY points of the fit to the data follow
   3.63468E-02  1.70303E-02 -8.51168E-03 -3.45406E-02 -4.89781E-02 -4.93172E-02 -4.81759E-02 -5.47582E-02 -5.82512E-02 -4.84651E-02
  -9.74160E-03  1.77062E-02  3.41362E-02  1.52683E-01  3.78731E-01  6.05610E-01  5.79905E-01  4.12763E-01  3.22341E-01  2.69238E-01
   1.79275E-01  1.01675E-01  5.54861E-02  2.33456E-02 -4.21860E-03 -3.26261E-02 -5.77763E-02 -7.55088E-02 -9.01948E-02 -1.05020E-01
  -1.16665E-01 -1.27620E-01 -1.44001E-01 -1.67034E-01 -1.93052E-01 -2.18385E-01 -2.40842E-01 -2.62047E-01 -2.54034E-01 -2.25645E-01
  -1.44236E-01 -7.82175E-02  1.47762E-02  7.97406E-02  1.47193E-01  1.78952E-01  1.85796E-01  1.81808E-01  1.54632E-01  1.23902E-01
   8.80316E-02  3.94016E-02 -2.01188E-03 -3.64863E-02 -8.06284E-02 -1.36841E-01 -1.81599E-01 -1.90572E-01 -1.45582E-01 -1.42254E-01
  -1.89750E-01 -1.94601E-01 -2.01098E-01 -1.88151E-01 -1.88842E-01 -5.54339E-02  1.40479E-01  1.76946E-01  2.50718E-01  3.74987E-01
   3.70083E-01  3.06581E-01  2.69694E-01  2.12452E-01  1.28089E-01  4.63267E-02 -2.59012E-02 -1.47725E-01 -2.75651E-01 -3.33057E-01
  -2.46506E-01 -1.06415E-01 -2.42997E-02  1.20054E-01  2.91003E-01  3.48985E-01  3.42328E-01  3.36892E-01  3.17103E-01  2.81373E-01
   2.51419E-01  2.26173E-01  1.93721E-01  1.59329E-01  1.17409E-01  5.77894E-02 -2.34774E-02 -1.17550E-01 -1.87379E-01 -2.05674E-01
  -1.46990E-01 -3.95849E-02  7.32263E-02  1.59709E-01  2.13696E-01  2.44424E-01  2.62327E-01  2.69745E-01  2.72191E-01  2.74933E-01
   2.76973E-01  2.78117E-01  2.79103E-01  2.80244E-01  2.81749E-01  2.84207E-01  2.87018E-01  2.83592E-01  2.84702E-01  2.79204E-01
   2.39961E-01  2.04029E-01  1.51512E-01  9.72612E-02  3.58993E-02 -4.74872E-02 -2.79625E-02 -1.44822E-01 -2.36708E-01 -2.86119E-01
  -3.23189E-01 -2.78793E-01 -2.56496E-01 -3.01146E-01 -6.21222E-01 -1.01914E+00 -1.17286E+00 -1.02184E+00 -7.86199E-01 -6.00750E-01
  -4.35114E-01 -2.83309E-01 -1.79333E-01 -1.21762E-01 -7.99918E-02 -4.68697E-02 -1.95258E-02  3.78797E-03  2.43600E-02  4.27706E-02
   6.01478E-02  7.67423E-02  9.30254E-02  1.09523E-01  1.27065E-01  1.45926E-01  1.66787E-01  1.90397E-01  2.17466E-01  2.49971E-01
   2.92983E-01  3.54354E-01  4.50963E-01  4.50294E-01  5.78165E-01  6.62412E-01  6.32540E-01  1.35768E-01 -4.48078E-01 -5.85303E-01
  -5.31465E-01 -5.68897E-01 -5.56217E-01 -4.67343E-01 -4.09137E-01 -3.64200E-01 -3.22757E-01 -2.92004E-01 -2.71119E-01 -2.49250E-01
  -2.28967E-01 -2.10727E-01 -1.98505E-01 -1.87699E-01 -1.78519E-01 -1.70747E-01 -1.63158E-01 -1.55240E-01 -1.48550E-01 -1.42697E-01
  -1.36035E-01 -1.29309E-01 -1.22998E-01 -1.17015E-01 -1.10909E-01 -1.05244E-01 -9.96455E-02 -9.33755E-02 -8.72159E-02 -8.10577E-02
  -7.38612E-02 -6.43038E-02 -5.60364E-02 -5.44637E-02 -5.81878E-02 -5.81928E-02 -5.04386E-02 -4.36878E-02 -4.67936E-02 -5.85959E-02
  -6.77989E-02 -7.13029E-02 -7.34683E-02 -7.53579E-02 -7.52443E-02 -7.41865E-02 -7.40384E-02 -7.39209E-02 -7.35008E-02 -7.17310E-02
  -6.07873E-02 -4.96998E-02 -3.05193E-02  1.01988E-02  8.97945E-02  1.80664E-01  2.01486E-01  1.76467E-01  1.98712E-01  2.85902E-01
   3.52370E-01  2.88433E-01  1.77530E-01  1.14937E-01  6.53572E-02  1.05997E-02 -2.33731E-02 -3.94762E-02 -5.11556E-02 -6.03066E-02
  -6.79546E-02 -7.48637E-02 -8.01036E-02 -8.54162E-02 -9.02316E-02 -9.54422E-02 -1.01203E-01 -1.06542E-01 -1.13345E-01 -1.21492E-01
  -1.32660E-01 -1.49589E-01 -1.52165E-01 -1.77792E-01 -1.90162E-01 -1.66397E-01 -1.08527E-01 -4.51621E-02 -5.30159E-02  8.13435E-03
   8.80626E-02  1.03641E-01  1.00879E-01  1.01072E-01  1.30542E-01  1.30249E-01  1.16392E-01  1.06451E-01  1.08214E-01  1.01885E-01
   8.35239E-02  6.17258E-02  3.53283E-02  5.79161E-03 -2.56586E-02 -5.89788E-02 -9.93892E-02 -1.36100E-01 -1.88648E-01 -2.40246E-01
  -2.90563E-01 -3.13739E-01 -2.71514E-01 -1.91304E-01 -5.43902E-02  8.23553E-02  1.85656E-01  2.61376E-01  2.80761E-01  2.53927E-01
   2.28074E-01  1.91884E-01  1.64648E-01  1.48553E-01  1.49119E-01  1.66042E-01  1.80383E-01  1.91406E-01  1.98688E-01  1.96893E-01
   1.90680E-01  1.84826E-01  1.77748E-01  1.71040E-01  1.65641E-01  1.60318E-01  1.55356E-01  1.50482E-01  1.44682E-01  1.37623E-01
   1.29460E-01  1.18585E-01  1.03949E-01  8.66331E-02  6.20077E-02  3.29858E-02 -1.11673E-02 -4.98723E-02 -9.71923E-02 -1.33414E-01
  -1.72258E-01 -1.90415E-01 -1.95307E-01 -1.83143E-01 -1.48304E-01 -9.51697E-02 -3.16286E-02  1.91310E-02  5.41445E-02  6.31021E-02
   4.95516E-02  3.20032E-02 -3.46450E-03 -1.42548E-02 -2.87792E-02 -1.72978E-02 -1.67393E-03 -2.20707E-02 -1.04278E-01 -9.94042E-02
  -3.38658E-01 -8.30994E-01 -1.48986E+00 -1.54919E+00 -1.06694E+00 -7.69509E-01 -6.24036E-01 -3.97077E-01 -2.18502E-01 -1.54198E-01
  -1.13555E-01 -8.47605E-02 -6.27721E-02 -4.63179E-02 -3.19361E-02 -2.13327E-02 -1.27306E-02 -9.03251E-03 -1.11421E-02 -1.54912E-02
  -2.97951E-02 -4.03703E-02 -5.66620E-02 -6.61428E-02 -6.99186E-02 -6.80124E-02 -5.95415E-02 -4.86408E-02 -3.77308E-02 -2.74228E-02
  -1.85303E-02 -1.16056E-02 -5.37155E-03 -4.46250E-04  3.19328E-03  6.61049E-03  9.80325E-03  1.28831E-02  1.55959E-02  1.81075E-02
   2.01732E-02  2.23304E-02  2.45375E-02  2.65732E-02  2.86061E-02  2.99959E-02  3.13456E-02  3.26061E-02  3.44152E-02  3.62471E-02
   3.81015E-02  3.98409E-02  4.10183E-02  4.14567E-02  4.13551E-02  4.09913E-02  4.06356E-02  4.00909E-02  3.91165E-02  3.76139E-02
   3.58754E-02  3.38456E-02  3.16654E-02  2.88965E-02  2.62037E-02  2.40038E-02  2.18342E-02  1.94418E-02  1.69409E-02  1.48937E-02
   1.29291E-02  1.10590E-02  9.48886E-03  8.01479E-03  6.51792E-03  5.20937E-03  3.80611E-03  2.42987E-03  1.34583E-03  3.78027E-04
  -5.67354E-04 -1.43759E-03 -1.92636E-03 -1.79048E-03 -1.58800E-03 -1.04332E-03 -8.64048E-05  1.15970E-03  2.56979E-03  4.17191E-03
   5.41784E-03  5.82128E-03  6.36001E-03  7.64551E-03  9.56175E-03  1.17264E-02  1.39676E-02  1.60413E-02  1.83662E-02  2.10840E-02
   2.42477E-02  2.76559E-02  3.11054E-02  3.47142E-02  3.81646E-02  4.15515E-02  4.47876E-02  4.71964E-02  4.85575E-02  4.87369E-02
   4.77332E-02  4.53747E-02  4.18747E-02  3.66120E-02  2.95597E-02  2.44968E-02  2.73919E-02  1.90754E-02  4.65220E-02  9.08549E-02
   1.95741E-01  2.74966E-01  3.19409E-01  3.21283E-01  2.68248E-01  2.13671E-01  1.77977E-01  1.43656E-01  1.14103E-01  9.88622E-02
   8.81437E-02  7.98697E-02  7.32291E-02  6.81006E-02  6.44218E-02  6.19677E-02  6.00999E-02  5.88926E-02  5.85111E-02  5.84839E-02
   5.88428E-02  5.97423E-02  6.09898E-02  6.19618E-02  6.27503E-02  6.34428E-02  6.38032E-02  6.40504E-02  6.46078E-02  6.54647E-02
   6.60087E-02  6.57247E-02  6.53319E-02  6.46833E-02  6.38479E-02  6.26866E-02  6.09937E-02  5.95463E-02  5.83590E-02  5.70419E-02
   5.54667E-02  5.39345E-02  5.24804E-02  5.10004E-02  4.94071E-02  4.76309E-02  4.58804E-02  4.44834E-02  4.34861E-02  4.23220E-02
   4.08255E-02  3.93177E-02  3.77745E-02  3.57098E-02  3.30405E-02  3.01788E-02  2.72939E-02  2.40015E-02  2.02232E-02  1.53781E-02
   9.67041E-03  3.13199E-03 -3.49963E-03 -1.01119E-02 -1.69278E-02 -2.36959E-02 -2.97339E-02 -3.52415E-02 -4.05860E-02 -4.53675E-02
  -4.88205E-02 -5.06813E-02 -5.17897E-02 -5.25896E-02 -5.23156E-02 -5.07113E-02 -4.86741E-02 -4.65738E-02 -4.44129E-02 -4.22925E-02
  -4.00123E-02 -3.74407E-02 -3.43047E-02 -3.10799E-02 -2.76029E-02 -2.35658E-02 -1.95918E-02 -1.55498E-02 -1.16445E-02 -7.74994E-03
  -4.12340E-03 -4.30294E-04  3.39280E-03  6.72000E-03  9.33494E-03  1.22003E-02  1.53134E-02  1.80894E-02  2.01419E-02  2.17028E-02
   2.37688E-02  2.56714E-02  2.69712E-02  2.81871E-02  2.91660E-02  3.00191E-02  3.09263E-02  3.15668E-02  3.18917E-02  3.22827E-02
   3.31316E-02  3.39912E-02  3.46983E-02  3.56912E-02  3.65646E-02  3.69683E-02  3.71493E-02  3.74237E-02  3.75575E-02  3.74887E-02
   3.75553E-02  3.75534E-02  3.73414E-02  3.74393E-02  3.75856E-02  3.74314E-02  3.75568E-02  3.80585E-02  3.83504E-02  3.78873E-02
   3.67391E-02  3.60836E-02  3.64558E-02  3.64952E-02  3.61305E-02  3.60729E-02  3.62998E-02  3.60786E-02  3.52444E-02  3.49065E-02
   3.51516E-02  3.55412E-02  3.57173E-02  3.58398E-02  3.61130E-02  3.65761E-02  3.69587E-02  3.72433E-02  3.72856E-02  3.77086E-02
   3.79586E-02  3.78036E-02  3.72065E-02  3.68755E-02  3.70109E-02  3.71724E-02  3.73237E-02  3.77894E-02  3.81651E-02  3.82505E-02
   3.83185E-02  3.86566E-02  3.96686E-02  4.04687E-02  4.07084E-02  4.05690E-02  3.99521E-02  3.96249E-02  3.97908E-02  4.00453E-02
   3.99900E-02  3.96269E-02  3.93043E-02  3.92176E-02  3.93075E-02  3.93101E-02  3.90623E-02  3.86968E-02  3.89797E-02  3.95980E-02
   3.96470E-02  3.93567E-02  3.95463E-02  3.98305E-02  3.99370E-02  4.00240E-02  4.04638E-02  4.14960E-02  4.28712E-02  4.37002E-02
   4.44152E-02  4.49768E-02  4.55753E-02  4.61031E-02
 NY background values follow
     3.880E-03    3.860E-03    3.841E-03    3.821E-03    3.801E-03    3.782E-03    3.762E-03    3.742E-03    3.722E-03    3.703E-03
     3.683E-03    3.663E-03    3.644E-03    3.624E-03    3.604E-03    3.585E-03    3.565E-03    3.545E-03    3.525E-03    3.506E-03
     3.486E-03    3.466E-03    3.447E-03    3.427E-03    3.407E-03    3.387E-03    3.368E-03    3.348E-03    3.328E-03    3.309E-03
     3.289E-03    3.269E-03    3.249E-03    3.230E-03    3.210E-03    3.190E-03    3.170E-03    3.151E-03    3.131E-03    3.111E-03
     3.092E-03    3.072E-03    3.052E-03    3.032E-03    3.013E-03    2.993E-03    2.973E-03    2.954E-03    2.934E-03    2.914E-03
     2.894E-03    2.875E-03    2.855E-03    2.835E-03    2.816E-03    2.796E-03    2.776E-03    2.756E-03    2.737E-03    2.717E-03
     2.697E-03    2.677E-03    2.658E-03    2.638E-03    2.618E-03    2.599E-03    2.579E-03    2.559E-03    2.539E-03    2.520E-03
