 
 $NMID
 ID=''
 FMTDAT='(2E13.5)'
 TRAMP=   1.00000E+0
 VOLUME=   1.00000E+0
 $END
   4.80619E+2  -3.30144E+2
  -5.44383E+1   1.53166E+3
   1.61439E+3  -2.73066E+3
  -4.48521E+2   9.90945E+2
   1.98044E+2  -1.62759E+3
  -1.25879E+3   3.40797E+2
   2.62404E+2   2.96293E+3
   5.54111E+2   1.49731E+2
   2.53102E+3  -2.80746E+2
  -1.62676E+3  -2.47794E+3
   2.97706E+3  -1.46910E+3
   3.99022E+3  -1.09349E+3
   8.95209E+2  -8.80200E+2
  -1.71223E+3   1.01372E+3
  -3.97254E+3   1.70715E+2
  -8.97483E+2  -3.15618E+3
   5.16896E+2  -1.20721E+3
   1.17529E+3   2.33188E+3
   1.00071E+3   2.74105E+3
  -1.27072E+3   5.88233E+2
   5.67299E+2  -1.23509E+3
   4.37433E+3   1.02650E+3
   1.11354E+3   3.76158E+3
  -2.64915E+3   2.22981E+2
   8.73837E+2  -2.95879E+3
   3.08519E+3   2.27188E+3
   1.63734E+3   2.82075E+3
  -1.72348E+3  -9.86087E+2
  -3.09156E+3  -3.70816E+3
   3.77410E+3  -5.07430E+3
   5.43375E+3   1.66523E+3
   4.84555E+2   6.01794E+3
  -3.50504E+3   1.62822E+3
  -1.89286E+3   8.35386E+2
  -2.05602E+3   1.28551E+3
  -4.33211E+3  -3.28661E+3
  -1.79326E+1  -4.41493E+3
   2.57393E+3  -7.74665E+2
   3.01123E+3   2.31626E+3
  -6.99543E+2   3.39636E+2
  -1.16410E+3   3.26687E+3
  -3.27448E+3   1.63014E+3
  -3.96816E+3  -1.25464E+2
   1.31748E+3  -5.14072E+3
   1.53180E+3  -1.23887E+3
  -3.03297E+3  -8.02537E+2
   1.32932E+2   1.01995E+2
   8.23834E+2   1.83120E+3
   1.26587E+2   2.64814E+3
  -2.72275E+3  -6.73790E+1
  -9.32229E+2  -2.24570E+3
  -4.24257E+2  -2.37442E+3
   1.51549E+3  -1.83803E+3
   3.24384E+3  -1.00636E+3
   2.32825E+3   1.58564E+3
  -1.15655E+3   1.96794E+3
  -1.06038E+3   3.20615E+3
  -3.55576E+3  -9.26897E+2
  -3.65480E+3  -2.62671E+3
  -1.49155E+3  -3.96215E+3
   4.75910E+2  -2.33480E+3
   3.82133E+3  -9.15900E+2
   3.55197E+3   2.06639E+2
   1.41744E+3   4.10372E+2
   8.27287E+2   1.34843E+2
   2.84388E+3   3.48082E+2
   1.97997E+3   2.32973E+3
  -1.27713E+2   2.59548E+3
   1.88151E+3   1.67200E+3
  -1.14019E+2   1.87372E+3
   1.39929E+3   3.30463E+3
  -1.33453E+3   1.57833E+3
  -4.26811E+2  -3.64126E+2
  -2.20078E+3   2.30667E+3
  -6.49406E+2  -1.24309E+3
   6.00895E+2   1.66524E+2
  -1.56265E+3  -1.54995E+3
  -1.91581E+3  -1.80584E+3
   1.37714E+3  -3.02555E+3
   6.68510E+2  -9.97172E+1
  -8.20934E+1  -8.29385E+2
   1.96610E+3  -1.17608E+3
  -5.04523E+2   1.23397E+3
   9.27632E+2  -6.90042E+2
  -1.97226E+3   9.07259E+2
  -1.85630E+3  -1.02585E+3
  -1.47005E+3  -8.66210E+2
   8.45796E+2  -5.11029E+2
  -9.66924E+2  -1.28701E+3
   3.17185E+2   6.83998E+2
  -4.16381E+2   1.80765E+3
   2.38179E+1   1.74006E+3
   2.48896E+3   2.27298E+3
  -9.21273E+2   2.62781E+3
  -1.63672E+3   1.55891E+3
  -1.97607E+3  -1.41180E+3
   3.62283E+2  -2.87837E+2
  -7.40715E+2   6.62855E+2
  -1.19581E+3   2.80476E+3
  -2.97236E+3   2.29402E+2
  -2.94321E+3  -9.78800E+2
   1.33518E+3  -8.52014E+2
   2.60386E+2   1.43031E+3
  -1.57437E+2   3.35365E+2
  -1.64748E+2   1.82151E+3
   2.10472E+2  -2.92468E+2
   3.72150E+2  -1.81699E+2
   5.51164E+1   1.62549E+2
   2.06658E+3  -9.66203E+2
  -4.36456E+2  -1.66588E+3
  -3.36384E+2  -8.63157E+2
   6.60376E+2  -8.97766E+2
   2.17869E+3   1.92659E+3
   1.21283E+3  -3.19725E+2
  -6.47376E+2  -1.37985E+3
  -2.79045E+2  -1.05261E+3
   1.87251E+2   1.32513E+2
   1.15367E+3  -4.15059E+2
   7.49433E+0  -1.03878E+3
   8.55778E+2  -1.63332E+3
  -2.88885E+2   1.62228E+3
  -1.91410E+2  -5.70988E+2
   5.07575E+1   4.84512E+2
   1.62856E+3   1.57192E+3
  -5.65275E+2  -9.60402E+2
   1.64692E+3   1.27435E+3
  -1.91333E+2  -6.87167E+2
  -9.29054E+2  -1.53873E+3
   1.20179E+3  -3.40936E+2
  -4.26190E+2  -1.94902E+3
   3.00810E+2  -1.39475E+3
  -5.45663E+2  -4.78598E+1
  -1.25693E+3   5.47843E+2
   6.18982E+1  -3.03448E+2
   1.93960E+3  -6.15475E+2
   1.47683E+2   8.93125E+2
   9.30304E+2  -2.12819E+3
   3.78057E+1  -3.88282E+2
  -4.92736E+2  -1.58024E+2
  -6.68921E+2  -5.42480E+2
  -5.68152E+2  -4.11661E+2
  -3.02975E+2  -5.19343E+2
  -1.11900E+2   5.14699E+2
   2.23028E+2  -1.76004E+3
   1.13014E+2   8.79285E+2
  -7.83510E+2   5.19885E+2
  -3.62740E+2  -4.76422E+2
   9.50599E+2  -1.55398E+3
   4.30163E+2   1.67347E+3
  -1.42113E+3   6.29377E+2
   2.48241E+3   1.25897E+1
   1.13515E+2  -1.47123E+2
  -2.17720E+3  -4.44322E+2
  -8.45922E+2  -4.20953E+2
  -6.05095E+2   4.11420E+2
  -4.68276E+1   5.57815E+2
  -3.99653E+2   1.56323E+2
  -3.66223E+2   4.95032E+2
   2.77405E+1   1.33545E+3
  -2.93661E+3   3.05478E+2
  -2.06068E+3  -1.47616E+3
   1.95329E+0  -2.82683E+2
  -9.49887E+2  -1.33030E+3
   1.92676E+3  -1.65327E+3
   5.90769E+2  -1.42124E+3
  -1.89796E+2  -5.89651E+2
   7.91499E+2   8.38345E+2
   4.21897E+1  -1.05087E+3
  -9.98450E+2  -1.76869E+3
  -8.20449E+2  -3.46304E+2
  -7.57844E+2  -1.51731E+3
   1.82408E+3   1.69031E+3
  -1.24262E+3  -6.97539E+1
   1.55658E+3   2.61559E+3
   7.06759E+2   2.07913E+3
  -4.72655E+2   8.48727E+2
  -2.00439E+3   7.22190E+2
  -2.71584E+2  -1.85696E+3
   3.63235E+2  -2.00948E+3
   1.11492E+3  -2.19704E+3
   1.25571E+3   7.44687E+2
  -4.28651E-1  -9.51894E+2
  -2.80171E+2   2.08822E+2
   4.56019E+2   4.99305E+1
   6.50137E+2   2.38989E+2
   6.69102E+2   1.30677E+2
  -1.06692E+3   1.36691E+3
  -2.19195E+2   1.54998E+3
  -1.68447E+1   6.54069E+2
  -2.20064E+3   9.21635E+2
   6.61195E+2   1.73999E+3
   9.30780E+2   7.96830E+1
   1.94523E+3   3.47803E+2
  -1.21294E+3  -5.26851E+2
  -8.07644E+2  -1.98760E+1
  -3.02922E+2   4.90880E+2
   1.17724E+3   1.03786E+3
   9.09659E+2  -3.29546E+2
   5.64889E+2   1.56084E+3
  -1.11130E+3  -5.25972E+2
  -4.43686E+2  -3.42316E+2
  -1.35786E+2   4.70754E+2
   1.68601E+3  -1.29350E+3
   3.42120E+2   4.81826E+2
   2.86791E+3  -1.54878E+3
   4.97090E+2  -5.90007E+2
   1.56689E+3  -1.31744E+3
   9.77321E+2  -1.09630E+3
  -7.47157E+2   1.14385E+3
   6.68954E+2  -1.01548E+3
  -8.13266E+1   9.96590E+2
  -6.82588E+2   2.73052E+3
   6.26147E+2   1.04292E+3
  -6.63819E+2  -1.13136E+3
   1.97400E+3  -5.39399E+2
   1.21289E+3  -4.15201E+2
   6.55696E+1   2.10921E+3
   1.95508E+3   2.00377E+3
   1.83114E+3   1.55799E+3
  -1.16695E+3   5.85244E+2
  -1.07769E+3   1.82796E+2
  -1.47779E+3   1.79374E+3
   2.63731E+2  -1.55285E+0
   4.92498E+2   1.28983E+2
   1.31351E+3   2.88991E+2
  -2.21320E+3  -1.34885E+3
   1.11265E+3   1.34290E+3
  -2.65048E+2  -2.66651E+2
  -8.60864E+1   7.65208E+1
   2.05257E+3  -6.98798E+2
   5.36558E+2   3.37277E+2
   1.01594E+3  -1.10923E+2
  -9.01508E+2  -1.97503E+1
  -8.85362E+1   4.78124E+2
   1.11554E+3   2.15601E+3
   4.37095E+2   1.22333E+3
   2.96737E+2  -7.17865E+1
  -3.99001E+2  -6.05709E+2
   5.49967E+2   2.43556E+3
  -1.59243E+2  -8.16420E+2
  -9.49716E+2  -1.33791E+3
  -3.01399E+2   1.25600E+3
   1.03560E+3   1.36453E+3
   1.35234E+3  -1.56168E+3
   8.05664E+2   1.66550E+3
  -9.40452E+2   1.04333E+3
   7.65811E+2  -1.18408E+3
  -1.58337E+3   2.56030E+3
   7.44376E+2  -1.37757E+0
   1.36951E+2  -1.26850E+2
   4.98676E+2  -1.79488E+3
  -2.05848E+3   5.99526E+2
   5.97745E+2   7.68041E+2
   6.18961E+2   2.08632E+2
  -3.15335E+2  -6.92449E+2
   4.62225E+2  -1.30755E+3
  -1.05783E+3  -1.99972E+2
  -3.94598E+2   1.49894E+2
  -8.65165E+2  -3.71518E+2
  -8.81772E+2  -3.03700E+3
   1.41994E+3   4.76267E+2
   5.69859E+2   1.30471E+3
  -2.49849E+2  -7.45570E+2
  -1.76897E+2  -1.32037E+3
  -1.27739E+3   1.37085E+2
  -1.81183E+2  -1.59706E+3
  -2.11382E+1   1.52421E+3
  -2.38796E+2   2.64861E+3
   5.03421E+2  -1.16283E+3
   5.97541E+1   8.68316E+2
  -1.48168E+3   1.09726E+3
  -1.17422E+3  -3.63041E+2
  -1.46817E+3   1.82035E+3
  -1.61212E+3  -1.59809E+3
   4.17371E+2   1.88357E+3
  -7.49405E+2   1.51962E+3
   5.49331E+1  -1.21750E+3
  -6.98639E+2   3.70334E+2
  -1.35153E+3  -1.95621E+2
  -1.09484E+3  -1.76146E+3
   1.74834E+2  -1.38479E+3
  -1.00129E+3  -5.47739E+2
  -1.06477E+3  -1.49083E+3
  -6.45937E+2  -6.06416E+2
  -6.24634E+2   3.39885E+2
  -1.89722E+3  -1.56031E+3
   2.12893E+3   2.56832E+2
   2.48564E+3   7.41732E+2
   8.00555E+2   1.09632E+3
  -6.28979E+2  -2.12832E+2
  -2.81596E+3  -1.11834E+3
  -6.16574E+2   1.28654E+3
   1.42971E+3  -5.05123E+2
   1.02719E+3   9.85280E+1
  -1.89922E+3  -2.34091E+3
   1.44055E+3  -7.83400E+2
  -5.85210E+2   2.80240E+2
   5.53728E+2  -1.74774E+2
  -1.87710E+3   1.53303E+3
  -9.98917E+2   6.40640E+1
  -1.74296E+3   6.50018E+2
  -1.74985E+3   3.23818E+1
  -6.75728E+2  -5.36709E+1
   1.90866E+2  -1.43457E+3
   3.99956E+2  -3.05424E+2
   6.17497E+2   1.88724E+3
   9.27383E+2   2.26091E+3
  -9.21066E+2   5.13900E+2
  -1.30035E+3  -1.94443E+3
   1.29931E+3  -7.73133E+2
   1.20625E+2   2.73778E+2
   1.21294E+3   1.43512E+2
   7.17174E+2   1.70992E+3
  -2.33109E+3  -8.85427E+2
   5.00611E+2  -1.02731E+3
  -3.41247E+2  -1.12409E+3
   9.57816E+2  -4.98997E+2
  -1.36552E+2  -6.22802E+2
   8.81254E+2   6.59951E+2
  -1.02323E+3  -1.18850E+3
   1.12778E+3   5.89071E+2
  -8.67558E+0   5.03963E+1
  -3.80976E+2  -2.90825E+0
   7.25129E+2  -6.60420E+2
   9.40551E+2   1.20797E+3
  -1.27334E+2  -1.01611E+2
  -3.02399E+3   5.24648E+2
  -9.42714E+1   1.22761E+3
   1.96277E+3  -7.46957E+2
  -5.83023E+2   1.38440E+2
   4.45880E+2  -1.03656E+3
  -2.16924E+3   7.06531E+2
  -6.80158E+2   8.58581E+2
  -7.78880E+2  -1.04635E+3
  -2.34428E+2  -1.09886E+2
   3.35058E+1   9.82944E+2
  -1.42386E+3   1.88688E+2
   3.94879E+1  -7.58700E+2
  -1.30548E+3   3.84751E+1
  -1.88888E+2   1.68834E+3
   9.53384E+2   1.66885E+3
  -1.66612E+2   1.13798E+2
   4.24051E+2  -4.09921E+2
  -3.12084E+2   6.69551E+2
   1.40464E+3   1.68717E+3
   1.58067E+2  -3.17647E+2
   1.72699E+3   1.50001E+2
   1.07484E+3   1.81955E+3
  -5.19604E+2  -1.83896E+3
  -4.13616E+2   6.71620E+2
  -7.63088E+2  -2.70399E+2
   6.70058E+2  -5.14098E+2
  -1.18409E+3   8.03867E+2
   1.11766E+3  -9.34659E+2
   8.28132E+2   6.29888E+2
   4.42240E+2  -2.11047E+3
  -7.54371E+2   1.39097E+1
   5.69459E+2  -9.71846E+2
   1.65620E+3  -1.88133E+3
  -1.42876E+3   1.64769E+3
  -1.54681E+3  -7.88851E+2
   1.36625E+2   5.18197E+2
  -6.03902E+2   2.03226E+2
   1.90617E+2  -3.79504E+2
  -6.39294E+2   1.32107E+3
   5.89300E+2  -7.43664E+2
  -8.75195E+2  -1.66797E+2
