 
 $NMID
 ID=''
 FMTDAT='(2E13.5)'
 TRAMP=   1.00000E+0
 VOLUME=   1.00000E+0
 $END
  -2.20986E+4  -3.31970E+3
  -5.20015E+4  -2.38974E+4
  -5.53141E+4  -1.38076E+4
  -5.10092E+4  -1.20491E+4
  -5.26354E+4  -1.38092E+4
  -5.34289E+4  -1.09535E+4
  -5.15207E+4  -1.05476E+4
  -5.21596E+4  -1.14051E+4
  -5.27619E+4  -9.54094E+3
  -5.16108E+4  -9.09888E+3
  -5.19774E+4  -9.38361E+3
  -5.22269E+4  -7.65134E+3
  -5.15513E+4  -6.89698E+3
  -5.19048E+4  -7.05141E+3
  -5.20171E+4  -5.72924E+3
  -5.12092E+4  -4.98645E+3
  -5.12728E+4  -4.77623E+3
  -5.11799E+4  -3.59805E+3
  -5.05598E+4  -2.72967E+3
  -5.05634E+4  -2.49424E+3
  -5.02647E+4  -1.54120E+3
  -4.96481E+4  -5.62663E+2
  -4.95826E+4  -2.10289E+2
  -4.93470E+4   5.48963E+2
  -4.86343E+4   1.30297E+3
  -4.84706E+4   1.75167E+3
  -4.82880E+4   2.39455E+3
  -4.76287E+4   2.85588E+3
  -4.73609E+4   3.15979E+3
  -4.70147E+4   3.78905E+3
  -4.64902E+4   4.44616E+3
  -4.62874E+4   4.81659E+3
  -4.61394E+4   5.35107E+3
  -4.55710E+4   5.82847E+3
  -4.52144E+4   6.38552E+3
  -4.50152E+4   7.05640E+3
  -4.45402E+4   7.62182E+3
  -4.42650E+4   8.07684E+3
  -4.40277E+4   8.76244E+3
  -4.36634E+4   9.35652E+3
  -4.34478E+4   9.83203E+3
  -4.33319E+4   1.01516E+4
  -4.29194E+4   1.05809E+4
  -4.25450E+4   1.10565E+4
  -4.22238E+4   1.15922E+4
  -4.19295E+4   1.20626E+4
  -4.15636E+4   1.24372E+4
  -4.12468E+4   1.28977E+4
  -4.08687E+4   1.33670E+4
  -4.05848E+4   1.37706E+4
  -4.01254E+4   1.41810E+4
  -3.97626E+4   1.45993E+4
  -3.91759E+4   1.49976E+4
  -3.88773E+4   1.54481E+4
  -3.85288E+4   1.58673E+4
  -3.81098E+4   1.62757E+4
  -3.76858E+4   1.66670E+4
  -3.72356E+4   1.70167E+4
  -3.67001E+4   1.73417E+4
  -3.62154E+4   1.77517E+4
  -3.56333E+4   1.81261E+4
  -3.52038E+4   1.84863E+4
  -3.47638E+4   1.88272E+4
  -3.43215E+4   1.91976E+4
  -3.38422E+4   1.94900E+4
  -3.33437E+4   1.98633E+4
  -3.28392E+4   2.01421E+4
  -3.23862E+4   2.04079E+4
  -3.19411E+4   2.05797E+4
  -3.14191E+4   2.08683E+4
  -3.08613E+4   2.11594E+4
  -3.04684E+4   2.14460E+4
  -3.00023E+4   2.16612E+4
  -2.95298E+4   2.17961E+4
  -2.89707E+4   2.21338E+4
  -2.83928E+4   2.23130E+4
  -2.78920E+4   2.26106E+4
  -2.74071E+4   2.27581E+4
  -2.68080E+4   2.29742E+4
  -2.62900E+4   2.32721E+4
  -2.57037E+4   2.34421E+4
  -2.52533E+4   2.35831E+4
  -2.46651E+4   2.38216E+4
  -2.42459E+4   2.39288E+4
  -2.37048E+4   2.41255E+4
  -2.32457E+4   2.42652E+4
  -2.26881E+4   2.43231E+4
  -2.21670E+4   2.45049E+4
  -2.16412E+4   2.46518E+4
  -2.11531E+4   2.47800E+4
  -2.07291E+4   2.49485E+4
  -2.02013E+4   2.50599E+4
  -1.96095E+4   2.52592E+4
  -1.91417E+4   2.54576E+4
  -1.86966E+4   2.55231E+4
  -1.81822E+4   2.56513E+4
  -1.75556E+4   2.57903E+4
  -1.70969E+4   2.59732E+4
  -1.67396E+4   2.60586E+4
  -1.63347E+4   2.61236E+4
  -1.58144E+4   2.61868E+4
  -1.53237E+4   2.62906E+4
  -1.48710E+4   2.64687E+4
  -1.44282E+4   2.65666E+4
  -1.39904E+4   2.65917E+4
  -1.36118E+4   2.66564E+4
  -1.32098E+4   2.67333E+4
  -1.27600E+4   2.67597E+4
  -1.23138E+4   2.68134E+4
  -1.19233E+4   2.67035E+4
  -1.14608E+4   2.67440E+4
  -1.10453E+4   2.68056E+4
  -1.06996E+4   2.68455E+4
  -1.02938E+4   2.67759E+4
  -9.97466E+3   2.67561E+4
  -9.61339E+3   2.66937E+4
  -9.19866E+3   2.66481E+4
  -8.89052E+3   2.65222E+4
  -8.47276E+3   2.64595E+4
  -8.10323E+3   2.63586E+4
  -7.68038E+3   2.62924E+4
  -7.33797E+3   2.62595E+4
  -7.04023E+3   2.60918E+4
  -6.60764E+3   2.58513E+4
  -6.31311E+3   2.57890E+4
  -5.91797E+3   2.56312E+4
  -5.56782E+3   2.54464E+4
  -5.13136E+3   2.53005E+4
  -4.81047E+3   2.51483E+4
  -4.44802E+3   2.49663E+4
  -4.13121E+3   2.47815E+4
  -3.80071E+3   2.45343E+4
  -3.32515E+3   2.43313E+4
  -3.06672E+3   2.41357E+4
  -2.68323E+3   2.39830E+4
  -2.38593E+3   2.38411E+4
  -2.11420E+3   2.34931E+4
  -1.65156E+3   2.32583E+4
  -1.32258E+3   2.30273E+4
  -9.89181E+2   2.28383E+4
  -6.37740E+2   2.25599E+4
  -3.40382E+2   2.23088E+4
   3.67485E+0   2.21072E+4
   2.48455E+2   2.18542E+4
   5.97196E+2   2.16259E+4
   9.28874E+2   2.13715E+4
   1.31800E+3   2.10908E+4
   1.59312E+3   2.07838E+4
   1.88284E+3   2.05851E+4
   2.19704E+3   2.04329E+4
   2.39608E+3   2.01027E+4
   2.74967E+3   1.98111E+4
   3.08901E+3   1.95553E+4
   3.32722E+3   1.93097E+4
   3.60539E+3   1.90240E+4
   3.78173E+3   1.88534E+4
   4.08257E+3   1.85656E+4
   4.39928E+3   1.83044E+4
   4.60458E+3   1.80697E+4
   4.88147E+3   1.78187E+4
   5.04688E+3   1.75686E+4
   5.32744E+3   1.73590E+4
   5.52010E+3   1.70629E+4
   5.73486E+3   1.67961E+4
   5.98646E+3   1.65734E+4
   6.20237E+3   1.63348E+4
   6.30229E+3   1.60480E+4
   6.58380E+3   1.57525E+4
   6.77829E+3   1.54744E+4
   7.02124E+3   1.52616E+4
   7.12218E+3   1.50369E+4
   7.31903E+3   1.47317E+4
   7.43999E+3   1.45249E+4
   7.67019E+3   1.42605E+4
   7.82522E+3   1.39460E+4
   7.98877E+3   1.36722E+4
   8.14204E+3   1.33800E+4
   8.30663E+3   1.31067E+4
   8.40176E+3   1.28472E+4
   8.56849E+3   1.26745E+4
   8.70104E+3   1.23684E+4
   8.83051E+3   1.21150E+4
   8.93097E+3   1.17831E+4
   9.00547E+3   1.16637E+4
   9.22464E+3   1.13312E+4
   9.28543E+3   1.10659E+4
   9.30922E+3   1.07653E+4
   9.49474E+3   1.06387E+4
   9.56093E+3   1.03137E+4
   9.63115E+3   1.01091E+4
   9.73192E+3   9.81427E+3
   9.82820E+3   9.57276E+3
   9.86263E+3   9.38220E+3
   9.97871E+3   9.10272E+3
   9.98228E+3   8.94829E+3
   1.01188E+4   8.67649E+3
   1.01226E+4   8.38418E+3
   1.01200E+4   8.21137E+3
   1.01949E+4   7.98801E+3
   1.02755E+4   7.78590E+3
   1.02682E+4   7.57525E+3
   1.02958E+4   7.40654E+3
   1.03428E+4   7.09749E+3
   1.03254E+4   6.88767E+3
   1.03432E+4   6.68117E+3
   1.04162E+4   6.50468E+3
   1.03696E+4   6.32485E+3
   1.03979E+4   6.12910E+3
   1.03569E+4   5.91693E+3
   1.03871E+4   5.77615E+3
   1.04104E+4   5.54796E+3
   1.03084E+4   5.37794E+3
   1.03158E+4   5.09921E+3
   1.03817E+4   4.95390E+3
   1.03614E+4   4.79763E+3
   1.02846E+4   4.67847E+3
   1.02414E+4   4.44860E+3
   1.01890E+4   4.31910E+3
   1.02097E+4   4.10108E+3
   1.01673E+4   3.88113E+3
   1.00998E+4   3.79009E+3
   1.00668E+4   3.64508E+3
   1.00683E+4   3.47128E+3
   9.94549E+3   3.28476E+3
   9.93294E+3   3.09995E+3
   9.87136E+3   3.02007E+3
   9.77158E+3   2.83586E+3
   9.76451E+3   2.66830E+3
   9.68328E+3   2.58582E+3
   9.64497E+3   2.42981E+3
   9.57720E+3   2.30134E+3
   9.50970E+3   2.19385E+3
   9.48797E+3   2.00308E+3
   9.40436E+3   1.84210E+3
   9.34709E+3   1.67490E+3
   9.27777E+3   1.61043E+3
   9.26907E+3   1.47713E+3
   9.11460E+3   1.36285E+3
   9.02066E+3   1.30360E+3
   8.86227E+3   1.09870E+3
   8.97326E+3   9.65467E+2
   8.89087E+3   9.06222E+2
   8.80820E+3   7.91742E+2
   8.70650E+3   6.76239E+2
   8.61861E+3   5.55656E+2
   8.52127E+3   4.40224E+2
   8.51711E+3   3.21995E+2
   8.40627E+3   2.15347E+2
   8.37077E+3   1.16818E+2
   8.28052E+3   2.25687E+1
   8.18178E+3  -6.49456E+1
   8.08577E+3  -1.49147E+2
   8.00014E+3  -2.23231E+2
   7.92026E+3  -2.99338E+2
   7.82487E+3  -4.71465E+2
   7.77951E+3  -4.56703E+2
   7.61527E+3  -6.19369E+2
   7.54744E+3  -6.65278E+2
   7.57866E+3  -7.39489E+2
   7.43274E+3  -8.17358E+2
   7.35538E+3  -9.10306E+2
   7.26918E+3  -8.95861E+2
   7.21576E+3  -1.06858E+3
   7.12726E+3  -1.09833E+3
   7.04483E+3  -1.13142E+3
   6.97314E+3  -1.16930E+3
   6.90007E+3  -1.31564E+3
   6.79117E+3  -1.30443E+3
   6.73490E+3  -1.34868E+3
   6.61621E+3  -1.45438E+3
   6.54410E+3  -1.50263E+3
   6.41684E+3  -1.54635E+3
   6.35115E+3  -1.64449E+3
   6.30648E+3  -1.70533E+3
   6.17885E+3  -1.75742E+3
   6.05255E+3  -1.77176E+3
   5.99294E+3  -1.81018E+3
   5.93222E+3  -1.86610E+3
   5.92055E+3  -1.92298E+3
   5.79317E+3  -1.89583E+3
   5.74612E+3  -2.03006E+3
   5.65432E+3  -2.06212E+3
   5.56658E+3  -2.06112E+3
   5.48530E+3  -2.08589E+3
   5.33630E+3  -2.16460E+3
   5.33887E+3  -2.19815E+3
   5.32527E+3  -2.25479E+3
   5.21278E+3  -2.18879E+3
   5.04696E+3  -2.29161E+3
   5.04519E+3  -2.30610E+3
   4.94251E+3  -2.36104E+3
   4.90486E+3  -2.37957E+3
   4.87213E+3  -2.45456E+3
   4.76822E+3  -2.40477E+3
   4.65981E+3  -2.45793E+3
   4.59052E+3  -2.47812E+3
   4.50164E+3  -2.46548E+3
   4.46851E+3  -2.53787E+3
   4.34452E+3  -2.52328E+3
   4.30823E+3  -2.50858E+3
   4.27943E+3  -2.56186E+3
   4.15635E+3  -2.62012E+3
   4.09095E+3  -2.68954E+3
   4.01830E+3  -2.66917E+3
   3.94755E+3  -2.67020E+3
   3.93499E+3  -2.65946E+3
   3.81776E+3  -2.69109E+3
   3.78479E+3  -2.70117E+3
   3.79596E+3  -2.72218E+3
   3.67352E+3  -2.77029E+3
   3.58420E+3  -2.73426E+3
   3.53626E+3  -2.76139E+3
   3.46058E+3  -2.72249E+3
   3.40461E+3  -2.79085E+3
   3.35052E+3  -2.74910E+3
   3.31635E+3  -2.84411E+3
   3.21147E+3  -2.82074E+3
   3.21432E+3  -2.81171E+3
   3.04363E+3  -2.83828E+3
   2.99859E+3  -2.84114E+3
   2.96513E+3  -2.87426E+3
   2.95621E+3  -2.87403E+3
   2.83248E+3  -2.88278E+3
   2.83319E+3  -2.76661E+3
   2.73710E+3  -2.84556E+3
   2.69662E+3  -2.85501E+3
   2.61773E+3  -2.86994E+3
   2.60297E+3  -2.88174E+3
   2.53207E+3  -2.86752E+3
   2.42322E+3  -2.91195E+3
   2.32635E+3  -2.87711E+3
   2.34095E+3  -2.90479E+3
   2.34650E+3  -2.87786E+3
   2.26645E+3  -2.86934E+3
   2.18832E+3  -2.87476E+3
   2.15703E+3  -2.90713E+3
   2.02369E+3  -2.87226E+3
   1.98583E+3  -2.90660E+3
   1.97929E+3  -2.91091E+3
   1.93520E+3  -2.94330E+3
   1.83150E+3  -2.88074E+3
   1.83855E+3  -2.88731E+3
   1.67937E+3  -2.90662E+3
   1.72040E+3  -2.87154E+3
   1.65323E+3  -2.86832E+3
   1.65174E+3  -2.86710E+3
   1.59287E+3  -2.86210E+3
   1.50251E+3  -2.86636E+3
   1.46747E+3  -2.83946E+3
   1.44999E+3  -2.86012E+3
   1.37168E+3  -2.85234E+3
   1.33094E+3  -2.89256E+3
   1.23313E+3  -2.82155E+3
   1.21787E+3  -2.85742E+3
   1.17428E+3  -2.76244E+3
   1.10088E+3  -2.85701E+3
   1.03900E+3  -2.81735E+3
   1.01466E+3  -2.84780E+3
   1.00778E+3  -2.85032E+3
   9.28582E+2  -2.87143E+3
   9.20485E+2  -2.82741E+3
   8.43240E+2  -2.83298E+3
   8.20765E+2  -2.78923E+3
   8.40290E+2  -2.83650E+3
   7.55291E+2  -2.74200E+3
   7.29218E+2  -2.71203E+3
   6.56542E+2  -2.73321E+3
