 
 $NMID
 ID=''
 FMTDAT='(2E13.5)'
 TRAMP=   1.00000E+0
 VOLUME=   1.00000E+0
 $END
   8.28393E+2   4.12023E+2
  -1.05510E+3   3.01254E+3
   1.00297E+4  -4.53344E+3
   5.06349E+1  -4.71028E+3
  -2.91251E+3  -2.31937E+3
  -5.38467E+2  -3.30763E+2
  -1.50665E+3   1.74546E+3
  -2.12283E+3  -1.66187E+3
   2.01789E+3  -4.09435E+3
   1.70699E+3  -2.84492E+3
   3.21657E+3  -1.48043E+3
   2.48688E+3   4.49346E+1
   2.32240E+2  -2.62403E+3
  -2.88541E+3  -1.37354E+3
  -1.95206E+3  -2.80842E+3
  -1.88365E+3  -1.38320E+3
  -8.99696E+2  -1.96255E+3
   1.66405E+3  -1.08218E+3
  -1.07965E+3  -4.30694E+2
  -3.35157E+3  -2.85029E+3
   2.56095E+3  -9.27470E+2
   2.23240E+3   3.00481E+3
  -6.00463E+3   6.56893E+2
  -3.31476E+3  -4.30343E+3
   5.86381E+2  -1.52932E+2
  -3.12115E+3   3.38344E+3
  -4.67131E+3   8.95963E+2
  -4.10382E+3  -3.67217E+3
  -1.11645E+3   1.32776E+1
   2.35647E+3   1.98995E+3
   2.35281E+3   5.75502E+3
   1.47715E+2   4.04537E+3
  -1.45439E+3   2.59838E+3
  -1.01853E+3   1.62580E+3
   8.29942E+2   1.64549E+3
  -1.38794E+3  -1.43689E+3
   2.93681E+3  -2.73430E+3
   2.01646E+3   2.05192E+2
   1.25999E+3   2.98778E+3
  -4.99239E+2   1.08397E+3
  -1.06506E+3   4.66576E+2
  -3.68111E+3  -2.91933E+3
  -2.25831E+3  -5.14022E+3
   3.45250E+3  -2.77174E+3
   8.03163E+3   2.21312E+3
   1.89268E+3   2.94441E+3
   2.78382E+3   3.70844E+3
   1.41311E+3   4.98388E+3
   9.02280E+2   4.24559E+3
   1.26402E+3   1.95233E+3
  -2.13573E+3   1.25345E+3
  -8.85609E+2  -2.47730E+3
   2.36041E+3  -3.89122E+2
   1.31610E+3   8.37914E+2
  -1.79178E+3   2.62649E+3
  -2.38118E+3  -3.99868E+2
  -5.25419E+3  -1.22006E+3
  -3.82344E+3  -3.66193E+3
  -3.02947E+3  -5.80388E+3
   2.01614E+3  -3.00083E+3
   1.42050E+3  -1.10560E+3
   6.37006E+3   1.44839E+3
   1.24381E+3  -3.51672E+2
   1.92274E+3  -1.23585E+2
   1.93170E+3  -1.04932E+3
   3.34029E+3   9.05273E+2
   1.08942E+3   2.12675E+3
  -2.12485E+3   3.07289E+2
  -3.08676E+2   1.42622E+2
  -1.17161E+3  -1.99946E+3
  -2.26920E+2   3.34216E+2
  -3.45961E+3   1.35018E+3
  -1.08571E+3  -1.69649E+3
   9.29644E+2  -1.28258E+3
  -6.42321E+2  -2.32516E+3
   2.04837E+2   6.02725E+1
  -9.56304E+2  -1.20396E+3
   1.41941E+3  -2.16816E+3
   1.85864E+3  -3.16986E+3
   1.98129E+3  -1.30671E+3
   3.02225E+2  -1.53394E+2
   1.30658E+2  -1.82968E+3
   1.91759E+3  -2.53273E+2
   1.18222E+3   2.12414E+3
  -1.00239E+3   4.84959E+2
   8.01693E+1  -5.21121E+2
   7.99105E+2  -7.45902E+2
   2.00623E+3  -5.53247E+2
   2.98845E+3   3.06082E+3
   4.01183E+2   3.59474E+3
  -6.47735E+2   2.15618E+3
  -4.42510E+2   9.56932E+2
  -1.29265E+3   3.29336E+3
  -2.86019E+3   4.36213E+3
  -3.40601E+3  -9.89608E+2
  -1.37373E+3  -2.09197E+3
   1.33487E+3  -1.11503E+2
  -1.49509E+2   3.22632E+3
  -1.05558E+3   5.58080E+2
  -2.30152E+3  -3.55158E+3
   2.90233E+1  -1.51334E+3
   2.62643E+3  -1.56379E+2
   2.87837E+3   1.21683E+3
  -7.18419E+2   2.72828E+3
  -2.77955E+3   8.68565E+2
  -1.68806E+3   6.13346E+2
  -1.55979E+3  -1.26188E+3
  -2.57262E+3  -7.56881E+2
  -1.11069E+3  -1.96012E+3
   2.14461E+3  -2.88126E+3
   5.55109E+2   1.05619E+3
   3.14551E+3   3.05653E+3
  -1.53979E+3   9.80207E+2
  -8.41561E+2   9.81619E+2
  -1.03804E+3   7.22170E+2
  -3.32873E+3  -3.64722E+2
  -2.54118E+3  -2.37138E+3
  -2.12348E+3  -1.31043E+3
   2.63517E+3  -1.28946E+3
   1.62879E+3  -6.13065E+2
   1.55417E+3   1.33996E+3
   6.63273E+1  -8.01564E+2
  -7.66113E+2  -2.50839E+3
   1.03429E+3  -4.36765E+2
   9.62825E+2  -2.99718E+2
  -4.34379E+2   1.42566E+2
   2.13275E+3  -4.42395E+2
  -3.55358E+2   1.12230E+3
  -1.21768E+3   1.45445E+3
   1.31940E+3   9.23769E+2
  -2.65033E+3  -2.37850E+3
   9.91904E+2  -4.12201E+2
   1.71316E+3  -1.21935E+2
   1.46372E+3   3.71229E+3
  -3.36159E+3   7.88824E+2
  -2.22677E+3   9.90869E+2
   8.67466E+1  -1.62536E+2
   8.36563E+1   1.84094E+3
  -4.81969E+2  -5.34121E+1
   3.93878E+2   3.40707E+2
  -2.22437E+0  -2.26719E+3
  -8.62127E+2  -8.77429E+2
   1.04460E+3   6.26614E+2
  -8.66180E+2   6.83056E+2
   9.51054E+1   5.60196E+2
   2.34363E+2  -1.07452E+3
  -1.10670E+2   1.93429E+3
   4.13417E+2   2.65752E+1
  -7.48387E+2   2.60011E+2
  -3.59155E+3  -1.66507E+3
  -1.61447E+3   6.65845E+2
  -1.18488E+3  -1.89753E+3
  -3.98229E+2  -1.10122E+3
   1.76803E+3  -2.19453E+3
   6.33276E+2  -2.29101E+2
   2.80162E+3   1.13641E+3
  -1.53632E+3   1.64398E+3
  -2.56738E+3   1.93120E+3
  -2.84002E+2  -3.28860E+2
   1.72171E+2  -1.09770E+3
   6.81360E+2  -6.43841E+2
  -6.23402E+2  -1.15874E+3
   5.55705E+2  -9.31973E+2
   5.26719E+2  -1.99929E+3
   1.38840E+3  -1.01516E+3
   8.81604E+1   3.39661E+2
   1.54444E+3  -5.37650E+2
   1.78109E+3  -1.23760E+3
   1.16710E+3   1.15640E+3
  -9.22629E+2   1.17315E+3
  -1.93066E+3  -1.69240E+2
  -2.23698E+3   2.96188E+2
  -5.40407E+2  -2.38172E+3
   3.66452E+2  -1.39039E+3
  -6.78110E+2  -5.59034E+2
   8.49463E+2  -3.56523E+1
   2.44844E+3  -5.57503E+2
   1.91421E+3   1.34487E+3
  -1.06517E+3   4.34486E+2
  -9.95882E+1   1.10306E+3
   7.36665E+2  -1.22200E+3
   2.98236E+3  -2.98539E+2
   1.33620E+3   5.20394E+2
   1.28948E+3  -2.27217E+2
   1.37309E+3  -1.19463E+3
   2.07112E+3   6.41868E+2
  -8.18563E+2   9.86498E+2
  -2.04712E+3   1.78543E+3
   1.37441E+3   4.99228E+2
   1.54455E+3  -5.57094E+2
   1.22897E+3  -2.89025E+2
   2.08710E+3   6.51780E+2
   8.85497E+2   1.88106E+3
  -5.05569E+2   1.96599E+3
   5.43727E+2   1.97054E+3
   1.18562E+3   1.58799E+3
  -1.85430E+3   2.11791E+3
   1.00395E+3   7.38769E+2
   1.05180E+3   6.97717E+2
   1.45027E+2   4.61246E+2
  -2.33091E+3  -1.37000E+2
  -5.26840E+2  -3.77984E+2
   2.40899E+3  -1.54990E+3
   1.84256E+3   2.17974E+2
   1.20765E+3  -2.01674E+2
  -6.50838E+2  -3.46993E+2
   1.33201E+3   1.23595E+3
  -6.91931E+2   2.81811E+2
   1.32122E+3  -3.50560E+2
  -2.03284E+3   1.64267E+3
  -2.01282E+3  -4.43416E+2
  -1.05560E+3  -1.98753E+3
   2.36193E+3  -4.24903E+2
   4.83857E+2   5.83732E+2
   4.73531E+2   8.60950E+2
   5.07474E+2  -9.63723E+2
   1.22068E+2  -1.24055E+3
   1.16579E+2  -1.46009E+3
   7.49545E+2  -3.48197E+2
   3.31333E+2  -1.20988E+3
   6.05501E+2  -1.71991E+3
   2.63618E+2  -7.29739E+2
  -1.79281E+3   1.07659E+3
   1.87007E+3  -6.18655E+2
   1.36759E+3  -6.34321E+2
   2.65034E+2  -6.34515E+2
  -7.11181E+2   5.22817E+2
   7.59603E+2  -2.09793E+2
  -2.29020E+3   1.14350E+3
   4.15364E+2  -3.42412E+2
  -1.23020E+3   5.48920E+2
  -1.03534E+3  -5.38474E+2
  -4.27231E+2  -8.64622E+1
   9.63708E+2  -3.69429E+3
   1.11428E+3  -9.97832E+2
  -3.15913E+2   1.97297E+3
   6.61130E+2   5.06729E+2
  -6.27935E+2   1.02330E+2
   9.49903E+2  -4.31670E+2
  -6.31412E+2  -6.58613E+2
  -1.92180E+2   4.08148E+2
   5.79688E+2  -3.87534E+2
  -2.11871E+3   7.66601E+2
  -2.50478E+2  -4.28394E+1
   2.07250E+3   3.89630E+2
   1.16704E+1   9.51696E+2
   1.03335E+3  -5.21490E+2
   2.17119E+3   3.24371E+2
   1.37967E+3   2.79617E+2
  -1.48412E+3  -2.09926E+2
  -3.35083E+2   1.12901E+3
  -2.57966E+3   1.96076E+2
   4.78948E+2   9.79360E+2
   4.19001E+2   4.90337E+2
   2.13425E+3   3.91412E+2
  -1.54265E+3  -1.62907E+2
   4.65362E+2   3.97925E+0
   6.16863E+2  -9.74657E+2
   2.37510E+1  -1.80643E+2
  -1.53360E+3   2.91880E+2
   2.71159E+2   1.60828E+3
  -8.99115E+2  -1.17507E+3
  -6.45417E+2   3.90383E+2
  -2.23863E+3   9.68809E+2
  -2.52898E+2   2.26761E+1
  -1.99665E+3  -2.96229E+3
  -2.02701E+3  -1.31565E+3
   3.49021E+2  -4.81557E+2
   3.36180E+2   1.54244E+2
   6.20565E+2  -2.22250E+3
   2.82288E+2  -1.24302E+3
   5.18146E+1   7.75851E+1
  -1.62440E+3   1.61911E+3
  -2.44322E+3  -4.88282E+2
   4.95253E+2  -1.42307E+2
  -1.28698E+3   1.15222E+3
  -1.35338E+3   3.11158E+2
   3.47502E+1   1.91294E+2
  -1.65571E+3  -2.60940E+2
  -5.64337E+1  -4.55422E+2
  -1.17332E+3   8.35969E+2
  -1.07461E+3   1.41018E+3
  -3.50109E+2   2.03865E+2
  -6.69323E+2  -4.20335E+2
   1.37149E+3  -1.55756E+3
  -6.56859E+2  -7.45077E+2
  -1.72156E+3   4.60374E+2
  -1.83048E+3  -2.79965E+3
  -1.20930E+3  -7.64603E+2
   1.94994E+2   1.38273E+2
  -3.13922E+3   8.81747E+2
  -1.31965E+3  -4.37767E+2
  -1.36696E+3  -1.98162E+3
  -1.26543E+3  -2.21876E+3
   8.48171E+2   2.32177E+2
  -3.81620E+2  -1.63305E+3
   8.28952E+2   8.88549E+2
   8.63571E+2  -2.29696E+3
  -1.38942E+3  -8.28671E+2
  -1.06849E+3  -2.08771E+2
  -1.46939E+3   1.61090E+3
  -8.57758E+2   5.47278E+2
  -5.47822E+2   8.82606E+2
  -7.32052E+2  -1.55321E+3
   3.06709E+2  -9.08319E+2
  -2.25875E+2   5.39838E+2
   1.79535E+3   1.09792E+3
  -9.11109E+2   2.12601E+3
  -1.16942E+3   6.62298E+2
  -1.00678E+3  -8.84597E+2
   1.07264E+2   2.67260E+3
   6.19399E+2   1.06973E+3
   2.33375E+2  -9.69665E+2
   9.87732E+2  -8.78669E+2
   2.44456E+3  -2.88376E+2
   5.65679E+2  -3.35953E+2
   1.05989E+3   1.23100E+2
   5.96631E+1  -4.31021E+2
  -1.35709E+3  -6.26847E+2
  -7.81774E+2  -5.13906E+2
   1.10037E+3  -1.51966E+2
   6.41582E+2   6.81583E+2
  -6.81670E+2  -8.19793E+2
  -2.09208E+2   3.89077E+2
   2.52261E+3   1.79560E+3
  -6.94358E+2  -1.05463E+3
  -1.43356E+3   3.74497E+1
   4.98071E+2  -1.05680E+3
   3.62066E+2   6.77711E+2
   8.04997E+2  -5.40182E+2
   1.64894E+3  -1.02175E+3
  -1.41290E+2  -1.05516E+3
   1.04596E+3  -3.05450E+2
   1.60203E+3  -1.09308E+3
   2.73616E+1  -3.73118E+2
  -7.55219E+2   1.46604E+3
  -1.79796E+3  -1.91493E+3
   1.13220E+1   2.45743E+3
   1.20366E+2   2.54411E+2
  -7.47902E+2   1.13484E+3
   1.34183E+3   1.87940E+3
   3.84499E+2   4.68242E+1
   1.31558E+3   7.64775E+2
   1.27342E+3  -1.03749E+2
  -3.23129E+3   1.43695E+3
   3.06279E+2   1.27123E+3
   5.13499E+2  -5.15364E+2
  -1.52328E+2  -9.02858E+2
   1.08611E+2   2.15413E+3
   1.13477E+3  -2.29829E+2
  -2.25650E+2  -1.07501E+3
   1.47613E+3  -7.30689E+2
   6.06546E+2  -4.07810E+2
  -7.90795E+2  -5.77700E+2
   1.02534E+3   7.46962E+2
   9.63548E+2  -3.10414E+2
   8.34356E+2  -5.74925E+2
   8.58268E+2   8.21512E+2
  -6.51647E+1   5.04217E+2
  -1.09461E+3   8.35848E-1
   7.19747E+2  -7.76571E+1
  -1.57447E+3   1.80942E+3
   1.05503E+3   3.25114E+2
  -1.62981E+1  -5.88081E+1
   9.45839E+2   2.49560E+2
   6.29347E+2   1.38693E+2
  -8.21500E+2   1.45303E+3
