 
 $NMID
 ID=''
 FMTDAT='(2E13.5)'
 TRAMP=   1.00000E+0
 VOLUME=   1.00000E+0
 $END
  -1.31363E+2   1.11433E+2
  -1.27963E+3   9.86132E+2
   2.38095E+3   1.34733E+3
   2.07528E+3   4.91923E+2
   8.60110E+2   5.23815E+2
   2.81368E+3   6.18591E+2
   5.24921E+2  -3.24903E+2
   4.90801E+2  -3.12322E+3
  -6.18925E+2  -2.38202E+3
   2.10000E+3  -3.26843E+3
   2.64681E+3  -1.15375E+3
   2.37134E+3   1.08480E+3
  -1.11946E+3   2.78426E+3
  -3.85792E+3  -9.36187E+2
  -1.85865E+3  -3.38908E+3
   1.08169E+3  -2.84712E+3
   1.07758E+3  -1.00814E+3
   1.59843E+3  -1.60433E+3
   7.09167E+2  -3.85190E+2
   8.28265E+1  -2.06572E+3
   7.68240E+2  -8.51257E+2
  -2.82236E+3   1.24716E+3
  -3.80028E+3  -1.26050E+3
  -1.27685E+3  -4.53999E+3
   1.91620E+3  -1.92979E+3
  -1.76895E+3   1.29390E+3
  -4.43919E+3  -2.05172E+2
  -1.99022E+2  -3.37842E+3
   6.22311E+2  -5.77584E+3
   5.65965E+3   8.03924E+2
   1.24796E+3   7.09907E+3
  -6.10275E+3   2.90173E+3
  -5.12078E+3  -2.83975E+3
  -7.70757E+2   3.11065E+2
  -3.25320E+3   3.13636E+3
  -3.41658E+3  -5.04809E+3
   4.07812E+3  -1.66252E+3
   5.82272E+3   4.72946E+3
   3.76019E+3   5.21885E+3
   1.04647E+2   2.72951E+3
  -5.77908E+2   5.38999E+3
  -4.41082E+3   1.01912E+3
   2.84324E+3  -6.09287E+3
   7.31242E+3   5.88643E+2
   3.33134E+3   4.05809E+3
  -1.15429E+3   3.49113E+3
  -6.76765E+2   6.02170E+2
  -9.36756E+2   3.54830E+3
  -3.39759E+3   9.77240E+2
  -2.07027E+3  -5.50858E+2
  -2.80593E+3  -1.89181E+3
   9.19227E+2  -3.66751E+3
   4.96750E+3  -5.46730E+2
   1.19421E+3   4.03693E+3
  -6.03993E+2   1.99504E+3
  -2.15147E+3   2.10229E+3
  -4.45544E+3   5.55869E+2
  -3.31833E+3  -3.93679E+3
   1.46668E+3  -6.20550E+3
   1.18176E+2  -4.41274E+3
   3.58895E+3  -2.56551E+3
   3.23920E+3   2.37053E+3
  -1.48740E+3   2.20989E+3
  -3.86883E+3  -2.83599E+2
   1.73114E+3  -2.62758E+3
   1.79397E+3   2.17629E+3
  -8.01901E+2   3.27854E+3
  -2.66769E+3  -7.85738E+2
   8.38063E+2  -4.12245E+3
   1.01090E+3   5.54896E+0
  -1.96982E+3   1.59505E+3
  -5.85380E+2   2.63578E+2
  -1.52066E+3  -4.15257E+3
   1.88997E+2  -4.06189E+3
   2.86548E+3   6.18347E+1
   1.35901E+3   6.18012E+2
  -2.20091E+2   1.32875E+3
   1.18650E+3  -1.55669E+3
   3.61471E+3   2.96600E+2
   3.05138E+3   1.77901E+3
  -2.73933E+2   3.27899E+3
   4.27679E+2  -1.13224E+3
   2.52877E+3  -1.64603E+3
  -1.02502E+3   3.09932E+3
  -1.48139E+3   9.46029E+2
  -2.29532E+3  -2.47248E+3
   1.17742E+3  -2.28089E+3
   4.43404E+3  -8.21587E+2
   4.79522E+3   1.06852E+3
  -6.39765E+2   1.78992E+3
   1.78118E+3   1.58430E+2
   2.88103E+3   1.36294E+3
  -1.05647E+3   2.96391E+3
  -2.22638E+3   3.03948E+3
  -4.83903E+3  -1.22971E+3
  -3.45379E+0  -2.65490E+3
   2.92883E+3   1.63528E+3
  -1.34963E+3   3.32841E+3
  -3.04060E+3   1.62830E+3
  -2.11560E+3  -2.34841E+3
   2.59291E+3  -2.56963E+3
   3.55513E+3   1.07773E+3
   1.08359E+3   4.29417E+3
  -1.13339E+3   3.06857E+3
  -3.56844E+3  -2.91032E+2
  -2.60739E+3  -1.50227E+3
  -7.58799E+2  -1.49070E+3
  -5.50076E+2  -1.41282E+3
  -2.09897E+2  -3.50459E+3
   6.94497E+2  -2.47471E+3
   4.45745E+3   3.31973E+2
  -2.43610E+2   4.89795E+3
  -7.96314E+2   2.99452E+3
  -4.85407E+3   4.15077E+3
  -1.19411E+3   2.16617E+3
  -1.89843E+3  -8.84463E+2
  -2.06930E+3  -2.90483E+3
  -1.84363E+2  -1.42106E+3
   9.14491E+1   6.59400E+2
   1.98429E+3   1.57188E+3
  -1.85447E+3   8.44961E+2
  -3.88454E+3   1.00293E+3
  -3.22693E+2  -3.02664E+3
   9.07833E+2  -1.38911E+3
  -6.98462E+2  -1.05190E+3
  -7.74283E+2   4.08130E+2
  -1.24463E+3  -1.15762E+3
  -1.37488E+3   2.18319E+3
  -1.45003E+3   3.78000E+3
  -8.48618E+2  -2.56059E+2
  -1.13223E+3  -2.01962E+3
   2.53134E+3  -7.23222E+2
   2.15352E+3   1.09230E+3
   8.26207E+2   3.35459E+3
  -6.03448E+2   2.19282E+3
  -4.09121E+3  -6.96442E+2
  -8.84622E+2   1.03487E+3
   3.74017E+1   7.59599E+1
   1.33594E+2  -2.70243E+3
  -2.81036E+2  -1.79339E+3
  -1.59917E+3  -1.00245E+3
   8.16836E+2  -9.80990E+0
   2.76388E+3   3.07733E+3
  -2.27424E+2   1.92957E+3
  -9.21949E+1  -1.05080E+3
  -1.00122E+3   1.55099E+3
  -1.99661E+2   3.77996E+2
  -2.03593E+2   3.30979E+2
  -3.70639E+2  -9.48775E+2
  -1.66361E+3  -3.43974E+2
  -1.50090E+3   2.16124E+2
  -4.32482E+2  -1.00001E+3
   1.54911E+3  -2.71312E+3
   2.95328E+3   2.27559E+2
   2.03106E+3  -7.15917E+2
   2.08329E+3   6.11418E+2
   1.26820E+2   8.63965E+2
  -1.31943E+3   1.31959E+3
   2.03184E+2  -3.91104E+2
  -2.18354E+3  -8.36199E+1
   8.43356E+1  -6.72437E+2
  -1.35109E+3  -5.71335E+2
  -2.26893E+3  -4.73309E+2
   3.37061E+2   6.64981E+2
   2.40512E+3   7.29832E+2
   7.82433E+2   4.29518E+2
  -7.89245E+2  -2.48521E+3
   1.86736E+3  -1.20922E+3
  -3.90261E+2   1.25550E+3
  -1.52712E+3   2.52904E+3
  -5.91705E+2  -2.04663E+3
  -8.21629E+2  -1.37333E+3
   4.27539E+2  -3.02709E+3
   2.16545E+3  -3.57458E+2
   2.71468E+3  -1.33812E+3
   9.51841E+2  -1.00100E+2
  -7.42247E+1  -1.79259E+3
   1.02093E+2   2.68856E+3
  -4.37457E+2  -1.14014E+3
  -1.96362E+3  -3.13312E+3
  -6.01685E+2  -4.02285E+3
  -2.08568E+2  -1.18991E+3
   1.80446E+3   3.31068E+2
  -1.10821E+2   6.08786E+2
   1.09033E+3  -1.30678E+3
   1.75805E+3   1.83641E+3
  -1.17094E+3   2.55298E+2
  -2.93992E+3  -4.54042E+2
  -1.34565E+3  -1.87575E+3
   1.68233E+3  -3.29826E+3
   1.90222E+3  -1.87131E+2
   2.58839E+3   3.98102E+2
   1.91599E+3  -1.34484E+3
  -1.03122E+3  -8.30181E+1
   3.58010E+2  -1.08222E+3
   7.36878E+2   5.98316E+2
   8.33946E+2  -6.62059E+2
   2.09928E+3  -1.97176E+2
   1.86264E+3   9.03012E+2
  -2.45749E+2   1.94785E+3
  -1.40896E+3   9.60282E+2
  -1.67339E+3  -1.68687E+3
  -7.71180E+2  -3.47563E+3
   3.61818E+3  -3.01795E+2
   1.53950E+3   3.41473E+1
  -2.01549E+3  -2.90895E+1
  -1.09743E+3  -1.06910E+3
  -1.63372E+3   1.64611E+3
   1.76011E+2   1.02230E+3
   6.88262E+1  -6.46169E+2
  -1.15677E+3   1.79624E+2
  -8.81157E+2  -2.44862E+3
  -1.71628E+3   1.31264E+2
   1.62761E+3   2.33563E+3
  -2.60567E+3   1.03963E+3
  -5.80981E+2  -7.65479E+2
  -2.75919E+0   6.42907E+2
  -2.53840E+2   4.94708E+2
   5.04172E+2  -1.42331E+3
  -1.42886E+3  -6.76868E+2
   1.45032E+3  -4.43744E+1
   1.07205E+3   1.97871E+3
  -1.67794E+3  -4.94232E+2
  -1.80895E+3  -3.85789E+2
  -5.64502E+2   3.05469E+2
   5.36453E+2  -3.03325E+2
  -1.57459E+2   1.31536E+3
  -1.85354E+2   5.13549E+2
  -2.23717E+2   1.23580E+2
  -1.09855E+3  -1.65608E+3
  -1.30320E+3  -1.19340E+3
   1.43156E+3   2.12834E+2
  -1.30813E+2  -4.19377E+2
  -3.04531E+2  -1.19173E+3
   1.05864E+3   1.06713E+3
   6.51625E+2   1.02904E+3
   1.63202E+2  -5.67185E+2
  -1.79149E+3   1.79685E+2
   1.08947E+2  -2.54785E+3
   2.47140E+3   9.78303E+2
   7.14308E+2   2.02012E+2
  -5.45009E+2   1.52402E+3
  -1.45390E+3   4.92637E+2
   6.98617E+2   1.29035E+3
   1.33288E+3  -2.83008E+2
  -1.56322E+3   1.60403E+3
   2.09651E+2  -1.20924E+3
   5.04944E+2  -1.11264E+3
   2.17466E+3   4.03239E+2
  -3.16441E+2   1.42465E+3
  -1.64411E+3  -8.79715E+2
  -1.47482E+3  -1.68764E+3
   8.78577E+1  -1.04675E+3
   1.75713E+3  -5.69651E+2
   2.29816E+3  -1.00316E+3
   4.47200E+2  -1.82125E+3
   1.60275E+3  -5.62527E+2
   1.70672E+3   2.31145E+1
  -4.38729E+1   4.06378E+2
  -6.78206E+2   3.23795E+2
  -1.27660E+3   5.43298E+2
   5.24325E+1   1.04274E+2
   1.35452E+3  -1.38317E+2
   1.50058E+3  -2.96124E+2
  -3.14669E+2   1.47446E+3
   9.80844E+2   4.02998E+2
   1.32087E+3   6.54210E+2
  -6.45117E+2   1.32181E+3
  -8.18689E+2   1.32179E+3
   1.02053E+3  -7.02700E+2
  -6.36464E+2   3.52021E+2
   3.77751E+2   1.55805E+3
  -2.60762E+2   1.40706E+3
  -1.08230E+2   7.82908E+2
  -1.07055E+3   2.66653E+2
   1.70933E+2  -1.09082E+3
   1.09200E+3   4.75327E+2
   1.51410E+2  -2.39654E+2
   2.22296E+2  -1.33703E+3
   2.71856E+3   1.58640E+3
   6.99126E+2   9.34530E+2
  -3.61016E+2   1.37964E+3
  -2.58115E+3   1.25119E+2
  -1.51867E+2  -7.96699E+2
  -6.66039E+1  -8.68701E+2
  -2.26557E+3   1.93564E+3
  -1.90678E+3  -5.35320E+2
  -2.45309E+3  -2.75547E+3
   1.02069E+3  -6.23379E+2
  -4.42583E+1   8.34213E+2
   1.10273E+3   7.14661E+2
   4.73326E+2   2.41065E+2
  -1.61712E+2   1.37359E+3
   9.75049E+2   8.45202E+2
  -1.18335E+3   1.30148E+3
  -9.93343E+1  -5.22938E+2
  -5.71973E+1  -2.02417E+2
  -2.84796E+2  -4.05974E+2
   2.04736E+2   1.58943E+2
   5.21977E+2   1.76957E+3
   4.99373E+2   1.66645E+3
  -8.17744E+2  -6.35798E+2
   4.41824E+2  -4.88727E+2
  -2.40825E+3  -9.53481E+2
  -8.93559E+2   2.36786E+1
  -2.62229E+2   5.12148E+0
   1.87422E+3   1.40636E+2
   1.24786E+3   1.30882E+3
   1.01609E+3   7.85406E+2
  -9.05703E+2  -1.10277E+3
  -1.28561E+3  -3.50485E+2
  -9.77967E+2  -8.53808E+1
  -8.76194E+2  -7.95730E+2
  -9.41725E+2  -1.22097E+3
  -4.28134E+2  -9.88684E+2
   1.27235E+2  -1.18070E+3
   1.70144E+2   1.73824E+3
   6.02211E+2  -5.39045E+2
  -2.98805E+2  -1.73455E+1
   1.11892E+3  -2.49210E+3
   1.44610E+2   7.47470E+2
   2.25161E+3   2.27945E+3
   2.56653E+3   1.63049E+3
  -5.77422E+2  -2.05651E+3
   1.18153E+3   2.75040E+2
   2.11374E+2  -8.48368E+2
   6.79806E+2  -1.62152E+3
   6.57775E+1  -8.57115E+2
   6.96091E+2   2.29052E+2
   6.16552E+2   1.17475E+3
  -1.00362E+3   1.07371E+3
  -7.59259E+2   4.87265E+2
  -5.06079E+2  -9.40543E+2
  -8.70493E+2  -1.67393E+3
   3.24511E+2  -1.62517E+3
  -6.38196E+2   3.29939E+2
   7.16747E+2   4.25043E+2
   1.97403E+3  -4.21917E+2
   3.53078E+3   2.17890E+3
   2.44412E+2  -5.44405E+2
  -3.17571E+2   3.82103E+2
   1.17769E+3   6.76370E+1
   2.89785E+3  -5.54367E+2
   1.14832E+3   1.06468E+3
  -1.29348E+3   1.22391E+3
   6.09535E+2  -3.29435E+2
   1.35358E+3   7.65538E+2
   1.17532E+3   1.47809E+2
   9.71687E+2   1.01509E+3
  -9.96449E+2  -2.28208E+3
   8.29880E+1  -1.00632E+3
   2.32638E+2   1.27474E+3
   3.65292E+2   1.97670E+3
  -4.01846E+2   3.17789E+2
  -1.13047E+3  -2.29943E+3
   1.28054E+3   6.89672E+2
   1.86578E+3   1.35246E+3
  -8.29521E+2   1.18701E+3
   6.68467E+2  -2.33038E+3
  -1.56102E+3  -4.41170E+2
  -9.59119E+2  -8.77884E+2
   2.27973E+2   1.58041E+3
   5.97130E+0   1.21339E+3
   4.94307E+2  -1.79880E+3
  -1.97967E+2   3.00643E+2
  -2.04633E+3   5.38277E+1
  -8.23931E+2  -5.79605E+2
