 
 $NMID
 ID=''
 FMTDAT='(2E13.5)'
 TRAMP=   1.00000E+0
 VOLUME=   1.00000E+0
 $END
  -1.92362E+4   1.29377E+4
  -5.70928E+4   1.79875E+4
  -5.28405E+4   2.75648E+4
  -4.85672E+4   2.53582E+4
  -5.12350E+4   2.46450E+4
  -5.00842E+4   2.67266E+4
  -4.84181E+4   2.49330E+4
  -4.98851E+4   2.40890E+4
  -4.93673E+4   2.52966E+4
  -4.83939E+4   2.42653E+4
  -4.92941E+4   2.37113E+4
  -4.87978E+4   2.47282E+4
  -4.79991E+4   2.43483E+4
  -4.85786E+4   2.39231E+4
  -4.80625E+4   2.44384E+4
  -4.72035E+4   2.40766E+4
  -4.74802E+4   2.38331E+4
  -4.70060E+4   2.43029E+4
  -4.62167E+4   2.39729E+4
  -4.64552E+4   2.37273E+4
  -4.59537E+4   2.38655E+4
  -4.52265E+4   2.37918E+4
  -4.53009E+4   2.36579E+4
  -4.50699E+4   2.37006E+4
  -4.44369E+4   2.33687E+4
  -4.43248E+4   2.32247E+4
  -4.41608E+4   2.32629E+4
  -4.37297E+4   2.28706E+4
  -4.36047E+4   2.25731E+4
  -4.33380E+4   2.25849E+4
  -4.28890E+4   2.23899E+4
  -4.27919E+4   2.23982E+4
  -4.27851E+4   2.22520E+4
  -4.23266E+4   2.20985E+4
  -4.21620E+4   2.20942E+4
  -4.19492E+4   2.21561E+4
  -4.15569E+4   2.20993E+4
  -4.13589E+4   2.21364E+4
  -4.10881E+4   2.21663E+4
  -4.08231E+4   2.22510E+4
  -4.06743E+4   2.22325E+4
  -4.04949E+4   2.22113E+4
  -4.01962E+4   2.20397E+4
  -3.98954E+4   2.19168E+4
  -3.96548E+4   2.20346E+4
  -3.93848E+4   2.19717E+4
  -3.92424E+4   2.19078E+4
  -3.90209E+4   2.19856E+4
  -3.88465E+4   2.20016E+4
  -3.85299E+4   2.19487E+4
  -3.82633E+4   2.18658E+4
  -3.80246E+4   2.18772E+4
  -3.77205E+4   2.18505E+4
  -3.74850E+4   2.18961E+4
  -3.72016E+4   2.18152E+4
  -3.70631E+4   2.17698E+4
  -3.67753E+4   2.17256E+4
  -3.66348E+4   2.16888E+4
  -3.64080E+4   2.15441E+4
  -3.61714E+4   2.14388E+4
  -3.58865E+4   2.14517E+4
  -3.55949E+4   2.13961E+4
  -3.55080E+4   2.13586E+4
  -3.53039E+4   2.13323E+4
  -3.50707E+4   2.12149E+4
  -3.47724E+4   2.11771E+4
  -3.46038E+4   2.11886E+4
  -3.44571E+4   2.11004E+4
  -3.42701E+4   2.09836E+4
  -3.39937E+4   2.08036E+4
  -3.37864E+4   2.07373E+4
  -3.35354E+4   2.06751E+4
  -3.33609E+4   2.06061E+4
  -3.31291E+4   2.04116E+4
  -3.29366E+4   2.03678E+4
  -3.26613E+4   2.03142E+4
  -3.24357E+4   2.03124E+4
  -3.22232E+4   2.01427E+4
  -3.19327E+4   2.01015E+4
  -3.17667E+4   2.00428E+4
  -3.15808E+4   1.99358E+4
  -3.13314E+4   1.98003E+4
  -3.10565E+4   1.98069E+4
  -3.08824E+4   1.97579E+4
  -3.06509E+4   1.95758E+4
  -3.03798E+4   1.94411E+4
  -3.01855E+4   1.93203E+4
  -2.98514E+4   1.91336E+4
  -2.95848E+4   1.91527E+4
  -2.93176E+4   1.90633E+4
  -2.91312E+4   1.90201E+4
  -2.89396E+4   1.88594E+4
  -2.86791E+4   1.88518E+4
  -2.83730E+4   1.88184E+4
  -2.82078E+4   1.86264E+4
  -2.79274E+4   1.85753E+4
  -2.76358E+4   1.84823E+4
  -2.74053E+4   1.83935E+4
  -2.71592E+4   1.82789E+4
  -2.69891E+4   1.81535E+4
  -2.67192E+4   1.80408E+4
  -2.64588E+4   1.79370E+4
  -2.60715E+4   1.78809E+4
  -2.59293E+4   1.77680E+4
  -2.57441E+4   1.76246E+4
  -2.55194E+4   1.75331E+4
  -2.52130E+4   1.74633E+4
  -2.49984E+4   1.73071E+4
  -2.48110E+4   1.72220E+4
  -2.45180E+4   1.70822E+4
  -2.43211E+4   1.69602E+4
  -2.40087E+4   1.68512E+4
  -2.38422E+4   1.68115E+4
  -2.36058E+4   1.66442E+4
  -2.34202E+4   1.65291E+4
  -2.32456E+4   1.63599E+4
  -2.30715E+4   1.62453E+4
  -2.28381E+4   1.61455E+4
  -2.26256E+4   1.60010E+4
  -2.23752E+4   1.58059E+4
  -2.22665E+4   1.56974E+4
  -2.20545E+4   1.55818E+4
  -2.18679E+4   1.53648E+4
  -2.17040E+4   1.51843E+4
  -2.15137E+4   1.51608E+4
  -2.13455E+4   1.50039E+4
  -2.11640E+4   1.47894E+4
  -2.09692E+4   1.46539E+4
  -2.08948E+4   1.45041E+4
  -2.07434E+4   1.43966E+4
  -2.05311E+4   1.42258E+4
  -2.03324E+4   1.40707E+4
  -2.01372E+4   1.39343E+4
  -2.00687E+4   1.38200E+4
  -2.00022E+4   1.36402E+4
  -1.97720E+4   1.34971E+4
  -1.96579E+4   1.33857E+4
  -1.94606E+4   1.32453E+4
  -1.93319E+4   1.29978E+4
  -1.91933E+4   1.28934E+4
  -1.91440E+4   1.27563E+4
  -1.89441E+4   1.26292E+4
  -1.87939E+4   1.24510E+4
  -1.87491E+4   1.23085E+4
  -1.86103E+4   1.21204E+4
  -1.84708E+4   1.19278E+4
  -1.84071E+4   1.18980E+4
  -1.83021E+4   1.17043E+4
  -1.81311E+4   1.15148E+4
  -1.80461E+4   1.14323E+4
  -1.78696E+4   1.12481E+4
  -1.78420E+4   1.11210E+4
  -1.77494E+4   1.09909E+4
  -1.76004E+4   1.07981E+4
  -1.74319E+4   1.06622E+4
  -1.73848E+4   1.05235E+4
  -1.73657E+4   1.04174E+4
  -1.71782E+4   1.03149E+4
  -1.71579E+4   1.01811E+4
  -1.70409E+4   1.00353E+4
  -1.69748E+4   9.90862E+3
  -1.69011E+4   9.73798E+3
  -1.67669E+4   9.62667E+3
  -1.66851E+4   9.44774E+3
  -1.66209E+4   9.36807E+3
  -1.65611E+4   9.23707E+3
  -1.64406E+4   9.07396E+3
  -1.63438E+4   9.03624E+3
  -1.62854E+4   8.90286E+3
  -1.61627E+4   8.75337E+3
  -1.61020E+4   8.66439E+3
  -1.60700E+4   8.50856E+3
  -1.59249E+4   8.48038E+3
  -1.58616E+4   8.30188E+3
  -1.57358E+4   8.25726E+3
  -1.57152E+4   8.12284E+3
  -1.56553E+4   8.00737E+3
  -1.55668E+4   7.99858E+3
  -1.55021E+4   7.92834E+3
  -1.53954E+4   7.81041E+3
  -1.54157E+4   7.67387E+3
  -1.52933E+4   7.60128E+3
  -1.52105E+4   7.52804E+3
  -1.51862E+4   7.42269E+3
  -1.51448E+4   7.39795E+3
  -1.50685E+4   7.24262E+3
  -1.48989E+4   7.18674E+3
  -1.49256E+4   7.17867E+3
  -1.48718E+4   7.08502E+3
  -1.47717E+4   6.96423E+3
  -1.47738E+4   6.88739E+3
  -1.46711E+4   6.82736E+3
  -1.46010E+4   6.81374E+3
  -1.45107E+4   6.69395E+3
  -1.44814E+4   6.63663E+3
  -1.44295E+4   6.58085E+3
  -1.43379E+4   6.50955E+3
  -1.42774E+4   6.48888E+3
  -1.42855E+4   6.45408E+3
  -1.42140E+4   6.31965E+3
  -1.41821E+4   6.25703E+3
  -1.41373E+4   6.31117E+3
  -1.41056E+4   6.13641E+3
  -1.40098E+4   6.06271E+3
  -1.39581E+4   6.04370E+3
  -1.39368E+4   6.01233E+3
  -1.38337E+4   5.92555E+3
  -1.38165E+4   5.87731E+3
  -1.37283E+4   5.82714E+3
  -1.37163E+4   5.83287E+3
  -1.35801E+4   5.78118E+3
  -1.35213E+4   5.71545E+3
  -1.35488E+4   5.61939E+3
  -1.33915E+4   5.59663E+3
  -1.33998E+4   5.54854E+3
  -1.33747E+4   5.49032E+3
  -1.33058E+4   5.42045E+3
  -1.31990E+4   5.38798E+3
  -1.31655E+4   5.36184E+3
  -1.30748E+4   5.31317E+3
  -1.31492E+4   5.23495E+3
  -1.29860E+4   5.21977E+3
  -1.29734E+4   5.18615E+3
  -1.29274E+4   5.09787E+3
  -1.29251E+4   5.15059E+3
  -1.28219E+4   5.09644E+3
  -1.28001E+4   5.07337E+3
  -1.26490E+4   5.04719E+3
  -1.26298E+4   4.97850E+3
  -1.26184E+4   4.96198E+3
  -1.25024E+4   4.95691E+3
  -1.24924E+4   4.91174E+3
  -1.24844E+4   4.88964E+3
  -1.23539E+4   4.83850E+3
  -1.23621E+4   4.81293E+3
  -1.22638E+4   4.83460E+3
  -1.22106E+4   4.80738E+3
  -1.21897E+4   4.76134E+3
  -1.21224E+4   4.72908E+3
  -1.19978E+4   4.77685E+3
  -1.19928E+4   4.63663E+3
  -1.19490E+4   4.67912E+3
  -1.18417E+4   4.70467E+3
  -1.18007E+4   4.59848E+3
  -1.17211E+4   4.59051E+3
  -1.17528E+4   4.65119E+3
  -1.16808E+4   4.51609E+3
  -1.15774E+4   4.57001E+3
  -1.15088E+4   4.55412E+3
  -1.14880E+4   4.53006E+3
  -1.13997E+4   4.55985E+3
  -1.13995E+4   4.49828E+3
  -1.13020E+4   4.48784E+3
  -1.12253E+4   4.49629E+3
  -1.12006E+4   4.47997E+3
  -1.11206E+4   4.46669E+3
  -1.10145E+4   4.46316E+3
  -1.10406E+4   4.44681E+3
  -1.09437E+4   4.46507E+3
  -1.08904E+4   4.46323E+3
  -1.07966E+4   4.47128E+3
  -1.07019E+4   4.36853E+3
  -1.06451E+4   4.40490E+3
  -1.06319E+4   4.42712E+3
  -1.05945E+4   4.43868E+3
  -1.04448E+4   4.39026E+3
  -1.03341E+4   4.38560E+3
  -1.03641E+4   4.41912E+3
  -1.03749E+4   4.35554E+3
  -1.03291E+4   4.30503E+3
  -1.02074E+4   4.34541E+3
  -1.00931E+4   4.36302E+3
  -1.00929E+4   4.39305E+3
  -1.00788E+4   4.30774E+3
  -9.92579E+3   4.28395E+3
  -9.90655E+3   4.30006E+3
  -9.76046E+3   4.32956E+3
  -9.73770E+3   4.29505E+3
  -9.65546E+3   4.30989E+3
  -9.58039E+3   4.26909E+3
  -9.48125E+3   4.31875E+3
  -9.42354E+3   4.31556E+3
  -9.45470E+3   4.29047E+3
  -9.42307E+3   4.24856E+3
  -9.29308E+3   4.22096E+3
  -9.17280E+3   4.21657E+3
  -9.16025E+3   4.19943E+3
  -9.05387E+3   4.20255E+3
  -9.04524E+3   4.18182E+3
  -8.94113E+3   4.14015E+3
  -8.86792E+3   4.14139E+3
  -8.83454E+3   4.17925E+3
  -8.80534E+3   4.14280E+3
  -8.73017E+3   4.16496E+3
  -8.70294E+3   4.14500E+3
  -8.58522E+3   4.13464E+3
  -8.60117E+3   4.14315E+3
  -8.41878E+3   4.09810E+3
  -8.38949E+3   4.11601E+3
  -8.36467E+3   4.14726E+3
  -8.26688E+3   4.10320E+3
  -8.19612E+3   4.09132E+3
  -8.04511E+3   4.12762E+3
  -8.04214E+3   4.11526E+3
  -8.01525E+3   4.07793E+3
  -7.97826E+3   4.01678E+3
  -7.87506E+3   4.09233E+3
  -7.78845E+3   4.08365E+3
  -7.72908E+3   4.02446E+3
  -7.69398E+3   4.00289E+3
  -7.61216E+3   4.07952E+3
  -7.55986E+3   4.01502E+3
  -7.53608E+3   3.96043E+3
  -7.48994E+3   3.89404E+3
  -7.45156E+3   3.93826E+3
  -7.31072E+3   3.96837E+3
  -7.24942E+3   3.99873E+3
  -7.23564E+3   3.99394E+3
  -7.17882E+3   3.91344E+3
  -7.14000E+3   3.86778E+3
  -7.03618E+3   3.93113E+3
  -6.95464E+3   3.86773E+3
  -6.90508E+3   3.90503E+3
  -6.82535E+3   3.88414E+3
  -6.82200E+3   3.84783E+3
  -6.71918E+3   3.82230E+3
  -6.67493E+3   3.79362E+3
  -6.64413E+3   3.79711E+3
  -6.50940E+3   3.70102E+3
  -6.46376E+3   3.72032E+3
  -6.42499E+3   3.79756E+3
  -6.36586E+3   3.78053E+3
  -6.34262E+3   3.72886E+3
  -6.19076E+3   3.71468E+3
  -6.16848E+3   3.64963E+3
  -6.07357E+3   3.68839E+3
  -6.05230E+3   3.62060E+3
  -5.99126E+3   3.62402E+3
  -5.92796E+3   3.62500E+3
  -5.90928E+3   3.49637E+3
  -5.79696E+3   3.58787E+3
  -5.76728E+3   3.56263E+3
  -5.70187E+3   3.53574E+3
  -5.63289E+3   3.54666E+3
  -5.63986E+3   3.47857E+3
  -5.57435E+3   3.50395E+3
  -5.51398E+3   3.46459E+3
  -5.42464E+3   3.44032E+3
  -5.41292E+3   3.43724E+3
  -5.35587E+3   3.37278E+3
  -5.23610E+3   3.37312E+3
  -5.24429E+3   3.35431E+3
  -5.13705E+3   3.34722E+3
  -5.15415E+3   3.31455E+3
  -5.08653E+3   3.29550E+3
  -5.04570E+3   3.26992E+3
  -4.96634E+3   3.25380E+3
  -4.93716E+3   3.23205E+3
  -4.89109E+3   3.14151E+3
  -4.83950E+3   3.18045E+3
  -4.77811E+3   3.16765E+3
  -4.72709E+3   3.18116E+3
  -4.68095E+3   3.13455E+3
  -4.63741E+3   3.10578E+3
  -4.65128E+3   3.02153E+3
  -4.55920E+3   3.01544E+3
  -4.41246E+3   2.99957E+3
