 LCModel (Version 6.3-1N) Copyright: S.W. Provencher.          Ref.: Magn. Reson. Med. 30:672-679 (1993).                
 Slice_N1@22_18  02-Jun-2023 14:37:32
 27 lines in following concentration table = NCONC+1
    Conc.  %SD /Cr+PCr  Metabolite                                         
 1.68E-06  19% 2.2E-04 Mac                                                 
 2.33E-02  45%   3.009 Cr                                                  
 3.86E-02  27%   4.991 PCr                                                 
 7.85E-02  11%  10.140 Ins                                                 
 8.71E-02   8%  11.246 NAA                                                 
 5.30E-02  15%   6.841 Tau                                                 
 1.58E-02  13%   2.035 PCho                                                
    0.000 999%   0.000 GPC                                                 
 6.62E-02  14%   8.550 Glu                                                 
 1.72E-02  39%   2.222 Gln                                                 
    0.000 999%   0.000 Ala                                                 
 9.39E-04 999%   0.121 Asc                                                 
 1.11E-02  63%   1.439 Asp                                                 
 5.43E-03  70%   0.702 GABA                                                
 8.53E-03  53%   1.102 Glc                                                 
 8.89E-03  42%   1.148 GSH                                                 
    0.000 999%   0.000 Lac                                                 
    0.000 999%   0.000 NAAG                                                
    0.000 999%   0.000 PE                                                  
 1.58E-02  13%   2.035 GPC+PCho                                            
 8.71E-02   8%  11.246 NAA+NAAG                                            
 8.34E-02  13%  10.772 Glu+Gln                                             
 6.19E-02  10%   8.000 Cr+PCr                                              
 8.71E-02   8%  11.246 NAA+NAAG                                            
 6.19E-02  10%   8.000 Cr+PCr                                              
 8.34E-02  13%  10.772 Glu+Gln                                             
   6 lines in following misc. output table
  FWHM = 0.029 ppm    S/N =   4                                            
  Data shift = 0.012 ppm                                                   
  Ph:  16 deg      -6.7 deg/ppm                                            
  alphaB,S = 3.1E+01,   1.6E+01                                            
   18 spline knots.   Ns = 7(1)                                            
   3 inflections.     1 extrema                                            
  654 points on ppm-axis = NY
      4.000000     3.994181     3.988363     3.982544     3.976726     3.970907     3.965088     3.959270     3.953451     3.947633
      3.941814     3.935995     3.930177     3.924358     3.918540     3.912721     3.906902     3.901084     3.895265     3.889446
      3.883628     3.877809     3.871991     3.866172     3.860353     3.854535     3.848716     3.842898     3.837079     3.831260
      3.825442     3.819623     3.813805     3.807986     3.802167     3.796349     3.790530     3.784712     3.778893     3.773074
      3.767256     3.761437     3.755619     3.749800     3.743981     3.738163     3.732344     3.726526     3.720707     3.714888
      3.709070     3.703251     3.697433     3.691614     3.685795     3.679977     3.674158     3.668339     3.662521     3.656702
      3.650884     3.645065     3.639246     3.633428     3.627609     3.621791     3.615972     3.610153     3.604335     3.598516
      3.592698     3.586879     3.581060     3.575242     3.569423     3.563605     3.557786     3.551967     3.546149     3.540330
      3.534512     3.528693     3.522874     3.517056     3.511237     3.505419     3.499600     3.493781     3.487963     3.482144
      3.476326     3.470507     3.464688     3.458870     3.453051     3.447232     3.441414     3.435595     3.429777     3.423958
      3.418139     3.412321     3.406502     3.400684     3.394865     3.389046     3.383228     3.377409     3.371591     3.365772
      3.359953     3.354135     3.348316     3.342498     3.336679     3.330860     3.325042     3.319223     3.313405     3.307586
      3.301767     3.295949     3.290130     3.284312     3.278493     3.272674     3.266856     3.261037     3.255219     3.249400
      3.243581     3.237763     3.231944     3.226125     3.220307     3.214488     3.208670     3.202851     3.197032     3.191214
      3.185395     3.179577     3.173758     3.167939     3.162121     3.156302     3.150484     3.144665     3.138846     3.133028
      3.127209     3.121391     3.115572     3.109753     3.103935     3.098116     3.092298     3.086479     3.080660     3.074842
      3.069023     3.063205     3.057386     3.051567     3.045749     3.039930     3.034111     3.028293     3.022474     3.016656
      3.010837     3.005018     2.999200     2.993381     2.987563     2.981744     2.975925     2.970107     2.964288     2.958470
      2.952651     2.946832     2.941014     2.935195     2.929377     2.923558     2.917739     2.911921     2.906102     2.900284
      2.894465     2.888646     2.882828     2.877009     2.871191     2.865372     2.859553     2.853735     2.847916     2.842098
      2.836279     2.830460     2.824642     2.818823     2.813004     2.807186     2.801367     2.795549     2.789730     2.783911
      2.778093     2.772274     2.766456     2.760637     2.754818     2.749000     2.743181     2.737363     2.731544     2.725725
      2.719907     2.714088     2.708270     2.702451     2.696632     2.690814     2.684995     2.679177     2.673358     2.667539
      2.661721     2.655902     2.650084     2.644265     2.638446     2.632628     2.626809     2.620991     2.615172     2.609353
      2.603535     2.597716     2.591897     2.586079     2.580260     2.574442     2.568623     2.562804     2.556986     2.551167
      2.545349     2.539530     2.533711     2.527893     2.522074     2.516256     2.510437     2.504618     2.498800     2.492981
      2.487163     2.481344     2.475525     2.469707     2.463888     2.458070     2.452251     2.446432     2.440614     2.434795
      2.428977     2.423158     2.417339     2.411521     2.405702     2.399884     2.394065     2.388246     2.382428     2.376609
      2.370790     2.364972     2.359153     2.353335     2.347516     2.341697     2.335879     2.330060     2.324242     2.318423
      2.312604     2.306786     2.300967     2.295149     2.289330     2.283511     2.277693     2.271874     2.266056     2.260237
      2.254418     2.248600     2.242781     2.236963     2.231144     2.225325     2.219507     2.213688     2.207870     2.202051
      2.196232     2.190414     2.184595     2.178777     2.172958     2.167139     2.161321     2.155502     2.149683     2.143865
      2.138046     2.132228     2.126409     2.120590     2.114772     2.108953     2.103135     2.097316     2.091497     2.085679
      2.079860     2.074042     2.068223     2.062404     2.056586     2.050767     2.044949     2.039130     2.033311     2.027493
      2.021674     2.015856     2.010037     2.004218     1.998400     1.992581     1.986763     1.980944     1.975126     1.969307
      1.963489     1.957670     1.951852     1.946033     1.940215     1.934397     1.928578     1.922760     1.916941     1.911123
      1.905304     1.899486     1.893667     1.887849     1.882030     1.876212     1.870393     1.864575     1.858756     1.852938
      1.847119     1.841301     1.835482     1.829664     1.823845     1.818027     1.812208     1.806390     1.800571     1.794753
      1.788934     1.783116     1.777297     1.771479     1.765660     1.759842     1.754023     1.748205     1.742386     1.736568
      1.730749     1.724931     1.719113     1.713294     1.707476     1.701657     1.695839     1.690020     1.684202     1.678383
      1.672565     1.666746     1.660928     1.655109     1.649291     1.643472     1.637654     1.631835     1.626017     1.620198
      1.614380     1.608561     1.602743     1.596924     1.591106     1.585287     1.579469     1.573650     1.567832     1.562013
      1.556195     1.550376     1.544558     1.538739     1.532921     1.527102     1.521284     1.515465     1.509647     1.503829
      1.498010     1.492192     1.486373     1.480555     1.474736     1.468918     1.463099     1.457281     1.451462     1.445644
      1.439825     1.434007     1.428188     1.422370     1.416551     1.410733     1.404914     1.399096     1.393277     1.387459
      1.381640     1.375822     1.370003     1.364185     1.358366     1.352548     1.346729     1.340911     1.335092     1.329274
      1.323455     1.317637     1.311818     1.306000     1.300182     1.294363     1.288545     1.282726     1.276908     1.271089
      1.265271     1.259452     1.253634     1.247815     1.241997     1.236178     1.230360     1.224541     1.218723     1.212904
      1.207086     1.201267     1.195449     1.189630     1.183812     1.177993     1.172175     1.166356     1.160538     1.154719
      1.148901     1.143082     1.137264     1.131445     1.125627     1.119808     1.113990     1.108171     1.102353     1.096534
      1.090716     1.084898     1.079079     1.073261     1.067442     1.061624     1.055805     1.049987     1.044168     1.038350
      1.032531     1.026713     1.020894     1.015076     1.009257     1.003439     0.997620     0.991802     0.985983     0.980165
      0.974346     0.968528     0.962709     0.956891     0.951072     0.945254     0.939435     0.933617     0.927798     0.921980
      0.916161     0.910343     0.904524     0.898706     0.892887     0.887069     0.881251     0.875432     0.869614     0.863795
      0.857977     0.852158     0.846340     0.840521     0.834703     0.828884     0.823066     0.817247     0.811429     0.805610
      0.799792     0.793973     0.788155     0.782336     0.776518     0.770699     0.764881     0.759062     0.753244     0.747425
      0.741607     0.735788     0.729970     0.724151     0.718333     0.712514     0.706696     0.700877     0.695059     0.689240
      0.683422     0.677603     0.671785     0.665967     0.660148     0.654330     0.648511     0.642693     0.636874     0.631056
      0.625237     0.619419     0.613600     0.607782     0.601963     0.596145     0.590326     0.584508     0.578689     0.572871
      0.567052     0.561234     0.555415     0.549597     0.543778     0.537960     0.532141     0.526323     0.520504     0.514686
      0.508867     0.503049     0.497230     0.491412     0.485593     0.479775     0.473956     0.468138     0.462319     0.456501
      0.450682     0.444864     0.439045     0.433227     0.427408     0.421590     0.415771     0.409953     0.404134     0.398316
      0.392497     0.386679     0.380860     0.375042     0.369223     0.363405     0.357586     0.351767     0.345949     0.340130
      0.334312     0.328493     0.322675     0.316856     0.311038     0.305219     0.299401     0.293582     0.287764     0.281945
      0.276127     0.270308     0.264490     0.258671     0.252853     0.247034     0.241216     0.235397     0.229579     0.223760
      0.217942     0.212123     0.206305     0.200486
 NY phased data points follow
  -3.16757E-01 -3.60501E-01 -1.27670E-02  3.61582E-02 -1.56404E-01 -1.08750E-01 -4.55045E-01 -1.27002E-01 -3.12547E-01 -1.24781E-01
   8.84915E-03  4.11169E-01  4.65864E-01  1.53046E-01  3.21449E-01  1.51857E-01  1.89406E-01  1.28639E-01  2.02319E-03  1.39865E-01
   1.24400E-01  4.86798E-02  2.92586E-02 -1.84676E-01  3.45824E-01  1.51345E-02 -3.25312E-01 -2.36572E-02 -2.03144E-01  7.67445E-02
  -1.83194E-01  3.14004E-02  1.14251E-01 -1.78362E-01 -5.23745E-02 -2.14524E-01 -3.15998E-01 -3.70202E-01 -8.70683E-02 -2.93181E-02
   9.84684E-02  1.91849E-01  1.40353E-01  2.30770E-01  2.46155E-01  3.49183E-01  2.64056E-01  2.67817E-01 -1.51552E-02  6.59363E-02
   1.66897E-01  2.95627E-01  3.07357E-01 -2.05871E-01 -9.73385E-02 -1.62285E-01 -4.96725E-02 -2.22429E-01 -3.07778E-01 -2.03780E-01
  -2.84028E-01 -2.25068E-01 -5.16934E-01 -2.03972E-01 -1.51591E-01 -2.15278E-01  6.31053E-02 -1.77618E-01 -1.19344E-01  2.17630E-01
   2.53912E-01  4.16931E-01  3.71428E-01  2.06131E-01  1.11522E-01  3.09877E-01  2.59881E-01 -1.61451E-01 -2.13047E-01 -4.23977E-01
  -3.72139E-02 -8.15176E-02 -5.35951E-01 -1.89621E-01  1.24521E-01  1.76230E-01  1.95205E-01  1.44488E-01  2.57472E-01  1.81669E-01
  -2.16262E-01  2.35304E-01  8.64715E-04  5.77636E-02  4.56557E-01 -7.66132E-02  3.03213E-01  5.08212E-02  4.46785E-02  3.15330E-01
  -2.46979E-01 -8.33758E-02 -2.68756E-01 -1.69607E-01  1.07949E-01  3.12006E-01  4.10698E-01  7.28555E-02  2.09955E-01  2.03086E-01
   6.14499E-01  3.37500E-01 -1.52595E-02  3.12149E-01  4.13000E-01  5.38391E-01  1.83556E-01  1.17026E-01  7.38349E-02  1.13758E-01
   2.85861E-01  2.40799E-01  2.60163E-01  2.26803E-01 -2.38207E-02  6.81758E-02 -7.38325E-02 -3.82578E-01 -1.07013E-01 -4.83532E-01
  -3.26476E-01 -3.71406E-02 -6.36758E-01 -6.76965E-01 -4.53889E-01 -6.60379E-01 -8.49787E-01 -7.06283E-01 -5.71065E-01 -7.67704E-01
  -5.19562E-01 -1.21778E-01 -2.88037E-01 -4.39416E-02 -4.96077E-02 -2.50062E-01  1.23910E-01  4.06655E-01  3.87559E-01  1.92427E-01
  -6.26110E-02  2.76501E-02  7.47186E-02 -6.11197E-02  5.46507E-02  1.17988E-01  2.95633E-01  2.98740E-01  3.97974E-01  6.12881E-01
   2.80558E-01  1.93878E-01  4.97058E-01  6.68738E-01  7.21859E-01  5.87493E-01  5.91896E-01  3.38309E-01 -3.16066E-01 -5.66825E-01
  -6.84716E-01 -6.56896E-01 -5.98977E-01 -4.99655E-01 -4.52244E-01 -4.60802E-01 -2.32071E-01 -3.65040E-01 -3.78173E-01 -2.79541E-01
  -2.30497E-01 -8.26342E-02 -2.16787E-01 -7.98050E-02 -1.58514E-01 -3.12304E-01 -1.92846E-01 -1.99701E-01 -2.64795E-01 -3.85874E-01
  -1.47261E-01 -1.74877E-01 -1.38010E-01  1.05003E-02 -2.23503E-01 -3.77198E-01 -1.44545E-01  2.56383E-01  9.53204E-02 -2.24366E-01
  -1.90229E-01  9.32443E-03 -1.56157E-01 -1.14674E-01  4.55754E-02 -1.36439E-01 -3.01912E-01 -4.51041E-02  3.65930E-01  7.83599E-02
  -1.11957E-01 -1.26460E-01 -2.27466E-01 -6.49526E-02 -1.24084E-01 -2.08549E-01 -1.26466E-01 -8.05271E-02  1.47958E-01  3.18317E-03
  -4.79397E-02  1.22608E-01  4.10583E-02  7.68709E-02  2.80525E-02  3.96817E-02  3.03054E-01  3.52890E-01  4.02954E-01  4.84820E-01
   2.42643E-01  5.71797E-01  3.55289E-01  8.73663E-02  2.13901E-01  1.00934E-01  1.22487E-01 -1.15198E-02  1.34564E-01 -1.38324E-01
  -5.71152E-02 -1.14673E-01 -9.72818E-02 -3.50204E-02 -3.46693E-01  2.05660E-01 -8.11112E-02 -4.17108E-01 -5.40156E-03  8.75857E-02
  -2.30053E-02 -5.32628E-02  1.92444E-01  7.76041E-04 -1.67196E-01  6.78285E-02 -8.57847E-02  5.43546E-02 -1.27748E-01 -8.04692E-02
   1.72987E-01  2.64201E-03  2.91618E-01  1.05903E-01 -2.87110E-02 -2.04610E-02  3.58595E-01  4.34821E-01  1.15556E-01  2.32500E-01
   1.71364E-01 -8.12157E-02 -1.96753E-01  2.40524E-01 -4.28313E-02 -1.52143E-01  1.46614E-02 -7.16139E-02  1.24503E-01 -2.04909E-01
  -2.14726E-01 -1.44772E-01 -2.02227E-01 -1.28033E-01 -5.59623E-02  1.64761E-01  3.74133E-02  1.90629E-01  3.56370E-01  3.75125E-01
   2.39171E-01  4.40563E-02  3.01265E-01  3.92404E-01  3.02908E-01  3.15653E-01  1.49591E-01 -2.56969E-01  3.99486E-01  3.02299E-01
  -4.99716E-02  3.53020E-01  1.49584E-01  3.16298E-01  1.69223E-01  3.24712E-01  2.48537E-01  9.25957E-02  3.89765E-01  3.63388E-01
   2.27818E-01  3.30170E-01  4.50326E-01  1.96275E-01  1.45832E-01  1.33915E-01  6.73888E-02 -1.32605E-01  2.19738E-01  1.18042E-01
  -8.24012E-02 -3.93530E-01 -4.24097E-01 -6.35615E-02 -5.15292E-01 -7.09003E-02 -6.34600E-02 -6.26049E-02  1.86240E-02 -8.49662E-02
   4.42454E-03 -1.29455E-01  1.05683E-01  1.59742E-01 -4.88722E-02 -2.79893E-01 -4.45190E-02 -3.62518E-01 -5.93715E-01 -3.36341E-01
  -3.14221E-01 -3.11483E-01 -8.47037E-01 -1.50451E+00 -1.30352E+00 -7.57886E-01 -7.43993E-01 -2.96134E-01 -4.14981E-01 -3.54103E-01
   3.44609E-01 -3.84669E-02  2.96883E-03  1.62262E-01  8.12428E-02  1.28671E-01 -3.70136E-02 -1.95021E-02  8.40527E-02  2.13664E-01
   1.37191E-01 -9.85552E-02 -9.60494E-02  7.35667E-02  2.25183E-01  3.47936E-03 -2.49387E-01 -3.22174E-02  1.06884E-01  4.27504E-01
   2.92463E-01  1.40886E-01  1.74484E-01 -1.75190E-02  3.53780E-01  1.44858E-01  1.07030E-01  3.96793E-01  2.19597E-01 -7.25925E-03
   9.15390E-02  2.15337E-01  1.00406E-01  1.59704E-01  1.44231E-01  1.49180E-01 -2.15345E-01 -2.28251E-01  3.55785E-01  4.12683E-01
   2.36695E-01  5.63858E-02  1.73818E-01  5.06917E-01  2.55749E-01  4.83835E-01  1.89885E-01 -5.64460E-02  2.73180E-01 -1.47871E-01
   1.99671E-01  3.09556E-01 -2.39271E-02 -9.09827E-02  1.65086E-01 -6.26468E-02 -2.40853E-01 -2.55134E-01 -2.08821E-01 -2.83239E-02
  -4.83087E-01 -2.88978E-01 -2.16797E-01 -7.50518E-02 -4.97277E-02 -1.47668E-01 -1.87448E-01 -3.98542E-02 -1.64222E-01 -2.55339E-01
  -4.59124E-01 -3.17068E-01  1.31596E-01 -5.67613E-01 -1.11142E-01 -2.18226E-01 -1.13755E-01 -1.75509E-02 -1.59415E-01  2.56314E-02
   6.59625E-02  2.82741E-01 -2.07788E-01 -9.68041E-02 -1.19502E-01  2.49988E-01 -6.16478E-02 -1.72383E-01  4.22018E-02 -2.47266E-01
   4.08745E-02  2.99384E-01  1.71485E-01  1.75259E-01  3.90600E-01 -8.79397E-02  2.50068E-02  1.89109E-01  3.06482E-01  3.24010E-01
   3.70383E-01  2.44762E-01  2.61230E-01  2.24033E-01  9.05114E-02  3.05817E-01 -3.61500E-02 -5.49169E-02 -2.31380E-01 -7.55578E-02
  -1.34049E-01  8.00216E-02  1.11333E-01 -1.06491E-01  6.72632E-02  2.11781E-02  3.31080E-01 -1.17475E-01 -2.33154E-01 -7.37871E-03
  -2.71476E-02 -1.07365E-01 -5.38944E-02  1.14308E-01 -2.20153E-01 -2.12125E-01  5.79194E-02  6.15556E-02 -6.68136E-02 -2.31463E-01
  -2.46400E-01 -1.64861E-01 -1.47512E-01  9.97352E-02  2.72605E-01 -6.30768E-02  1.17727E-01  1.66392E-01 -2.47245E-02  8.61395E-02
  -3.00698E-02  2.20183E-01 -5.52405E-02  5.38123E-02 -1.94876E-01 -1.93998E-01  3.15757E-01 -2.27920E-01 -3.01827E-03  9.35466E-02
   1.12587E-01  1.48600E-01  2.25600E-01 -9.14858E-03 -8.24115E-03  9.38271E-02 -1.03528E-02  2.62382E-01  6.43535E-02  2.51359E-01
   5.86222E-02 -1.41035E-01 -3.92266E-02  5.49320E-02  2.57084E-01  1.85281E-01 -6.30700E-02 -1.47395E-02  4.29075E-02  7.82363E-03
   3.47189E-03 -5.95546E-02  1.93660E-01  1.84827E-01 -1.52350E-01 -2.23224E-01 -8.86300E-03 -3.65728E-01 -2.80803E-01 -1.31475E-01
  -2.72669E-01 -3.09992E-01 -5.01945E-01 -4.94390E-01 -1.21733E-01 -6.11787E-02 -3.95096E-01  3.33589E-02 -7.28256E-02  4.03148E-02
  -1.51596E-01 -1.31259E-01  1.17821E-01 -2.64013E-01  2.55323E-01 -3.35771E-02 -1.03073E-01  2.71725E-01 -5.14433E-03 -2.57368E-01
  -2.36093E-02  2.75111E-01  1.17903E-01  3.04088E-01  1.38771E-01 -4.09017E-02  1.14094E-01 -1.94335E-02  2.14035E-01  2.48747E-01
   1.65713E-01  8.95648E-02  1.91580E-01  2.80471E-01  6.18151E-02  2.78652E-01  2.16229E-01  2.26679E-01  1.33811E-01  3.09167E-02
  -1.11128E-01 -6.11298E-02  1.28504E-01  2.14453E-01  2.80134E-01 -3.08175E-03  4.83704E-02 -1.29171E-01  1.68336E-01  2.98368E-01
  -2.99209E-02 -5.11986E-02 -1.29731E-01 -2.07203E-01 -8.61816E-03 -1.65861E-01 -4.29956E-02  4.18981E-01 -5.50872E-02  1.15475E-01
  -2.55106E-01 -3.41825E-01  1.53525E-01 -3.57960E-01 -1.10153E-01  2.96377E-02 -2.60754E-01  6.06243E-02 -8.00460E-02  1.22550E-01
   2.55477E-01 -6.79593E-03  1.98733E-01 -2.04675E-01  3.67138E-02 -4.84652E-02  3.36297E-02  3.74309E-01 -3.32859E-02 -1.42427E-02
  -1.83488E-01 -1.10834E-01  7.41572E-02  1.80384E-01 -4.88808E-03  2.52562E-02  1.91135E-01  9.98287E-02  2.55891E-02 -1.48791E-01
  -8.94031E-03  2.29444E-02 -1.66812E-02  2.42964E-01  5.82560E-03 -1.54983E-03  1.18435E-01 -1.32113E-01  3.62409E-02 -1.04873E-02
   1.99465E-01  2.17469E-01  4.03785E-02 -1.13122E-01  6.45147E-02  1.45419E-01 -1.93748E-01  1.01678E-02 -6.45483E-03  1.68520E-01
   1.68640E-01  1.04970E-01 -3.65934E-02 -1.38992E-02 -5.35934E-02 -1.22440E-01  2.45529E-01  1.54130E-01  1.23650E-01 -4.31934E-02
  -3.39063E-02 -7.29934E-02 -5.76563E-02  2.01203E-01
 NY points of the fit to the data follow
  -1.16638E-02 -5.31215E-03  5.03956E-04  6.18100E-03  1.72501E-02  2.93706E-02  1.81878E-02  4.88735E-02  9.94971E-02  1.12091E-01
   1.59422E-01  2.69597E-01  3.81144E-01  4.17814E-01  3.81958E-01  3.47710E-01  3.19102E-01  2.75164E-01  2.17321E-01  1.34315E-01
   7.78596E-02  5.00263E-02  1.97123E-02 -1.09160E-02 -3.48412E-02 -5.57995E-02 -7.23775E-02 -8.46165E-02 -9.31970E-02 -1.01039E-01
  -1.08725E-01 -1.15274E-01 -1.22207E-01 -1.28554E-01 -1.44690E-01 -1.60601E-01 -1.61423E-01 -1.68040E-01 -1.57564E-01 -1.23062E-01
  -5.62302E-02  3.14515E-02  1.04025E-01  1.67039E-01  2.14449E-01  2.38551E-01  2.34276E-01  1.92140E-01  1.39876E-01  9.53399E-02
   5.40395E-02  2.32153E-02 -9.09356E-03 -3.57234E-02 -6.28280E-02 -9.38944E-02 -1.26979E-01 -1.56592E-01 -1.97807E-01 -2.44076E-01
  -2.40350E-01 -2.74268E-01 -2.99706E-01 -2.42386E-01 -2.25864E-01 -2.12942E-01 -1.62016E-01 -6.74659E-02  5.64757E-02  1.40474E-01
   2.26825E-01  2.93671E-01  2.95532E-01  2.81243E-01  2.13810E-01  1.48150E-01  7.58173E-02 -2.09327E-02 -7.58345E-02 -1.61154E-01
  -2.65680E-01 -3.17652E-01 -2.79608E-01 -1.66688E-01 -3.96018E-02  9.39416E-02  2.19697E-01  3.00746E-01  3.46485E-01  3.39672E-01
   3.05310E-01  2.79172E-01  2.49733E-01  2.07638E-01  1.71932E-01  1.27308E-01  7.62224E-02  2.34406E-02 -4.62395E-02 -1.13724E-01
  -1.64220E-01 -1.73989E-01 -1.24194E-01 -3.18676E-02  7.43699E-02  1.63269E-01  2.15383E-01  2.48696E-01  2.62093E-01  2.70091E-01
   2.72287E-01  2.68885E-01  2.64006E-01  2.59215E-01  2.54274E-01  2.49844E-01  2.43458E-01  2.39319E-01  2.38548E-01  2.17215E-01
   2.12665E-01  1.99527E-01  1.44194E-01  1.17517E-01  4.83977E-02 -1.65884E-02 -8.78501E-02 -1.58020E-01 -2.03062E-01 -3.26714E-01
  -3.47354E-01 -4.06837E-01 -5.20441E-01 -4.85685E-01 -4.49697E-01 -5.19614E-01 -7.07435E-01 -8.65348E-01 -7.84825E-01 -6.03026E-01
  -3.99570E-01 -2.49797E-01 -1.92484E-01 -9.00854E-02 -1.87765E-02  2.26943E-02  5.27147E-02  7.69884E-02  9.75370E-02  1.15539E-01
   1.31757E-01  1.47347E-01  1.62558E-01  1.78153E-01  1.94794E-01  2.12706E-01  2.33208E-01  2.57874E-01  2.88490E-01  3.26243E-01
   3.18769E-01  3.82344E-01  4.75108E-01  4.74017E-01  4.80312E-01  5.17577E-01  4.77391E-01  2.14480E-01 -2.09658E-01 -5.32396E-01
  -6.53689E-01 -6.24242E-01 -5.37307E-01 -5.02927E-01 -4.56603E-01 -3.92589E-01 -3.38842E-01 -2.99731E-01 -2.73553E-01 -2.54788E-01
  -2.40940E-01 -2.24931E-01 -2.09082E-01 -1.96590E-01 -1.87230E-01 -1.81396E-01 -1.74102E-01 -1.65516E-01 -1.57646E-01 -1.49887E-01
  -1.42403E-01 -1.34512E-01 -1.25930E-01 -1.16968E-01 -1.08071E-01 -9.95132E-02 -9.21452E-02 -8.44844E-02 -7.52489E-02 -6.70467E-02
  -5.90987E-02 -5.14957E-02 -4.27164E-02 -3.41341E-02 -3.25832E-02 -3.55710E-02 -3.56405E-02 -3.06541E-02 -2.61627E-02 -3.05026E-02
  -4.04759E-02 -4.87258E-02 -5.24493E-02 -5.19886E-02 -5.09737E-02 -5.00290E-02 -4.83223E-02 -4.53363E-02 -3.63173E-02 -3.77160E-02
  -3.52535E-02 -1.01993E-02  1.34004E-02  3.68403E-02  7.71249E-02  1.45316E-01  2.22177E-01  2.43615E-01  2.24248E-01  2.22166E-01
   2.48393E-01  2.74557E-01  2.44355E-01  1.69726E-01  9.71739E-02  4.21904E-02  7.41839E-03 -2.01001E-02 -4.59112E-02 -6.03191E-02
  -7.01231E-02 -7.87445E-02 -8.41050E-02 -8.88555E-02 -9.23622E-02 -9.43496E-02 -9.77566E-02 -9.94923E-02 -1.01726E-01 -1.04632E-01
  -1.00683E-01 -1.20060E-01 -1.28652E-01 -1.21178E-01 -1.37035E-01 -1.43270E-01 -1.21348E-01 -6.35954E-02 -1.95091E-02  3.98213E-03
   5.50125E-02  9.70651E-02  1.21104E-01  1.33313E-01  1.30297E-01  1.39746E-01  1.40754E-01  1.32750E-01  1.20792E-01  1.09376E-01
   1.08350E-01  9.36087E-02  6.94209E-02  4.43186E-02  9.52068E-03 -1.69523E-02 -5.32019E-02 -9.09395E-02 -1.21074E-01 -1.65038E-01
  -1.99654E-01 -2.26532E-01 -2.40525E-01 -2.11145E-01 -1.47183E-01 -4.79322E-02  6.87204E-02  1.70244E-01  2.55844E-01  2.92547E-01
   2.93816E-01  2.80783E-01  2.51519E-01  2.29921E-01  2.11246E-01  1.97152E-01  1.93497E-01  1.92186E-01  1.91849E-01  1.89658E-01
   1.84474E-01  1.80854E-01  1.74642E-01  1.69647E-01  1.64204E-01  1.58626E-01  1.52629E-01  1.45778E-01  1.38348E-01  1.27613E-01
   1.16090E-01  1.00885E-01  8.07470E-02  5.83333E-02  2.72094E-02 -3.90507E-03 -4.37850E-02 -8.65105E-02 -1.26496E-01 -1.66614E-01
  -1.99153E-01 -2.25346E-01 -2.40427E-01 -2.40452E-01 -2.25407E-01 -1.91421E-01 -1.43706E-01 -8.54375E-02 -3.72654E-02 -4.08768E-04
   1.14318E-02  5.70997E-03 -1.37405E-02 -4.36369E-02 -7.33378E-02 -1.52678E-01 -1.10977E-01 -1.14222E-01 -2.52841E-01 -3.19601E-01
  -3.91612E-01 -6.14836E-01 -1.01024E+00 -1.33099E+00 -1.28770E+00 -1.00843E+00 -6.84960E-01 -4.40634E-01 -3.37945E-01 -2.10068E-01
  -1.04416E-01 -5.37991E-02 -2.65957E-02 -9.70370E-03  3.22501E-03  1.18767E-02  1.82087E-02  2.30292E-02  2.44243E-02  2.43046E-02
   2.16000E-02  1.78332E-02  1.42381E-02  1.06141E-02  8.85150E-03  9.88771E-03  1.28207E-02  1.81686E-02  2.34198E-02  2.93238E-02
   3.46433E-02  3.97066E-02  4.46522E-02  4.91017E-02  5.29611E-02  5.60925E-02  5.88960E-02  6.16639E-02  6.46521E-02  6.75369E-02
   6.97941E-02  7.18827E-02  7.40355E-02  7.61117E-02  7.85417E-02  8.05592E-02  8.20841E-02  8.33223E-02  8.47392E-02  8.65169E-02
   8.85595E-02  9.05585E-02  9.22017E-02  9.29169E-02  9.28061E-02  9.18720E-02  9.01990E-02  8.83262E-02  8.62307E-02  8.35483E-02
   8.00333E-02  7.61082E-02  7.18818E-02  6.72128E-02  6.20048E-02  5.70543E-02  5.22642E-02  4.77255E-02  4.34430E-02  3.91065E-02
   3.49785E-02  3.14278E-02  2.82475E-02  2.54682E-02  2.27405E-02  2.01978E-02  1.79423E-02  1.55465E-02  1.35006E-02  1.19601E-02
   1.06845E-02  9.66951E-03  9.07501E-03  8.92957E-03  9.51500E-03  1.06785E-02  1.25086E-02  1.47392E-02  1.72198E-02  2.04819E-02
   2.38716E-02  2.68423E-02  2.93086E-02  3.17673E-02  3.51593E-02  3.95763E-02  4.46912E-02  5.00333E-02  5.52806E-02  6.10479E-02
   6.75720E-02  7.47031E-02  8.26172E-02  9.05584E-02  9.86900E-02  1.06752E-01  1.14654E-01  1.22353E-01  1.29062E-01  1.34350E-01
   1.38202E-01  1.40412E-01  1.41670E-01  1.41866E-01  1.40939E-01  1.39070E-01  1.35977E-01  1.31398E-01  1.25351E-01  1.18387E-01
   1.11014E-01  1.03913E-01  9.69054E-02  8.98440E-02  8.25862E-02  7.57665E-02  6.96528E-02  6.40878E-02  5.88817E-02  5.41079E-02
   4.96955E-02  4.62405E-02  4.32815E-02  4.05227E-02  3.87419E-02  3.80962E-02  3.85417E-02  3.96911E-02  4.13951E-02  4.36889E-02
   4.63692E-02  4.97461E-02  5.35271E-02  5.71167E-02  6.04152E-02  6.33349E-02  6.57454E-02  6.75848E-02  6.92722E-02  7.08709E-02
   7.25833E-02  7.39290E-02  7.42752E-02  7.39180E-02  7.30611E-02  7.18748E-02  7.01224E-02  6.77720E-02  6.54867E-02  6.31995E-02
   6.08854E-02  5.86880E-02  5.60371E-02  5.33855E-02  5.08492E-02  4.82366E-02  4.53971E-02  4.24456E-02  4.00044E-02  3.79259E-02
   3.55637E-02  3.29917E-02  3.00934E-02  2.66970E-02  2.27898E-02  1.78495E-02  1.23236E-02  6.26300E-03 -2.78843E-04 -7.69381E-03
  -1.67705E-02 -2.74338E-02 -3.90181E-02 -5.07571E-02 -6.23489E-02 -7.41305E-02 -8.57410E-02 -9.62182E-02 -1.05527E-01 -1.13996E-01
  -1.21401E-01 -1.26509E-01 -1.29439E-01 -1.30738E-01 -1.30764E-01 -1.29225E-01 -1.26288E-01 -1.22201E-01 -1.17420E-01 -1.12768E-01
  -1.08195E-01 -1.03189E-01 -9.74934E-02 -9.14547E-02 -8.50170E-02 -7.78833E-02 -7.05253E-02 -6.31373E-02 -5.53546E-02 -4.78297E-02
  -4.06107E-02 -3.37530E-02 -2.69993E-02 -1.99936E-02 -1.37720E-02 -8.63205E-03 -3.44644E-03  1.77758E-03  6.61744E-03  1.07135E-02
   1.39231E-02  1.70753E-02  2.01354E-02  2.29371E-02  2.51280E-02  2.64942E-02  2.82097E-02  2.99300E-02  3.08603E-02  3.16142E-02
   3.25178E-02  3.37231E-02  3.50868E-02  3.66604E-02  3.82818E-02  3.93729E-02  4.02674E-02  4.08585E-02  4.10413E-02  4.12062E-02
   4.12383E-02  4.12827E-02  4.11713E-02  4.08293E-02  4.07901E-02  4.10234E-02  4.09954E-02  4.09972E-02  4.14222E-02  4.17584E-02
   4.12112E-02  3.96742E-02  3.87578E-02  3.87215E-02  3.86967E-02  3.83491E-02  3.78609E-02  3.77285E-02  3.74883E-02  3.68164E-02
   3.63626E-02  3.65430E-02  3.72178E-02  3.79165E-02  3.81156E-02  3.84786E-02  3.91456E-02  4.00730E-02  4.05573E-02  4.08554E-02
   4.14167E-02  4.16610E-02  4.14598E-02  4.08428E-02  4.04124E-02  4.04426E-02  4.06241E-02  4.11483E-02  4.18175E-02  4.22377E-02
   4.27956E-02  4.32263E-02  4.40408E-02  4.52708E-02  4.62560E-02  4.67979E-02  4.65858E-02  4.58720E-02  4.55145E-02  4.56128E-02
   4.58493E-02  4.60091E-02  4.56941E-02  4.51270E-02  4.47131E-02  4.48724E-02  4.50377E-02  4.46702E-02  4.44169E-02  4.45815E-02
   4.51791E-02  4.56004E-02  4.55719E-02  4.56585E-02  4.59862E-02  4.65675E-02  4.70684E-02  4.77040E-02  4.93392E-02  5.09762E-02
   5.24050E-02  5.38112E-02  5.46381E-02  5.55554E-02
 NY background values follow
     4.745E-02    4.735E-02    4.725E-02    4.715E-02    4.705E-02    4.695E-02    4.685E-02    4.675E-02    4.665E-02    4.655E-02
     4.645E-02    4.635E-02    4.625E-02    4.615E-02    4.605E-02    4.595E-02    4.585E-02    4.575E-02    4.565E-02    4.555E-02
     4.545E-02    4.535E-02    4.525E-02    4.515E-02    4.505E-02    4.495E-02    4.485E-02    4.475E-02    4.465E-02    4.454E-02
     4.444E-02    4.434E-02    4.424E-02    4.414E-02    4.404E-02    4.394E-02    4.384E-02    4.374E-02    4.364E-02    4.354E-02
     4.343E-02    4.333E-02    4.323E-02    4.313E-02    4.303E-02    4.293E-02    4.283E-02    4.273E-02    4.262E-02    4.252E-02
     4.242E-02    4.232E-02    4.222E-02    4.212E-02    4.202E-02    4.191E-02    4.181E-02    4.171E-02    4.161E-02    4.151E-02
     4.141E-02    4.130E-02    4.120E-02    4.110E-02    4.100E-02    4.090E-02    4.080E-02    4.069E-02    4.059E-02    4.049E-02
