 
 $NMID
 ID=''
 FMTDAT='(2E13.5)'
 TRAMP=   1.00000E+0
 VOLUME=   1.00000E+0
 $END
   9.11053E+1   5.76745E+1
  -1.61635E+1   2.65545E+3
   4.87167E+3  -2.91964E+3
   2.20871E+3  -1.99689E+3
  -4.41733E+2  -2.94929E+3
  -2.87321E+2   1.65745E+2
  -1.63107E+2   1.42370E+3
   2.53798E+2  -5.72472E+2
   1.34482E+3  -3.74889E+3
   2.84815E+3  -5.57646E+3
   6.37200E+1  -5.66902E+3
  -7.88339E+2   3.02942E+2
  -1.93310E+3   3.98258E+3
  -3.06200E+3   2.66309E+3
   6.65250E+2   2.25956E+3
   3.42451E+3   1.26667E+3
   4.49881E+3  -2.71612E+2
   4.74853E+3  -1.23688E+3
   3.84219E+3  -2.29240E+3
   1.80775E+3  -4.64191E+3
   3.08266E+3  -2.77270E+3
   6.42829E+2  -8.03196E+2
  -3.27403E+3   1.18916E+3
  -3.31954E+3  -1.50745E+3
   1.06566E+3  -1.15533E+3
   6.32377E+2   1.09014E+3
  -1.27701E+3   3.76293E+2
  -4.47374E+3  -1.40435E+3
  -1.23045E+3  -4.05269E+3
   6.76193E+2  -2.29919E+3
   1.41128E+3   4.30810E+3
  -2.59343E+3   7.01256E+3
  -5.02054E+3   1.40912E+3
  -3.23421E+3   3.13806E+2
  -1.17295E+3   4.48411E+2
  -2.22421E+3   1.93347E+3
   5.33784E+2  -1.45020E+3
   2.57926E+3   2.30689E+3
   5.00528E+1   1.54774E+3
  -2.27532E+3   1.63585E+3
  -3.24051E+3   2.20839E+3
  -2.81750E+3   1.01305E+3
  -1.74449E+3  -3.47992E+3
   1.99266E+3  -2.06429E+3
   2.20931E+3  -6.01027E+2
  -6.06525E+1   8.49566E+2
   6.85441E+2   3.16963E+3
   1.49392E+2   3.42214E+3
  -8.77303E+2   1.87914E+3
  -3.87779E+3   2.78589E+2
  -2.46380E+3   4.64314E+2
  -1.68598E+3  -4.14601E+2
   1.12885E+3   2.20306E+3
  -2.45157E+3   4.30806E+3
  -1.61313E+3   2.60641E+3
  -8.06596E+2   1.71121E+3
  -4.39073E+3   1.65861E+3
  -4.03094E+3  -2.90693E+3
  -1.78114E+3  -2.88121E+3
  -9.08916E+2  -6.19847E+3
   7.32939E+2  -3.54807E+3
   3.89310E+3  -3.64000E+2
   9.33389E+2   4.81067E+2
  -2.30375E+3   2.78946E+2
  -3.71829E+2  -1.99874E+3
   1.62894E+3  -4.23851E+2
  -2.78714E+1  -6.73060E+2
  -9.47725E+2  -1.00504E+3
  -9.23337E+2  -1.80814E+3
   6.14796E+2  -5.31383E+2
   1.37584E+2   2.03661E+3
  -3.66875E+2   7.69922E+2
   1.45107E+2  -1.66825E+3
   2.50254E+3  -5.26328E+2
   1.43073E+3  -2.06893E+2
   3.17560E+2   1.08924E+3
   1.15276E+3  -7.12594E+2
   2.08957E+3  -1.54778E+3
   1.75042E+3  -1.30885E+3
   1.36434E+3   2.76895E+3
   4.08366E+2   3.84910E+2
   6.88167E+2  -9.75522E+2
   1.45249E+3   3.07600E+2
  -4.50190E+2   2.26817E+3
  -6.46441E+2   1.51656E+3
   6.13402E+2  -1.70749E+3
   1.69769E+3  -1.74296E+3
   7.18982E+2  -1.00227E+3
   2.48502E+3  -1.13368E+3
  -9.76410E+2   4.84042E+0
   8.87647E+2   3.18382E+2
   5.14096E+2  -2.06790E+2
   5.16192E+2   2.45762E+3
  -2.37983E+3   3.32145E+3
  -2.12689E+3  -2.73138E+2
   3.09802E+3  -2.83124E+3
   1.55068E+3  -2.76979E+3
   1.41670E+3   7.28687E+2
  -1.28426E+3   1.16418E+3
  -1.08309E+3  -2.22333E+3
   3.11885E+3  -3.28427E+3
   3.60591E+3  -3.70233E+2
   9.80347E+2   4.07124E+3
   1.48911E+2   2.57411E+3
  -2.07265E+2   2.14735E+2
  -1.23274E+3   4.08304E+2
  -1.00492E+3  -6.73894E+0
  -2.61550E+2   1.11982E+2
  -5.72901E+2  -2.34690E+3
   1.06790E+3  -3.22206E+3
   3.48304E+3  -4.47830E+2
   2.54908E+3   4.28865E+2
   2.20436E+3   1.38526E+3
   5.08266E+2   2.58787E+3
  -1.16259E+3  -3.81621E+2
  -2.41839E+2  -5.10632E+2
  -2.30839E+3  -1.18083E+3
   1.59245E+3  -2.23656E+3
   1.95370E+3  -3.76641E+2
   5.15724E+2  -1.67132E+3
  -2.11527E+3   8.90757E+2
  -2.50631E+3   1.18079E+3
   2.17143E-1  -6.29495E+2
   7.88654E+2   1.75062E+2
   2.11865E+3   1.17130E+3
   6.75042E+1   2.31836E+3
   1.52263E+3   4.54102E+2
  -1.13770E+3   9.85541E+2
  -1.69522E+2   1.05339E+3
  -5.30188E+2   1.89829E+3
  -4.21241E+2   1.27174E+2
   2.35308E+3  -2.61192E+3
   2.24767E+3  -1.31144E+3
  -7.85710E+2   7.64179E+2
  -2.60293E+3   4.11596E+2
  -1.49892E+3   2.65837E+2
   4.30156E+2  -1.55624E+3
  -1.22360E+3  -1.61983E+3
   2.31033E+3  -2.92944E+3
   6.03397E+2  -6.45121E+2
   8.22183E+2  -9.82799E+2
   2.27700E+2  -1.98096E+2
   3.41140E+3  -1.36921E+2
   1.60113E+3   2.17385E+3
  -1.16506E+3   1.65098E+2
   6.00364E+2   3.53855E+2
   3.64450E+2   1.75250E+1
   1.01217E+3   1.47671E+3
   1.29050E+1   6.09271E+2
  -1.62597E+3  -5.89888E+2
  -1.32391E+3   1.17409E+3
  -2.35866E+3  -7.41018E+2
  -6.77683E+2  -1.22078E+3
   2.20048E+3  -1.54290E+3
   7.08941E+2  -9.09485E+2
   2.12042E+3   1.71581E+3
   6.94960E+2  -1.42504E+2
   1.09219E+3   3.12204E+1
  -1.44261E+2  -2.63353E+3
   2.19342E+3   6.88646E+2
  -6.48548E+2  -2.70643E+3
   9.78327E+1   1.22317E+3
   1.06108E+3   9.59238E+2
   1.57789E+2  -1.18882E+3
  -2.55593E+2   1.42897E+3
   6.90456E+2   7.19618E+2
   8.04988E+2  -2.40376E+3
   8.40953E+2   7.57894E+2
   1.25995E+3   1.06415E+3
   1.09287E+2   1.08152E+3
  -1.58133E+3   5.71865E+2
  -6.62500E+2  -6.40920E+2
   3.48909E+2  -2.29289E+3
   6.27719E+2  -1.59713E+3
  -3.01709E+3   5.17309E+0
   4.03757E+2  -1.02941E+3
   1.82350E+3  -1.34022E+3
   4.36321E+2  -7.70379E+1
   2.00371E+3   2.43391E+3
   1.73749E+3  -1.60371E+3
   4.74974E+2  -3.15631E+3
   7.10898E+2  -1.94328E+2
   1.73817E+2  -1.70477E+3
  -5.77016E+2  -1.00415E+3
   8.10769E+2  -8.43722E+2
   7.87870E+2   3.28708E+3
  -1.70196E+3   1.11155E+3
  -1.38833E+3  -7.53203E+2
   7.14358E+2  -2.60381E+3
   8.62140E+1  -1.70384E+3
  -1.76091E+2  -1.19849E+3
  -5.16725E+2   2.54237E+2
   5.34417E+2   2.82831E+3
  -1.06816E+3   2.58267E+2
   1.35232E+3   3.53940E+2
  -2.46152E+2   7.35010E+2
   7.62811E+2   2.47995E+3
  -1.93034E+3  -1.27185E+3
   1.28839E+2  -2.30809E+3
  -1.36367E+3   3.10676E+3
  -1.93062E+3   5.86501E+2
  -2.38565E+3  -1.03949E+3
  -1.04798E+3  -1.69809E+3
   2.15564E+3   8.87554E+2
   2.00222E+3   6.97554E+2
  -8.92670E+2   2.35186E+3
  -1.70234E+3   7.98958E+2
  -5.31430E+2   8.31249E+2
  -5.18571E+2  -4.72217E+2
  -1.58450E+3   3.01214E+3
  -2.77583E+3   3.28622E+2
  -1.31571E+3  -4.10086E+2
  -1.31672E+3  -2.25596E+3
   1.10532E+3   7.06036E+2
  -4.19149E+2   1.35696E+3
  -1.99483E+3   3.16503E+2
  -1.67810E+3  -1.17005E+3
   1.37831E+2   4.41047E+2
  -6.43652E+2   2.39243E+3
  -5.23317E+2   9.60784E+2
  -2.18707E+2  -8.58850E+2
   1.38655E+3  -2.13395E+2
  -5.70535E+2   8.67894E+2
   4.97949E+1  -1.53589E+3
   7.48319E+2  -3.86787E+2
   1.01063E+3   6.95466E+2
  -2.14158E+3   1.78681E+3
  -5.30722E+2   1.50109E+3
  -1.77765E+2   9.67627E+1
  -7.54611E+2  -1.00862E+3
   7.96799E+2  -5.29806E+2
  -1.04611E+3   1.02181E+3
  -9.61556E+2  -1.26851E+2
   1.07349E+3  -1.30104E+3
   2.68380E+3  -1.28423E+2
  -1.04892E+3   3.55692E+2
  -1.84380E+1   1.78810E+3
  -8.11572E+2   2.84385E+2
   6.76888E+2  -9.99591E+2
  -2.49627E+3   4.67330E+2
   7.12781E+2   7.50437E+2
   9.29046E+1   1.20409E+3
  -1.20647E+3   9.21018E+2
  -1.88093E+3  -1.14473E+3
   2.74810E+2   5.87434E+2
   1.38161E+3   2.16277E+2
  -9.55006E+1   6.16111E+2
  -6.58214E+2   1.02713E+3
  -3.69494E+0   9.17309E+2
   9.23913E+2   1.98179E+3
  -9.71901E+2   1.20375E+3
  -4.40164E+2  -1.84228E+3
  -9.61120E+2   1.60735E+2
   3.17167E+2  -5.19140E+2
   2.21274E+2  -1.46575E+2
   2.05106E+3   5.58473E+2
   1.90692E+3  -8.23610E+2
  -2.88048E+2   4.61914E+2
  -1.85880E+3  -3.67129E+2
   2.71611E+2  -4.79369E+2
   1.50873E+2  -1.01237E+2
   8.69604E+2  -1.65805E+3
  -1.14851E+3   1.65710E+2
   1.79856E+3  -3.51174E+2
   4.20827E+2   7.01232E+2
  -6.92829E+0   6.46882E+2
  -9.50793E+2   7.15740E+2
  -1.86589E+3   6.35485E+1
   1.49445E+2   8.32214E+2
   5.84102E+1  -2.07103E+3
   1.88590E+3   4.74878E+2
  -7.53652E+2   9.03478E+1
  -7.67214E+2   1.86828E+3
  -1.73097E+3   3.97681E+2
  -1.16676E+3   7.93548E+2
   3.66561E+2  -1.09211E+3
   7.94423E+2  -1.96812E+2
  -9.94109E+2   2.43689E+2
   5.48102E+2   1.25673E+3
   1.26844E+2   1.02958E+3
   5.41387E+1   1.55738E+3
  -4.11632E+2   2.80249E+2
  -1.71909E+3  -1.57623E+3
  -6.04996E+2  -2.12222E+3
  -1.69299E+3   1.11379E+3
   3.14096E+2  -7.70431E+1
  -2.93107E+2   8.59390E+2
  -7.50654E+2  -1.21295E+3
   8.08863E+2  -7.64300E+2
   2.39301E+3   4.70184E+2
  -1.00424E+3   1.18942E+3
   3.94279E+3   4.86810E+2
  -1.52610E+2   1.07814E+2
   1.82215E+2   8.58646E+2
   2.61071E+2   6.39169E+2
   2.94060E+3  -1.81577E+3
   1.08686E+3   2.82686E+2
  -1.31241E+3  -1.11649E+2
   7.06281E+2   1.90916E+3
  -3.79558E+2   1.10097E+3
  -4.27681E+2  -3.74844E+2
   4.35901E+2   5.36935E+1
  -1.74755E+2   9.55516E+2
  -1.45358E+1   1.26027E+2
  -1.11707E+3  -2.03745E+3
  -2.16374E+2  -1.29462E+3
   1.41251E+3  -5.51961E+1
  -6.83701E+2   2.84512E+3
  -1.04390E+3  -2.39937E+2
  -1.79177E+3  -1.04655E+3
  -8.03997E+2   6.11219E+2
  -1.24462E+3   1.40856E+3
  -6.24902E+2  -8.61348E+2
  -4.35665E+2  -5.93248E+1
   9.17949E+2  -9.98198E+2
  -2.25468E+2   1.43373E+3
  -1.94340E+3   3.24930E+2
  -1.91619E+3   3.28181E+2
  -1.05421E+3  -6.71927E+1
   8.01684E+2  -1.22027E+3
   1.48015E+3  -3.24656E+2
   8.72333E+2   8.45951E+2
   4.00641E+1   5.83697E+2
   5.41705E+2  -1.01147E+3
  -2.08397E+3   7.65869E+2
  -2.03559E+3  -1.02451E+2
  -8.24930E+2   3.88123E+2
  -8.87241E+2  -5.72228E+2
  -1.08899E+3  -8.56094E+1
  -9.17822E+1   2.61704E+2
   1.51433E+3   7.30220E+2
  -1.46545E+3  -3.68316E+2
   6.41884E+2   2.59317E+3
   1.23656E+2  -1.12226E+3
  -1.47434E+2   8.35508E+2
   1.65004E+3  -3.22522E+2
   1.93815E+3  -6.07101E+1
   1.44343E+3   8.09020E+2
  -1.28022E+3  -4.73928E+2
   3.07694E+1   1.41809E+3
  -3.55165E+1   3.73378E+2
   4.64882E+2   8.45433E+2
   1.74993E+3  -2.45729E+0
   1.11235E+2   2.17056E+2
  -1.93281E+2   3.55005E+2
  -7.34070E+2  -1.11434E+3
  -7.68516E+2   9.59402E+2
   1.30816E+3  -8.44500E+2
  -1.66283E+3   5.81379E+2
  -3.32050E+3  -6.28698E+2
   3.64661E+2   6.06805E+2
  -3.91668E+2  -3.03401E+2
  -7.10184E+2   8.83754E+2
  -5.60611E+2  -1.42764E+3
  -2.26852E+3   1.39241E+3
   1.75508E+3  -3.52978E+2
   2.33200E+0   1.59294E+3
  -1.45582E+2   2.16768E+3
  -2.77275E+2   5.52554E+2
  -2.47369E+2  -1.71787E+3
   8.36017E+2  -7.95113E+2
   2.08337E+2  -8.80922E+2
   1.06809E+3   2.77576E+2
  -1.06463E+3   3.16542E+2
   1.66766E+3   3.47243E+2
  -8.99407E+2   6.76413E+2
   3.43751E+1  -1.02523E+3
