 LCModel (Version 6.3-1N) Copyright: S.W. Provencher.          Ref.: Magn. Reson. Med. 30:672-679 (1993).                
 Slice_N1@12_19  02-Jun-2023 14:36:31
 27 lines in following concentration table = NCONC+1
    Conc.  %SD /Cr+PCr  Metabolite                                         
 1.35E-06  38% 1.5E-04 Mac                                                 
 3.62E-02  25%   4.124 Cr                                                  
 3.40E-02  26%   3.876 PCr                                                 
    0.124  10%  14.122 Ins                                                 
 9.84E-02   9%  11.222 NAA                                                 
 6.10E-02  17%   6.961 Tau                                                 
 1.60E-02  16%   1.830 PCho                                                
    0.000 999%   0.000 GPC                                                 
    0.100  14%  11.370 Glu                                                 
 2.57E-02  36%   2.931 Gln                                                 
    0.000 999%   0.000 Ala                                                 
 1.04E-02 169%   1.187 Asc                                                 
 8.33E-03 107%   0.950 Asp                                                 
 1.10E-02  44%   1.251 GABA                                                
 8.22E-03  69%   0.938 Glc                                                 
 8.28E-03  58%   0.944 GSH                                                 
 1.24E-02  77%   1.413 Lac                                                 
 2.32E-02  26%   2.650 NAAG                                                
    0.000 999%   0.000 PE                                                  
 1.60E-02  16%   1.830 GPC+PCho                                            
    0.122   9%  13.872 NAA+NAAG                                            
    0.125  13%  14.301 Glu+Gln                                             
 7.02E-02  11%   8.000 Cr+PCr                                              
    0.122   9%  13.872 NAA+NAAG                                            
 7.02E-02  11%   8.000 Cr+PCr                                              
    0.125  13%  14.301 Glu+Gln                                             
   6 lines in following misc. output table
  FWHM = 0.017 ppm    S/N =   5                                            
  Data shift = 0.017 ppm                                                   
  Ph: -42 deg      -4.0 deg/ppm                                            
  alphaB,S = 3.1E+01,   4.0E-01                                            
   18 spline knots.   Ns = 5(1)                                            
   2 inflections.     2 extrema                                            
  654 points on ppm-axis = NY
      4.000000     3.994181     3.988363     3.982544     3.976726     3.970907     3.965088     3.959270     3.953451     3.947633
      3.941814     3.935995     3.930177     3.924358     3.918540     3.912721     3.906902     3.901084     3.895265     3.889446
      3.883628     3.877809     3.871991     3.866172     3.860353     3.854535     3.848716     3.842898     3.837079     3.831260
      3.825442     3.819623     3.813805     3.807986     3.802167     3.796349     3.790530     3.784712     3.778893     3.773074
      3.767256     3.761437     3.755619     3.749800     3.743981     3.738163     3.732344     3.726526     3.720707     3.714888
      3.709070     3.703251     3.697433     3.691614     3.685795     3.679977     3.674158     3.668339     3.662521     3.656702
      3.650884     3.645065     3.639246     3.633428     3.627609     3.621791     3.615972     3.610153     3.604335     3.598516
      3.592698     3.586879     3.581060     3.575242     3.569423     3.563605     3.557786     3.551967     3.546149     3.540330
      3.534512     3.528693     3.522874     3.517056     3.511237     3.505419     3.499600     3.493781     3.487963     3.482144
      3.476326     3.470507     3.464688     3.458870     3.453051     3.447232     3.441414     3.435595     3.429777     3.423958
      3.418139     3.412321     3.406502     3.400684     3.394865     3.389046     3.383228     3.377409     3.371591     3.365772
      3.359953     3.354135     3.348316     3.342498     3.336679     3.330860     3.325042     3.319223     3.313405     3.307586
      3.301767     3.295949     3.290130     3.284312     3.278493     3.272674     3.266856     3.261037     3.255219     3.249400
      3.243581     3.237763     3.231944     3.226125     3.220307     3.214488     3.208670     3.202851     3.197032     3.191214
      3.185395     3.179577     3.173758     3.167939     3.162121     3.156302     3.150484     3.144665     3.138846     3.133028
      3.127209     3.121391     3.115572     3.109753     3.103935     3.098116     3.092298     3.086479     3.080660     3.074842
      3.069023     3.063205     3.057386     3.051567     3.045749     3.039930     3.034111     3.028293     3.022474     3.016656
      3.010837     3.005018     2.999200     2.993381     2.987563     2.981744     2.975925     2.970107     2.964288     2.958470
      2.952651     2.946832     2.941014     2.935195     2.929377     2.923558     2.917739     2.911921     2.906102     2.900284
      2.894465     2.888646     2.882828     2.877009     2.871191     2.865372     2.859553     2.853735     2.847916     2.842098
      2.836279     2.830460     2.824642     2.818823     2.813004     2.807186     2.801367     2.795549     2.789730     2.783911
      2.778093     2.772274     2.766456     2.760637     2.754818     2.749000     2.743181     2.737363     2.731544     2.725725
      2.719907     2.714088     2.708270     2.702451     2.696632     2.690814     2.684995     2.679177     2.673358     2.667539
      2.661721     2.655902     2.650084     2.644265     2.638446     2.632628     2.626809     2.620991     2.615172     2.609353
      2.603535     2.597716     2.591897     2.586079     2.580260     2.574442     2.568623     2.562804     2.556986     2.551167
      2.545349     2.539530     2.533711     2.527893     2.522074     2.516256     2.510437     2.504618     2.498800     2.492981
      2.487163     2.481344     2.475525     2.469707     2.463888     2.458070     2.452251     2.446432     2.440614     2.434795
      2.428977     2.423158     2.417339     2.411521     2.405702     2.399884     2.394065     2.388246     2.382428     2.376609
      2.370790     2.364972     2.359153     2.353335     2.347516     2.341697     2.335879     2.330060     2.324242     2.318423
      2.312604     2.306786     2.300967     2.295149     2.289330     2.283511     2.277693     2.271874     2.266056     2.260237
      2.254418     2.248600     2.242781     2.236963     2.231144     2.225325     2.219507     2.213688     2.207870     2.202051
      2.196232     2.190414     2.184595     2.178777     2.172958     2.167139     2.161321     2.155502     2.149683     2.143865
      2.138046     2.132228     2.126409     2.120590     2.114772     2.108953     2.103135     2.097316     2.091497     2.085679
      2.079860     2.074042     2.068223     2.062404     2.056586     2.050767     2.044949     2.039130     2.033311     2.027493
      2.021674     2.015856     2.010037     2.004218     1.998400     1.992581     1.986763     1.980944     1.975126     1.969307
      1.963489     1.957670     1.951852     1.946033     1.940215     1.934397     1.928578     1.922760     1.916941     1.911123
      1.905304     1.899486     1.893667     1.887849     1.882030     1.876212     1.870393     1.864575     1.858756     1.852938
      1.847119     1.841301     1.835482     1.829664     1.823845     1.818027     1.812208     1.806390     1.800571     1.794753
      1.788934     1.783116     1.777297     1.771479     1.765660     1.759842     1.754023     1.748205     1.742386     1.736568
      1.730749     1.724931     1.719113     1.713294     1.707476     1.701657     1.695839     1.690020     1.684202     1.678383
      1.672565     1.666746     1.660928     1.655109     1.649291     1.643472     1.637654     1.631835     1.626017     1.620198
      1.614380     1.608561     1.602743     1.596924     1.591106     1.585287     1.579469     1.573650     1.567832     1.562013
      1.556195     1.550376     1.544558     1.538739     1.532921     1.527102     1.521284     1.515465     1.509647     1.503829
      1.498010     1.492192     1.486373     1.480555     1.474736     1.468918     1.463099     1.457281     1.451462     1.445644
      1.439825     1.434007     1.428188     1.422370     1.416551     1.410733     1.404914     1.399096     1.393277     1.387459
      1.381640     1.375822     1.370003     1.364185     1.358366     1.352548     1.346729     1.340911     1.335092     1.329274
      1.323455     1.317637     1.311818     1.306000     1.300182     1.294363     1.288545     1.282726     1.276908     1.271089
      1.265271     1.259452     1.253634     1.247815     1.241997     1.236178     1.230360     1.224541     1.218723     1.212904
      1.207086     1.201267     1.195449     1.189630     1.183812     1.177993     1.172175     1.166356     1.160538     1.154719
      1.148901     1.143082     1.137264     1.131445     1.125627     1.119808     1.113990     1.108171     1.102353     1.096534
      1.090716     1.084898     1.079079     1.073261     1.067442     1.061624     1.055805     1.049987     1.044168     1.038350
      1.032531     1.026713     1.020894     1.015076     1.009257     1.003439     0.997620     0.991802     0.985983     0.980165
      0.974346     0.968528     0.962709     0.956891     0.951072     0.945254     0.939435     0.933617     0.927798     0.921980
      0.916161     0.910343     0.904524     0.898706     0.892887     0.887069     0.881251     0.875432     0.869614     0.863795
      0.857977     0.852158     0.846340     0.840521     0.834703     0.828884     0.823066     0.817247     0.811429     0.805610
      0.799792     0.793973     0.788155     0.782336     0.776518     0.770699     0.764881     0.759062     0.753244     0.747425
      0.741607     0.735788     0.729970     0.724151     0.718333     0.712514     0.706696     0.700877     0.695059     0.689240
      0.683422     0.677603     0.671785     0.665967     0.660148     0.654330     0.648511     0.642693     0.636874     0.631056
      0.625237     0.619419     0.613600     0.607782     0.601963     0.596145     0.590326     0.584508     0.578689     0.572871
      0.567052     0.561234     0.555415     0.549597     0.543778     0.537960     0.532141     0.526323     0.520504     0.514686
      0.508867     0.503049     0.497230     0.491412     0.485593     0.479775     0.473956     0.468138     0.462319     0.456501
      0.450682     0.444864     0.439045     0.433227     0.427408     0.421590     0.415771     0.409953     0.404134     0.398316
      0.392497     0.386679     0.380860     0.375042     0.369223     0.363405     0.357586     0.351767     0.345949     0.340130
      0.334312     0.328493     0.322675     0.316856     0.311038     0.305219     0.299401     0.293582     0.287764     0.281945
      0.276127     0.270308     0.264490     0.258671     0.252853     0.247034     0.241216     0.235397     0.229579     0.223760
      0.217942     0.212123     0.206305     0.200486
 NY phased data points follow
  -1.27877E-01 -3.31534E-01 -2.19422E-01  1.89569E-02 -6.25176E-01 -2.96250E-01 -4.39828E-02 -2.35318E-01 -2.92455E-01 -2.28156E-01
  -2.23981E-01 -2.87757E-01  4.29967E-01  4.78029E-01  1.12330E-02 -1.82796E-01  5.86495E-01 -3.46236E-02 -5.78488E-01 -4.00572E-01
  -1.88278E-01 -5.90689E-03 -1.69382E-01  1.50837E-01  2.45942E-01  5.30178E-03 -2.91268E-01  3.40663E-01  4.50394E-02  1.82248E-01
   2.93080E-01 -4.63506E-02  2.85315E-01 -3.36349E-01 -3.03723E-01 -2.47190E-01 -1.91959E-01  3.24143E-01 -3.64181E-01 -2.18138E-01
   4.79227E-01  2.37739E-01  4.74326E-01  3.19090E-01  7.71282E-01  9.32318E-01  3.87845E-01  3.33536E-01  4.60631E-01  6.62716E-02
  -2.84864E-01  7.11925E-01 -1.07908E-01 -1.60365E-01  9.76334E-02 -3.32068E-01 -3.39541E-01 -8.61738E-01 -2.70716E-02 -6.94885E-01
  -7.95870E-01 -3.10023E-01 -7.62607E-01 -7.22519E-01 -5.50920E-01  2.94859E-01 -2.36860E-03  7.97719E-02  4.42128E-01  7.60326E-01
   4.64856E-01 -3.60079E-01  5.14206E-03  1.16209E-01 -1.78432E-01 -8.26633E-01 -4.32969E-01 -7.15767E-02 -6.69100E-01 -1.14152E+00
  -7.54825E-01  4.89934E-02 -1.80612E-01  3.96318E-02  6.92176E-01  4.26101E-01  3.42677E-01  4.77530E-01  3.52146E-01  5.09670E-01
   4.03727E-01  4.35538E-01  4.72552E-01  8.33402E-01  3.64729E-02 -1.39866E-02  4.54779E-01 -4.88917E-01  7.08452E-02  3.81789E-03
  -2.43620E-01 -4.13856E-02  1.86605E-01 -1.42925E-01  2.64336E-01  8.89795E-01  5.34259E-01  4.70807E-01  3.50973E-01  9.15023E-01
   4.92105E-01  6.93699E-01  5.14774E-01  2.06496E-01  4.75540E-01  2.55129E-01  4.07865E-01  3.22033E-01  4.79494E-01  5.35121E-01
   4.99959E-01  8.72325E-03 -3.65749E-02 -1.99334E-01 -4.85371E-01 -4.48543E-01 -1.35535E-01 -2.20318E-01 -1.00135E+00 -2.06117E-01
   1.39106E-02 -9.55607E-01 -7.32635E-01 -6.97930E-01 -8.56682E-01 -9.78234E-01 -1.37134E+00 -8.60858E-01 -6.58692E-01 -1.55048E-01
   1.45995E-01 -3.34396E-02 -5.51796E-01 -2.18113E-01  3.23949E-01  1.25930E-01  7.81891E-01  5.74364E-01  5.06240E-01  6.89475E-02
   4.45902E-01  5.20707E-01  6.08129E-02  1.99487E-01 -1.76282E-01  1.66476E-02  4.47355E-01  8.89519E-01 -4.56137E-02  2.12438E-01
   4.23315E-01  3.05896E-01  7.54498E-01  8.09566E-01  1.41887E+00  1.16926E+00  1.02428E+00  1.78197E-01 -9.41212E-01 -1.12386E+00
  -1.47062E+00 -7.66465E-01 -5.30262E-01 -1.28386E+00 -4.66863E-01 -2.95227E-01 -3.65048E-01 -6.41246E-01 -5.75738E-01 -1.47617E-01
  -5.94577E-01  1.21834E-01 -3.47502E-01 -2.01254E-01  2.45343E-01 -2.31889E-01 -2.93017E-01 -4.85872E-01 -2.87929E-01 -1.10973E-01
  -1.83836E-02 -2.73141E-01 -3.92574E-01 -1.49777E-01 -2.26932E-01 -7.93539E-01 -6.80638E-02  1.80657E-01 -4.27720E-01  2.92277E-01
   4.15215E-01 -2.51394E-01  1.56420E-01  4.17931E-01  1.91168E-03  2.60607E-02 -4.27285E-01  8.89782E-02  1.53751E-01 -6.59387E-02
   1.02888E-01 -2.24681E-03 -2.25443E-02 -4.83149E-01  1.95804E-01 -1.17619E-01 -1.32942E-01 -3.49374E-02 -2.35036E-01  6.97597E-01
   8.39161E-02 -3.12465E-01 -2.39944E-01 -8.11178E-02  4.89614E-01  4.07431E-01  2.56202E-01  1.94158E-01  4.43956E-01  6.76562E-01
   3.88194E-01  1.90968E-01  1.54841E-01  4.10126E-01  2.89256E-01 -4.32991E-01 -3.60112E-01 -1.24031E-01 -3.85268E-01 -1.51436E-01
  -1.29420E-01 -2.77337E-01 -2.10546E-02  1.96246E-01  1.74172E-01 -3.72425E-01  2.23561E-01  5.02659E-01  1.27229E-01  9.71330E-02
  -2.73361E-01  1.07181E-01 -6.83006E-02 -5.07550E-01 -3.93669E-01 -1.38436E-01 -2.97132E-01 -1.85428E-02  3.37515E-01  4.77019E-02
   3.21441E-01  3.63262E-01 -1.45106E-01  6.47852E-02  5.61830E-01  2.91938E-01  2.57938E-01 -7.46399E-02  5.43986E-01  2.70310E-01
   1.69705E-02  5.36126E-01 -2.79597E-02  3.80087E-01 -4.53091E-01 -3.19481E-01 -4.25743E-03 -6.23852E-02 -3.00517E-01 -8.86667E-01
  -2.05900E-01 -3.08713E-01 -3.94228E-01 -3.56880E-01  2.44974E-01  3.26206E-01  6.02839E-01  6.70158E-01  4.73545E-01  6.79818E-01
   3.71311E-01  3.70045E-01 -2.16784E-01  1.57619E-01  3.54590E-01  3.08532E-01  6.99151E-01  5.29355E-01  3.79343E-01  2.38580E-01
   4.80422E-01  2.46010E-01  2.30364E-01  6.09213E-01  1.82079E-01 -1.23911E-01 -7.34534E-02  1.28998E-01  3.81455E-01  9.77584E-02
  -1.99971E-01  2.37266E-01  3.10281E-01  6.81044E-02  3.35110E-01 -4.50448E-02  5.17306E-02  2.41010E-01 -1.97625E-01 -1.74300E-01
  -2.50909E-01 -2.89274E-01 -3.17664E-01 -4.83101E-01 -4.61186E-01  2.55484E-01  3.99738E-01  2.33408E-01  3.95112E-01  2.21846E-01
   2.59824E-02  3.43643E-02  1.72198E-01 -1.99226E-01 -5.49523E-01 -7.98341E-01 -9.20735E-01 -6.61722E-01 -3.67738E-01 -6.56858E-01
  -5.86574E-01 -9.96674E-01 -2.77820E+00 -2.77508E+00 -1.11618E+00  1.59492E-02  8.44818E-02  4.38066E-01 -5.95273E-03 -5.70841E-01
   3.99955E-01  1.91945E-01  2.63770E-01  1.45353E-01 -2.95893E-01  9.40416E-02 -1.08183E-01  1.70125E-01 -4.28413E-02 -8.19830E-02
  -1.99609E-01 -1.61848E-01  3.82762E-01 -4.67194E-01 -1.20999E-01  2.87972E-01 -2.01650E-01  4.50721E-02  1.86399E-02 -2.28549E-01
  -1.58258E-01  3.81931E-01  7.07978E-01  3.54861E-01 -1.66677E-01 -1.46577E-01  5.95671E-01  1.19049E-01 -1.32746E-01  4.09213E-01
  -2.69290E-02  3.53578E-01  5.13775E-01  5.12227E-01  2.44535E-01  1.38077E-01  4.46553E-01  5.81807E-01  6.61327E-01  1.08990E-01
   5.03504E-01  2.33437E-01  8.14380E-01  6.00080E-01 -1.25038E-01  1.16687E+00  2.92329E-01 -1.97277E-01  3.76692E-01  2.70605E-01
   4.18283E-02  1.96394E-01  5.03001E-01 -2.19840E-01 -1.27350E-01  4.75225E-01  8.51706E-02 -5.34511E-01 -4.84558E-01  7.58261E-02
  -2.38538E-01 -1.61961E-01  2.82929E-01 -3.37194E-02 -2.26603E-01 -1.74793E-01 -3.35380E-01 -4.83591E-01  3.37552E-01 -1.36530E-01
  -6.74191E-01  5.72031E-03 -3.08029E-01 -2.56035E-01 -2.15242E-01 -2.71876E-01 -2.43454E-01 -2.03927E-01  5.21122E-01  1.63237E-01
   2.40447E-02  1.55134E-01 -3.57162E-01 -3.26265E-01  1.40708E-01  3.22467E-01 -4.84711E-01  6.57448E-02 -1.72371E-01 -1.43168E-01
   4.80137E-01 -6.63897E-02 -7.37287E-02 -4.62920E-01  2.05393E-02  1.54256E-01  6.01295E-01 -2.75298E-01 -4.50421E-01  4.59227E-01
  -3.46053E-02 -3.42307E-01 -4.31535E-01  4.09101E-01 -3.88778E-01 -2.03913E-01 -7.98877E-02 -1.88269E-01  1.95073E-02 -2.00148E-01
   4.07902E-01  2.26730E-01  1.36234E-01  2.84283E-01  4.03755E-01  3.57637E-02 -2.56418E-01 -4.45237E-01 -3.62141E-01 -4.14749E-01
  -1.74907E-01 -3.08753E-01  9.93636E-02 -6.58141E-02 -6.18706E-01  1.22523E-01 -3.52008E-01 -2.52869E-01 -9.37038E-02  3.61826E-01
   1.84911E-01  1.44406E-01  2.88285E-01  2.22207E-01  4.98215E-02 -5.02704E-03  5.03693E-01  2.46328E-01  5.29880E-01 -2.32946E-01
   2.79641E-02  1.10351E-01 -2.80749E-01 -5.12524E-02 -1.11003E-01  1.46724E-01  1.54115E-01  1.22269E-01  3.09482E-01  1.11620E-01
  -2.04032E-01  1.91587E-01 -4.45611E-01  1.91691E-01  9.05610E-02  1.26029E-01  3.59344E-01 -2.79411E-01  7.11773E-01 -3.01321E-02
  -1.79107E-02  3.08828E-01 -2.24362E-01  3.16298E-01  3.65468E-01  2.08547E-01 -3.38601E-01 -7.34816E-01 -2.29778E-01 -4.58451E-02
   2.12731E-01 -2.53422E-01 -1.09662E-01 -2.09072E-01 -5.08149E-01 -1.00885E-01 -5.01604E-01 -2.37307E-01 -1.00045E+00 -7.40851E-01
  -1.55517E-01  8.29238E-02  8.57790E-03 -3.09944E-01 -7.71761E-02 -1.78048E-01  4.63524E-01 -1.13812E-01  1.55231E-01 -5.58433E-02
  -2.84866E-01  3.78190E-01 -3.58873E-01  9.20891E-02  7.24937E-01  5.77573E-01  3.15753E-01  1.41988E-02  2.50539E-01  1.97166E-01
   1.68026E-01 -3.43881E-02  1.98159E-01  3.42899E-01 -9.55464E-02  3.85789E-01  1.71585E-01  4.75951E-01 -6.85758E-02  1.97913E-01
   2.06833E-01 -3.91971E-01  3.83565E-01 -9.95434E-02  5.50735E-02 -3.14857E-01 -1.21587E-01 -1.33843E-01  7.53352E-02 -2.91955E-01
  -1.22897E-01  4.99313E-01 -1.93776E-01 -1.52624E-02 -5.37552E-01  1.05595E-01  3.58273E-01  2.05444E-01 -2.13259E-02 -4.11798E-03
  -2.67344E-01  1.43434E-01  2.59527E-01 -2.27881E-01  4.42192E-01 -3.77241E-02 -1.19379E-01 -2.98061E-01  3.92858E-02 -4.49059E-01
  -2.33073E-01  1.33392E-01  6.95559E-02  2.31074E-01 -4.22300E-01 -2.30443E-01  3.91795E-02  2.36942E-01 -7.13315E-02  3.92069E-01
   6.30101E-02 -4.75050E-01  2.02788E-01  4.71779E-01 -4.99605E-01  2.12971E-01  3.84980E-01 -3.41539E-01  1.94497E-01 -5.66332E-01
   3.39681E-02 -3.27870E-01 -1.59192E-02  2.52435E-01 -2.54306E-01  1.10486E-01 -3.25679E-01  2.24478E-01  1.86611E-01  3.35635E-01
   2.64811E-01  7.73644E-02 -1.59486E-02 -3.91696E-01  3.23846E-01  1.16757E-01 -6.32211E-02  4.11386E-01 -7.45305E-02 -1.68854E-02
   2.96969E-02  1.25695E-01 -1.16451E-01 -2.15402E-01  3.85481E-01 -7.68727E-02  1.30839E-01 -4.72096E-03  2.50071E-01  4.23013E-01
  -1.84945E-01  3.11677E-01  2.18958E-01  7.00769E-02  3.90491E-01  3.34442E-01 -3.78236E-01 -2.78743E-01  1.87555E-01 -9.11794E-02
  -1.34894E-01 -3.78115E-01  3.77979E-01  3.51291E-01
 NY points of the fit to the data follow
   5.07737E-04 -1.40485E-02 -2.93155E-02 -4.25102E-02 -4.89533E-02 -4.98499E-02 -5.42868E-02 -4.30090E-02  8.85809E-03  5.49161E-02
   1.01683E-01  2.93527E-01  5.93084E-01  5.39679E-01  3.32961E-01  4.28766E-01  5.81868E-01  3.69739E-01  1.69860E-01  7.11211E-02
   6.93485E-03 -3.54998E-02 -2.96522E-02 -5.24470E-02 -7.42359E-02 -9.10541E-02 -1.05507E-01 -1.11308E-01 -1.21201E-01 -1.36407E-01
  -1.50734E-01 -1.67030E-01 -1.98066E-01 -2.39663E-01 -2.85438E-01 -3.20033E-01 -3.43168E-01 -3.48153E-01 -2.87923E-01 -1.26487E-01
   5.16725E-02  1.94884E-01  3.57408E-01  4.78666E-01  5.16686E-01  4.37212E-01  3.01712E-01  1.68070E-01  1.13173E-01  5.25700E-02
   2.78470E-02 -1.22928E-02 -3.89425E-02 -8.78056E-02 -1.48448E-01 -2.12248E-01 -2.90835E-01 -3.84637E-01 -4.77131E-01 -5.52088E-01
  -6.40835E-01 -6.69824E-01 -5.14726E-01 -4.04979E-01 -4.56162E-01 -6.62239E-02  3.91377E-01  3.41618E-01  4.95154E-01  8.28508E-01
   6.16813E-01  3.71260E-01  3.17669E-01  1.03590E-01 -1.61404E-02 -1.85517E-01 -3.53333E-01 -5.01026E-01 -7.73237E-01 -1.05590E+00
  -7.40580E-01 -1.29538E-01  8.72360E-02  3.06207E-01  7.45285E-01  7.96274E-01  6.31318E-01  5.82972E-01  4.65673E-01  3.81214E-01
   3.58402E-01  3.38614E-01  3.08293E-01  2.70920E-01  2.19715E-01  1.41774E-01  4.26819E-02 -9.31501E-02 -2.46123E-01 -3.29513E-01
  -3.10167E-01 -1.35067E-01  1.01896E-01  3.16047E-01  4.21584E-01  4.47579E-01  4.06283E-01  3.94826E-01  3.71307E-01  3.71236E-01
   3.73375E-01  3.73249E-01  3.74982E-01  3.76203E-01  3.80196E-01  3.85688E-01  3.93174E-01  3.92910E-01  3.68508E-01  3.46771E-01
   2.93436E-01  1.51496E-01 -2.17590E-02 -6.92912E-02 -2.08614E-01 -2.97536E-01 -2.08171E-01 -2.17372E-01 -4.33784E-01 -4.02442E-01
  -4.84739E-01 -5.64375E-01 -5.03440E-01 -3.37763E-01 -4.41220E-01 -1.05570E+00 -1.37073E+00 -8.15923E-01 -3.37162E-01 -2.15306E-01
   4.79117E-02  3.81820E-02  2.18900E-02  3.51353E-02  5.50341E-02  7.59349E-02  9.51426E-02  1.13763E-01  1.31006E-01  1.46911E-01
   1.63652E-01  1.81116E-01  1.98440E-01  2.17549E-01  2.39435E-01  2.63119E-01  2.90682E-01  3.22865E-01  3.60076E-01  4.05964E-01
   4.71584E-01  5.70123E-01  7.25355E-01  8.42071E-01  8.56908E-01  9.15576E-01  9.56121E-01  2.50111E-01 -9.20093E-01 -1.35279E+00
  -1.04185E+00 -8.01915E-01 -5.54346E-01 -3.52146E-01 -3.37563E-01 -3.20685E-01 -2.71436E-01 -2.59978E-01 -2.54424E-01 -2.45846E-01
  -2.21421E-01 -2.00905E-01 -1.95197E-01 -1.87023E-01 -1.85812E-01 -1.83308E-01 -1.75670E-01 -1.63451E-01 -1.59475E-01 -1.52609E-01
  -1.44887E-01 -1.34814E-01 -1.27733E-01 -1.19012E-01 -1.11831E-01 -1.05801E-01 -9.93153E-02 -9.13301E-02 -8.34466E-02 -7.70634E-02
  -6.96739E-02 -5.87234E-02 -5.25158E-02 -5.77544E-02 -6.59104E-02 -6.44108E-02 -5.23008E-02 -4.51481E-02 -5.71995E-02 -7.54593E-02
  -8.18260E-02 -7.92004E-02 -6.84430E-02 -5.38234E-02 -4.10588E-02 -2.36416E-02  1.12857E-02  2.75915E-02 -5.17651E-04 -2.75505E-02
  -1.10889E-03  4.83479E-02  8.75056E-02  1.00551E-01  1.63440E-01  3.02671E-01  3.83239E-01  2.90343E-01  2.27033E-01  3.70438E-01
   4.81717E-01  3.25790E-01  1.13659E-01  5.99886E-03 -7.21487E-02 -1.00605E-01 -8.24879E-02 -8.19413E-02 -8.69338E-02 -9.63957E-02
  -1.06454E-01 -1.14904E-01 -1.21030E-01 -1.27850E-01 -1.34066E-01 -1.43950E-01 -1.48798E-01 -1.54302E-01 -1.61588E-01 -1.67905E-01
  -1.57302E-01 -1.58047E-01 -1.70484E-01 -1.63892E-01 -1.62705E-01 -1.42612E-01 -3.21416E-02  5.93615E-02  4.48275E-02  1.04658E-01
   1.70107E-01  1.90769E-01  1.45526E-01  9.32879E-02  1.32949E-01  1.96052E-01  1.62953E-01  1.58670E-01  1.86458E-01  1.49485E-01
   1.41283E-01  7.39785E-02  3.32003E-02 -3.47085E-02 -8.23778E-02 -1.38496E-01 -2.07093E-01 -2.79477E-01 -3.62801E-01 -4.50146E-01
  -5.38918E-01 -5.25172E-01 -4.31116E-01 -2.68089E-01  2.75194E-02  3.26138E-01  5.05719E-01  6.25095E-01  5.99985E-01  4.35201E-01
   3.37690E-01  2.63254E-01  2.22474E-01  2.20529E-01  2.50773E-01  2.84562E-01  3.05478E-01  3.01471E-01  3.01752E-01  2.65430E-01
   2.56682E-01  2.37281E-01  2.23429E-01  2.10506E-01  1.91291E-01  1.65312E-01  1.35793E-01  9.10096E-02  3.44380E-02 -5.77185E-03
  -3.17343E-02 -5.74004E-02 -2.13294E-02  5.14030E-03  1.50902E-02  7.84227E-03 -3.97384E-02 -1.53921E-01 -2.30351E-01 -3.09733E-01
  -3.65040E-01 -3.68974E-01 -3.36943E-01 -2.68088E-01 -1.57588E-01 -9.18565E-03  1.07272E-01  1.85913E-01  1.98149E-01  1.48597E-01
   6.49944E-02 -5.18250E-02 -2.22599E-01 -3.15356E-01 -3.95957E-01 -5.35298E-01 -7.58099E-01 -5.57989E-01 -4.61557E-01 -4.86899E-01
  -6.24628E-01 -1.19736E+00 -2.84503E+00 -2.67475E+00 -1.19222E+00 -3.41774E-01 -2.56347E-01  2.26635E-01 -9.97163E-03 -5.09281E-02
  -4.53308E-02 -2.95745E-02 -1.33017E-02  7.16241E-04  1.50178E-02  2.60985E-02  3.20562E-02  2.78958E-02  1.74279E-02 -1.56799E-02
  -4.87428E-02 -8.15027E-02 -1.07177E-01 -1.24990E-01 -1.21159E-01 -1.17098E-01 -9.63942E-02 -7.48325E-02 -5.50212E-02 -3.91672E-02
  -2.47549E-02 -1.04880E-02  1.77025E-03  8.30199E-03  1.38116E-02  1.81699E-02  2.26363E-02  2.71896E-02  3.16633E-02  3.51068E-02
   3.76130E-02  4.13472E-02  4.45262E-02  4.79788E-02  5.07536E-02  5.28053E-02  5.38678E-02  5.61512E-02  5.96989E-02  6.29566E-02
   6.62317E-02  6.85699E-02  6.95340E-02  6.84120E-02  6.73625E-02  6.55590E-02  6.48079E-02  6.36433E-02  6.18724E-02  5.86695E-02
   5.49512E-02  5.12658E-02  4.75772E-02  4.25329E-02  3.83799E-02  3.55957E-02  3.29060E-02  2.90149E-02  2.57549E-02  2.29704E-02
   2.02190E-02  1.81436E-02  1.66155E-02  1.44626E-02  1.23085E-02  1.08575E-02  8.53386E-03  6.87916E-03  5.65304E-03  4.88614E-03
   3.97743E-03  2.92583E-03  3.08082E-03  4.67426E-03  5.68035E-03  7.53109E-03  1.03962E-02  1.28308E-02  1.55498E-02  1.89322E-02
   2.04050E-02  2.02328E-02  2.12054E-02  2.46179E-02  2.91576E-02  3.41707E-02  3.87672E-02  4.25619E-02  4.67447E-02  5.23028E-02
   5.90799E-02  6.59184E-02  7.27052E-02  7.96173E-02  8.58370E-02  9.19692E-02  9.81347E-02  1.02035E-01  1.03952E-01  1.04175E-01
   1.02665E-01  1.00188E-01  9.70986E-02  9.18968E-02  8.51264E-02  7.66265E-02  7.96468E-02  8.24505E-02  9.29551E-02  1.32301E-01
   2.27197E-01  2.66301E-01  2.86914E-01  2.51013E-01  1.74351E-01  9.50268E-02  9.48374E-02  6.35099E-02  6.81658E-02  6.67955E-02
   6.30035E-02  5.96305E-02  5.62463E-02  5.38287E-02  5.35710E-02  5.48581E-02  5.53212E-02  5.64732E-02  5.89563E-02  6.10908E-02
   6.34452E-02  6.70116E-02  7.00740E-02  7.18496E-02  7.32201E-02  7.43151E-02  7.48457E-02  7.51187E-02  7.67496E-02  7.89181E-02
   7.95284E-02  7.85720E-02  7.71923E-02  7.53115E-02  7.37987E-02  7.16712E-02  6.86708E-02  6.64527E-02  6.53545E-02  6.32781E-02
   6.11985E-02  5.89431E-02  5.66264E-02  5.43531E-02  5.21079E-02  4.96201E-02  4.67432E-02  4.53207E-02  4.47232E-02  4.30529E-02
   4.04200E-02  3.79343E-02  3.50607E-02  3.08179E-02  2.56855E-02  2.06597E-02  1.56065E-02  9.85001E-03  2.73981E-03 -6.69112E-03
  -1.77225E-02 -2.95474E-02 -4.01896E-02 -5.01699E-02 -6.02836E-02 -7.02559E-02 -7.78243E-02 -8.47826E-02 -9.10812E-02 -9.67073E-02
  -9.89444E-02 -9.80469E-02 -9.68472E-02 -9.60825E-02 -9.29774E-02 -8.80778E-02 -8.37340E-02 -7.95532E-02 -7.56806E-02 -7.25767E-02
  -6.93219E-02 -6.41787E-02 -5.83522E-02 -5.28455E-02 -4.66396E-02 -3.94496E-02 -3.32218E-02 -2.73624E-02 -2.10286E-02 -1.54284E-02
  -1.08411E-02 -5.19165E-03  8.13516E-04  4.95394E-03  7.75282E-03  1.16361E-02  1.62562E-02  2.05277E-02  2.20367E-02  2.33893E-02
   2.67642E-02  2.89171E-02  3.01185E-02  3.19554E-02  3.25513E-02  3.30961E-02  3.48400E-02  3.52608E-02  3.48883E-02  3.58137E-02
   3.79361E-02  3.94376E-02  4.05610E-02  4.25972E-02  4.36924E-02  4.30686E-02  4.30271E-02  4.34304E-02  4.29667E-02  4.26462E-02
   4.33069E-02  4.30148E-02  4.22675E-02  4.30116E-02  4.35401E-02  4.34296E-02  4.38142E-02  4.45829E-02  4.52697E-02  4.37265E-02
   4.03138E-02  3.98431E-02  4.19673E-02  4.23068E-02  4.15287E-02  4.16667E-02  4.23519E-02  4.15376E-02  3.99432E-02  3.98502E-02
   4.16276E-02  4.27377E-02  4.33008E-02  4.36247E-02  4.41554E-02  4.50506E-02  4.61172E-02  4.66944E-02  4.64862E-02  4.72695E-02
   4.76850E-02  4.68843E-02  4.53436E-02  4.55377E-02  4.63616E-02  4.73679E-02  4.82509E-02  4.96991E-02  5.02231E-02  5.05482E-02
   5.08352E-02  5.23523E-02  5.46080E-02  5.58312E-02  5.60176E-02  5.49757E-02  5.35679E-02  5.35119E-02  5.48799E-02  5.62653E-02
   5.66297E-02  5.57899E-02  5.55899E-02  5.59313E-02  5.66308E-02  5.79584E-02  5.79121E-02  5.72811E-02  5.92124E-02  6.15277E-02
   6.16173E-02  6.16948E-02  6.28852E-02  6.39155E-02  6.53197E-02  6.66526E-02  6.85105E-02  7.20133E-02  7.57484E-02  7.75344E-02
   7.92539E-02  8.10283E-02  8.28239E-02  8.46453E-02
 NY background values follow
     6.124E-02    6.110E-02    6.095E-02    6.081E-02    6.067E-02    6.052E-02    6.038E-02    6.023E-02    6.009E-02    5.995E-02
     5.980E-02    5.966E-02    5.951E-02    5.937E-02    5.922E-02    5.908E-02    5.894E-02    5.879E-02    5.865E-02    5.850E-02
     5.836E-02    5.822E-02    5.807E-02    5.793E-02    5.778E-02    5.764E-02    5.750E-02    5.735E-02    5.721E-02    5.706E-02
     5.692E-02    5.678E-02    5.663E-02    5.649E-02    5.634E-02    5.620E-02    5.606E-02    5.591E-02    5.577E-02    5.562E-02
     5.548E-02    5.534E-02    5.519E-02    5.505E-02    5.490E-02    5.476E-02    5.462E-02    5.447E-02    5.433E-02    5.418E-02
     5.404E-02    5.390E-02    5.375E-02    5.361E-02    5.346E-02    5.332E-02    5.318E-02    5.303E-02    5.289E-02    5.274E-02
     5.260E-02    5.246E-02    5.231E-02    5.217E-02    5.202E-02    5.188E-02    5.174E-02    5.159E-02    5.145E-02    5.130E-02
