 
 $NMID
 ID=''
 FMTDAT='(2E13.5)'
 TRAMP=   1.00000E+0
 VOLUME=   1.00000E+0
 $END
  -1.56388E+4   1.52349E+4
  -4.97312E+4   2.61577E+4
  -4.41881E+4   3.42687E+4
  -4.08189E+4   3.14947E+4
  -4.34573E+4   3.13488E+4
  -4.19959E+4   3.32883E+4
  -4.07312E+4   3.16000E+4
  -4.21457E+4   3.11418E+4
  -4.13316E+4   3.23150E+4
  -4.05049E+4   3.13129E+4
  -4.11647E+4   3.08373E+4
  -4.02901E+4   3.17215E+4
  -3.96345E+4   3.10312E+4
  -4.03664E+4   3.06399E+4
  -3.97686E+4   3.10342E+4
  -3.90809E+4   3.04366E+4
  -3.94911E+4   3.01723E+4
  -3.90422E+4   3.03751E+4
  -3.84351E+4   3.00578E+4
  -3.86489E+4   2.97792E+4
  -3.81887E+4   2.98572E+4
  -3.75859E+4   2.96925E+4
  -3.77938E+4   2.95550E+4
  -3.75203E+4   2.96062E+4
  -3.69298E+4   2.92804E+4
  -3.68916E+4   2.92025E+4
  -3.66815E+4   2.92372E+4
  -3.63843E+4   2.87392E+4
  -3.63539E+4   2.85580E+4
  -3.60596E+4   2.83971E+4
  -3.56090E+4   2.83421E+4
  -3.55615E+4   2.83108E+4
  -3.54496E+4   2.81807E+4
  -3.49915E+4   2.80044E+4
  -3.47596E+4   2.78983E+4
  -3.44579E+4   2.79239E+4
  -3.41254E+4   2.77297E+4
  -3.37674E+4   2.76744E+4
  -3.35306E+4   2.76774E+4
  -3.32569E+4   2.76153E+4
  -3.29541E+4   2.74475E+4
  -3.29098E+4   2.73730E+4
  -3.26005E+4   2.70620E+4
  -3.23122E+4   2.69061E+4
  -3.20324E+4   2.68796E+4
  -3.18654E+4   2.67461E+4
  -3.16633E+4   2.66304E+4
  -3.13614E+4   2.65528E+4
  -3.11749E+4   2.64146E+4
  -3.09618E+4   2.62578E+4
  -3.07783E+4   2.61085E+4
  -3.05503E+4   2.58769E+4
  -3.02433E+4   2.58016E+4
  -2.99589E+4   2.58073E+4
  -2.97368E+4   2.55986E+4
  -2.95409E+4   2.55271E+4
  -2.93636E+4   2.54259E+4
  -2.91479E+4   2.52185E+4
  -2.88694E+4   2.50341E+4
  -2.86686E+4   2.48497E+4
  -2.83569E+4   2.47822E+4
  -2.81316E+4   2.46302E+4
  -2.79690E+4   2.45754E+4
  -2.77742E+4   2.45237E+4
  -2.76118E+4   2.42783E+4
  -2.73146E+4   2.41245E+4
  -2.70984E+4   2.41678E+4
  -2.69349E+4   2.39801E+4
  -2.67662E+4   2.37537E+4
  -2.66530E+4   2.35890E+4
  -2.63597E+4   2.34655E+4
  -2.61928E+4   2.33688E+4
  -2.60074E+4   2.31630E+4
  -2.57451E+4   2.30189E+4
  -2.55321E+4   2.29366E+4
  -2.52609E+4   2.27920E+4
  -2.51203E+4   2.25446E+4
  -2.48626E+4   2.24214E+4
  -2.45997E+4   2.22961E+4
  -2.43753E+4   2.22563E+4
  -2.41584E+4   2.20526E+4
  -2.39815E+4   2.19289E+4
  -2.37807E+4   2.18102E+4
  -2.35528E+4   2.16256E+4
  -2.34371E+4   2.14428E+4
  -2.32578E+4   2.13352E+4
  -2.29808E+4   2.10420E+4
  -2.27352E+4   2.08566E+4
  -2.25504E+4   2.07790E+4
  -2.23300E+4   2.06893E+4
  -2.20821E+4   2.05207E+4
  -2.18490E+4   2.03766E+4
  -2.16031E+4   2.03226E+4
  -2.13958E+4   2.02203E+4
  -2.12278E+4   2.00570E+4
  -2.08832E+4   1.99404E+4
  -2.06703E+4   1.98601E+4
  -2.04330E+4   1.97301E+4
  -2.02156E+4   1.96360E+4
  -1.99757E+4   1.95349E+4
  -1.98060E+4   1.94631E+4
  -1.95212E+4   1.93744E+4
  -1.93349E+4   1.93503E+4
  -1.91813E+4   1.92830E+4
  -1.89184E+4   1.92431E+4
  -1.87214E+4   1.90601E+4
  -1.85318E+4   1.90620E+4
  -1.83861E+4   1.89701E+4
  -1.81772E+4   1.88301E+4
  -1.78985E+4   1.87489E+4
  -1.77533E+4   1.87273E+4
  -1.75914E+4   1.85932E+4
  -1.73331E+4   1.86575E+4
  -1.71926E+4   1.85426E+4
  -1.70928E+4   1.85578E+4
  -1.69197E+4   1.84526E+4
  -1.67401E+4   1.83361E+4
  -1.65454E+4   1.82663E+4
  -1.64267E+4   1.81670E+4
  -1.62508E+4   1.81509E+4
  -1.61368E+4   1.80601E+4
  -1.59809E+4   1.80773E+4
  -1.59023E+4   1.79297E+4
  -1.56932E+4   1.79119E+4
  -1.55702E+4   1.78107E+4
  -1.53952E+4   1.77262E+4
  -1.52789E+4   1.76045E+4
  -1.51499E+4   1.75562E+4
  -1.50404E+4   1.75003E+4
  -1.48769E+4   1.74178E+4
  -1.47707E+4   1.73462E+4
  -1.46262E+4   1.72584E+4
  -1.44992E+4   1.72303E+4
  -1.43500E+4   1.70982E+4
  -1.42472E+4   1.69775E+4
  -1.40866E+4   1.69740E+4
  -1.39667E+4   1.67936E+4
  -1.37898E+4   1.66730E+4
  -1.36456E+4   1.66590E+4
  -1.35763E+4   1.65148E+4
  -1.33573E+4   1.64938E+4
  -1.32177E+4   1.62784E+4
  -1.30726E+4   1.62076E+4
  -1.29091E+4   1.61174E+4
  -1.28162E+4   1.60139E+4
  -1.25962E+4   1.58910E+4
  -1.24587E+4   1.58591E+4
  -1.23925E+4   1.57711E+4
  -1.21458E+4   1.56214E+4
  -1.20138E+4   1.55683E+4
  -1.18815E+4   1.54985E+4
  -1.17489E+4   1.53901E+4
  -1.16060E+4   1.52564E+4
  -1.13976E+4   1.51542E+4
  -1.12547E+4   1.50860E+4
  -1.10822E+4   1.50701E+4
  -1.10020E+4   1.49573E+4
  -1.08243E+4   1.48546E+4
  -1.07460E+4   1.47590E+4
  -1.05152E+4   1.46817E+4
  -1.03883E+4   1.46217E+4
  -1.02004E+4   1.45242E+4
  -1.01073E+4   1.44973E+4
  -9.85668E+3   1.44627E+4
  -9.71007E+3   1.42981E+4
  -9.65307E+3   1.42694E+4
  -9.48936E+3   1.41191E+4
  -9.32093E+3   1.40588E+4
  -9.19130E+3   1.40006E+4
  -9.12361E+3   1.38961E+4
  -8.96419E+3   1.38415E+4
  -8.83370E+3   1.38793E+4
  -8.73719E+3   1.37125E+4
  -8.55970E+3   1.36498E+4
  -8.39063E+3   1.35226E+4
  -8.28201E+3   1.34636E+4
  -8.08521E+3   1.33960E+4
  -8.04054E+3   1.33597E+4
  -7.88583E+3   1.32551E+4
  -7.79077E+3   1.31183E+4
  -7.59303E+3   1.30611E+4
  -7.47066E+3   1.29886E+4
  -7.41441E+3   1.28789E+4
  -7.21688E+3   1.28278E+4
  -7.10901E+3   1.27449E+4
  -7.01771E+3   1.26840E+4
  -6.87127E+3   1.25905E+4
  -6.76574E+3   1.25209E+4
  -6.65392E+3   1.23964E+4
  -6.47520E+3   1.22442E+4
  -6.42155E+3   1.22155E+4
  -6.22733E+3   1.20383E+4
  -6.21955E+3   1.19868E+4
  -6.08233E+3   1.19201E+4
  -5.94221E+3   1.18203E+4
  -5.78650E+3   1.16661E+4
  -5.62466E+3   1.16949E+4
  -5.71142E+3   1.15545E+4
  -5.47488E+3   1.14302E+4
  -5.36823E+3   1.14123E+4
  -5.34834E+3   1.12464E+4
  -5.23228E+3   1.11918E+4
  -5.14491E+3   1.10661E+4
  -5.02450E+3   1.09796E+4
  -4.92632E+3   1.09195E+4
  -4.84276E+3   1.08502E+4
  -4.73167E+3   1.07552E+4
  -4.64219E+3   1.06333E+4
  -4.57575E+3   1.06053E+4
  -4.45660E+3   1.04846E+4
  -4.39114E+3   1.03634E+4
  -4.36452E+3   1.03353E+4
  -4.20117E+3   1.02064E+4
  -4.12543E+3   1.01859E+4
  -4.03494E+3   1.00913E+4
  -3.97039E+3   9.99608E+3
  -3.97432E+3   9.87321E+3
  -3.83184E+3   9.75832E+3
  -3.77115E+3   9.71780E+3
  -3.68841E+3   9.64566E+3
  -3.67373E+3   9.57108E+3
  -3.53944E+3   9.44348E+3
  -3.46301E+3   9.40297E+3
  -3.42263E+3   9.28270E+3
  -3.32070E+3   9.17807E+3
  -3.30046E+3   9.16507E+3
  -3.24558E+3   9.06250E+3
  -3.19105E+3   9.05249E+3
  -3.15406E+3   8.93055E+3
  -3.07909E+3   8.79205E+3
  -3.01391E+3   8.73642E+3
  -2.98393E+3   8.72786E+3
  -2.94308E+3   8.59078E+3
  -2.81756E+3   8.53454E+3
  -2.80583E+3   8.47754E+3
  -2.72222E+3   8.33958E+3
  -2.64658E+3   8.33458E+3
  -2.65961E+3   8.24011E+3
  -2.59786E+3   8.14220E+3
  -2.55853E+3   8.13670E+3
  -2.50836E+3   7.98495E+3
  -2.42068E+3   7.98162E+3
  -2.37154E+3   7.85499E+3
  -2.30545E+3   7.70724E+3
  -2.28170E+3   7.69409E+3
  -2.18491E+3   7.65641E+3
  -2.18831E+3   7.59535E+3
  -2.18269E+3   7.58361E+3
  -1.95376E+3   7.48409E+3
  -2.00428E+3   7.47244E+3
  -1.94953E+3   7.38206E+3
  -1.95258E+3   7.23071E+3
  -1.88620E+3   7.15818E+3
  -1.83707E+3   7.14761E+3
  -1.72538E+3   7.15999E+3
  -1.74631E+3   7.06906E+3
  -1.65754E+3   6.99932E+3
  -1.59475E+3   6.98595E+3
  -1.56255E+3   6.92413E+3
  -1.51750E+3   6.87733E+3
  -1.46568E+3   6.87030E+3
  -1.44867E+3   6.73336E+3
  -1.35050E+3   6.70118E+3
  -1.33776E+3   6.68280E+3
  -1.35098E+3   6.64644E+3
  -1.30745E+3   6.58944E+3
  -1.24274E+3   6.48349E+3
  -1.21247E+3   6.44184E+3
  -1.11570E+3   6.45318E+3
  -1.08742E+3   6.35574E+3
  -1.13030E+3   6.29035E+3
  -9.95883E+2   6.25261E+3
  -1.03268E+3   6.32657E+3
  -9.21588E+2   6.15849E+3
  -8.43621E+2   6.14551E+3
  -8.71869E+2   6.10636E+3
  -8.71378E+2   6.06033E+3
  -8.26074E+2   5.97459E+3
  -7.19845E+2   5.89430E+3
  -7.40558E+2   5.93398E+3
  -7.04907E+2   5.83017E+3
  -6.41497E+2   5.77724E+3
  -6.16099E+2   5.74339E+3
  -5.79131E+2   5.70239E+3
  -4.92221E+2   5.67037E+3
  -4.90132E+2   5.60475E+3
  -4.54686E+2   5.56870E+3
  -4.68380E+2   5.49532E+3
  -4.15133E+2   5.43781E+3
  -3.87197E+2   5.47191E+3
  -3.48171E+2   5.43049E+3
  -2.94117E+2   5.38446E+3
  -2.36694E+2   5.32919E+3
  -2.39467E+2   5.30563E+3
  -2.09236E+2   5.25464E+3
  -1.12848E+2   5.17121E+3
  -1.08172E+2   5.16119E+3
  -7.38236E+1   5.12216E+3
  -9.19114E+0   5.02005E+3
  -3.49648E+1   5.04901E+3
  -1.00313E+2   5.03110E+3
   2.71950E+1   4.94342E+3
   1.43367E+2   4.98952E+3
   1.07817E+2   4.90658E+3
   9.30226E+1   4.88397E+3
   1.50703E+2   4.83552E+3
   2.25188E+2   4.80125E+3
   2.16187E+2   4.68717E+3
   2.79759E+2   4.72305E+3
   2.69556E+2   4.66997E+3
   3.10245E+2   4.62784E+3
   3.40014E+2   4.56826E+3
   3.59527E+2   4.58445E+3
   3.66264E+2   4.51210E+3
   3.84579E+2   4.42388E+3
   3.88879E+2   4.42762E+3
   4.52043E+2   4.36652E+3
   5.11794E+2   4.37567E+3
   4.94473E+2   4.28415E+3
   5.22004E+2   4.18305E+3
   4.72129E+2   4.21554E+3
   5.16404E+2   4.16212E+3
   6.07578E+2   4.09847E+3
   6.39051E+2   4.09262E+3
   5.93328E+2   4.10420E+3
   6.60621E+2   4.03604E+3
   6.94258E+2   3.95663E+3
   7.10257E+2   3.92984E+3
   7.73200E+2   3.89852E+3
   7.61621E+2   3.92263E+3
   7.61501E+2   3.83585E+3
   7.49376E+2   3.83179E+3
   7.51189E+2   3.82712E+3
   8.12204E+2   3.73238E+3
   8.11934E+2   3.70587E+3
   9.39648E+2   3.65976E+3
   8.41544E+2   3.58552E+3
   8.74888E+2   3.56160E+3
   9.42904E+2   3.60248E+3
   9.37314E+2   3.54869E+3
   9.07185E+2   3.46304E+3
   9.06719E+2   3.44147E+3
   9.99844E+2   3.49189E+3
   9.42872E+2   3.40870E+3
   1.04101E+3   3.30577E+3
   9.83486E+2   3.29734E+3
   1.04332E+3   3.29682E+3
   1.00867E+3   3.27639E+3
   1.00786E+3   3.21232E+3
   9.81939E+2   3.24151E+3
   1.04428E+3   3.13117E+3
   1.00747E+3   3.16167E+3
   1.10108E+3   3.08355E+3
   1.07449E+3   3.06747E+3
   1.12205E+3   3.04345E+3
   1.17629E+3   2.98443E+3
   1.15152E+3   2.94827E+3
   1.14232E+3   2.91768E+3
   1.08367E+3   2.89864E+3
   1.15306E+3   2.88261E+3
   1.11852E+3   2.87771E+3
   1.12030E+3   2.79142E+3
   1.21081E+3   2.78018E+3
   1.18571E+3   2.80462E+3
   1.19894E+3   2.74761E+3
   1.21883E+3   2.71554E+3
   1.17857E+3   2.66472E+3
