 
 $NMID
 ID=''
 FMTDAT='(2E13.5)'
 TRAMP=   1.00000E+0
 VOLUME=   1.00000E+0
 $END
   9.22898E+1  -2.62634E+2
   1.16848E+3  -3.18130E+2
  -2.60457E+3  -3.07132E+3
  -3.14789E+3   2.02185E+2
   1.06897E+3   2.17069E+3
   9.90210E+2   4.41264E+2
   3.26734E+3  -3.18824E+2
  -8.30081E+2  -1.78329E+3
  -5.51366E+3  -1.01450E+3
  -5.32115E+3  -5.70273E+2
  -3.35664E+2  -7.99111E+2
   3.36357E+3  -1.81168E+3
   2.46320E+3   1.87037E+3
   2.42333E+3   3.81636E+3
  -3.93509E+3   3.89577E+2
  -1.54297E+3  -4.84585E+3
  -4.57574E+2  -3.14737E+3
  -1.98045E+3  -1.40774E+3
  -1.82927E+1   1.83778E+3
  -1.31861E+3   1.98850E+3
   8.26992E+2  -8.25511E+2
   4.06513E+3  -1.99417E+3
   4.17176E+1   4.16944E+3
  -1.63896E+3   3.06397E+3
   1.46863E+3  -2.19113E+3
   6.07967E+3   2.50292E+2
   2.71663E+3  -1.69139E+2
  -1.81678E+3  -7.55176E+2
  -3.28752E+3  -2.70599E+3
  -7.48848E+2  -5.16021E+3
   5.16298E+3  -1.52853E+3
   3.74453E+3   4.40810E+3
  -4.19515E+2   6.39985E+3
   2.25306E+2  -1.45821E+3
   8.80346E+2   1.16723E+2
  -2.85858E+3   2.38436E+3
  -2.21653E+3  -1.19991E+2
   4.21192E+3  -4.48469E+3
   5.89055E+3  -1.88464E+3
   3.01317E+3  -2.55757E+3
   3.16277E+3   1.56762E+3
  -1.04852E+3   2.13807E+3
  -5.29821E+3   1.22364E+3
  -3.92613E+3  -3.20103E+3
  -2.95339E+3  -4.27771E+3
  -2.27689E+3  -1.78055E+3
  -7.99749E+2   2.92874E+2
   1.05307E+3   2.00920E+3
   1.00055E+3   2.93483E+3
   5.28675E+1   9.48105E+2
  -1.20373E+3   2.82758E+3
  -2.47662E+3   3.27242E+2
  -4.63474E+1  -1.47504E+3
   3.92250E+3   2.10444E+3
   3.26647E+3   2.85834E+3
   3.17057E+3   4.01334E+3
   2.32850E+3   1.58170E+3
  -8.79590E+1   3.67642E+3
  -3.13121E+3   3.11799E+3
  -6.01111E+3  -3.30269E+3
   9.36634E+2  -3.75868E+3
   3.95390E+2  -3.25297E+3
   1.45802E+3  -1.44255E+3
   1.96419E+3   1.98411E+2
   6.16684E+2  -9.88121E+2
  -1.22735E+2  -2.01286E+3
   3.93246E+3  -2.18930E+2
  -2.48719E+2   1.51260E+3
  -3.17730E+3  -1.99452E+3
  -2.08319E+3  -3.10937E+3
  -1.19476E+3   3.83627E+2
  -2.06395E+3   7.96642E+2
  -1.65498E+3   8.63648E+2
  -1.79359E+3  -1.03100E+2
  -1.66637E+3   2.24851E+2
  -7.57068E+2   2.24772E+2
   3.45999E+2   7.80436E+2
   1.01115E+3   1.71325E+2
  -1.36724E+0  -2.83736E+3
   3.66101E+3  -1.66645E+3
   7.63774E+2   1.13196E+3
  -9.91079E+2  -5.79207E+2
   5.21076E+2   6.78299E+2
   2.06320E+3   2.20408E+3
   1.70870E+3   1.40778E+3
  -1.36092E+2   2.57797E+3
  -3.77013E+3   1.53524E+3
  -3.52639E+3  -1.10877E+3
  -2.10789E+3  -1.68346E+3
  -5.52169E+2   4.42996E+2
   6.08018E+2   7.26107E+2
  -2.58189E+3  -1.21118E+3
   1.82354E+3  -6.47205E+2
   1.04253E+3  -6.19593E+2
  -1.19808E+3   2.08274E+3
  -2.72859E+3   1.29550E+3
  -1.54236E+3  -9.63635E+2
   1.37696E+3  -3.76966E+3
   3.54679E+3  -2.70727E+2
  -6.38799E+2   3.82497E+3
  -2.61896E+3   2.34029E+2
   4.17000E+1  -2.01568E+3
   2.58571E+3  -2.60992E+3
   2.60604E+3  -8.64339E+2
   2.56972E+2   4.09031E+2
   1.45521E+3   3.80337E+3
  -8.65689E+2   1.53638E+3
  -2.10036E+2   2.81821E+3
  -2.00698E+3   1.70558E+3
  -4.30074E+3   7.84891E+2
  -3.71270E+3  -2.05300E+3
  -2.39356E+2  -1.22634E+3
  -1.06729E+2  -7.98297E+2
   2.68433E+3  -2.72620E+3
   6.16623E+2  -9.16055E+2
   6.77015E+2  -1.66662E+2
  -3.46482E+2   9.19751E+1
  -2.40916E+3  -2.71654E+2
  -2.63693E+2  -3.16738E+2
  -5.55594E+2   5.86454E+2
   2.66231E+3  -1.69915E+3
   2.63971E+3  -9.40861E+2
   2.49491E+2   1.28731E+3
   1.12747E+3  -1.70277E+3
   1.76405E+3  -1.64638E+3
   2.74579E+3   1.77960E+3
  -4.41568E+2   1.59040E+2
   2.46515E+3  -2.17963E+3
   1.95185E+3  -2.86234E+3
   1.70284E+3  -9.10861E+1
  -3.54971E+1   8.03019E+2
  -2.61902E+3   3.48838E+2
  -1.45574E+3  -2.93148E+3
   2.46028E+3  -9.79958E+2
   2.73423E+3   7.57873E+2
  -8.17655E+2   1.63208E+3
  -1.44667E+3   9.79913E+2
  -1.31782E+3  -1.47852E+3
   2.29370E+2  -5.07752E+2
   5.15754E+2  -2.77344E+2
   2.40652E+3  -8.85360E+2
  -6.16565E+2  -1.37514E+3
   3.90899E+2  -1.62231E+3
  -9.45972E+2  -1.46539E+2
  -8.19737E+1   3.23859E+2
  -4.02739E+2   1.34747E+3
  -4.61266E+1   3.97928E+2
  -5.43401E+2   8.31768E+2
  -4.16914E+2   1.20529E+3
  -4.15001E+1   6.24032E+2
  -8.26588E+2   1.03264E+3
   6.00615E+2   2.88705E+3
  -2.69933E+3   1.48316E+3
  -1.86519E+3  -7.32705E+2
  -1.42449E+3  -1.53591E+3
  -5.84124E+2  -1.36093E+3
   4.00297E+1   5.92715E+2
  -5.54220E+2   1.56396E+2
  -9.53244E+2  -1.41045E+3
  -5.64486E+2  -7.05925E+2
  -1.65012E+2   4.77761E+2
   9.59354E+2   1.26737E+3
   5.48679E+2   1.63321E+3
  -1.91320E+2   1.05256E+3
   5.77128E+2  -7.07479E+2
   1.06843E+3   2.14309E+3
  -9.47313E+2   7.36571E+2
  -2.36205E+3   1.42784E+3
  -1.75289E+3  -2.26553E+3
   1.71900E+3  -2.36192E+3
   1.94155E+2  -1.44270E+3
   3.73064E+1  -4.08568E+2
   5.46430E+1   6.91062E+2
  -1.10152E+3  -2.64258E+2
   1.25929E+3   6.18281E+2
  -9.06563E+2   1.07730E+3
  -2.14559E+3  -2.43451E+3
  -6.38313E+2  -2.01710E+3
   3.71022E+2  -1.91560E+3
   1.21531E+3   1.36199E+3
   1.27531E+3   3.26780E+3
   7.49098E+2   6.89669E+1
  -1.74963E+3   2.76929E+3
   3.15623E+2   8.68947E+2
  -1.98918E+3   6.51813E+2
  -5.54404E+2  -2.76963E+2
   1.46934E+3   9.68470E+1
   4.50550E+2   7.27528E+1
   2.14769E+3   1.25022E+3
  -3.32253E+2   6.51072E+2
  -1.77526E+3   6.32386E+2
  -6.53077E+2  -1.51942E+3
  -1.89279E+2   1.14198E+2
   5.01113E+2  -7.98710E+2
  -6.23349E+2   7.09057E+2
  -1.58412E+3   1.28523E+3
   1.25075E+3  -3.15592E+3
   2.01078E+3  -5.69695E+2
  -2.34200E+2   1.24079E+2
  -1.88659E+3  -2.60820E+2
   4.11029E+3  -1.27660E+3
   1.09318E+3   1.17581E+3
   1.88679E+3   2.34179E+3
  -8.40607E+2   1.61856E+3
  -3.12583E+3   3.91584E+2
  -5.43858E+2  -1.59760E+3
  -4.27683E+2   2.82087E+2
   8.73341E+1  -1.25745E+3
  -1.40150E+3   1.13504E+2
   1.41021E+3  -2.12830E+3
   8.02519E+2  -4.80539E+2
   1.68500E+3   1.23530E+3
  -8.84249E+2   8.10821E+2
  -1.53078E+3  -1.71498E+3
   9.21178E+2  -1.12024E+3
   6.41663E+2  -6.54900E+2
  -2.11097E+2   2.11569E+3
  -2.04664E+2   5.09469E+2
   9.17716E+1  -1.88884E+3
   1.40920E+3  -8.21127E+2
  -1.33602E+2   2.53897E+2
   1.08236E+3  -9.68978E+2
  -1.14269E+3   1.12329E+1
   9.75512E+2   1.82590E+3
  -3.01726E+2   8.62887E+2
  -2.17372E+3   1.31846E+3
  -3.55413E+2  -2.07144E+3
  -8.24970E+2  -2.67184E+3
   2.34966E+3   2.21008E+3
   7.59491E+1  -4.37776E+2
   7.87783E+2   2.55698E+3
   1.12693E+3  -4.58825E+2
   1.91817E+3   1.33139E+3
   1.93522E+3   9.82592E+2
  -1.30668E+3   2.53777E+3
  -1.79399E+3   2.99112E+2
   1.54088E+2  -1.65460E+3
   5.23549E+2  -2.09361E+3
   1.28421E+2  -8.36675E+2
  -5.26950E+2   1.18815E+3
  -2.23072E+3  -1.10373E+3
   3.96945E+2   1.98101E+3
   7.45774E+2   2.00784E+2
  -9.34913E+2  -6.01461E+2
  -2.03854E+3  -1.23873E+3
   1.30898E+2  -5.17362E+2
  -7.12341E+2  -3.09510E+2
  -4.57940E+2   3.78840E+2
  -2.03581E+3   1.10593E+3
  -1.33072E+3  -9.66084E+2
   5.62579E+1  -9.33893E+2
   2.18782E+3  -1.65686E+3
   2.19549E+2  -7.40927E+2
   5.37789E+2   1.29964E+3
   1.76087E+3  -4.93606E+2
   1.01198E+3  -9.65844E+2
   5.04723E+2  -5.83398E+2
  -1.14171E+3  -2.94744E+1
  -4.33763E+2   8.23146E+2
   4.26679E+2  -3.04468E+3
   1.44604E+3  -1.15022E+2
  -9.14569E+2   8.26588E+2
   5.53311E+2   1.26196E+3
   4.25884E+1  -1.96139E+3
   4.82422E+1   6.75974E+2
  -8.44100E+2   9.07447E+2
  -1.43831E+3  -1.32974E+3
   6.99085E+2  -1.62770E+3
   1.43675E+3  -2.48869E+2
   8.72071E+2   4.49010E+2
   2.07120E+2   1.84807E+3
  -6.65943E+2  -1.11565E+3
  -6.86425E+2  -1.39047E+3
   5.96074E+2  -1.05205E+2
   4.39406E+2  -3.42646E+2
  -6.47990E+2   9.54877E+1
  -5.18574E+2  -1.50411E+3
   3.75011E+2   1.11649E+3
   1.44424E+3   4.45709E+2
  -1.02517E+3   1.65443E+3
  -1.61160E+3  -3.25456E+2
  -6.97088E+2  -1.46773E+3
  -4.46381E+2  -1.28011E+3
   2.04449E+3   5.78713E+2
  -9.43846E+2   1.34177E+3
  -1.61687E+3  -1.27454E+3
   4.25618E+2  -1.78582E+3
   1.29129E+3  -8.22006E+2
   1.22279E+3   1.43691E+3
  -2.16963E+3   1.16741E+3
  -7.22067E+2  -1.62919E+3
   1.33538E+3   4.56236E+2
   1.94364E+2  -8.73225E+2
  -2.86218E+3  -5.60838E+2
   1.83414E+2  -9.49840E+2
   1.92638E+2  -1.72346E+2
   1.29526E+3   9.18519E+2
   9.55047E+2   1.98844E+3
  -2.56154E+2   2.71614E+3
  -2.28610E+3  -9.66340E+2
  -4.61510E+2   5.60292E+2
   1.00909E+2  -7.52786E+2
  -9.86303E+2  -3.49569E+3
  -3.72332E+2  -6.95049E+2
   2.19912E+3  -1.22751E+3
   9.64026E+2   6.04909E+2
   6.73876E+2  -5.41473E+0
  -2.37630E+3   7.22069E+2
  -1.25473E+3  -4.08571E+1
   4.28187E+2  -6.51551E+2
   1.09726E+3   1.45355E+3
   5.00326E+2   2.42020E+2
   5.50861E+2  -7.42037E+2
   8.22703E+2   9.71499E+2
   1.27740E+2  -1.04092E+3
   4.21161E+2   7.89080E+2
  -6.00529E+1   2.99702E+2
   1.01650E+3  -6.95765E+2
   3.45572E+3  -3.43240E+2
   2.00677E+3   4.29165E+2
  -2.78052E+3   1.90406E+3
  -6.29484E+2   1.87596E+3
   7.22502E+1  -8.68862E+2
   2.33110E+3  -7.54897E+2
  -7.91177E+1  -6.36037E+2
   4.37584E+2  -1.02540E+2
   4.61984E+2   1.05289E+3
   1.61715E+3   4.37747E+2
   1.89240E+3   6.14997E+2
  -6.27636E+2   1.80514E+3
  -9.65647E+2  -2.66921E+2
  -2.09091E+3  -1.42700E+2
   1.70991E+3  -5.71146E+2
   8.18283E+2  -5.15294E+2
   1.63430E+2  -2.43355E+3
   9.32233E+2   8.48241E+2
   1.11825E+3   7.20380E+2
  -6.55470E+2   1.75564E+3
   2.93053E+2   1.23896E+3
  -2.70524E+2  -1.91597E+3
   1.51201E+3  -1.34440E+3
   2.62959E+3  -9.42448E+2
   7.38619E+2   1.39501E+3
  -8.57235E+2   2.06692E+3
  -2.46132E+3  -1.44610E+3
  -2.97935E+1  -1.11529E+3
  -4.50266E+1  -3.54720E+1
  -4.60637E+2   7.00458E+2
   2.70106E+2   6.79195E+2
   2.52367E+2   2.41106E+1
   6.68313E+2  -7.09048E+2
   6.73773E+2   1.46178E+3
   2.48826E+3   2.24756E+3
  -9.72873E+2  -1.98557E+3
   3.61864E+2   1.07659E+3
   3.39127E+2  -1.68853E+2
  -1.49579E+3   1.09876E+3
  -1.08323E+3  -2.18875E+2
   8.20164E+2   1.26049E+3
  -5.08193E+2   5.33756E+2
   5.30477E+2   1.88872E+3
  -1.02982E+3  -8.22556E+2
   1.68479E+3   1.39706E+3
   1.52129E+3  -1.14471E+3
   2.25299E+3   1.08509E+3
  -3.04609E+2   2.58460E+2
  -9.58180E+2   5.02155E+2
