 LCModel (Version 6.3-1N) Copyright: S.W. Provencher.          Ref.: Magn. Reson. Med. 30:672-679 (1993).                
 Slice_N1@21_13  02-Jun-2023 14:37:27
 27 lines in following concentration table = NCONC+1
    Conc.  %SD /Cr+PCr  Metabolite                                         
 2.16E-06  15% 2.6E-04 Mac                                                 
 4.94E-02  23%   5.915 Cr                                                  
 1.74E-02  62%   2.085 PCr                                                 
 7.23E-02  11%   8.669 Ins                                                 
 7.11E-02  10%   8.523 NAA                                                 
 5.93E-02  12%   7.112 Tau                                                 
 6.84E-03  83%   0.820 PCho                                                
 1.38E-02  40%   1.658 GPC                                                 
 5.74E-02  16%   6.877 Glu                                                 
 1.80E-02  35%   2.158 Gln                                                 
    0.000 999%   0.000 Ala                                                 
 3.15E-02  41%   3.777 Asc                                                 
 7.94E-03  97%   0.952 Asp                                                 
 5.90E-03  71%   0.707 GABA                                                
 7.64E-03  68%   0.916 Glc                                                 
 8.66E-03  39%   1.038 GSH                                                 
    0.000 999%   0.000 Lac                                                 
 7.09E-03  64%   0.850 NAAG                                                
    0.000 999%   0.000 PE                                                  
 2.07E-02  11%   2.479 GPC+PCho                                            
 7.82E-02  10%   9.373 NAA+NAAG                                            
 7.54E-02  14%   9.035 Glu+Gln                                             
 6.67E-02  10%   8.000 Cr+PCr                                              
 7.82E-02  10%   9.373 NAA+NAAG                                            
 6.67E-02  10%   8.000 Cr+PCr                                              
 7.54E-02  14%   9.035 Glu+Gln                                             
   6 lines in following misc. output table
  FWHM = 0.023 ppm    S/N =   4                                            
  Data shift = 0.029 ppm                                                   
  Ph: -18 deg      -2.4 deg/ppm                                            
  alphaB,S = 3.1E-01,   1.3E+01                                            
   18 spline knots.   Ns = 5(1)                                            
  ( 3) 3 infls.   ( 3) 1 extrs.                                            
  654 points on ppm-axis = NY
      4.000000     3.994181     3.988363     3.982544     3.976726     3.970907     3.965088     3.959270     3.953451     3.947633
      3.941814     3.935995     3.930177     3.924358     3.918540     3.912721     3.906902     3.901084     3.895265     3.889446
      3.883628     3.877809     3.871991     3.866172     3.860353     3.854535     3.848716     3.842898     3.837079     3.831260
      3.825442     3.819623     3.813805     3.807986     3.802167     3.796349     3.790530     3.784712     3.778893     3.773074
      3.767256     3.761437     3.755619     3.749800     3.743981     3.738163     3.732344     3.726526     3.720707     3.714888
      3.709070     3.703251     3.697433     3.691614     3.685795     3.679977     3.674158     3.668339     3.662521     3.656702
      3.650884     3.645065     3.639246     3.633428     3.627609     3.621791     3.615972     3.610153     3.604335     3.598516
      3.592698     3.586879     3.581060     3.575242     3.569423     3.563605     3.557786     3.551967     3.546149     3.540330
      3.534512     3.528693     3.522874     3.517056     3.511237     3.505419     3.499600     3.493781     3.487963     3.482144
      3.476326     3.470507     3.464688     3.458870     3.453051     3.447232     3.441414     3.435595     3.429777     3.423958
      3.418139     3.412321     3.406502     3.400684     3.394865     3.389046     3.383228     3.377409     3.371591     3.365772
      3.359953     3.354135     3.348316     3.342498     3.336679     3.330860     3.325042     3.319223     3.313405     3.307586
      3.301767     3.295949     3.290130     3.284312     3.278493     3.272674     3.266856     3.261037     3.255219     3.249400
      3.243581     3.237763     3.231944     3.226125     3.220307     3.214488     3.208670     3.202851     3.197032     3.191214
      3.185395     3.179577     3.173758     3.167939     3.162121     3.156302     3.150484     3.144665     3.138846     3.133028
      3.127209     3.121391     3.115572     3.109753     3.103935     3.098116     3.092298     3.086479     3.080660     3.074842
      3.069023     3.063205     3.057386     3.051567     3.045749     3.039930     3.034111     3.028293     3.022474     3.016656
      3.010837     3.005018     2.999200     2.993381     2.987563     2.981744     2.975925     2.970107     2.964288     2.958470
      2.952651     2.946832     2.941014     2.935195     2.929377     2.923558     2.917739     2.911921     2.906102     2.900284
      2.894465     2.888646     2.882828     2.877009     2.871191     2.865372     2.859553     2.853735     2.847916     2.842098
      2.836279     2.830460     2.824642     2.818823     2.813004     2.807186     2.801367     2.795549     2.789730     2.783911
      2.778093     2.772274     2.766456     2.760637     2.754818     2.749000     2.743181     2.737363     2.731544     2.725725
      2.719907     2.714088     2.708270     2.702451     2.696632     2.690814     2.684995     2.679177     2.673358     2.667539
      2.661721     2.655902     2.650084     2.644265     2.638446     2.632628     2.626809     2.620991     2.615172     2.609353
      2.603535     2.597716     2.591897     2.586079     2.580260     2.574442     2.568623     2.562804     2.556986     2.551167
      2.545349     2.539530     2.533711     2.527893     2.522074     2.516256     2.510437     2.504618     2.498800     2.492981
      2.487163     2.481344     2.475525     2.469707     2.463888     2.458070     2.452251     2.446432     2.440614     2.434795
      2.428977     2.423158     2.417339     2.411521     2.405702     2.399884     2.394065     2.388246     2.382428     2.376609
      2.370790     2.364972     2.359153     2.353335     2.347516     2.341697     2.335879     2.330060     2.324242     2.318423
      2.312604     2.306786     2.300967     2.295149     2.289330     2.283511     2.277693     2.271874     2.266056     2.260237
      2.254418     2.248600     2.242781     2.236963     2.231144     2.225325     2.219507     2.213688     2.207870     2.202051
      2.196232     2.190414     2.184595     2.178777     2.172958     2.167139     2.161321     2.155502     2.149683     2.143865
      2.138046     2.132228     2.126409     2.120590     2.114772     2.108953     2.103135     2.097316     2.091497     2.085679
      2.079860     2.074042     2.068223     2.062404     2.056586     2.050767     2.044949     2.039130     2.033311     2.027493
      2.021674     2.015856     2.010037     2.004218     1.998400     1.992581     1.986763     1.980944     1.975126     1.969307
      1.963489     1.957670     1.951852     1.946033     1.940215     1.934397     1.928578     1.922760     1.916941     1.911123
      1.905304     1.899486     1.893667     1.887849     1.882030     1.876212     1.870393     1.864575     1.858756     1.852938
      1.847119     1.841301     1.835482     1.829664     1.823845     1.818027     1.812208     1.806390     1.800571     1.794753
      1.788934     1.783116     1.777297     1.771479     1.765660     1.759842     1.754023     1.748205     1.742386     1.736568
      1.730749     1.724931     1.719113     1.713294     1.707476     1.701657     1.695839     1.690020     1.684202     1.678383
      1.672565     1.666746     1.660928     1.655109     1.649291     1.643472     1.637654     1.631835     1.626017     1.620198
      1.614380     1.608561     1.602743     1.596924     1.591106     1.585287     1.579469     1.573650     1.567832     1.562013
      1.556195     1.550376     1.544558     1.538739     1.532921     1.527102     1.521284     1.515465     1.509647     1.503829
      1.498010     1.492192     1.486373     1.480555     1.474736     1.468918     1.463099     1.457281     1.451462     1.445644
      1.439825     1.434007     1.428188     1.422370     1.416551     1.410733     1.404914     1.399096     1.393277     1.387459
      1.381640     1.375822     1.370003     1.364185     1.358366     1.352548     1.346729     1.340911     1.335092     1.329274
      1.323455     1.317637     1.311818     1.306000     1.300182     1.294363     1.288545     1.282726     1.276908     1.271089
      1.265271     1.259452     1.253634     1.247815     1.241997     1.236178     1.230360     1.224541     1.218723     1.212904
      1.207086     1.201267     1.195449     1.189630     1.183812     1.177993     1.172175     1.166356     1.160538     1.154719
      1.148901     1.143082     1.137264     1.131445     1.125627     1.119808     1.113990     1.108171     1.102353     1.096534
      1.090716     1.084898     1.079079     1.073261     1.067442     1.061624     1.055805     1.049987     1.044168     1.038350
      1.032531     1.026713     1.020894     1.015076     1.009257     1.003439     0.997620     0.991802     0.985983     0.980165
      0.974346     0.968528     0.962709     0.956891     0.951072     0.945254     0.939435     0.933617     0.927798     0.921980
      0.916161     0.910343     0.904524     0.898706     0.892887     0.887069     0.881251     0.875432     0.869614     0.863795
      0.857977     0.852158     0.846340     0.840521     0.834703     0.828884     0.823066     0.817247     0.811429     0.805610
      0.799792     0.793973     0.788155     0.782336     0.776518     0.770699     0.764881     0.759062     0.753244     0.747425
      0.741607     0.735788     0.729970     0.724151     0.718333     0.712514     0.706696     0.700877     0.695059     0.689240
      0.683422     0.677603     0.671785     0.665967     0.660148     0.654330     0.648511     0.642693     0.636874     0.631056
      0.625237     0.619419     0.613600     0.607782     0.601963     0.596145     0.590326     0.584508     0.578689     0.572871
      0.567052     0.561234     0.555415     0.549597     0.543778     0.537960     0.532141     0.526323     0.520504     0.514686
      0.508867     0.503049     0.497230     0.491412     0.485593     0.479775     0.473956     0.468138     0.462319     0.456501
      0.450682     0.444864     0.439045     0.433227     0.427408     0.421590     0.415771     0.409953     0.404134     0.398316
      0.392497     0.386679     0.380860     0.375042     0.369223     0.363405     0.357586     0.351767     0.345949     0.340130
      0.334312     0.328493     0.322675     0.316856     0.311038     0.305219     0.299401     0.293582     0.287764     0.281945
      0.276127     0.270308     0.264490     0.258671     0.252853     0.247034     0.241216     0.235397     0.229579     0.223760
      0.217942     0.212123     0.206305     0.200486
 NY phased data points follow
  -1.33430E-01 -1.01130E-01 -2.64198E-01  6.34201E-02 -2.88298E-02 -2.12209E-01 -3.48999E-01 -4.22521E-02 -2.24300E-01 -1.72414E-01
   1.55269E-01  2.18339E-01  6.27877E-01  6.63733E-02  3.28997E-01  8.06146E-01  6.23271E-01  2.86758E-01  2.65358E-01  3.75148E-01
   1.56489E-01  1.78170E-01  1.70952E-01  2.31061E-02 -9.17045E-02  8.76381E-02 -1.14325E-01 -1.64175E-01 -9.28968E-02 -2.16355E-01
  -7.25553E-02  4.28101E-02 -5.75630E-02 -7.88587E-02 -4.03668E-02 -3.19744E-01 -6.32752E-01 -3.37422E-01 -2.65644E-01 -4.97505E-01
  -1.82464E-01 -9.04776E-02  2.32919E-01  1.03617E-01  1.10229E-01  3.44496E-01  2.42438E-01  2.59553E-01 -7.78621E-02  5.95434E-02
   1.40462E-01  1.03029E-01 -6.81502E-03  7.85158E-02  2.42165E-01  7.69578E-02 -1.02167E-02 -2.12868E-01 -2.89566E-01 -2.61583E-01
   7.99242E-02 -1.60104E-01 -4.14851E-01  7.30903E-02 -2.60692E-01 -3.60141E-01  1.46896E-01 -4.70065E-02  1.18112E-01  4.79783E-01
   2.52464E-01  1.90009E-01  2.36223E-01  2.25570E-01  2.13137E-01 -1.05559E-01 -2.62005E-01 -2.91628E-02 -1.06681E-01 -4.25498E-01
  -3.85260E-01 -1.71018E-01  1.14520E-01  2.08617E-01  1.90496E-01  3.00369E-01  2.66236E-01  1.68859E-01  2.44559E-01  4.48223E-01
   1.19794E-01  2.60843E-01  3.34704E-01  8.67375E-02  2.09899E-01  4.89512E-02  1.12973E-01 -1.96979E-02 -6.58880E-02 -1.44660E-01
  -1.89501E-01 -4.17317E-01 -4.20685E-02  4.79119E-01  1.17398E-01  4.51360E-01  4.39257E-01  2.02375E-01  5.60449E-01  6.41683E-01
   1.16860E-01  2.55760E-01  4.24619E-01  3.71736E-01  4.18010E-01  1.46515E-01  2.23919E-01  1.79790E-01  1.97806E-01  3.60681E-01
   3.46032E-01  2.47003E-01  1.85079E-01 -1.49878E-01  8.06407E-02 -1.46155E-01 -3.03151E-01 -1.40730E-01 -5.66769E-01 -4.31820E-01
  -6.76060E-01 -4.54081E-01 -4.35958E-01 -6.03531E-01 -6.83525E-01 -9.76822E-01 -1.03097E+00 -1.03834E+00 -8.04851E-01 -4.39528E-01
  -8.57692E-02 -3.72671E-01 -2.15426E-01 -1.51206E-01  3.56641E-02  1.19716E-01  1.28978E-01  1.97128E-01 -1.97469E-01  1.30764E-01
   1.48371E-01  2.34946E-01  1.71008E-01  2.43300E-01  3.48852E-01  1.83856E-02  3.17939E-01  2.21194E-01  1.45071E-02  8.03525E-02
   3.13763E-01  3.32160E-01  3.08742E-01  5.09496E-01  3.17287E-01  7.27575E-01  9.20575E-01  2.77613E-01 -3.64585E-01 -8.15322E-01
  -5.70587E-01 -3.97848E-01 -4.53023E-01 -4.51927E-01 -3.51577E-01 -4.61203E-01 -6.35553E-01 -3.00355E-01 -2.84505E-01 -5.59870E-01
  -6.15122E-01 -3.86639E-01 -3.34680E-01 -2.25674E-01 -1.84366E-01 -4.14094E-01 -2.40102E-02 -7.81596E-02 -6.29679E-01 -3.95549E-01
  -1.07558E-01 -1.41878E-01 -1.95963E-01 -2.73582E-01 -9.13126E-02 -2.05346E-01 -2.32850E-01 -1.38144E-01 -1.28019E-01  8.95251E-02
  -2.59936E-01 -1.62893E-01  5.64885E-02  4.42930E-02  4.43762E-02 -2.95173E-01 -2.38890E-01 -2.81165E-01 -1.24604E-01  3.45738E-02
   1.38694E-01  2.21289E-01 -6.13846E-02 -5.07194E-02 -2.12600E-01 -2.37992E-01 -5.01556E-04  1.51864E-02  4.08212E-02 -1.81863E-01
  -3.18625E-01  3.83071E-02 -2.14253E-02 -1.39995E-01  3.25920E-02  2.00895E-01  4.48641E-01  2.61467E-01  2.54725E-01  2.55315E-01
   3.40869E-01  3.42734E-01 -7.73045E-02  1.43767E-01 -5.66543E-02 -1.26017E-03  2.45754E-01 -3.17295E-01 -2.00272E-01 -2.05121E-01
  -2.32134E-01  1.60156E-01  2.12698E-01 -1.19126E-01 -4.57886E-02  2.65744E-01 -1.53750E-01  3.21067E-02  3.41665E-01  1.93661E-01
   2.20007E-02 -1.10488E-01 -2.26206E-02 -5.39079E-02 -1.40342E-01 -2.09927E-01  9.59353E-02 -3.01388E-02 -3.97328E-02  2.55273E-01
  -7.05549E-02  1.98745E-01  3.44599E-01  1.25335E-01  4.43800E-01  2.51003E-01 -3.40487E-02  2.26056E-01  4.38702E-01  5.21465E-01
   3.77839E-01  1.02288E-01  2.16891E-01  1.89362E-01 -6.75896E-02  9.44169E-02 -1.20493E-01 -1.35975E-01 -1.68184E-02 -2.63504E-01
  -3.34752E-01 -1.57872E-01  1.26498E-01 -1.81859E-01 -6.60350E-02  3.02560E-01  1.25884E-01  3.96102E-01  5.90082E-01  2.44083E-01
   3.96142E-01  3.22426E-01  1.98600E-01  3.40803E-01  2.05946E-01  2.27669E-01  6.65554E-02  2.56957E-01  1.48422E-01  7.92918E-02
   3.25308E-01  4.77197E-02 -4.26263E-03  1.83225E-01  2.61317E-01  1.98400E-01  2.00011E-01  2.02957E-01  3.23020E-01  2.20281E-01
   3.00031E-01  3.77518E-01  1.94938E-01  2.43212E-01  1.36223E-03 -7.51287E-02  2.17966E-02 -2.49184E-02 -1.49945E-01 -2.53155E-01
  -1.03619E-01 -8.11262E-02 -1.59759E-01  2.31596E-02 -1.42832E-02 -1.45263E-01 -8.35237E-02 -4.55341E-02  1.34736E-01  4.42512E-02
  -1.08122E-01 -5.24358E-02  7.03896E-02 -1.26793E-01 -3.11601E-01 -1.30945E-02 -5.04025E-01 -4.38203E-01 -3.18680E-01 -4.74139E-01
   1.92900E-01 -4.53370E-01 -1.28440E+00 -1.37732E+00 -1.08184E+00 -7.82829E-01 -2.90469E-01  4.28041E-02 -1.76149E-01  3.38993E-02
   1.04813E-03 -7.33186E-02 -3.40053E-02 -6.57917E-02 -2.61328E-02  2.73825E-01 -1.55142E-02  9.48102E-02  1.79068E-01 -3.09388E-02
   9.13169E-02 -1.69603E-01  1.28217E-01  1.27261E-02 -1.12526E-01  2.51873E-02  2.01044E-01 -1.57336E-01 -3.29725E-03  3.10059E-01
  -7.98087E-02  1.89915E-01  1.73487E-01  1.87911E-01  1.25004E-01  9.14694E-02  1.49384E-01  1.72796E-01  4.22719E-02  3.01883E-01
   1.68762E-01  5.98899E-02  1.90030E-01 -2.21006E-02  2.38981E-01 -4.57925E-02  1.75952E-01  1.27796E-01  1.33619E-01  3.06353E-01
   6.98627E-02  2.25133E-01  1.73487E-01 -7.30381E-02 -7.04557E-02  1.78884E-01  2.99813E-01  3.28446E-01  2.84476E-01  2.90991E-01
  -1.16539E-01 -1.46563E-01 -4.14312E-02 -1.17356E-01 -1.93121E-01 -1.76672E-01 -3.11500E-01 -1.68868E-01  5.83409E-02 -1.53430E-02
   9.16735E-02 -3.07672E-01  1.71093E-01 -1.14840E-02 -2.76547E-01 -2.61759E-02 -5.26419E-02  1.32705E-01 -7.68092E-03 -1.61869E-01
  -3.81530E-01 -1.77453E-01 -2.40748E-01 -9.40609E-02 -3.32991E-01 -3.15624E-01 -8.85854E-02 -4.61804E-01 -2.56076E-01 -1.14362E-01
   4.63924E-02 -2.15744E-01 -1.91429E-01  1.76010E-01  6.74089E-02  2.86920E-02  1.33304E-01  1.40876E-01 -2.04092E-02  6.91765E-02
   1.29106E-01  1.20219E-01  1.97538E-01  5.50200E-02  8.84567E-02  2.35839E-01  2.18801E-01  1.25808E-01  1.13390E-01  1.12386E-01
   4.22445E-01  3.73395E-01  2.28052E-02  1.32226E-01 -1.81449E-01 -3.79969E-02  2.91336E-02  2.93007E-02  7.14545E-02  1.09155E-02
   1.11064E-01 -1.86165E-01  1.22947E-01  4.05477E-01  7.25428E-02 -2.35305E-01 -2.53162E-01 -5.65695E-01 -1.72084E-01 -6.30350E-02
  -4.03398E-01  1.61031E-01 -7.82491E-02 -3.75363E-01 -3.34309E-01 -2.03650E-01  2.05511E-01 -9.10762E-02 -1.51541E-01  5.01159E-02
  -3.09580E-01  3.59060E-01  3.00561E-01  1.30009E-01  4.02729E-01 -1.72235E-01  2.00457E-01  4.32639E-01  2.17339E-01  5.46891E-02
   1.39503E-01  5.27621E-02 -7.97904E-02 -4.60836E-02  2.91026E-02  7.68359E-02  1.14352E-01  2.09679E-01 -1.66859E-01 -1.79352E-01
  -1.65639E-01  6.84984E-02  2.11726E-01  2.45395E-02 -9.36690E-02  5.03593E-02  2.29433E-01  6.12045E-02  1.00360E-01  3.83077E-02
  -1.40206E-02  1.16873E-01  2.23809E-01 -4.29497E-02 -1.22313E-01  1.91396E-03 -4.25127E-02  1.01446E-01  8.96764E-02 -3.44449E-02
  -1.74306E-01 -2.21702E-01 -8.34813E-02 -1.33490E-01 -1.14314E-01 -1.08005E-01 -4.08321E-01 -4.70499E-01 -3.06232E-01 -5.54448E-01
  -5.70180E-01 -3.88891E-01 -2.85351E-01  6.40127E-02 -6.22509E-02 -1.36082E-01 -1.61638E-01  1.62151E-01 -5.44825E-02 -1.64221E-01
   2.33083E-01 -1.87997E-01 -1.02204E-01 -1.64324E-01 -2.11113E-02  8.62723E-02  1.31348E-01  1.17956E-02  5.55853E-02  2.27832E-01
   6.63356E-02  3.07676E-01  1.07040E-01  2.06832E-01  9.24382E-02  2.91216E-01  4.56511E-01  1.00166E-02  5.41461E-02  4.53749E-01
   2.65158E-01 -6.37681E-02  1.85175E-01 -7.79155E-02 -1.67237E-01  9.32466E-02 -1.55563E-02 -2.04641E-01  2.64153E-01  1.86373E-01
   8.64507E-02  1.00076E-01 -1.71925E-01  8.34689E-02  1.78906E-01  9.40037E-02 -2.48676E-01 -1.32459E-01 -1.96271E-02  8.99138E-02
  -2.53364E-01 -2.22547E-01  4.44176E-01  8.38428E-02  3.31511E-01  4.78031E-01  1.50417E-01  1.70103E-01  1.57023E-01  2.28960E-01
  -1.25367E-02 -2.40405E-01  1.50822E-02 -5.32422E-02 -3.05014E-01 -1.72617E-02  5.52397E-02  3.96763E-02 -2.76857E-02  4.53318E-02
   3.92841E-01  1.93921E-01  1.29396E-01  9.47497E-02  6.23273E-02 -4.70132E-02 -2.59456E-02  2.74514E-01  1.64834E-01  3.04150E-01
   2.11179E-01 -1.79554E-01  4.52264E-02  2.73307E-01 -1.48947E-02 -1.00528E-01 -2.44989E-01  1.34520E-01  2.06732E-01 -1.86794E-01
   1.28380E-01  5.35179E-02  8.35314E-02 -8.94639E-02 -1.55280E-01  1.69845E-01  2.55693E-01 -1.13339E-01 -1.46346E-01  3.98285E-02
   1.08454E-01  4.61155E-01  3.05180E-01  9.47862E-02  7.19558E-02  1.02306E-01 -2.26845E-01  3.23204E-02  8.48460E-02 -2.50222E-01
  -9.04349E-02 -1.80141E-01 -2.11683E-01  3.69633E-01  4.50250E-01 -1.83559E-01 -6.37936E-02  1.16147E-01  2.85791E-01 -2.53443E-01
   1.69470E-01  1.00641E-01 -6.53006E-01 -2.50704E-02
 NY points of the fit to the data follow
   5.65523E-02  3.42138E-02  4.28102E-03 -2.14822E-02 -3.29360E-02 -2.81248E-02 -1.71844E-02 -6.30812E-03  2.70923E-03  1.47468E-03
   5.40293E-02  2.14395E-01  2.75859E-01  2.20242E-01  3.49944E-01  5.77475E-01  6.21256E-01  4.90369E-01  3.31413E-01  1.96070E-01
   1.36194E-01  1.00395E-01  3.79141E-02 -6.48482E-04 -2.89506E-02 -5.61103E-02 -8.28415E-02 -1.04185E-01 -1.22250E-01 -1.39043E-01
  -1.53350E-01 -1.67084E-01 -1.85612E-01 -2.10797E-01 -2.38446E-01 -2.67686E-01 -2.77035E-01 -2.83255E-01 -2.96284E-01 -2.51452E-01
  -1.43018E-01 -2.67949E-02  6.60516E-02  1.37191E-01  1.91319E-01  2.39273E-01  2.39015E-01  2.01425E-01  1.77786E-01  1.48993E-01
   1.04815E-01  5.89059E-02  1.28509E-02 -2.74672E-02 -5.71033E-02 -1.05465E-01 -1.59241E-01 -1.75761E-01 -1.62549E-01 -1.24170E-01
  -1.33775E-01 -2.37183E-01 -2.45614E-01 -1.97361E-01 -2.45239E-01 -2.00700E-01 -2.39440E-02  9.40776E-02  1.81641E-01  2.93931E-01
   3.27785E-01  3.16154E-01  2.84148E-01  2.04067E-01  1.29284E-01  3.65409E-02 -4.92848E-02 -7.53650E-02 -1.89277E-01 -3.81049E-01
  -3.81616E-01 -2.28945E-01 -1.17312E-01  7.29933E-03  1.82170E-01  3.05319E-01  3.69382E-01  3.78726E-01  3.31789E-01  2.97035E-01
   2.75292E-01  2.43346E-01  2.02959E-01  1.50526E-01  9.87296E-02  3.24346E-02 -4.90376E-02 -1.40464E-01 -2.38178E-01 -2.83276E-01
  -2.38308E-01 -1.12675E-01  3.67539E-02  1.62552E-01  2.28928E-01  2.54313E-01  2.66527E-01  2.69079E-01  2.74841E-01  2.77517E-01
   2.79726E-01  2.80306E-01  2.79949E-01  2.79506E-01  2.80078E-01  2.82069E-01  2.84866E-01  2.85778E-01  2.68777E-01  2.63851E-01
   2.77554E-01  2.14209E-01  1.42468E-01  1.08429E-01  3.78063E-02 -7.85943E-02 -1.57085E-01 -2.14550E-01 -3.43427E-01 -4.31952E-01
  -5.50950E-01 -5.79848E-01 -4.37298E-01 -4.06724E-01 -6.45515E-01 -9.76909E-01 -1.10753E+00 -1.00035E+00 -7.14178E-01 -4.71051E-01
  -3.21545E-01 -2.12936E-01 -1.47416E-01 -8.42335E-02 -4.03777E-02 -5.55066E-03  2.39984E-02  4.95284E-02  7.12462E-02  9.09355E-02
   1.09799E-01  1.27857E-01  1.45936E-01  1.64525E-01  1.83564E-01  2.04802E-01  2.29464E-01  2.56264E-01  2.85353E-01  3.21522E-01
   3.72708E-01  4.49488E-01  5.59784E-01  5.29262E-01  4.61654E-01  6.62705E-01  7.31927E-01  2.62276E-01 -3.78002E-01 -7.22553E-01
  -7.77775E-01 -6.48219E-01 -5.11367E-01 -4.73430E-01 -4.31435E-01 -3.81584E-01 -3.39373E-01 -3.02224E-01 -2.79630E-01 -2.69969E-01
  -2.56855E-01 -2.39546E-01 -2.21959E-01 -2.07487E-01 -1.99392E-01 -1.96270E-01 -1.88085E-01 -1.77295E-01 -1.68327E-01 -1.60419E-01
  -1.52731E-01 -1.43955E-01 -1.33744E-01 -1.22753E-01 -1.13518E-01 -1.05070E-01 -9.58991E-02 -8.62002E-02 -7.73795E-02 -7.07756E-02
  -6.38532E-02 -5.36219E-02 -4.27880E-02 -3.81820E-02 -4.12216E-02 -4.40623E-02 -3.83528E-02 -2.84112E-02 -2.66103E-02 -3.36712E-02
  -4.04299E-02 -4.21036E-02 -3.85828E-02 -3.32292E-02 -3.03415E-02 -2.59937E-02 -1.62530E-02 -9.20226E-03 -1.05087E-02 -1.32601E-02
  -2.38720E-03  2.22859E-02  3.73364E-02  4.40221E-02  8.33847E-02  1.77200E-01  2.45287E-01  2.12954E-01  1.78644E-01  2.35584E-01
   2.99334E-01  2.79867E-01  1.99363E-01  1.07181E-01  4.21657E-02  1.46322E-02 -4.20949E-03 -2.18647E-02 -3.28136E-02 -4.25419E-02
  -5.14949E-02 -5.82578E-02 -6.33558E-02 -6.62446E-02 -6.93461E-02 -7.24539E-02 -7.34817E-02 -7.54746E-02 -7.69171E-02 -7.66157E-02
  -7.61176E-02 -8.28949E-02 -8.12115E-02 -8.16780E-02 -1.08712E-01 -9.34109E-02 -3.74482E-02 -2.87326E-03  1.68344E-02  4.03268E-02
   8.79209E-02  1.23908E-01  1.22646E-01  1.06189E-01  1.22043E-01  1.42808E-01  1.41252E-01  1.46567E-01  1.42715E-01  1.43490E-01
   1.35041E-01  1.12787E-01  8.24088E-02  5.03019E-02  2.06756E-02 -1.29491E-02 -5.02893E-02 -8.73551E-02 -1.18600E-01 -1.63520E-01
  -1.94730E-01 -2.02038E-01 -1.93282E-01 -1.35593E-01 -3.49456E-02  7.54090E-02  1.87911E-01  2.75767E-01  3.04303E-01  2.92677E-01
   2.64586E-01  2.32254E-01  2.09271E-01  1.93747E-01  1.87943E-01  1.91165E-01  1.95380E-01  2.00507E-01  2.01896E-01  2.00280E-01
   1.98189E-01  1.93123E-01  1.88448E-01  1.84073E-01  1.77103E-01  1.69180E-01  1.60562E-01  1.45059E-01  1.29097E-01  1.12260E-01
   8.90788E-02  6.99809E-02  5.20282E-02  3.35457E-02  1.49253E-02 -1.14277E-02 -5.39727E-02 -1.03267E-01 -1.49634E-01 -1.91059E-01
  -2.12800E-01 -2.18524E-01 -2.07984E-01 -1.81445E-01 -1.37086E-01 -7.87040E-02 -1.93278E-02  3.21482E-02  5.63920E-02  6.23109E-02
   4.57356E-02  6.69512E-03 -4.72791E-02 -8.11855E-02 -9.22344E-02 -1.40490E-01 -1.84145E-01 -2.10389E-01 -3.67143E-01 -3.56814E-01
  -1.76545E-01 -5.72246E-01 -1.27015E+00 -1.45167E+00 -1.12318E+00 -7.11967E-01 -3.55831E-01 -2.11789E-01 -1.82223E-01 -8.91608E-02
  -4.85055E-02 -2.31882E-02 -5.40706E-03  7.51876E-03  1.77437E-02  2.57536E-02  3.06335E-02  3.43137E-02  3.36160E-02  2.91747E-02
   2.35895E-02  1.50207E-02  5.13062E-03 -3.14444E-03 -7.30510E-03 -7.06907E-03 -1.61864E-03  5.84408E-03  1.42843E-02  2.25087E-02
   2.97841E-02  3.86072E-02  4.63358E-02  5.22228E-02  5.67015E-02  6.02797E-02  6.42164E-02  6.89300E-02  7.31516E-02  7.60511E-02
   7.84047E-02  8.09434E-02  8.39776E-02  8.72207E-02  9.01688E-02  9.18547E-02  9.29081E-02  9.47179E-02  9.72874E-02  1.00059E-01
   1.02994E-01  1.05286E-01  1.05708E-01  1.04644E-01  1.02648E-01  1.00090E-01  9.73296E-02  9.45220E-02  9.05955E-02  8.52426E-02
   7.97800E-02  7.42723E-02  6.75254E-02  6.00169E-02  5.33878E-02  4.75736E-02  4.15206E-02  3.56669E-02  3.02228E-02  2.45844E-02
   1.97800E-02  1.60895E-02  1.24607E-02  8.97366E-03  5.86682E-03  2.50014E-03 -8.83985E-04 -3.79194E-03 -5.80381E-03 -7.17759E-03
  -8.76756E-03 -9.78517E-03 -9.37841E-03 -8.37289E-03 -6.45156E-03 -3.58647E-03 -1.06325E-03  2.05771E-03  6.68538E-03  1.16430E-02
   1.49861E-02  1.70440E-02  1.95568E-02  2.41576E-02  3.09213E-02  3.81940E-02  4.51988E-02  5.18528E-02  5.90947E-02  6.76152E-02
   7.76602E-02  8.83454E-02  9.90820E-02  1.09586E-01  1.19851E-01  1.30092E-01  1.39731E-01  1.48150E-01  1.54061E-01  1.57608E-01
   1.59425E-01  1.59665E-01  1.58673E-01  1.56736E-01  1.53561E-01  1.48730E-01  1.41824E-01  1.32384E-01  1.22015E-01  1.12069E-01
   1.02607E-01  9.38277E-02  8.44347E-02  7.47339E-02  6.61343E-02  5.88238E-02  5.18331E-02  4.51097E-02  3.91652E-02  3.40513E-02
   3.01019E-02  2.66814E-02  2.33406E-02  2.11110E-02  2.14309E-02  2.30536E-02  2.51270E-02  2.81925E-02  3.14766E-02  3.51026E-02
   3.99912E-02  4.55251E-02  5.02917E-02  5.44271E-02  5.80919E-02  6.06375E-02  6.22650E-02  6.39146E-02  6.63371E-02  6.86629E-02
   6.99883E-02  6.95826E-02  6.81622E-02  6.69043E-02  6.48973E-02  6.17358E-02  5.81947E-02  5.51423E-02  5.22637E-02  4.91361E-02
   4.58396E-02  4.24776E-02  3.88994E-02  3.55307E-02  3.22392E-02  2.79821E-02  2.40137E-02  2.15207E-02  1.92014E-02  1.58532E-02
   1.20518E-02  8.40978E-03  4.20119E-03 -1.55889E-03 -8.70434E-03 -1.67203E-02 -2.50730E-02 -3.35523E-02 -4.33879E-02 -5.63869E-02
  -7.20143E-02 -8.80206E-02 -1.03289E-01 -1.18134E-01 -1.33281E-01 -1.47684E-01 -1.59806E-01 -1.70267E-01 -1.80538E-01 -1.88911E-01
  -1.92726E-01 -1.93235E-01 -1.93043E-01 -1.91584E-01 -1.87381E-01 -1.81278E-01 -1.74378E-01 -1.66926E-01 -1.60056E-01 -1.54060E-01
  -1.46858E-01 -1.38272E-01 -1.29433E-01 -1.20456E-01 -1.10381E-01 -9.98435E-02 -8.98384E-02 -7.94740E-02 -6.91520E-02 -6.02736E-02
  -5.18397E-02 -4.23631E-02 -3.31773E-02 -2.56376E-02 -1.98285E-02 -1.36423E-02 -6.02831E-03  4.10227E-05  3.77346E-03  7.72101E-03
   1.17091E-02  1.53384E-02  1.89454E-02  2.09712E-02  2.19372E-02  2.41667E-02  2.67721E-02  2.74760E-02  2.77162E-02  2.91064E-02
   3.08076E-02  3.24725E-02  3.48196E-02  3.72658E-02  3.84334E-02  3.90012E-02  3.95531E-02  3.95956E-02  3.94804E-02  3.95583E-02
   3.94629E-02  3.93386E-02  3.92552E-02  3.90912E-02  3.92525E-02  3.92202E-02  3.91200E-02  4.06092E-02  4.16483E-02  3.93451E-02
   3.64844E-02  3.60836E-02  3.71216E-02  3.73066E-02  3.66172E-02  3.63243E-02  3.65507E-02  3.60121E-02  3.44212E-02  3.41472E-02
   3.56369E-02  3.73765E-02  3.82937E-02  3.87186E-02  3.94087E-02  4.08100E-02  4.22963E-02  4.27468E-02  4.32735E-02  4.47068E-02
   4.54498E-02  4.45863E-02  4.37270E-02  4.36699E-02  4.41957E-02  4.50045E-02  4.62808E-02  4.82758E-02  4.93130E-02  4.93884E-02
   5.04470E-02  5.24492E-02  5.49047E-02  5.73171E-02  5.78875E-02  5.66644E-02  5.56894E-02  5.56901E-02  5.70583E-02  5.88520E-02
   5.92883E-02  5.91764E-02  5.89781E-02  5.93632E-02  6.10380E-02  6.22101E-02  6.19899E-02  6.26395E-02  6.49304E-02  6.67808E-02
   6.81236E-02  6.91683E-02  7.05405E-02  7.29248E-02  7.50256E-02  7.69048E-02  7.99904E-02  8.44374E-02  8.87082E-02  9.21518E-02
   9.53866E-02  9.85055E-02  1.01393E-01  1.04892E-01
 NY background values follow
    -7.581E-03   -7.219E-03   -6.857E-03   -6.495E-03   -6.133E-03   -5.771E-03   -5.409E-03   -5.047E-03   -4.685E-03   -4.324E-03
    -3.963E-03   -3.602E-03   -3.241E-03   -2.881E-03   -2.521E-03   -2.161E-03   -1.802E-03   -1.443E-03   -1.084E-03   -7.256E-04
    -3.678E-04   -1.050E-05    3.464E-04    7.027E-04    1.059E-03    1.414E-03    1.768E-03    2.123E-03    2.476E-03    2.829E-03
     3.181E-03    3.533E-03    3.883E-03    4.233E-03    4.583E-03    4.931E-03    5.279E-03    5.626E-03    5.972E-03    6.317E-03
     6.661E-03    7.005E-03    7.347E-03    7.689E-03    8.029E-03    8.369E-03    8.707E-03    9.044E-03    9.381E-03    9.716E-03
     1.005E-02    1.038E-02    1.072E-02    1.105E-02    1.138E-02    1.171E-02    1.203E-02    1.236E-02    1.268E-02    1.301E-02
     1.333E-02    1.365E-02    1.397E-02    1.429E-02    1.461E-02    1.493E-02    1.524E-02    1.556E-02    1.587E-02    1.618E-02
