 
 $NMID
 ID=''
 FMTDAT='(2E13.5)'
 TRAMP=   1.00000E+0
 VOLUME=   1.00000E+0
 $END
   3.19662E+2  -3.29732E+1
  -1.63713E+3   1.37287E+2
   1.60389E+3   1.75010E+2
  -1.39139E+3   5.58129E+2
   9.53906E+2   1.20659E+3
   9.82080E+2  -1.08141E+2
  -1.43811E+3   1.52117E+3
   7.27546E+2  -1.07967E+2
  -4.04509E+2  -2.02622E+3
  -3.75624E+2  -1.22966E+3
  -5.52534E+2  -1.97758E+3
   2.82974E+3   1.66009E+3
  -2.54545E+3   1.77952E+3
  -5.73650E+3   2.35712E+3
  -5.23708E+3  -5.00267E+2
  -1.46476E+3  -7.48138E+2
  -2.04294E+2   9.97218E+2
  -7.78096E+2   3.13308E+3
  -1.93044E+3   3.60537E+3
  -4.78385E+2   2.15070E+3
   2.56126E+3   3.72703E+3
   1.72859E+2   4.32973E+3
  -1.84492E+3   7.82821E+1
  -7.42622E+2  -1.00724E+3
  -2.85569E+2  -1.23125E+3
   2.33010E+3   2.86409E+3
   7.78972E+2   1.05236E+3
  -4.92281E+2  -1.62118E+3
   6.22925E+2  -2.47210E+3
   3.63244E+3  -1.65561E+3
   2.53981E+3   4.17258E+3
  -2.23043E+3   5.65550E+3
  -6.01526E+3   1.13746E+3
  -3.31723E+2  -1.23601E+3
  -1.97071E+3   1.56713E+3
  -8.45309E+2  -7.64699E+2
   3.34732E+3  -3.06986E+3
   5.46431E+3  -1.78030E+3
   3.64657E+3   2.85033E+3
   1.40197E+3   4.08363E+3
  -1.03502E+2   4.15472E+3
  -3.65290E+3  -2.33333E+3
  -6.55340E+2  -4.17884E+3
   3.61190E+3  -1.34277E+3
   2.78280E+3  -1.08030E+3
  -8.05973E+2   1.22137E+3
   2.42557E+3  -3.97983E+2
  -2.57519E+3   2.50351E+3
  -3.11691E+2  -3.58175E+2
  -1.68031E+3  -1.23197E+3
  -2.53071E+3  -3.31801E+3
  -1.92584E+2  -5.40697E+3
   2.07669E+3  -4.14830E+3
   2.42563E+3   1.62060E+3
  -5.96913E+2   2.08727E+3
   1.54246E+3   4.49801E+2
  -1.68145E+3   7.16474E+2
  -5.59895E+2  -8.12022E+2
   1.05777E+3  -5.62179E+3
   5.02334E+3  -3.29581E+3
   5.53759E+3  -1.40043E+3
   4.42852E+3   4.34972E+3
   1.09488E+3   3.26749E+3
  -1.71274E+2   9.96117E+2
   9.30833E+2   1.29913E+3
   2.54086E+3   1.63444E+3
  -9.48708E+2   5.16529E+3
  -3.09984E+3   1.38512E+3
  -2.37467E+3   2.18221E+3
  -1.45093E+3   7.20556E+2
  -2.50071E+2   9.49713E+2
  -1.25625E+3  -5.40646E+2
  -2.55013E+3  -6.51980E+2
   4.38376E+2  -4.47434E+3
   9.18177E+2  -2.37326E+3
   7.27798E+2  -5.16470E+1
  -2.83173E+3  -2.66289E+3
   1.88728E+3  -2.17740E+2
   7.27854E+2  -9.07666E+2
   5.21222E+2   2.66906E+3
   8.31615E+2   3.37084E+2
   3.78315E+2  -5.52945E+2
   6.69661E+2   2.66875E+2
   3.27669E+2   1.06950E+3
  -7.33653E+2  -9.58662E+2
  -3.19629E+3  -2.58695E+3
   1.61449E+3  -2.14694E+3
   6.47456E+2  -3.41117E+3
   2.71693E+3   1.76667E+2
   2.60284E+2  -2.55384E+2
   1.29933E+2  -4.18339E+2
  -3.38527E+2   1.14298E+2
   2.61714E+3   1.01164E+3
  -1.12076E+3   2.24759E+3
  -3.21358E+3  -3.46042E+3
   8.22208E+2  -2.98367E+3
   2.14837E+3  -2.37551E+2
  -2.01723E+1   1.29139E+3
  -1.56936E+3  -2.87262E+2
  -3.70220E+3  -1.56957E+3
   2.58491E+3  -3.20416E+3
   2.87535E+3  -9.45862E+2
   1.39142E+2   1.04015E+3
  -2.05346E+3   1.14336E+3
  -2.38271E+3  -1.36518E+3
  -1.07120E+2  -2.18272E+3
  -1.41491E+3  -2.55418E+3
  -3.17137E+3  -3.31652E+3
  -4.44647E+2  -2.74225E+3
   1.59751E+3  -1.63494E+3
   1.67619E+3   1.37594E+3
   3.05365E+3   1.29361E+3
  -3.26432E+2   1.82948E+3
  -1.05782E+3   3.66716E+3
  -1.52110E+3  -8.36632E+2
  -3.53543E+3  -3.40882E+2
   2.21626E+2  -3.84841E+3
  -3.25788E+2   2.58434E+2
  -4.48831E+2  -2.36078E+3
  -2.74308E+2   1.99707E+3
  -1.21782E+3   4.44143E+2
  -2.16922E+3  -2.79216E+3
   9.22732E+2  -2.76530E+3
   1.87688E+3  -3.18433E+2
  -2.80443E+2  -6.47221E+2
   2.34176E+3  -8.15922E+2
   1.27603E+3  -4.90951E+2
   1.43376E+3  -7.93418E+2
   4.24011E+2   2.99027E+2
  -6.93553E+1   8.48536E+1
   6.88858E+1  -2.25998E+3
   1.37235E+3  -1.94611E+3
   2.88113E+3   1.18315E+3
  -4.00933E+2   2.15026E+3
  -1.98775E+3   7.51010E+1
  -1.48632E+3   3.56014E+0
  -3.23743E+2   4.01529E+2
  -1.32681E+3  -1.92655E+2
   1.37598E+3  -1.58482E+3
  -5.28977E+2   2.35893E+2
   7.46557E+2  -2.51232E+3
   8.14298E+2  -3.59574E+2
   1.93518E+3  -5.04532E+2
  -1.30328E+3   1.94581E+3
  -4.13262E+2  -2.32044E+3
   1.88529E+2   6.39145E+2
   6.90642E+2  -3.43844E+1
   2.11328E+2   1.07785E+3
   4.07454E+2   6.23224E+2
   1.23394E+2  -8.13956E+2
   1.12908E+1  -8.99576E+2
   9.97718E+2  -2.69198E+3
   1.29450E+3  -6.80876E+2
   3.05881E+3  -1.92645E+3
   1.63187E+3   8.93183E+2
   1.25939E+3   1.36184E+3
  -6.09735E+2   6.63863E+2
  -9.65519E+2   8.33472E+2
  -2.54242E+3   1.05091E+3
  -1.31280E+3   2.65919E+2
  -1.45294E+3   1.53875E+3
  -6.84791E+2   8.06991E+2
  -3.77215E+2   7.83426E+2
  -3.43432E+2  -2.82345E+2
   3.20346E+2   9.02439E+2
  -2.52673E+3  -8.97738E+2
  -7.90828E+2  -1.28951E+3
   4.47556E+2  -1.71971E+3
   9.13538E+2   4.63521E+2
  -1.49299E+3   1.78297E+3
  -1.43475E+3   8.42935E+2
  -1.37124E+3  -4.10863E+2
   9.32283E+2  -2.10859E+3
  -9.83929E+1   1.06952E+3
   7.05547E+2  -1.16997E+3
   5.55148E+1  -5.84372E+2
   2.47478E+3   6.81093E+2
   8.08954E+2   1.39303E+3
  -2.72179E+3   2.14189E+3
  -1.41955E+3   8.41582E+2
  -1.05263E+1  -1.28677E+3
  -1.78770E+3  -1.18138E+3
  -1.77027E+2  -1.56434E+3
  -2.73829E+3  -1.77363E+2
  -1.82091E+3   8.55588E+2
  -6.86573E+2   1.68161E+3
  -1.21040E+3   2.01398E+3
  -3.38108E+2   1.18437E+3
  -1.26088E+3   4.92888E+2
  -1.36938E+3  -7.03647E+2
   2.42652E+3   3.40024E+2
   2.15229E+3  -3.15766E+2
   6.99673E+0   2.04794E+3
   1.25132E+2   4.13119E+2
  -7.37211E+2   1.70841E+3
   6.54332E+2   1.00476E+3
  -6.32531E+2   6.69711E+2
   9.67706E+1   1.56379E+2
   2.40492E+1   1.19925E+3
   1.56895E+3   8.15286E+2
  -1.95818E+3   1.66935E+3
  -1.34870E+3  -1.10748E+3
  -1.65807E+3  -4.63419E+2
   1.00377E+2   7.84999E+2
   1.03162E+3  -2.62389E+3
   2.68401E+3   6.86764E+2
  -1.38647E+3  -2.79837E+2
  -1.08849E+3  -3.37543E+2
   1.05812E+2   1.58355E+3
  -8.16198E+2   2.35611E+2
  -1.61122E+3  -7.10750E+2
   1.63630E+2   1.10572E+3
  -1.80148E+3  -2.10757E+3
   5.77489E+2   3.45981E+2
  -2.19633E+3   1.40618E+3
  -7.65821E+2   2.28693E+3
   7.38559E+2   9.90471E+2
   6.16222E+2   1.22966E+3
  -8.96258E+2   2.16352E+3
   2.75840E+2   1.84204E+3
   2.34064E+3  -1.12169E+3
  -2.72504E+2   5.78363E+1
  -2.53365E+2   1.42115E+3
  -4.52524E+2  -2.43890E+2
   4.50739E+2  -2.36218E+3
  -8.61009E+2   1.08453E+3
  -3.14059E+1   2.38400E+3
   2.81789E+3   4.11058E+2
  -1.12601E+3  -6.82533E+2
   7.01572E+2  -1.19178E+2
   1.27424E+3   1.31241E+3
   3.15526E+2  -7.19070E+1
  -1.35081E+3  -4.50037E+2
   3.04659E+2  -1.44044E+3
   2.71730E+3   1.10195E+3
  -1.56035E+2   1.08064E+3
   9.39537E+1   9.33660E+2
   1.44868E+3  -1.03597E+2
   2.24046E+3   2.49176E+2
   1.27400E+3   8.86577E+2
   1.12713E+3   6.12222E+2
  -1.06113E+3   2.30040E+2
  -2.18532E+3   1.44616E+3
  -1.29962E+2  -5.58788E+2
   5.06328E+2   8.86334E+0
  -5.14006E+2  -6.93182E+2
   6.60142E+2   3.38355E+2
  -5.16732E+2  -1.76337E+3
   2.12041E+3   4.35811E+0
   6.92752E+2   3.00093E+2
  -9.74755E+2  -3.20252E+1
  -3.72553E+3  -1.85695E+2
   1.85989E+2  -1.25384E+3
  -1.04118E+3   3.69364E+2
   6.30558E+2   5.37015E+2
   1.52555E+2  -2.03232E+3
   2.62899E+2  -8.80390E+2
   1.19670E+3  -6.05384E+2
  -4.62483E+0   1.51388E+3
  -1.31395E+3   3.22330E+2
  -2.14093E+3   6.70493E+2
  -8.16527E+2  -9.94748E+2
   2.48806E+2   3.87321E+1
  -3.30865E+2  -4.12329E+1
  -1.65359E+3   8.78455E+2
  -2.89063E+3  -1.90045E+3
   7.61841E+2  -1.16768E+3
  -1.12167E+3   1.83710E+3
  -1.68356E+3  -2.27358E+2
   3.62699E+2  -3.07171E+2
   1.90063E+3  -2.00183E+3
   4.03421E+2   1.53033E+3
  -8.31621E+2  -4.22208E+1
  -2.77848E+3   5.68839E+2
  -5.85819E+2  -8.62961E+2
  -1.71844E+3  -2.49299E+3
   9.90559E-1   2.26462E+1
  -1.25355E+3   8.18743E+2
  -1.88709E+2  -4.23714E+2
   1.11390E+3  -5.62124E+2
  -1.16492E+3  -3.09928E+2
  -7.95000E+2   1.76941E+3
   2.91022E+2   7.95084E+2
  -1.32393E+2   2.09009E+2
   5.59322E+2  -1.09135E+3
   9.37850E+2   1.42207E+3
  -2.15367E+3  -6.47304E+2
  -9.11675E+2  -6.28410E+2
   9.13371E+2  -1.23617E+3
   2.38369E+2  -6.35911E+2
   1.03225E+3  -8.51509E+2
  -3.28546E+1  -3.73028E+2
   6.48598E+2   1.01224E+3
   7.94105E+2  -5.80657E+2
  -5.84141E+2   8.34834E+2
   7.59725E+2  -2.30630E+3
   1.48166E+3   3.74334E+2
   4.68156E+2  -3.27292E+3
   1.84049E+1  -1.59736E+3
  -3.41957E+3   9.79256E+2
   7.92776E+2  -1.09546E+2
   1.03710E+2  -1.35939E+3
  -5.73901E+2  -2.75960E+3
  -2.87077E+2   7.23864E+2
   2.00810E+3  -8.47186E+2
  -4.30282E+2  -1.13654E+3
   4.97007E+2   2.55615E+3
   1.04332E+3   2.98343E+3
   2.27905E+3  -3.04732E+1
   2.25217E+2  -1.23248E+3
   2.32571E+3  -1.80589E+3
  -7.34070E+1   3.32605E+2
   9.37112E+2   8.74248E+2
   2.80566E+2   3.63094E+2
   3.00814E+2  -4.13056E+2
  -1.37280E+3   3.28486E+2
  -1.21234E+3   1.96831E+3
  -8.65447E+2   1.23775E+3
   3.73330E+2   4.44362E+2
   7.01641E+2  -4.85308E+2
   2.91337E+3  -2.37499E+2
  -2.52126E+2   1.59325E+3
   1.18565E+2   1.39628E+3
  -7.49230E+2   1.65713E+3
   4.46915E+2   3.91487E+2
   1.09143E+3  -7.99289E+2
  -9.02391E+2  -2.10936E+3
   1.16766E+3  -5.71706E+2
   1.49137E+3   4.32624E+1
  -2.98339E+2   1.51389E+3
   2.74470E+2  -1.27583E+3
  -9.12374E+2   9.17325E+2
  -6.51310E+2   3.69011E+2
  -2.46546E+2   1.82387E+3
   6.33647E+2  -1.65143E+3
  -4.14304E+2   3.02182E+2
   4.15536E+2  -3.10480E+2
  -4.06500E+2  -5.29195E+2
   2.70706E+3   8.03139E+2
  -9.36538E+1   2.38755E+3
  -9.46225E+2  -1.69965E+3
   5.20088E+2  -3.32752E+2
  -1.54007E+2  -1.99670E+2
   1.02761E+3  -7.78356E+2
  -5.28257E+1  -2.23629E+3
   1.65044E+2   1.29123E+3
   3.97356E+2   3.29245E+2
   7.24231E+1   2.71279E+3
   3.87567E+0   1.12273E+1
  -1.60558E+3  -6.56097E+2
   3.11575E+2   1.55262E+3
   9.42768E+1   2.46729E+3
  -7.68482E+2   1.32814E+3
   5.65864E+2  -1.33858E+3
  -1.91203E+2   1.01488E+2
   7.56183E+2  -9.63805E+2
   1.77729E+3  -4.92250E+2
   1.00671E+3   5.10290E+1
  -5.99937E+2  -5.23860E+2
  -3.50562E+2   2.55099E+1
  -5.45796E+2   1.96240E+3
   4.05487E+2   3.82890E+2
  -1.92451E+3   9.70608E+1
   1.93417E+3  -1.26119E+2
   8.49976E+2  -8.84573E+2
   1.26288E+3   1.29413E+2
  -1.08232E+3   1.39014E+2
