 LCModel (Version 6.3-1N) Copyright: S.W. Provencher.          Ref.: Magn. Reson. Med. 30:672-679 (1993).                
 Slice_N1@16_14  02-Jun-2023 14:37:01
 27 lines in following concentration table = NCONC+1
    Conc.  %SD /Cr+PCr  Metabolite                                         
 2.16E-06  14% 3.2E-04 Mac                                                 
 2.37E-02  22%   3.502 Cr                                                  
 3.04E-02  17%   4.498 PCr                                                 
 6.03E-02  11%   8.919 Ins                                                 
 7.82E-02   8%  11.569 NAA                                                 
 5.26E-02  11%   7.778 Tau                                                 
 7.52E-03  36%   1.112 PCho                                                
 6.83E-03  38%   1.011 GPC                                                 
 4.44E-02  17%   6.560 Glu                                                 
 2.18E-02  25%   3.226 Gln                                                 
    0.000 999%   0.000 Ala                                                 
 3.78E-02  27%   5.589 Asc                                                 
 1.10E-02  59%   1.630 Asp                                                 
 9.03E-03  38%   1.335 GABA                                                
 6.92E-03  65%   1.023 Glc                                                 
 7.24E-03  41%   1.071 GSH                                                 
 1.69E-02  35%   2.506 Lac                                                 
 9.24E-03  34%   1.366 NAAG                                                
    0.000 999%   0.000 PE                                                  
 1.44E-02  11%   2.122 GPC+PCho                                            
 8.75E-02   8%  12.935 NAA+NAAG                                            
 6.62E-02  13%   9.786 Glu+Gln                                             
 5.41E-02   9%   8.000 Cr+PCr                                              
 8.75E-02   8%  12.935 NAA+NAAG                                            
 5.41E-02   9%   8.000 Cr+PCr                                              
 6.62E-02  13%   9.786 Glu+Gln                                             
   6 lines in following misc. output table
  FWHM = 0.017 ppm    S/N =   9                                            
  Data shift = 0.023 ppm                                                   
  Ph: -62 deg     -11.0 deg/ppm                                            
  alphaB,S = 1.8E+00,   3.6E-01                                            
   18 spline knots.   Ns = 5(1)                                            
   4 inflections.     4 extrema                                            
  654 points on ppm-axis = NY
      4.000000     3.994181     3.988363     3.982544     3.976726     3.970907     3.965088     3.959270     3.953451     3.947633
      3.941814     3.935995     3.930177     3.924358     3.918540     3.912721     3.906902     3.901084     3.895265     3.889446
      3.883628     3.877809     3.871991     3.866172     3.860353     3.854535     3.848716     3.842898     3.837079     3.831260
      3.825442     3.819623     3.813805     3.807986     3.802167     3.796349     3.790530     3.784712     3.778893     3.773074
      3.767256     3.761437     3.755619     3.749800     3.743981     3.738163     3.732344     3.726526     3.720707     3.714888
      3.709070     3.703251     3.697433     3.691614     3.685795     3.679977     3.674158     3.668339     3.662521     3.656702
      3.650884     3.645065     3.639246     3.633428     3.627609     3.621791     3.615972     3.610153     3.604335     3.598516
      3.592698     3.586879     3.581060     3.575242     3.569423     3.563605     3.557786     3.551967     3.546149     3.540330
      3.534512     3.528693     3.522874     3.517056     3.511237     3.505419     3.499600     3.493781     3.487963     3.482144
      3.476326     3.470507     3.464688     3.458870     3.453051     3.447232     3.441414     3.435595     3.429777     3.423958
      3.418139     3.412321     3.406502     3.400684     3.394865     3.389046     3.383228     3.377409     3.371591     3.365772
      3.359953     3.354135     3.348316     3.342498     3.336679     3.330860     3.325042     3.319223     3.313405     3.307586
      3.301767     3.295949     3.290130     3.284312     3.278493     3.272674     3.266856     3.261037     3.255219     3.249400
      3.243581     3.237763     3.231944     3.226125     3.220307     3.214488     3.208670     3.202851     3.197032     3.191214
      3.185395     3.179577     3.173758     3.167939     3.162121     3.156302     3.150484     3.144665     3.138846     3.133028
      3.127209     3.121391     3.115572     3.109753     3.103935     3.098116     3.092298     3.086479     3.080660     3.074842
      3.069023     3.063205     3.057386     3.051567     3.045749     3.039930     3.034111     3.028293     3.022474     3.016656
      3.010837     3.005018     2.999200     2.993381     2.987563     2.981744     2.975925     2.970107     2.964288     2.958470
      2.952651     2.946832     2.941014     2.935195     2.929377     2.923558     2.917739     2.911921     2.906102     2.900284
      2.894465     2.888646     2.882828     2.877009     2.871191     2.865372     2.859553     2.853735     2.847916     2.842098
      2.836279     2.830460     2.824642     2.818823     2.813004     2.807186     2.801367     2.795549     2.789730     2.783911
      2.778093     2.772274     2.766456     2.760637     2.754818     2.749000     2.743181     2.737363     2.731544     2.725725
      2.719907     2.714088     2.708270     2.702451     2.696632     2.690814     2.684995     2.679177     2.673358     2.667539
      2.661721     2.655902     2.650084     2.644265     2.638446     2.632628     2.626809     2.620991     2.615172     2.609353
      2.603535     2.597716     2.591897     2.586079     2.580260     2.574442     2.568623     2.562804     2.556986     2.551167
      2.545349     2.539530     2.533711     2.527893     2.522074     2.516256     2.510437     2.504618     2.498800     2.492981
      2.487163     2.481344     2.475525     2.469707     2.463888     2.458070     2.452251     2.446432     2.440614     2.434795
      2.428977     2.423158     2.417339     2.411521     2.405702     2.399884     2.394065     2.388246     2.382428     2.376609
      2.370790     2.364972     2.359153     2.353335     2.347516     2.341697     2.335879     2.330060     2.324242     2.318423
      2.312604     2.306786     2.300967     2.295149     2.289330     2.283511     2.277693     2.271874     2.266056     2.260237
      2.254418     2.248600     2.242781     2.236963     2.231144     2.225325     2.219507     2.213688     2.207870     2.202051
      2.196232     2.190414     2.184595     2.178777     2.172958     2.167139     2.161321     2.155502     2.149683     2.143865
      2.138046     2.132228     2.126409     2.120590     2.114772     2.108953     2.103135     2.097316     2.091497     2.085679
      2.079860     2.074042     2.068223     2.062404     2.056586     2.050767     2.044949     2.039130     2.033311     2.027493
      2.021674     2.015856     2.010037     2.004218     1.998400     1.992581     1.986763     1.980944     1.975126     1.969307
      1.963489     1.957670     1.951852     1.946033     1.940215     1.934397     1.928578     1.922760     1.916941     1.911123
      1.905304     1.899486     1.893667     1.887849     1.882030     1.876212     1.870393     1.864575     1.858756     1.852938
      1.847119     1.841301     1.835482     1.829664     1.823845     1.818027     1.812208     1.806390     1.800571     1.794753
      1.788934     1.783116     1.777297     1.771479     1.765660     1.759842     1.754023     1.748205     1.742386     1.736568
      1.730749     1.724931     1.719113     1.713294     1.707476     1.701657     1.695839     1.690020     1.684202     1.678383
      1.672565     1.666746     1.660928     1.655109     1.649291     1.643472     1.637654     1.631835     1.626017     1.620198
      1.614380     1.608561     1.602743     1.596924     1.591106     1.585287     1.579469     1.573650     1.567832     1.562013
      1.556195     1.550376     1.544558     1.538739     1.532921     1.527102     1.521284     1.515465     1.509647     1.503829
      1.498010     1.492192     1.486373     1.480555     1.474736     1.468918     1.463099     1.457281     1.451462     1.445644
      1.439825     1.434007     1.428188     1.422370     1.416551     1.410733     1.404914     1.399096     1.393277     1.387459
      1.381640     1.375822     1.370003     1.364185     1.358366     1.352548     1.346729     1.340911     1.335092     1.329274
      1.323455     1.317637     1.311818     1.306000     1.300182     1.294363     1.288545     1.282726     1.276908     1.271089
      1.265271     1.259452     1.253634     1.247815     1.241997     1.236178     1.230360     1.224541     1.218723     1.212904
      1.207086     1.201267     1.195449     1.189630     1.183812     1.177993     1.172175     1.166356     1.160538     1.154719
      1.148901     1.143082     1.137264     1.131445     1.125627     1.119808     1.113990     1.108171     1.102353     1.096534
      1.090716     1.084898     1.079079     1.073261     1.067442     1.061624     1.055805     1.049987     1.044168     1.038350
      1.032531     1.026713     1.020894     1.015076     1.009257     1.003439     0.997620     0.991802     0.985983     0.980165
      0.974346     0.968528     0.962709     0.956891     0.951072     0.945254     0.939435     0.933617     0.927798     0.921980
      0.916161     0.910343     0.904524     0.898706     0.892887     0.887069     0.881251     0.875432     0.869614     0.863795
      0.857977     0.852158     0.846340     0.840521     0.834703     0.828884     0.823066     0.817247     0.811429     0.805610
      0.799792     0.793973     0.788155     0.782336     0.776518     0.770699     0.764881     0.759062     0.753244     0.747425
      0.741607     0.735788     0.729970     0.724151     0.718333     0.712514     0.706696     0.700877     0.695059     0.689240
      0.683422     0.677603     0.671785     0.665967     0.660148     0.654330     0.648511     0.642693     0.636874     0.631056
      0.625237     0.619419     0.613600     0.607782     0.601963     0.596145     0.590326     0.584508     0.578689     0.572871
      0.567052     0.561234     0.555415     0.549597     0.543778     0.537960     0.532141     0.526323     0.520504     0.514686
      0.508867     0.503049     0.497230     0.491412     0.485593     0.479775     0.473956     0.468138     0.462319     0.456501
      0.450682     0.444864     0.439045     0.433227     0.427408     0.421590     0.415771     0.409953     0.404134     0.398316
      0.392497     0.386679     0.380860     0.375042     0.369223     0.363405     0.357586     0.351767     0.345949     0.340130
      0.334312     0.328493     0.322675     0.316856     0.311038     0.305219     0.299401     0.293582     0.287764     0.281945
      0.276127     0.270308     0.264490     0.258671     0.252853     0.247034     0.241216     0.235397     0.229579     0.223760
      0.217942     0.212123     0.206305     0.200486
 NY phased data points follow
  -1.91426E-01 -5.07534E-03  1.60495E-02  1.52022E-02 -1.18564E-01 -7.61781E-02  7.42713E-02 -7.75917E-03 -2.26200E-02 -2.48157E-02
   3.14517E-01  7.18750E-01  4.21308E-01  1.10254E-01  3.51807E-01  5.31588E-01  9.24277E-02  2.69809E-01  2.21293E-01 -1.37756E-01
   2.44714E-01 -9.95454E-02 -1.63275E-01 -3.60199E-01 -2.39892E-01  9.12755E-02 -1.66526E-01  2.50264E-01  7.18236E-02 -1.79401E-01
  -1.58304E-01 -1.89002E-01 -4.34177E-01 -3.16587E-01 -3.77219E-01 -5.57626E-01 -2.39190E-01 -3.74462E-01 -1.70912E-01  3.58233E-02
   1.09124E-01  1.94771E-01  3.81508E-01  1.12776E-01  3.59881E-01  6.32349E-01  2.77914E-01  2.34833E-01  1.65097E-01  2.21725E-01
   1.46658E-01  2.02901E-01 -2.05786E-01  1.02967E-02 -5.35344E-02 -1.88867E-01 -8.17860E-02 -4.85232E-01 -9.87584E-02 -2.79033E-01
  -3.01978E-01 -1.17184E-01  9.74886E-03 -1.60639E-01 -5.01157E-01 -8.34670E-02  2.70208E-01  2.13750E-01  3.10361E-01  6.32151E-01
   3.22124E-01  8.47281E-02  6.41697E-02 -9.34163E-02  1.39091E-01  4.20034E-02 -3.72348E-01 -6.62929E-02 -3.24396E-01 -7.16625E-01
  -6.41335E-03  1.84806E-01 -7.15148E-02  1.51841E-01  3.84917E-01  2.89422E-01  1.09842E-01  1.76691E-01  1.39747E-01  2.89639E-01
   3.97527E-01  2.01012E-01  3.22148E-01 -8.75908E-02 -1.00582E-01  9.90195E-02  6.58092E-02 -6.03101E-04 -2.74564E-01 -2.75683E-01
  -1.09058E-01  1.24582E-01 -2.21384E-02  3.69454E-01  3.63535E-01  4.56381E-01  5.43410E-01  1.69294E-01  2.73978E-01  4.14437E-01
   5.73823E-01  1.53297E-01  2.45880E-01  3.89709E-01  3.01861E-01  1.05729E-01 -6.45620E-02  1.78928E-01  5.24073E-01  2.49236E-01
  -7.38485E-02  7.48304E-02 -3.25982E-01 -1.84768E-01 -2.16770E-01 -1.18561E-01 -2.14315E-01 -3.95583E-01 -3.09995E-01 -8.63462E-01
  -9.29230E-01 -7.60213E-01 -3.43239E-01 -3.03589E-01 -5.48577E-01 -8.43742E-01 -1.22802E+00 -9.78996E-01 -4.23145E-01  1.71987E-02
  -2.27127E-01 -2.73733E-01  4.95273E-02 -1.71170E-01 -2.33522E-04 -2.52516E-01 -2.62671E-01  1.61590E-01 -2.02852E-01  1.21082E-01
   1.54300E-01 -7.62818E-02  1.75557E-01  3.57158E-01  3.24002E-02  1.50254E-01  4.72621E-01  1.68517E-01  3.66280E-01  3.10879E-01
   4.10775E-01  6.60417E-01  5.74944E-01  4.51575E-01  7.79624E-01  1.15326E+00  6.96131E-01 -3.68143E-01 -1.20722E+00 -9.52877E-01
  -7.38700E-01 -7.26869E-01 -3.55992E-01 -3.23362E-01 -7.36541E-01 -5.43430E-01 -1.74098E-01 -1.04608E-01 -1.16561E-01 -2.69739E-01
  -1.42218E-01 -2.82181E-01 -4.62923E-01 -2.10313E-01 -2.18232E-01 -4.28295E-01 -2.67223E-01 -1.75389E-02 -4.01006E-01 -5.15854E-01
  -4.92572E-02 -2.07246E-01 -9.02602E-02 -9.48240E-02 -2.44057E-01  6.19266E-02 -3.68952E-02 -9.45299E-02 -4.11774E-02  1.23124E-01
   1.01596E-01  9.40876E-02  1.47876E-01 -6.31113E-02 -1.11796E-01 -2.17385E-01 -1.89858E-01 -3.82236E-02 -2.35879E-01 -2.77290E-02
   1.61289E-01 -5.35608E-02 -1.13880E-01 -7.19448E-02 -7.25987E-02  9.40322E-03  2.22773E-01 -1.14101E-01  1.00938E-01  5.71113E-02
  -5.02558E-02  8.73534E-02 -1.47762E-01  3.83193E-02  8.40351E-02  6.42240E-01  4.86228E-01  2.98568E-02  2.34457E-01  5.93608E-01
   6.20698E-01  1.65152E-01  7.99390E-02  4.03715E-02 -6.85499E-02  1.59920E-02  1.76391E-01 -6.49272E-02 -7.10028E-02  4.26524E-02
  -1.97908E-02 -1.69252E-01 -6.14229E-02 -2.21840E-01 -3.22217E-01 -2.37161E-01 -2.58533E-01 -6.70984E-02 -8.70215E-02  1.88198E-01
  -1.08209E-02  1.36981E-02  8.24505E-03  1.55242E-01 -1.39748E-01 -2.22540E-01  4.05407E-01 -4.34768E-01 -1.27434E-01  2.06412E-01
   1.07072E-01  2.67112E-01 -3.19685E-02  3.07121E-01  2.45151E-01 -2.54879E-02  2.19145E-01  1.50593E-01  4.19914E-02  2.85646E-01
   3.03959E-01  1.72937E-01 -6.04205E-02 -1.41126E-01 -3.86521E-02 -9.72894E-02 -1.01863E-01  1.32743E-01 -4.10903E-03 -1.30808E-01
   5.32088E-02 -9.78392E-02 -1.92852E-01 -1.73215E-01  1.05016E-01  4.87782E-01  5.39745E-01  5.51798E-01  3.59826E-01  1.13490E-01
   2.49674E-01  9.99424E-02  6.56347E-02  1.18428E-01 -8.42329E-02  1.47826E-01  2.02725E-01 -6.34104E-02  5.70157E-02  3.20698E-01
   1.76829E-01  1.72934E-01  2.28381E-01  1.41900E-01  2.61529E-01  3.11797E-01  3.99369E-01  3.33573E-01  1.46805E-01  6.41892E-02
  -8.77643E-02  1.07805E-01  3.32945E-01  2.07001E-01  4.98475E-02  2.19551E-01  1.71462E-01 -1.08250E-01  4.46921E-02 -4.71177E-02
  -1.28496E-01 -3.53007E-01 -3.08698E-01 -1.79880E-01 -3.04608E-01 -1.36974E-01  2.18523E-01  5.02087E-01  5.14803E-02  1.96405E-01
   4.05750E-01  2.15109E-01  7.47001E-02 -5.38898E-02 -1.73199E-01 -3.61509E-01 -3.68531E-01 -4.51001E-01 -1.72950E-01 -1.56659E-01
  -7.91805E-02 -1.28398E+00 -3.12748E+00 -1.89131E+00 -2.28795E-01 -7.15019E-02  2.75124E-01  4.51957E-01  2.22901E-01 -5.52059E-02
   2.00130E-01  2.28657E-01 -7.98864E-02  3.63818E-02 -1.46385E-02  1.33189E-01  6.35011E-02  1.50090E-02 -1.40000E-01  4.99556E-02
   3.75828E-01  8.74625E-02 -3.71616E-02 -9.34512E-03  1.41668E-01  8.18034E-02 -8.84801E-03 -4.31110E-01 -4.49890E-02  2.82566E-01
  -5.58112E-03 -1.09641E-02  1.46601E-01  1.28123E-01 -1.02395E-02  4.46594E-01  2.00884E-02  2.44721E-02  2.46549E-01  1.96837E-01
   2.28982E-01  1.71540E-01  1.70786E-01  9.77293E-02  4.16934E-01  1.36134E-01  1.45807E-01  7.07491E-02  2.45143E-02  2.66760E-01
   4.08460E-01  2.85293E-01  9.90913E-02  1.86505E-01 -8.92953E-02  3.53867E-01  1.28505E-01 -2.00011E-01  2.25921E-02 -2.49925E-01
  -1.54000E-01 -2.85818E-02  3.58444E-02 -1.55783E-01 -1.16907E-01 -1.04407E-01 -3.14663E-01  1.55263E-02 -1.57474E-02 -6.85581E-02
   2.47067E-02 -2.62462E-01 -1.95288E-01 -1.00057E-01 -2.29456E-01 -2.29976E-01 -2.67799E-01 -2.10583E-01 -4.27165E-02 -2.21529E-01
  -2.44493E-01  1.56650E-01 -1.67242E-01 -4.69533E-01 -1.74544E-01 -2.48568E-01 -2.41017E-01  5.86290E-03 -1.89501E-01 -3.41924E-01
  -7.54745E-02 -1.66501E-01 -5.67940E-02  4.85387E-02 -2.04610E-01  2.66589E-02 -9.60586E-02 -3.53913E-01 -2.11054E-01  2.07917E-01
   2.71673E-01 -1.67853E-01  2.38788E-01  9.32732E-02 -3.00618E-01  1.73722E-01 -1.74094E-02  9.20728E-03  4.23732E-01  2.69223E-01
   5.36818E-02  2.45371E-01  2.61191E-01  5.22345E-02 -5.54123E-02 -5.48275E-02  1.38791E-01 -1.41229E-01 -1.73069E-02  1.77781E-01
   1.24170E-01  4.24447E-01  5.37328E-01  1.98630E-01 -3.31023E-03  2.63717E-01  1.41893E-01  1.18400E-01  2.59342E-02 -6.86915E-02
  -1.19545E-01  1.48210E-01  1.54716E-01 -1.88771E-01 -7.30324E-02 -1.54915E-01  3.23103E-01  1.66759E-01 -2.55535E-01 -1.41084E-01
   9.88165E-02  1.76338E-01  5.16561E-02  1.84127E-01 -5.64875E-02  1.96319E-01  2.66971E-01 -2.54500E-01 -1.15571E-01 -7.20120E-02
  -1.44603E-01 -1.54970E-01 -2.07884E-01  6.10657E-02 -1.74541E-01  4.91836E-02 -8.66242E-02 -2.62038E-01 -5.08740E-02 -1.88044E-01
   1.61634E-01 -1.28135E-01  2.00893E-01  2.01424E-01  7.76002E-02  4.09291E-01  2.33834E-01  9.32711E-02  1.35320E-01  3.34099E-01
   1.62176E-01  6.19177E-02 -7.37667E-02  1.50984E-01  6.47225E-02  3.45981E-02  4.78103E-02 -5.36831E-02 -2.71951E-02  2.32155E-02
   1.17608E-01 -1.06102E-01 -5.28088E-02 -3.62602E-02 -1.14165E-01 -3.29772E-01 -2.83955E-01 -3.62354E-01 -2.14956E-01 -1.72193E-01
  -3.07164E-01 -3.41136E-01 -1.88692E-01 -8.39271E-02 -3.86542E-01 -9.23652E-02 -1.20753E-01  1.14055E-02 -1.34044E-01 -3.61346E-01
  -2.72441E-01 -1.81840E-01 -1.87774E-02 -1.31763E-01 -3.43628E-01 -5.24056E-02  2.94195E-01  1.03649E-01  2.83287E-01  2.10739E-01
   3.83439E-01  1.16307E-01  3.08559E-01  6.00211E-01  8.80233E-02  3.18912E-01  2.56065E-01  4.08780E-02  7.76031E-02  2.91019E-02
  -6.91138E-02  2.57671E-01  2.03833E-01  1.00811E-01 -5.08867E-02 -8.99419E-02  3.62882E-01  5.53769E-02 -7.55408E-02  6.64046E-02
   1.56896E-03  2.02820E-01  7.07681E-02 -1.06238E-01  7.70098E-02  9.25181E-02  2.60972E-01 -3.44394E-02 -5.96664E-03  1.88097E-01
  -2.69221E-01 -2.13162E-01  7.67075E-02 -7.12033E-03 -9.39120E-02 -7.38709E-03 -6.12109E-02  6.13151E-02  1.68101E-01  2.12673E-01
  -7.19883E-02 -1.83486E-01  1.17556E-01  1.57329E-01  8.04672E-02 -9.13336E-02 -9.86797E-03  1.33012E-01 -3.38032E-02  6.55190E-02
   9.46408E-02  8.37854E-02  1.87808E-01 -1.63251E-01  6.52364E-03  1.31353E-01  9.32414E-02  8.41931E-02  1.22163E-01 -1.06911E-02
  -3.14966E-02 -1.06329E-01 -2.45123E-01  3.76259E-01 -4.39738E-02 -4.48239E-02  4.37312E-02  4.74133E-02  5.42159E-02 -2.61324E-02
   2.93271E-01  7.92107E-02  1.45808E-01  1.28771E-01  4.91415E-01  1.87639E-01  3.93335E-02  1.16216E-01  6.03589E-04  2.31913E-01
   2.48281E-02 -1.36292E-01  4.70724E-02  2.26720E-01 -5.48139E-02 -1.12351E-02 -1.83768E-01  3.28343E-01  2.41332E-01 -1.07566E-02
   2.25348E-01 -1.44849E-01  1.28033E-01  6.99266E-02  2.44181E-01 -3.40364E-02 -9.53755E-02 -2.95292E-02 -7.74037E-02  6.65932E-02
  -2.21831E-02  2.76256E-01 -4.36233E-02  1.77021E-02
 NY points of the fit to the data follow
   8.83389E-02  2.23680E-02 -2.67384E-02 -3.33334E-02 -1.33337E-02  1.03864E-02  3.61629E-02  7.80934E-02  8.94087E-02  1.04495E-02
   2.27887E-01  7.72498E-01  6.15400E-01  1.19261E-01  2.42888E-01  6.21936E-01  3.76208E-01  1.31525E-01  9.43899E-02  4.07746E-02
  -1.99112E-02 -1.22320E-02 -5.05451E-02 -6.62805E-02 -8.36347E-02 -1.06305E-01 -1.17631E-01 -1.19548E-01 -1.38020E-01 -1.49666E-01
  -1.48102E-01 -1.62026E-01 -1.91215E-01 -2.23358E-01 -2.54170E-01 -2.71304E-01 -2.89509E-01 -3.33586E-01 -2.87118E-01 -5.46139E-02
   9.28899E-02  8.88686E-02  2.00223E-01  3.03630E-01  3.35002E-01  4.44818E-01  3.44608E-01  2.25659E-01  2.31120E-01  1.55744E-01
   5.20529E-02  6.64644E-02  3.40339E-02 -2.14715E-02 -5.90092E-02 -1.19400E-01 -1.71204E-01 -1.61362E-01 -1.19956E-01 -1.21411E-01
  -2.31036E-01 -3.07085E-01 -1.53262E-01 -1.77004E-01 -3.09041E-01  1.43442E-01  3.32145E-01  1.12220E-01  3.98534E-01  5.51109E-01
   3.16868E-01  2.31448E-01  1.80169E-01  5.85936E-02  8.46383E-05 -8.32823E-02 -1.23650E-01 -1.39891E-01 -4.22870E-01 -6.95152E-01
  -2.88596E-01  7.82733E-02 -1.27822E-02  2.24587E-01  5.31807E-01  4.44989E-01  3.42713E-01  3.16569E-01  2.24963E-01  1.70837E-01
   1.71681E-01  1.50525E-01  1.13674E-01  7.33578E-02  3.14932E-02 -3.80010E-02 -1.76091E-01 -3.26171E-01 -4.23108E-01 -4.80435E-01
  -2.35469E-01  1.12527E-02  2.28303E-01  3.40903E-01  3.23960E-01  2.72866E-01  2.62439E-01  2.20463E-01  2.21221E-01  2.24164E-01
   2.23578E-01  2.23331E-01  2.21457E-01  2.18477E-01  2.17246E-01  2.18170E-01  2.22030E-01  2.17362E-01  1.97268E-01  2.03812E-01
   2.00549E-01  8.08423E-02 -3.10626E-03 -3.33245E-03 -1.62258E-01 -1.76520E-01 -1.44539E-01 -3.79937E-01 -4.97488E-01 -6.79498E-01
  -6.08607E-01 -4.91446E-01 -2.01070E-01 -1.42797E-01 -5.32206E-01 -9.05298E-01 -1.24021E+00 -9.11100E-01 -3.35306E-01 -1.26001E-01
  -4.29257E-02  7.04741E-02  9.87834E-03  1.34198E-02  3.02756E-02  4.86263E-02  6.48050E-02  8.24149E-02  9.54098E-02  1.06652E-01
   1.21865E-01  1.35605E-01  1.47410E-01  1.62789E-01  1.81373E-01  1.98961E-01  2.23061E-01  2.51981E-01  2.77253E-01  3.08657E-01
   3.64768E-01  4.53333E-01  5.12121E-01  4.66925E-01  5.85470E-01  9.66762E-01  6.80227E-01 -5.25126E-01 -1.23150E+00 -1.00161E+00
  -7.05092E-01 -5.46733E-01 -3.39326E-01 -2.91969E-01 -3.27787E-01 -2.94555E-01 -2.51886E-01 -2.47237E-01 -2.56138E-01 -2.42941E-01
  -2.12482E-01 -2.04224E-01 -2.00423E-01 -1.90497E-01 -1.90561E-01 -1.86417E-01 -1.72593E-01 -1.60864E-01 -1.56229E-01 -1.49548E-01
  -1.38850E-01 -1.29436E-01 -1.21537E-01 -1.11321E-01 -1.02304E-01 -9.65384E-02 -8.78920E-02 -7.62945E-02 -6.77458E-02 -6.57717E-02
  -5.34548E-02 -2.49368E-02 -1.84176E-02 -4.11748E-02 -6.36754E-02 -5.63250E-02 -1.67568E-02 -5.94209E-03 -4.25351E-02 -7.21421E-02
  -7.59411E-02 -7.01977E-02 -5.91639E-02 -4.94749E-02 -4.33250E-02 -3.24687E-02 -6.27565E-03 -1.30483E-03 -3.04535E-02 -3.89903E-02
   3.16490E-03  4.12747E-02  1.68606E-02  4.05397E-02  2.39533E-01  3.74819E-01  3.03297E-01  1.05323E-01  8.60220E-02  4.22093E-01
   5.42136E-01  2.38623E-01  5.27956E-02 -1.45606E-02 -1.01939E-01 -1.03757E-01 -6.98042E-02 -7.06747E-02 -7.15131E-02 -8.11083E-02
  -8.96872E-02 -9.46443E-02 -9.69159E-02 -9.71458E-02 -1.01345E-01 -1.06866E-01 -1.04203E-01 -1.07722E-01 -1.10523E-01 -1.17039E-01
  -1.08394E-01 -1.25815E-01 -1.31895E-01 -1.22248E-01 -2.17537E-01 -1.59418E-01  1.23851E-01  4.54448E-02 -6.12158E-02  1.57694E-01
   2.10577E-01  1.53546E-01  8.21009E-02  9.07489E-02  1.67904E-01  1.26554E-01  1.17693E-01  1.40001E-01  1.35377E-01  1.62724E-01
   1.47902E-01  1.09982E-01  7.63243E-02  3.24740E-02 -3.80123E-03 -2.84330E-02 -6.57115E-02 -1.00119E-01 -1.27881E-01 -1.85000E-01
  -2.45728E-01 -2.09963E-01 -1.86108E-01 -9.70710E-02  9.97418E-02  1.99398E-01  2.89058E-01  3.54714E-01  2.77857E-01  1.94778E-01
   1.43568E-01  9.13638E-02  7.89167E-02  6.85308E-02  1.12472E-01  1.53609E-01  1.67618E-01  1.87809E-01  1.88106E-01  1.68575E-01
   1.66408E-01  1.56103E-01  1.46957E-01  1.46736E-01  1.38378E-01  1.25884E-01  1.20553E-01  9.64643E-02  6.26448E-02  4.97498E-02
   1.67260E-02 -1.07117E-02  5.15118E-03 -1.19974E-02 -1.23103E-02 -2.89963E-02 -7.84546E-02 -1.40948E-01 -1.84386E-01 -2.24619E-01
  -2.77157E-01 -2.62312E-01 -2.46429E-01 -2.06692E-01 -1.08670E-01 -7.65173E-03  7.49304E-02  1.29085E-01  1.26035E-01  9.14353E-02
   5.30038E-02 -2.06670E-02 -9.89341E-02 -9.33999E-02 -9.90100E-02 -2.40783E-01 -4.09452E-01 -2.95500E-01 -3.49433E-01 -1.46923E-01
   7.82338E-02 -1.43361E+00 -3.13999E+00 -1.85931E+00 -4.82232E-01 -2.70036E-01  5.23015E-02  2.43340E-01  2.21085E-03 -2.05815E-02
  -1.84331E-02 -6.75945E-03  1.86611E-03  5.48530E-03  1.35787E-02  2.26684E-02  2.39101E-02  2.28092E-02  1.99790E-02 -4.43706E-03
  -2.33925E-02 -3.91187E-02 -7.06177E-02 -7.42857E-02 -7.69002E-02 -6.73994E-02 -4.52157E-02 -2.55562E-02 -1.21408E-02  2.02806E-03
   8.73891E-03  2.05723E-02  3.14077E-02  3.49427E-02  3.69358E-02  4.15038E-02  4.47832E-02  5.05109E-02  5.60073E-02  5.81425E-02
   5.96303E-02  6.40099E-02  6.69580E-02  7.20070E-02  7.61446E-02  7.67564E-02  7.59593E-02  7.82418E-02  8.35319E-02  8.69987E-02
   9.28572E-02  9.66414E-02  9.69309E-02  9.40818E-02  8.95796E-02  8.57877E-02  8.49041E-02  8.28121E-02  7.95131E-02  7.32390E-02
   6.60070E-02  6.10853E-02  5.48446E-02  4.38422E-02  3.69275E-02  3.42892E-02  3.01355E-02  2.21797E-02  1.70593E-02  1.32047E-02
   7.33653E-03  5.04115E-03  3.01923E-03 -1.20584E-03 -3.41275E-03 -5.83428E-03 -1.00488E-02 -1.25337E-02 -1.43732E-02 -1.44084E-02
  -1.63403E-02 -1.97710E-02 -1.75237E-02 -1.41292E-02 -1.38275E-02 -9.75918E-03 -4.58675E-03 -1.67832E-03  3.95974E-03  1.27871E-02
   1.43850E-02  1.10501E-02  1.22527E-02  1.79883E-02  2.64989E-02  3.63875E-02  4.40117E-02  4.90455E-02  5.48951E-02  6.44451E-02
   7.62493E-02  8.65490E-02  9.87545E-02  1.09714E-01  1.17960E-01  1.29736E-01  1.40717E-01  1.46598E-01  1.50708E-01  1.50804E-01
   1.47318E-01  1.43960E-01  1.39332E-01  1.31326E-01  1.23510E-01  1.20302E-01  1.28603E-01  1.05709E-01  8.38692E-02  1.89075E-01
   3.30719E-01  3.66904E-01  4.26147E-01  3.22795E-01  1.63431E-01  1.12911E-01  9.36568E-02  6.21531E-02  7.43044E-02  7.19060E-02
   6.70582E-02  6.29074E-02  5.69626E-02  5.27617E-02  5.50172E-02  5.82350E-02  5.79751E-02  6.15628E-02  6.66598E-02  6.88676E-02
   7.27465E-02  8.01265E-02  8.61815E-02  8.87484E-02  9.15092E-02  9.40835E-02  9.34185E-02  9.20651E-02  9.65017E-02  1.02291E-01
   1.02295E-01  1.00669E-01  9.79826E-02  9.43216E-02  9.43187E-02  8.95046E-02  8.26704E-02  8.06601E-02  7.94527E-02  7.61201E-02
   7.21778E-02  6.87001E-02  6.52132E-02  6.20663E-02  5.90436E-02  5.38463E-02  4.79907E-02  4.67307E-02  4.74034E-02  4.42433E-02
   3.91592E-02  3.61863E-02  3.28365E-02  2.53364E-02  1.62212E-02  7.96929E-03  4.15486E-04 -7.40934E-03 -1.79736E-02 -3.23097E-02
  -5.08124E-02 -7.20361E-02 -8.76103E-02 -1.02920E-01 -1.20805E-01 -1.36305E-01 -1.46866E-01 -1.56865E-01 -1.67986E-01 -1.79420E-01
  -1.81745E-01 -1.76218E-01 -1.74890E-01 -1.75712E-01 -1.69207E-01 -1.59504E-01 -1.51573E-01 -1.43823E-01 -1.37022E-01 -1.32821E-01
  -1.28621E-01 -1.19072E-01 -1.08823E-01 -1.01384E-01 -9.01585E-02 -7.77265E-02 -6.80168E-02 -5.82920E-02 -4.73474E-02 -3.87841E-02
  -3.31698E-02 -2.20103E-02 -1.08023E-02 -5.81264E-03 -2.64051E-03  3.23464E-03  1.33599E-02  2.16198E-02  1.98753E-02  2.24493E-02
   3.02716E-02  3.18882E-02  3.46413E-02  3.79647E-02  3.71891E-02  3.87960E-02  4.26570E-02  4.31517E-02  4.06595E-02  4.22705E-02
   4.72620E-02  4.79675E-02  4.95365E-02  5.50367E-02  5.66373E-02  5.39394E-02  5.44305E-02  5.60183E-02  5.32731E-02  5.35700E-02
   5.62110E-02  5.32930E-02  5.24610E-02  5.56121E-02  5.46257E-02  5.33944E-02  5.43051E-02  5.71363E-02  6.12861E-02  5.61812E-02
   4.60416E-02  4.73757E-02  5.34088E-02  5.25984E-02  5.01318E-02  5.19216E-02  5.52060E-02  5.15974E-02  4.64585E-02  4.71375E-02
   5.06392E-02  5.29864E-02  5.34622E-02  5.36379E-02  5.39860E-02  5.58978E-02  5.81702E-02  5.75917E-02  5.65662E-02  5.93798E-02
   6.10704E-02  5.85999E-02  5.38182E-02  5.47666E-02  5.63379E-02  5.69499E-02  5.90354E-02  6.15445E-02  6.28239E-02  6.20927E-02
   5.93785E-02  6.26421E-02  6.81039E-02  7.01721E-02  7.14304E-02  6.78763E-02  6.25773E-02  6.20108E-02  6.49962E-02  6.85318E-02
   6.77040E-02  6.47137E-02  6.40023E-02  6.33702E-02  6.51050E-02  6.83246E-02  6.44995E-02  6.07902E-02  6.68351E-02  7.06286E-02
   6.73366E-02  6.67520E-02  6.82837E-02  6.87694E-02  7.01836E-02  6.89222E-02  6.98298E-02  7.66723E-02  8.20844E-02  8.24620E-02
   8.34909E-02  8.47852E-02  8.38291E-02  8.34396E-02
 NY background values follow
     2.707E-02    2.707E-02    2.707E-02    2.707E-02    2.707E-02    2.708E-02    2.708E-02    2.708E-02    2.708E-02    2.708E-02
     2.708E-02    2.708E-02    2.709E-02    2.709E-02    2.709E-02    2.709E-02    2.709E-02    2.709E-02    2.709E-02    2.709E-02
     2.709E-02    2.710E-02    2.710E-02    2.710E-02    2.710E-02    2.710E-02    2.710E-02    2.710E-02    2.710E-02    2.710E-02
     2.711E-02    2.711E-02    2.711E-02    2.711E-02    2.711E-02    2.711E-02    2.711E-02    2.711E-02    2.711E-02    2.711E-02
     2.711E-02    2.711E-02    2.712E-02    2.712E-02    2.712E-02    2.712E-02    2.712E-02    2.712E-02    2.712E-02    2.712E-02
     2.712E-02    2.712E-02    2.712E-02    2.712E-02    2.712E-02    2.712E-02    2.712E-02    2.712E-02    2.712E-02    2.712E-02
     2.712E-02    2.712E-02    2.712E-02    2.712E-02    2.712E-02    2.712E-02    2.712E-02    2.712E-02    2.712E-02    2.712E-02
