 
 $NMID
 ID=''
 FMTDAT='(2E13.5)'
 TRAMP=   1.00000E+0
 VOLUME=   1.00000E+0
 $END
   5.14504E+2  -3.41425E+2
  -5.64651E+2   1.57955E+3
   1.74747E+3  -3.04249E+3
   1.05345E+2   4.59863E+2
  -1.04776E+3  -7.79968E+2
  -7.17298E+2  -9.06833E+1
   1.26069E+2   2.55477E+3
  -2.91665E+3   4.04102E+2
  -6.95820E+2  -1.14683E+3
  -1.52144E+3   6.19617E+2
   5.07540E+2   1.06193E+3
   2.01895E+3   2.25730E+3
   2.41058E+3   4.97364E+3
  -2.50542E+3   4.98967E+3
  -3.53366E+2   3.04407E+2
   1.24807E+3   6.02019E+2
   3.10113E+3   8.71314E+2
   3.87755E+3  -1.12374E+2
   6.98397E+2   1.80992E+2
   6.71398E+2  -3.17062E+3
   3.77290E+3  -3.13505E+3
  -2.64149E+2   4.95716E+3
  -6.12853E+3   1.82452E+3
  -8.90028E+2  -5.60142E+3
   2.10229E+3  -1.36195E+3
  -9.52827E+2   4.17509E+3
  -3.37675E+3  -1.18453E+3
  -1.00286E+3  -4.32553E+3
   1.00884E+3  -5.90538E+3
   4.85080E+3  -1.11313E+3
   5.05500E+2   5.53000E+3
  -4.38236E+3   1.14153E+3
  -4.19749E+3  -1.90364E+3
   2.44847E+3  -9.34709E+2
  -1.45295E+3   2.60441E+2
  -7.76569E+2  -5.63747E+3
   3.56341E+3  -3.54437E+3
  -4.95425E+2   4.29546E+3
  -1.28475E+3   1.57120E+3
  -2.51338E+3   9.91075E+0
  -1.30403E+3   1.03100E+3
  -1.69233E+3  -3.78915E+3
   4.95152E+3  -3.63723E+3
   7.57070E+3   1.51662E+3
   1.23510E+3   5.96713E+3
  -9.61180E+1   3.14280E+3
   1.60945E+3   1.02718E+3
  -1.04155E+3   8.78588E+2
  -4.18361E+3   6.23827E+2
  -2.07474E+3   8.00126E+1
   1.63337E+3   2.75794E+2
   1.96263E+3   1.83557E+3
  -3.00392E+3   2.67362E+3
  -2.44563E+3   5.05025E+2
  -5.61940E+3   2.72070E+2
  -3.37029E+3  -1.65576E+3
  -4.33460E+3  -4.85876E+3
   9.33299E+2  -5.30902E+3
   3.78795E+3  -3.04988E+2
   2.64610E+3   1.65921E+3
  -6.24484E+2   2.75025E+3
  -3.54991E+3   2.61052E+3
  -2.91460E+3  -2.53191E+2
   1.47176E+3  -2.73248E+3
   1.45484E+3   2.50075E+3
  -3.57175E+3   1.09038E+3
  -1.97294E+3  -2.01097E+3
   2.83641E+3  -1.40884E+3
   9.83445E+2   1.24137E+3
  -3.22864E+2  -1.43115E+3
   1.02705E+3  -1.05561E+3
  -1.30253E+2   3.98543E+2
   1.59816E+3  -8.12596E+2
   8.18636E+2   1.17264E+3
   1.06354E+3   1.34667E+3
  -1.46273E+3   1.46861E+3
  -2.46004E+3   5.56210E+2
   1.99178E+3   1.00849E+3
  -1.47128E+3  -1.27172E+1
  -8.09405E+2  -2.53610E+3
  -6.43457E+1  -7.27504E+2
   3.57771E+2   1.26342E+3
  -8.23725E+2  -3.16517E+3
   1.03634E+3  -3.96851E+2
   2.46347E+3   1.50386E+3
   2.96841E+3   3.28662E+3
   1.05237E+3   4.00061E+3
  -1.60845E+3   1.57443E+3
  -6.91591E+2   8.78987E+2
  -8.22761E+2   1.10054E+2
  -1.11267E+3   1.85220E+3
   9.93198E+2   1.05268E+3
   5.09363E+1  -1.41218E+3
   1.23119E+3   1.38297E+3
   1.25592E+3   3.68157E+3
  -1.13110E+3   1.62381E+3
  -1.17006E+3  -3.67193E+2
   3.74155E+3  -1.96812E+3
   3.96260E+3   1.19787E+3
   4.39782E+1   2.98426E+3
  -8.19978E+2   2.29703E+3
  -8.21707E+2   5.32948E+2
   9.48717E+2  -2.12786E+3
   2.22059E+3   1.61911E+3
  -1.31755E+3  -1.16440E+3
   8.82577E+1   1.67076E+3
  -8.63862E+2  -1.64159E+3
   7.74052E+2   2.33486E+3
  -8.02995E+2   2.39702E+3
  -4.34608E+3  -4.38426E+2
  -1.19597E+3  -3.55189E+3
   3.69056E+2   6.14254E+2
   6.90887E+2   2.03496E+3
   2.67665E+3  -7.52455E+2
   1.83827E+3  -1.48392E+3
   1.15739E+3   1.74319E+2
   2.05744E+2  -7.59813E+2
   2.94195E+3  -1.70838E+3
  -1.26326E+3  -5.52741E+2
  -3.36662E+2   2.48103E+2
  -9.17993E+0  -2.23908E+3
   3.31910E+3   5.99982E+2
  -3.20113E+2  -6.61568E+2
  -1.33302E+3  -4.44110E+2
  -1.76656E+3  -1.99897E+3
   4.90665E+2   3.99624E+2
   2.00774E+3  -1.43214E+3
  -1.26931E+3  -1.24649E+3
   1.07752E+3   1.37416E+2
  -4.22082E+2   1.59620E+2
  -1.16788E+3   4.72758E+2
  -5.16969E+2  -2.31008E+3
   2.44464E+3  -2.41268E+3
   1.26764E+3  -3.30640E+1
  -6.93380E+1   1.12905E+3
   5.40596E+1   5.65928E+2
  -2.06811E+2  -6.43953E+2
   1.67884E+3  -2.39692E+3
   9.11883E+2  -7.07030E+2
   1.84367E+3  -6.66192E+2
   9.03889E+2  -1.66221E+2
   2.83103E+3  -1.74063E+3
   1.80795E+2  -9.39922E+1
   5.82570E+2  -5.66020E+2
   8.91551E+2  -1.55558E+3
   3.21871E+3   9.29562E+2
   3.32827E+2  -4.66789E+2
  -3.28968E+2   1.58510E+2
   2.58870E+3  -1.44003E+3
   1.91719E+3  -7.63285E+2
  -1.59284E+3   1.43017E+3
  -2.34151E+3   1.06240E+3
  -3.94140E+2  -1.39614E+3
   1.38248E+3  -1.52380E+3
   9.98579E+2  -1.49114E+3
   3.42183E+2   7.48553E+2
   1.55620E+3  -5.64810E+2
  -9.69061E+2   1.38727E+3
  -1.41448E+3  -2.98119E+3
  -1.40201E+3  -1.08498E+3
  -7.19023E+2  -1.07780E+3
   3.65331E+2   8.45801E+2
  -7.95690E+2  -1.83408E+2
   3.67233E+1   1.18535E+3
  -2.81719E+2   9.62628E+2
  -1.00330E+3   1.51842E+3
  -7.36022E+2   1.41742E+2
   6.30966E+2   2.84681E+2
   1.26950E+3   1.44648E+3
   7.59688E+2   1.39696E+2
   5.64349E+2  -8.41429E+2
  -1.57105E+3  -1.44673E+3
   1.51428E+2  -6.41311E+0
   7.05572E+2  -9.34328E+2
  -2.06520E+3  -1.22629E+3
   2.17806E+3  -5.24532E+2
   1.22844E+2  -7.65882E+1
   2.81658E+3   1.42250E+3
   3.38908E+2  -1.18034E+3
   2.89221E+1  -3.04638E+2
   1.48604E+3  -1.06397E+3
   1.18356E+3  -3.72504E+2
  -1.17561E+3   2.34683E+2
   1.11608E+3   1.68982E+2
  -2.81862E+2  -1.84104E+2
  -3.15383E+2  -2.97362E+2
  -9.43041E+2  -1.36793E+3
  -8.65335E+2  -2.36289E+3
   4.35782E+2  -5.46961E+2
   4.52662E+2  -1.12724E+3
   1.08739E+3  -2.55418E+2
   2.35554E+3   1.46060E+3
  -3.31317E+2  -1.27192E+3
   9.40796E+2   6.52020E+2
  -2.38771E+3   9.74244E+2
  -1.14520E+3   8.44980E+2
  -1.76732E+3   9.28991E+2
   4.44053E+2   6.70388E+2
   6.95095E+2  -1.36624E+3
   2.27719E+3   9.25734E+2
  -5.53607E+2  -8.54794E+2
  -4.25837E+2  -1.94027E+3
   1.55412E+2   6.83875E+2
  -9.58194E+2   6.67302E+2
   2.07738E+3  -1.41110E+2
   2.08551E+2   9.63871E+2
  -7.49630E+2   2.61655E+2
  -1.77613E+3   6.46353E+2
  -5.83304E+2   1.08194E+3
  -1.48082E+3  -1.02896E+3
  -4.50734E+2  -7.68531E+2
  -7.96743E+2  -1.61896E+2
   1.62066E+3  -2.27510E+3
   7.95348E+2  -2.49097E+3
   4.04108E+2   1.03437E+3
  -1.45869E+3  -8.23575E+2
  -1.65715E+3  -1.37679E+2
   2.49882E+2   7.56188E+2
  -5.70340E+2  -1.78461E+2
   1.45812E+3   3.11281E+1
   9.61636E+2  -3.45741E+2
  -1.70595E+2  -7.27579E+1
   9.62052E+2  -1.54136E+2
  -3.38364E+2  -7.83960E+1
   5.08710E+2  -5.52831E+2
  -1.03127E+3  -1.37224E+3
  -5.32636E+2   1.41062E+3
  -4.27828E+2  -8.01111E+2
  -1.34142E+3  -1.75595E+1
   9.25194E+2   1.58958E+2
   2.19142E+3  -1.89238E+2
   2.57063E+2   6.94152E+2
   3.96651E+2   1.12572E+3
  -1.40123E+2  -1.00893E+3
  -7.98547E+2   1.15803E+3
   1.47414E+2   1.18338E+3
  -6.35938E+2  -3.14032E+2
   5.87004E+2  -3.83457E+2
   1.08153E+3   3.04293E+2
  -1.28960E+2  -1.36002E+3
  -9.40641E+2   8.66632E+2
   3.57403E+2  -1.89884E+2
   8.03514E+1   8.00626E+2
  -7.71194E+2   6.88489E+2
   3.30620E+2  -8.65736E+2
  -1.36874E+3   1.22428E+3
  -8.15868E+2   5.26693E+2
   5.70908E+2  -7.91748E+2
   7.15069E+2  -7.06951E+2
  -1.18922E+3  -6.52341E+2
  -1.88243E+3  -4.11487E+2
  -1.33923E+3   1.00686E+3
   4.87558E+2   3.70456E+0
   8.08678E+0   2.94074E+2
  -3.32440E+2  -4.59984E+2
  -6.83120E+1  -4.98366E+2
  -1.96148E+3  -8.12633E+2
   4.13994E+2   1.32167E+3
  -1.35425E+3  -5.56145E+2
   5.00716E+2  -2.27252E+1
  -1.17263E+2  -1.14428E+3
   1.39368E+3   4.94638E-1
   3.60433E+2  -1.42059E+3
  -3.34371E+2  -4.66724E+2
   1.94503E+3   2.58336E+2
   6.02346E+2   2.68615E+2
   1.10557E+2  -1.12303E+3
   1.69593E+3   1.19488E+3
   2.60212E+2  -9.58569E+1
  -4.52594E+2   2.51663E+2
  -2.38708E+1  -3.29330E+2
  -8.12073E+2   5.03627E+2
  -4.62682E+2  -6.25684E+2
  -6.27711E+2   2.09116E+2
   2.78835E+1   3.13091E+2
   5.69331E+2  -1.80713E+3
   1.19534E+3  -8.37604E+2
   8.74926E+2  -1.07492E+3
   2.05335E+2  -5.39476E+1
  -7.70883E+2  -5.25578E+1
  -1.31704E+3  -3.46964E+2
   4.02921E+2  -8.93356E+2
  -1.97785E+2  -7.39747E+2
  -2.08018E+3   8.61543E+2
   2.04107E+3  -2.07676E+2
  -9.65032E+2   1.53388E+3
   1.25551E+3   1.84979E+2
   3.84013E+1   2.32437E+2
   1.07298E+3  -1.79050E+3
  -1.95806E+3   3.35557E+2
   4.06815E+2  -4.42482E+2
   7.51542E+2   2.00294E+2
   4.02516E+2   2.58880E+2
  -6.36283E+2  -1.10872E+3
  -1.70536E+3   2.36779E+3
   2.97130E+1  -8.80089E+2
  -9.04171E+2   1.20275E+3
   3.78840E+2   2.33944E+3
  -5.65888E+2   1.64628E+3
   1.77098E+1  -3.47414E+2
   4.04151E+2  -3.60700E+2
  -6.77666E+2   8.54147E+2
  -2.28917E+3   1.06637E+3
  -2.11841E+2  -1.57512E+3
  -2.89383E+2  -1.96306E+3
   6.00697E+2   1.22740E+3
   6.17877E+2  -8.24789E+1
  -2.61826E+2  -1.40282E+3
  -1.20191E+2   1.43127E+3
  -1.77262E+3  -1.92536E+3
   7.52427E+2  -6.85986E+2
   9.65471E+2  -1.28037E+2
   1.39465E+3   1.71171E+3
   8.00901E+2   1.87115E+3
   8.92773E+2  -1.08167E+3
   3.01829E+1  -7.92122E+2
  -1.46017E+3   6.89333E+2
  -3.15292E+3   1.16219E+2
   3.82669E+2   9.85933E+2
   1.25604E+2   7.09982E+2
   2.16498E+2   8.59365E+2
  -7.96626E+2  -5.24637E+2
   1.02965E+3   2.82230E+2
   1.42987E+3  -7.12303E+2
   5.64951E+2  -1.16069E+3
   9.05136E+2   8.26648E+2
   1.52168E+3   2.78302E+2
  -1.36210E+2   1.11456E+3
   8.94200E+1   2.48228E+2
  -7.99613E+2  -1.53993E+3
   5.36158E+2  -1.23193E+3
   5.28297E+2  -7.47923E+2
  -2.02194E+2   7.08216E+2
  -5.41921E+2   8.59263E+1
   1.72454E+3  -1.51989E+3
  -1.08433E+3  -1.99055E+2
  -1.06873E+3   9.56071E+2
   7.84571E+2  -3.83988E+2
   6.10962E+0   4.31724E+2
   1.26554E+3   3.84920E+2
  -6.11882E+2  -2.47011E+1
  -8.06525E+2  -5.00733E+2
   3.91801E+2  -2.05487E+2
   4.14722E+1   4.26629E+2
  -1.27010E+3  -6.56280E+2
  -1.12890E+3   6.46480E+2
   2.07796E+3  -1.73569E+3
  -1.76008E+3   1.69920E+3
   4.70742E+2   7.31693E+2
  -4.20926E+2   3.29528E+2
   3.41085E+2   1.45202E+3
   6.26963E+1  -3.41844E+2
   5.30761E+2   1.44005E+3
   3.39937E+1  -2.78765E+2
   7.37471E+1  -2.79464E+2
  -1.04302E+3   7.53703E+2
   1.41008E+3   1.54971E+3
  -2.37703E+3  -7.93485E+2
  -7.24444E+2  -4.96462E+2
  -3.13649E+2  -9.19446E+2
   1.46827E+2  -1.38793E+3
  -3.10023E+2  -1.00202E+3
   2.41424E+2  -4.66116E+2
  -1.14866E+3  -4.01322E+2
  -6.35093E+2   3.87321E+2
   2.45061E+3   5.93525E+2
  -2.54574E+2   7.09523E+2
