 
 $NMID
 ID=''
 FMTDAT='(2E13.5)'
 TRAMP=   1.00000E+0
 VOLUME=   1.00000E+0
 $END
  -1.60959E+4   1.23692E+4
  -4.88269E+4   1.89647E+4
  -4.44915E+4   2.72922E+4
  -4.08329E+4   2.53702E+4
  -4.30709E+4   2.52504E+4
  -4.17953E+4   2.73346E+4
  -4.03211E+4   2.60164E+4
  -4.12062E+4   2.56223E+4
  -4.03571E+4   2.68653E+4
  -3.92630E+4   2.60794E+4
  -3.97142E+4   2.57733E+4
  -3.89783E+4   2.66338E+4
  -3.81230E+4   2.63049E+4
  -3.85945E+4   2.59551E+4
  -3.79252E+4   2.64773E+4
  -3.71768E+4   2.61466E+4
  -3.73183E+4   2.60471E+4
  -3.68136E+4   2.63352E+4
  -3.61639E+4   2.61733E+4
  -3.62792E+4   2.59640E+4
  -3.57279E+4   2.60887E+4
  -3.50086E+4   2.60576E+4
  -3.50731E+4   2.59511E+4
  -3.47056E+4   2.60858E+4
  -3.39825E+4   2.58319E+4
  -3.37996E+4   2.57973E+4
  -3.35138E+4   2.58849E+4
  -3.30960E+4   2.55897E+4
  -3.28207E+4   2.53372E+4
  -3.25221E+4   2.54540E+4
  -3.19433E+4   2.53578E+4
  -3.17761E+4   2.53363E+4
  -3.14932E+4   2.52890E+4
  -3.10419E+4   2.51125E+4
  -3.07000E+4   2.50462E+4
  -3.04041E+4   2.52185E+4
  -2.99030E+4   2.51248E+4
  -2.95764E+4   2.51470E+4
  -2.92519E+4   2.51897E+4
  -2.88979E+4   2.52530E+4
  -2.85729E+4   2.52264E+4
  -2.84474E+4   2.52509E+4
  -2.81731E+4   2.50374E+4
  -2.77782E+4   2.50477E+4
  -2.75039E+4   2.50585E+4
  -2.72197E+4   2.50424E+4
  -2.70035E+4   2.49174E+4
  -2.67587E+4   2.49001E+4
  -2.64467E+4   2.49093E+4
  -2.62518E+4   2.48052E+4
  -2.59719E+4   2.46709E+4
  -2.56768E+4   2.45911E+4
  -2.53473E+4   2.45811E+4
  -2.50379E+4   2.45857E+4
  -2.48136E+4   2.44463E+4
  -2.46248E+4   2.44493E+4
  -2.43603E+4   2.43796E+4
  -2.41114E+4   2.42682E+4
  -2.38418E+4   2.41501E+4
  -2.34905E+4   2.40285E+4
  -2.32301E+4   2.39392E+4
  -2.29948E+4   2.39003E+4
  -2.27773E+4   2.38288E+4
  -2.25805E+4   2.37889E+4
  -2.23659E+4   2.36920E+4
  -2.20950E+4   2.36353E+4
  -2.18175E+4   2.36003E+4
  -2.17460E+4   2.35520E+4
  -2.14430E+4   2.34168E+4
  -2.12671E+4   2.33287E+4
  -2.10791E+4   2.33219E+4
  -2.08551E+4   2.31745E+4
  -2.06728E+4   2.30384E+4
  -2.04164E+4   2.29227E+4
  -2.02142E+4   2.29787E+4
  -1.99728E+4   2.28547E+4
  -1.98218E+4   2.27525E+4
  -1.95550E+4   2.26637E+4
  -1.92229E+4   2.26000E+4
  -1.90868E+4   2.25147E+4
  -1.88919E+4   2.24227E+4
  -1.87030E+4   2.22758E+4
  -1.84019E+4   2.21721E+4
  -1.81829E+4   2.21592E+4
  -1.80893E+4   2.19841E+4
  -1.78920E+4   2.19125E+4
  -1.77441E+4   2.17733E+4
  -1.74838E+4   2.16296E+4
  -1.72629E+4   2.16133E+4
  -1.69706E+4   2.15134E+4
  -1.68367E+4   2.13684E+4
  -1.65396E+4   2.13241E+4
  -1.63780E+4   2.12833E+4
  -1.61676E+4   2.12049E+4
  -1.59924E+4   2.10281E+4
  -1.57345E+4   2.09684E+4
  -1.54897E+4   2.07969E+4
  -1.52782E+4   2.08261E+4
  -1.51160E+4   2.07358E+4
  -1.49848E+4   2.06087E+4
  -1.46900E+4   2.03679E+4
  -1.44530E+4   2.03721E+4
  -1.42712E+4   2.02779E+4
  -1.40958E+4   2.02528E+4
  -1.38694E+4   2.01620E+4
  -1.36454E+4   2.00322E+4
  -1.34551E+4   1.99161E+4
  -1.33351E+4   1.98294E+4
  -1.30705E+4   1.97478E+4
  -1.29213E+4   1.96682E+4
  -1.26256E+4   1.96115E+4
  -1.24311E+4   1.96250E+4
  -1.21884E+4   1.95679E+4
  -1.20780E+4   1.95077E+4
  -1.18764E+4   1.94139E+4
  -1.17379E+4   1.93759E+4
  -1.15568E+4   1.92578E+4
  -1.13366E+4   1.92467E+4
  -1.11583E+4   1.91432E+4
  -1.09748E+4   1.90819E+4
  -1.08216E+4   1.89840E+4
  -1.06881E+4   1.88940E+4
  -1.04967E+4   1.88586E+4
  -1.02716E+4   1.87882E+4
  -1.01922E+4   1.87179E+4
  -9.92585E+3   1.86161E+4
  -9.83350E+3   1.86011E+4
  -9.65871E+3   1.84618E+4
  -9.44059E+3   1.84137E+4
  -9.24971E+3   1.83882E+4
  -9.11963E+3   1.83438E+4
  -8.94402E+3   1.82678E+4
  -8.80593E+3   1.81725E+4
  -8.62561E+3   1.81460E+4
  -8.50550E+3   1.80427E+4
  -8.36790E+3   1.80326E+4
  -8.19982E+3   1.79028E+4
  -8.13813E+3   1.79248E+4
  -7.88860E+3   1.77921E+4
  -7.76410E+3   1.76507E+4
  -7.57453E+3   1.76157E+4
  -7.51072E+3   1.75282E+4
  -7.33296E+3   1.74548E+4
  -7.16155E+3   1.73825E+4
  -7.01005E+3   1.73291E+4
  -6.84359E+3   1.72402E+4
  -6.66922E+3   1.71108E+4
  -6.61799E+3   1.70823E+4
  -6.46926E+3   1.70145E+4
  -6.24029E+3   1.69104E+4
  -6.23460E+3   1.69310E+4
  -6.07213E+3   1.68106E+4
  -5.92905E+3   1.67816E+4
  -5.78884E+3   1.66321E+4
  -5.65229E+3   1.66734E+4
  -5.49748E+3   1.65393E+4
  -5.43316E+3   1.65250E+4
  -5.30864E+3   1.63880E+4
  -5.17854E+3   1.63060E+4
  -5.04353E+3   1.62745E+4
  -4.91075E+3   1.61672E+4
  -4.81819E+3   1.61567E+4
  -4.74311E+3   1.61209E+4
  -4.57895E+3   1.60288E+4
  -4.46014E+3   1.59127E+4
  -4.42365E+3   1.58343E+4
  -4.27944E+3   1.58528E+4
  -4.21988E+3   1.56736E+4
  -4.01594E+3   1.57005E+4
  -3.98174E+3   1.55457E+4
  -3.87740E+3   1.55220E+4
  -3.80853E+3   1.54121E+4
  -3.68381E+3   1.53535E+4
  -3.59946E+3   1.53207E+4
  -3.46656E+3   1.52066E+4
  -3.36629E+3   1.51266E+4
  -3.26624E+3   1.50676E+4
  -3.18175E+3   1.50182E+4
  -3.07761E+3   1.49536E+4
  -3.06078E+3   1.48598E+4
  -2.90367E+3   1.47422E+4
  -2.81592E+3   1.46503E+4
  -2.72651E+3   1.45718E+4
  -2.62398E+3   1.45292E+4
  -2.58333E+3   1.44597E+4
  -2.44746E+3   1.44147E+4
  -2.43610E+3   1.42701E+4
  -2.34274E+3   1.42493E+4
  -2.26965E+3   1.41779E+4
  -2.17327E+3   1.40844E+4
  -2.11671E+3   1.39859E+4
  -2.02925E+3   1.39368E+4
  -1.96488E+3   1.38767E+4
  -1.88199E+3   1.37465E+4
  -1.75131E+3   1.37191E+4
  -1.74881E+3   1.35866E+4
  -1.58839E+3   1.35053E+4
  -1.56175E+3   1.34050E+4
  -1.47035E+3   1.33430E+4
  -1.42576E+3   1.32389E+4
  -1.33139E+3   1.31991E+4
  -1.33285E+3   1.31041E+4
  -1.21812E+3   1.30259E+4
  -1.17369E+3   1.29401E+4
  -1.07123E+3   1.28577E+4
  -1.02655E+3   1.27391E+4
  -9.35484E+2   1.26428E+4
  -9.52454E+2   1.25599E+4
  -8.35516E+2   1.24879E+4
  -7.36355E+2   1.24796E+4
  -7.20815E+2   1.23430E+4
  -6.40775E+2   1.22261E+4
  -6.42344E+2   1.21850E+4
  -4.62359E+2   1.21017E+4
  -4.57741E+2   1.20774E+4
  -4.29321E+2   1.19106E+4
  -3.13788E+2   1.18503E+4
  -3.26332E+2   1.17492E+4
  -3.02155E+2   1.16543E+4
  -1.52987E+2   1.16089E+4
  -1.67764E+2   1.15114E+4
  -7.70572E+1   1.14225E+4
  -1.72546E+1   1.13310E+4
   7.64711E+1   1.12598E+4
   1.08365E+2   1.12267E+4
   1.42686E+2   1.11481E+4
   1.23857E+2   1.10770E+4
   2.95543E+2   1.09796E+4
   2.72862E+2   1.09863E+4
   2.72429E+2   1.08553E+4
   2.61702E+2   1.07519E+4
   3.24302E+2   1.06329E+4
   4.36135E+2   1.06108E+4
   3.97186E+2   1.04978E+4
   5.07792E+2   1.04122E+4
   5.71756E+2   1.03323E+4
   6.07886E+2   1.02961E+4
   5.79052E+2   1.02211E+4
   6.89914E+2   1.01519E+4
   7.35129E+2   1.00501E+4
   7.20174E+2   9.93381E+3
   7.70075E+2   9.87599E+3
   8.47372E+2   9.81241E+3
   8.74153E+2   9.72750E+3
   8.89402E+2   9.65700E+3
   9.39212E+2   9.50929E+3
   9.39126E+2   9.48782E+3
   9.98572E+2   9.46984E+3
   1.04568E+3   9.27357E+3
   1.10218E+3   9.22241E+3
   1.12119E+3   9.18687E+3
   1.15263E+3   9.17513E+3
   1.09494E+3   9.07818E+3
   1.17186E+3   8.98392E+3
   1.24602E+3   8.83307E+3
   1.23351E+3   8.78050E+3
   1.24540E+3   8.73737E+3
   1.34116E+3   8.66490E+3
   1.37945E+3   8.61130E+3
   1.40363E+3   8.50424E+3
   1.41503E+3   8.45832E+3
   1.48533E+3   8.39313E+3
   1.46763E+3   8.21505E+3
   1.52947E+3   8.20038E+3
   1.58321E+3   8.12759E+3
   1.60701E+3   8.07099E+3
   1.53526E+3   7.99191E+3
   1.64883E+3   7.89976E+3
   1.64071E+3   7.87091E+3
   1.63018E+3   7.80890E+3
   1.65964E+3   7.68712E+3
   1.71893E+3   7.59903E+3
   1.71291E+3   7.53974E+3
   1.73054E+3   7.49706E+3
   1.70509E+3   7.48764E+3
   1.75093E+3   7.37016E+3
   1.81320E+3   7.26614E+3
   1.76456E+3   7.21649E+3
   1.84716E+3   7.16094E+3
   1.85419E+3   7.08628E+3
   1.86148E+3   7.02387E+3
   1.83867E+3   6.95072E+3
   1.87170E+3   6.87689E+3
   1.87007E+3   6.74219E+3
   1.84649E+3   6.74680E+3
   1.89654E+3   6.70628E+3
   1.90957E+3   6.68899E+3
   1.89251E+3   6.53418E+3
   1.91061E+3   6.49098E+3
   1.92330E+3   6.39629E+3
   1.96506E+3   6.35745E+3
   1.92448E+3   6.35860E+3
   1.94398E+3   6.29944E+3
   2.01685E+3   6.21620E+3
   1.99014E+3   6.13878E+3
   2.02942E+3   6.07201E+3
   1.97981E+3   5.96854E+3
   2.00716E+3   5.89496E+3
   2.00728E+3   5.85636E+3
   2.05515E+3   5.83834E+3
   1.99985E+3   5.72428E+3
   2.03670E+3   5.77711E+3
   2.00335E+3   5.64405E+3
   2.06147E+3   5.66127E+3
   2.01868E+3   5.58823E+3
   2.05074E+3   5.57801E+3
   1.98070E+3   5.41352E+3
   2.02534E+3   5.38034E+3
   2.11572E+3   5.37046E+3
   2.08042E+3   5.31339E+3
   2.13683E+3   5.26235E+3
   2.10315E+3   5.17765E+3
   2.05166E+3   5.14694E+3
   2.09043E+3   5.00102E+3
   2.09720E+3   5.02695E+3
   2.02573E+3   5.03834E+3
   2.10215E+3   4.94971E+3
   2.14680E+3   4.90297E+3
   2.12811E+3   4.88749E+3
   2.11957E+3   4.77323E+3
   2.09221E+3   4.73128E+3
   2.10747E+3   4.68328E+3
   2.04248E+3   4.63383E+3
   2.09709E+3   4.62862E+3
   2.05307E+3   4.51594E+3
   2.07493E+3   4.49408E+3
   2.12413E+3   4.44799E+3
   2.07952E+3   4.41994E+3
   2.08350E+3   4.34824E+3
   2.14150E+3   4.28175E+3
   2.09273E+3   4.23329E+3
   2.07328E+3   4.26051E+3
   2.15657E+3   4.23910E+3
   2.14389E+3   4.17327E+3
   2.16942E+3   4.01840E+3
   2.12539E+3   4.01303E+3
   2.12048E+3   3.99695E+3
   2.06708E+3   3.95135E+3
   2.11334E+3   3.91056E+3
   2.15125E+3   3.89056E+3
   2.08357E+3   3.85684E+3
   2.13004E+3   3.76794E+3
   2.08836E+3   3.71509E+3
   2.12607E+3   3.65057E+3
   2.15212E+3   3.66521E+3
   2.12586E+3   3.66531E+3
   2.10164E+3   3.58972E+3
   2.17192E+3   3.58643E+3
   2.10916E+3   3.52882E+3
   2.07368E+3   3.41317E+3
   2.10701E+3   3.36811E+3
   2.09971E+3   3.41142E+3
   2.09964E+3   3.30175E+3
   2.12339E+3   3.26986E+3
   2.06002E+3   3.21664E+3
   2.12976E+3   3.16516E+3
   2.07615E+3   3.15755E+3
   2.02527E+3   3.20591E+3
   1.98299E+3   3.09785E+3
   2.01203E+3   3.07279E+3
   2.08765E+3   3.02278E+3
   2.09816E+3   2.97500E+3
   2.05619E+3   2.95684E+3
   1.99018E+3   2.95990E+3
   2.02581E+3   2.94108E+3
   2.07335E+3   2.79942E+3
   2.06262E+3   2.83450E+3
