 LCModel (Version 6.3-1N) Copyright: S.W. Provencher.          Ref.: Magn. Reson. Med. 30:672-679 (1993).                
 Slice_N1@24_13  02-Jun-2023 14:37:48
 27 lines in following concentration table = NCONC+1
    Conc.  %SD /Cr+PCr  Metabolite                                         
 2.18E-06  14% 3.2E-04 Mac                                                 
 5.41E-02  12%   8.000 Cr                                                  
    0.000 999%   0.000 PCr                                                 
 7.34E-02  13%  10.853 Ins                                                 
 8.23E-02   9%  12.169 NAA                                                 
 6.35E-02  15%   9.385 Tau                                                 
 1.79E-02  14%   2.647 PCho                                                
    0.000 999%   0.000 GPC                                                 
 5.73E-02  17%   8.475 Glu                                                 
 2.35E-02  30%   3.479 Gln                                                 
    0.000 999%   0.000 Ala                                                 
 1.49E-02  90%   2.196 Asc                                                 
 5.94E-04 999% 8.8E-02 Asp                                                 
 5.43E-03  76%   0.803 GABA                                                
 5.62E-03  87%   0.830 Glc                                                 
 7.20E-03  57%   1.064 GSH                                                 
    0.000 999%   0.000 Lac                                                 
    0.000 999%   0.000 NAAG                                                
    0.000 999%   0.000 PE                                                  
 1.79E-02  14%   2.647 GPC+PCho                                            
 8.23E-02   9%  12.169 NAA+NAAG                                            
 8.09E-02  15%  11.955 Glu+Gln                                             
 5.41E-02  12%   8.000 Cr+PCr                                              
 8.23E-02   9%  12.169 NAA+NAAG                                            
 5.41E-02  12%   8.000 Cr+PCr                                              
 8.09E-02  15%  11.955 Glu+Gln                                             
   6 lines in following misc. output table
  FWHM = 0.058 ppm    S/N =   3                                            
  Data shift = 0.047 ppm                                                   
  Ph: -21 deg      -8.2 deg/ppm                                            
  alphaB,S = 7.8E+00,   1.5E+01                                            
   18 spline knots.   Ns =10(1)                                            
  ( 6) 4 infls.   ( 1) 1 extrs.                                            
  654 points on ppm-axis = NY
      4.000000     3.994181     3.988363     3.982544     3.976726     3.970907     3.965088     3.959270     3.953451     3.947633
      3.941814     3.935995     3.930177     3.924358     3.918540     3.912721     3.906902     3.901084     3.895265     3.889446
      3.883628     3.877809     3.871991     3.866172     3.860353     3.854535     3.848716     3.842898     3.837079     3.831260
      3.825442     3.819623     3.813805     3.807986     3.802167     3.796349     3.790530     3.784712     3.778893     3.773074
      3.767256     3.761437     3.755619     3.749800     3.743981     3.738163     3.732344     3.726526     3.720707     3.714888
      3.709070     3.703251     3.697433     3.691614     3.685795     3.679977     3.674158     3.668339     3.662521     3.656702
      3.650884     3.645065     3.639246     3.633428     3.627609     3.621791     3.615972     3.610153     3.604335     3.598516
      3.592698     3.586879     3.581060     3.575242     3.569423     3.563605     3.557786     3.551967     3.546149     3.540330
      3.534512     3.528693     3.522874     3.517056     3.511237     3.505419     3.499600     3.493781     3.487963     3.482144
      3.476326     3.470507     3.464688     3.458870     3.453051     3.447232     3.441414     3.435595     3.429777     3.423958
      3.418139     3.412321     3.406502     3.400684     3.394865     3.389046     3.383228     3.377409     3.371591     3.365772
      3.359953     3.354135     3.348316     3.342498     3.336679     3.330860     3.325042     3.319223     3.313405     3.307586
      3.301767     3.295949     3.290130     3.284312     3.278493     3.272674     3.266856     3.261037     3.255219     3.249400
      3.243581     3.237763     3.231944     3.226125     3.220307     3.214488     3.208670     3.202851     3.197032     3.191214
      3.185395     3.179577     3.173758     3.167939     3.162121     3.156302     3.150484     3.144665     3.138846     3.133028
      3.127209     3.121391     3.115572     3.109753     3.103935     3.098116     3.092298     3.086479     3.080660     3.074842
      3.069023     3.063205     3.057386     3.051567     3.045749     3.039930     3.034111     3.028293     3.022474     3.016656
      3.010837     3.005018     2.999200     2.993381     2.987563     2.981744     2.975925     2.970107     2.964288     2.958470
      2.952651     2.946832     2.941014     2.935195     2.929377     2.923558     2.917739     2.911921     2.906102     2.900284
      2.894465     2.888646     2.882828     2.877009     2.871191     2.865372     2.859553     2.853735     2.847916     2.842098
      2.836279     2.830460     2.824642     2.818823     2.813004     2.807186     2.801367     2.795549     2.789730     2.783911
      2.778093     2.772274     2.766456     2.760637     2.754818     2.749000     2.743181     2.737363     2.731544     2.725725
      2.719907     2.714088     2.708270     2.702451     2.696632     2.690814     2.684995     2.679177     2.673358     2.667539
      2.661721     2.655902     2.650084     2.644265     2.638446     2.632628     2.626809     2.620991     2.615172     2.609353
      2.603535     2.597716     2.591897     2.586079     2.580260     2.574442     2.568623     2.562804     2.556986     2.551167
      2.545349     2.539530     2.533711     2.527893     2.522074     2.516256     2.510437     2.504618     2.498800     2.492981
      2.487163     2.481344     2.475525     2.469707     2.463888     2.458070     2.452251     2.446432     2.440614     2.434795
      2.428977     2.423158     2.417339     2.411521     2.405702     2.399884     2.394065     2.388246     2.382428     2.376609
      2.370790     2.364972     2.359153     2.353335     2.347516     2.341697     2.335879     2.330060     2.324242     2.318423
      2.312604     2.306786     2.300967     2.295149     2.289330     2.283511     2.277693     2.271874     2.266056     2.260237
      2.254418     2.248600     2.242781     2.236963     2.231144     2.225325     2.219507     2.213688     2.207870     2.202051
      2.196232     2.190414     2.184595     2.178777     2.172958     2.167139     2.161321     2.155502     2.149683     2.143865
      2.138046     2.132228     2.126409     2.120590     2.114772     2.108953     2.103135     2.097316     2.091497     2.085679
      2.079860     2.074042     2.068223     2.062404     2.056586     2.050767     2.044949     2.039130     2.033311     2.027493
      2.021674     2.015856     2.010037     2.004218     1.998400     1.992581     1.986763     1.980944     1.975126     1.969307
      1.963489     1.957670     1.951852     1.946033     1.940215     1.934397     1.928578     1.922760     1.916941     1.911123
      1.905304     1.899486     1.893667     1.887849     1.882030     1.876212     1.870393     1.864575     1.858756     1.852938
      1.847119     1.841301     1.835482     1.829664     1.823845     1.818027     1.812208     1.806390     1.800571     1.794753
      1.788934     1.783116     1.777297     1.771479     1.765660     1.759842     1.754023     1.748205     1.742386     1.736568
      1.730749     1.724931     1.719113     1.713294     1.707476     1.701657     1.695839     1.690020     1.684202     1.678383
      1.672565     1.666746     1.660928     1.655109     1.649291     1.643472     1.637654     1.631835     1.626017     1.620198
      1.614380     1.608561     1.602743     1.596924     1.591106     1.585287     1.579469     1.573650     1.567832     1.562013
      1.556195     1.550376     1.544558     1.538739     1.532921     1.527102     1.521284     1.515465     1.509647     1.503829
      1.498010     1.492192     1.486373     1.480555     1.474736     1.468918     1.463099     1.457281     1.451462     1.445644
      1.439825     1.434007     1.428188     1.422370     1.416551     1.410733     1.404914     1.399096     1.393277     1.387459
      1.381640     1.375822     1.370003     1.364185     1.358366     1.352548     1.346729     1.340911     1.335092     1.329274
      1.323455     1.317637     1.311818     1.306000     1.300182     1.294363     1.288545     1.282726     1.276908     1.271089
      1.265271     1.259452     1.253634     1.247815     1.241997     1.236178     1.230360     1.224541     1.218723     1.212904
      1.207086     1.201267     1.195449     1.189630     1.183812     1.177993     1.172175     1.166356     1.160538     1.154719
      1.148901     1.143082     1.137264     1.131445     1.125627     1.119808     1.113990     1.108171     1.102353     1.096534
      1.090716     1.084898     1.079079     1.073261     1.067442     1.061624     1.055805     1.049987     1.044168     1.038350
      1.032531     1.026713     1.020894     1.015076     1.009257     1.003439     0.997620     0.991802     0.985983     0.980165
      0.974346     0.968528     0.962709     0.956891     0.951072     0.945254     0.939435     0.933617     0.927798     0.921980
      0.916161     0.910343     0.904524     0.898706     0.892887     0.887069     0.881251     0.875432     0.869614     0.863795
      0.857977     0.852158     0.846340     0.840521     0.834703     0.828884     0.823066     0.817247     0.811429     0.805610
      0.799792     0.793973     0.788155     0.782336     0.776518     0.770699     0.764881     0.759062     0.753244     0.747425
      0.741607     0.735788     0.729970     0.724151     0.718333     0.712514     0.706696     0.700877     0.695059     0.689240
      0.683422     0.677603     0.671785     0.665967     0.660148     0.654330     0.648511     0.642693     0.636874     0.631056
      0.625237     0.619419     0.613600     0.607782     0.601963     0.596145     0.590326     0.584508     0.578689     0.572871
      0.567052     0.561234     0.555415     0.549597     0.543778     0.537960     0.532141     0.526323     0.520504     0.514686
      0.508867     0.503049     0.497230     0.491412     0.485593     0.479775     0.473956     0.468138     0.462319     0.456501
      0.450682     0.444864     0.439045     0.433227     0.427408     0.421590     0.415771     0.409953     0.404134     0.398316
      0.392497     0.386679     0.380860     0.375042     0.369223     0.363405     0.357586     0.351767     0.345949     0.340130
      0.334312     0.328493     0.322675     0.316856     0.311038     0.305219     0.299401     0.293582     0.287764     0.281945
      0.276127     0.270308     0.264490     0.258671     0.252853     0.247034     0.241216     0.235397     0.229579     0.223760
      0.217942     0.212123     0.206305     0.200486
 NY phased data points follow
  -2.61384E-01  1.39355E-02 -2.37257E-01  2.77848E-01  7.08518E-02 -2.21388E-01 -1.45021E-01 -2.76852E-01  4.46920E-02  7.00550E-02
   3.49761E-02 -9.62098E-02  2.98126E-02 -2.80815E-03 -1.38183E-01  2.76088E-02  1.21270E-01  2.23795E-01  2.24430E-01  1.54104E-01
   1.80775E-01  1.96175E-01  1.64435E-01  2.09785E-01  9.33855E-04  1.21222E-01  4.80725E-02 -3.48008E-02  2.38901E-01  3.81700E-03
   6.94264E-02 -5.72014E-02 -2.34913E-01 -2.06034E-01 -4.36636E-01 -1.29312E-01  8.02218E-02 -3.40102E-01 -3.19092E-01 -3.51073E-01
  -2.84044E-01  1.03689E-01 -7.79672E-02  2.47982E-01  2.69063E-01 -4.75256E-02  2.36561E-01  3.70042E-01  2.23411E-01  3.72616E-02
   4.46964E-02 -3.90114E-03  6.41806E-02 -2.58796E-03  2.86294E-02  2.29863E-02 -1.34530E-01 -8.29531E-02 -2.40926E-01 -3.33552E-01
  -2.79370E-01 -3.10573E-01 -1.41082E-01  8.39025E-02  1.05341E-01  7.33459E-02 -2.00897E-01 -3.27350E-02  1.96869E-01  1.19367E-01
   1.28392E-02  1.23401E-01  3.40220E-01  1.05217E-01  1.26772E-01  1.98155E-01  1.53215E-01 -1.72423E-01 -1.35126E-01 -1.08432E-01
  -4.17974E-02  1.16081E-01  3.04705E-02  3.22085E-01 -5.94663E-03  2.13393E-01  1.67286E-01 -1.39056E-01  4.09306E-02  9.02850E-02
   2.90376E-01  2.17087E-01  4.06086E-01  1.55221E-01  5.17029E-02  1.70828E-01  2.16890E-02  1.08114E-01  7.86502E-02 -2.48698E-01
  -2.48081E-01 -5.89561E-02 -2.55596E-01  2.29441E-01  2.25801E-01 -7.36303E-04  3.49067E-01  3.32752E-01  1.95729E-01  2.06496E-01
   4.93942E-01  2.58192E-01  5.38336E-01  5.50962E-01  4.23161E-02  3.57458E-01  1.62107E-01  3.74056E-01  4.88535E-01  3.32686E-01
   3.49104E-01  1.51082E-02  9.61699E-02  6.73565E-02  6.96543E-02 -6.99005E-02 -1.83712E-01 -2.33646E-02 -3.76995E-01 -4.44876E-01
  -1.88352E-01 -5.10473E-01 -6.27465E-01 -8.91555E-01 -8.61294E-01 -4.70653E-01 -7.22915E-01 -5.57119E-01 -5.33049E-01 -5.53348E-01
  -3.99209E-01 -2.39611E-01 -1.80835E-01 -4.95768E-03 -4.56603E-02 -3.61192E-01 -1.42321E-01 -1.29336E-01 -1.12271E-01 -1.41505E-01
   1.75949E-01  1.82426E-02  7.49696E-02  9.98862E-02 -1.81663E-01  3.36107E-01  2.21697E-01  2.24124E-01  1.21378E-01  3.38743E-01
   3.72903E-01  2.47551E-01  7.75332E-01  5.61485E-01  2.85159E-01  4.58757E-01  2.82848E-01  3.07875E-01  3.66831E-01 -3.21458E-01
  -3.06180E-01 -4.23832E-01 -5.10041E-01 -4.87003E-01 -5.74218E-01 -2.82550E-01 -6.34518E-01 -4.69739E-01 -1.46720E-01 -4.39996E-01
  -2.21181E-01 -1.33943E-01 -4.97413E-01 -1.70343E-01 -5.10833E-01 -6.20797E-01 -6.19028E-02 -1.65798E-01 -2.04766E-01 -3.12799E-01
  -2.29629E-01 -1.10645E-01 -9.92393E-02 -2.03451E-01 -2.08405E-01 -2.14141E-01 -2.64966E-02 -1.99413E-01 -2.42899E-01  2.31483E-02
  -8.04888E-02 -3.83675E-02 -4.81424E-01 -2.25145E-01 -1.13328E-01 -8.05610E-02 -2.55951E-01 -3.74957E-01  1.78839E-01  4.81001E-02
   1.80469E-01  2.37212E-02  7.16004E-02 -1.25682E-01  9.63184E-02  3.31703E-01 -9.31593E-02  3.11869E-02 -5.73146E-02  5.17082E-02
  -2.29826E-01 -4.66138E-02  2.13477E-01  2.51707E-01  2.19387E-01 -1.94098E-04  2.40527E-01  8.85214E-02  1.56552E-01  3.49118E-01
   3.44047E-01  1.98353E-01  1.08098E-01  2.33298E-01  4.04526E-01  7.05282E-03 -3.86147E-01 -1.25416E-01  1.15393E-02  2.33954E-02
  -5.60056E-02 -1.89409E-01 -2.37824E-01  9.16953E-02 -7.75152E-03 -1.38066E-01 -2.84587E-02  1.39799E-02  8.96798E-04 -7.75769E-02
   7.56886E-04 -5.21197E-02  1.61858E-01  1.85144E-01  2.34493E-01 -7.48167E-02  4.29085E-02  3.23731E-01 -8.62627E-02  2.02857E-01
   1.70650E-01  1.96736E-02 -1.40851E-02 -1.09339E-01  9.66554E-02  2.35311E-02 -1.68328E-01  8.34328E-02  3.08434E-01 -3.13936E-02
  -1.94241E-01  2.40257E-01  2.19211E-01  1.30247E-01  3.46175E-01  5.98132E-02  6.60977E-02  5.78811E-02  5.09062E-02  2.54431E-02
  -8.99225E-02 -1.51404E-02 -2.03027E-01 -2.82196E-01 -1.02512E-01  3.47529E-02  7.25228E-02  2.12087E-01  2.68301E-01  3.11580E-01
   2.81036E-01  4.20942E-01  1.64812E-01  1.41541E-01  5.37081E-01  9.77066E-02  4.00417E-02  3.74964E-01  2.89230E-01  5.69062E-03
   1.39887E-01  1.74121E-01  1.01468E-02  2.05800E-01  4.68861E-01  4.25292E-01  1.50641E-01  8.14553E-02  2.50519E-01  3.01320E-01
   1.57935E-01  3.19656E-01  3.67169E-01  2.93200E-01  2.88818E-01  4.18307E-01  1.42431E-01 -1.14705E-01  5.33659E-02 -6.94829E-02
  -7.14532E-02 -1.12016E-01 -1.93479E-01 -2.61401E-01 -3.79178E-01 -3.75625E-01 -1.93713E-02 -2.06113E-01 -2.51562E-01  1.22193E-01
   8.26468E-02  1.15557E-01 -2.38882E-02  6.98332E-02 -8.28221E-02  2.59245E-02  1.80399E-01 -3.94327E-01 -4.95876E-01 -5.22364E-01
  -9.60164E-01 -9.04274E-01 -6.47943E-01 -6.23580E-01 -7.83793E-01 -9.89603E-01 -8.73612E-01 -8.48166E-01 -3.39347E-01 -1.81688E-01
  -1.32683E-01  2.08610E-01 -1.19493E-01  3.99144E-02  1.37366E-01 -9.91143E-02  2.04860E-01  1.61222E-01  2.25157E-01  4.48999E-02
  -3.91860E-01  7.23099E-02 -8.34551E-02  9.79890E-02  1.32917E-01  1.70794E-01  2.82888E-01 -1.47895E-01  1.83102E-01  4.25089E-02
   1.33800E-01  7.26279E-02  1.61929E-01  9.24444E-02  6.58050E-02  3.20519E-01  2.35411E-01  2.05866E-01 -6.63018E-02  2.77918E-01
   7.82394E-02  1.14330E-01  1.15124E-01  1.65052E-01  2.33977E-01  1.06713E-01  2.02505E-01 -1.35625E-01  9.33782E-02  9.74956E-02
   1.69717E-01  1.09164E-01  3.09456E-01  3.73057E-01  1.74143E-02  1.65272E-01  3.98732E-01  4.75353E-01  6.89745E-02  1.02939E-01
   5.05787E-02  1.07245E-01  4.10516E-01 -2.65567E-04 -1.12166E-01  1.08945E-01 -2.31837E-01 -2.30989E-02  3.86641E-02 -2.88810E-01
  -1.02625E-01 -3.25528E-01 -2.67754E-01 -2.55416E-01 -1.20827E-01  1.85240E-02 -2.34028E-01 -2.56701E-01 -4.31217E-01 -1.74069E-01
  -1.63894E-01 -3.97000E-01 -1.68621E-01 -1.19405E-01 -2.24513E-01 -3.31704E-01 -1.26758E-01  3.68923E-02 -1.12339E-01 -1.28699E-01
  -7.97263E-02 -1.50751E-01 -5.58236E-02 -1.49065E-02 -5.38350E-02  1.12409E-01 -1.03593E-02  1.12276E-01  1.25377E-01  8.22784E-02
   1.93417E-01 -9.37384E-02 -1.29679E-01 -5.16112E-02 -6.30020E-02  1.14473E-01  2.94659E-01  2.46394E-01  2.44731E-01  1.03043E-01
   9.45066E-02  4.56822E-02  3.01907E-01  1.49365E-01 -4.73587E-03  2.88125E-01 -2.22722E-01  1.41925E-01 -1.19353E-01 -2.57829E-01
   1.82775E-01 -5.48092E-02 -8.07360E-02  3.53554E-02  2.95124E-01  1.22234E-01  1.73355E-01  7.42921E-02 -2.44587E-03 -2.52904E-01
  -1.67801E-01 -5.10564E-02 -2.66493E-01 -2.22389E-01 -5.12119E-01 -7.47744E-02 -2.22599E-01 -3.43848E-01  2.59114E-01  1.43682E-02
  -7.72008E-02  8.91346E-02 -1.16758E-01 -7.41638E-02 -5.46489E-02  1.31191E-01  2.56395E-01 -2.60091E-01  1.04208E-02  4.77654E-01
   1.00602E-01 -6.98562E-02 -4.02758E-02 -7.94766E-02  1.14235E-01  9.14112E-02  2.40517E-01  1.31782E-01  5.71034E-02  2.05869E-01
  -1.33905E-01 -1.98464E-01 -1.84945E-01  1.69677E-01  3.94296E-01 -6.79023E-02 -6.76980E-02  1.93751E-01  1.61723E-01  3.48475E-01
  -1.60587E-02 -1.42624E-01  1.27666E-01 -2.34228E-02  8.10483E-02  7.56116E-02  2.86689E-01  1.39441E-01  4.33953E-02 -7.46027E-02
  -2.23886E-01  1.45339E-01 -1.11041E-01 -3.71339E-01 -2.31282E-01 -2.13516E-02 -1.85068E-01 -1.59867E-01  1.68081E-01 -2.25526E-01
  -4.08681E-01 -4.42179E-01 -5.57063E-01 -2.52213E-01 -3.54135E-01 -3.26394E-01 -1.09495E-01  4.11391E-02 -4.90546E-02 -2.17944E-01
  -2.06688E-01 -3.70628E-01  1.08094E-02 -1.82700E-01 -3.89000E-01 -1.15163E-01 -2.96446E-01 -1.48220E-01  1.29603E-01  1.74184E-02
  -5.44302E-03  9.90779E-02 -9.03666E-02  1.97158E-01  1.22368E-01 -2.96550E-01  1.52591E-01  1.18112E-01 -1.51150E-02  9.15232E-02
   2.30281E-02  1.69509E-01  4.47705E-02  6.81209E-02 -1.38843E-01 -5.43098E-02 -1.46050E-01 -3.00921E-01  1.53475E-01 -2.15327E-02
   3.76366E-01  2.15707E-01  2.42999E-02 -3.68904E-02 -8.57835E-02  2.04762E-01 -1.57125E-01  2.91941E-01  2.23567E-01 -6.09944E-02
  -1.13204E-01  3.42485E-04  1.73995E-01 -9.25886E-02  9.74277E-02  9.04719E-02 -9.75999E-02 -1.53862E-01 -7.88344E-02  1.20876E-01
   1.86114E-01 -1.37412E-01  3.37178E-02 -1.76942E-02 -1.45848E-01  1.86585E-01  6.24767E-02  2.44154E-01 -2.06388E-02 -1.54840E-01
  -4.01511E-02 -8.74413E-02  4.44271E-02  5.66613E-03  6.18206E-02 -6.11689E-02  6.18290E-02  3.61630E-02 -4.49137E-02  9.61021E-02
   1.26849E-01  2.40183E-02  1.60937E-01  5.10880E-02 -2.38006E-02  3.63448E-01 -4.19012E-02 -3.10669E-02 -1.63014E-01  2.08163E-02
   1.05244E-01 -1.00880E-03  4.49388E-01  3.06447E-02  9.23313E-02 -2.51127E-01 -3.13633E-01 -8.14758E-02 -7.71189E-02  1.86650E-01
   1.47347E-01 -2.90344E-02 -1.57681E-01  1.53425E-02  1.31418E-02  1.91119E-01  7.08961E-03  1.07784E-01  1.84502E-01  1.09323E-01
  -5.34948E-03 -9.30726E-02  1.43673E-01 -7.56231E-03  1.34575E-01  4.72001E-02 -8.66289E-03 -4.42205E-02 -5.61805E-02  1.51072E-01
   2.39151E-01 -4.50655E-02 -2.30926E-01 -3.58837E-02
 NY points of the fit to the data follow
   7.34815E-02  7.15811E-02  6.96125E-02  6.61000E-02  6.14436E-02  5.12565E-02  2.98368E-02  2.60742E-02  4.03562E-02  3.39488E-02
   6.71940E-02  1.54344E-01  2.16262E-01  2.61777E-01  2.81469E-01  2.72800E-01  2.86277E-01  3.01953E-01  3.08029E-01  3.01157E-01
   2.46749E-01  1.55449E-01  7.47892E-02  3.94316E-02  8.96941E-03 -2.19555E-02 -3.86983E-02 -5.93877E-02 -7.22683E-02 -8.33091E-02
  -9.59055E-02 -1.12810E-01 -1.25697E-01 -1.41487E-01 -1.61985E-01 -1.67028E-01 -1.62449E-01 -1.54537E-01 -1.35564E-01 -1.08020E-01
  -7.60657E-02 -2.71499E-02  3.01062E-02  7.98121E-02  1.24865E-01  1.59331E-01  1.73754E-01  1.89597E-01  1.96999E-01  1.84764E-01
   1.64919E-01  1.26436E-01  8.52156E-02  4.38437E-02  5.34003E-04 -4.93842E-02 -8.03145E-02 -1.06106E-01 -1.65704E-01 -1.76232E-01
  -1.82657E-01 -2.53198E-01 -2.33731E-01 -1.93943E-01 -1.84873E-01 -1.02033E-01 -4.94732E-02 -5.11271E-03  7.75843E-02  1.14445E-01
   1.63127E-01  2.23466E-01  2.46223E-01  2.14853E-01  1.94655E-01  1.56493E-01  2.14891E-02 -4.52356E-02 -8.38342E-02 -1.37050E-01
  -1.26962E-01 -1.18398E-01 -1.00693E-01 -5.23356E-02 -8.85411E-03  5.91828E-02  1.47630E-01  2.15785E-01  2.58685E-01  2.90680E-01
   3.09356E-01  2.72217E-01  2.25760E-01  1.70448E-01  8.44112E-02  1.31381E-02 -5.10608E-02 -9.48953E-02 -1.03542E-01 -1.03025E-01
  -9.80060E-02 -7.88722E-02 -5.23716E-02  3.68127E-03  7.40693E-02  1.48809E-01  2.09797E-01  2.44744E-01  2.66840E-01  2.68200E-01
   2.75156E-01  2.73059E-01  2.71370E-01  2.69150E-01  2.68487E-01  2.63828E-01  2.60565E-01  2.68615E-01  2.52643E-01  2.41739E-01
   2.37976E-01  2.02617E-01  1.58706E-01  1.06953E-01  3.16766E-02 -6.63105E-02 -1.30897E-01 -2.06889E-01 -2.92133E-01 -2.99834E-01
  -3.54381E-01 -5.17252E-01 -6.21026E-01 -7.11702E-01 -7.24670E-01 -6.50302E-01 -6.18680E-01 -6.04122E-01 -6.08486E-01 -5.97508E-01
  -5.38708E-01 -3.86358E-01 -2.43905E-01 -1.68699E-01 -1.11404E-01 -4.99894E-02 -1.45915E-02  2.69810E-02  5.35952E-02  7.49349E-02
   9.35109E-02  1.09828E-01  1.24700E-01  1.39124E-01  1.52860E-01  1.65631E-01  1.77603E-01  1.87193E-01  2.09944E-01  2.91791E-01
   3.17880E-01  3.46340E-01  4.83147E-01  4.74296E-01  3.78683E-01  2.87772E-01  1.45395E-01  7.90338E-02  3.71170E-02 -7.03118E-02
  -1.67116E-01 -3.20428E-01 -4.60986E-01 -5.16797E-01 -4.56651E-01 -3.90464E-01 -3.89591E-01 -3.38087E-01 -3.22653E-01 -2.89597E-01
  -2.64298E-01 -2.44034E-01 -2.30623E-01 -2.17158E-01 -2.04513E-01 -1.92763E-01 -1.82642E-01 -1.74543E-01 -1.65497E-01 -1.56788E-01
  -1.47890E-01 -1.38958E-01 -1.30585E-01 -1.22466E-01 -1.14383E-01 -1.06258E-01 -9.86528E-02 -9.15710E-02 -8.50339E-02 -7.89191E-02
  -7.33062E-02 -6.88085E-02 -6.45647E-02 -6.08298E-02 -5.77724E-02 -5.48110E-02 -5.27715E-02 -5.06734E-02 -4.84060E-02 -4.64908E-02
  -4.40439E-02 -4.16550E-02 -3.97799E-02 -3.83026E-02 -3.74558E-02 -3.87095E-02 -4.22813E-02 -3.96128E-02 -3.26635E-02 -3.26833E-02
  -2.01799E-02  1.64513E-02  4.73043E-02  6.47610E-02  8.90172E-02  1.25554E-01  1.69460E-01  2.05555E-01  2.20966E-01  2.18088E-01
   2.00440E-01  1.73386E-01  1.53928E-01  1.41367E-01  1.11134E-01  6.08474E-02  1.66766E-02 -1.13426E-02 -3.17600E-02 -4.61714E-02
  -5.85485E-02 -6.85403E-02 -7.56362E-02 -8.14363E-02 -8.46825E-02 -8.71102E-02 -9.05552E-02 -9.68741E-02 -1.04530E-01 -1.08252E-01
  -1.24187E-01 -1.34190E-01 -1.27889E-01 -1.24409E-01 -1.13340E-01 -1.08815E-01 -8.69511E-02 -5.46671E-02 -4.22684E-02 -1.08164E-02
   2.49613E-02  4.23560E-02  6.68365E-02  7.62039E-02  8.70039E-02  1.02067E-01  1.01331E-01  1.08245E-01  1.14732E-01  1.17663E-01
   1.03223E-01  1.01001E-01  9.72945E-02  8.88340E-02  7.09219E-02  4.72858E-02  1.39872E-02 -3.49620E-02 -7.27472E-02 -1.18269E-01
  -1.51521E-01 -1.57143E-01 -1.53204E-01 -1.32594E-01 -9.13643E-02 -5.62386E-02 -9.60445E-03  4.09872E-02  9.16172E-02  1.44384E-01
   1.86035E-01  2.17172E-01  2.26169E-01  2.27788E-01  2.19165E-01  2.02899E-01  1.98451E-01  1.89370E-01  1.85288E-01  1.82768E-01
   1.79440E-01  1.77131E-01  1.72967E-01  1.70794E-01  1.66160E-01  1.63239E-01  1.58184E-01  1.53103E-01  1.46017E-01  1.37133E-01
   1.26361E-01  1.11051E-01  9.43075E-02  7.23385E-02  4.33602E-02  1.34190E-02 -2.45728E-02 -6.72056E-02 -1.08229E-01 -1.51413E-01
  -1.86086E-01 -2.12850E-01 -2.27999E-01 -2.29082E-01 -2.18207E-01 -1.95986E-01 -1.70456E-01 -1.36664E-01 -1.05102E-01 -7.83526E-02
  -5.10608E-02 -3.37582E-02  3.33580E-03  7.22506E-02  3.29778E-03 -1.89751E-02  2.58168E-02 -2.31799E-01 -4.72754E-01 -6.18991E-01
  -7.67682E-01 -7.44792E-01 -7.49851E-01 -8.44263E-01 -8.65117E-01 -9.28711E-01 -8.75268E-01 -6.74913E-01 -4.07970E-01 -2.61160E-01
  -2.32689E-01 -1.15169E-01 -9.82540E-02 -4.21705E-02 -1.70840E-02 -4.39432E-03  4.12537E-03  9.44812E-03  1.11922E-02  1.23270E-02
   1.17336E-02  9.98127E-03  9.18986E-03  7.93148E-03  7.41326E-03  8.17091E-03  9.08784E-03  1.17445E-02  1.51990E-02  2.04766E-02
   2.54804E-02  3.09749E-02  3.60992E-02  4.04193E-02  4.57108E-02  4.97850E-02  5.39821E-02  5.76762E-02  6.08989E-02  6.39184E-02
   6.71639E-02  7.03065E-02  7.28878E-02  7.51560E-02  7.73696E-02  7.95952E-02  8.22993E-02  8.51244E-02  8.76532E-02  8.99298E-02
   9.17514E-02  9.29132E-02  9.44181E-02  9.53229E-02  9.60482E-02  9.59767E-02  9.46807E-02  9.24914E-02  8.95140E-02  8.59559E-02
   8.16006E-02  7.69460E-02  7.18697E-02  6.62491E-02  6.01877E-02  5.41162E-02  4.77187E-02  4.15514E-02  3.57871E-02  3.00916E-02
   2.51382E-02  2.03178E-02  1.54161E-02  1.12671E-02  7.14562E-03  3.58264E-03  4.34367E-04 -2.73036E-03 -5.63345E-03 -8.03488E-03
  -1.01402E-02 -1.17237E-02 -1.24746E-02 -1.26121E-02 -1.22033E-02 -1.08994E-02 -8.90916E-03 -6.69668E-03 -4.10359E-03 -1.52662E-03
   1.50914E-03  5.52872E-03  9.77673E-03  1.42667E-02  1.87045E-02  2.30504E-02  2.82133E-02  3.41828E-02  4.14657E-02  4.94921E-02
   5.76650E-02  6.64823E-02  7.59900E-02  8.59693E-02  9.65446E-02  1.06966E-01  1.16596E-01  1.25652E-01  1.33951E-01  1.41235E-01
   1.47411E-01  1.52288E-01  1.55285E-01  1.56324E-01  1.55456E-01  1.52874E-01  1.49137E-01  1.44033E-01  1.38046E-01  1.30830E-01
   1.22218E-01  1.13158E-01  1.03822E-01  9.46362E-02  8.58435E-02  7.71684E-02  6.85591E-02  6.06805E-02  5.32228E-02  4.63049E-02
   4.01687E-02  3.51525E-02  3.05861E-02  2.71001E-02  2.48286E-02  2.31528E-02  2.25967E-02  2.30166E-02  2.47465E-02  2.74457E-02
   3.06453E-02  3.40861E-02  3.78106E-02  4.15659E-02  4.52540E-02  4.92580E-02  5.31548E-02  5.67193E-02  5.97302E-02  6.15154E-02
   6.32891E-02  6.45640E-02  6.50056E-02  6.52895E-02  6.47117E-02  6.34705E-02  6.16902E-02  5.94578E-02  5.69815E-02  5.39842E-02
   5.08944E-02  4.75979E-02  4.41255E-02  4.07364E-02  3.71792E-02  3.39764E-02  3.07440E-02  2.75120E-02  2.42687E-02  2.08623E-02
   1.73761E-02  1.36943E-02  9.87704E-03  5.90284E-03  1.24907E-03 -4.19019E-03 -1.03786E-02 -1.82562E-02 -2.74877E-02 -3.76821E-02
  -4.89549E-02 -6.10842E-02 -7.44101E-02 -8.87734E-02 -1.03408E-01 -1.18546E-01 -1.33551E-01 -1.47305E-01 -1.59559E-01 -1.70623E-01
  -1.79987E-01 -1.87262E-01 -1.92585E-01 -1.95662E-01 -1.96803E-01 -1.95874E-01 -1.93782E-01 -1.90605E-01 -1.86191E-01 -1.80707E-01
  -1.74113E-01 -1.67071E-01 -1.59736E-01 -1.51911E-01 -1.43718E-01 -1.34760E-01 -1.25594E-01 -1.16226E-01 -1.06440E-01 -9.68270E-02
  -8.69491E-02 -7.77694E-02 -6.92660E-02 -6.00664E-02 -5.18625E-02 -4.42703E-02 -3.67887E-02 -3.02963E-02 -2.41914E-02 -1.84171E-02
  -1.32214E-02 -8.52529E-03 -4.55045E-03 -1.13810E-03  1.87702E-03  4.39403E-03  6.86256E-03  8.69334E-03  1.05008E-02  1.23673E-02
   1.41573E-02  1.59309E-02  1.72437E-02  1.87107E-02  2.00366E-02  2.12435E-02  2.27189E-02  2.34959E-02  2.40506E-02  2.46258E-02
   2.44982E-02  2.46727E-02  2.49935E-02  2.47743E-02  2.50466E-02  2.56225E-02  2.52605E-02  2.45809E-02  2.42042E-02  2.39948E-02
   2.39423E-02  2.36912E-02  2.34368E-02  2.28767E-02  2.18811E-02  2.08985E-02  2.03387E-02  2.03829E-02  2.02926E-02  2.00143E-02
   2.00091E-02  1.98390E-02  1.99052E-02  2.02197E-02  2.08061E-02  2.17507E-02  2.24617E-02  2.33358E-02  2.36950E-02  2.39585E-02
   2.43105E-02  2.44004E-02  2.47644E-02  2.49439E-02  2.50643E-02  2.54834E-02  2.51745E-02  2.51869E-02  2.59973E-02  2.68819E-02
   2.83183E-02  2.94322E-02  3.01410E-02  3.06131E-02  3.08942E-02  3.15889E-02  3.26597E-02  3.32508E-02  3.35098E-02  3.30418E-02
   3.24085E-02  3.23768E-02  3.26121E-02  3.25417E-02  3.23064E-02  3.23024E-02  3.21852E-02  3.24674E-02  3.27886E-02  3.26827E-02
   3.29981E-02  3.32279E-02  3.33408E-02  3.41579E-02  3.52994E-02  3.63108E-02  3.74958E-02  3.89744E-02  4.04515E-02  4.16833E-02
   4.34862E-02  4.56301E-02  4.78154E-02  5.01800E-02
 NY background values follow
     7.742E-02    7.723E-02    7.704E-02    7.685E-02    7.666E-02    7.647E-02    7.628E-02    7.609E-02    7.590E-02    7.571E-02
     7.552E-02    7.533E-02    7.514E-02    7.494E-02    7.475E-02    7.456E-02    7.437E-02    7.418E-02    7.399E-02    7.380E-02
     7.361E-02    7.342E-02    7.323E-02    7.303E-02    7.284E-02    7.265E-02    7.246E-02    7.227E-02    7.208E-02    7.189E-02
     7.170E-02    7.150E-02    7.131E-02    7.112E-02    7.093E-02    7.074E-02    7.055E-02    7.035E-02    7.016E-02    6.997E-02
     6.978E-02    6.959E-02    6.939E-02    6.920E-02    6.901E-02    6.882E-02    6.863E-02    6.843E-02    6.824E-02    6.805E-02
     6.786E-02    6.767E-02    6.747E-02    6.728E-02    6.709E-02    6.690E-02    6.670E-02    6.651E-02    6.632E-02    6.613E-02
     6.593E-02    6.574E-02    6.555E-02    6.536E-02    6.516E-02    6.497E-02    6.478E-02    6.458E-02    6.439E-02    6.420E-02
