 LCModel (Version 6.3-1N) Copyright: S.W. Provencher.          Ref.: Magn. Reson. Med. 30:672-679 (1993).                
 Slice_N1@26_17  02-Jun-2023 14:38:11
 27 lines in following concentration table = NCONC+1
    Conc.  %SD /Cr+PCr  Metabolite                                         
 8.42E-07  50% 1.4E-04 Mac                                                 
 4.92E-02  26%   8.000 Cr                                                  
    0.000 999%   0.000 PCr                                                 
 6.61E-02  29%  10.731 Ins                                                 
 6.65E-02  19%  10.804 NAA                                                 
 8.16E-02  28%  13.263 Tau                                                 
    0.000 999%   0.000 PCho                                                
 1.07E-02  38%   1.738 GPC                                                 
 8.18E-02  21%  13.289 Glu                                                 
 3.74E-04 999% 6.1E-02 Gln                                                 
    0.000 999%   0.000 Ala                                                 
 3.12E-02  70%   5.070 Asc                                                 
 7.06E-03  45%   1.147 Asp                                                 
 5.02E-03  38%   0.816 GABA                                                
 4.62E-03  42%   0.750 Glc                                                 
    0.000 999%   0.000 GSH                                                 
 2.49E-03 514%   0.405 Lac                                                 
    0.000 999%   0.000 NAAG                                                
    0.000 999%   0.000 PE                                                  
 1.07E-02  38%   1.738 GPC+PCho                                            
 6.65E-02  19%  10.804 NAA+NAAG                                            
 8.22E-02  22%  13.350 Glu+Gln                                             
 4.92E-02  26%   8.000 Cr+PCr                                              
 6.65E-02  19%  10.804 NAA+NAAG                                            
 4.92E-02  26%   8.000 Cr+PCr                                              
 8.22E-02  22%  13.350 Glu+Gln                                             
   6 lines in following misc. output table
  FWHM = 0.081 ppm    S/N =   1                                            
  Data shift =-0.029 ppm                                                   
  Ph:  69 deg      -3.4 deg/ppm                                            
  alphaB,S = 3.6E+00,   9.8E+01                                            
   14 spline knots.   Ns =11(2)                                            
  ( 4) 3 infls.   ( 1) 1 extrs.                                            
  654 points on ppm-axis = NY
      4.000000     3.994181     3.988363     3.982544     3.976726     3.970907     3.965088     3.959270     3.953451     3.947633
      3.941814     3.935995     3.930177     3.924358     3.918540     3.912721     3.906902     3.901084     3.895265     3.889446
      3.883628     3.877809     3.871991     3.866172     3.860353     3.854535     3.848716     3.842898     3.837079     3.831260
      3.825442     3.819623     3.813805     3.807986     3.802167     3.796349     3.790530     3.784712     3.778893     3.773074
      3.767256     3.761437     3.755619     3.749800     3.743981     3.738163     3.732344     3.726526     3.720707     3.714888
      3.709070     3.703251     3.697433     3.691614     3.685795     3.679977     3.674158     3.668339     3.662521     3.656702
      3.650884     3.645065     3.639246     3.633428     3.627609     3.621791     3.615972     3.610153     3.604335     3.598516
      3.592698     3.586879     3.581060     3.575242     3.569423     3.563605     3.557786     3.551967     3.546149     3.540330
      3.534512     3.528693     3.522874     3.517056     3.511237     3.505419     3.499600     3.493781     3.487963     3.482144
      3.476326     3.470507     3.464688     3.458870     3.453051     3.447232     3.441414     3.435595     3.429777     3.423958
      3.418139     3.412321     3.406502     3.400684     3.394865     3.389046     3.383228     3.377409     3.371591     3.365772
      3.359953     3.354135     3.348316     3.342498     3.336679     3.330860     3.325042     3.319223     3.313405     3.307586
      3.301767     3.295949     3.290130     3.284312     3.278493     3.272674     3.266856     3.261037     3.255219     3.249400
      3.243581     3.237763     3.231944     3.226125     3.220307     3.214488     3.208670     3.202851     3.197032     3.191214
      3.185395     3.179577     3.173758     3.167939     3.162121     3.156302     3.150484     3.144665     3.138846     3.133028
      3.127209     3.121391     3.115572     3.109753     3.103935     3.098116     3.092298     3.086479     3.080660     3.074842
      3.069023     3.063205     3.057386     3.051567     3.045749     3.039930     3.034111     3.028293     3.022474     3.016656
      3.010837     3.005018     2.999200     2.993381     2.987563     2.981744     2.975925     2.970107     2.964288     2.958470
      2.952651     2.946832     2.941014     2.935195     2.929377     2.923558     2.917739     2.911921     2.906102     2.900284
      2.894465     2.888646     2.882828     2.877009     2.871191     2.865372     2.859553     2.853735     2.847916     2.842098
      2.836279     2.830460     2.824642     2.818823     2.813004     2.807186     2.801367     2.795549     2.789730     2.783911
      2.778093     2.772274     2.766456     2.760637     2.754818     2.749000     2.743181     2.737363     2.731544     2.725725
      2.719907     2.714088     2.708270     2.702451     2.696632     2.690814     2.684995     2.679177     2.673358     2.667539
      2.661721     2.655902     2.650084     2.644265     2.638446     2.632628     2.626809     2.620991     2.615172     2.609353
      2.603535     2.597716     2.591897     2.586079     2.580260     2.574442     2.568623     2.562804     2.556986     2.551167
      2.545349     2.539530     2.533711     2.527893     2.522074     2.516256     2.510437     2.504618     2.498800     2.492981
      2.487163     2.481344     2.475525     2.469707     2.463888     2.458070     2.452251     2.446432     2.440614     2.434795
      2.428977     2.423158     2.417339     2.411521     2.405702     2.399884     2.394065     2.388246     2.382428     2.376609
      2.370790     2.364972     2.359153     2.353335     2.347516     2.341697     2.335879     2.330060     2.324242     2.318423
      2.312604     2.306786     2.300967     2.295149     2.289330     2.283511     2.277693     2.271874     2.266056     2.260237
      2.254418     2.248600     2.242781     2.236963     2.231144     2.225325     2.219507     2.213688     2.207870     2.202051
      2.196232     2.190414     2.184595     2.178777     2.172958     2.167139     2.161321     2.155502     2.149683     2.143865
      2.138046     2.132228     2.126409     2.120590     2.114772     2.108953     2.103135     2.097316     2.091497     2.085679
      2.079860     2.074042     2.068223     2.062404     2.056586     2.050767     2.044949     2.039130     2.033311     2.027493
      2.021674     2.015856     2.010037     2.004218     1.998400     1.992581     1.986763     1.980944     1.975126     1.969307
      1.963489     1.957670     1.951852     1.946033     1.940215     1.934397     1.928578     1.922760     1.916941     1.911123
      1.905304     1.899486     1.893667     1.887849     1.882030     1.876212     1.870393     1.864575     1.858756     1.852938
      1.847119     1.841301     1.835482     1.829664     1.823845     1.818027     1.812208     1.806390     1.800571     1.794753
      1.788934     1.783116     1.777297     1.771479     1.765660     1.759842     1.754023     1.748205     1.742386     1.736568
      1.730749     1.724931     1.719113     1.713294     1.707476     1.701657     1.695839     1.690020     1.684202     1.678383
      1.672565     1.666746     1.660928     1.655109     1.649291     1.643472     1.637654     1.631835     1.626017     1.620198
      1.614380     1.608561     1.602743     1.596924     1.591106     1.585287     1.579469     1.573650     1.567832     1.562013
      1.556195     1.550376     1.544558     1.538739     1.532921     1.527102     1.521284     1.515465     1.509647     1.503829
      1.498010     1.492192     1.486373     1.480555     1.474736     1.468918     1.463099     1.457281     1.451462     1.445644
      1.439825     1.434007     1.428188     1.422370     1.416551     1.410733     1.404914     1.399096     1.393277     1.387459
      1.381640     1.375822     1.370003     1.364185     1.358366     1.352548     1.346729     1.340911     1.335092     1.329274
      1.323455     1.317637     1.311818     1.306000     1.300182     1.294363     1.288545     1.282726     1.276908     1.271089
      1.265271     1.259452     1.253634     1.247815     1.241997     1.236178     1.230360     1.224541     1.218723     1.212904
      1.207086     1.201267     1.195449     1.189630     1.183812     1.177993     1.172175     1.166356     1.160538     1.154719
      1.148901     1.143082     1.137264     1.131445     1.125627     1.119808     1.113990     1.108171     1.102353     1.096534
      1.090716     1.084898     1.079079     1.073261     1.067442     1.061624     1.055805     1.049987     1.044168     1.038350
      1.032531     1.026713     1.020894     1.015076     1.009257     1.003439     0.997620     0.991802     0.985983     0.980165
      0.974346     0.968528     0.962709     0.956891     0.951072     0.945254     0.939435     0.933617     0.927798     0.921980
      0.916161     0.910343     0.904524     0.898706     0.892887     0.887069     0.881251     0.875432     0.869614     0.863795
      0.857977     0.852158     0.846340     0.840521     0.834703     0.828884     0.823066     0.817247     0.811429     0.805610
      0.799792     0.793973     0.788155     0.782336     0.776518     0.770699     0.764881     0.759062     0.753244     0.747425
      0.741607     0.735788     0.729970     0.724151     0.718333     0.712514     0.706696     0.700877     0.695059     0.689240
      0.683422     0.677603     0.671785     0.665967     0.660148     0.654330     0.648511     0.642693     0.636874     0.631056
      0.625237     0.619419     0.613600     0.607782     0.601963     0.596145     0.590326     0.584508     0.578689     0.572871
      0.567052     0.561234     0.555415     0.549597     0.543778     0.537960     0.532141     0.526323     0.520504     0.514686
      0.508867     0.503049     0.497230     0.491412     0.485593     0.479775     0.473956     0.468138     0.462319     0.456501
      0.450682     0.444864     0.439045     0.433227     0.427408     0.421590     0.415771     0.409953     0.404134     0.398316
      0.392497     0.386679     0.380860     0.375042     0.369223     0.363405     0.357586     0.351767     0.345949     0.340130
      0.334312     0.328493     0.322675     0.316856     0.311038     0.305219     0.299401     0.293582     0.287764     0.281945
      0.276127     0.270308     0.264490     0.258671     0.252853     0.247034     0.241216     0.235397     0.229579     0.223760
      0.217942     0.212123     0.206305     0.200486
 NY phased data points follow
   3.47785E-01 -2.88689E-02 -6.20132E-02  2.16420E-01  2.37436E-01  1.00989E-01 -2.54615E-01 -4.23469E-01 -3.18927E-01 -8.29000E-02
   3.61462E-02 -1.88593E-01 -1.32281E-01  3.26266E-01 -9.46777E-02  6.34270E-02  2.79980E-01 -2.33471E-01  1.11494E-02  3.01796E-01
   3.37582E-01  6.02758E-01  6.24243E-01 -1.23156E-01 -1.28238E-01  3.55169E-01  1.40495E-01  1.30048E-01 -6.45556E-03 -1.11332E-01
  -8.92690E-02 -3.29605E-01  5.99063E-02  1.44476E-01 -2.60687E-03 -6.68527E-02 -2.10258E-01 -1.61756E-01 -2.38654E-01 -1.83375E-01
  -3.34414E-01 -2.14081E-01 -9.18882E-02  1.25165E-01 -2.20941E-01 -2.14976E-01  4.67629E-01 -7.66601E-02 -2.35423E-02  2.33934E-01
  -1.56064E-02 -3.90823E-02  3.83147E-02 -2.67127E-02 -1.46069E-01 -4.02280E-01 -2.16292E-01  2.45907E-01  9.49757E-02  1.21735E-01
   8.46731E-02 -1.49745E-01 -3.22688E-02  2.98673E-01  8.66542E-02  1.75322E-01  2.60764E-01 -7.00858E-02 -2.60158E-02  1.61204E-01
   1.16245E-01 -4.57688E-02  2.61602E-01  1.70272E-01 -1.17195E-01 -1.24161E-02  3.54608E-01  5.47789E-02 -3.51263E-01  3.14329E-02
   1.07433E-01  1.29461E-01  3.25172E-02 -2.39062E-01 -1.84859E-01 -1.38831E-01  1.50199E-02  1.18182E-01 -1.32488E-01 -2.71002E-02
   8.11224E-02  8.78266E-02  7.70046E-02  1.00842E-01 -9.30124E-03  5.90106E-02  2.75827E-01 -3.71920E-02 -6.37714E-03 -1.57787E-02
  -2.07807E-02 -5.04784E-02 -2.18231E-02  9.48151E-02 -2.71799E-01 -2.11694E-01  8.63052E-02 -1.23328E-01 -6.59705E-02 -5.78671E-02
   2.02167E-01  5.12636E-01  8.13477E-02  3.20132E-01  3.82039E-01  1.48797E-01 -1.94150E-01 -2.46239E-01 -2.31373E-02  8.42872E-02
   3.54525E-01  2.46686E-01  2.74085E-01  2.54059E-01  1.90540E-02 -1.67872E-01  1.47490E-01  4.31413E-02 -3.59477E-01 -4.13424E-01
  -6.89807E-02 -2.19198E-01 -2.85105E-01 -1.47692E-01 -6.22492E-01 -3.92167E-01 -3.16557E-01 -4.14627E-01 -8.25076E-01 -1.73891E-01
  -2.37141E-01 -6.77540E-01 -4.98662E-02 -5.37983E-01 -1.36729E-01  1.70486E-02 -1.90866E-01 -2.80989E-04 -2.51488E-01 -1.11398E-01
   4.25080E-01  4.13766E-02 -2.57755E-01  1.67907E-01  1.51751E-01  2.39826E-01  4.80370E-01  1.14064E-01 -1.56650E-01  1.20477E-01
   1.12692E-01 -3.08596E-03  1.13560E-01  6.84168E-01  2.84737E-01  2.95404E-01  2.54494E-01 -1.43525E-02  4.52397E-01  3.57599E-01
   3.48978E-01 -9.48071E-02  1.80299E-02 -7.87613E-02  2.81273E-01  1.48098E-01 -2.75792E-01 -3.96647E-02 -2.55498E-01  3.13512E-02
  -3.27797E-01 -3.33121E-01 -2.35198E-01  1.50726E-01  1.43491E-01 -9.70607E-02 -2.37226E-01 -3.55418E-01 -2.13113E-02 -4.18645E-01
  -1.80160E-01 -6.67307E-02 -2.10315E-02 -1.40951E-01 -2.90678E-01 -1.76320E-01 -2.62890E-01  1.71479E-02 -1.91262E-01 -2.84812E-01
  -4.81402E-01 -5.61664E-01  1.71998E-03 -2.27736E-01 -6.28803E-02  3.94461E-01 -1.67818E-02  8.94906E-02  1.07002E-01 -2.44626E-01
  -2.90621E-01 -2.81060E-01  1.42464E-02  2.04011E-01  2.11892E-01  2.64118E-01 -1.24687E-01 -4.12170E-02  4.01696E-02  2.15252E-02
   4.97401E-01  4.75340E-02 -1.61471E-01  4.26607E-02  1.54882E-01 -3.12213E-02 -1.82997E-01  1.69091E-01  2.32582E-01  3.20310E-01
   2.45486E-01  3.64299E-01 -4.95126E-02 -2.14850E-01 -1.30620E-01 -3.77036E-01  1.96959E-01  1.50850E-01  1.09195E-01  1.79784E-01
   2.26212E-01 -6.62123E-02 -3.95817E-01 -2.08781E-01 -3.89898E-01 -3.28027E-02 -3.50032E-01  4.97177E-02 -1.26820E-01 -6.04768E-01
   1.53939E-01 -1.43814E-01 -4.05265E-02 -3.84817E-01  2.22653E-01  2.08044E-01 -2.40604E-01  1.61264E-01 -2.48861E-01  1.28170E-01
  -1.89582E-01 -3.95653E-01 -6.55424E-02  2.36995E-01 -9.64863E-02 -8.30388E-02  2.55752E-02 -9.91980E-04  2.67776E-01 -2.03300E-01
   2.46279E-01 -1.93569E-01 -3.90159E-01  1.84917E-02 -1.31548E-01  1.30902E-01  9.65976E-02  3.35282E-01  5.38337E-01  5.55343E-02
  -2.25304E-01 -1.62776E-01 -3.18157E-01 -3.25690E-01 -1.66631E-01  2.16529E-01 -1.41046E-02 -2.51326E-02  1.31705E-01 -3.57416E-01
  -8.08019E-02  2.52917E-01  2.12581E-01  3.49054E-01  4.02726E-01  1.97699E-01  2.87936E-01  2.49459E-01 -1.21173E-02  2.48362E-01
   2.87635E-01  2.86645E-01  6.03886E-01  1.00330E-01  1.99984E-01  4.72717E-01  1.01679E-01  2.50910E-01  3.97977E-01  4.34217E-01
   2.82283E-03  3.10096E-01  4.67715E-01  3.49221E-01  5.97167E-01  4.27520E-01  2.07580E-01  1.43222E-01  2.24867E-01 -1.11261E-01
   7.85514E-02  1.74091E-01  2.74081E-01  1.20917E-01 -1.14692E-01  6.50876E-02  2.32872E-01  7.41000E-02 -1.50133E-01  3.10507E-01
  -1.24249E-01 -1.17865E-01 -2.53074E-01 -1.33206E-01  2.56273E-01 -2.44711E-01 -1.44435E-01 -2.21789E-01 -2.27701E-01 -2.54171E-01
  -3.76552E-01 -3.64913E-01 -3.11730E-01 -6.56799E-01 -4.58719E-01 -3.86061E-01 -6.60597E-01 -2.63823E-01 -4.89426E-01 -2.44623E-01
  -3.54272E-02 -3.35038E-01 -2.81497E-01 -2.48569E-03  7.26760E-02  2.44097E-01  2.77764E-01  8.47309E-02  1.71401E-01 -2.01775E-01
   8.66444E-02  1.25546E-01 -8.29452E-03  3.30733E-01 -2.24273E-01  1.63619E-02  4.69572E-01 -9.11573E-02 -1.77149E-01 -2.05880E-01
  -1.92920E-01  2.60394E-01  1.70498E-01 -1.84730E-02  5.18773E-02  1.01931E-01 -2.80140E-01  5.14716E-02  3.70784E-01 -3.62152E-01
   9.35945E-02  7.50791E-03 -4.84339E-02  1.83217E-01 -1.23717E-01  1.38437E-01  1.15794E-02  2.41423E-01 -2.91213E-02  2.32993E-01
   2.57267E-01 -5.77642E-01 -6.32326E-02  7.56931E-02 -1.01333E-01  5.24627E-02 -3.21261E-02 -1.92592E-01  2.43734E-02  1.60850E-01
   2.69494E-01  6.45453E-02 -9.98545E-02  4.31237E-02 -5.64492E-02 -3.03031E-01  8.49499E-04  4.34329E-01 -3.13099E-01  2.01004E-01
   3.28056E-01 -1.08553E-01  3.03298E-01 -1.32415E-01 -3.21882E-02  4.15689E-02 -2.51821E-01 -2.89845E-01 -2.27655E-02  3.16368E-02
  -1.70018E-01  1.51472E-02 -3.53669E-02 -5.03857E-02 -8.27046E-02 -7.76058E-02 -9.47119E-02 -2.45844E-01 -2.89272E-02 -2.84453E-01
  -1.47084E-01 -1.06968E-03 -2.35302E-01 -3.64354E-02  6.45034E-02  1.90247E-01 -2.27018E-01 -2.38917E-01 -1.86112E-01 -1.04620E-01
   1.11436E-02 -1.01942E-02  2.34776E-02 -1.94738E-01  3.27061E-01  3.16240E-01  2.87509E-02  9.30975E-02  1.16610E-02  2.57435E-02
   5.36301E-02  2.18450E-02  3.51441E-01  3.42976E-02  1.23162E-01  2.57083E-01 -2.23893E-01  1.70148E-01  1.03861E-02  1.80352E-01
   1.00319E-01  7.92514E-02 -7.62619E-02 -5.84787E-03  2.29558E-01 -2.25012E-01 -4.91682E-03 -8.58050E-02 -7.12127E-02  4.84191E-02
   4.65300E-01  1.73865E-01  2.94892E-01  3.58855E-01 -6.38645E-02 -7.24977E-04 -3.75949E-01 -1.66049E-02  1.89392E-01  1.36916E-01
   2.66956E-01  2.51675E-01 -1.25041E-01  6.01556E-02 -3.26123E-02 -4.71163E-02 -1.29105E-03 -4.14207E-01 -2.95167E-02 -4.28372E-02
  -3.51435E-02  2.46199E-02  2.84618E-01  1.58392E-01 -1.10510E-01 -9.15982E-02 -1.88632E-01 -5.65083E-02 -1.33000E-01  6.88333E-02
  -1.48255E-01 -2.91209E-01  2.56705E-01  1.28685E-02 -1.11321E-01  1.62995E-01  1.04559E-01  2.25628E-01  1.61624E-01  1.78349E-01
  -5.49622E-02 -1.99805E-02  1.70704E-01  5.20181E-02  1.11616E-01  1.89473E-01  1.28712E-01 -2.29565E-01  2.51925E-02  1.40567E-01
   8.92736E-02  1.21310E-01  1.02146E-01 -2.81027E-01 -1.23479E-01  3.23649E-01 -1.00029E-01 -1.28651E-01 -1.97713E-01  6.43066E-02
   1.05062E-01 -1.64271E-01 -1.66370E-01 -8.74902E-02 -4.12266E-01 -3.54691E-01  3.13679E-02 -1.99643E-01  3.07879E-03 -2.51686E-01
  -2.59539E-01 -2.97807E-01 -1.53837E-01 -1.33505E-01 -1.70325E-01  3.44314E-01 -4.59238E-02 -1.08122E-01  4.83174E-02  3.91067E-02
  -2.17347E-01  3.90444E-02 -1.31383E-01 -8.14720E-02  2.29937E-01  4.17224E-02  6.47617E-01  2.97227E-01  3.50628E-01  2.21561E-01
  -1.09213E-01 -1.72963E-02  3.01136E-02  1.68945E-01  1.86302E-01  3.12588E-01  3.52372E-01  5.37509E-01 -5.61476E-02 -7.76567E-03
  -1.31457E-01  1.10977E-01 -5.27182E-02 -2.35977E-01  4.82283E-01  2.37713E-01  3.88337E-01 -1.43751E-01  3.50241E-01  2.62506E-01
  -1.52651E-01  3.02361E-03 -2.78588E-01  1.48546E-01 -9.69998E-03  4.45885E-02 -2.77365E-01 -2.31513E-01 -2.16281E-01 -3.99366E-01
  -1.56182E-01  1.01208E-01  1.01607E-01 -1.94273E-01  1.54785E-01 -1.51608E-01 -2.22324E-02  1.70692E-01 -4.27032E-01  1.06322E-01
   4.47334E-02 -5.00522E-01  5.45507E-02  1.85630E-01  6.52431E-02  7.25418E-02  9.35784E-02 -9.66133E-02 -9.13890E-02  1.72434E-01
   3.95923E-03 -3.42241E-02  3.41459E-03  7.57246E-02  1.83572E-01  1.16103E-01 -1.26242E-01  2.27300E-02  1.29419E-01 -3.78363E-02
  -8.21527E-02  6.46419E-02 -1.01165E-01 -9.46724E-02  3.28313E-02 -1.36085E-01  3.39802E-01  2.36206E-01 -1.23943E-02 -2.22483E-03
   5.67957E-02  3.98223E-02  9.41482E-02  3.28672E-01  2.10258E-01 -4.31924E-02  4.51202E-02  3.65020E-01 -1.57434E-01  2.81829E-01
   1.76266E-01 -2.17909E-01  4.11030E-01  3.08433E-02  6.14158E-02 -7.26783E-02 -5.70029E-02  2.26742E-01  3.35029E-01  3.43746E-01
  -1.49672E-01  1.27547E-01 -7.17403E-02 -2.61223E-01
 NY points of the fit to the data follow
   7.70503E-02  6.61070E-02  6.50567E-02  6.24054E-02  5.70459E-02  6.12829E-02  5.12134E-02  6.25912E-02  4.77417E-02  7.59327E-02
   4.94617E-02  1.03823E-01  5.92839E-02  1.44229E-01  7.60541E-02  1.85680E-01  9.53724E-02  2.19085E-01  1.10794E-01  2.35267E-01
   1.16274E-01  2.26900E-01  1.07595E-01  1.91904E-01  8.46180E-02  1.37628E-01  5.16101E-02  7.61632E-02  1.52426E-02  2.07286E-02
  -1.76903E-02 -2.14970E-02 -4.45283E-02 -5.24622E-02 -6.67631E-02 -7.81935E-02 -8.45956E-02 -9.85894E-02 -9.49856E-02 -1.09533E-01
  -9.31666E-02 -1.03574E-01 -7.74345E-02 -8.08049E-02 -4.98290E-02 -4.56394E-02 -1.46457E-02 -5.05163E-03  2.02213E-02  3.23084E-02
   4.61474E-02  5.80643E-02  5.80099E-02  6.82130E-02  5.50362E-02  6.32421E-02  3.96461E-02  4.53142E-02  1.86059E-02  1.74621E-02
  -4.14761E-03 -1.07207E-02 -2.44105E-02 -3.05795E-02 -3.69020E-02 -3.57395E-02 -3.85034E-02 -2.57450E-02 -2.68779E-02 -1.90999E-03
  -3.73195E-03  3.07707E-02  2.26037E-02  6.13742E-02  3.93620E-02  7.68331E-02  4.17841E-02  7.11533E-02  3.08073E-02  5.00850E-02
   1.55186E-02  2.52916E-02  3.39187E-03  9.34729E-03  1.21413E-03  7.93140E-03  1.23262E-02  2.07516E-02  3.49437E-02  4.33521E-02
   5.99704E-02  6.35575E-02  7.28484E-02  6.64043E-02  6.08611E-02  4.57579E-02  2.69155E-02  1.01081E-02 -1.40365E-02 -2.36928E-02
  -4.47760E-02 -4.07661E-02 -5.52441E-02 -3.40308E-02 -3.98333E-02 -3.04513E-03  1.26064E-03  4.79645E-02  6.20987E-02  1.07622E-01
   1.26407E-01  1.62160E-01  1.77196E-01  2.03219E-01  2.04923E-01  2.25058E-01  2.08066E-01  2.26888E-01  1.93696E-01  2.11038E-01
   1.66757E-01  1.79043E-01  1.21252E-01  1.31235E-01  4.66892E-02  7.16014E-02 -5.45145E-02  2.82503E-03 -1.68681E-01 -7.84441E-02
  -2.81885E-01 -1.67178E-01 -3.78483E-01 -2.53957E-01 -4.43819E-01 -3.22614E-01 -4.64626E-01 -3.62712E-01 -4.40014E-01 -3.68560E-01
  -3.80788E-01 -3.38965E-01 -3.03055E-01 -2.79394E-01 -2.22018E-01 -2.02104E-01 -1.42489E-01 -1.19522E-01 -6.73357E-02 -4.37751E-02
   4.30294E-04  1.88234E-02  5.61588E-02  6.78521E-02  9.68186E-02  1.04744E-01  1.23235E-01  1.31920E-01  1.44639E-01  1.56409E-01
   1.69347E-01  1.75847E-01  1.85455E-01  1.82981E-01  1.82872E-01  1.69236E-01  1.52239E-01  1.31908E-01  9.75654E-02  7.49255E-02
   2.48226E-02  5.01478E-03 -5.61122E-02 -6.71709E-02 -1.30734E-01 -1.28364E-01 -1.83730E-01 -1.68401E-01 -2.08495E-01 -1.84465E-01
  -2.06980E-01 -1.81287E-01 -1.90015E-01 -1.68119E-01 -1.69472E-01 -1.52310E-01 -1.50270E-01 -1.35749E-01 -1.30841E-01 -1.18732E-01
  -1.12499E-01 -1.02270E-01 -9.53013E-02 -8.77813E-02 -8.20936E-02 -7.58617E-02 -7.08585E-02 -6.55623E-02 -6.11543E-02 -5.65714E-02
  -5.26951E-02 -4.85737E-02 -4.53516E-02 -4.21021E-02 -3.96184E-02 -3.69843E-02 -3.52401E-02 -3.31501E-02 -3.25394E-02 -3.05465E-02
  -3.04384E-02 -2.78396E-02 -2.77295E-02 -2.42063E-02 -2.37825E-02 -1.97422E-02 -1.87108E-02 -1.36916E-02 -1.19253E-02 -3.95822E-03
  -2.25409E-03  9.41979E-03  1.08864E-02  2.66577E-02  2.92129E-02  4.79799E-02  5.09201E-02  7.12871E-02  7.30138E-02  9.26873E-02
   9.04027E-02  1.06619E-01  9.91076E-02  1.09876E-01  9.68746E-02  1.01071E-01  8.33790E-02  8.17961E-02  6.04565E-02  5.53284E-02
   3.27989E-02  2.68391E-02  5.17336E-03  3.55260E-04 -1.84777E-02 -2.11979E-02 -3.62107E-02 -3.73881E-02 -4.86919E-02 -4.93626E-02
  -5.85142E-02 -5.66455E-02 -6.55433E-02 -5.91969E-02 -6.81415E-02 -5.59704E-02 -6.34421E-02 -4.75238E-02 -5.04792E-02 -3.40213E-02
  -3.04280E-02 -1.76704E-02 -6.96332E-03 -2.43250E-03  1.30339E-02  6.43814E-03  2.30223E-02  5.77787E-03  1.95660E-02 -4.83697E-03
   3.30443E-03 -2.28525E-02 -2.08449E-02 -4.51103E-02 -4.76164E-02 -7.02899E-02 -7.69023E-02 -9.85424E-02 -1.09485E-01 -1.26457E-01
  -1.38583E-01 -1.46094E-01 -1.52310E-01 -1.47316E-01 -1.41772E-01 -1.25437E-01 -1.05685E-01 -8.05307E-02 -4.89335E-02 -1.84044E-02
   2.04757E-02  5.17498E-02  9.06963E-02  1.17877E-01  1.48949E-01  1.69259E-01  1.86934E-01  2.00427E-01  2.03912E-01  2.12719E-01
   2.06107E-01  2.12047E-01  2.01481E-01  2.04477E-01  1.93651E-01  1.92961E-01  1.81859E-01  1.78161E-01  1.65478E-01  1.60993E-01
   1.45877E-01  1.42956E-01  1.24906E-01  1.24335E-01  1.02679E-01  1.04225E-01  7.74668E-02  8.10117E-02  4.78362E-02  5.43050E-02
   1.71307E-02  2.88665E-02 -1.40940E-02  5.40524E-03 -4.35614E-02 -1.57751E-02 -6.95664E-02 -3.71394E-02 -9.28185E-02 -6.20252E-02
  -1.13684E-01 -8.95177E-02 -1.28332E-01 -1.12844E-01 -1.40594E-01 -1.33932E-01 -1.69030E-01 -1.67910E-01 -2.20729E-01 -2.17313E-01
  -2.90376E-01 -2.75718E-01 -3.58190E-01 -3.26619E-01 -4.08485E-01 -3.60602E-01 -4.29655E-01 -3.70547E-01 -4.14407E-01 -3.50926E-01
  -3.62981E-01 -3.01660E-01 -2.87443E-01 -2.33323E-01 -2.05081E-01 -1.61257E-01 -1.33641E-01 -1.01356E-01 -8.22289E-02 -6.04000E-02
  -4.80835E-02 -3.41053E-02 -2.38980E-02 -1.55061E-02 -7.53192E-03 -3.29759E-03  3.29790E-03  4.59365E-03  8.74147E-03  8.31284E-03
   1.30199E-02  1.22190E-02  1.74494E-02  1.69339E-02  2.21728E-02  2.22591E-02  2.69937E-02  2.76765E-02  3.16803E-02  3.27385E-02
   3.60562E-02  3.72605E-02  4.00112E-02  4.12673E-02  4.35018E-02  4.48025E-02  4.65332E-02  4.78659E-02  4.91292E-02  5.04253E-02
   5.12831E-02  5.24518E-02  5.29561E-02  5.39153E-02  5.40982E-02  5.47597E-02  5.46393E-02  5.49071E-02  5.44777E-02  5.42916E-02
   5.35379E-02  5.29051E-02  5.17993E-02  5.07775E-02  4.93310E-02  4.80072E-02  4.62722E-02  4.47505E-02  4.28158E-02  4.11988E-02
   3.91821E-02  3.75591E-02  3.55816E-02  3.40174E-02  3.21823E-02  3.07311E-02  2.91104E-02  2.78161E-02  2.64533E-02  2.53527E-02
   2.42678E-02  2.34049E-02  2.26348E-02  2.20560E-02  2.16550E-02  2.13841E-02  2.13876E-02  2.14295E-02  2.18578E-02  2.22423E-02
   2.30759E-02  2.38356E-02  2.50328E-02  2.61942E-02  2.76903E-02  2.92747E-02  3.10010E-02  3.30254E-02  3.49203E-02  3.72988E-02
   3.93879E-02  4.20141E-02  4.43504E-02  4.71928E-02  4.97313E-02  5.27646E-02  5.53451E-02  5.85743E-02  6.08958E-02  6.43145E-02
   6.60004E-02  6.94060E-02  7.01707E-02  7.32896E-02  7.29977E-02  7.60528E-02  7.44418E-02  7.80783E-02  7.47272E-02  7.94713E-02
   7.40750E-02  7.99835E-02  7.25925E-02  7.92823E-02  7.03319E-02  7.72259E-02  6.73690E-02  7.37082E-02  6.37549E-02  6.87699E-02
   5.96031E-02  6.28491E-02  5.51912E-02  5.67367E-02  5.09666E-02  5.13355E-02  4.74393E-02  4.73496E-02  4.50091E-02  4.49635E-02
   4.37779E-02  4.39169E-02  4.35748E-02  4.39042E-02  4.41563E-02  4.46720E-02  4.52711E-02  4.59608E-02  4.66548E-02  4.74357E-02
   4.80180E-02  4.87171E-02  4.90979E-02  4.95924E-02  4.97350E-02  4.99331E-02  4.98364E-02  4.97000E-02  4.93763E-02  4.89042E-02
   4.83721E-02  4.75936E-02  4.68634E-02  4.58402E-02  4.49190E-02  4.37215E-02  4.26092E-02  4.12874E-02  3.99701E-02  3.85253E-02
   3.69581E-02  3.53684E-02  3.35198E-02  3.17373E-02  2.95659E-02  2.75189E-02  2.49720E-02  2.25828E-02  1.96081E-02  1.68120E-02
   1.33877E-02  1.01670E-02  6.32596E-03  2.72410E-03 -1.44710E-03 -5.30584E-03 -9.63598E-03 -1.35538E-02 -1.78116E-02 -2.15263E-02
  -2.54204E-02 -2.86393E-02 -3.19013E-02 -3.43638E-02 -3.67760E-02 -3.83131E-02 -3.97687E-02 -4.03119E-02 -4.08094E-02 -4.03769E-02
  -3.99999E-02 -3.86739E-02 -3.75452E-02 -3.54855E-02 -3.37237E-02 -3.11348E-02 -2.88476E-02 -2.59258E-02 -2.32149E-02 -2.01404E-02
  -1.70994E-02 -1.40282E-02 -1.07565E-02 -7.82971E-03 -4.44899E-03 -1.75058E-03  1.59254E-03  4.02308E-03  7.18790E-03  9.35781E-03
   1.22318E-02  1.41582E-02  1.66739E-02  1.83694E-02  2.04867E-02  2.19652E-02  2.36885E-02  2.49602E-02  2.63373E-02  2.74357E-02
   2.85359E-02  2.94652E-02  3.03766E-02  3.11397E-02  3.19234E-02  3.25335E-02  3.32221E-02  3.36957E-02  3.43001E-02  3.46453E-02
   3.51655E-02  3.53997E-02  3.58354E-02  3.59837E-02  3.63336E-02  3.64019E-02  3.66674E-02  3.66777E-02  3.68765E-02  3.68463E-02
   3.69982E-02  3.69642E-02  3.70739E-02  3.70346E-02  3.71199E-02  3.70549E-02  3.71587E-02  3.70456E-02  3.72191E-02  3.70532E-02
   3.73400E-02  3.71199E-02  3.75371E-02  3.72886E-02  3.78413E-02  3.76002E-02  3.82657E-02  3.80466E-02  3.87837E-02  3.86061E-02
   3.93684E-02  3.92499E-02  4.00010E-02  3.99292E-02  4.06623E-02  4.05962E-02  4.13463E-02  4.12738E-02  4.20530E-02  4.20160E-02
   4.28045E-02  4.28390E-02  4.36080E-02  4.37278E-02  4.44657E-02  4.46578E-02  4.53521E-02  4.55961E-02  4.62518E-02  4.65135E-02
   4.71400E-02  4.73920E-02  4.80110E-02  4.82661E-02  4.88971E-02  4.91917E-02  4.98309E-02  5.02343E-02  5.08639E-02  5.14341E-02
   5.20407E-02  5.28086E-02  5.34263E-02  5.43875E-02  5.50847E-02  5.62285E-02  5.70628E-02  5.83978E-02  5.93871E-02  6.09450E-02
   6.21048E-02  6.39290E-02  6.52789E-02  6.74064E-02
 NY background values follow
     2.875E-02    2.869E-02    2.863E-02    2.857E-02    2.851E-02    2.844E-02    2.838E-02    2.832E-02    2.826E-02    2.820E-02
     2.814E-02    2.807E-02    2.801E-02    2.795E-02    2.789E-02    2.783E-02    2.777E-02    2.770E-02    2.764E-02    2.758E-02
     2.752E-02    2.746E-02    2.740E-02    2.733E-02    2.727E-02    2.721E-02    2.715E-02    2.709E-02    2.703E-02    2.696E-02
     2.690E-02    2.684E-02    2.678E-02    2.672E-02    2.666E-02    2.659E-02    2.653E-02    2.647E-02    2.641E-02    2.635E-02
     2.628E-02    2.622E-02    2.616E-02    2.610E-02    2.604E-02    2.598E-02    2.591E-02    2.585E-02    2.579E-02    2.573E-02
     2.567E-02    2.560E-02    2.554E-02    2.548E-02    2.542E-02    2.536E-02    2.529E-02    2.523E-02    2.517E-02    2.511E-02
     2.505E-02    2.498E-02    2.492E-02    2.486E-02    2.480E-02    2.473E-02    2.467E-02    2.461E-02    2.455E-02    2.449E-02
