 LCModel (Version 6.3-1N) Copyright: S.W. Provencher.          Ref.: Magn. Reson. Med. 30:672-679 (1993).                
 Slice_N1@18_11  02-Jun-2023 14:37:03
 27 lines in following concentration table = NCONC+1
    Conc.  %SD /Cr+PCr  Metabolite                                         
 1.95E-06  18% 2.3E-04 Mac                                                 
 4.12E-02  31%   4.944 Cr                                                  
 2.55E-02  52%   3.056 PCr                                                 
    0.101   9%  12.062 Ins                                                 
    0.101   7%  12.169 NAA                                                 
 7.02E-02  12%   8.427 Tau                                                 
 1.42E-02  15%   1.704 PCho                                                
    0.000 999%   0.000 GPC                                                 
 7.29E-02  14%   8.742 Glu                                                 
 2.79E-02  27%   3.347 Gln                                                 
 3.20E-03 242%   0.384 Ala                                                 
 2.91E-02  48%   3.486 Asc                                                 
 1.42E-02  52%   1.704 Asp                                                 
 8.18E-03  49%   0.982 GABA                                                
 7.20E-03  67%   0.864 Glc                                                 
 8.90E-03  50%   1.068 GSH                                                 
    0.000 999%   0.000 Lac                                                 
    0.000 999%   0.000 NAAG                                                
    0.000 999%   0.000 PE                                                  
 1.42E-02  15%   1.704 GPC+PCho                                            
    0.101   7%  12.169 NAA+NAAG                                            
    0.101  12%  12.089 Glu+Gln                                             
 6.67E-02  10%   8.000 Cr+PCr                                              
    0.101   7%  12.169 NAA+NAAG                                            
 6.67E-02  10%   8.000 Cr+PCr                                              
    0.101  12%  12.089 Glu+Gln                                             
   6 lines in following misc. output table
  FWHM = 0.029 ppm    S/N =   4                                            
  Data shift =-0.006 ppm                                                   
  Ph: -68 deg     -17.2 deg/ppm                                            
  alphaB,S = 3.1E+01,   1.1E+01                                            
   18 spline knots.   Ns = 6(1)                                            
   2 inflections.     1 extrema                                            
  654 points on ppm-axis = NY
      4.000000     3.994181     3.988363     3.982544     3.976726     3.970907     3.965088     3.959270     3.953451     3.947633
      3.941814     3.935995     3.930177     3.924358     3.918540     3.912721     3.906902     3.901084     3.895265     3.889446
      3.883628     3.877809     3.871991     3.866172     3.860353     3.854535     3.848716     3.842898     3.837079     3.831260
      3.825442     3.819623     3.813805     3.807986     3.802167     3.796349     3.790530     3.784712     3.778893     3.773074
      3.767256     3.761437     3.755619     3.749800     3.743981     3.738163     3.732344     3.726526     3.720707     3.714888
      3.709070     3.703251     3.697433     3.691614     3.685795     3.679977     3.674158     3.668339     3.662521     3.656702
      3.650884     3.645065     3.639246     3.633428     3.627609     3.621791     3.615972     3.610153     3.604335     3.598516
      3.592698     3.586879     3.581060     3.575242     3.569423     3.563605     3.557786     3.551967     3.546149     3.540330
      3.534512     3.528693     3.522874     3.517056     3.511237     3.505419     3.499600     3.493781     3.487963     3.482144
      3.476326     3.470507     3.464688     3.458870     3.453051     3.447232     3.441414     3.435595     3.429777     3.423958
      3.418139     3.412321     3.406502     3.400684     3.394865     3.389046     3.383228     3.377409     3.371591     3.365772
      3.359953     3.354135     3.348316     3.342498     3.336679     3.330860     3.325042     3.319223     3.313405     3.307586
      3.301767     3.295949     3.290130     3.284312     3.278493     3.272674     3.266856     3.261037     3.255219     3.249400
      3.243581     3.237763     3.231944     3.226125     3.220307     3.214488     3.208670     3.202851     3.197032     3.191214
      3.185395     3.179577     3.173758     3.167939     3.162121     3.156302     3.150484     3.144665     3.138846     3.133028
      3.127209     3.121391     3.115572     3.109753     3.103935     3.098116     3.092298     3.086479     3.080660     3.074842
      3.069023     3.063205     3.057386     3.051567     3.045749     3.039930     3.034111     3.028293     3.022474     3.016656
      3.010837     3.005018     2.999200     2.993381     2.987563     2.981744     2.975925     2.970107     2.964288     2.958470
      2.952651     2.946832     2.941014     2.935195     2.929377     2.923558     2.917739     2.911921     2.906102     2.900284
      2.894465     2.888646     2.882828     2.877009     2.871191     2.865372     2.859553     2.853735     2.847916     2.842098
      2.836279     2.830460     2.824642     2.818823     2.813004     2.807186     2.801367     2.795549     2.789730     2.783911
      2.778093     2.772274     2.766456     2.760637     2.754818     2.749000     2.743181     2.737363     2.731544     2.725725
      2.719907     2.714088     2.708270     2.702451     2.696632     2.690814     2.684995     2.679177     2.673358     2.667539
      2.661721     2.655902     2.650084     2.644265     2.638446     2.632628     2.626809     2.620991     2.615172     2.609353
      2.603535     2.597716     2.591897     2.586079     2.580260     2.574442     2.568623     2.562804     2.556986     2.551167
      2.545349     2.539530     2.533711     2.527893     2.522074     2.516256     2.510437     2.504618     2.498800     2.492981
      2.487163     2.481344     2.475525     2.469707     2.463888     2.458070     2.452251     2.446432     2.440614     2.434795
      2.428977     2.423158     2.417339     2.411521     2.405702     2.399884     2.394065     2.388246     2.382428     2.376609
      2.370790     2.364972     2.359153     2.353335     2.347516     2.341697     2.335879     2.330060     2.324242     2.318423
      2.312604     2.306786     2.300967     2.295149     2.289330     2.283511     2.277693     2.271874     2.266056     2.260237
      2.254418     2.248600     2.242781     2.236963     2.231144     2.225325     2.219507     2.213688     2.207870     2.202051
      2.196232     2.190414     2.184595     2.178777     2.172958     2.167139     2.161321     2.155502     2.149683     2.143865
      2.138046     2.132228     2.126409     2.120590     2.114772     2.108953     2.103135     2.097316     2.091497     2.085679
      2.079860     2.074042     2.068223     2.062404     2.056586     2.050767     2.044949     2.039130     2.033311     2.027493
      2.021674     2.015856     2.010037     2.004218     1.998400     1.992581     1.986763     1.980944     1.975126     1.969307
      1.963489     1.957670     1.951852     1.946033     1.940215     1.934397     1.928578     1.922760     1.916941     1.911123
      1.905304     1.899486     1.893667     1.887849     1.882030     1.876212     1.870393     1.864575     1.858756     1.852938
      1.847119     1.841301     1.835482     1.829664     1.823845     1.818027     1.812208     1.806390     1.800571     1.794753
      1.788934     1.783116     1.777297     1.771479     1.765660     1.759842     1.754023     1.748205     1.742386     1.736568
      1.730749     1.724931     1.719113     1.713294     1.707476     1.701657     1.695839     1.690020     1.684202     1.678383
      1.672565     1.666746     1.660928     1.655109     1.649291     1.643472     1.637654     1.631835     1.626017     1.620198
      1.614380     1.608561     1.602743     1.596924     1.591106     1.585287     1.579469     1.573650     1.567832     1.562013
      1.556195     1.550376     1.544558     1.538739     1.532921     1.527102     1.521284     1.515465     1.509647     1.503829
      1.498010     1.492192     1.486373     1.480555     1.474736     1.468918     1.463099     1.457281     1.451462     1.445644
      1.439825     1.434007     1.428188     1.422370     1.416551     1.410733     1.404914     1.399096     1.393277     1.387459
      1.381640     1.375822     1.370003     1.364185     1.358366     1.352548     1.346729     1.340911     1.335092     1.329274
      1.323455     1.317637     1.311818     1.306000     1.300182     1.294363     1.288545     1.282726     1.276908     1.271089
      1.265271     1.259452     1.253634     1.247815     1.241997     1.236178     1.230360     1.224541     1.218723     1.212904
      1.207086     1.201267     1.195449     1.189630     1.183812     1.177993     1.172175     1.166356     1.160538     1.154719
      1.148901     1.143082     1.137264     1.131445     1.125627     1.119808     1.113990     1.108171     1.102353     1.096534
      1.090716     1.084898     1.079079     1.073261     1.067442     1.061624     1.055805     1.049987     1.044168     1.038350
      1.032531     1.026713     1.020894     1.015076     1.009257     1.003439     0.997620     0.991802     0.985983     0.980165
      0.974346     0.968528     0.962709     0.956891     0.951072     0.945254     0.939435     0.933617     0.927798     0.921980
      0.916161     0.910343     0.904524     0.898706     0.892887     0.887069     0.881251     0.875432     0.869614     0.863795
      0.857977     0.852158     0.846340     0.840521     0.834703     0.828884     0.823066     0.817247     0.811429     0.805610
      0.799792     0.793973     0.788155     0.782336     0.776518     0.770699     0.764881     0.759062     0.753244     0.747425
      0.741607     0.735788     0.729970     0.724151     0.718333     0.712514     0.706696     0.700877     0.695059     0.689240
      0.683422     0.677603     0.671785     0.665967     0.660148     0.654330     0.648511     0.642693     0.636874     0.631056
      0.625237     0.619419     0.613600     0.607782     0.601963     0.596145     0.590326     0.584508     0.578689     0.572871
      0.567052     0.561234     0.555415     0.549597     0.543778     0.537960     0.532141     0.526323     0.520504     0.514686
      0.508867     0.503049     0.497230     0.491412     0.485593     0.479775     0.473956     0.468138     0.462319     0.456501
      0.450682     0.444864     0.439045     0.433227     0.427408     0.421590     0.415771     0.409953     0.404134     0.398316
      0.392497     0.386679     0.380860     0.375042     0.369223     0.363405     0.357586     0.351767     0.345949     0.340130
      0.334312     0.328493     0.322675     0.316856     0.311038     0.305219     0.299401     0.293582     0.287764     0.281945
      0.276127     0.270308     0.264490     0.258671     0.252853     0.247034     0.241216     0.235397     0.229579     0.223760
      0.217942     0.212123     0.206305     0.200486
 NY phased data points follow
   7.56376E-02 -2.52040E-02  3.50112E-02  2.98010E-01 -3.11463E-01 -3.90580E-01 -5.51913E-01 -4.92497E-01 -2.57991E-01 -3.37680E-01
   1.66684E-01  1.36469E-01  4.53432E-02  4.45482E-01  2.50223E-01  6.07395E-03  2.69610E-02  2.93845E-01  2.13418E-01 -1.33210E-01
   1.25415E-01  1.47386E-01  9.57351E-02  1.68248E-01  1.26201E-01 -7.24162E-02  1.39567E-01  2.42493E-01  6.31482E-02  1.19096E-01
  -3.50085E-01  1.86151E-02 -1.26280E-01 -2.49216E-01 -1.61299E-01 -4.67568E-01 -3.73944E-02 -5.05681E-01 -3.42387E-01 -6.29754E-02
  -9.69011E-02  2.15908E-01  3.46919E-01  6.74657E-01  4.69296E-01  4.11370E-01  7.11984E-01  2.16542E-01  1.53810E-01  2.21432E-01
  -6.39663E-02  2.63280E-01 -7.87658E-02 -1.54726E-01 -1.90085E-02 -9.72629E-03 -3.75525E-01 -4.55564E-01 -1.16919E-01 -4.01353E-01
  -4.74986E-01 -5.35852E-01 -8.92895E-02 -5.08752E-01 -3.85640E-01  5.98156E-02 -1.31680E-01  1.84955E-01  9.84862E-04  3.53882E-02
   3.00734E-01  2.46566E-01 -1.70139E-01 -3.68031E-02  3.81179E-02 -1.52859E-02 -8.80874E-02 -2.45920E-01 -4.06282E-01 -4.68202E-01
  -1.86126E-01 -3.05394E-01  1.22368E-01  3.63535E-01  2.42943E-01  3.44533E-01  5.48188E-01  3.75656E-01  1.13903E-01  3.42501E-01
   1.99213E-01  2.93818E-01  3.04618E-01  8.06329E-02  2.48723E-01  2.32637E-01  9.89595E-02 -2.56008E-02 -9.98746E-02 -1.42144E-01
  -2.54495E-01 -1.55818E-01 -8.67838E-02  2.69446E-01  4.20219E-01  4.47416E-01  6.46604E-01  4.12924E-01  3.91190E-01  5.13510E-01
   4.55599E-01  3.44378E-01  4.68882E-01  2.30807E-01  2.40685E-01  3.84546E-01  2.08305E-01  4.71468E-01  1.23242E-01  1.75034E-01
   4.86914E-01 -8.70866E-02 -1.39263E-01 -2.35687E-01 -3.81146E-01 -9.04752E-02 -2.69283E-01 -1.16913E-01 -2.66897E-01 -5.69616E-01
  -6.83624E-01 -7.86147E-01 -3.79764E-01 -5.93476E-01 -6.95069E-01 -6.80258E-01 -6.93676E-01 -6.42325E-01 -5.56449E-01 -5.43392E-01
  -3.66480E-01  1.45571E-04 -7.69265E-02  9.99648E-02 -3.41131E-02  3.39878E-01  3.42331E-01  7.10927E-02  1.89194E-01  1.87294E-02
   2.64433E-01  1.15700E-01  3.36538E-01  2.85766E-01 -1.12653E-01  2.68562E-01  5.46431E-01  1.23521E-01  7.52613E-02  2.41600E-01
   2.35742E-01  7.77720E-01  5.72708E-01  5.19331E-01  7.25773E-01  7.53435E-01  6.19516E-01  2.93123E-01  1.29729E-01 -8.39551E-01
  -1.15662E+00 -5.16971E-01 -4.69373E-01 -8.53852E-01 -6.55132E-01 -4.13057E-01 -4.45233E-01 -1.29965E-01 -1.51896E-01 -3.03052E-01
  -4.11576E-01 -5.16562E-01 -2.71334E-01 -2.32665E-01 -3.25931E-01 -1.46602E-01 -5.62455E-02 -2.21369E-01 -3.60489E-01 -3.95181E-01
  -1.86760E-01 -1.68820E-01 -2.66451E-01 -1.89255E-02 -2.74525E-01  9.54931E-05  5.53453E-02 -3.19298E-01 -1.51506E-02 -2.43953E-02
  -2.12239E-02 -8.32303E-02  3.12355E-01  3.38741E-01  1.01287E-01 -8.77546E-02 -8.14926E-02  2.02616E-01  1.25418E-02  3.93834E-01
   7.25755E-02 -4.15306E-01 -1.53518E-01  5.92203E-02  5.54540E-02  1.55062E-01  2.50442E-02 -9.80823E-02 -1.16707E-02 -2.06297E-01
   7.78367E-02  2.36337E-01  8.65298E-02 -1.00402E-01  3.36957E-02  2.00378E-01  2.02134E-01  4.15962E-01  5.67171E-01  1.10769E-01
   1.88425E-01  4.46675E-01  1.40378E-01  6.20410E-02 -1.39795E-01  1.01908E-01  6.76595E-02  1.78086E-02 -3.10071E-01 -1.83180E-01
  -1.71637E-02 -2.59021E-01 -5.30445E-02 -1.40414E-01  6.53842E-02 -1.28837E-01 -1.70127E-01 -2.08013E-01  1.84491E-02  9.79608E-02
   1.34630E-01 -8.71089E-02 -3.96243E-01 -1.07517E-01 -1.06566E-01  1.37431E-01 -1.94091E-01 -3.04313E-02 -3.44671E-02 -2.32478E-02
   7.69746E-02  1.83458E-01  4.35594E-01 -1.58075E-02 -8.62887E-02  1.20314E-02  2.32507E-01 -2.96753E-02  1.66807E-02  1.24105E-01
   2.68548E-01  2.99650E-01  6.94546E-02  2.94502E-01  2.72170E-01 -1.00943E-02 -3.45395E-01 -6.84115E-02  1.03458E-01 -2.44666E-02
  -8.44064E-02 -1.37091E-01 -2.63801E-01 -1.48274E-01 -9.92220E-02  7.69601E-02  4.86618E-01  4.64966E-01  3.89819E-01  2.80447E-01
   6.62748E-01  4.90396E-01  1.23845E-01  1.96009E-01  2.25527E-01  1.11868E-01 -1.04727E-01  2.82078E-01 -2.45533E-02 -6.63409E-02
   5.52294E-01  3.45301E-01 -2.10371E-02  2.93842E-02  3.93294E-01  4.36493E-01  2.05125E-01  2.89380E-01  4.08450E-01  1.00413E-01
   3.37643E-01  3.73948E-01  2.54620E-01  3.22762E-01 -3.27840E-02  3.92833E-01  2.06116E-01  5.76822E-02 -5.95681E-02 -1.98448E-01
   1.20069E-01 -3.83009E-01 -2.59793E-01 -2.08480E-01 -1.60310E-01 -1.30804E-01 -3.12042E-01 -1.21648E-01 -1.17624E-01 -1.55339E-01
  -1.08878E-01  7.87446E-02 -1.01971E-01 -2.50957E-01  5.41523E-03  1.40369E-01 -7.49077E-02 -3.60955E-01 -4.82553E-01 -5.24622E-01
  -7.75187E-01 -8.91359E-01 -1.05092E+00 -1.56461E+00 -1.76192E+00 -1.15371E+00 -2.32970E-01  1.46087E-02 -2.21757E-01 -2.00113E-01
   4.87597E-02  1.87893E-01  3.11382E-01  2.62270E-02  1.36251E-01  1.39170E-02 -1.87591E-01  3.45868E-01  2.71317E-02 -8.18617E-02
   1.17664E-01  4.97309E-02  2.17210E-01  1.69078E-02  7.20803E-02  1.90584E-01 -2.20004E-01 -3.32140E-02 -1.39232E-01 -1.14529E-01
   1.83989E-01 -1.95139E-02  8.31616E-02  1.70638E-01 -2.41423E-02 -4.94192E-02  2.83437E-01  2.31914E-01  3.02944E-01 -4.54953E-02
  -2.14753E-02  2.95506E-01 -1.23430E-02  3.17742E-02  2.83774E-01  3.44954E-01  1.03202E-01  2.85760E-01  1.39881E-01  1.82178E-01
   1.77321E-01  2.35800E-01  4.68240E-01  3.13392E-01  5.02466E-01  4.28924E-01  1.09526E-02 -6.85590E-03  6.72424E-02  2.10493E-01
   4.87420E-01  8.71619E-02  8.64505E-02 -2.38146E-01 -1.94140E-01 -8.99530E-02 -1.39157E-01  1.82315E-02 -7.86788E-02  3.15140E-02
  -1.73638E-01  1.62221E-01 -2.08408E-01  8.76976E-02  3.65331E-02 -2.43313E-01 -4.71353E-02 -4.76109E-02  1.91346E-01 -4.03080E-01
  -1.02843E-01 -1.38517E-02 -1.15664E-01 -5.99096E-02 -1.93999E-01 -2.26848E-01  1.43235E-01 -3.25126E-01 -5.38924E-01  1.00768E-01
  -1.30324E-01  2.43246E-02 -1.69421E-01  1.63116E-01  9.95073E-02 -1.16857E-01  1.39174E-01  1.20983E-01  8.73274E-02  1.18117E-02
   2.30899E-01 -7.44197E-02 -4.01872E-03  7.10441E-02  3.10001E-01  2.66719E-01 -4.31552E-02  2.54671E-01  7.80928E-02  2.87093E-01
   4.96411E-02 -1.41892E-01  5.23526E-01  9.66567E-02  5.30430E-02  2.34027E-01 -2.18458E-02 -1.10463E-01 -4.13459E-01 -1.04227E-01
   5.71615E-02  2.91584E-02  3.47831E-01  2.01538E-01 -3.61414E-02  1.10538E-01  4.92966E-02  6.14853E-02  4.65255E-03  1.37812E-01
   7.28729E-02 -2.58479E-01 -2.27622E-01 -4.91312E-01 -1.94697E-01 -1.51652E-01 -2.02228E-01 -4.05346E-03 -3.30605E-01 -4.20144E-01
  -3.08347E-01 -3.13137E-01 -9.01159E-02 -2.78042E-02 -1.85500E-01 -2.99116E-01 -1.82156E-01 -9.77233E-02 -2.10543E-01  3.08494E-01
  -3.98536E-02 -1.36421E-01  1.46792E-01  3.95250E-02  1.09956E-02  4.82660E-02  6.26265E-02 -6.66005E-02  3.36099E-01  6.83423E-02
   2.27163E-01 -6.78772E-02  9.40724E-02  4.68497E-01  1.38548E-01  5.54355E-01  2.85565E-01  3.64148E-01  2.86498E-01 -7.53755E-02
  -2.05883E-01  5.77163E-02  3.84246E-01  4.14173E-01  1.89761E-01  9.69289E-02  3.48347E-01  2.69035E-01  1.53535E-01 -2.37975E-02
   1.65225E-01 -3.62141E-02 -1.28617E-01 -2.21319E-01 -3.46841E-01 -1.62364E-01 -3.74927E-01 -4.52379E-01 -5.91026E-01 -5.16275E-01
  -2.63259E-01 -2.12581E-01 -4.84095E-01 -4.17767E-01 -1.06452E-02 -1.87526E-01 -1.98535E-01 -1.23877E-01 -4.15695E-01 -2.23091E-01
   1.38503E-01  6.32974E-02 -3.32529E-01 -4.38849E-01 -2.04227E-01 -1.73145E-02  3.42933E-01  3.48370E-01  1.18535E-01  2.06684E-01
   1.12426E-01 -1.35058E-02  1.62619E-01  1.19922E-01  9.02747E-02  1.54527E-01 -2.10501E-02  1.50736E-03  3.13038E-01  2.00054E-01
   1.87223E-01  3.18316E-02 -1.07690E-01 -4.28322E-03 -2.61165E-01  1.58830E-01  2.59750E-01 -2.55980E-03  7.24191E-05  3.51662E-01
  -5.21522E-02 -2.90730E-01  1.81224E-01 -2.16910E-01  1.39369E-02  7.38535E-05 -1.99975E-01 -2.81244E-01 -6.31624E-02 -1.16392E-03
   1.33550E-02  1.12889E-01 -1.62356E-01  1.23918E-01 -3.71236E-01 -1.70471E-01  3.00656E-01 -1.34904E-01 -2.12326E-01  9.50861E-02
   2.07255E-01  1.04156E-01  1.80506E-01  4.19873E-02  1.34659E-01 -8.91671E-02 -3.35287E-01  4.76155E-02  1.03312E-02  1.23680E-01
   9.11112E-02 -2.83916E-01 -7.83894E-02  2.98565E-02  6.68815E-02 -2.21053E-01 -4.35653E-02  6.16391E-02 -7.44806E-02  1.14122E-01
  -9.70709E-02  1.21328E-01 -5.21952E-02 -5.22049E-02  1.11617E-01 -2.04906E-02  1.37898E-02  1.14568E-01 -3.24757E-02 -1.82690E-01
   9.11375E-02  4.30421E-02 -1.17694E-01 -1.81627E-02 -3.11038E-02 -2.46997E-01  1.96332E-01 -3.22737E-02 -1.89028E-01 -7.04468E-02
  -1.32211E-01  3.09632E-01 -4.63868E-02 -1.22668E-01 -1.10476E-01 -1.09464E-01  5.89179E-02  1.72120E-01  2.99939E-01 -9.12701E-04
  -9.32707E-02  7.64748E-02  1.93893E-01  5.70393E-02  8.55492E-02  3.74741E-01  2.30993E-01  8.51128E-02  8.69656E-02 -3.98849E-02
  -1.66087E-02 -4.83943E-02 -1.43073E-02  4.59349E-02
 NY points of the fit to the data follow
   8.78606E-02  6.72021E-02  4.28497E-02  2.27666E-02  1.14715E-02  8.31526E-03  1.73876E-02  3.50859E-02  5.36716E-02  8.20557E-02
   1.41111E-01  2.11710E-01  2.79310E-01  3.78886E-01  4.38227E-01  4.05273E-01  4.01455E-01  3.95101E-01  2.56958E-01  9.85782E-02
   4.78312E-02  3.39335E-02 -6.78859E-03 -4.61761E-02 -7.73277E-02 -1.03416E-01 -1.20088E-01 -1.32414E-01 -1.44561E-01 -1.55334E-01
  -1.67179E-01 -1.81243E-01 -1.96490E-01 -2.14506E-01 -2.33831E-01 -2.47260E-01 -2.51926E-01 -2.45098E-01 -2.10906E-01 -1.46883E-01
  -5.78525E-02  8.01226E-02  2.10927E-01  2.72007E-01  3.12664E-01  3.38792E-01  3.22994E-01  2.83875E-01  2.31550E-01  1.67471E-01
   1.23227E-01  8.78426E-02  3.38494E-02 -1.74352E-02 -6.41191E-02 -1.22102E-01 -1.86561E-01 -2.42535E-01 -2.94994E-01 -3.55433E-01
  -4.02802E-01 -3.98249E-01 -3.77101E-01 -3.28804E-01 -1.64749E-01 -5.79454E-02 -1.36347E-03  2.16920E-01  3.77074E-01  3.58232E-01
   3.60783E-01  3.72794E-01  2.62056E-01  1.24491E-01  3.15279E-02 -5.86030E-02 -1.56158E-01 -2.69555E-01 -3.60879E-01 -3.93013E-01
  -3.99057E-01 -2.62209E-01  4.44196E-02  2.34400E-01  3.04115E-01  4.46582E-01  5.49793E-01  4.90364E-01  4.04240E-01  3.72607E-01
   3.37666E-01  2.87515E-01  2.37330E-01  1.80612E-01  1.12468E-01  3.67673E-02 -4.42831E-02 -1.28787E-01 -2.13563E-01 -2.61871E-01
  -2.40438E-01 -1.45185E-01  1.45090E-02  1.70808E-01  2.77015E-01  3.19871E-01  3.27493E-01  3.25686E-01  3.27857E-01  3.26467E-01
   3.20510E-01  3.15246E-01  3.09961E-01  3.04046E-01  2.98246E-01  2.92187E-01  2.81054E-01  2.65183E-01  2.48950E-01  2.18619E-01
   1.63250E-01  1.10765E-01  3.79261E-02 -8.67587E-02 -1.56781E-01 -2.07528E-01 -3.44009E-01 -4.01325E-01 -4.21360E-01 -5.21738E-01
  -6.10408E-01 -6.40151E-01 -5.63711E-01 -4.68611E-01 -4.42959E-01 -4.75468E-01 -5.58024E-01 -7.55998E-01 -7.25261E-01 -4.02607E-01
  -1.51663E-01 -1.05187E-01 -6.98125E-02 -2.79699E-04  4.70653E-02  7.77371E-02  1.02388E-01  1.23751E-01  1.42076E-01  1.58556E-01
   1.73764E-01  1.88236E-01  2.03074E-01  2.18640E-01  2.34687E-01  2.52378E-01  2.73266E-01  2.97178E-01  3.25461E-01  3.61292E-01
   4.09526E-01  4.77597E-01  5.24945E-01  5.30429E-01  5.41846E-01  5.61710E-01  4.43019E-01  2.64783E-01 -2.31214E-02 -6.33409E-01
  -9.72150E-01 -7.53681E-01 -4.77789E-01 -4.72903E-01 -4.72614E-01 -4.06236E-01 -3.57128E-01 -3.18671E-01 -2.85545E-01 -2.66048E-01
  -2.55903E-01 -2.39575E-01 -2.16399E-01 -1.99789E-01 -1.93837E-01 -1.87535E-01 -1.79228E-01 -1.70578E-01 -1.61413E-01 -1.51146E-01
  -1.43325E-01 -1.35654E-01 -1.25841E-01 -1.15361E-01 -1.06339E-01 -9.77898E-02 -8.87221E-02 -7.96055E-02 -7.03338E-02 -6.13965E-02
  -5.26996E-02 -4.34809E-02 -3.36304E-02 -2.43701E-02 -1.85527E-02 -2.06789E-02 -2.71085E-02 -2.70622E-02 -1.97660E-02 -1.50946E-02
  -2.56268E-02 -4.66441E-02 -5.77017E-02 -5.40669E-02 -4.91909E-02 -4.91303E-02 -4.82538E-02 -4.59905E-02 -4.31680E-02 -3.37761E-02
  -1.38782E-02  9.28580E-03  3.39057E-02  7.74889E-02  1.39505E-01  2.11350E-01  2.94735E-01  3.29293E-01  2.85347E-01  2.50208E-01
   2.81357E-01  3.33320E-01  3.04355E-01  1.68210E-01  4.38325E-02  1.42558E-03 -1.26276E-02 -4.11785E-02 -6.33316E-02 -7.51921E-02
  -8.55195E-02 -9.42087E-02 -1.01279E-01 -1.06148E-01 -1.09744E-01 -1.13074E-01 -1.16985E-01 -1.22355E-01 -1.27537E-01 -1.35273E-01
  -1.45606E-01 -1.53337E-01 -1.59733E-01 -1.70271E-01 -1.76211E-01 -1.52622E-01 -1.21659E-01 -7.81924E-02  1.88119E-02  6.60950E-02
   5.89765E-02  1.02341E-01  1.66732E-01  1.55582E-01  1.13341E-01  1.30138E-01  1.52996E-01  1.28518E-01  1.08293E-01  1.23143E-01
   1.32199E-01  1.31060E-01  1.11436E-01  7.65269E-02  3.05265E-02 -1.57138E-02 -6.67453E-02 -1.15647E-01 -1.62548E-01 -2.08738E-01
  -2.40461E-01 -2.57808E-01 -2.45544E-01 -1.67897E-01 -5.03778E-02  9.69577E-02  2.47002E-01  3.34803E-01  3.67545E-01  3.63601E-01
   3.24687E-01  2.77913E-01  2.49610E-01  2.29475E-01  2.14159E-01  2.06337E-01  2.08688E-01  2.16120E-01  2.18868E-01  2.16966E-01
   2.13350E-01  2.06709E-01  1.99619E-01  1.93926E-01  1.87371E-01  1.80863E-01  1.74176E-01  1.65488E-01  1.55346E-01  1.43141E-01
   1.26972E-01  1.05701E-01  7.96657E-02  4.79631E-02  9.25339E-03 -3.74449E-02 -8.82963E-02 -1.45858E-01 -2.02538E-01 -2.52009E-01
  -2.91942E-01 -3.16518E-01 -3.30697E-01 -3.15504E-01 -2.75369E-01 -2.13334E-01 -1.38453E-01 -6.07706E-02 -4.57977E-03  2.33546E-02
   2.03464E-02 -5.77541E-03 -3.27089E-02 -6.16836E-02 -7.81414E-02 -8.53344E-02 -1.25265E-01 -2.15077E-01 -3.13175E-01 -4.11034E-01
  -6.33757E-01 -9.14769E-01 -1.20905E+00 -1.61066E+00 -1.63804E+00 -1.02530E+00 -4.27775E-01 -2.86741E-01 -2.73362E-01 -1.67401E-01
  -8.17954E-02 -4.43156E-02 -2.15014E-02 -5.02693E-03  7.32089E-03  1.54985E-02  2.12085E-02  2.50047E-02  2.55425E-02  2.19868E-02
   1.72823E-02  9.62439E-03  1.60205E-03 -4.33009E-03 -9.54712E-03 -8.94363E-03 -4.53144E-03  3.82750E-03  1.30488E-02  2.20554E-02
   2.90171E-02  3.59366E-02  4.20956E-02  4.72532E-02  5.23671E-02  5.62609E-02  5.90919E-02  6.22942E-02  6.58510E-02  6.91633E-02
   7.20847E-02  7.44930E-02  7.65362E-02  7.91433E-02  8.17358E-02  8.41371E-02  8.60466E-02  8.75710E-02  8.89608E-02  9.09521E-02
   9.37011E-02  9.59815E-02  9.76482E-02  9.81920E-02  9.75120E-02  9.56449E-02  9.31952E-02  9.07088E-02  8.81656E-02  8.47913E-02
   8.03830E-02  7.53296E-02  6.97302E-02  6.40357E-02  5.83620E-02  5.22139E-02  4.63944E-02  4.15979E-02  3.71449E-02  3.18563E-02
   2.69011E-02  2.30921E-02  1.95255E-02  1.61897E-02  1.33400E-02  1.05617E-02  7.80173E-03  5.34560E-03  3.08739E-03  1.19654E-03
  -2.59469E-04 -1.10303E-03 -1.50674E-03 -1.61395E-03 -4.35742E-04  2.05716E-03  4.69256E-03  7.77072E-03  1.25101E-02  1.84595E-02
   2.46812E-02  3.19546E-02  4.01011E-02  4.79886E-02  5.76257E-02  7.05898E-02  7.85205E-02  7.87844E-02  7.69583E-02  7.36470E-02
   7.24811E-02  7.80650E-02  8.77155E-02  9.60612E-02  1.04511E-01  1.13774E-01  1.22556E-01  1.30968E-01  1.38490E-01  1.44029E-01
   1.47567E-01  1.49621E-01  1.50060E-01  1.49381E-01  1.47809E-01  1.44751E-01  1.40288E-01  1.34286E-01  1.26616E-01  1.17635E-01
   1.08766E-01  1.00580E-01  9.25667E-02  8.41523E-02  7.59387E-02  6.81091E-02  6.07711E-02  5.47981E-02  4.92298E-02  4.34979E-02
   3.84595E-02  3.47249E-02  3.15433E-02  2.88979E-02  2.71241E-02  2.64730E-02  2.74777E-02  2.96761E-02  3.19156E-02  3.45766E-02
   3.81757E-02  4.21306E-02  4.59878E-02  5.02284E-02  5.44312E-02  5.75333E-02  5.97437E-02  6.17915E-02  6.36792E-02  6.51590E-02
   6.69639E-02  6.87147E-02  6.87783E-02  6.75491E-02  6.59935E-02  6.40735E-02  6.20506E-02  5.93497E-02  5.60448E-02  5.31958E-02
   5.09186E-02  4.81147E-02  4.46659E-02  4.14376E-02  3.84477E-02  3.53090E-02  3.19126E-02  2.85860E-02  2.54758E-02  2.28337E-02
   2.05133E-02  1.74750E-02  1.33745E-02  8.96794E-03  4.31788E-03 -1.54114E-03 -8.69834E-03 -1.63602E-02 -2.44135E-02 -3.36446E-02
  -4.48823E-02 -5.78279E-02 -7.19016E-02 -8.66411E-02 -1.00697E-01 -1.13972E-01 -1.26955E-01 -1.39153E-01 -1.49636E-01 -1.58608E-01
  -1.66076E-01 -1.71706E-01 -1.74491E-01 -1.74233E-01 -1.72815E-01 -1.71134E-01 -1.67593E-01 -1.61832E-01 -1.55805E-01 -1.50535E-01
  -1.45231E-01 -1.39295E-01 -1.32934E-01 -1.25578E-01 -1.17223E-01 -1.08971E-01 -1.00487E-01 -9.14309E-02 -8.23660E-02 -7.40360E-02
  -6.59350E-02 -5.77713E-02 -5.02046E-02 -4.27755E-02 -3.55979E-02 -2.94093E-02 -2.40518E-02 -1.86353E-02 -1.30131E-02 -7.92525E-03
  -4.76803E-03 -2.10260E-03  1.66024E-03  4.93112E-03  6.87497E-03  8.50685E-03  1.01344E-02  1.14428E-02  1.28072E-02  1.41481E-02
   1.48688E-02  1.58057E-02  1.78380E-02  1.97704E-02  2.09151E-02  2.21719E-02  2.33529E-02  2.33751E-02  2.30996E-02  2.35049E-02
   2.34741E-02  2.30637E-02  2.31823E-02  2.31018E-02  2.27720E-02  2.29434E-02  2.29477E-02  2.27933E-02  2.30407E-02  2.31169E-02
   2.25982E-02  2.11550E-02  1.90480E-02  1.83694E-02  1.94380E-02  1.98417E-02  1.88637E-02  1.81271E-02  1.82030E-02  1.75545E-02
   1.63830E-02  1.63204E-02  1.74558E-02  1.85119E-02  1.88290E-02  1.91004E-02  1.97125E-02  2.05166E-02  2.11814E-02  2.14312E-02
   2.14643E-02  2.16470E-02  2.17393E-02  2.11873E-02  2.00584E-02  1.99476E-02  2.08003E-02  2.16410E-02  2.22755E-02  2.29550E-02
   2.35691E-02  2.40488E-02  2.43200E-02  2.55556E-02  2.74981E-02  2.81831E-02  2.75713E-02  2.63902E-02  2.53667E-02  2.52480E-02
   2.59251E-02  2.63600E-02  2.56983E-02  2.46196E-02  2.42697E-02  2.45266E-02  2.45786E-02  2.46296E-02  2.43921E-02  2.39641E-02
   2.47531E-02  2.59647E-02  2.58252E-02  2.53616E-02  2.59771E-02  2.69082E-02  2.77738E-02  2.88229E-02  3.03904E-02  3.29130E-02
   3.54619E-02  3.67629E-02  3.74222E-02  3.85914E-02
 NY background values follow
     6.314E-02    6.295E-02    6.277E-02    6.258E-02    6.240E-02    6.221E-02    6.203E-02    6.184E-02    6.166E-02    6.147E-02
     6.129E-02    6.110E-02    6.092E-02    6.073E-02    6.055E-02    6.036E-02    6.018E-02    5.999E-02    5.981E-02    5.962E-02
     5.943E-02    5.925E-02    5.906E-02    5.888E-02    5.869E-02    5.851E-02    5.832E-02    5.813E-02    5.795E-02    5.776E-02
     5.758E-02    5.739E-02    5.720E-02    5.702E-02    5.683E-02    5.665E-02    5.646E-02    5.627E-02    5.609E-02    5.590E-02
     5.571E-02    5.553E-02    5.534E-02    5.515E-02    5.497E-02    5.478E-02    5.459E-02    5.441E-02    5.422E-02    5.403E-02
     5.385E-02    5.366E-02    5.347E-02    5.329E-02    5.310E-02    5.291E-02    5.273E-02    5.254E-02    5.235E-02    5.216E-02
     5.198E-02    5.179E-02    5.160E-02    5.141E-02    5.123E-02    5.104E-02    5.085E-02    5.066E-02    5.048E-02    5.029E-02
