 
 $NMID
 ID=''
 FMTDAT='(2E13.5)'
 TRAMP=   1.00000E+0
 VOLUME=   1.00000E+0
 $END
  -2.10039E+4   7.01369E+3
  -5.72754E+4   1.88582E+3
  -5.61416E+4   1.17554E+4
  -5.18356E+4   1.09019E+4
  -5.39348E+4   9.83706E+3
  -5.33122E+4   1.21309E+4
  -5.11636E+4   1.08670E+4
  -5.19729E+4   9.58873E+3
  -5.15698E+4   1.06624E+4
  -5.03114E+4   9.60071E+3
  -5.08092E+4   8.56559E+3
  -5.05055E+4   9.28894E+3
  -4.96259E+4   8.69985E+3
  -5.02563E+4   7.88639E+3
  -5.00730E+4   8.19734E+3
  -4.94532E+4   7.73851E+3
  -4.97251E+4   7.23816E+3
  -4.94045E+4   7.60449E+3
  -4.88931E+4   7.46782E+3
  -4.90332E+4   6.98316E+3
  -4.87472E+4   7.21956E+3
  -4.81050E+4   7.24210E+3
  -4.81667E+4   6.90976E+3
  -4.79278E+4   6.93850E+3
  -4.71949E+4   6.76414E+3
  -4.71157E+4   6.60010E+3
  -4.69736E+4   6.61546E+3
  -4.63295E+4   6.22366E+3
  -4.62516E+4   5.90594E+3
  -4.58475E+4   5.88299E+3
  -4.53670E+4   5.81976E+3
  -4.52057E+4   5.59433E+3
  -4.50494E+4   5.50449E+3
  -4.45999E+4   5.21876E+3
  -4.42681E+4   5.15915E+3
  -4.40988E+4   5.17111E+3
  -4.36789E+4   4.92453E+3
  -4.33709E+4   4.87645E+3
  -4.31440E+4   4.80588E+3
  -4.28416E+4   4.73366E+3
  -4.26607E+4   4.47111E+3
  -4.24936E+4   4.29855E+3
  -4.22208E+4   3.98457E+3
  -4.18645E+4   3.79386E+3
  -4.16230E+4   3.76514E+3
  -4.14029E+4   3.60525E+3
  -4.12202E+4   3.52810E+3
  -4.10542E+4   3.35325E+3
  -4.07849E+4   3.30517E+3
  -4.04791E+4   3.14995E+3
  -4.02967E+4   3.04175E+3
  -4.00552E+4   2.90676E+3
  -3.97829E+4   2.89649E+3
  -3.95597E+4   2.81798E+3
  -3.94587E+4   2.70383E+3
  -3.92277E+4   2.59507E+3
  -3.90495E+4   2.42263E+3
  -3.88555E+4   2.33031E+3
  -3.85956E+4   2.15398E+3
  -3.82866E+4   2.02754E+3
  -3.80765E+4   1.94592E+3
  -3.79196E+4   1.85963E+3
  -3.77068E+4   1.69120E+3
  -3.75049E+4   1.61784E+3
  -3.72774E+4   1.36342E+3
  -3.69819E+4   1.33028E+3
  -3.68506E+4   1.25982E+3
  -3.66703E+4   1.02738E+3
  -3.63593E+4   9.53917E+2
  -3.61329E+4   7.15990E+2
  -3.59741E+4   6.33554E+2
  -3.57031E+4   5.56385E+2
  -3.54429E+4   4.05342E+2
  -3.53239E+4   2.01138E+2
  -3.49857E+4   1.01766E+2
  -3.47692E+4   2.37925E-1
  -3.45614E+4  -1.06146E+2
  -3.43149E+4  -2.86854E+2
  -3.41148E+4  -3.98977E+2
  -3.39344E+4  -5.26472E+2
  -3.36865E+4  -6.71195E+2
  -3.34665E+4  -8.18085E+2
  -3.32107E+4  -9.50961E+2
  -3.31126E+4  -1.05806E+3
  -3.28954E+4  -1.20867E+3
  -3.26776E+4  -1.42361E+3
  -3.24352E+4  -1.57646E+3
  -3.20776E+4  -1.68514E+3
  -3.19641E+4  -1.73982E+3
  -3.17349E+4  -1.89201E+3
  -3.14635E+4  -1.98358E+3
  -3.12837E+4  -2.14828E+3
  -3.10889E+4  -2.28529E+3
  -3.09233E+4  -2.36344E+3
  -3.07289E+4  -2.46670E+3
  -3.03812E+4  -2.56366E+3
  -3.01799E+4  -2.57694E+3
  -2.99723E+4  -2.75790E+3
  -2.98042E+4  -2.82329E+3
  -2.96283E+4  -2.86664E+3
  -2.93806E+4  -3.00643E+3
  -2.91909E+4  -3.04938E+3
  -2.90339E+4  -3.08868E+3
  -2.88030E+4  -3.20611E+3
  -2.86563E+4  -3.32429E+3
  -2.84409E+4  -3.38297E+3
  -2.82906E+4  -3.45743E+3
  -2.80197E+4  -3.43402E+3
  -2.78220E+4  -3.59703E+3
  -2.76714E+4  -3.62561E+3
  -2.74444E+4  -3.64662E+3
  -2.72506E+4  -3.67938E+3
  -2.71160E+4  -3.73496E+3
  -2.69394E+4  -3.82908E+3
  -2.67637E+4  -3.79889E+3
  -2.64951E+4  -3.93127E+3
  -2.63892E+4  -4.00408E+3
  -2.61787E+4  -4.06483E+3
  -2.60274E+4  -4.09204E+3
  -2.58718E+4  -4.10822E+3
  -2.57077E+4  -4.18394E+3
  -2.55682E+4  -4.22961E+3
  -2.53414E+4  -4.27556E+3
  -2.51528E+4  -4.37131E+3
  -2.49550E+4  -4.32442E+3
  -2.48293E+4  -4.40903E+3
  -2.46120E+4  -4.50413E+3
  -2.44733E+4  -4.50226E+3
  -2.43581E+4  -4.51314E+3
  -2.40986E+4  -4.58856E+3
  -2.39976E+4  -4.65572E+3
  -2.37803E+4  -4.72745E+3
  -2.36568E+4  -4.68944E+3
  -2.34384E+4  -4.71156E+3
  -2.32916E+4  -4.78865E+3
  -2.31649E+4  -4.78140E+3
  -2.29493E+4  -4.80927E+3
  -2.27974E+4  -4.88411E+3
  -2.25987E+4  -4.89692E+3
  -2.24453E+4  -4.93007E+3
  -2.22338E+4  -4.97538E+3
  -2.21171E+4  -4.99756E+3
  -2.19073E+4  -4.96973E+3
  -2.17558E+4  -5.05508E+3
  -2.15916E+4  -5.02452E+3
  -2.14127E+4  -5.18213E+3
  -2.12268E+4  -5.12432E+3
  -2.10440E+4  -5.12596E+3
  -2.08684E+4  -5.18954E+3
  -2.07186E+4  -5.19441E+3
  -2.06045E+4  -5.16518E+3
  -2.03415E+4  -5.22023E+3
  -2.01476E+4  -5.18395E+3
  -2.00030E+4  -5.17265E+3
  -1.97610E+4  -5.17273E+3
  -1.95437E+4  -5.20636E+3
  -1.94562E+4  -5.23890E+3
  -1.92339E+4  -5.21771E+3
  -1.91022E+4  -5.25598E+3
  -1.89425E+4  -5.21472E+3
  -1.87708E+4  -5.12849E+3
  -1.85579E+4  -5.21067E+3
  -1.83183E+4  -5.19992E+3
  -1.81743E+4  -5.23718E+3
  -1.79607E+4  -5.20997E+3
  -1.78003E+4  -5.20080E+3
  -1.76480E+4  -5.31693E+3
  -1.74735E+4  -5.20898E+3
  -1.73034E+4  -5.18153E+3
  -1.71391E+4  -5.22485E+3
  -1.69563E+4  -5.24886E+3
  -1.67717E+4  -5.22255E+3
  -1.66476E+4  -5.22035E+3
  -1.64329E+4  -5.23311E+3
  -1.62296E+4  -5.16811E+3
  -1.61079E+4  -5.14199E+3
  -1.58855E+4  -5.16940E+3
  -1.57323E+4  -5.09366E+3
  -1.55545E+4  -5.06249E+3
  -1.54478E+4  -5.10214E+3
  -1.52820E+4  -5.18860E+3
  -1.50727E+4  -5.15525E+3
  -1.49158E+4  -5.14862E+3
  -1.47793E+4  -5.16406E+3
  -1.45707E+4  -5.15482E+3
  -1.43645E+4  -5.11885E+3
  -1.42807E+4  -5.18211E+3
  -1.41141E+4  -5.17666E+3
  -1.38782E+4  -5.22849E+3
  -1.37323E+4  -5.20574E+3
  -1.35771E+4  -5.22390E+3
  -1.34707E+4  -5.23073E+3
  -1.32683E+4  -5.19298E+3
  -1.30306E+4  -5.28501E+3
  -1.29546E+4  -5.28005E+3
  -1.27074E+4  -5.34341E+3
  -1.26530E+4  -5.24005E+3
  -1.24946E+4  -5.35906E+3
  -1.22921E+4  -5.28416E+3
  -1.21024E+4  -5.31325E+3
  -1.19868E+4  -5.36651E+3
  -1.18608E+4  -5.38870E+3
  -1.16829E+4  -5.38133E+3
  -1.14966E+4  -5.41785E+3
  -1.14101E+4  -5.38181E+3
  -1.12122E+4  -5.39905E+3
  -1.11239E+4  -5.45755E+3
  -1.08915E+4  -5.46529E+3
  -1.08246E+4  -5.43816E+3
  -1.06071E+4  -5.53821E+3
  -1.06080E+4  -5.54822E+3
  -1.03834E+4  -5.58807E+3
  -1.03164E+4  -5.57719E+3
  -1.01099E+4  -5.62336E+3
  -1.00558E+4  -5.58629E+3
  -9.91251E+3  -5.59593E+3
  -9.75276E+3  -5.63884E+3
  -9.68417E+3  -5.67777E+3
  -9.64208E+3  -5.66945E+3
  -9.39614E+3  -5.75992E+3
  -9.27654E+3  -5.79551E+3
  -9.17795E+3  -5.86806E+3
  -9.11317E+3  -5.79628E+3
  -8.96542E+3  -5.88336E+3
  -8.89320E+3  -5.88621E+3
  -8.74066E+3  -5.86562E+3
  -8.64282E+3  -5.86190E+3
  -8.52214E+3  -5.97449E+3
  -8.46019E+3  -5.97800E+3
  -8.30894E+3  -6.06726E+3
  -8.26327E+3  -5.98882E+3
  -8.11586E+3  -6.10121E+3
  -8.03104E+3  -6.10493E+3
  -7.90743E+3  -6.12372E+3
  -7.77614E+3  -6.09737E+3
  -7.69336E+3  -6.12134E+3
  -7.61771E+3  -6.18347E+3
  -7.54720E+3  -6.27560E+3
  -7.45921E+3  -6.23178E+3
  -7.36618E+3  -6.29820E+3
  -7.29251E+3  -6.32140E+3
  -7.19742E+3  -6.31358E+3
  -7.12079E+3  -6.35086E+3
  -7.01918E+3  -6.38363E+3
  -6.88621E+3  -6.39985E+3
  -6.86109E+3  -6.41907E+3
  -6.79827E+3  -6.46291E+3
  -6.70051E+3  -6.48790E+3
  -6.56079E+3  -6.43543E+3
  -6.57077E+3  -6.42284E+3
  -6.54234E+3  -6.55949E+3
  -6.50467E+3  -6.50898E+3
  -6.40141E+3  -6.55089E+3
  -6.30386E+3  -6.54131E+3
  -6.25757E+3  -6.55841E+3
  -6.14633E+3  -6.57197E+3
  -6.12916E+3  -6.54000E+3
  -6.07428E+3  -6.56077E+3
  -6.01728E+3  -6.61434E+3
  -5.97550E+3  -6.62802E+3
  -5.86612E+3  -6.55480E+3
  -5.87499E+3  -6.60686E+3
  -5.78558E+3  -6.61920E+3
  -5.72914E+3  -6.57709E+3
  -5.76572E+3  -6.62112E+3
  -5.57273E+3  -6.65102E+3
  -5.56266E+3  -6.65455E+3
  -5.56294E+3  -6.64452E+3
  -5.47981E+3  -6.62233E+3
  -5.42241E+3  -6.66345E+3
  -5.38105E+3  -6.63906E+3
  -5.37105E+3  -6.56881E+3
  -5.23464E+3  -6.59589E+3
  -5.26371E+3  -6.47848E+3
  -5.21232E+3  -6.59948E+3
  -5.20319E+3  -6.63949E+3
  -5.20483E+3  -6.63298E+3
  -5.17525E+3  -6.55469E+3
  -5.11488E+3  -6.60564E+3
  -5.04122E+3  -6.53064E+3
  -4.99364E+3  -6.57215E+3
  -5.02710E+3  -6.58605E+3
  -4.96601E+3  -6.55171E+3
  -4.95443E+3  -6.58232E+3
  -4.89145E+3  -6.49484E+3
  -4.86568E+3  -6.45730E+3
  -4.85165E+3  -6.49541E+3
  -4.76208E+3  -6.37472E+3
  -4.75073E+3  -6.48499E+3
  -4.77795E+3  -6.43178E+3
  -4.65180E+3  -6.44436E+3
  -4.72807E+3  -6.37051E+3
  -4.72454E+3  -6.42138E+3
  -4.56810E+3  -6.30622E+3
  -4.62806E+3  -6.30688E+3
  -4.56366E+3  -6.38067E+3
  -4.49079E+3  -6.26817E+3
  -4.53037E+3  -6.31421E+3
  -4.53856E+3  -6.24604E+3
  -4.50130E+3  -6.21751E+3
  -4.52352E+3  -6.19729E+3
  -4.41748E+3  -6.20568E+3
  -4.36495E+3  -6.14769E+3
  -4.30629E+3  -6.11134E+3
  -4.33689E+3  -6.14781E+3
  -4.29247E+3  -6.08767E+3
  -4.33846E+3  -6.06208E+3
  -4.25200E+3  -6.03320E+3
  -4.22517E+3  -5.97127E+3
  -4.19418E+3  -5.93902E+3
  -4.19806E+3  -5.87602E+3
  -4.06958E+3  -5.93133E+3
  -4.12444E+3  -5.83905E+3
  -4.06066E+3  -5.78303E+3
  -4.05964E+3  -5.76907E+3
  -4.03107E+3  -5.69540E+3
  -3.97773E+3  -5.78371E+3
  -3.87854E+3  -5.74504E+3
  -3.94268E+3  -5.72969E+3
  -3.90094E+3  -5.65301E+3
  -3.89998E+3  -5.61007E+3
  -3.83759E+3  -5.51725E+3
  -3.81950E+3  -5.53425E+3
  -3.80810E+3  -5.45881E+3
  -3.67534E+3  -5.47599E+3
  -3.75392E+3  -5.40790E+3
  -3.73637E+3  -5.37858E+3
  -3.66606E+3  -5.33398E+3
  -3.60987E+3  -5.33735E+3
  -3.61403E+3  -5.21005E+3
  -3.60266E+3  -5.23104E+3
  -3.54534E+3  -5.21169E+3
  -3.51391E+3  -5.19232E+3
  -3.50188E+3  -5.11144E+3
  -3.47878E+3  -5.08506E+3
  -3.42540E+3  -5.05832E+3
  -3.38690E+3  -4.94458E+3
  -3.37099E+3  -5.01171E+3
  -3.39474E+3  -4.93723E+3
  -3.36230E+3  -4.90196E+3
  -3.35765E+3  -4.87451E+3
  -3.24766E+3  -4.81666E+3
  -3.22876E+3  -4.79960E+3
  -3.22431E+3  -4.71497E+3
  -3.27184E+3  -4.74762E+3
  -3.16762E+3  -4.75943E+3
  -3.14183E+3  -4.64845E+3
  -3.15582E+3  -4.67023E+3
  -3.07991E+3  -4.61568E+3
  -3.13883E+3  -4.52210E+3
  -3.07673E+3  -4.50540E+3
  -3.01383E+3  -4.47389E+3
  -3.02521E+3  -4.42375E+3
  -2.97160E+3  -4.39812E+3
  -2.93747E+3  -4.39998E+3
  -2.87976E+3  -4.33538E+3
  -2.89503E+3  -4.37759E+3
  -2.87440E+3  -4.29883E+3
  -2.83815E+3  -4.23661E+3
  -2.85747E+3  -4.24300E+3
  -2.80945E+3  -4.11817E+3
  -2.73930E+3  -4.13687E+3
  -2.72834E+3  -4.13945E+3
  -2.71029E+3  -4.12263E+3
  -2.59214E+3  -4.05561E+3
  -2.60607E+3  -4.07236E+3
  -2.64354E+3  -4.00310E+3
