 LCModel (Version 6.3-1N) Copyright: S.W. Provencher.          Ref.: Magn. Reson. Med. 30:672-679 (1993).                
 Slice_N1@17_15  02-Jun-2023 14:37:14
 27 lines in following concentration table = NCONC+1
    Conc.  %SD /Cr+PCr  Metabolite                                         
 2.35E-06  13% 2.8E-04 Mac                                                 
 4.07E-02  20%   4.865 Cr                                                  
 2.62E-02  32%   3.135 PCr                                                 
 8.12E-02   9%   9.718 Ins                                                 
 8.78E-02   7%  10.506 NAA                                                 
 7.48E-02   9%   8.953 Tau                                                 
 7.89E-03  36%   0.944 PCho                                                
 5.47E-03  48%   0.654 GPC                                                 
 7.30E-02  11%   8.736 Glu                                                 
 2.36E-02  26%   2.826 Gln                                                 
    0.000 999%   0.000 Ala                                                 
 2.43E-02  47%   2.913 Asc                                                 
 1.42E-02  51%   1.698 Asp                                                 
 1.71E-02  22%   2.045 GABA                                                
 1.00E-02  49%   1.199 Glc                                                 
 1.13E-02  31%   1.353 GSH                                                 
    0.000 999%   0.000 Lac                                                 
 3.44E-03 110%   0.412 NAAG                                                
    0.000 999%   0.000 PE                                                  
 1.34E-02  13%   1.598 GPC+PCho                                            
 9.12E-02   8%  10.918 NAA+NAAG                                            
 9.66E-02  11%  11.562 Glu+Gln                                             
 6.69E-02   9%   8.000 Cr+PCr                                              
 9.12E-02   8%  10.918 NAA+NAAG                                            
 6.69E-02   9%   8.000 Cr+PCr                                              
 9.66E-02  11%  11.562 Glu+Gln                                             
   6 lines in following misc. output table
  FWHM = 0.017 ppm    S/N =   7                                            
  Data shift = 0.029 ppm                                                   
  Ph: -61 deg     -20.1 deg/ppm                                            
  alphaB,S = 9.0E-01,   6.8E+00                                            
   18 spline knots.   Ns = 5(1)                                            
  ( 3) 2 infls.   ( 2) 1 extrs.                                            
  654 points on ppm-axis = NY
      4.000000     3.994181     3.988363     3.982544     3.976726     3.970907     3.965088     3.959270     3.953451     3.947633
      3.941814     3.935995     3.930177     3.924358     3.918540     3.912721     3.906902     3.901084     3.895265     3.889446
      3.883628     3.877809     3.871991     3.866172     3.860353     3.854535     3.848716     3.842898     3.837079     3.831260
      3.825442     3.819623     3.813805     3.807986     3.802167     3.796349     3.790530     3.784712     3.778893     3.773074
      3.767256     3.761437     3.755619     3.749800     3.743981     3.738163     3.732344     3.726526     3.720707     3.714888
      3.709070     3.703251     3.697433     3.691614     3.685795     3.679977     3.674158     3.668339     3.662521     3.656702
      3.650884     3.645065     3.639246     3.633428     3.627609     3.621791     3.615972     3.610153     3.604335     3.598516
      3.592698     3.586879     3.581060     3.575242     3.569423     3.563605     3.557786     3.551967     3.546149     3.540330
      3.534512     3.528693     3.522874     3.517056     3.511237     3.505419     3.499600     3.493781     3.487963     3.482144
      3.476326     3.470507     3.464688     3.458870     3.453051     3.447232     3.441414     3.435595     3.429777     3.423958
      3.418139     3.412321     3.406502     3.400684     3.394865     3.389046     3.383228     3.377409     3.371591     3.365772
      3.359953     3.354135     3.348316     3.342498     3.336679     3.330860     3.325042     3.319223     3.313405     3.307586
      3.301767     3.295949     3.290130     3.284312     3.278493     3.272674     3.266856     3.261037     3.255219     3.249400
      3.243581     3.237763     3.231944     3.226125     3.220307     3.214488     3.208670     3.202851     3.197032     3.191214
      3.185395     3.179577     3.173758     3.167939     3.162121     3.156302     3.150484     3.144665     3.138846     3.133028
      3.127209     3.121391     3.115572     3.109753     3.103935     3.098116     3.092298     3.086479     3.080660     3.074842
      3.069023     3.063205     3.057386     3.051567     3.045749     3.039930     3.034111     3.028293     3.022474     3.016656
      3.010837     3.005018     2.999200     2.993381     2.987563     2.981744     2.975925     2.970107     2.964288     2.958470
      2.952651     2.946832     2.941014     2.935195     2.929377     2.923558     2.917739     2.911921     2.906102     2.900284
      2.894465     2.888646     2.882828     2.877009     2.871191     2.865372     2.859553     2.853735     2.847916     2.842098
      2.836279     2.830460     2.824642     2.818823     2.813004     2.807186     2.801367     2.795549     2.789730     2.783911
      2.778093     2.772274     2.766456     2.760637     2.754818     2.749000     2.743181     2.737363     2.731544     2.725725
      2.719907     2.714088     2.708270     2.702451     2.696632     2.690814     2.684995     2.679177     2.673358     2.667539
      2.661721     2.655902     2.650084     2.644265     2.638446     2.632628     2.626809     2.620991     2.615172     2.609353
      2.603535     2.597716     2.591897     2.586079     2.580260     2.574442     2.568623     2.562804     2.556986     2.551167
      2.545349     2.539530     2.533711     2.527893     2.522074     2.516256     2.510437     2.504618     2.498800     2.492981
      2.487163     2.481344     2.475525     2.469707     2.463888     2.458070     2.452251     2.446432     2.440614     2.434795
      2.428977     2.423158     2.417339     2.411521     2.405702     2.399884     2.394065     2.388246     2.382428     2.376609
      2.370790     2.364972     2.359153     2.353335     2.347516     2.341697     2.335879     2.330060     2.324242     2.318423
      2.312604     2.306786     2.300967     2.295149     2.289330     2.283511     2.277693     2.271874     2.266056     2.260237
      2.254418     2.248600     2.242781     2.236963     2.231144     2.225325     2.219507     2.213688     2.207870     2.202051
      2.196232     2.190414     2.184595     2.178777     2.172958     2.167139     2.161321     2.155502     2.149683     2.143865
      2.138046     2.132228     2.126409     2.120590     2.114772     2.108953     2.103135     2.097316     2.091497     2.085679
      2.079860     2.074042     2.068223     2.062404     2.056586     2.050767     2.044949     2.039130     2.033311     2.027493
      2.021674     2.015856     2.010037     2.004218     1.998400     1.992581     1.986763     1.980944     1.975126     1.969307
      1.963489     1.957670     1.951852     1.946033     1.940215     1.934397     1.928578     1.922760     1.916941     1.911123
      1.905304     1.899486     1.893667     1.887849     1.882030     1.876212     1.870393     1.864575     1.858756     1.852938
      1.847119     1.841301     1.835482     1.829664     1.823845     1.818027     1.812208     1.806390     1.800571     1.794753
      1.788934     1.783116     1.777297     1.771479     1.765660     1.759842     1.754023     1.748205     1.742386     1.736568
      1.730749     1.724931     1.719113     1.713294     1.707476     1.701657     1.695839     1.690020     1.684202     1.678383
      1.672565     1.666746     1.660928     1.655109     1.649291     1.643472     1.637654     1.631835     1.626017     1.620198
      1.614380     1.608561     1.602743     1.596924     1.591106     1.585287     1.579469     1.573650     1.567832     1.562013
      1.556195     1.550376     1.544558     1.538739     1.532921     1.527102     1.521284     1.515465     1.509647     1.503829
      1.498010     1.492192     1.486373     1.480555     1.474736     1.468918     1.463099     1.457281     1.451462     1.445644
      1.439825     1.434007     1.428188     1.422370     1.416551     1.410733     1.404914     1.399096     1.393277     1.387459
      1.381640     1.375822     1.370003     1.364185     1.358366     1.352548     1.346729     1.340911     1.335092     1.329274
      1.323455     1.317637     1.311818     1.306000     1.300182     1.294363     1.288545     1.282726     1.276908     1.271089
      1.265271     1.259452     1.253634     1.247815     1.241997     1.236178     1.230360     1.224541     1.218723     1.212904
      1.207086     1.201267     1.195449     1.189630     1.183812     1.177993     1.172175     1.166356     1.160538     1.154719
      1.148901     1.143082     1.137264     1.131445     1.125627     1.119808     1.113990     1.108171     1.102353     1.096534
      1.090716     1.084898     1.079079     1.073261     1.067442     1.061624     1.055805     1.049987     1.044168     1.038350
      1.032531     1.026713     1.020894     1.015076     1.009257     1.003439     0.997620     0.991802     0.985983     0.980165
      0.974346     0.968528     0.962709     0.956891     0.951072     0.945254     0.939435     0.933617     0.927798     0.921980
      0.916161     0.910343     0.904524     0.898706     0.892887     0.887069     0.881251     0.875432     0.869614     0.863795
      0.857977     0.852158     0.846340     0.840521     0.834703     0.828884     0.823066     0.817247     0.811429     0.805610
      0.799792     0.793973     0.788155     0.782336     0.776518     0.770699     0.764881     0.759062     0.753244     0.747425
      0.741607     0.735788     0.729970     0.724151     0.718333     0.712514     0.706696     0.700877     0.695059     0.689240
      0.683422     0.677603     0.671785     0.665967     0.660148     0.654330     0.648511     0.642693     0.636874     0.631056
      0.625237     0.619419     0.613600     0.607782     0.601963     0.596145     0.590326     0.584508     0.578689     0.572871
      0.567052     0.561234     0.555415     0.549597     0.543778     0.537960     0.532141     0.526323     0.520504     0.514686
      0.508867     0.503049     0.497230     0.491412     0.485593     0.479775     0.473956     0.468138     0.462319     0.456501
      0.450682     0.444864     0.439045     0.433227     0.427408     0.421590     0.415771     0.409953     0.404134     0.398316
      0.392497     0.386679     0.380860     0.375042     0.369223     0.363405     0.357586     0.351767     0.345949     0.340130
      0.334312     0.328493     0.322675     0.316856     0.311038     0.305219     0.299401     0.293582     0.287764     0.281945
      0.276127     0.270308     0.264490     0.258671     0.252853     0.247034     0.241216     0.235397     0.229579     0.223760
      0.217942     0.212123     0.206305     0.200486
 NY phased data points follow
   2.09301E-01 -1.05526E-01 -5.45482E-02 -4.59728E-01 -4.79595E-01 -1.00740E-01  1.85645E-01 -1.92786E-01 -7.22761E-02  3.62677E-01
   5.27443E-02  1.16094E-01  2.97414E-01  4.79090E-01  3.07847E-01  6.24408E-01  2.94682E-01  5.80100E-02  2.34586E-01 -6.14787E-02
   2.20194E-01  9.50687E-02  2.61532E-02 -6.88181E-02  4.93497E-02 -1.48757E-01 -2.55666E-01 -8.04288E-02 -3.63870E-01 -2.03157E-01
  -1.82203E-02 -4.93511E-02 -4.75168E-02 -4.45140E-02 -3.40814E-01 -5.81636E-01 -4.83596E-01 -1.28808E-01 -3.53085E-01 -5.24777E-02
   3.07588E-01  1.24608E-01  4.43185E-01  2.69950E-01  1.85502E-01  2.75225E-01  1.91147E-01  1.85871E-01  3.08150E-01  2.65364E-01
   1.62198E-01  1.22861E-01  2.21707E-02 -1.32772E-01  1.34788E-01  7.92612E-02 -3.56128E-01 -1.69376E-02 -6.45674E-02 -3.51140E-01
  -1.98872E-01 -4.37216E-01 -6.52651E-01 -1.16357E-01 -2.66231E-01 -1.60794E-01  2.92495E-01  2.18621E-01  1.23459E-01  5.43488E-01
   6.59856E-01 -6.43592E-02  2.00167E-01  1.16653E-01 -6.68055E-02  1.99615E-02 -5.39613E-02 -3.49163E-01 -4.78265E-01 -5.52076E-01
  -4.22626E-01 -1.03869E-01 -1.03179E-01  4.86503E-01  3.43635E-01  3.71111E-01  4.10584E-01  4.57907E-01  2.76187E-01  2.37207E-01
   2.22979E-01 -7.58491E-02  2.75912E-01  2.64944E-02  7.05488E-02 -1.35387E-01 -1.57905E-01 -2.09811E-01 -5.38003E-01 -5.46895E-01
  -2.68117E-01 -9.71399E-02  9.93203E-02  3.31446E-01  4.16307E-01  5.70670E-01  3.24652E-01  6.49988E-01  3.08936E-01  4.45763E-01
   2.75122E-01  1.06475E-01  4.16693E-01  1.28389E-01  6.28639E-01  4.27092E-01  3.34197E-01  2.86025E-01  4.00110E-01  2.99806E-01
   1.14378E-01  2.78345E-01  1.94970E-02  8.56765E-02 -9.76046E-02 -2.06751E-01 -4.23476E-01 -5.14516E-01 -4.22286E-01 -8.79524E-01
  -9.41039E-01 -5.17825E-01 -5.61941E-01 -4.48130E-01 -4.20972E-01 -8.01307E-01 -8.04674E-01 -9.13105E-01 -4.91028E-01 -6.57823E-02
  -2.52154E-01  6.52759E-02  1.19855E-01 -1.40049E-01 -3.68278E-02  1.35203E-01  2.11638E-02  8.50344E-02  4.11771E-01  9.20373E-02
   1.95727E-01  4.15575E-01  1.27902E-01  3.37554E-01  2.38295E-01  4.16566E-01  6.74442E-01  3.32515E-01  3.95899E-01  1.97228E-01
   3.33385E-01  7.07390E-01  8.23145E-01  8.64816E-01  8.61879E-01  1.20123E+00  6.10813E-01 -4.23140E-01 -1.02279E+00 -9.05639E-01
  -8.36205E-01 -7.06370E-01 -3.73242E-01 -4.30373E-01 -2.21101E-01 -5.20003E-01 -8.20481E-01 -4.92911E-01 -2.76195E-01 -6.84913E-01
  -2.67120E-01 -1.97266E-02 -4.97365E-01 -2.34383E-01 -2.53323E-01 -3.44777E-01 -4.64694E-01 -5.66822E-01 -2.57886E-01 -2.04625E-01
  -4.86361E-01 -2.37058E-01 -2.53694E-01 -1.35192E-01 -6.92646E-02 -3.19834E-01 -1.29443E-01 -8.28804E-02 -9.33399E-02 -6.20978E-02
   1.13211E-01 -5.83430E-02 -4.21612E-02 -9.85067E-02  2.95629E-01  2.93010E-01 -1.61249E-01 -1.25891E-02  2.89608E-02  1.41489E-01
  -2.02730E-01 -8.00992E-02 -1.63163E-01 -5.47550E-02  1.52219E-02  5.03598E-02  3.16144E-01 -4.27289E-02  1.33102E-01  4.21590E-02
  -5.48639E-04  1.69866E-02 -1.57294E-01  1.33441E-01  3.75375E-01  2.30162E-01  3.27267E-01  5.05859E-01  3.02663E-01  4.23642E-01
   4.91291E-01  2.04794E-01  1.15070E-01  2.48821E-01  2.23921E-01 -2.71814E-01 -3.23533E-01 -7.01860E-02 -6.52937E-03  1.05167E-01
  -1.25792E-01  8.29631E-03 -1.70661E-01 -5.76760E-02  1.04445E-01 -4.77639E-01 -1.26023E-01  1.68387E-01  6.91835E-02  2.13102E-01
   1.36054E-01  7.53856E-02  9.47396E-02 -2.73637E-01 -3.72271E-01 -9.08336E-02  1.29972E-01 -7.58607E-02 -1.87853E-01 -9.32334E-02
  -1.79679E-01 -1.33647E-01 -2.05693E-01  1.10273E-01  2.03397E-01  4.47149E-02 -7.72940E-02 -5.29496E-02  1.32611E-01  3.96027E-02
   3.15559E-01  2.87739E-01 -6.73607E-02  1.17722E-03 -1.38454E-01 -8.32072E-03  5.17733E-02 -2.57043E-01 -2.37052E-01 -4.30209E-01
  -5.31147E-01 -5.60150E-01 -2.84054E-01 -4.00417E-02 -3.19287E-02  1.05830E-01  3.14001E-01  6.08745E-01  5.47459E-01  3.50629E-01
   2.72243E-01  1.50932E-01  4.69328E-02  8.56825E-02 -1.29620E-01  1.59241E-01  2.14123E-01  2.43517E-02  7.16174E-02  1.93882E-01
   3.55679E-01  2.37360E-01  5.19099E-01  6.12288E-01  3.38548E-01  3.71988E-01  5.03452E-01  6.57764E-02  4.34963E-01  3.46855E-01
   2.59257E-01  3.46862E-01  1.52442E-01  5.15145E-01 -1.57340E-01  5.48585E-02  1.39129E-01  6.44467E-02 -8.46026E-02 -4.00435E-01
  -2.61307E-02 -3.50610E-01 -3.94735E-01 -2.37245E-02 -1.82118E-01 -1.00455E-01  2.76232E-02 -1.21600E-01  3.88855E-01  3.85758E-01
   2.19906E-01  2.25119E-01  2.70140E-01 -2.05348E-01 -2.25228E-01 -1.50503E-01 -3.70381E-01 -1.44730E-01 -1.63486E-01 -6.20147E-02
  -7.16367E-01 -1.11993E+00 -2.68957E+00 -2.59995E+00 -8.66013E-01 -4.79399E-01 -1.88122E-01  9.64499E-03  1.93893E-01 -3.41048E-02
   2.42770E-01 -1.93546E-02  3.28496E-01  2.72739E-02 -1.10978E-01  5.24085E-01  1.61430E-01  3.93691E-01  3.10115E-01  3.52529E-01
   3.93151E-01  9.29433E-02  4.35784E-02  1.48444E-01 -4.65535E-02  1.15774E-01 -4.54555E-02 -1.77453E-01 -2.02770E-02  1.76188E-01
   1.65381E-01  4.66031E-02  4.83977E-01 -3.60441E-02  2.02388E-01  1.23854E-01  7.24626E-02  3.29631E-01  1.97397E-02  4.37844E-01
   1.25532E-01 -9.91018E-02  6.87215E-02  5.94966E-02  1.34550E-01  3.22808E-01  1.28844E-01  3.55738E-02  1.99409E-01  2.03098E-01
   2.83205E-01  7.03339E-02  1.61447E-01  1.88734E-01  1.70014E-01  3.06708E-01  7.74798E-02  2.18576E-02  3.05402E-02  1.60126E-01
   2.51174E-01  2.55047E-01 -4.25725E-02 -4.25337E-01 -2.01705E-01 -2.42750E-01 -2.43084E-01  3.54692E-03  3.37484E-02 -3.16751E-01
  -2.94140E-01  4.78005E-02 -9.12540E-03 -1.73181E-01 -7.12902E-02  2.81014E-02 -1.34625E-01 -3.92496E-02 -3.62788E-01 -2.30256E-01
  -2.26933E-01 -2.52243E-01  8.16374E-02 -2.58241E-01 -1.70083E-01 -1.12825E-01 -3.53929E-02 -1.40524E-01 -3.39432E-01 -4.40340E-02
   1.19353E-01 -1.00141E-01 -3.93889E-01 -5.50742E-02  2.56001E-01 -1.26957E-01  1.79828E-02 -6.61338E-02 -1.48011E-01  2.89377E-01
  -1.54062E-01 -2.66423E-01 -1.20314E-01  6.64407E-02  2.85662E-01  2.47507E-01  1.03817E-01  7.58189E-02  1.40086E-01  1.31797E-01
   1.08945E-02 -1.41860E-02  2.64434E-01 -4.76140E-02  1.02992E-01  1.56044E-01 -1.19043E-01 -1.52954E-01 -2.60547E-01 -1.12076E-01
   5.38259E-02 -5.08000E-02  3.89681E-02  2.36740E-01 -1.86839E-02  8.43648E-02 -2.05824E-01 -4.39450E-01 -1.85173E-01  1.16366E-01
   2.15792E-01 -3.12024E-02 -2.79686E-01 -2.75910E-01  3.83618E-02 -8.23743E-03 -1.74575E-01 -4.94697E-02  2.82244E-01 -6.89556E-03
   1.68238E-01  3.00323E-01 -7.27151E-04 -8.31505E-02 -2.39683E-01  2.15251E-02  7.05260E-02  1.41224E-01  1.32264E-01  1.82190E-02
  -1.58436E-02  1.41642E-01  8.17972E-02  3.64228E-02  7.20078E-02 -1.17349E-01 -2.09483E-01 -2.13344E-01 -1.32592E-01 -7.41561E-02
   1.52763E-01  1.27270E-02  2.34769E-01  2.68013E-01  2.53342E-01  3.30692E-01  1.53843E-01  2.59456E-01  6.38074E-02  3.09156E-02
   5.66888E-02  2.23366E-01  2.64903E-04  1.65091E-01  2.05784E-01 -4.44522E-02  2.20927E-01 -3.38905E-02  2.46746E-01 -4.64436E-02
  -3.72959E-01  1.49762E-01 -3.49285E-02 -1.33799E-01 -1.55388E-01 -5.23309E-01 -2.14937E-01 -4.80377E-02 -6.37424E-01 -5.90804E-01
  -5.53266E-01 -4.95688E-01 -2.74216E-01 -2.68576E-01 -1.14285E-01 -2.85988E-01 -4.58664E-02  7.08613E-03 -1.57165E-01 -3.30574E-02
  -2.30717E-01 -2.94184E-02 -2.96185E-01 -4.71057E-01 -8.92032E-02 -4.88550E-03  2.56353E-01  1.14226E-01 -1.81792E-01 -1.43523E-01
  -4.44677E-02  7.75516E-02  1.06669E-01 -1.38915E-01  1.01792E-01  1.94632E-01 -7.53955E-02  3.32621E-01 -1.28302E-01 -1.22087E-01
   5.04786E-01  3.18295E-01  2.48775E-01  2.35233E-01  3.70269E-01  1.45683E-01  1.54044E-01  1.15372E-02 -8.04219E-02  3.23159E-01
  -8.72870E-03  3.19516E-02 -2.26189E-02 -2.78180E-01 -8.82201E-04 -7.16868E-02 -5.21214E-02  5.49708E-02 -4.09171E-02  1.80443E-01
  -1.00579E-01 -2.81714E-01  4.57019E-02 -6.04783E-02  8.67811E-02  1.78237E-01  1.41854E-01  1.44469E-01 -4.48640E-02  6.57624E-02
   1.30796E-01 -2.15810E-02  4.10263E-02 -1.02782E-01 -5.55327E-02 -3.52923E-02 -1.66640E-01  2.51613E-01 -3.31046E-02 -6.86568E-02
   2.11677E-01 -4.90030E-02  8.25417E-02  1.22570E-01 -6.49643E-03 -1.01591E-01 -6.17563E-02  1.96274E-01 -7.08081E-03 -6.18644E-02
   3.27084E-01 -1.77249E-01 -2.40139E-01  1.40090E-01 -1.21137E-01 -1.49953E-02  5.43453E-02 -2.34681E-02 -2.01944E-01 -3.16830E-01
  -4.71533E-02  1.90960E-01  1.75874E-01 -1.48528E-01 -1.95952E-01 -2.22715E-02  3.91603E-02 -1.09078E-01 -2.38055E-01  3.15483E-01
   2.39816E-02 -1.36510E-01  2.73121E-01  2.35409E-02  3.08658E-01  1.12094E-01  5.63375E-02  8.60144E-02 -3.92003E-02  2.71463E-01
  -2.99291E-02  9.55521E-02  1.61551E-01 -7.33397E-02  3.86408E-01  3.39929E-01  1.24624E-01  2.23389E-01 -1.87542E-02  2.37247E-01
   2.90361E-01  1.02891E-01 -6.54757E-02  9.50728E-02
 NY points of the fit to the data follow
   8.08484E-02  5.02341E-02  1.99399E-02 -2.36353E-03 -6.75044E-03 -1.19812E-03  2.55532E-03  5.39777E-03  2.23779E-02  9.03386E-02
   1.95008E-01  3.62363E-01  4.76375E-01  4.63585E-01  5.62565E-01  6.66386E-01  4.81566E-01  2.53928E-01  1.77679E-01  1.11524E-01
   4.32425E-02  1.66999E-02 -5.21507E-03 -3.99336E-02 -6.86247E-02 -9.26541E-02 -1.11964E-01 -1.22946E-01 -1.31827E-01 -1.43062E-01
  -1.52450E-01 -1.62947E-01 -1.85602E-01 -2.22900E-01 -2.65494E-01 -3.06341E-01 -3.37311E-01 -3.16707E-01 -2.44640E-01 -7.88219E-02
   4.68698E-02  1.07927E-01  1.80736E-01  2.70648E-01  3.41501E-01  3.63935E-01  3.70380E-01  3.00001E-01  2.25646E-01  1.87920E-01
   1.25783E-01  6.88393E-02  4.16986E-02 -1.70646E-03 -5.76554E-02 -1.07856E-01 -1.51551E-01 -1.83014E-01 -2.07136E-01 -2.57816E-01
  -3.18540E-01 -3.68837E-01 -3.69171E-01 -2.82822E-01 -2.69042E-01 -5.75743E-02  2.53758E-01  2.50946E-01  3.74829E-01  5.52460E-01
   4.46492E-01  3.06982E-01  2.44852E-01  1.51491E-01  4.57608E-02 -3.84338E-02 -1.58511E-01 -3.30758E-01 -4.99589E-01 -6.15994E-01
  -4.60784E-01 -1.26742E-01  2.53721E-02  2.17765E-01  4.79732E-01  5.20784E-01  4.36813E-01  3.84596E-01  3.29157E-01  2.59915E-01
   2.23813E-01  2.02456E-01  1.65766E-01  1.21690E-01  5.29373E-02 -7.04841E-02 -2.37567E-01 -4.50422E-01 -5.49913E-01 -5.57405E-01
  -3.72723E-01 -8.18980E-02  1.47282E-01  3.14182E-01  3.65798E-01  3.56596E-01  3.30706E-01  3.14135E-01  2.98534E-01  2.99511E-01
   3.00766E-01  3.00213E-01  2.97682E-01  2.95629E-01  2.94614E-01  2.95625E-01  2.97855E-01  2.99177E-01  2.95113E-01  2.78024E-01
   2.35233E-01  1.63508E-01  5.02134E-02 -2.98242E-03 -8.27241E-02 -2.09219E-01 -2.33362E-01 -5.01579E-01 -6.92033E-01 -8.12189E-01
  -7.84379E-01 -5.73255E-01 -4.33702E-01 -3.18211E-01 -5.03329E-01 -7.30286E-01 -8.88693E-01 -7.76268E-01 -4.51956E-01 -2.42455E-01
  -1.09917E-01 -6.26397E-03  4.11274E-02  3.88904E-02  5.84767E-02  8.16009E-02  1.02920E-01  1.22611E-01  1.41021E-01  1.57097E-01
   1.73728E-01  1.90405E-01  2.06987E-01  2.24915E-01  2.46326E-01  2.69967E-01  2.95924E-01  3.25839E-01  3.58577E-01  3.97638E-01
   4.53060E-01  5.33680E-01  6.51743E-01  8.11723E-01  9.92131E-01  9.55592E-01  6.55516E-01 -3.82700E-01 -1.15806E+00 -9.47863E-01
  -7.52175E-01 -6.53291E-01 -4.81258E-01 -3.71858E-01 -3.97434E-01 -4.02971E-01 -3.71630E-01 -3.39838E-01 -3.22826E-01 -3.03433E-01
  -2.66536E-01 -2.47818E-01 -2.42089E-01 -2.33787E-01 -2.27351E-01 -2.22130E-01 -2.11489E-01 -1.99327E-01 -1.90450E-01 -1.81408E-01
  -1.69079E-01 -1.56958E-01 -1.45770E-01 -1.34793E-01 -1.23510E-01 -1.14115E-01 -1.04728E-01 -9.42850E-02 -8.37599E-02 -7.15640E-02
  -5.72931E-02 -4.09300E-02 -3.19502E-02 -3.75117E-02 -4.72221E-02 -4.41662E-02 -2.72062E-02 -1.64262E-02 -2.83067E-02 -5.47797E-02
  -7.03645E-02 -7.18555E-02 -6.92704E-02 -6.43787E-02 -5.54973E-02 -4.78538E-02 -4.50020E-02 -4.42792E-02 -4.72318E-02 -4.84692E-02
  -4.32250E-02 -3.17838E-02 -3.87280E-03  5.77735E-02  1.66830E-01  2.94764E-01  3.44283E-01  2.97328E-01  2.74613E-01  3.80565E-01
   4.45817E-01  3.08105E-01  1.42723E-01  5.11150E-02 -2.62287E-02 -7.67355E-02 -8.14935E-02 -7.60832E-02 -7.91477E-02 -8.59460E-02
  -9.40778E-02 -9.94044E-02 -1.01849E-01 -1.04432E-01 -1.04181E-01 -1.07161E-01 -1.03398E-01 -1.02206E-01 -1.01404E-01 -1.03151E-01
  -1.16314E-01 -1.30325E-01 -1.54127E-01 -1.76003E-01 -1.75962E-01 -1.61071E-01 -9.43515E-02 -5.66580E-03 -4.83224E-03  5.82428E-02
   1.22621E-01  1.36981E-01  1.28217E-01  7.11175E-02  1.36387E-01  1.71741E-01  1.55476E-01  1.58127E-01  1.81168E-01  1.76070E-01
   1.33728E-01  1.02356E-01  5.37402E-02  1.04401E-02 -3.07549E-02 -6.66564E-02 -1.08385E-01 -1.53905E-01 -2.10728E-01 -2.86344E-01
  -3.63915E-01 -4.40697E-01 -4.26777E-01 -3.10739E-01 -1.22238E-01  1.53611E-01  3.43156E-01  4.44813E-01  4.80604E-01  3.95408E-01
   2.88557E-01  2.09669E-01  1.33583E-01  1.09166E-01  1.16465E-01  1.47287E-01  2.11909E-01  2.49299E-01  2.75597E-01  2.89234E-01
   2.75819E-01  2.55226E-01  2.40789E-01  2.28033E-01  2.17402E-01  2.07589E-01  1.96565E-01  1.83588E-01  1.63841E-01  1.41732E-01
   1.19803E-01  9.02003E-02  6.41790E-02  2.79073E-02 -1.05600E-02 -6.34721E-02 -1.21273E-01 -1.87680E-01 -2.43525E-01 -2.77497E-01
  -3.03707E-01 -3.08101E-01 -2.80841E-01 -2.41560E-01 -1.79305E-01 -1.04033E-01 -2.04366E-02  5.78722E-02  1.01978E-01  1.15421E-01
   7.26726E-02  2.34605E-02 -4.18407E-02 -1.02695E-01 -1.30718E-01 -1.60668E-01 -1.53433E-01 -1.00629E-01 -5.42561E-02 -1.40505E-01
  -6.35149E-01 -1.29761E+00 -2.51461E+00 -2.44899E+00 -1.10507E+00 -5.45281E-01 -2.86891E-01  5.95484E-02  1.52678E-01  1.27535E-02
   2.58439E-03  1.19183E-02  2.34752E-02  3.23207E-02  4.16036E-02  5.15405E-02  5.84692E-02  6.25022E-02  5.71795E-02  4.57935E-02
   2.39421E-02 -1.42222E-02 -4.13495E-02 -8.06251E-02 -9.48303E-02 -9.11080E-02 -8.00116E-02 -4.99551E-02 -2.47881E-02 -8.25828E-04
   1.74339E-02  3.13583E-02  4.03626E-02  4.77046E-02  5.08373E-02  5.57251E-02  6.07530E-02  6.56370E-02  7.02350E-02  7.39207E-02
   7.65868E-02  8.04397E-02  8.46096E-02  8.81030E-02  9.13955E-02  9.25252E-02  9.36658E-02  9.53761E-02  9.97936E-02  1.04128E-01
   1.08320E-01  1.11694E-01  1.11784E-01  1.09658E-01  1.06159E-01  1.02841E-01  1.00274E-01  9.73278E-02  9.28953E-02  8.72084E-02
   8.04487E-02  7.30649E-02  6.55753E-02  5.67418E-02  4.90469E-02  4.35287E-02  3.79247E-02  3.12301E-02  2.45119E-02  1.99099E-02
   1.49248E-02  1.06819E-02  7.83971E-03  4.36907E-03  9.44927E-04 -1.91219E-03 -5.31460E-03 -8.11258E-03 -1.00503E-02 -1.18472E-02
  -1.31686E-02 -1.45770E-02 -1.41948E-02 -1.16252E-02 -9.51508E-03 -6.29170E-03 -1.13194E-03  4.45204E-03  9.90370E-03  1.54020E-02
   1.85805E-02  1.87784E-02  2.11786E-02  2.72260E-02  3.52031E-02  4.37940E-02  5.18911E-02  5.91675E-02  6.71889E-02  7.69253E-02
   8.86262E-02  1.00591E-01  1.12523E-01  1.25258E-01  1.36988E-01  1.48912E-01  1.60650E-01  1.69039E-01  1.74421E-01  1.77233E-01
   1.77549E-01  1.76458E-01  1.75241E-01  1.72423E-01  1.68325E-01  1.61868E-01  1.51842E-01  1.39175E-01  1.26421E-01  1.15331E-01
   1.04892E-01  9.43388E-02  8.35872E-02  7.34281E-02  6.32521E-02  5.59004E-02  4.92253E-02  4.15272E-02  3.52787E-02  3.05205E-02
   2.59342E-02  2.15382E-02  1.83130E-02  1.65915E-02  1.75663E-02  2.06700E-02  2.32507E-02  2.65384E-02  3.16072E-02  3.63399E-02
   4.15612E-02  4.80724E-02  5.44879E-02  5.87192E-02  6.15529E-02  6.37240E-02  6.49059E-02  6.61849E-02  6.89366E-02  7.26870E-02
   7.38004E-02  7.22003E-02  7.06933E-02  6.76250E-02  6.44843E-02  6.06444E-02  5.53037E-02  5.17827E-02  4.90154E-02  4.55316E-02
   4.12980E-02  3.74546E-02  3.37086E-02  2.94385E-02  2.48691E-02  2.00190E-02  1.55033E-02  1.25019E-02  1.07077E-02  7.76542E-03
   3.51468E-03 -8.70086E-04 -5.96234E-03 -1.32839E-02 -2.20778E-02 -3.04132E-02 -3.87079E-02 -4.82457E-02 -6.01391E-02 -7.57743E-02
  -9.35618E-02 -1.13155E-01 -1.31663E-01 -1.48724E-01 -1.65946E-01 -1.81668E-01 -1.94717E-01 -2.06479E-01 -2.17400E-01 -2.25468E-01
  -2.28977E-01 -2.27586E-01 -2.25129E-01 -2.22438E-01 -2.16052E-01 -2.06426E-01 -1.97366E-01 -1.89200E-01 -1.81632E-01 -1.74652E-01
  -1.67552E-01 -1.58830E-01 -1.48025E-01 -1.37658E-01 -1.26275E-01 -1.13524E-01 -1.01869E-01 -9.08172E-02 -8.02894E-02 -6.97777E-02
  -6.05706E-02 -5.08856E-02 -4.08524E-02 -3.37722E-02 -2.78091E-02 -2.04922E-02 -1.29579E-02 -6.43522E-03 -2.91860E-03 -3.51503E-04
   5.25172E-03  8.97668E-03  1.08298E-02  1.36003E-02  1.52173E-02  1.65392E-02  1.81845E-02  1.90174E-02  1.89686E-02  1.98097E-02
   2.28527E-02  2.54126E-02  2.73681E-02  3.03469E-02  3.22356E-02  3.19068E-02  3.12881E-02  3.18515E-02  3.14732E-02  3.05456E-02
   3.12112E-02  3.09181E-02  2.98047E-02  3.05893E-02  3.10134E-02  3.08356E-02  3.23980E-02  3.39329E-02  3.38749E-02  3.12592E-02
   2.67325E-02  2.57358E-02  2.83029E-02  2.88869E-02  2.85254E-02  2.91564E-02  2.99830E-02  2.84553E-02  2.57735E-02  2.62020E-02
   2.84697E-02  3.04448E-02  3.13866E-02  3.24307E-02  3.38999E-02  3.53803E-02  3.69222E-02  3.80762E-02  3.87071E-02  4.02626E-02
   4.07916E-02  3.97443E-02  3.77673E-02  3.76827E-02  3.96202E-02  4.10980E-02  4.32568E-02  4.55421E-02  4.66794E-02  4.72666E-02
   4.81850E-02  5.09252E-02  5.56753E-02  5.81117E-02  5.84447E-02  5.73325E-02  5.53466E-02  5.57888E-02  5.80007E-02  6.02696E-02
   6.10563E-02  6.04583E-02  6.09006E-02  6.23138E-02  6.36780E-02  6.52604E-02  6.61443E-02  6.66135E-02  6.99724E-02  7.40855E-02
   7.51058E-02  7.60377E-02  7.89899E-02  8.12081E-02  8.34202E-02  8.65244E-02  9.09275E-02  9.76756E-02  1.04538E-01  1.09007E-01
   1.12681E-01  1.16397E-01  1.20489E-01  1.24748E-01
 NY background values follow
     3.027E-02    3.039E-02    3.051E-02    3.064E-02    3.076E-02    3.088E-02    3.100E-02    3.112E-02    3.125E-02    3.137E-02
     3.149E-02    3.161E-02    3.173E-02    3.186E-02    3.198E-02    3.210E-02    3.222E-02    3.234E-02    3.247E-02    3.259E-02
     3.271E-02    3.283E-02    3.295E-02    3.307E-02    3.319E-02    3.331E-02    3.343E-02    3.355E-02    3.367E-02    3.379E-02
     3.391E-02    3.403E-02    3.415E-02    3.427E-02    3.439E-02    3.451E-02    3.463E-02    3.474E-02    3.486E-02    3.498E-02
     3.510E-02    3.521E-02    3.533E-02    3.545E-02    3.556E-02    3.568E-02    3.579E-02    3.591E-02    3.602E-02    3.614E-02
     3.625E-02    3.637E-02    3.648E-02    3.659E-02    3.670E-02    3.682E-02    3.693E-02    3.704E-02    3.715E-02    3.726E-02
     3.737E-02    3.748E-02    3.759E-02    3.769E-02    3.780E-02    3.791E-02    3.801E-02    3.812E-02    3.823E-02    3.833E-02
