 LCModel (Version 6.3-1N) Copyright: S.W. Provencher.          Ref.: Magn. Reson. Med. 30:672-679 (1993).                
 Slice_N1@16_16  02-Jun-2023 14:36:55
 27 lines in following concentration table = NCONC+1
    Conc.  %SD /Cr+PCr  Metabolite                                         
 1.72E-06  17% 2.3E-04 Mac                                                 
 1.71E-02  38%   2.334 Cr                                                  
 4.16E-02  16%   5.666 PCr                                                 
 5.39E-02  12%   7.341 Ins                                                 
 7.01E-02   7%   9.555 NAA                                                 
 4.08E-02  13%   5.567 Tau                                                 
 5.85E-03  52%   0.797 PCho                                                
 6.21E-03  47%   0.846 GPC                                                 
 5.94E-02  13%   8.099 Glu                                                 
 2.63E-02  21%   3.587 Gln                                                 
 1.40E-04 999% 1.9E-02 Ala                                                 
 2.58E-02  41%   3.519 Asc                                                 
 1.32E-02  49%   1.795 Asp                                                 
 8.30E-03  41%   1.131 GABA                                                
 1.18E-02  38%   1.607 Glc                                                 
 6.98E-03  47%   0.952 GSH                                                 
 8.17E-03  62%   1.114 Lac                                                 
 1.41E-02  24%   1.919 NAAG                                                
 3.68E-03 217%   0.501 PE                                                  
 1.21E-02  17%   1.643 GPC+PCho                                            
 8.42E-02   8%  11.474 NAA+NAAG                                            
 8.57E-02  11%  11.686 Glu+Gln                                             
 5.87E-02   9%   8.000 Cr+PCr                                              
 8.42E-02   8%  11.474 NAA+NAAG                                            
 5.87E-02   9%   8.000 Cr+PCr                                              
 8.57E-02  11%  11.686 Glu+Gln                                             
   6 lines in following misc. output table
  FWHM = 0.023 ppm    S/N =   6                                            
  Data shift = 0.023 ppm                                                   
  Ph: -49 deg      -9.8 deg/ppm                                            
  alphaB,S = 1.3E+00,   2.6E+00                                            
   18 spline knots.   Ns = 5(1)                                            
  ( 3) 2 infls.   ( 2) 1 extrs.                                            
  654 points on ppm-axis = NY
      4.000000     3.994181     3.988363     3.982544     3.976726     3.970907     3.965088     3.959270     3.953451     3.947633
      3.941814     3.935995     3.930177     3.924358     3.918540     3.912721     3.906902     3.901084     3.895265     3.889446
      3.883628     3.877809     3.871991     3.866172     3.860353     3.854535     3.848716     3.842898     3.837079     3.831260
      3.825442     3.819623     3.813805     3.807986     3.802167     3.796349     3.790530     3.784712     3.778893     3.773074
      3.767256     3.761437     3.755619     3.749800     3.743981     3.738163     3.732344     3.726526     3.720707     3.714888
      3.709070     3.703251     3.697433     3.691614     3.685795     3.679977     3.674158     3.668339     3.662521     3.656702
      3.650884     3.645065     3.639246     3.633428     3.627609     3.621791     3.615972     3.610153     3.604335     3.598516
      3.592698     3.586879     3.581060     3.575242     3.569423     3.563605     3.557786     3.551967     3.546149     3.540330
      3.534512     3.528693     3.522874     3.517056     3.511237     3.505419     3.499600     3.493781     3.487963     3.482144
      3.476326     3.470507     3.464688     3.458870     3.453051     3.447232     3.441414     3.435595     3.429777     3.423958
      3.418139     3.412321     3.406502     3.400684     3.394865     3.389046     3.383228     3.377409     3.371591     3.365772
      3.359953     3.354135     3.348316     3.342498     3.336679     3.330860     3.325042     3.319223     3.313405     3.307586
      3.301767     3.295949     3.290130     3.284312     3.278493     3.272674     3.266856     3.261037     3.255219     3.249400
      3.243581     3.237763     3.231944     3.226125     3.220307     3.214488     3.208670     3.202851     3.197032     3.191214
      3.185395     3.179577     3.173758     3.167939     3.162121     3.156302     3.150484     3.144665     3.138846     3.133028
      3.127209     3.121391     3.115572     3.109753     3.103935     3.098116     3.092298     3.086479     3.080660     3.074842
      3.069023     3.063205     3.057386     3.051567     3.045749     3.039930     3.034111     3.028293     3.022474     3.016656
      3.010837     3.005018     2.999200     2.993381     2.987563     2.981744     2.975925     2.970107     2.964288     2.958470
      2.952651     2.946832     2.941014     2.935195     2.929377     2.923558     2.917739     2.911921     2.906102     2.900284
      2.894465     2.888646     2.882828     2.877009     2.871191     2.865372     2.859553     2.853735     2.847916     2.842098
      2.836279     2.830460     2.824642     2.818823     2.813004     2.807186     2.801367     2.795549     2.789730     2.783911
      2.778093     2.772274     2.766456     2.760637     2.754818     2.749000     2.743181     2.737363     2.731544     2.725725
      2.719907     2.714088     2.708270     2.702451     2.696632     2.690814     2.684995     2.679177     2.673358     2.667539
      2.661721     2.655902     2.650084     2.644265     2.638446     2.632628     2.626809     2.620991     2.615172     2.609353
      2.603535     2.597716     2.591897     2.586079     2.580260     2.574442     2.568623     2.562804     2.556986     2.551167
      2.545349     2.539530     2.533711     2.527893     2.522074     2.516256     2.510437     2.504618     2.498800     2.492981
      2.487163     2.481344     2.475525     2.469707     2.463888     2.458070     2.452251     2.446432     2.440614     2.434795
      2.428977     2.423158     2.417339     2.411521     2.405702     2.399884     2.394065     2.388246     2.382428     2.376609
      2.370790     2.364972     2.359153     2.353335     2.347516     2.341697     2.335879     2.330060     2.324242     2.318423
      2.312604     2.306786     2.300967     2.295149     2.289330     2.283511     2.277693     2.271874     2.266056     2.260237
      2.254418     2.248600     2.242781     2.236963     2.231144     2.225325     2.219507     2.213688     2.207870     2.202051
      2.196232     2.190414     2.184595     2.178777     2.172958     2.167139     2.161321     2.155502     2.149683     2.143865
      2.138046     2.132228     2.126409     2.120590     2.114772     2.108953     2.103135     2.097316     2.091497     2.085679
      2.079860     2.074042     2.068223     2.062404     2.056586     2.050767     2.044949     2.039130     2.033311     2.027493
      2.021674     2.015856     2.010037     2.004218     1.998400     1.992581     1.986763     1.980944     1.975126     1.969307
      1.963489     1.957670     1.951852     1.946033     1.940215     1.934397     1.928578     1.922760     1.916941     1.911123
      1.905304     1.899486     1.893667     1.887849     1.882030     1.876212     1.870393     1.864575     1.858756     1.852938
      1.847119     1.841301     1.835482     1.829664     1.823845     1.818027     1.812208     1.806390     1.800571     1.794753
      1.788934     1.783116     1.777297     1.771479     1.765660     1.759842     1.754023     1.748205     1.742386     1.736568
      1.730749     1.724931     1.719113     1.713294     1.707476     1.701657     1.695839     1.690020     1.684202     1.678383
      1.672565     1.666746     1.660928     1.655109     1.649291     1.643472     1.637654     1.631835     1.626017     1.620198
      1.614380     1.608561     1.602743     1.596924     1.591106     1.585287     1.579469     1.573650     1.567832     1.562013
      1.556195     1.550376     1.544558     1.538739     1.532921     1.527102     1.521284     1.515465     1.509647     1.503829
      1.498010     1.492192     1.486373     1.480555     1.474736     1.468918     1.463099     1.457281     1.451462     1.445644
      1.439825     1.434007     1.428188     1.422370     1.416551     1.410733     1.404914     1.399096     1.393277     1.387459
      1.381640     1.375822     1.370003     1.364185     1.358366     1.352548     1.346729     1.340911     1.335092     1.329274
      1.323455     1.317637     1.311818     1.306000     1.300182     1.294363     1.288545     1.282726     1.276908     1.271089
      1.265271     1.259452     1.253634     1.247815     1.241997     1.236178     1.230360     1.224541     1.218723     1.212904
      1.207086     1.201267     1.195449     1.189630     1.183812     1.177993     1.172175     1.166356     1.160538     1.154719
      1.148901     1.143082     1.137264     1.131445     1.125627     1.119808     1.113990     1.108171     1.102353     1.096534
      1.090716     1.084898     1.079079     1.073261     1.067442     1.061624     1.055805     1.049987     1.044168     1.038350
      1.032531     1.026713     1.020894     1.015076     1.009257     1.003439     0.997620     0.991802     0.985983     0.980165
      0.974346     0.968528     0.962709     0.956891     0.951072     0.945254     0.939435     0.933617     0.927798     0.921980
      0.916161     0.910343     0.904524     0.898706     0.892887     0.887069     0.881251     0.875432     0.869614     0.863795
      0.857977     0.852158     0.846340     0.840521     0.834703     0.828884     0.823066     0.817247     0.811429     0.805610
      0.799792     0.793973     0.788155     0.782336     0.776518     0.770699     0.764881     0.759062     0.753244     0.747425
      0.741607     0.735788     0.729970     0.724151     0.718333     0.712514     0.706696     0.700877     0.695059     0.689240
      0.683422     0.677603     0.671785     0.665967     0.660148     0.654330     0.648511     0.642693     0.636874     0.631056
      0.625237     0.619419     0.613600     0.607782     0.601963     0.596145     0.590326     0.584508     0.578689     0.572871
      0.567052     0.561234     0.555415     0.549597     0.543778     0.537960     0.532141     0.526323     0.520504     0.514686
      0.508867     0.503049     0.497230     0.491412     0.485593     0.479775     0.473956     0.468138     0.462319     0.456501
      0.450682     0.444864     0.439045     0.433227     0.427408     0.421590     0.415771     0.409953     0.404134     0.398316
      0.392497     0.386679     0.380860     0.375042     0.369223     0.363405     0.357586     0.351767     0.345949     0.340130
      0.334312     0.328493     0.322675     0.316856     0.311038     0.305219     0.299401     0.293582     0.287764     0.281945
      0.276127     0.270308     0.264490     0.258671     0.252853     0.247034     0.241216     0.235397     0.229579     0.223760
      0.217942     0.212123     0.206305     0.200486
 NY phased data points follow
   7.66342E-02 -5.53584E-02 -1.31932E-01  2.39695E-02  6.59001E-02 -1.31772E-01 -1.43392E-01  1.06754E-01 -2.10834E-01 -2.64687E-01
  -1.11061E-01  6.47425E-01  4.88413E-01  2.92590E-01  2.25138E-01 -2.74677E-02  2.90808E-01 -1.91723E-01 -3.98229E-02  2.78249E-02
   7.63957E-02  2.84256E-01  7.66403E-02  2.45937E-02 -1.58330E-01 -4.86700E-02 -6.77161E-02 -2.64276E-01 -8.81193E-02 -6.81085E-03
   2.10314E-02  2.04024E-01 -6.84429E-02 -4.50287E-02 -3.41481E-01 -3.61260E-01 -1.54087E-01 -5.24159E-01 -2.22761E-01 -3.65666E-01
  -2.10078E-02  3.41427E-01  1.77066E-01  4.22669E-01  2.50495E-01  3.17164E-01  3.70605E-01  4.67851E-02  1.23482E-01  3.19932E-01
   4.56392E-02  2.65580E-01  2.47770E-01  5.09094E-02 -1.41273E-02 -2.59195E-01 -1.07279E-01 -3.99511E-01 -4.12889E-01 -9.95387E-02
  -6.70991E-02 -3.48297E-01 -1.38737E-01 -1.47253E-01 -1.88355E-01  2.91266E-01 -2.95187E-04  3.32902E-01  2.54597E-01  2.18793E-02
   2.54141E-01  5.86064E-02  4.64884E-02 -3.75838E-02  1.29439E-02  1.48285E-01 -2.54346E-01 -5.40143E-01 -4.52305E-01 -3.56049E-01
  -1.89477E-01 -1.42901E-01  2.26916E-01  2.00363E-01  2.43062E-01  2.83037E-01  2.86886E-01  4.89190E-01  2.12107E-01  3.85235E-01
   3.05862E-01 -1.68982E-01 -9.70691E-02  1.49282E-01 -5.49750E-02  1.17587E-01 -2.34378E-01 -2.85812E-01  4.82274E-02 -2.12572E-01
  -1.24865E-01 -1.97592E-01  1.98923E-02 -6.75519E-02  1.59226E-01  3.39694E-01  4.12446E-01  5.15632E-01  2.33426E-01  3.50521E-01
   2.20338E-01  1.44513E-01  2.45027E-01  2.43554E-01  3.47967E-01  4.11698E-01  8.98081E-02  1.72389E-01  3.05044E-01  3.56256E-01
   4.56592E-02  8.67038E-03  2.88417E-02 -2.88127E-02  2.37065E-01 -2.97956E-01  6.40960E-02 -9.72777E-02 -2.77924E-01 -2.55845E-01
  -5.17972E-01 -2.29623E-01 -5.25555E-01 -2.56667E-01 -4.81272E-01 -7.98715E-01 -7.73134E-01 -8.03383E-01 -4.68084E-01 -4.20347E-01
  -2.12707E-01 -1.61296E-01 -1.01483E-01  9.28245E-03 -1.36030E-01  9.73000E-02  2.03294E-01  2.73125E-02  1.43313E-01  3.34427E-01
   1.50951E-01  3.19971E-02  8.08918E-02  1.44783E-01  2.11905E-01  1.62815E-01  3.88500E-01  2.96780E-01  3.75271E-01  3.38991E-01
   2.12925E-01  4.90399E-01  4.06115E-01  4.66647E-01  7.30878E-01  1.16066E+00  9.00562E-01 -4.25799E-02 -1.22175E+00 -1.39164E+00
  -7.58660E-01 -7.70385E-01 -5.71251E-01 -4.81472E-01 -1.83238E-01 -1.45874E-01 -4.62540E-01 -3.36712E-01 -3.19080E-01 -4.13154E-01
  -5.40252E-01 -2.44701E-01 -3.21356E-01 -3.10672E-01  7.01978E-02 -3.74072E-01 -3.92855E-01 -3.54734E-01 -2.28351E-01 -1.89367E-01
  -3.19010E-01  2.66424E-02 -1.75896E-01 -1.26153E-02  8.75308E-04 -2.42589E-01 -1.98622E-01 -2.19458E-01 -2.66150E-01 -4.75419E-02
  -9.08379E-02 -2.31329E-01  1.13239E-01 -1.09085E-01 -1.77106E-01 -2.64075E-01 -1.42194E-03  1.97512E-01 -9.14814E-02  9.31615E-04
   2.50006E-02 -3.06353E-02 -2.90278E-02  9.46051E-02 -2.64125E-02 -1.61912E-02  5.96705E-02  2.19163E-02  1.36454E-01  1.58516E-01
  -8.58162E-02  1.60419E-01 -2.63406E-02  1.23361E-01  4.89497E-01  1.51496E-01  3.91599E-01  2.74920E-01  6.67912E-01  3.01256E-01
   2.03419E-01  5.03603E-01 -2.25677E-02  9.78561E-02 -2.98907E-02  1.73895E-03 -2.90217E-01 -5.75804E-02  1.45955E-01 -4.10193E-02
  -6.38065E-02 -2.24133E-01  5.73131E-02  3.62894E-02 -7.74745E-02  5.23724E-02  2.50512E-01 -4.45719E-03 -8.90108E-02  4.09634E-02
  -1.74131E-01  8.98625E-02 -6.59484E-02 -1.70835E-01  3.04048E-01 -1.97040E-01 -1.22058E-01  3.14379E-02  6.91160E-02  1.59887E-01
  -8.16287E-02  3.24956E-01 -1.81271E-01 -6.14681E-02  3.34513E-01  3.50172E-01  2.99492E-01  1.69874E-01  3.37713E-01  1.35048E-01
   1.96577E-01 -6.28964E-02  9.77871E-02  1.31652E-01 -8.81017E-02 -4.81419E-02  4.01657E-03  5.39924E-02 -1.33208E-01 -1.20384E-01
  -3.42811E-01 -4.49675E-01 -2.33797E-01 -1.48142E-01 -3.45813E-02  4.89456E-01  5.69413E-01  4.46634E-01  4.12313E-01  2.88081E-01
   2.56329E-01  2.50348E-01  5.46725E-02 -1.88304E-01 -5.80131E-03  4.19273E-02  6.37369E-02  1.32229E-01  3.48420E-01  1.26073E-01
   3.75901E-01  3.91305E-01  1.64681E-02  4.12185E-01  3.82815E-02  2.32992E-01  4.11125E-01  2.16553E-01  2.36150E-01  1.44088E-01
   1.19602E-01 -4.10452E-02  1.55276E-01  1.99883E-02  2.53618E-03  3.25766E-01  2.34980E-01 -1.15682E-01 -5.20607E-01 -4.51052E-01
  -2.68941E-01 -3.57758E-01 -1.62604E-01 -3.17518E-01 -3.83623E-01 -3.08058E-02  2.48905E-01  5.02129E-01  1.61031E-01  6.62047E-02
   2.67146E-01  1.07454E-01 -1.22918E-01  8.76173E-03 -4.76648E-02 -4.98317E-01 -6.33422E-01 -4.63760E-01 -2.72899E-01 -3.79333E-01
  -4.71791E-01 -9.27032E-01 -1.75621E+00 -2.03034E+00 -7.52033E-01  2.71238E-01 -9.60488E-02 -2.82014E-02 -1.10871E-01 -1.32314E-01
   1.88138E-01  1.85608E-01  2.13293E-01  2.88633E-01 -7.92196E-02  1.22692E-01  4.42774E-01  2.25628E-01  2.73557E-01 -8.86549E-02
   7.63205E-02  2.25053E-01  1.91983E-01  6.59704E-02 -9.74702E-02  2.32593E-01  1.42481E-01  1.98983E-02 -3.30703E-02  1.88790E-01
   1.87112E-01 -8.40087E-02 -3.60543E-02  2.38077E-01 -3.05215E-02  6.04117E-02  1.69825E-01 -1.10163E-01  6.46131E-02  1.42834E-02
   3.15378E-01  4.98494E-03  7.09116E-02  3.27686E-01  6.36281E-02 -4.41801E-02 -1.89731E-01 -9.98596E-02  5.13111E-02  2.86852E-01
   2.20359E-01  2.74671E-01  2.37046E-01  2.68994E-01  1.40376E-01  2.65530E-01  2.28185E-01  1.95794E-01  1.10674E-01 -1.29289E-02
   3.67150E-01  5.45672E-02  7.23255E-02 -1.33376E-01  2.25176E-01  1.43486E-01 -2.60658E-01  7.73990E-04 -1.90990E-01 -1.98484E-01
  -6.99215E-02 -9.20378E-03 -3.51796E-01 -1.01917E-01 -1.33599E-01 -1.83281E-01 -1.67115E-01  1.73091E-02 -3.39710E-02 -4.47762E-01
  -3.93201E-02 -1.70033E-01 -1.38403E-01 -2.20021E-01 -3.66402E-01 -1.74555E-01 -1.99229E-01 -2.02726E-01 -7.69105E-03 -3.21083E-02
  -1.59112E-02  3.78217E-02 -2.51304E-01 -3.80473E-02  3.45221E-02  9.28378E-02  1.39786E-01  1.12612E-01  1.61807E-01 -3.93603E-02
   2.94114E-02  5.36671E-02 -3.44750E-03 -1.41153E-01 -3.41626E-02  2.88713E-01 -6.56546E-03  2.34042E-02  1.19931E-01  2.24864E-01
   4.17004E-01  2.26739E-03 -7.62722E-02 -7.86497E-02 -1.00029E-01  1.19928E-01  9.53818E-02 -6.07270E-02 -4.24948E-02  9.31760E-04
   1.41354E-01  1.40427E-01  1.89737E-01  2.55072E-01  2.62291E-01  8.06139E-02 -2.33303E-01  6.63747E-02 -3.57795E-02  5.00286E-02
   6.22776E-02 -1.29688E-01 -1.66711E-01 -2.01368E-01 -1.53939E-01 -2.50530E-01  5.30569E-02 -1.91033E-01 -3.20231E-01  1.60690E-01
   2.22119E-01 -8.43097E-02 -3.10842E-02 -3.54197E-02  4.06215E-02  9.37549E-02 -6.50144E-02  3.91826E-02 -1.18033E-01 -1.86035E-01
  -6.18056E-02  4.75079E-02 -8.88518E-02 -1.96200E-01 -2.30383E-02  2.87873E-01  1.26758E-01  2.67666E-01  1.79605E-01 -2.68901E-02
   1.31149E-01 -2.71273E-02  8.07727E-02 -4.82638E-03  2.90802E-01  6.74180E-02  2.26429E-01  5.54961E-02 -2.84759E-01  3.07190E-01
   5.26017E-02  2.55782E-02  2.13273E-01  3.17341E-01  1.19610E-01  1.28493E-01 -4.02175E-02 -1.68874E-01  3.98499E-02 -9.27574E-02
  -7.10339E-02  2.73371E-02 -2.12517E-01 -2.34019E-01 -4.38849E-02 -3.08748E-01 -4.15857E-01 -4.46294E-01 -2.64472E-01 -4.58608E-01
  -2.11149E-01  5.39497E-02 -7.37941E-02 -1.01192E-01 -2.58867E-01 -1.42630E-01 -2.56579E-01  9.87407E-02 -7.00390E-02 -2.02864E-01
   7.35663E-02 -1.04428E-01 -5.37054E-02  4.03041E-02 -9.27048E-02 -7.43976E-03  3.05551E-02  3.87041E-02  1.40544E-01 -2.21994E-03
   3.06643E-01  1.19997E-01  3.31500E-02  1.82019E-01 -1.14346E-01 -5.41981E-02  2.67929E-01  1.45272E-01  6.81694E-02  9.69820E-02
  -1.28935E-01  1.49399E-01  1.42555E-02 -2.30213E-02  9.29408E-03 -3.74993E-02  1.91658E-01  3.51885E-01 -4.36912E-02 -2.40315E-01
   2.27869E-01 -3.47772E-02  1.16632E-01  5.43810E-02 -5.11757E-02  1.42020E-01 -9.62738E-02  3.70056E-02 -1.51033E-01 -3.40191E-01
  -9.88619E-02 -8.23922E-02  1.55890E-01  1.90394E-01 -1.86880E-01 -6.98239E-02  9.27574E-02  7.54044E-02 -1.48751E-01  1.23700E-01
   6.62106E-02 -1.67801E-01 -1.60122E-02 -6.41004E-02  2.05767E-01 -1.80706E-02  1.23363E-02  9.74213E-03  1.48290E-02  2.28790E-02
  -1.51640E-01  1.55181E-01  2.14465E-01  4.66184E-02 -3.74168E-02 -1.41602E-02 -1.64698E-02  2.20888E-01  7.19027E-02  2.47332E-01
   1.63934E-01  4.24569E-02  3.14295E-01 -1.47824E-01 -1.99941E-01 -1.52091E-01 -4.26683E-02  3.54608E-02 -3.94265E-02  3.63063E-02
   1.88613E-01 -5.99887E-02 -3.73586E-02 -4.03787E-02 -1.94639E-01  2.19175E-02  1.89562E-02  1.35116E-01 -2.69813E-01 -9.62069E-02
   9.80556E-02 -6.29535E-03  1.31247E-01  2.03391E-01  8.18318E-02 -4.15568E-03  1.88365E-01  1.75449E-02  1.77394E-01  6.54729E-02
  -1.46870E-01 -2.17621E-01  1.41588E-01 -5.66185E-02 -9.35467E-02  3.23274E-02 -2.78283E-01  1.42204E-01  6.42487E-02  2.90605E-01
   3.57923E-02  1.18118E-02  1.15914E-01  1.23222E-01
 NY points of the fit to the data follow
   8.73217E-02  5.43542E-02  2.33442E-02  7.99261E-03 -1.87514E-03  5.42672E-03  3.21677E-03  2.15164E-02 -1.12171E-02  4.58345E-02
   2.10690E-01  4.76859E-01  7.02862E-01  5.97316E-01  3.07043E-01  2.59198E-01  2.99471E-01  1.40569E-01  4.77247E-02  7.19091E-02
   5.57564E-02  1.71059E-02 -6.35752E-03 -4.87147E-02 -7.91119E-02 -9.73629E-02 -1.12944E-01 -1.23038E-01 -1.23880E-01 -1.31059E-01
  -1.37967E-01 -1.41374E-01 -1.54451E-01 -1.85593E-01 -2.31144E-01 -2.60160E-01 -2.88618E-01 -3.10909E-01 -2.67676E-01 -1.93542E-01
   2.02046E-03  1.86742E-01  2.75661E-01  2.87267E-01  3.31802E-01  3.28816E-01  2.79858E-01  2.32820E-01  1.64621E-01  1.65185E-01
   1.33434E-01  8.21784E-02  5.23690E-02  3.93984E-02 -1.84321E-02 -7.59778E-02 -1.11436E-01 -1.35826E-01 -1.20660E-01 -1.49239E-01
  -1.83843E-01 -2.32155E-01 -2.34799E-01 -1.39777E-01 -1.13373E-01  2.69792E-02  2.18024E-01  2.87427E-01  3.09298E-01  3.72815E-01
   2.97667E-01  1.63909E-01  1.33949E-01  6.70219E-02 -4.89820E-04 -3.83581E-02 -1.32979E-01 -2.91816E-01 -4.23749E-01 -4.63247E-01
  -2.42015E-01  2.39568E-02  9.55745E-02  2.05142E-01  4.13251E-01  4.11958E-01  2.82463E-01  2.44874E-01  2.07076E-01  1.58347E-01
   1.39812E-01  1.33821E-01  1.18212E-01  8.73755E-02  7.68145E-02  1.68939E-02 -2.71619E-02 -1.76286E-01 -2.58377E-01 -3.27784E-01
  -2.80584E-01 -1.14930E-01  6.03956E-02  1.81550E-01  2.22441E-01  2.50975E-01  1.98823E-01  2.16768E-01  2.02737E-01  2.05827E-01
   2.09551E-01  2.09358E-01  2.05696E-01  2.04243E-01  2.01828E-01  2.02405E-01  2.02371E-01  1.96496E-01  2.08653E-01  1.78902E-01
   1.39600E-01  7.84903E-02 -8.43812E-03 -1.67559E-02 -4.62297E-02 -1.29255E-01 -7.23826E-02 -1.15024E-01 -2.47515E-01 -3.62220E-01
  -4.17524E-01 -3.30758E-01 -2.56646E-01 -1.68083E-01 -4.16666E-01 -7.25843E-01 -9.35364E-01 -8.02879E-01 -4.77112E-01 -1.89110E-01
  -3.74372E-02 -4.51652E-02  3.81325E-02  2.38448E-02  3.51069E-02  5.23189E-02  6.97792E-02  8.48669E-02  9.94461E-02  1.12405E-01
   1.25308E-01  1.38605E-01  1.52747E-01  1.66344E-01  1.82759E-01  2.02363E-01  2.24053E-01  2.48623E-01  2.76301E-01  3.08449E-01
   3.52877E-01  4.22017E-01  4.96628E-01  5.23080E-01  8.40296E-01  9.37542E-01  8.36869E-01 -3.25336E-02 -1.17723E+00 -1.33983E+00
  -7.44810E-01 -4.80261E-01 -5.25952E-01 -2.98349E-01 -3.10109E-01 -3.05229E-01 -2.85268E-01 -2.49918E-01 -2.36291E-01 -2.34024E-01
  -2.30577E-01 -2.10077E-01 -1.90132E-01 -1.82837E-01 -1.82755E-01 -1.77367E-01 -1.73464E-01 -1.65672E-01 -1.53228E-01 -1.49222E-01
  -1.43840E-01 -1.35162E-01 -1.24683E-01 -1.16764E-01 -1.08582E-01 -1.00511E-01 -9.34744E-02 -8.51122E-02 -7.74663E-02 -6.92227E-02
  -5.80717E-02 -4.05631E-02 -2.53197E-02 -2.71652E-02 -4.54764E-02 -5.43412E-02 -3.60120E-02 -1.20906E-02 -1.22648E-02 -4.39147E-02
  -7.31815E-02 -7.71312E-02 -6.67176E-02 -6.09153E-02 -5.19960E-02 -3.09264E-02 -8.17355E-03  4.89442E-03 -4.87750E-03 -2.72115E-02
  -1.11091E-02  9.98489E-03  3.07979E-02  6.68620E-02  1.54574E-01  2.72171E-01  2.54395E-01  1.38091E-01  1.25999E-01  2.46669E-01
   3.65198E-01  3.13456E-01  1.20949E-01 -1.17360E-02 -3.37139E-02 -6.56890E-02 -8.75210E-02 -7.11859E-02 -7.81381E-02 -8.35830E-02
  -9.18308E-02 -9.92370E-02 -1.04652E-01 -1.07088E-01 -1.13335E-01 -1.16312E-01 -1.23631E-01 -1.27644E-01 -1.29893E-01 -1.26242E-01
  -1.21185E-01 -1.15033E-01 -1.22325E-01 -1.68727E-01 -1.58264E-01 -1.29457E-01 -6.31622E-02  4.00440E-02  1.62834E-02  2.88346E-02
   1.08577E-01  1.52439E-01  5.34131E-02  5.82168E-02  1.22645E-01  1.39203E-01  1.56399E-01  1.43129E-01  1.80961E-01  1.72184E-01
   1.53118E-01  9.64555E-02  6.34816E-02  2.26795E-02 -1.71582E-02 -4.44752E-02 -9.06171E-02 -1.21577E-01 -1.88142E-01 -2.46122E-01
  -3.23646E-01 -3.73472E-01 -2.97895E-01 -1.66962E-01  4.01390E-02  2.51371E-01  3.73458E-01  4.07938E-01  3.92303E-01  3.01984E-01
   2.10254E-01  1.85724E-01  1.30742E-01  1.15104E-01  1.10736E-01  1.25836E-01  1.60668E-01  1.82587E-01  1.92431E-01  1.91569E-01
   1.82538E-01  1.63348E-01  1.59856E-01  1.46561E-01  1.37576E-01  1.29544E-01  1.08985E-01  8.55285E-02  5.60273E-02  8.02237E-03
  -8.91609E-03 -3.62290E-02 -4.18428E-02 -1.70822E-02 -1.19549E-02 -3.05909E-02 -7.96304E-02 -1.68940E-01 -2.64376E-01 -3.03719E-01
  -3.42734E-01 -3.25920E-01 -2.84289E-01 -2.26029E-01 -1.47722E-01 -5.55540E-02  4.10098E-02  9.91929E-02  1.29185E-01  9.67090E-02
   4.39190E-02 -2.08614E-02 -9.69000E-02 -1.17525E-01 -2.19797E-01 -3.25517E-01 -4.92310E-01 -5.29173E-01 -2.52319E-01 -8.41871E-02
  -3.95766E-01 -1.08957E+00 -1.87573E+00 -1.84992E+00 -8.44155E-01 -1.46698E-01 -1.02645E-01 -1.85869E-02  8.11595E-02  1.01648E-03
  -1.71043E-03  5.26546E-03  1.59339E-02  2.37751E-02  3.07190E-02  3.94887E-02  4.54018E-02  5.39331E-02  4.53660E-02  4.00855E-02
   1.21278E-02 -1.46801E-02 -4.09711E-02 -6.48806E-02 -7.46910E-02 -7.23556E-02 -5.74264E-02 -4.44085E-02 -2.05698E-02 -1.12586E-02
   2.54958E-03  1.42168E-02  2.41690E-02  3.21844E-02  3.49661E-02  3.82865E-02  4.21985E-02  4.70040E-02  5.04214E-02  5.40167E-02
   5.58228E-02  5.80401E-02  6.18795E-02  6.51206E-02  6.84452E-02  6.94851E-02  7.05704E-02  7.06083E-02  7.39920E-02  7.78262E-02
   8.17307E-02  8.49653E-02  8.65158E-02  8.55343E-02  8.25801E-02  8.02842E-02  7.82619E-02  7.72651E-02  7.48874E-02  7.08422E-02
   6.63098E-02  6.10799E-02  5.59666E-02  4.96612E-02  4.31971E-02  3.87059E-02  3.53957E-02  3.13247E-02  2.53562E-02  2.13581E-02
   1.79994E-02  1.48299E-02  1.21246E-02  1.01939E-02  7.28857E-03  4.78801E-03  2.52826E-03 -3.11166E-04 -1.85309E-03 -3.14375E-03
  -4.52137E-03 -5.88992E-03 -6.73729E-03 -5.46608E-03 -3.40758E-03 -1.88830E-03  5.69717E-04  4.82973E-03  9.06365E-03  1.34020E-02
   1.68703E-02  1.69096E-02  1.65898E-02  2.01842E-02  2.73892E-02  3.40543E-02  3.96465E-02  4.36519E-02  4.75684E-02  5.31945E-02
   6.14894E-02  7.08454E-02  7.92664E-02  8.80410E-02  9.68645E-02  1.05314E-01  1.14164E-01  1.21910E-01  1.26305E-01  1.27985E-01
   1.28426E-01  1.26625E-01  1.24853E-01  1.22056E-01  1.17993E-01  1.12634E-01  1.08814E-01  8.72669E-02  9.26743E-02  9.46353E-02
   1.54257E-01  2.11952E-01  2.27027E-01  2.08622E-01  1.58738E-01  1.02232E-01  6.80108E-02  7.24445E-02  5.11485E-02  5.17139E-02
   4.91331E-02  4.46305E-02  4.04747E-02  3.74247E-02  3.63990E-02  3.78589E-02  3.98157E-02  4.08699E-02  4.33037E-02  4.67166E-02
   4.99948E-02  5.38475E-02  5.91099E-02  6.28914E-02  6.50370E-02  6.64864E-02  6.71658E-02  6.77523E-02  6.90943E-02  7.23785E-02
   7.51937E-02  7.41699E-02  7.25002E-02  7.08622E-02  6.89649E-02  6.65018E-02  6.28618E-02  5.92894E-02  5.72929E-02  5.60821E-02
   5.27944E-02  4.97563E-02  4.70567E-02  4.45275E-02  4.14987E-02  3.77523E-02  3.41133E-02  3.13189E-02  3.04249E-02  2.92816E-02
   2.64966E-02  2.31284E-02  2.01434E-02  1.59469E-02  9.44947E-03  2.67866E-03 -2.98046E-03 -8.96687E-03 -1.60746E-02 -2.67539E-02
  -3.98233E-02 -5.46881E-02 -6.90044E-02 -8.21967E-02 -9.49396E-02 -1.08002E-01 -1.19211E-01 -1.28027E-01 -1.37582E-01 -1.45978E-01
  -1.51244E-01 -1.51647E-01 -1.50027E-01 -1.49276E-01 -1.47843E-01 -1.41968E-01 -1.34686E-01 -1.28864E-01 -1.24249E-01 -1.20075E-01
  -1.15842E-01 -1.10888E-01 -1.03676E-01 -9.62129E-02 -8.89002E-02 -8.03465E-02 -7.13991E-02 -6.31342E-02 -5.60685E-02 -4.83940E-02
  -4.16867E-02 -3.49171E-02 -2.71595E-02 -2.06196E-02 -1.70825E-02 -1.28231E-02 -6.34139E-03 -6.80935E-04  3.10621E-03  3.89957E-03
   6.75535E-03  1.14653E-02  1.36615E-02  1.45586E-02  1.62768E-02  1.74873E-02  1.85914E-02  1.99166E-02  1.97244E-02  1.94037E-02
   2.11722E-02  2.37618E-02  2.55345E-02  2.72222E-02  2.93624E-02  3.00608E-02  2.88659E-02  2.87559E-02  2.92852E-02  2.86224E-02
   2.82461E-02  2.87652E-02  2.79684E-02  2.73946E-02  2.83643E-02  2.79997E-02  2.79452E-02  3.00579E-02  3.12626E-02  2.97505E-02
   2.56285E-02  2.22485E-02  2.40090E-02  2.62770E-02  2.56477E-02  2.47377E-02  2.58183E-02  2.57186E-02  2.28696E-02  2.10805E-02
   2.23243E-02  2.49614E-02  2.54663E-02  2.53902E-02  2.57670E-02  2.69475E-02  2.79302E-02  2.86796E-02  2.85742E-02  2.93858E-02
   3.01842E-02  2.98715E-02  2.74572E-02  2.56576E-02  2.64716E-02  2.77912E-02  2.88318E-02  3.00808E-02  3.13357E-02  3.08121E-02
   3.05487E-02  3.09731E-02  3.42094E-02  3.74483E-02  3.79421E-02  3.62998E-02  3.36368E-02  3.20873E-02  3.31507E-02  3.53510E-02
   3.58662E-02  3.46035E-02  3.28767E-02  3.29661E-02  3.41368E-02  3.43469E-02  3.41431E-02  3.30514E-02  3.32044E-02  3.61280E-02
   3.76135E-02  3.58335E-02  3.58386E-02  3.72884E-02  3.75834E-02  3.75660E-02  3.86946E-02  4.15051E-02  4.60363E-02  4.88977E-02
   4.97190E-02  4.98625E-02  5.09658E-02  5.18106E-02
 NY background values follow
     6.494E-03    6.594E-03    6.695E-03    6.795E-03    6.896E-03    6.997E-03    7.097E-03    7.198E-03    7.298E-03    7.399E-03
     7.499E-03    7.600E-03    7.700E-03    7.801E-03    7.901E-03    8.001E-03    8.102E-03    8.202E-03    8.303E-03    8.403E-03
     8.503E-03    8.603E-03    8.703E-03    8.804E-03    8.904E-03    9.004E-03    9.104E-03    9.203E-03    9.303E-03    9.403E-03
     9.503E-03    9.602E-03    9.702E-03    9.801E-03    9.901E-03    1.000E-02    1.010E-02    1.020E-02    1.030E-02    1.040E-02
     1.050E-02    1.059E-02    1.069E-02    1.079E-02    1.089E-02    1.099E-02    1.109E-02    1.118E-02    1.128E-02    1.138E-02
     1.148E-02    1.158E-02    1.167E-02    1.177E-02    1.187E-02    1.196E-02    1.206E-02    1.216E-02    1.225E-02    1.235E-02
     1.245E-02    1.254E-02    1.264E-02    1.274E-02    1.283E-02    1.293E-02    1.302E-02    1.312E-02    1.321E-02    1.331E-02
