 
 $NMID
 ID=''
 FMTDAT='(2E13.5)'
 TRAMP=   1.00000E+0
 VOLUME=   1.00000E+0
 $END
   3.66988E+2  -4.64277E+2
  -1.69896E+2   9.20159E+2
   2.46927E+3  -2.80160E+3
   3.10229E+2  -1.57387E+2
  -1.27280E+3  -1.19949E+3
  -7.41849E+2   4.99010E+2
  -2.32405E+3   7.77649E+2
  -5.58925E+2   1.67131E+2
   5.57871E+2  -3.46307E+3
   4.39760E+2  -3.41066E+3
   2.11281E+3   3.31838E+2
   1.83931E+3   1.32666E+3
  -1.99012E+3   1.45991E+3
  -3.23903E+3  -6.36533E+2
  -4.79903E+3  -1.58140E+3
   5.07864E+1  -8.01705E+2
  -1.05805E+3  -1.75572E+3
   1.47152E+3   2.01163E+2
  -1.13505E+3   2.97068E+3
   1.16627E+3   2.27827E+2
   3.42931E+3   7.55155E+2
   1.34580E+3   4.77164E+3
  -3.51548E+3  -9.21070E+2
  -3.46332E+3  -2.29432E+3
   2.85625E+3  -2.72161E+3
   3.89950E+3   2.62140E+3
  -1.95136E+3   2.10431E+1
  -6.11054E+2  -3.49898E+3
   3.31807E+3  -4.11033E+3
   5.57952E+3  -9.76226E+2
  -2.09299E+2   3.18010E+3
  -3.58914E+3   1.99133E+3
  -5.05132E+3  -7.90530E+2
  -3.44189E+3  -1.32940E+3
  -3.43918E+3  -1.29968E+3
  -1.17822E+2  -3.54873E+3
   2.44791E+3  -9.51204E+2
   2.70237E+3   1.35917E+3
   1.60390E+3   1.44714E+3
   3.40509E+2   3.32247E+3
  -1.24225E+3   2.39867E+3
  -2.81579E+3  -2.31623E+3
   2.27249E+3  -3.76719E+3
   1.96112E+3  -6.14678E+2
   3.43957E+3   5.29322E+2
  -4.02238E+2  -9.58740E+2
   4.73803E+3   2.75022E+2
  -3.71973E+1   3.69399E+3
  -2.62606E+3  -7.32374E+2
  -1.89872E+3  -2.75682E+3
  -1.33962E+3  -2.51958E+3
   1.37990E+2  -6.18911E+3
   1.31448E+3  -2.51535E+3
   1.39513E+3   1.68374E+3
  -1.19312E+3   8.78447E+1
  -8.79291E+0   8.08317E+2
   2.44043E+2  -7.34673E+2
  -2.40136E+3  -6.44046E+2
   2.11025E+2  -2.28122E+3
   4.34310E+3  -1.40878E+3
   2.76180E+3   1.13866E+3
   2.18199E+3   1.96563E+3
   6.35876E+2   4.95648E+3
  -1.75959E+3   2.56969E+2
   3.54045E+2   1.95270E+2
   4.54166E+2   2.60537E+3
  -8.22068E+2   4.19347E+3
  -1.29358E+3  -6.98619E+2
   1.20939E+3  -1.53335E+3
   3.22719E+3  -2.64402E+3
   2.16254E+3  -2.41677E+2
   9.92982E+2  -1.63074E+3
   5.80459E+2  -2.39325E+3
   2.17623E+3  -2.16926E+3
   1.53103E+3   1.85836E+3
  -1.62913E+3   3.22041E+3
   1.21304E+3  -3.03428E+2
   3.05328E+3   5.00407E+2
   4.33228E+3   2.95852E+3
   2.19369E+3   2.83238E+3
  -1.27907E+3   2.22899E+3
  -1.73382E+3   2.57388E+3
  -3.55042E+2   2.52632E+3
  -1.25236E+3   3.79070E+3
  -3.81040E+3   1.59049E+3
  -1.50297E+3   1.39227E+2
   3.73637E+2  -2.20441E+3
   7.20210E+2   2.74425E+2
   8.30457E+2   6.25914E+2
   2.00672E+2   3.78726E+2
  -2.80831E+2   1.29369E+3
  -8.97257E+2  -1.36625E+2
   1.37035E+2   2.26553E+3
  -8.01080E+2   2.44227E+3
  -1.39430E+3  -8.27825E+2
   6.59958E+2  -1.12449E+3
   1.34514E+3   5.12860E+2
  -1.45464E+3   2.57928E+3
  -2.49671E+3   5.22130E+2
  -3.38629E+3  -2.02019E+3
   5.70900E+2  -1.13182E+3
   1.01946E+3   1.34125E+3
  -9.15769E+2   3.63184E+2
  -1.54477E+3   1.70349E+3
  -3.63044E+3   1.62768E+3
  -3.87255E+3   5.00697E+2
  -2.39252E+3  -4.71306E+2
  -2.55926E+3  -1.14094E+3
  -1.66025E+3  -1.40955E+3
   1.15987E+3  -1.26648E+3
   1.61254E+3  -3.77440E+2
   9.58859E+2   2.17037E+3
   2.65969E+3  -1.30202E+2
   1.63949E+2   1.29404E+3
  -3.01165E+2   1.78621E+3
  -3.23462E+3  -4.21853E+2
   2.42283E+2   4.21988E+2
   2.95725E+2  -1.10823E+3
   1.32751E+3  -4.24959E+2
  -1.26986E+3  -3.18634E+2
  -1.03430E+3  -8.27178E+2
  -3.98756E+2   1.44980E+2
   1.01897E+3  -1.43930E+3
   2.39936E+3   7.86184E+2
   3.93945E+2   1.64080E+3
  -1.58876E+3   5.45056E+2
   6.58734E+2   3.25036E+2
   2.55557E+2  -1.95674E+3
  -1.05123E+3   1.74843E+3
   1.66050E+2  -2.60894E+3
  -1.68039E+3  -1.20425E+3
   2.25539E+3  -1.77640E+3
   1.57544E+3  -4.56218E+2
   8.20515E+2  -7.56969E+2
  -1.85854E+3  -3.53147E+2
  -1.70706E+3  -7.54694E+1
  -1.84159E+3  -7.90106E+2
  -3.03061E+2   5.91248E+2
  -6.65473E+2   3.91138E+2
  -1.65668E+3  -1.20767E+3
   9.11265E+1  -1.55378E+3
   1.29813E+2  -1.22060E+3
  -4.49087E+2   8.98255E+2
   6.49672E+2   1.77478E+2
   3.23245E+2   1.08996E+3
   6.30091E+2  -8.33155E+2
  -1.13097E+3   3.44155E+2
  -1.75010E+3  -1.21405E+3
  -4.84578E+2   7.76472E+2
  -1.27206E+1   8.03343E+2
  -1.23136E+3  -1.33424E+3
  -5.21486E+2  -8.74170E+1
   5.50128E+2  -1.21281E+3
  -1.19686E+2  -1.14357E+3
  -1.00866E+3   1.19778E+3
   6.86346E+2  -1.89353E+2
  -7.53389E+2  -1.36084E+3
  -2.17449E+3   4.78002E+2
  -9.39470E+2  -1.24927E+2
   2.60317E+2   2.13910E+3
   4.01273E+1  -1.86722E+3
  -1.09291E+3  -5.21779E+2
   1.69359E+3   5.04889E+2
   1.01933E+3  -9.15362E+1
   6.92042E+1  -8.14358E+2
  -1.00380E+2   7.32232E+2
   9.55570E+1  -1.13026E+3
   1.00551E+3  -1.66555E+3
   2.28341E+2   1.44260E+3
  -1.03734E+3   1.74956E+2
  -2.89960E+2   1.34129E+3
   4.25190E+2   1.42297E+3
   1.69445E+3  -1.26588E+3
  -9.84692E+1   2.31475E+2
   5.76263E+2  -5.93583E+2
   1.19961E+3  -1.44704E+2
   2.83281E+2  -1.12415E+2
  -1.51668E+2   2.25139E+3
   1.90858E+2   3.04342E+3
  -1.62370E+3   5.23948E+1
   1.19068E+3  -1.73505E+3
   6.96985E+2  -8.86796E+2
   2.64163E+3   2.32627E+2
  -1.08090E+3  -4.39290E+2
   1.45077E+3  -1.64358E+3
   6.04848E+2   1.57901E+3
   1.17628E+3  -2.41812E+2
  -7.72000E+2   1.51974E+3
  -1.09082E+3   4.19965E+2
   5.20313E+2  -1.15404E+3
   1.00738E+3   4.44435E+2
  -4.04896E+1   6.20858E+2
  -1.09921E+3   5.02621E+2
  -2.56683E+2  -1.36168E+3
  -4.70390E+2   6.37712E+2
  -1.13929E+3  -3.17191E+2
  -1.18145E+2   1.19598E+3
   1.12901E+3  -1.26691E+3
  -1.30783E+2  -3.64600E+2
   1.02400E+3  -4.67017E+2
  -1.29099E+3   2.92191E+3
  -2.70944E+3  -6.64936E+2
  -1.18741E+3  -4.04394E+2
  -6.88764E+2  -9.81672E+1
  -9.57729E+1  -6.48467E+2
  -7.59168E+2   5.47403E+2
   2.58303E+2  -1.37624E+2
  -4.02898E+2  -1.46116E+3
   8.69226E+2   7.54518E+1
  -9.58562E+2  -2.84628E+3
  -1.86886E+2   5.27834E+1
  -4.14876E+2  -2.31538E+3
   2.60979E+2  -1.95458E+3
   1.49915E+3  -1.68716E+3
  -3.64209E+2   1.04263E+3
  -6.47391E+2   2.61261E+2
   1.12280E+2   1.02856E+2
   2.54855E+2  -1.15304E+3
   1.18511E+3   1.97994E+2
  -1.82887E+2   7.07415E+2
   8.57875E+2  -2.46530E+2
   8.74449E+2   1.03363E+3
  -1.14074E+3   1.31507E+3
  -3.49131E+2  -6.18638E+2
   1.77638E+2  -3.57721E+3
   3.21168E+3  -1.87627E+3
  -1.90259E+3   1.65614E+2
  -1.05407E+3   1.72449E+3
  -1.39816E+3  -9.32492E+2
  -4.38684E+2   3.00372E+2
  -1.31626E+3  -5.48911E+2
   6.51972E+2  -2.38215E+3
   1.36128E+2   6.68518E+2
  -9.02842E+1  -2.12398E+3
   3.25247E+3   2.16284E+2
   3.50781E+2   1.72048E+3
   1.18418E+3  -3.79887E+2
  -1.24799E+3  -6.74448E+2
   1.00993E+3  -9.62545E+2
  -8.56097E+1  -8.42705E+2
   3.12423E+1   5.65620E+2
  -1.93087E+3   5.77082E+2
   1.17770E+3  -4.01658E+2
   8.07899E+2   1.35906E+3
   1.35524E+3  -1.18890E+3
   5.51618E+2  -1.07333E+3
   7.95969E+2   9.10789E+2
   5.69545E+2   3.39660E+2
   6.89179E+2  -6.49794E+1
   2.98351E+2   3.20038E+2
   1.79538E+2   1.25109E+3
  -1.05902E+3   8.21128E+2
   1.25242E+3  -2.35086E+2
   8.87457E+2  -4.11040E+2
  -8.64288E+2  -3.06302E+2
  -1.64531E+3  -1.19820E+3
   9.73191E+2   2.07272E+3
   4.75134E+2  -5.89319E+2
   1.23519E+3   7.96257E+2
   2.25392E+2  -1.15125E+2
   4.06655E+2   2.41154E+2
   1.09353E+3   9.39073E+2
   5.49515E+2   1.57183E+3
  -7.16556E+2  -4.85738E+2
  -4.91814E+2  -3.95333E+2
   2.90159E+2  -2.50688E+3
   1.81357E+3  -4.21084E+2
  -6.45165E+2   5.09848E+2
  -1.22157E+3   1.05109E+3
  -2.32992E+3  -3.12066E+2
  -9.15633E+2  -1.57220E+3
   1.49796E+2   6.23410E+1
   5.98868E+2   2.55407E+2
  -1.39709E+3   3.88768E+2
   3.47621E+2   7.86170E+2
   4.91993E+2  -2.17505E+2
   3.25662E+2   5.08280E+2
  -5.27524E+2   1.23920E+3
   2.02448E+2  -7.92753E+2
  -1.70464E+2  -1.06932E+3
   6.77974E+2  -3.60580E+2
   8.64565E+2   1.29022E+3
  -7.58772E+2  -2.99120E+3
  -3.03970E+2  -9.60532E+1
  -1.36649E+3  -3.03007E+2
   7.26631E+1   1.42577E+3
  -9.73841E+2   2.07341E+3
   4.25871E+2  -7.01613E+2
   7.54616E+2   1.50661E+3
   1.89068E+3   7.99599E+2
   1.96878E+3   1.20720E+3
  -7.11531E+2  -1.71901E+3
   6.87356E+1  -2.03312E+2
   9.35477E+2  -7.75687E+2
  -4.56483E+2  -5.23729E+2
  -8.29583E+2  -4.86611E+2
  -6.28862E+2  -5.37222E+2
  -3.60526E+2   9.13723E+2
  -5.78133E+1   8.09917E+2
  -7.34053E+2   2.29320E+3
  -5.81100E+2   1.41594E+3
   9.92066E+2  -6.61944E+2
   5.48340E+2  -3.10501E+2
  -1.47405E+3   1.58951E+3
   5.53252E+2  -1.76207E+2
  -3.76671E+2  -7.35353E+2
   1.70465E+3  -9.46389E+2
  -1.44744E+3   2.41841E+3
  -2.08796E+3  -3.79080E+2
  -5.92860E+2   1.73957E+3
   1.08818E+3  -1.60211E+3
   7.20810E+2  -3.47635E+2
   1.38826E+3  -1.23868E+3
   6.57028E+1  -7.02359E+2
   7.49545E+2   4.87520E+2
  -2.32083E+2   2.00133E+2
  -4.73979E+2   4.11066E+2
  -2.14628E+3   1.16162E+2
  -1.93932E+3  -4.24315E+2
   1.92050E+3  -1.33566E+3
   3.30871E+2  -5.22592E+2
  -5.04504E+2   4.68794E+2
   4.13248E+2  -3.62914E+2
  -1.33998E+2   5.21146E+2
  -4.80441E+2   2.72520E+2
  -1.04060E+3  -6.84770E+2
  -7.43466E+2  -1.62759E+3
  -2.61014E+2   2.86262E+1
  -4.67915E+2   1.24663E+3
  -5.07398E+2  -5.24888E+2
  -1.78071E+3   4.24976E+2
  -3.80061E+2   1.84845E+3
   8.16449E+2   5.18447E+2
   2.80544E+2  -1.03181E+3
   7.10344E+2  -2.41178E+2
   7.08279E+2   2.27076E+1
   2.66422E+2  -2.06203E+3
   5.55981E+2  -1.54904E+3
   9.77669E+2  -6.79649E+1
  -1.70796E+2   4.71830E+2
   5.83248E+2   9.32396E+2
   5.64177E+1  -1.64003E+3
   1.08470E+3  -2.75557E+3
  -6.95663E+2   1.11160E+3
  -1.06768E+3  -1.91104E+3
  -2.37291E+3   1.04414E+3
   9.60229E+1  -7.52320E+2
  -7.66498E+2  -5.05175E+2
   4.97267E+2  -1.28037E+3
  -1.07773E+3   9.06458E+2
   2.44992E+2  -2.11092E+3
   1.42257E+3   1.07033E+3
  -6.39357E+2   9.08145E+1
  -1.12264E+3   4.04951E+2
  -7.08549E+2  -2.76439E+2
  -2.97366E+1  -1.74637E+3
   1.47148E+3  -4.84795E+2
  -4.90123E+2   7.21142E+2
   1.85523E+2  -1.21003E+3
   7.39306E+2   1.35421E+3
   8.81469E+2   6.49810E+2
  -1.44917E+3  -2.14057E+3
   1.13356E+3  -1.89164E+3
  -1.91721E+3  -1.52813E+2
   1.71374E+3  -2.20943E+3
   1.39617E+3  -7.48614E+2
  -8.21926E+2  -1.69679E+2
