 LCModel (Version 6.3-1N) Copyright: S.W. Provencher.          Ref.: Magn. Reson. Med. 30:672-679 (1993).                
 Slice_N1@17_12  02-Jun-2023 14:36:46
 27 lines in following concentration table = NCONC+1
    Conc.  %SD /Cr+PCr  Metabolite                                         
 2.16E-06  14% 2.5E-04 Mac                                                 
 4.94E-02  16%   5.619 Cr                                                  
 2.09E-02  38%   2.381 PCr                                                 
 7.09E-02  10%   8.066 Ins                                                 
 8.89E-02   6%  10.126 NAA                                                 
 6.72E-02  10%   7.655 Tau                                                 
 8.52E-03  27%   0.970 PCho                                                
 6.43E-03  33%   0.732 GPC                                                 
 7.33E-02  11%   8.341 Glu                                                 
 3.24E-02  19%   3.687 Gln                                                 
    0.000 999%   0.000 Ala                                                 
 1.61E-02  69%   1.838 Asc                                                 
 1.02E-02  75%   1.161 Asp                                                 
 1.15E-02  34%   1.309 GABA                                                
 6.35E-03  82%   0.723 Glc                                                 
 1.06E-02  35%   1.202 GSH                                                 
    0.000 999%   0.000 Lac                                                 
 1.19E-02  32%   1.355 NAAG                                                
    0.000 999%   0.000 PE                                                  
 1.50E-02  11%   1.702 GPC+PCho                                            
    0.101   7%  11.481 NAA+NAAG                                            
    0.106  10%  12.028 Glu+Gln                                             
 7.03E-02   8%   8.000 Cr+PCr                                              
    0.101   7%  11.481 NAA+NAAG                                            
 7.03E-02   8%   8.000 Cr+PCr                                              
    0.106  10%  12.028 Glu+Gln                                             
   6 lines in following misc. output table
  FWHM = 0.017 ppm    S/N =   6                                            
  Data shift = 0.012 ppm                                                   
  Ph: -74 deg     -15.8 deg/ppm                                            
  alphaB,S = 7.6E-01,   3.4E-01                                            
   18 spline knots.   Ns = 5(1)                                            
   2 inflections.     1 extrema                                            
  654 points on ppm-axis = NY
      4.000000     3.994181     3.988363     3.982544     3.976726     3.970907     3.965088     3.959270     3.953451     3.947633
      3.941814     3.935995     3.930177     3.924358     3.918540     3.912721     3.906902     3.901084     3.895265     3.889446
      3.883628     3.877809     3.871991     3.866172     3.860353     3.854535     3.848716     3.842898     3.837079     3.831260
      3.825442     3.819623     3.813805     3.807986     3.802167     3.796349     3.790530     3.784712     3.778893     3.773074
      3.767256     3.761437     3.755619     3.749800     3.743981     3.738163     3.732344     3.726526     3.720707     3.714888
      3.709070     3.703251     3.697433     3.691614     3.685795     3.679977     3.674158     3.668339     3.662521     3.656702
      3.650884     3.645065     3.639246     3.633428     3.627609     3.621791     3.615972     3.610153     3.604335     3.598516
      3.592698     3.586879     3.581060     3.575242     3.569423     3.563605     3.557786     3.551967     3.546149     3.540330
      3.534512     3.528693     3.522874     3.517056     3.511237     3.505419     3.499600     3.493781     3.487963     3.482144
      3.476326     3.470507     3.464688     3.458870     3.453051     3.447232     3.441414     3.435595     3.429777     3.423958
      3.418139     3.412321     3.406502     3.400684     3.394865     3.389046     3.383228     3.377409     3.371591     3.365772
      3.359953     3.354135     3.348316     3.342498     3.336679     3.330860     3.325042     3.319223     3.313405     3.307586
      3.301767     3.295949     3.290130     3.284312     3.278493     3.272674     3.266856     3.261037     3.255219     3.249400
      3.243581     3.237763     3.231944     3.226125     3.220307     3.214488     3.208670     3.202851     3.197032     3.191214
      3.185395     3.179577     3.173758     3.167939     3.162121     3.156302     3.150484     3.144665     3.138846     3.133028
      3.127209     3.121391     3.115572     3.109753     3.103935     3.098116     3.092298     3.086479     3.080660     3.074842
      3.069023     3.063205     3.057386     3.051567     3.045749     3.039930     3.034111     3.028293     3.022474     3.016656
      3.010837     3.005018     2.999200     2.993381     2.987563     2.981744     2.975925     2.970107     2.964288     2.958470
      2.952651     2.946832     2.941014     2.935195     2.929377     2.923558     2.917739     2.911921     2.906102     2.900284
      2.894465     2.888646     2.882828     2.877009     2.871191     2.865372     2.859553     2.853735     2.847916     2.842098
      2.836279     2.830460     2.824642     2.818823     2.813004     2.807186     2.801367     2.795549     2.789730     2.783911
      2.778093     2.772274     2.766456     2.760637     2.754818     2.749000     2.743181     2.737363     2.731544     2.725725
      2.719907     2.714088     2.708270     2.702451     2.696632     2.690814     2.684995     2.679177     2.673358     2.667539
      2.661721     2.655902     2.650084     2.644265     2.638446     2.632628     2.626809     2.620991     2.615172     2.609353
      2.603535     2.597716     2.591897     2.586079     2.580260     2.574442     2.568623     2.562804     2.556986     2.551167
      2.545349     2.539530     2.533711     2.527893     2.522074     2.516256     2.510437     2.504618     2.498800     2.492981
      2.487163     2.481344     2.475525     2.469707     2.463888     2.458070     2.452251     2.446432     2.440614     2.434795
      2.428977     2.423158     2.417339     2.411521     2.405702     2.399884     2.394065     2.388246     2.382428     2.376609
      2.370790     2.364972     2.359153     2.353335     2.347516     2.341697     2.335879     2.330060     2.324242     2.318423
      2.312604     2.306786     2.300967     2.295149     2.289330     2.283511     2.277693     2.271874     2.266056     2.260237
      2.254418     2.248600     2.242781     2.236963     2.231144     2.225325     2.219507     2.213688     2.207870     2.202051
      2.196232     2.190414     2.184595     2.178777     2.172958     2.167139     2.161321     2.155502     2.149683     2.143865
      2.138046     2.132228     2.126409     2.120590     2.114772     2.108953     2.103135     2.097316     2.091497     2.085679
      2.079860     2.074042     2.068223     2.062404     2.056586     2.050767     2.044949     2.039130     2.033311     2.027493
      2.021674     2.015856     2.010037     2.004218     1.998400     1.992581     1.986763     1.980944     1.975126     1.969307
      1.963489     1.957670     1.951852     1.946033     1.940215     1.934397     1.928578     1.922760     1.916941     1.911123
      1.905304     1.899486     1.893667     1.887849     1.882030     1.876212     1.870393     1.864575     1.858756     1.852938
      1.847119     1.841301     1.835482     1.829664     1.823845     1.818027     1.812208     1.806390     1.800571     1.794753
      1.788934     1.783116     1.777297     1.771479     1.765660     1.759842     1.754023     1.748205     1.742386     1.736568
      1.730749     1.724931     1.719113     1.713294     1.707476     1.701657     1.695839     1.690020     1.684202     1.678383
      1.672565     1.666746     1.660928     1.655109     1.649291     1.643472     1.637654     1.631835     1.626017     1.620198
      1.614380     1.608561     1.602743     1.596924     1.591106     1.585287     1.579469     1.573650     1.567832     1.562013
      1.556195     1.550376     1.544558     1.538739     1.532921     1.527102     1.521284     1.515465     1.509647     1.503829
      1.498010     1.492192     1.486373     1.480555     1.474736     1.468918     1.463099     1.457281     1.451462     1.445644
      1.439825     1.434007     1.428188     1.422370     1.416551     1.410733     1.404914     1.399096     1.393277     1.387459
      1.381640     1.375822     1.370003     1.364185     1.358366     1.352548     1.346729     1.340911     1.335092     1.329274
      1.323455     1.317637     1.311818     1.306000     1.300182     1.294363     1.288545     1.282726     1.276908     1.271089
      1.265271     1.259452     1.253634     1.247815     1.241997     1.236178     1.230360     1.224541     1.218723     1.212904
      1.207086     1.201267     1.195449     1.189630     1.183812     1.177993     1.172175     1.166356     1.160538     1.154719
      1.148901     1.143082     1.137264     1.131445     1.125627     1.119808     1.113990     1.108171     1.102353     1.096534
      1.090716     1.084898     1.079079     1.073261     1.067442     1.061624     1.055805     1.049987     1.044168     1.038350
      1.032531     1.026713     1.020894     1.015076     1.009257     1.003439     0.997620     0.991802     0.985983     0.980165
      0.974346     0.968528     0.962709     0.956891     0.951072     0.945254     0.939435     0.933617     0.927798     0.921980
      0.916161     0.910343     0.904524     0.898706     0.892887     0.887069     0.881251     0.875432     0.869614     0.863795
      0.857977     0.852158     0.846340     0.840521     0.834703     0.828884     0.823066     0.817247     0.811429     0.805610
      0.799792     0.793973     0.788155     0.782336     0.776518     0.770699     0.764881     0.759062     0.753244     0.747425
      0.741607     0.735788     0.729970     0.724151     0.718333     0.712514     0.706696     0.700877     0.695059     0.689240
      0.683422     0.677603     0.671785     0.665967     0.660148     0.654330     0.648511     0.642693     0.636874     0.631056
      0.625237     0.619419     0.613600     0.607782     0.601963     0.596145     0.590326     0.584508     0.578689     0.572871
      0.567052     0.561234     0.555415     0.549597     0.543778     0.537960     0.532141     0.526323     0.520504     0.514686
      0.508867     0.503049     0.497230     0.491412     0.485593     0.479775     0.473956     0.468138     0.462319     0.456501
      0.450682     0.444864     0.439045     0.433227     0.427408     0.421590     0.415771     0.409953     0.404134     0.398316
      0.392497     0.386679     0.380860     0.375042     0.369223     0.363405     0.357586     0.351767     0.345949     0.340130
      0.334312     0.328493     0.322675     0.316856     0.311038     0.305219     0.299401     0.293582     0.287764     0.281945
      0.276127     0.270308     0.264490     0.258671     0.252853     0.247034     0.241216     0.235397     0.229579     0.223760
      0.217942     0.212123     0.206305     0.200486
 NY phased data points follow
  -5.96632E-02 -1.43015E-01 -7.66054E-02  4.02642E-02 -2.58657E-01 -1.95366E-01 -3.26086E-01 -6.39773E-02 -2.30442E-01  4.06441E-02
   1.81685E-01  2.56504E-01  2.57503E-01  2.17177E-01  6.05736E-01  3.68786E-01  5.36530E-01  3.62988E-01 -3.04573E-01  1.95665E-01
   2.71092E-02 -5.52491E-02  1.44707E-01 -2.87503E-01  2.92680E-02  4.28301E-02  1.09716E-01 -7.34271E-02 -2.97248E-01  1.85259E-03
   1.50073E-01 -3.64852E-02 -2.38830E-01 -4.44994E-01 -4.21513E-01 -2.93862E-01 -4.97164E-01 -1.81767E-01 -1.34360E-01  7.11023E-02
  -2.89181E-02  1.07258E-01  5.11494E-01  2.08793E-01  1.74945E-01  3.71775E-01  5.80541E-01  1.84192E-01  1.41099E-01  1.53564E-01
  -4.59007E-02  1.52452E-01  6.50467E-02 -1.49257E-01 -3.39323E-01 -3.65995E-01  2.21729E-02  1.11977E-01 -1.26786E-01 -3.79468E-01
  -2.32199E-01 -1.88726E-01 -1.78258E-01  7.88520E-03 -3.65046E-01 -2.16913E-02  1.95252E-01  1.77316E-01  2.42675E-01  2.06413E-01
   1.59942E-01 -1.14104E-01 -8.80097E-02  1.63108E-02  1.24180E-01 -1.53366E-01 -1.16513E-01 -9.79649E-02 -3.60813E-01 -4.40710E-01
  -3.24969E-01  6.43380E-02  2.21953E-01  1.94888E-01  4.25096E-01  4.43214E-01  2.97940E-01  1.83055E-01  2.01732E-01  4.12120E-01
   2.31104E-01  2.12893E-01  2.01897E-01  4.74108E-01  2.39077E-01 -7.29137E-02 -1.44211E-01 -2.07962E-01 -2.47281E-01 -7.44317E-01
  -3.18626E-01 -1.84710E-01  7.26786E-02  2.29623E-01  2.01440E-01  4.21437E-01  3.36046E-01  3.52387E-01  3.71862E-01  5.82163E-01
   3.38645E-01  3.78002E-01  3.58547E-01  1.06445E-01  1.50623E-01  2.43664E-01  3.63541E-01  3.09556E-01  1.90798E-01  6.02536E-02
   9.19146E-02  7.27861E-03 -2.34092E-01 -2.11259E-01 -6.76819E-02 -3.50028E-01 -5.58694E-01 -4.05692E-01 -6.08038E-01 -5.34492E-01
  -6.22071E-01 -8.26796E-01 -2.37236E-01 -5.48680E-01 -6.15054E-01 -7.14252E-01 -1.04715E+00 -7.75001E-01 -5.25352E-01  5.40409E-02
  -3.54834E-01 -2.71896E-01 -2.62749E-02 -2.82421E-01  1.19253E-01  3.83244E-01  1.15184E-01  7.42552E-02  5.24145E-01  3.99227E-01
   2.18284E-03  6.27052E-02  3.50709E-01  2.58190E-01  2.61337E-01  3.90753E-01  4.32801E-01  1.97732E-01  3.12422E-01  4.16335E-01
   4.30992E-01  5.67931E-01  5.52474E-01  8.91384E-01  8.49809E-01  9.10956E-01  5.70470E-01 -3.05126E-01 -1.17894E+00 -1.07276E+00
  -8.58640E-01 -9.79545E-01 -5.41130E-01 -4.31658E-01 -4.75875E-01 -3.53529E-01 -1.42556E-01 -5.79294E-01 -2.96097E-01 -4.23927E-01
  -5.25415E-01 -9.94269E-02 -2.66197E-01 -4.42884E-02 -3.13476E-01 -1.38253E-01 -1.20518E-01 -3.20751E-01 -2.50045E-01 -2.12376E-01
  -1.87262E-01 -4.60155E-01  2.34341E-02  2.67518E-01 -3.02052E-01 -1.81055E-01 -3.19722E-02 -3.03221E-01 -1.50254E-01 -6.92433E-02
  -1.54717E-01 -3.45923E-02  1.97496E-01 -1.66284E-01 -7.82980E-02  2.26896E-01 -3.55844E-01  4.60630E-02  5.01641E-01 -1.91593E-01
  -2.47176E-01 -8.68791E-02 -2.63054E-02  1.40646E-01 -2.31182E-01 -4.06394E-02 -2.92189E-02 -3.14756E-01 -4.65475E-02 -1.28029E-02
  -3.05949E-02  1.72675E-03  9.37688E-02  2.69798E-01  4.07114E-01  3.81887E-01  1.85560E-01  4.09534E-02  2.14679E-01  3.55286E-01
   3.97964E-01  4.07630E-01  6.55630E-02 -6.37396E-02  5.04666E-02 -5.91004E-02 -3.07862E-01 -3.59784E-01 -1.14844E-01 -1.05275E-01
  -1.04233E-01  2.19480E-02 -7.83508E-02 -8.65841E-03 -4.61399E-02 -4.19323E-02  1.11913E-01 -1.28246E-01 -1.72007E-01 -2.59638E-02
   9.39349E-02  1.19051E-01  1.13378E-01  1.05910E-01 -1.17604E-02  1.38783E-01 -2.16571E-03  1.25344E-01  1.94644E-01  9.48968E-02
   3.13503E-01  5.63509E-03 -2.66552E-02  9.21658E-02  1.22632E-01 -6.88207E-02  1.49904E-01  2.27343E-01  8.13917E-02  3.63226E-01
   4.32246E-01  5.02710E-01  1.29552E-01  2.84883E-01  1.75148E-01 -2.30092E-02 -3.11196E-02 -1.47981E-01 -7.05618E-02 -3.21787E-01
  -2.29824E-01 -1.84245E-01 -2.88809E-01 -2.40226E-01  7.12630E-02  4.19077E-01  7.71816E-01  3.22961E-01  5.24675E-01  6.09495E-01
   2.49459E-01  4.49458E-01 -8.13712E-03  2.88641E-01  1.42086E-01  9.45946E-02  2.90646E-01  3.25392E-01  4.78047E-01  3.46785E-01
   3.20956E-01  4.17803E-01  4.47143E-01  1.56043E-01  3.72642E-01  3.20981E-01  4.70232E-01  3.40260E-01  3.42525E-01  3.95307E-01
   2.23820E-01  6.08396E-01  4.62622E-01  6.54284E-02 -1.25793E-01  1.62984E-01 -1.58960E-01  4.47600E-02  1.42320E-01 -2.81437E-01
  -8.59679E-02 -2.31229E-01 -2.26076E-01 -5.12958E-01 -2.43500E-01 -6.83026E-02 -1.78085E-01  1.28177E-01  5.99292E-02  2.66450E-01
   2.72194E-01  2.72873E-01  3.26347E-02 -2.72676E-01 -2.15753E-01 -5.32140E-01 -5.07531E-01 -4.10123E-01 -5.38734E-01 -4.52759E-01
  -3.89757E-01 -1.21115E+00 -2.10530E+00 -1.85305E+00 -1.05006E+00 -2.04210E-01 -3.11630E-02 -1.94218E-01 -1.20858E-02 -5.00268E-02
  -1.48229E-01  8.46508E-02  4.94498E-02 -1.75401E-01 -1.87653E-01 -4.16235E-02  1.54991E-01  1.13886E-01 -1.94989E-01 -6.25084E-02
   9.12284E-02 -1.43316E-01 -7.45609E-02 -6.26551E-02 -1.69294E-01 -8.68355E-02  4.26139E-02 -1.35832E-01 -4.10712E-02 -1.11407E-01
  -5.22724E-02  2.89831E-01  1.80054E-01  9.82346E-02  1.62065E-01  1.12109E-01 -1.55323E-01  3.52912E-01  2.30415E-01  9.37987E-02
   8.56602E-02  2.40796E-01  4.34240E-01 -9.28202E-02  4.26458E-01  1.79821E-01  2.78185E-01  4.41758E-01  1.69132E-01  3.46498E-01
   2.11046E-01  3.16403E-01  2.12985E-01  1.62850E-01  1.51619E-01  2.14930E-01  1.52433E-01  8.06857E-02  6.76708E-02  1.23108E-01
   1.49773E-01  1.87899E-01  3.46177E-01 -1.69462E-03 -1.41928E-01 -5.75347E-02 -2.83417E-01  9.30099E-02  1.45484E-01 -3.19416E-01
  -2.12357E-02 -1.65164E-01 -2.98263E-01 -6.72811E-02  5.73012E-02  2.25962E-01 -1.21130E-01 -3.99177E-01 -6.75257E-03 -4.03700E-02
   8.75418E-02 -5.95189E-02 -3.83743E-01  3.41090E-03 -4.04590E-01  6.67754E-03  1.82239E-01 -1.44593E-01 -2.71828E-02 -9.72958E-02
   8.64248E-02  2.91805E-02 -3.75903E-03  8.47733E-02  1.34563E-01 -1.99379E-01  3.36335E-02  6.69321E-02  1.73896E-02  1.61970E-01
  -5.48335E-02  1.68750E-01 -1.38248E-01 -2.41817E-01  1.06163E-01  2.04386E-01  3.82715E-01  3.00211E-01  2.49545E-01  4.00177E-01
   3.74611E-01  1.10879E-01 -1.72081E-02  1.12415E-01 -5.60840E-02 -5.39750E-02 -2.10919E-01 -2.27798E-01 -2.75273E-01 -2.06635E-01
   8.92393E-02 -1.07541E-01  1.70352E-01 -5.14682E-02 -6.39900E-02 -1.12829E-01 -2.28738E-01 -3.64258E-01 -2.92157E-01  1.91426E-01
  -2.54565E-01 -1.72382E-01 -1.20153E-01 -2.13231E-01 -1.71839E-01  4.26556E-02  1.10939E-01  1.25213E-01 -1.68503E-01 -2.10667E-01
   2.40162E-01 -2.17832E-01  2.11987E-02  6.07394E-02  3.52063E-02  2.30191E-01  1.73746E-01  1.96238E-01  1.49372E-01  1.49467E-01
  -3.11549E-02  1.69755E-01  8.00944E-02 -8.20755E-03  9.28059E-02  1.81728E-01  6.00266E-02 -7.04923E-02  1.62823E-01 -9.08630E-02
  -6.79138E-02  3.65336E-02  1.68399E-01  2.57110E-01  7.46265E-02  2.22443E-01  3.79844E-02 -7.35887E-02  8.69852E-02  3.69433E-01
   2.69060E-01  3.24934E-02  4.41444E-02  3.82764E-02  6.95148E-02 -5.91779E-02  4.06542E-02 -3.10587E-02  7.42060E-02 -1.57821E-01
  -2.83766E-01 -1.80482E-01 -2.44778E-01 -1.29899E-01 -5.14935E-01 -4.48319E-01 -2.38654E-01 -3.13932E-01 -2.17364E-01 -3.16063E-02
  -2.44077E-01 -2.80908E-01 -4.24556E-01 -3.71793E-01  2.87801E-02 -3.03408E-02 -4.84633E-02 -5.72763E-02  3.36548E-02 -3.26003E-01
  -2.75547E-01 -2.75489E-01 -1.06223E-01 -7.89949E-02 -2.04894E-01  1.45823E-01  1.75981E-01  4.11840E-01 -4.26665E-02 -6.88756E-02
   1.70526E-01  3.57843E-01  3.38853E-01  1.95730E-01  2.04859E-01  1.30044E-01  2.10109E-01 -9.00811E-03  3.14628E-01  4.48115E-02
   1.95556E-01  2.46336E-01 -2.47453E-02  4.44999E-01  5.58684E-02  1.09604E-01  3.34485E-01  2.29300E-02  1.06271E-02  2.31378E-01
   2.24141E-01  9.54728E-02  7.20724E-02 -1.79268E-02 -2.07775E-02 -3.46702E-02 -4.52040E-02  6.95869E-02 -5.76352E-03  3.37965E-02
   9.46564E-02 -3.73527E-02  8.02619E-03 -5.78320E-02  2.13224E-01  1.16712E-01 -3.36197E-02  1.04942E-01 -1.48234E-01 -7.63454E-02
  -7.72198E-02  1.37171E-01  4.01720E-02 -3.48646E-02  4.53367E-02 -4.63008E-02  4.20369E-01  3.28885E-01  6.14608E-02  2.34569E-02
  -2.02515E-02 -1.90025E-01  1.96154E-01  3.45717E-01  6.46033E-02  2.31497E-01  1.06198E-02  2.59688E-01 -1.43986E-02 -1.76262E-01
   9.08667E-02 -4.40143E-02  6.36004E-02 -6.82913E-02  7.48291E-02 -8.47856E-02 -1.72837E-01 -1.04658E-01 -6.19077E-02  2.73802E-01
   7.38176E-02 -1.95124E-01 -2.19792E-02 -1.08804E-01 -2.89618E-01  2.56872E-01  5.71287E-02 -1.60490E-01  1.01473E-01  3.88270E-02
   3.64197E-01  2.11282E-01  2.83656E-01  3.38183E-02 -1.68298E-01  1.24880E-01 -1.36530E-01  1.00420E-01  5.65911E-02 -4.54010E-02
   1.16784E-01  1.36488E-01 -7.64508E-02 -3.93228E-02 -1.38653E-01 -2.67686E-01 -1.50080E-02 -4.55637E-02  3.06642E-01  2.51628E-01
   1.79082E-01 -2.82435E-02  1.74184E-01  4.85650E-01
 NY points of the fit to the data follow
   2.16918E-02  4.50611E-03 -1.33037E-02 -2.40078E-02 -2.61291E-02 -1.70005E-02 -1.12037E-02  2.90417E-03  2.91048E-02  4.86674E-02
   1.48807E-01  3.27687E-01  3.88115E-01  3.83019E-01  5.20129E-01  6.90005E-01  5.85636E-01  3.03529E-01  9.54813E-02  7.18625E-02
   1.40703E-02 -8.88097E-03 -3.94759E-02 -6.69183E-02 -8.76549E-02 -1.07106E-01 -1.24251E-01 -1.36823E-01 -1.48417E-01 -1.59274E-01
  -1.71273E-01 -1.85000E-01 -2.08092E-01 -2.38619E-01 -2.70102E-01 -2.89832E-01 -2.94852E-01 -3.03035E-01 -2.27611E-01 -8.57384E-02
   4.33837E-02  1.44466E-01  1.98663E-01  3.08512E-01  3.31055E-01  3.72078E-01  3.14312E-01  2.47448E-01  1.64397E-01  1.13306E-01
   6.95321E-02  1.84198E-02 -1.46895E-02 -4.83215E-02 -9.38717E-02 -1.40917E-01 -1.78081E-01 -2.02519E-01 -2.09968E-01 -2.27193E-01
  -3.05937E-01 -3.29557E-01 -2.18148E-01 -2.34844E-01 -1.80965E-01  4.44973E-02  2.11217E-01  2.98954E-01  2.93498E-01  4.00543E-01
   3.73148E-01  2.24661E-01  1.72410E-01  9.25958E-02  8.66119E-03 -8.48059E-02 -1.65463E-01 -2.59461E-01 -4.24118E-01 -4.44844E-01
  -2.33636E-01 -2.75204E-02  1.26373E-01  2.51345E-01  4.14889E-01  4.44537E-01  3.56883E-01  3.14365E-01  2.66132E-01  2.29571E-01
   2.05456E-01  1.78813E-01  1.45098E-01  8.69817E-02  1.95907E-02 -7.06084E-02 -2.22552E-01 -3.47911E-01 -4.68680E-01 -4.86183E-01
  -3.13803E-01 -1.28484E-01  1.62924E-01  2.37556E-01  3.37805E-01  2.94335E-01  2.88860E-01  2.76234E-01  2.68311E-01  2.67415E-01
   2.67198E-01  2.64023E-01  2.61180E-01  2.58384E-01  2.58029E-01  2.58499E-01  2.58147E-01  2.49763E-01  2.34184E-01  2.25665E-01
   1.75896E-01  8.50756E-02  5.74105E-02 -2.09423E-02 -1.36929E-01 -1.63182E-01 -2.43901E-01 -3.23351E-01 -5.35503E-01 -6.57554E-01
  -5.98667E-01 -5.97674E-01 -3.57117E-01 -4.14721E-01 -5.22418E-01 -8.03026E-01 -9.55129E-01 -7.26562E-01 -4.77672E-01 -1.67211E-01
  -1.08493E-01 -3.02652E-02  4.05047E-03  2.63457E-02  5.27892E-02  7.68615E-02  9.88421E-02  1.17741E-01  1.34886E-01  1.51119E-01
   1.67254E-01  1.83773E-01  2.01198E-01  2.19704E-01  2.40550E-01  2.63662E-01  2.90316E-01  3.19431E-01  3.51613E-01  3.94233E-01
   4.55700E-01  5.47463E-01  6.75806E-01  7.28013E-01  7.04376E-01  8.74808E-01  6.25479E-01 -3.20322E-01 -1.07581E+00 -1.23569E+00
  -7.61023E-01 -6.39683E-01 -5.06848E-01 -4.32633E-01 -4.00102E-01 -3.69711E-01 -3.21666E-01 -3.01811E-01 -2.97616E-01 -2.79151E-01
  -2.57088E-01 -2.34696E-01 -2.26302E-01 -2.22639E-01 -2.14844E-01 -2.09859E-01 -1.96148E-01 -1.84751E-01 -1.76892E-01 -1.68256E-01
  -1.57499E-01 -1.45374E-01 -1.34566E-01 -1.23709E-01 -1.14115E-01 -1.05659E-01 -9.66577E-02 -8.61458E-02 -7.66696E-02 -6.90232E-02
  -5.86242E-02 -4.46886E-02 -3.82183E-02 -4.23777E-02 -5.19384E-02 -4.84858E-02 -3.30388E-02 -2.65608E-02 -3.77912E-02 -5.71779E-02
  -6.35849E-02 -5.92058E-02 -5.14413E-02 -4.22800E-02 -3.56199E-02 -2.47658E-02 -9.57333E-03 -2.60549E-03 -9.17126E-03 -1.86831E-02
  -6.26098E-04  4.06526E-02  6.88625E-02  1.07429E-01  1.93103E-01  2.78613E-01  3.05809E-01  2.23447E-01  2.15906E-01  3.46466E-01
   4.21189E-01  3.19359E-01  1.22710E-01  7.13376E-03 -2.38929E-02 -5.73934E-02 -6.13472E-02 -6.66990E-02 -7.53918E-02 -8.46588E-02
  -9.31354E-02 -9.89391E-02 -1.01981E-01 -1.04438E-01 -1.09053E-01 -1.10515E-01 -1.12532E-01 -1.11213E-01 -1.10050E-01 -1.19935E-01
  -1.18559E-01 -1.35180E-01 -1.36911E-01 -1.35035E-01 -1.60476E-01 -1.10873E-01 -3.99348E-03  3.19337E-02  5.25449E-02  7.05434E-02
   1.53746E-01  1.73129E-01  9.55144E-02  1.04358E-01  1.03621E-01  1.15302E-01  1.11038E-01  1.19898E-01  1.60698E-01  2.09817E-01
   1.98478E-01  2.08071E-01  1.30834E-01  9.85260E-02  3.33275E-02 -8.88605E-03 -5.62411E-02 -1.10259E-01 -1.69399E-01 -2.26133E-01
  -3.02445E-01 -3.49370E-01 -3.32215E-01 -2.53587E-01 -4.90559E-02  1.56209E-01  3.38326E-01  4.41568E-01  4.43146E-01  4.06777E-01
   2.94410E-01  2.42494E-01  2.09339E-01  2.00356E-01  2.34143E-01  2.51704E-01  2.89230E-01  2.78488E-01  2.83524E-01  2.58904E-01
   2.49219E-01  2.36699E-01  2.26388E-01  2.16614E-01  2.05458E-01  1.89113E-01  1.71162E-01  1.45012E-01  1.10278E-01  8.15247E-02
   4.72972E-02  2.61538E-02  1.62480E-02  3.94909E-03 -5.32707E-03 -4.21561E-02 -7.36454E-02 -1.43618E-01 -2.02169E-01 -2.59389E-01
  -3.10603E-01 -3.47861E-01 -3.42191E-01 -3.07125E-01 -2.21742E-01 -1.41601E-01 -2.10133E-02  5.25987E-02  1.21983E-01  1.17132E-01
   9.26651E-02  3.22004E-02 -5.81621E-02 -1.25622E-01 -1.72179E-01 -2.66540E-01 -3.75006E-01 -3.63936E-01 -3.88300E-01 -4.16461E-01
  -5.46848E-01 -1.31525E+00 -2.08698E+00 -1.89335E+00 -1.04729E+00 -2.39142E-01 -2.03480E-01 -3.20279E-02 -1.13352E-02 -1.36264E-02
   3.60164E-03  2.09103E-02  3.53512E-02  4.68028E-02  5.70770E-02  6.53152E-02  6.58778E-02  6.44321E-02  4.95382E-02  2.67106E-02
   4.40781E-03 -2.48944E-02 -3.49264E-02 -5.11897E-02 -4.03569E-02 -3.31265E-02 -1.44964E-02  1.77574E-04  1.43596E-02  2.64156E-02
   3.81806E-02  4.93529E-02  5.95080E-02  6.52518E-02  6.97721E-02  7.39632E-02  7.94508E-02  8.44776E-02  8.88658E-02  9.19000E-02
   9.42289E-02  9.77318E-02  1.01745E-01  1.05124E-01  1.07701E-01  1.08925E-01  1.10002E-01  1.12855E-01  1.16373E-01  1.20638E-01
   1.23324E-01  1.25211E-01  1.24628E-01  1.22079E-01  1.19611E-01  1.17019E-01  1.14442E-01  1.11029E-01  1.06705E-01  1.00764E-01
   9.47652E-02  8.86543E-02  8.16912E-02  7.38369E-02  6.76476E-02  6.27520E-02  5.68880E-02  5.07598E-02  4.55985E-02  4.08527E-02
   3.66117E-02  3.35316E-02  3.06613E-02  2.76617E-02  2.41600E-02  2.12143E-02  1.80291E-02  1.53376E-02  1.38802E-02  1.29478E-02
   1.14685E-02  1.12281E-02  1.24057E-02  1.45426E-02  1.70222E-02  2.04322E-02  2.41354E-02  2.82514E-02  3.32787E-02  3.76033E-02
   4.00773E-02  4.05910E-02  4.43798E-02  5.07081E-02  5.89010E-02  6.66461E-02  7.29837E-02  8.00896E-02  8.75779E-02  9.76627E-02
   1.08366E-01  1.20053E-01  1.30850E-01  1.41754E-01  1.52308E-01  1.63033E-01  1.72187E-01  1.79287E-01  1.83586E-01  1.84645E-01
   1.85313E-01  1.83986E-01  1.82643E-01  1.79751E-01  1.75444E-01  1.69019E-01  1.59470E-01  1.48445E-01  1.37359E-01  1.27179E-01
   1.18278E-01  1.08995E-01  9.96341E-02  8.97030E-02  8.22251E-02  7.48968E-02  6.90184E-02  6.18948E-02  5.68114E-02  5.23686E-02
   4.85693E-02  4.52483E-02  4.23674E-02  4.14230E-02  4.30063E-02  4.58415E-02  4.85225E-02  5.17365E-02  5.56239E-02  6.01291E-02
   6.57302E-02  7.15751E-02  7.67369E-02  7.95737E-02  8.23112E-02  8.41797E-02  8.51317E-02  8.71241E-02  8.97857E-02  9.22973E-02
   9.23057E-02  9.08774E-02  8.86889E-02  8.68413E-02  8.40207E-02  7.99673E-02  7.61422E-02  7.29959E-02  7.06532E-02  6.68996E-02
   6.34740E-02  6.00812E-02  5.64430E-02  5.26015E-02  4.88014E-02  4.44975E-02  4.09235E-02  3.88176E-02  3.68828E-02  3.35623E-02
   2.89892E-02  2.53201E-02  2.05051E-02  1.33421E-02  5.19448E-03 -2.88719E-03 -1.11264E-02 -2.03568E-02 -3.22822E-02 -4.75066E-02
  -6.55690E-02 -8.27409E-02 -9.81944E-02 -1.13338E-01 -1.28605E-01 -1.42951E-01 -1.54428E-01 -1.64660E-01 -1.74271E-01 -1.81149E-01
  -1.82675E-01 -1.80986E-01 -1.79634E-01 -1.77380E-01 -1.71176E-01 -1.63055E-01 -1.55871E-01 -1.49231E-01 -1.42921E-01 -1.36948E-01
  -1.30127E-01 -1.20930E-01 -1.11642E-01 -1.02150E-01 -9.24290E-02 -8.08058E-02 -7.11267E-02 -6.13414E-02 -5.14532E-02 -4.28589E-02
  -3.44015E-02 -2.56779E-02 -1.66208E-02 -1.01104E-02 -5.16002E-03  1.11601E-03  8.96268E-03  1.37660E-02  1.66405E-02  1.97068E-02
   2.42044E-02  2.76911E-02  2.99844E-02  3.14770E-02  3.27244E-02  3.43891E-02  3.66007E-02  3.71101E-02  3.63033E-02  3.80389E-02
   4.06331E-02  4.27426E-02  4.48821E-02  4.73338E-02  4.84570E-02  4.77864E-02  4.80466E-02  4.81085E-02  4.78379E-02  4.76019E-02
   4.74700E-02  4.73622E-02  4.69633E-02  4.66837E-02  4.71895E-02  4.75141E-02  4.82146E-02  4.93219E-02  4.90776E-02  4.57052E-02
   4.23230E-02  4.28719E-02  4.53348E-02  4.55017E-02  4.37592E-02  4.37388E-02  4.35763E-02  4.21617E-02  4.05031E-02  4.06953E-02
   4.37246E-02  4.51579E-02  4.59207E-02  4.56459E-02  4.68810E-02  4.83615E-02  4.95516E-02  5.01311E-02  5.06811E-02  5.18864E-02
   5.20650E-02  5.01297E-02  4.87037E-02  4.91459E-02  5.05095E-02  5.16252E-02  5.26814E-02  5.45926E-02  5.51725E-02  5.45250E-02
   5.65357E-02  5.94153E-02  6.26214E-02  6.37240E-02  6.23708E-02  6.05783E-02  5.88938E-02  5.98642E-02  6.22109E-02  6.31890E-02
   6.31722E-02  6.22045E-02  6.21093E-02  6.26360E-02  6.42199E-02  6.45264E-02  6.42905E-02  6.49100E-02  6.74032E-02  6.95033E-02
   6.94378E-02  7.00849E-02  7.11863E-02  7.34212E-02  7.47784E-02  7.67489E-02  8.06288E-02  8.49900E-02  8.93460E-02  9.11341E-02
   9.30524E-02  9.56333E-02  9.76425E-02  1.01244E-01
 NY background values follow
     3.996E-03    4.276E-03    4.555E-03    4.835E-03    5.114E-03    5.394E-03    5.674E-03    5.953E-03    6.233E-03    6.512E-03
     6.792E-03    7.071E-03    7.351E-03    7.630E-03    7.909E-03    8.188E-03    8.467E-03    8.746E-03    9.025E-03    9.304E-03
     9.583E-03    9.861E-03    1.014E-02    1.042E-02    1.070E-02    1.097E-02    1.125E-02    1.153E-02    1.181E-02    1.208E-02
     1.236E-02    1.264E-02    1.291E-02    1.319E-02    1.346E-02    1.374E-02    1.402E-02    1.429E-02    1.457E-02    1.484E-02
     1.511E-02    1.539E-02    1.566E-02    1.594E-02    1.621E-02    1.648E-02    1.675E-02    1.703E-02    1.730E-02    1.757E-02
     1.784E-02    1.811E-02    1.838E-02    1.865E-02    1.892E-02    1.919E-02    1.945E-02    1.972E-02    1.999E-02    2.026E-02
     2.052E-02    2.079E-02    2.105E-02    2.132E-02    2.158E-02    2.185E-02    2.211E-02    2.237E-02    2.264E-02    2.290E-02
