 
 $NMID
 ID=''
 FMTDAT='(2E13.5)'
 TRAMP=   1.00000E+0
 VOLUME=   1.00000E+0
 $END
  -2.01778E+4   1.05632E+4
  -5.75920E+4   1.12753E+4
  -5.45153E+4   2.08102E+4
  -5.03287E+4   1.86676E+4
  -5.30727E+4   1.76344E+4
  -5.24825E+4   1.98482E+4
  -5.09240E+4   1.83560E+4
  -5.21742E+4   1.77212E+4
  -5.16901E+4   1.91693E+4
  -5.05940E+4   1.84246E+4
  -5.11314E+4   1.78228E+4
  -5.05000E+4   1.89518E+4
  -4.95876E+4   1.85797E+4
  -5.00391E+4   1.79252E+4
  -4.94136E+4   1.84349E+4
  -4.86118E+4   1.80068E+4
  -4.87529E+4   1.74958E+4
  -4.83432E+4   1.77192E+4
  -4.76138E+4   1.74247E+4
  -4.77780E+4   1.69209E+4
  -4.74070E+4   1.71555E+4
  -4.67757E+4   1.69781E+4
  -4.68519E+4   1.65928E+4
  -4.66371E+4   1.66333E+4
  -4.60110E+4   1.63463E+4
  -4.59769E+4   1.60792E+4
  -4.57708E+4   1.62448E+4
  -4.52986E+4   1.58686E+4
  -4.52227E+4   1.55120E+4
  -4.49045E+4   1.55563E+4
  -4.44294E+4   1.54249E+4
  -4.43920E+4   1.52772E+4
  -4.42073E+4   1.52851E+4
  -4.37779E+4   1.50121E+4
  -4.35744E+4   1.49525E+4
  -4.33355E+4   1.50654E+4
  -4.29266E+4   1.48878E+4
  -4.27651E+4   1.49032E+4
  -4.24290E+4   1.49057E+4
  -4.21595E+4   1.49168E+4
  -4.19455E+4   1.47927E+4
  -4.17666E+4   1.47693E+4
  -4.13344E+4   1.44146E+4
  -4.09588E+4   1.43603E+4
  -4.06638E+4   1.43893E+4
  -4.03502E+4   1.42245E+4
  -4.01091E+4   1.40691E+4
  -3.99020E+4   1.40308E+4
  -3.96580E+4   1.39672E+4
  -3.92765E+4   1.38803E+4
  -3.90533E+4   1.37048E+4
  -3.87262E+4   1.35951E+4
  -3.83616E+4   1.35500E+4
  -3.80955E+4   1.35186E+4
  -3.77718E+4   1.33953E+4
  -3.75945E+4   1.32756E+4
  -3.73890E+4   1.31487E+4
  -3.71178E+4   1.30659E+4
  -3.68058E+4   1.29808E+4
  -3.64817E+4   1.27318E+4
  -3.61906E+4   1.27491E+4
  -3.58859E+4   1.26282E+4
  -3.56419E+4   1.25376E+4
  -3.54066E+4   1.24393E+4
  -3.51485E+4   1.23202E+4
  -3.48675E+4   1.22752E+4
  -3.46908E+4   1.22318E+4
  -3.44460E+4   1.21470E+4
  -3.42265E+4   1.20279E+4
  -3.39541E+4   1.19789E+4
  -3.37324E+4   1.18638E+4
  -3.35434E+4   1.18057E+4
  -3.32164E+4   1.16848E+4
  -3.30443E+4   1.15692E+4
  -3.27819E+4   1.15561E+4
  -3.25901E+4   1.14930E+4
  -3.23685E+4   1.14032E+4
  -3.21428E+4   1.13065E+4
  -3.18833E+4   1.11979E+4
  -3.17128E+4   1.12061E+4
  -3.15155E+4   1.11107E+4
  -3.13000E+4   1.09900E+4
  -3.10902E+4   1.09638E+4
  -3.09323E+4   1.08319E+4
  -3.07252E+4   1.07185E+4
  -3.05286E+4   1.05560E+4
  -3.03160E+4   1.03955E+4
  -3.01585E+4   1.03295E+4
  -2.99166E+4   1.02930E+4
  -2.97248E+4   1.01620E+4
  -2.96302E+4   1.00509E+4
  -2.94254E+4   9.85474E+3
  -2.92184E+4   9.86119E+3
  -2.90822E+4   9.73623E+3
  -2.88446E+4   9.52481E+3
  -2.87035E+4   9.41681E+3
  -2.83705E+4   9.29889E+3
  -2.82485E+4   9.23582E+3
  -2.80626E+4   9.19072E+3
  -2.79014E+4   8.93454E+3
  -2.77269E+4   8.73927E+3
  -2.74148E+4   8.65826E+3
  -2.72789E+4   8.56254E+3
  -2.71226E+4   8.39515E+3
  -2.69393E+4   8.25107E+3
  -2.67559E+4   8.17589E+3
  -2.65623E+4   7.98330E+3
  -2.64167E+4   7.90208E+3
  -2.62368E+4   7.72477E+3
  -2.60213E+4   7.60032E+3
  -2.57472E+4   7.43465E+3
  -2.55841E+4   7.43993E+3
  -2.55045E+4   7.29570E+3
  -2.52740E+4   7.15080E+3
  -2.50723E+4   7.00293E+3
  -2.49527E+4   6.91198E+3
  -2.47503E+4   6.73012E+3
  -2.45273E+4   6.60709E+3
  -2.42974E+4   6.49721E+3
  -2.41589E+4   6.32529E+3
  -2.40650E+4   6.23840E+3
  -2.38121E+4   6.14761E+3
  -2.37687E+4   5.89883E+3
  -2.35578E+4   5.88979E+3
  -2.32877E+4   5.82630E+3
  -2.32813E+4   5.70572E+3
  -2.30659E+4   5.50057E+3
  -2.29047E+4   5.49411E+3
  -2.27063E+4   5.41456E+3
  -2.26361E+4   5.33840E+3
  -2.24556E+4   5.13392E+3
  -2.22326E+4   5.14336E+3
  -2.21451E+4   4.97474E+3
  -2.20361E+4   4.92292E+3
  -2.19079E+4   4.78140E+3
  -2.18121E+4   4.78359E+3
  -2.16612E+4   4.63086E+3
  -2.14878E+4   4.56574E+3
  -2.13572E+4   4.51647E+3
  -2.12986E+4   4.43875E+3
  -2.11407E+4   4.32938E+3
  -2.10108E+4   4.24199E+3
  -2.09442E+4   4.11331E+3
  -2.08143E+4   4.08309E+3
  -2.07200E+4   3.90486E+3
  -2.06183E+4   3.85612E+3
  -2.04161E+4   3.74584E+3
  -2.03677E+4   3.74347E+3
  -2.02874E+4   3.59096E+3
  -2.02176E+4   3.49230E+3
  -2.01070E+4   3.43053E+3
  -1.99993E+4   3.36779E+3
  -1.98568E+4   3.21409E+3
  -1.98032E+4   3.09169E+3
  -1.97443E+4   3.15542E+3
  -1.96306E+4   3.01022E+3
  -1.95298E+4   2.90603E+3
  -1.95133E+4   2.87773E+3
  -1.93771E+4   2.78210E+3
  -1.93026E+4   2.65896E+3
  -1.91671E+4   2.58644E+3
  -1.90918E+4   2.51153E+3
  -1.90147E+4   2.40572E+3
  -1.89325E+4   2.36839E+3
  -1.88687E+4   2.24238E+3
  -1.87861E+4   2.23359E+3
  -1.86883E+4   2.17140E+3
  -1.86172E+4   2.07896E+3
  -1.84918E+4   2.03216E+3
  -1.83983E+4   1.91775E+3
  -1.83984E+4   1.85782E+3
  -1.82310E+4   1.81939E+3
  -1.82184E+4   1.72870E+3
  -1.81112E+4   1.67741E+3
  -1.79938E+4   1.58114E+3
  -1.79696E+4   1.63275E+3
  -1.79263E+4   1.51430E+3
  -1.78986E+4   1.50860E+3
  -1.77359E+4   1.45201E+3
  -1.77659E+4   1.36599E+3
  -1.76797E+4   1.33683E+3
  -1.75815E+4   1.27785E+3
  -1.76127E+4   1.20051E+3
  -1.75373E+4   1.13676E+3
  -1.73820E+4   1.08835E+3
  -1.73798E+4   9.95794E+2
  -1.73517E+4   9.70009E+2
  -1.73532E+4   9.15974E+2
  -1.72161E+4   8.35894E+2
  -1.71807E+4   7.80362E+2
  -1.70911E+4   8.19127E+2
  -1.69900E+4   7.69323E+2
  -1.69844E+4   7.64732E+2
  -1.68921E+4   7.33107E+2
  -1.68815E+4   6.82120E+2
  -1.67817E+4   5.80164E+2
  -1.67178E+4   6.58422E+2
  -1.67192E+4   5.50276E+2
  -1.66777E+4   4.41245E+2
  -1.66104E+4   4.79953E+2
  -1.65460E+4   4.70979E+2
  -1.65396E+4   4.29123E+2
  -1.64366E+4   3.35134E+2
  -1.63547E+4   3.38416E+2
  -1.62865E+4   3.33265E+2
  -1.62101E+4   2.58569E+2
  -1.62066E+4   2.84784E+2
  -1.61691E+4   3.09102E+2
  -1.60599E+4   2.59197E+2
  -1.60127E+4   2.18389E+2
  -1.59686E+4   2.35226E+2
  -1.58469E+4   2.18351E+2
  -1.57437E+4   2.36007E+2
  -1.57584E+4   1.89175E+2
  -1.57114E+4   1.65525E+2
  -1.56740E+4   1.47157E+2
  -1.56019E+4   1.46075E+2
  -1.55235E+4   8.63309E+1
  -1.54452E+4   1.41394E+2
  -1.54275E+4   1.18489E+2
  -1.52775E+4   1.18280E+2
  -1.52739E+4   8.62089E+1
  -1.51970E+4   1.54336E+2
  -1.51335E+4   4.87267E+1
  -1.50918E+4   1.07858E+2
  -1.49426E+4   6.62586E+1
  -1.49201E+4   1.15049E+2
  -1.48657E+4   7.71067E+1
  -1.48328E+4   3.87105E+1
  -1.47396E+4   5.85194E+1
  -1.46743E+4   6.67569E+1
  -1.45450E+4   1.00614E+2
  -1.44913E+4   1.18677E+2
  -1.44586E+4   4.94305E+1
  -1.43112E+4   1.11787E+2
  -1.42506E+4   1.16625E+2
  -1.41746E+4   1.02397E+2
  -1.41460E+4   7.33290E+1
  -1.40744E+4   8.99113E+1
  -1.39731E+4   9.58832E+1
  -1.38804E+4   1.09346E+2
  -1.37758E+4   1.78599E+2
  -1.37887E+4   1.35422E+2
  -1.36856E+4   1.10555E+2
  -1.36028E+4   1.42413E+2
  -1.35808E+4   1.87936E+2
  -1.34343E+4   1.41238E+2
  -1.33396E+4   1.13891E+2
  -1.31989E+4   2.74304E+2
  -1.32056E+4   1.82056E+2
  -1.31136E+4   2.20743E+2
  -1.30083E+4   1.95852E+2
  -1.29738E+4   1.89184E+2
  -1.28645E+4   2.28174E+2
  -1.27454E+4   2.05666E+2
  -1.26797E+4   1.88675E+2
  -1.26389E+4   2.66744E+2
  -1.25309E+4   2.17064E+2
  -1.24435E+4   3.05791E+2
  -1.23898E+4   2.57086E+2
  -1.22609E+4   2.79937E+2
  -1.21657E+4   2.35462E+2
  -1.20927E+4   2.26823E+2
  -1.19427E+4   2.66679E+2
  -1.19440E+4   2.82625E+2
  -1.18764E+4   1.79107E+2
  -1.17595E+4   2.71493E+2
  -1.17066E+4   2.24111E+2
  -1.15563E+4   2.73281E+2
  -1.15094E+4   2.36072E+2
  -1.14587E+4   3.29054E+2
  -1.12538E+4   3.05756E+2
  -1.12317E+4   3.50444E+2
  -1.11234E+4   3.02465E+2
  -1.10469E+4   2.29976E+2
  -1.09670E+4   2.77755E+2
  -1.08473E+4   2.24629E+2
  -1.08239E+4   2.17985E+2
  -1.06665E+4   2.94233E+2
  -1.05836E+4   3.43819E+2
  -1.04909E+4   3.17390E+2
  -1.05120E+4   2.67584E+2
  -1.03608E+4   2.35057E+2
  -1.02928E+4   2.50555E+2
  -1.02189E+4   2.35284E+2
  -1.01284E+4   2.78421E+2
  -1.00693E+4   1.84787E+2
  -9.97303E+3   2.29205E+2
  -9.86469E+3   1.93185E+2
  -9.79423E+3   2.18796E+2
  -9.72814E+3   1.99829E+2
  -9.69495E+3   2.00632E+2
  -9.50691E+3   1.25502E+2
  -9.46503E+3   2.30822E+2
  -9.36868E+3   1.32695E+2
  -9.33051E+3   1.08281E+2
  -9.22029E+3   1.31706E+2
  -9.10616E+3   1.21262E+2
  -9.06929E+3   1.23074E+2
  -9.02677E+3   1.17195E+2
  -8.92273E+3   6.98708E+1
  -8.79612E+3   6.58972E+1
  -8.75003E+3   6.75477E+1
  -8.68414E+3   9.67457E+0
  -8.64574E+3   5.93056E+1
  -8.59179E+3  -1.17205E+1
  -8.47677E+3   2.65348E+1
  -8.41687E+3   2.28318E+1
  -8.32328E+3   3.05900E+1
  -8.30249E+3  -4.87740E+1
  -8.18646E+3  -9.41504E+1
  -8.07836E+3  -7.30771E+1
  -8.04691E+3  -1.14089E+2
  -8.00721E+3  -9.62765E+1
  -7.90581E+3  -7.35971E+1
  -7.83991E+3  -1.22429E+2
  -7.79433E+3  -1.06641E+2
  -7.68949E+3  -1.58825E+2
  -7.69683E+3  -2.22623E+2
  -7.58402E+3  -1.86399E+2
  -7.53151E+3  -2.38972E+2
  -7.43970E+3  -1.50270E+2
  -7.40719E+3  -2.09662E+2
  -7.36339E+3  -2.52536E+2
  -7.35976E+3  -2.76974E+2
  -7.22507E+3  -3.53477E+2
  -7.21062E+3  -2.96575E+2
  -7.11631E+3  -3.10844E+2
  -7.02601E+3  -2.63138E+2
  -7.00204E+3  -3.55172E+2
  -6.90814E+3  -3.90917E+2
  -6.90186E+3  -3.40060E+2
  -6.87013E+3  -3.89981E+2
  -6.79218E+3  -4.09567E+2
  -6.76110E+3  -4.80946E+2
  -6.72653E+3  -4.36599E+2
  -6.70893E+3  -4.81845E+2
  -6.65235E+3  -5.06744E+2
  -6.55473E+3  -4.53138E+2
  -6.52615E+3  -4.99790E+2
  -6.52565E+3  -4.86639E+2
  -6.42590E+3  -5.19631E+2
  -6.31744E+3  -5.73430E+2
  -6.35450E+3  -5.11912E+2
  -6.28033E+3  -5.70823E+2
  -6.23763E+3  -5.86118E+2
  -6.28211E+3  -6.49293E+2
  -6.23732E+3  -5.59769E+2
  -6.18227E+3  -5.96620E+2
  -6.21374E+3  -6.11208E+2
  -6.10037E+3  -6.32617E+2
  -6.01215E+3  -6.32199E+2
  -5.95391E+3  -7.33397E+2
  -5.94856E+3  -7.18488E+2
  -5.90644E+3  -7.09478E+2
  -5.88771E+3  -7.03127E+2
  -5.85640E+3  -6.96289E+2
  -5.80840E+3  -6.75306E+2
  -5.75919E+3  -6.90556E+2
  -5.72246E+3  -7.41133E+2
  -5.71181E+3  -7.60687E+2
  -5.65934E+3  -8.13658E+2
  -5.62154E+3  -7.43614E+2
  -5.64846E+3  -7.81305E+2
  -5.61966E+3  -8.13156E+2
  -5.55358E+3  -7.58387E+2
  -5.52276E+3  -7.22740E+2
