 LCModel (Version 6.3-1N) Copyright: S.W. Provencher.          Ref.: Magn. Reson. Med. 30:672-679 (1993).                
 Slice_N1@16_20  02-Jun-2023 14:36:40
 27 lines in following concentration table = NCONC+1
    Conc.  %SD /Cr+PCr  Metabolite                                         
 1.90E-06  17% 2.4E-04 Mac                                                 
 2.19E-02  46%   2.757 Cr                                                  
 4.16E-02  23%   5.243 PCr                                                 
 8.41E-02  10%  10.602 Ins                                                 
 8.38E-02   7%  10.561 NAA                                                 
 5.21E-02  14%   6.567 Tau                                                 
 1.20E-02  38%   1.514 PCho                                                
 4.52E-03 106%   0.569 GPC                                                 
 6.23E-02  15%   7.845 Glu                                                 
 1.11E-02  54%   1.394 Gln                                                 
    0.000 999%   0.000 Ala                                                 
 2.06E-02  61%   2.590 Asc                                                 
 9.95E-03  75%   1.253 Asp                                                 
 6.85E-03  59%   0.863 GABA                                                
 9.63E-03  52%   1.214 Glc                                                 
 5.89E-03  49%   0.742 GSH                                                 
    0.000 999%   0.000 Lac                                                 
 3.00E-03 152%   0.378 NAAG                                                
    0.000 999%   0.000 PE                                                  
 1.65E-02  12%   2.083 GPC+PCho                                            
 8.68E-02   8%  10.940 NAA+NAAG                                            
 7.33E-02  15%   9.238 Glu+Gln                                             
 6.35E-02   9%   8.000 Cr+PCr                                              
 8.68E-02   8%  10.940 NAA+NAAG                                            
 6.35E-02   9%   8.000 Cr+PCr                                              
 7.33E-02  15%   9.238 Glu+Gln                                             
   6 lines in following misc. output table
  FWHM = 0.017 ppm    S/N =   5                                            
  Data shift = 0.012 ppm                                                   
  Ph: -14 deg     -12.2 deg/ppm                                            
  alphaB,S = 3.1E+01,   1.3E+01                                            
   18 spline knots.   Ns = 5(1)                                            
   3 inflections.     1 extrema                                            
  654 points on ppm-axis = NY
      4.000000     3.994181     3.988363     3.982544     3.976726     3.970907     3.965088     3.959270     3.953451     3.947633
      3.941814     3.935995     3.930177     3.924358     3.918540     3.912721     3.906902     3.901084     3.895265     3.889446
      3.883628     3.877809     3.871991     3.866172     3.860353     3.854535     3.848716     3.842898     3.837079     3.831260
      3.825442     3.819623     3.813805     3.807986     3.802167     3.796349     3.790530     3.784712     3.778893     3.773074
      3.767256     3.761437     3.755619     3.749800     3.743981     3.738163     3.732344     3.726526     3.720707     3.714888
      3.709070     3.703251     3.697433     3.691614     3.685795     3.679977     3.674158     3.668339     3.662521     3.656702
      3.650884     3.645065     3.639246     3.633428     3.627609     3.621791     3.615972     3.610153     3.604335     3.598516
      3.592698     3.586879     3.581060     3.575242     3.569423     3.563605     3.557786     3.551967     3.546149     3.540330
      3.534512     3.528693     3.522874     3.517056     3.511237     3.505419     3.499600     3.493781     3.487963     3.482144
      3.476326     3.470507     3.464688     3.458870     3.453051     3.447232     3.441414     3.435595     3.429777     3.423958
      3.418139     3.412321     3.406502     3.400684     3.394865     3.389046     3.383228     3.377409     3.371591     3.365772
      3.359953     3.354135     3.348316     3.342498     3.336679     3.330860     3.325042     3.319223     3.313405     3.307586
      3.301767     3.295949     3.290130     3.284312     3.278493     3.272674     3.266856     3.261037     3.255219     3.249400
      3.243581     3.237763     3.231944     3.226125     3.220307     3.214488     3.208670     3.202851     3.197032     3.191214
      3.185395     3.179577     3.173758     3.167939     3.162121     3.156302     3.150484     3.144665     3.138846     3.133028
      3.127209     3.121391     3.115572     3.109753     3.103935     3.098116     3.092298     3.086479     3.080660     3.074842
      3.069023     3.063205     3.057386     3.051567     3.045749     3.039930     3.034111     3.028293     3.022474     3.016656
      3.010837     3.005018     2.999200     2.993381     2.987563     2.981744     2.975925     2.970107     2.964288     2.958470
      2.952651     2.946832     2.941014     2.935195     2.929377     2.923558     2.917739     2.911921     2.906102     2.900284
      2.894465     2.888646     2.882828     2.877009     2.871191     2.865372     2.859553     2.853735     2.847916     2.842098
      2.836279     2.830460     2.824642     2.818823     2.813004     2.807186     2.801367     2.795549     2.789730     2.783911
      2.778093     2.772274     2.766456     2.760637     2.754818     2.749000     2.743181     2.737363     2.731544     2.725725
      2.719907     2.714088     2.708270     2.702451     2.696632     2.690814     2.684995     2.679177     2.673358     2.667539
      2.661721     2.655902     2.650084     2.644265     2.638446     2.632628     2.626809     2.620991     2.615172     2.609353
      2.603535     2.597716     2.591897     2.586079     2.580260     2.574442     2.568623     2.562804     2.556986     2.551167
      2.545349     2.539530     2.533711     2.527893     2.522074     2.516256     2.510437     2.504618     2.498800     2.492981
      2.487163     2.481344     2.475525     2.469707     2.463888     2.458070     2.452251     2.446432     2.440614     2.434795
      2.428977     2.423158     2.417339     2.411521     2.405702     2.399884     2.394065     2.388246     2.382428     2.376609
      2.370790     2.364972     2.359153     2.353335     2.347516     2.341697     2.335879     2.330060     2.324242     2.318423
      2.312604     2.306786     2.300967     2.295149     2.289330     2.283511     2.277693     2.271874     2.266056     2.260237
      2.254418     2.248600     2.242781     2.236963     2.231144     2.225325     2.219507     2.213688     2.207870     2.202051
      2.196232     2.190414     2.184595     2.178777     2.172958     2.167139     2.161321     2.155502     2.149683     2.143865
      2.138046     2.132228     2.126409     2.120590     2.114772     2.108953     2.103135     2.097316     2.091497     2.085679
      2.079860     2.074042     2.068223     2.062404     2.056586     2.050767     2.044949     2.039130     2.033311     2.027493
      2.021674     2.015856     2.010037     2.004218     1.998400     1.992581     1.986763     1.980944     1.975126     1.969307
      1.963489     1.957670     1.951852     1.946033     1.940215     1.934397     1.928578     1.922760     1.916941     1.911123
      1.905304     1.899486     1.893667     1.887849     1.882030     1.876212     1.870393     1.864575     1.858756     1.852938
      1.847119     1.841301     1.835482     1.829664     1.823845     1.818027     1.812208     1.806390     1.800571     1.794753
      1.788934     1.783116     1.777297     1.771479     1.765660     1.759842     1.754023     1.748205     1.742386     1.736568
      1.730749     1.724931     1.719113     1.713294     1.707476     1.701657     1.695839     1.690020     1.684202     1.678383
      1.672565     1.666746     1.660928     1.655109     1.649291     1.643472     1.637654     1.631835     1.626017     1.620198
      1.614380     1.608561     1.602743     1.596924     1.591106     1.585287     1.579469     1.573650     1.567832     1.562013
      1.556195     1.550376     1.544558     1.538739     1.532921     1.527102     1.521284     1.515465     1.509647     1.503829
      1.498010     1.492192     1.486373     1.480555     1.474736     1.468918     1.463099     1.457281     1.451462     1.445644
      1.439825     1.434007     1.428188     1.422370     1.416551     1.410733     1.404914     1.399096     1.393277     1.387459
      1.381640     1.375822     1.370003     1.364185     1.358366     1.352548     1.346729     1.340911     1.335092     1.329274
      1.323455     1.317637     1.311818     1.306000     1.300182     1.294363     1.288545     1.282726     1.276908     1.271089
      1.265271     1.259452     1.253634     1.247815     1.241997     1.236178     1.230360     1.224541     1.218723     1.212904
      1.207086     1.201267     1.195449     1.189630     1.183812     1.177993     1.172175     1.166356     1.160538     1.154719
      1.148901     1.143082     1.137264     1.131445     1.125627     1.119808     1.113990     1.108171     1.102353     1.096534
      1.090716     1.084898     1.079079     1.073261     1.067442     1.061624     1.055805     1.049987     1.044168     1.038350
      1.032531     1.026713     1.020894     1.015076     1.009257     1.003439     0.997620     0.991802     0.985983     0.980165
      0.974346     0.968528     0.962709     0.956891     0.951072     0.945254     0.939435     0.933617     0.927798     0.921980
      0.916161     0.910343     0.904524     0.898706     0.892887     0.887069     0.881251     0.875432     0.869614     0.863795
      0.857977     0.852158     0.846340     0.840521     0.834703     0.828884     0.823066     0.817247     0.811429     0.805610
      0.799792     0.793973     0.788155     0.782336     0.776518     0.770699     0.764881     0.759062     0.753244     0.747425
      0.741607     0.735788     0.729970     0.724151     0.718333     0.712514     0.706696     0.700877     0.695059     0.689240
      0.683422     0.677603     0.671785     0.665967     0.660148     0.654330     0.648511     0.642693     0.636874     0.631056
      0.625237     0.619419     0.613600     0.607782     0.601963     0.596145     0.590326     0.584508     0.578689     0.572871
      0.567052     0.561234     0.555415     0.549597     0.543778     0.537960     0.532141     0.526323     0.520504     0.514686
      0.508867     0.503049     0.497230     0.491412     0.485593     0.479775     0.473956     0.468138     0.462319     0.456501
      0.450682     0.444864     0.439045     0.433227     0.427408     0.421590     0.415771     0.409953     0.404134     0.398316
      0.392497     0.386679     0.380860     0.375042     0.369223     0.363405     0.357586     0.351767     0.345949     0.340130
      0.334312     0.328493     0.322675     0.316856     0.311038     0.305219     0.299401     0.293582     0.287764     0.281945
      0.276127     0.270308     0.264490     0.258671     0.252853     0.247034     0.241216     0.235397     0.229579     0.223760
      0.217942     0.212123     0.206305     0.200486
 NY phased data points follow
  -2.90708E-01 -2.28676E-01  1.96335E-02 -1.55833E-01 -2.67972E-01  6.44974E-02 -1.34360E-01 -2.47727E-01 -9.47069E-02 -1.69917E-01
  -4.60906E-01  3.25966E-01  2.42680E-01  6.26111E-01  3.23626E-01 -3.54577E-03  3.38275E-01  4.06855E-02  5.38388E-01 -3.34692E-02
   1.07469E-01 -1.48021E-01  2.55231E-01  2.25784E-01 -5.68891E-02  4.24033E-01  5.04863E-02  1.50580E-01 -7.09978E-02  1.89080E-01
  -2.64191E-01 -1.56694E-01 -1.34979E-01 -3.15222E-01 -3.08974E-02 -1.98451E-01 -1.50889E-01 -2.20722E-01 -4.08536E-01 -1.71016E-01
   3.63863E-01  1.34206E-02  1.11020E-01 -3.79296E-02 -1.04102E-02  1.72864E-01  8.68857E-02  3.49912E-01  4.06538E-01  3.05578E-01
  -7.54877E-02 -3.70133E-02  9.15660E-02  3.10439E-01  1.40130E-01 -9.25726E-02 -2.02226E-01 -3.71681E-01 -1.66266E-01 -1.98603E-01
  -1.42004E-01 -2.25763E-01 -5.48917E-01 -1.89501E-01 -8.66539E-02 -4.81287E-01 -1.74217E-01  8.77230E-02  6.54653E-02  3.25731E-01
   3.32485E-01  2.58720E-01  1.22655E-01  1.19760E-01  1.78477E-01  9.34193E-04 -1.41670E-02 -2.86751E-01 -1.48398E-01 -5.27780E-01
  -5.69031E-01  5.88317E-02 -1.37694E-02  1.24142E-01  2.96080E-01  4.21840E-01  1.75660E-01  3.11412E-01  2.11917E-01  4.20135E-01
   3.51485E-01  3.85374E-02  2.93922E-01  2.24635E-02  3.16296E-01  3.10184E-01  1.68103E-01  7.36205E-02  1.00431E-01 -9.38637E-02
  -4.56043E-01 -3.47903E-01 -6.16814E-02 -1.08534E-01 -1.20832E-01  4.59549E-01  3.66910E-01  2.04078E-01  4.14370E-01  3.70913E-01
   2.82453E-01  5.81622E-01  1.40622E-01 -7.89720E-02  4.14748E-01  4.93872E-01  2.37862E-01  4.00208E-01  4.80606E-01  3.28573E-01
   4.75714E-01  5.29362E-02  1.62122E-01 -5.23414E-02 -4.31190E-02 -2.24790E-01 -3.18576E-01 -9.98514E-02 -4.26842E-01 -3.65392E-01
  -6.44887E-01 -3.60492E-01 -3.93760E-01 -2.38224E-01 -4.12703E-01 -8.74644E-01 -1.06401E+00 -1.01441E+00 -3.61130E-01 -3.69377E-01
  -6.43072E-01 -6.92152E-01  2.12491E-01  3.51594E-01 -9.80326E-02  2.44127E-01  3.34669E-01 -6.34774E-02  3.48613E-01  2.03095E-01
  -1.34071E-01  4.54281E-01  6.62269E-02  9.55243E-02  1.70087E-01  4.28289E-01  4.90438E-01  2.50567E-01  4.49180E-01  3.11085E-01
   4.23531E-01  5.28973E-01  3.99895E-01  3.98625E-01  5.86256E-01  6.67933E-01  1.07631E+00  4.10939E-01 -6.97720E-01 -9.79348E-01
  -7.75009E-01 -5.88727E-01 -7.39235E-01 -4.32949E-01 -3.86084E-01 -1.91348E-01 -3.42581E-01 -2.99609E-01 -4.63890E-01 -4.99852E-01
   7.82828E-02 -4.10321E-01 -3.72400E-01 -2.30151E-01 -1.35676E-01 -3.96320E-01 -3.58785E-01 -4.89740E-02 -4.88981E-01 -1.73117E-01
  -1.39413E-01 -2.68337E-01 -1.89539E-01 -1.64547E-01 -3.18737E-01 -1.87551E-01 -8.35846E-02 -2.46858E-01  1.33960E-01 -1.18626E-02
  -7.50441E-02 -7.22449E-02 -2.57907E-02 -3.78679E-02 -2.31522E-02  1.13218E-01 -1.25191E-01  1.12988E-01  1.04546E-01  8.45986E-02
   8.69798E-02  4.30168E-02 -1.35082E-02 -7.81726E-02 -1.32651E-01 -1.97478E-01  9.86880E-02  9.75579E-02 -1.51641E-01 -3.12500E-01
   1.98484E-02  2.45747E-01  3.84735E-01 -2.09813E-02 -1.43304E-01  2.60550E-01  1.98479E-01  2.39622E-01  1.94560E-01  3.53358E-01
   3.13695E-01  4.18205E-01 -3.37787E-02 -2.45177E-01 -1.07920E-01  2.85549E-02  1.66921E-01 -1.00469E-01  7.79362E-02 -1.60724E-02
  -6.21326E-02 -2.01116E-01  7.90875E-02  3.51009E-03  1.64572E-01 -2.90036E-02 -2.35985E-01 -1.69100E-01 -3.71041E-01  2.06792E-01
  -3.46696E-01 -2.65058E-03  6.62102E-02  2.41525E-02 -5.34344E-02 -1.78450E-01  4.32973E-01  1.52490E-01  1.23766E-01 -1.38875E-03
   2.12282E-01  9.22285E-02  8.69848E-02 -2.27230E-01 -7.10913E-02  2.41404E-01 -2.24089E-01  3.02638E-02 -1.11596E-01  3.28720E-02
   7.34289E-02 -3.96698E-03 -9.15663E-02 -1.98127E-01 -1.94374E-03 -1.25263E-02 -1.04615E-02 -1.05016E-01 -9.98118E-02 -7.33592E-02
  -8.92125E-02 -4.53907E-01 -5.46434E-01 -1.22432E-01 -2.85254E-01  2.63545E-01  4.90184E-01  1.63546E-01  2.97343E-01  1.04554E-01
   2.82694E-01  2.19427E-01  1.40900E-01 -9.98718E-02  2.49185E-02  5.37253E-02 -3.84188E-02  2.84382E-01  9.22628E-02  7.75510E-02
   4.24659E-01  4.16220E-01  1.13421E-01  4.10229E-01  2.84318E-01  3.43429E-01  1.69307E-01  5.44939E-01  3.99149E-01 -3.63117E-02
   4.43081E-01  2.53825E-01  5.80974E-01  1.89732E-01  8.81945E-02  1.52818E-01  2.19912E-01  2.91664E-02 -1.05182E-01 -2.90239E-01
  -1.34674E-01  2.58175E-03 -3.33718E-01  2.08278E-01 -3.77388E-01 -7.04621E-02 -1.57500E-01  2.48320E-03  1.41221E-01  1.39259E-01
   4.95484E-01 -3.25537E-03  1.77531E-01 -1.69645E-01  1.04989E-01  7.09301E-03 -1.40186E-01 -4.15270E-01 -7.19458E-01 -2.63133E-01
  -1.43359E-01 -4.95514E-01 -1.69024E+00 -2.19764E+00 -1.25539E+00 -5.41229E-01 -5.85753E-01 -1.11228E-01  3.43883E-02 -3.55929E-01
  -2.88453E-01 -1.63697E-01 -2.58361E-01  2.42930E-01  4.33895E-02 -3.27050E-02  4.06406E-01  1.46431E-01  8.03663E-02  2.50154E-01
   2.66586E-01 -2.94726E-02  3.38315E-01  2.10672E-01  1.25043E-01  3.27730E-01 -3.00201E-02  1.20622E-01  2.94317E-01 -2.51773E-01
   4.57663E-02  2.62553E-01 -1.24501E-01  1.41952E-01  5.39936E-02  2.26478E-01  1.32260E-01  3.69025E-01  3.75507E-01  1.56134E-01
  -1.86972E-01 -1.62833E-01  3.87493E-01  1.03330E-01  4.09420E-01  2.46882E-01  2.06654E-01  2.88781E-01  2.88487E-01  3.91834E-01
   2.44209E-01  2.96616E-01  1.73095E-01  2.99148E-02  2.31791E-01  2.01639E-01  1.63879E-01  3.45883E-01  2.60748E-01  2.76425E-01
  -2.54007E-01 -2.91039E-02 -8.22049E-02 -3.23325E-01 -2.78122E-02 -1.26101E-01  7.62321E-03 -1.59234E-01 -3.99532E-02 -1.54515E-02
  -3.44546E-02  1.06035E-02 -7.04631E-02  1.36411E-01  1.62065E-01 -5.67692E-02 -2.20994E-01 -2.43048E-01  6.87914E-03 -1.00410E-01
  -2.69048E-01 -8.44928E-02  5.55195E-02 -2.24777E-01 -3.34395E-01 -1.39495E-02 -2.44367E-01  4.53789E-02  7.40351E-02 -2.50508E-01
  -4.07238E-01 -3.19866E-01 -3.54964E-02 -6.99727E-02 -2.97326E-01 -3.54979E-01  1.12535E-01  1.89304E-01  3.63215E-02 -1.12962E-01
  -7.79212E-02 -4.00984E-01 -2.22830E-01 -1.83310E-01  8.13728E-02  3.02123E-01 -5.92830E-02  2.72080E-01 -4.78670E-02  2.87546E-01
   2.31206E-01  1.87195E-01  2.47709E-01  1.80344E-01 -1.05315E-01 -4.42646E-01  2.22322E-01 -1.09253E-01 -1.60275E-01 -2.16799E-01
  -1.03339E-03  1.91888E-01 -7.05835E-02  1.23347E-01  1.62333E-01 -2.35141E-01 -3.74337E-01  9.10980E-03 -2.02945E-01 -1.38243E-01
  -1.15683E-01 -1.47004E-01 -1.03756E-01 -9.01301E-02  6.80863E-03  7.92303E-02 -4.39799E-02 -1.61774E-01 -9.12736E-02 -1.70242E-01
   1.36551E-01 -3.01887E-02 -9.99408E-02  1.09985E-01  1.54781E-01 -1.89802E-01 -5.02208E-02  3.85887E-01 -1.62030E-01  6.21992E-02
   1.69307E-01 -8.29289E-02  8.51517E-02  1.30477E-01 -5.90909E-02 -6.77843E-02  8.98212E-02  1.11511E-01  1.52382E-01  7.47950E-02
   2.06527E-01  6.94986E-02  1.20031E-01 -2.11128E-02  3.07976E-02  6.13171E-01  2.65137E-01 -7.60243E-02 -3.79514E-02  7.72633E-02
   8.65270E-02  3.70038E-02  9.08397E-02  8.13663E-02  5.04410E-02  1.39144E-01  1.24658E-02 -8.17151E-02  2.45103E-01 -2.01315E-02
  -1.79308E-01  2.08880E-01 -1.77874E-02 -2.11062E-01 -7.84249E-02 -3.32370E-01 -3.59819E-01 -4.13223E-01 -3.16289E-01 -2.18446E-01
  -4.37856E-01 -3.09631E-01 -4.58435E-01 -4.30713E-01 -3.37159E-01 -2.76232E-01 -1.91898E-01 -5.17575E-02  1.72858E-01  2.58464E-02
   2.04456E-03 -2.03064E-01 -1.53525E-01  1.77896E-01 -6.46126E-02 -2.63561E-01  6.42801E-02 -5.51740E-02  1.05951E-01  7.51579E-02
  -3.37742E-01  2.26922E-01  6.25991E-02 -9.55302E-02  2.22472E-02 -7.63750E-02 -1.06132E-01  2.34985E-01  2.81668E-01  2.69459E-02
   2.50947E-01 -1.16854E-01  2.73955E-01 -4.59961E-02 -1.07321E-01  1.41388E-01 -1.21357E-01  3.85396E-01  6.70278E-02  2.74543E-02
  -6.69613E-02  1.29581E-02 -4.45422E-02 -6.62661E-02 -4.34126E-02  8.81952E-03  1.83889E-01 -2.07226E-01 -1.59878E-01 -1.56153E-01
  -8.76293E-02 -2.63059E-01  8.96448E-02  2.19760E-01  1.52944E-01  1.31108E-01  3.79856E-01  2.20381E-01 -2.62111E-01  2.97196E-01
   8.31158E-02  2.94659E-01 -2.59871E-02 -2.68093E-01 -8.86496E-02 -1.89550E-01 -1.01071E-01 -9.57388E-02 -1.35233E-01 -1.48240E-01
   5.27722E-02 -2.02054E-01  5.13414E-02 -1.30400E-01 -1.47182E-01 -2.06794E-01 -1.05743E-01  2.50686E-01  8.20413E-02  6.48666E-02
   5.39710E-02 -3.15440E-02 -1.20718E-01  3.44999E-01  1.27926E-01  1.71150E-01  4.02576E-02 -6.91372E-02  1.75105E-01  1.32412E-01
   8.58281E-02 -1.19310E-01 -3.33953E-03  2.19638E-01  2.80865E-01 -8.89729E-02  1.42656E-01  7.04133E-02  1.84006E-01  3.06564E-01
   8.15303E-02  1.19566E-01  1.45275E-02  9.50880E-02  1.70872E-01 -7.78310E-02 -1.41713E-01  1.88859E-01 -2.37337E-01 -2.40746E-02
   2.30111E-03  2.45878E-01  2.25368E-01 -3.96395E-01  2.88930E-02  1.34563E-01  1.59775E-01  1.47987E-01  3.76141E-01  1.17895E-01
  -1.01204E-01 -3.97277E-02 -1.46574E-01 -1.17521E-02
 NY points of the fit to the data follow
   8.38366E-02  6.92099E-02  5.00552E-02  3.05937E-02  1.95339E-02  1.97505E-02  2.45481E-02  4.36677E-02  9.61036E-02  8.03154E-02
   1.05377E-01  2.87411E-01  5.22537E-01  5.91323E-01  4.84666E-01  4.33069E-01  4.08470E-01  3.08380E-01  2.04371E-01  1.49574E-01
   1.19400E-01  8.59798E-02  4.89652E-02  1.58967E-02 -1.19215E-02 -3.39811E-02 -5.04593E-02 -6.23745E-02 -7.36564E-02 -8.57567E-02
  -9.39269E-02 -1.00623E-01 -1.14466E-01 -1.35354E-01 -1.60566E-01 -1.72840E-01 -1.96365E-01 -2.12325E-01 -2.08852E-01 -1.56317E-01
  -9.20374E-02 -4.42187E-02  8.92727E-03  7.12790E-02  1.48836E-01  2.11946E-01  2.37523E-01  2.21056E-01  1.81654E-01  1.47658E-01
   1.10698E-01  6.79021E-02  3.18166E-02 -1.46212E-03 -4.15079E-02 -9.13882E-02 -1.43254E-01 -1.87099E-01 -2.22932E-01 -2.24850E-01
  -2.67407E-01 -3.38284E-01 -3.07745E-01 -2.62341E-01 -2.58895E-01 -2.47364E-01 -8.93551E-02  1.20434E-01  2.08528E-01  2.88672E-01
   3.73198E-01  3.59107E-01  2.78888E-01  2.00534E-01  1.27051E-01  2.12961E-02 -5.77221E-02 -9.55526E-02 -2.53594E-01 -4.74111E-01
  -5.11699E-01 -3.10144E-01 -1.11399E-01 -1.48504E-02  1.63933E-01  3.75860E-01  4.47852E-01  4.11762E-01  3.68683E-01  3.38585E-01
   3.07949E-01  2.76285E-01  2.40940E-01  1.91139E-01  1.61980E-01  9.27576E-02  3.89152E-02 -6.45728E-02 -1.65522E-01 -2.42861E-01
  -2.39212E-01 -1.24830E-01  1.65829E-02  1.47958E-01  2.29685E-01  2.59147E-01  2.73676E-01  2.81532E-01  2.85879E-01  2.86317E-01
   2.86271E-01  2.85215E-01  2.83434E-01  2.80978E-01  2.78694E-01  2.77894E-01  2.78542E-01  2.77200E-01  2.55045E-01  2.57174E-01
   2.58939E-01  1.85114E-01  1.09224E-01  5.06295E-02  1.06638E-03 -1.18739E-01 -2.00763E-01 -2.15604E-01 -2.82601E-01 -3.90022E-01
  -4.59288E-01 -5.20361E-01 -4.03315E-01 -2.38182E-01 -3.53152E-01 -8.18219E-01 -1.11803E+00 -8.98639E-01 -5.37275E-01 -3.46185E-01
  -2.54566E-01 -1.66477E-01 -8.63303E-02 -3.56188E-02  5.20853E-04  3.01915E-02  5.59862E-02  7.84191E-02  9.79261E-02  1.15312E-01
   1.31808E-01  1.47797E-01  1.63712E-01  1.80037E-01  1.97581E-01  2.16675E-01  2.38964E-01  2.65429E-01  2.95439E-01  3.30162E-01
   3.77841E-01  4.52626E-01  5.70948E-01  4.61450E-01  5.00298E-01  7.81085E-01  8.80693E-01  2.61292E-01 -6.42296E-01 -9.16368E-01
  -7.18079E-01 -5.72057E-01 -5.34350E-01 -4.92238E-01 -4.30857E-01 -3.80572E-01 -3.34882E-01 -3.03133E-01 -2.87787E-01 -2.74189E-01
  -2.53853E-01 -2.32895E-01 -2.19276E-01 -2.09960E-01 -2.01262E-01 -1.92783E-01 -1.83432E-01 -1.73289E-01 -1.64237E-01 -1.56623E-01
  -1.48571E-01 -1.39867E-01 -1.31269E-01 -1.22949E-01 -1.14448E-01 -1.06602E-01 -9.93755E-02 -9.10619E-02 -8.20073E-02 -7.51752E-02
  -6.98643E-02 -5.96876E-02 -4.54398E-02 -3.71539E-02 -4.28622E-02 -5.21295E-02 -4.71372E-02 -3.16433E-02 -2.52521E-02 -3.79076E-02
  -5.43727E-02 -5.98266E-02 -5.73419E-02 -5.48704E-02 -5.37500E-02 -5.03225E-02 -4.52911E-02 -4.19309E-02 -4.24185E-02 -4.32442E-02
  -2.91946E-02 -7.50465E-03  1.71667E-03  1.23074E-02  7.58627E-02  2.04781E-01  2.76405E-01  2.17933E-01  1.68852E-01  2.54982E-01
   3.77848E-01  3.51165E-01  2.05998E-01  9.42259E-02  4.35776E-02  1.04562E-02 -1.89914E-02 -3.87708E-02 -5.05780E-02 -6.05632E-02
  -6.92821E-02 -7.74660E-02 -8.23157E-02 -8.64312E-02 -8.95295E-02 -9.35229E-02 -9.75056E-02 -1.00423E-01 -1.04824E-01 -1.09440E-01
  -1.16341E-01 -1.28503E-01 -1.21965E-01 -1.35078E-01 -1.69228E-01 -1.49587E-01 -8.45297E-02 -1.42315E-02 -1.37771E-02  1.06885E-02
   9.66093E-02  1.40313E-01  1.31508E-01  1.04022E-01  1.25363E-01  1.51865E-01  1.36271E-01  1.08261E-01  9.57644E-02  9.16108E-02
   7.46329E-02  4.98221E-02  2.26255E-02 -4.68343E-03 -3.13096E-02 -5.92326E-02 -9.10415E-02 -1.31666E-01 -1.63416E-01 -2.01464E-01
  -2.45354E-01 -2.86842E-01 -3.18123E-01 -2.87252E-01 -1.91122E-01 -3.87773E-02  1.15972E-01  2.27275E-01  2.97056E-01  2.97631E-01
   2.63482E-01  2.25952E-01  1.98631E-01  1.80949E-01  1.74161E-01  1.80717E-01  1.87465E-01  1.91017E-01  1.89228E-01  1.83267E-01
   1.78139E-01  1.73495E-01  1.68639E-01  1.63531E-01  1.58638E-01  1.53661E-01  1.47729E-01  1.39347E-01  1.29640E-01  1.16280E-01
   1.03031E-01  8.67958E-02  7.04954E-02  5.08091E-02  3.21829E-02  8.99750E-03 -2.17388E-02 -6.42293E-02 -1.02068E-01 -1.33667E-01
  -1.55399E-01 -1.72808E-01 -1.76664E-01 -1.71293E-01 -1.55848E-01 -1.28276E-01 -9.00695E-02 -3.71705E-02  6.61782E-03  3.40016E-02
   3.46487E-02  9.28868E-03 -2.48381E-02 -5.73905E-02 -7.37559E-02 -1.00571E-01 -1.24295E-01 -1.70830E-01 -3.55354E-01 -2.52645E-01
  -1.82455E-01 -6.44988E-01 -1.57441E+00 -1.95851E+00 -1.36273E+00 -7.15470E-01 -4.75659E-01 -3.76096E-01 -2.54964E-01 -1.52920E-01
  -1.06606E-01 -7.68411E-02 -5.51340E-02 -4.00035E-02 -2.77118E-02 -1.89914E-02 -1.15195E-02 -8.09172E-03 -9.00604E-03 -1.32698E-02
  -2.11697E-02 -2.75850E-02 -3.44401E-02 -3.91548E-02 -4.04422E-02 -3.76062E-02 -3.00836E-02 -2.14181E-02 -1.31315E-02 -5.60823E-03
   1.14162E-03  7.99854E-03  1.49194E-02  2.12252E-02  2.56177E-02  2.88592E-02  3.21699E-02  3.61483E-02  4.02767E-02  4.40028E-02
   4.66649E-02  4.88139E-02  5.15540E-02  5.46522E-02  5.81185E-02  6.04502E-02  6.19181E-02  6.31688E-02  6.51702E-02  6.81075E-02
   7.11076E-02  7.40486E-02  7.61488E-02  7.65326E-02  7.52650E-02  7.34445E-02  7.18841E-02  7.02405E-02  6.78959E-02  6.42482E-02
   5.97688E-02  5.51602E-02  5.05799E-02  4.46878E-02  3.81501E-02  3.29443E-02  2.85979E-02  2.36831E-02  1.83137E-02  1.35486E-02
   9.37911E-03  5.44775E-03  2.18315E-03 -5.23732E-04 -3.20725E-03 -5.80141E-03 -8.37255E-03 -1.11693E-02 -1.34328E-02 -1.48121E-02
  -1.60746E-02 -1.74476E-02 -1.81235E-02 -1.73310E-02 -1.59798E-02 -1.39579E-02 -1.14554E-02 -8.64793E-03 -5.29862E-03 -8.87747E-04
   3.67436E-03  5.98135E-03  7.22448E-03  9.66325E-03  1.47209E-02  2.13196E-02  2.79167E-02  3.36744E-02  3.94232E-02  4.61774E-02
   5.41806E-02  6.33137E-02  7.28522E-02  8.24174E-02  9.15731E-02  1.01007E-01  1.10447E-01  1.19179E-01  1.26466E-01  1.31505E-01
   1.34653E-01  1.36133E-01  1.36558E-01  1.35869E-01  1.34224E-01  1.31834E-01  1.27393E-01  1.20659E-01  1.12227E-01  1.03654E-01
   9.52473E-02  8.76077E-02  7.96017E-02  7.10612E-02  6.26183E-02  5.54790E-02  4.95820E-02  4.34033E-02  3.72202E-02  3.20585E-02
   2.80735E-02  2.46968E-02  2.12423E-02  1.83135E-02  1.68986E-02  1.73986E-02  1.88103E-02  2.07885E-02  2.33867E-02  2.62662E-02
   2.95471E-02  3.37419E-02  3.88920E-02  4.33259E-02  4.68596E-02  4.99596E-02  5.20896E-02  5.33437E-02  5.50302E-02  5.77777E-02
   6.03111E-02  6.09370E-02  6.00545E-02  5.90397E-02  5.81276E-02  5.65102E-02  5.33359E-02  5.00838E-02  4.78504E-02  4.57044E-02
   4.27737E-02  3.95478E-02  3.66432E-02  3.38922E-02  3.10600E-02  2.76192E-02  2.37762E-02  2.05103E-02  1.85816E-02  1.68340E-02
   1.37507E-02  1.01193E-02  7.06869E-03  3.52110E-03 -1.74746E-03 -8.35017E-03 -1.50957E-02 -2.19875E-02 -2.93093E-02 -3.82162E-02
  -4.99374E-02 -6.40958E-02 -7.84194E-02 -9.16938E-02 -1.04922E-01 -1.18602E-01 -1.31120E-01 -1.41526E-01 -1.51164E-01 -1.60819E-01
  -1.68254E-01 -1.71170E-01 -1.71277E-01 -1.71615E-01 -1.71055E-01 -1.67345E-01 -1.61323E-01 -1.55237E-01 -1.49433E-01 -1.44109E-01
  -1.38743E-01 -1.32699E-01 -1.25215E-01 -1.17233E-01 -1.09521E-01 -1.00716E-01 -9.15504E-02 -8.24527E-02 -7.36513E-02 -6.50924E-02
  -5.71713E-02 -4.95123E-02 -4.12532E-02 -3.30977E-02 -2.71210E-02 -2.21581E-02 -1.58827E-02 -9.04070E-03 -3.99023E-03 -1.03071E-03
   2.28456E-03  6.44040E-03  1.00288E-02  1.26304E-02  1.43256E-02  1.56372E-02  1.76411E-02  1.98141E-02  2.06661E-02  2.08631E-02
   2.20701E-02  2.40133E-02  2.55646E-02  2.75001E-02  2.96919E-02  3.08673E-02  3.11919E-02  3.15255E-02  3.19160E-02  3.21086E-02
   3.21048E-02  3.21133E-02  3.21043E-02  3.22646E-02  3.24512E-02  3.21733E-02  3.19804E-02  3.28787E-02  3.46038E-02  3.48342E-02
   3.22654E-02  2.95626E-02  2.99793E-02  3.16869E-02  3.16384E-02  3.10288E-02  3.12622E-02  3.17181E-02  3.05035E-02  2.89246E-02
   2.90336E-02  3.07133E-02  3.23580E-02  3.28535E-02  3.30846E-02  3.41644E-02  3.56169E-02  3.66630E-02  3.68431E-02  3.76653E-02
   3.92177E-02  3.99081E-02  3.89564E-02  3.79165E-02  3.82503E-02  3.93512E-02  3.99804E-02  4.12432E-02  4.31339E-02  4.38820E-02
   4.37262E-02  4.41653E-02  4.66357E-02  4.98332E-02  5.16320E-02  5.18816E-02  5.04082E-02  4.91920E-02  4.98341E-02  5.16309E-02
   5.28496E-02  5.28582E-02  5.23849E-02  5.23162E-02  5.34714E-02  5.49016E-02  5.53351E-02  5.48469E-02  5.56955E-02  5.81619E-02
   5.99425E-02  6.03727E-02  6.09304E-02  6.27331E-02  6.46625E-02  6.58676E-02  6.73910E-02  7.03429E-02  7.48659E-02  7.85575E-02
   8.12137E-02  8.35686E-02  8.59329E-02  8.84446E-02
 NY background values follow
     5.777E-02    5.761E-02    5.744E-02    5.727E-02    5.710E-02    5.694E-02    5.677E-02    5.660E-02    5.643E-02    5.627E-02
     5.610E-02    5.593E-02    5.576E-02    5.560E-02    5.543E-02    5.526E-02    5.509E-02    5.493E-02    5.476E-02    5.459E-02
     5.442E-02    5.426E-02    5.409E-02    5.392E-02    5.375E-02    5.359E-02    5.342E-02    5.325E-02    5.308E-02    5.292E-02
     5.275E-02    5.258E-02    5.241E-02    5.225E-02    5.208E-02    5.191E-02    5.174E-02    5.158E-02    5.141E-02    5.124E-02
     5.107E-02    5.091E-02    5.074E-02    5.057E-02    5.040E-02    5.024E-02    5.007E-02    4.990E-02    4.973E-02    4.957E-02
     4.940E-02    4.923E-02    4.906E-02    4.890E-02    4.873E-02    4.856E-02    4.839E-02    4.823E-02    4.806E-02    4.789E-02
     4.772E-02    4.755E-02    4.739E-02    4.722E-02    4.705E-02    4.688E-02    4.672E-02    4.655E-02    4.638E-02    4.621E-02
