 LCModel (Version 6.3-1N) Copyright: S.W. Provencher.          Ref.: Magn. Reson. Med. 30:672-679 (1993).                
 Slice_N1@12_21  02-Jun-2023 14:36:31
 27 lines in following concentration table = NCONC+1
    Conc.  %SD /Cr+PCr  Metabolite                                         
 1.13E-06  53% 1.1E-04 Mac                                                 
 5.65E-02  34%   5.658 Cr                                                  
 2.34E-02  80%   2.342 PCr                                                 
    0.111  13%  11.099 Ins                                                 
    0.124   9%  12.389 NAA                                                 
    0.103  13%  10.328 Tau                                                 
 1.74E-02  25%   1.739 PCho                                                
 3.10E-03 146%   0.310 GPC                                                 
    0.112  15%  11.245 Glu                                                 
 4.72E-02  26%   4.726 Gln                                                 
 7.75E-03 151%   0.777 Ala                                                 
 6.46E-02  34%   6.476 Asc                                                 
 1.89E-02  57%   1.890 Asp                                                 
 9.75E-03  60%   0.977 GABA                                                
 1.33E-02  52%   1.329 Glc                                                 
 1.46E-02  50%   1.465 GSH                                                 
    0.000 999%   0.000 Lac                                                 
 4.84E-03 181%   0.485 NAAG                                                
    0.000 999%   0.000 PE                                                  
 2.05E-02  17%   2.049 GPC+PCho                                            
    0.129  10%  12.874 NAA+NAAG                                            
    0.159  13%  15.970 Glu+Gln                                             
 7.99E-02  12%   8.000 Cr+PCr                                              
    0.129  10%  12.874 NAA+NAAG                                            
 7.99E-02  12%   8.000 Cr+PCr                                              
    0.159  13%  15.970 Glu+Gln                                             
   6 lines in following misc. output table
  FWHM = 0.023 ppm    S/N =   4                                            
  Data shift = 0.017 ppm                                                   
  Ph:   8 deg       5.4 deg/ppm                                            
  alphaB,S = 3.1E+01,   6.9E-01                                            
   18 spline knots.   Ns = 5(1)                                            
   2 inflections.     1 extrema                                            
  654 points on ppm-axis = NY
      4.000000     3.994181     3.988363     3.982544     3.976726     3.970907     3.965088     3.959270     3.953451     3.947633
      3.941814     3.935995     3.930177     3.924358     3.918540     3.912721     3.906902     3.901084     3.895265     3.889446
      3.883628     3.877809     3.871991     3.866172     3.860353     3.854535     3.848716     3.842898     3.837079     3.831260
      3.825442     3.819623     3.813805     3.807986     3.802167     3.796349     3.790530     3.784712     3.778893     3.773074
      3.767256     3.761437     3.755619     3.749800     3.743981     3.738163     3.732344     3.726526     3.720707     3.714888
      3.709070     3.703251     3.697433     3.691614     3.685795     3.679977     3.674158     3.668339     3.662521     3.656702
      3.650884     3.645065     3.639246     3.633428     3.627609     3.621791     3.615972     3.610153     3.604335     3.598516
      3.592698     3.586879     3.581060     3.575242     3.569423     3.563605     3.557786     3.551967     3.546149     3.540330
      3.534512     3.528693     3.522874     3.517056     3.511237     3.505419     3.499600     3.493781     3.487963     3.482144
      3.476326     3.470507     3.464688     3.458870     3.453051     3.447232     3.441414     3.435595     3.429777     3.423958
      3.418139     3.412321     3.406502     3.400684     3.394865     3.389046     3.383228     3.377409     3.371591     3.365772
      3.359953     3.354135     3.348316     3.342498     3.336679     3.330860     3.325042     3.319223     3.313405     3.307586
      3.301767     3.295949     3.290130     3.284312     3.278493     3.272674     3.266856     3.261037     3.255219     3.249400
      3.243581     3.237763     3.231944     3.226125     3.220307     3.214488     3.208670     3.202851     3.197032     3.191214
      3.185395     3.179577     3.173758     3.167939     3.162121     3.156302     3.150484     3.144665     3.138846     3.133028
      3.127209     3.121391     3.115572     3.109753     3.103935     3.098116     3.092298     3.086479     3.080660     3.074842
      3.069023     3.063205     3.057386     3.051567     3.045749     3.039930     3.034111     3.028293     3.022474     3.016656
      3.010837     3.005018     2.999200     2.993381     2.987563     2.981744     2.975925     2.970107     2.964288     2.958470
      2.952651     2.946832     2.941014     2.935195     2.929377     2.923558     2.917739     2.911921     2.906102     2.900284
      2.894465     2.888646     2.882828     2.877009     2.871191     2.865372     2.859553     2.853735     2.847916     2.842098
      2.836279     2.830460     2.824642     2.818823     2.813004     2.807186     2.801367     2.795549     2.789730     2.783911
      2.778093     2.772274     2.766456     2.760637     2.754818     2.749000     2.743181     2.737363     2.731544     2.725725
      2.719907     2.714088     2.708270     2.702451     2.696632     2.690814     2.684995     2.679177     2.673358     2.667539
      2.661721     2.655902     2.650084     2.644265     2.638446     2.632628     2.626809     2.620991     2.615172     2.609353
      2.603535     2.597716     2.591897     2.586079     2.580260     2.574442     2.568623     2.562804     2.556986     2.551167
      2.545349     2.539530     2.533711     2.527893     2.522074     2.516256     2.510437     2.504618     2.498800     2.492981
      2.487163     2.481344     2.475525     2.469707     2.463888     2.458070     2.452251     2.446432     2.440614     2.434795
      2.428977     2.423158     2.417339     2.411521     2.405702     2.399884     2.394065     2.388246     2.382428     2.376609
      2.370790     2.364972     2.359153     2.353335     2.347516     2.341697     2.335879     2.330060     2.324242     2.318423
      2.312604     2.306786     2.300967     2.295149     2.289330     2.283511     2.277693     2.271874     2.266056     2.260237
      2.254418     2.248600     2.242781     2.236963     2.231144     2.225325     2.219507     2.213688     2.207870     2.202051
      2.196232     2.190414     2.184595     2.178777     2.172958     2.167139     2.161321     2.155502     2.149683     2.143865
      2.138046     2.132228     2.126409     2.120590     2.114772     2.108953     2.103135     2.097316     2.091497     2.085679
      2.079860     2.074042     2.068223     2.062404     2.056586     2.050767     2.044949     2.039130     2.033311     2.027493
      2.021674     2.015856     2.010037     2.004218     1.998400     1.992581     1.986763     1.980944     1.975126     1.969307
      1.963489     1.957670     1.951852     1.946033     1.940215     1.934397     1.928578     1.922760     1.916941     1.911123
      1.905304     1.899486     1.893667     1.887849     1.882030     1.876212     1.870393     1.864575     1.858756     1.852938
      1.847119     1.841301     1.835482     1.829664     1.823845     1.818027     1.812208     1.806390     1.800571     1.794753
      1.788934     1.783116     1.777297     1.771479     1.765660     1.759842     1.754023     1.748205     1.742386     1.736568
      1.730749     1.724931     1.719113     1.713294     1.707476     1.701657     1.695839     1.690020     1.684202     1.678383
      1.672565     1.666746     1.660928     1.655109     1.649291     1.643472     1.637654     1.631835     1.626017     1.620198
      1.614380     1.608561     1.602743     1.596924     1.591106     1.585287     1.579469     1.573650     1.567832     1.562013
      1.556195     1.550376     1.544558     1.538739     1.532921     1.527102     1.521284     1.515465     1.509647     1.503829
      1.498010     1.492192     1.486373     1.480555     1.474736     1.468918     1.463099     1.457281     1.451462     1.445644
      1.439825     1.434007     1.428188     1.422370     1.416551     1.410733     1.404914     1.399096     1.393277     1.387459
      1.381640     1.375822     1.370003     1.364185     1.358366     1.352548     1.346729     1.340911     1.335092     1.329274
      1.323455     1.317637     1.311818     1.306000     1.300182     1.294363     1.288545     1.282726     1.276908     1.271089
      1.265271     1.259452     1.253634     1.247815     1.241997     1.236178     1.230360     1.224541     1.218723     1.212904
      1.207086     1.201267     1.195449     1.189630     1.183812     1.177993     1.172175     1.166356     1.160538     1.154719
      1.148901     1.143082     1.137264     1.131445     1.125627     1.119808     1.113990     1.108171     1.102353     1.096534
      1.090716     1.084898     1.079079     1.073261     1.067442     1.061624     1.055805     1.049987     1.044168     1.038350
      1.032531     1.026713     1.020894     1.015076     1.009257     1.003439     0.997620     0.991802     0.985983     0.980165
      0.974346     0.968528     0.962709     0.956891     0.951072     0.945254     0.939435     0.933617     0.927798     0.921980
      0.916161     0.910343     0.904524     0.898706     0.892887     0.887069     0.881251     0.875432     0.869614     0.863795
      0.857977     0.852158     0.846340     0.840521     0.834703     0.828884     0.823066     0.817247     0.811429     0.805610
      0.799792     0.793973     0.788155     0.782336     0.776518     0.770699     0.764881     0.759062     0.753244     0.747425
      0.741607     0.735788     0.729970     0.724151     0.718333     0.712514     0.706696     0.700877     0.695059     0.689240
      0.683422     0.677603     0.671785     0.665967     0.660148     0.654330     0.648511     0.642693     0.636874     0.631056
      0.625237     0.619419     0.613600     0.607782     0.601963     0.596145     0.590326     0.584508     0.578689     0.572871
      0.567052     0.561234     0.555415     0.549597     0.543778     0.537960     0.532141     0.526323     0.520504     0.514686
      0.508867     0.503049     0.497230     0.491412     0.485593     0.479775     0.473956     0.468138     0.462319     0.456501
      0.450682     0.444864     0.439045     0.433227     0.427408     0.421590     0.415771     0.409953     0.404134     0.398316
      0.392497     0.386679     0.380860     0.375042     0.369223     0.363405     0.357586     0.351767     0.345949     0.340130
      0.334312     0.328493     0.322675     0.316856     0.311038     0.305219     0.299401     0.293582     0.287764     0.281945
      0.276127     0.270308     0.264490     0.258671     0.252853     0.247034     0.241216     0.235397     0.229579     0.223760
      0.217942     0.212123     0.206305     0.200486
 NY phased data points follow
   2.51727E-01 -2.04672E-01 -3.56346E-01 -2.98821E-01 -3.28069E-01 -3.72957E-01 -3.75237E-01 -4.25731E-01 -3.24988E-01 -4.11035E-01
  -6.01099E-01 -3.20746E-02 -2.27676E-01  3.05705E-01  9.52212E-01  5.83949E-01  8.38046E-01  2.13785E-01  4.95220E-01  1.98583E-01
   1.31015E-01  5.03102E-01  8.27067E-02  2.42506E-01  8.85108E-03 -1.41241E-01 -4.57075E-01  1.35267E-01 -5.95378E-01 -2.34688E-01
   2.94319E-01 -2.92404E-01  6.04498E-01  8.03527E-02 -5.57102E-01 -7.29259E-01 -3.36182E-01 -8.65419E-01 -8.42370E-01 -2.76174E-01
  -3.30620E-01 -1.04730E-01 -2.33778E-01  2.82268E-02 -1.61155E-02  3.06401E-01  6.22177E-01  5.05139E-01  8.94364E-01  1.10811E+00
  -1.13602E-01  3.89024E-01  8.75013E-01  6.14502E-01  6.16179E-01 -2.18443E-01  1.03892E-01 -3.36103E-01 -4.86607E-02 -9.22431E-02
  -3.26501E-01 -7.97059E-02 -3.90216E-01 -4.90612E-01 -5.07638E-01 -1.33979E-01 -6.49116E-01 -1.15424E-02  1.41479E-01 -1.58630E-01
   1.89216E-01  6.93369E-02  5.27413E-01  6.99034E-01  2.74393E-01  5.63341E-03  2.08513E-01 -4.54691E-01 -8.58745E-01 -4.22254E-01
  -3.70671E-01 -4.76671E-01 -6.35347E-01 -3.68627E-02  6.88636E-02 -8.87572E-02  8.97483E-01  6.92384E-01  1.31621E-01  3.48838E-01
   1.33245E-01  8.16000E-02  3.43152E-02  2.11164E-01  2.80022E-01 -1.91271E-01 -2.76689E-01 -4.07249E-01 -2.33175E-01 -1.32216E-01
  -5.83091E-01 -6.02135E-01 -5.26707E-01 -1.96810E-01  1.32188E-02  4.06391E-01  4.47910E-01  4.41356E-01  5.33375E-01  2.59175E-01
   2.48706E-01  9.16648E-02  7.63570E-01  8.63047E-01  7.16681E-01  2.13573E-01  4.06657E-01  6.41464E-01  2.58233E-01  6.17399E-01
  -6.44087E-02  3.47627E-01  5.58252E-01  2.60995E-01 -5.37032E-01 -5.42920E-01  7.39009E-02  5.59350E-02 -1.25635E-01 -7.74294E-01
  -4.08420E-01 -9.86195E-01 -9.12143E-01 -5.14361E-01 -6.12809E-01 -9.49502E-01 -5.90674E-01 -1.20346E+00 -1.80029E+00 -8.66157E-01
  -1.16477E+00 -2.31259E-01 -1.32828E-01  1.29465E-01  1.89971E-01 -1.86473E-01  1.75139E-01  1.01020E-01  4.55277E-02  3.37845E-01
   5.37293E-01  2.43178E-01  7.32525E-01  3.22902E-01 -5.18939E-02  2.46137E-01  7.62059E-01  1.20810E-01  6.69204E-02  2.02750E-01
   8.38405E-01  1.41943E+00  5.04803E-01  1.12528E+00  9.48549E-01  1.38702E+00  1.07995E+00  1.28834E+00  1.44163E-01 -1.15579E+00
  -1.24325E-01 -9.21460E-01 -3.98435E-01 -5.54197E-01 -4.03345E-01 -2.27328E-01 -1.05451E+00 -5.57461E-01 -4.76565E-01 -4.67328E-01
  -1.71648E-01 -5.81129E-01 -3.07097E-01 -1.40131E-01 -9.01503E-02 -1.52567E-01 -4.86901E-01 -2.91387E-01 -6.26974E-01 -1.60405E-02
  -9.88258E-02  7.40537E-02 -4.34442E-01 -5.79512E-01 -8.63812E-02 -3.16900E-01  1.28189E-02 -1.07425E-01  1.68581E-01 -2.90821E-01
   2.84479E-01 -1.39428E-01  1.60545E-02  5.02168E-01  3.54047E-01  2.93777E-01 -1.28456E-01  6.64559E-01 -4.69326E-01 -8.89987E-02
  -1.16363E-01 -2.69165E-01  1.43086E-01 -6.14428E-01  1.58187E-01 -8.59061E-02 -5.27089E-03  4.72058E-02 -4.44816E-01 -6.03709E-01
  -7.77024E-01  6.94678E-02 -1.55017E-02 -4.19648E-02  2.91155E-01  1.48018E-01 -1.49179E-01 -8.86649E-02  7.03976E-01  7.17063E-02
   4.82885E-01  2.67312E-01  2.21350E-01  9.64599E-01  4.39494E-02  3.51569E-01  5.96382E-02  4.75212E-02  4.59571E-01  1.05225E-02
   2.78445E-02  4.81575E-01  9.53580E-03 -1.76318E-01 -3.57385E-01 -3.43699E-01 -9.46440E-02 -4.39850E-01  2.59352E-01 -3.96661E-01
  -1.14955E-01  3.83036E-01 -6.85343E-02 -4.19870E-02 -2.56082E-01 -7.03923E-02  1.53083E-01 -8.46236E-02  8.96405E-03  2.09631E-01
  -7.17815E-02  9.60590E-01  3.10594E-01 -4.57683E-01  2.31431E-01  3.25012E-01  1.55343E-01  2.37180E-01 -1.19099E-01 -2.22734E-01
   1.13138E+00  5.19320E-01  1.34705E-01  2.50781E-01  7.76410E-02 -1.01321E-01 -3.99017E-01 -8.58439E-02 -8.87844E-03  3.65187E-02
  -6.50315E-01 -4.02796E-01 -4.67325E-01 -4.97604E-01 -6.24931E-02  1.53403E-01  6.73871E-01  5.88592E-01  8.23315E-01  4.70969E-01
   6.70818E-01  5.74414E-01  5.37563E-01  6.92437E-01  2.92926E-01  4.73440E-01 -2.28995E-01  3.75212E-01  3.14121E-01 -3.24076E-01
  -8.66076E-02  2.17811E-01  9.25468E-01  4.50645E-01  3.56949E-01  6.27705E-01  7.83965E-01  4.64814E-01  8.85599E-02  4.51497E-01
   5.09023E-01  2.62081E-01  1.51934E-01  1.92768E-01  2.01900E-01  7.78701E-02  1.83208E-01 -2.47850E-01 -6.24531E-01 -3.41497E-01
  -4.58138E-01 -3.91719E-01 -9.65838E-01 -7.05936E-01 -3.61790E-01 -5.85324E-01 -5.20214E-01 -2.51972E-01  2.99308E-01  2.13231E-01
   6.57021E-01  5.50167E-01 -4.25122E-02 -1.12174E-02 -3.52011E-01 -5.74051E-01 -1.35573E-01 -5.14483E-01 -1.80681E-01 -6.20706E-01
  -5.87916E-01 -8.33867E-01 -2.77859E+00 -2.57658E+00 -2.53505E+00 -1.09367E+00 -3.01225E-01 -4.57528E-01  1.24514E-01  4.85052E-01
  -1.39043E-01  3.19049E-01  8.81178E-01  1.86528E-01  8.35312E-01  3.38078E-01  7.41739E-01  1.74882E-01  2.19962E-02 -3.01739E-01
  -9.73081E-02  3.99788E-01 -4.41749E-01 -4.77559E-02 -2.35577E-01  5.76964E-01 -1.14503E-01 -1.25603E-01  2.03510E-01  4.35342E-01
  -3.99596E-03 -4.13739E-01  4.86543E-01 -9.22034E-02 -3.32784E-01  1.48707E-01  7.70203E-01 -1.70788E-01  3.94415E-01  3.42827E-01
   2.01932E-01  3.90058E-01 -2.33618E-01  1.62622E-01 -5.54879E-01 -2.26582E-01  8.35419E-03 -9.90262E-02 -9.72217E-05  1.80816E-01
   3.19771E-01  1.04478E-01  3.72841E-01  5.58922E-01  7.85787E-01  6.90776E-01  5.12207E-01  7.61109E-01  4.90464E-01  2.20676E-01
   2.47953E-01  1.77035E-01  1.89394E-01  1.74612E-01  3.51013E-01 -1.64818E-01 -1.72251E-01 -3.48856E-02  3.66211E-01  1.67598E-01
  -3.50375E-01  1.18263E-01 -1.08445E+00 -1.79167E-01  3.99915E-02 -1.04034E+00  1.48659E-01 -2.43119E-01  2.25120E-01  3.03963E-01
  -4.50307E-01  1.93946E-01 -3.73363E-01 -4.36013E-01 -5.29841E-03 -4.81751E-01 -4.62895E-01 -1.00125E-01  8.17594E-02  2.00553E-01
  -2.64713E-01 -2.89494E-01  1.53233E-01  2.37372E-01  2.88926E-01  2.45535E-01  3.03208E-01  1.47161E-01 -3.37833E-01 -2.01862E-01
   3.17092E-01 -7.06767E-01 -4.86594E-02  6.04821E-01 -5.54504E-01 -8.80730E-03  2.05111E-01  1.13493E-01  2.05413E-01  6.89219E-01
   5.71045E-01  3.65549E-01  5.29023E-01  2.51399E-01  4.59115E-01  6.65317E-02 -5.28544E-01 -5.13325E-01 -2.67697E-02  1.47686E-01
  -4.03501E-01 -1.04854E-01  1.07146E+00  2.11027E-01 -2.59389E-01  7.82088E-02 -5.73820E-01 -4.46180E-01 -9.50354E-02 -3.83515E-02
   4.08593E-02  4.89011E-02 -9.12213E-01 -5.09865E-01  4.02712E-01 -3.11044E-01  2.17365E-01  6.55842E-01 -1.04620E+00 -5.93421E-01
   4.15734E-01 -9.70658E-02  6.73036E-01 -5.23936E-02  2.23155E-01  8.89607E-01 -1.74586E-01  3.04654E-02 -3.08109E-01 -3.39034E-01
  -2.24913E-02 -5.60856E-02 -1.17765E-01 -8.68635E-02  5.26055E-01 -2.07544E-02 -3.37041E-01 -9.03042E-02  3.96250E-02  1.65872E-01
  -8.03761E-02  1.33904E-01  1.66744E-02 -2.16966E-01 -1.49684E-01 -7.29764E-02  3.66440E-02  5.40491E-01  5.71673E-01  2.51406E-01
   2.89976E-01  1.97783E-01  8.54783E-04  4.75434E-02  3.09860E-01 -1.17036E-01  3.18153E-01  3.18178E-01 -3.09599E-01 -5.81654E-02
   9.89497E-02  2.53088E-01  2.06030E-02 -4.31312E-01 -6.05678E-01 -7.79286E-01 -1.05747E+00 -8.50420E-01 -5.63639E-01 -1.97156E-01
  -1.29902E-01 -1.90031E-01 -5.98157E-02  2.63692E-01  3.71824E-01  1.64918E-01  5.35895E-01  8.19090E-02 -4.13377E-01 -5.98364E-01
  -5.49990E-01  3.62171E-01  1.50468E-01  3.32095E-01  5.61963E-01  5.89370E-02  7.35911E-01  5.45040E-03  1.13248E-01  9.95248E-01
   6.57631E-01  1.99339E-01 -1.18442E-01  1.42324E-01 -1.18335E-01  2.67704E-01 -4.30313E-01 -3.43717E-01  2.62377E-01  2.63637E-01
   6.22979E-01 -1.07859E-01  2.20746E-01  3.11410E-01 -1.82869E-01 -1.74862E-01 -1.38574E-01 -7.38136E-02  9.04983E-02 -1.72199E-02
   8.57708E-02 -2.09743E-01 -5.00460E-02  8.77851E-02  3.68009E-02  3.47571E-01  1.22562E-01  4.04993E-01 -3.70312E-01 -1.43614E-01
  -1.22149E-01 -2.86493E-01 -9.78836E-02  4.07516E-03  9.03137E-02 -5.80396E-01  1.59459E-01 -2.39764E-01 -3.25502E-02  8.54172E-02
  -2.46437E-01 -1.05068E-01 -4.19351E-01 -1.72936E-01 -1.16009E-01  6.92744E-02 -4.75350E-01  1.63284E-01  5.82822E-01 -2.00244E-01
  -3.03906E-01 -3.20671E-01  1.06602E-01 -3.27388E-01 -1.94915E-01  2.56970E-01 -5.79090E-01 -4.36632E-01 -4.09035E-01 -3.10845E-01
   1.15789E-01 -3.55036E-01 -1.27196E-01  5.59660E-02 -4.31881E-01 -4.09087E-01  3.69896E-01  3.74659E-01 -3.72714E-01 -3.29940E-01
  -6.39537E-02  1.65195E-01  9.25521E-02 -2.43582E-02 -1.04028E-01 -4.58361E-01 -2.22821E-01  1.94406E-01 -1.75105E-01 -5.27063E-01
  -5.23971E-02 -1.34691E-01 -8.67237E-02  2.15035E-01 -3.34665E-01 -3.18514E-01  1.42761E-01  1.86889E-01 -4.35304E-01 -3.47403E-01
   2.58765E-01  2.33821E-01  3.83826E-01  5.35306E-02 -4.32455E-01  4.19597E-01  5.11810E-01 -2.49295E-02 -1.44324E-01  3.55075E-03
   6.47784E-01 -3.51236E-01  8.93335E-03  2.36467E-01
 NY points of the fit to the data follow
   2.36196E-01  1.86694E-01  1.26284E-01  4.88242E-02 -2.36314E-02 -4.61888E-02 -6.75501E-02 -6.85857E-02 -7.85631E-02 -7.09122E-02
  -4.79492E-02  2.53720E-02  1.49216E-01  4.50951E-01  4.82618E-01  7.86046E-01  8.47615E-01  4.97025E-01  4.03846E-01  1.48129E-01
   1.26050E-01  7.92869E-02  3.46041E-02 -9.41816E-03 -5.68501E-02 -9.27971E-02 -1.23229E-01 -1.47539E-01 -1.62457E-01 -1.76286E-01
  -1.94721E-01 -2.10887E-01 -2.31755E-01 -2.61580E-01 -3.08768E-01 -3.68393E-01 -4.23215E-01 -4.65267E-01 -4.62782E-01 -4.07985E-01
  -2.78299E-01 -8.90436E-02  7.44792E-02  1.80671E-01  3.19724E-01  4.86426E-01  5.81398E-01  7.35452E-01  6.71879E-01  5.82282E-01
   5.61022E-01  4.19206E-01  3.65133E-01  2.85326E-01  2.06839E-01  1.38486E-01  5.95759E-02 -2.07970E-02 -9.03821E-02 -1.68116E-01
  -2.52661E-01 -3.27341E-01 -3.65365E-01 -4.82466E-01 -3.58972E-01 -1.71910E-01 -3.75488E-01  2.87689E-02  3.54296E-01  2.68726E-01
   5.84639E-01  5.91395E-01  5.47151E-01  5.10048E-01  3.38074E-01  2.61743E-01  1.54531E-01  4.44677E-03 -1.78843E-01 -3.43857E-01
  -5.29806E-01 -7.05073E-01 -4.10787E-01 -9.87186E-02  1.85695E-02  3.76308E-01  5.46597E-01  6.06345E-01  6.03884E-01  5.02518E-01
   4.41345E-01  3.94368E-01  3.56228E-01  3.05037E-01  2.60170E-01  1.92227E-01  6.77905E-02 -6.71813E-02 -3.48735E-01 -4.72783E-01
  -6.93733E-01 -5.92009E-01 -3.31477E-01 -1.07313E-01  2.96944E-01  3.76204E-01  4.84969E-01  4.70996E-01  4.71118E-01  4.70350E-01
   4.71261E-01  4.65878E-01  4.63416E-01  4.58413E-01  4.55283E-01  4.53333E-01  4.53263E-01  4.55263E-01  4.61850E-01  4.62414E-01
   4.50572E-01  4.25136E-01  3.99973E-01  2.74276E-01  1.54924E-01  1.92095E-01 -5.62599E-02 -1.84693E-01 -1.49282E-01 -6.04156E-01
  -6.68696E-01 -8.95108E-01 -8.46458E-01 -5.85116E-01 -5.47436E-01 -5.59015E-01 -6.04378E-01 -1.22279E+00 -1.44550E+00 -9.10384E-01
  -7.23246E-01 -2.48403E-01 -2.03783E-01 -1.07360E-01 -4.48162E-02  5.75380E-04  3.71741E-02  6.80682E-02  9.47889E-02  1.18959E-01
   1.40318E-01  1.61197E-01  1.81460E-01  2.01882E-01  2.22886E-01  2.46287E-01  2.71484E-01  2.99612E-01  3.32363E-01  3.69789E-01
   4.14373E-01  4.71019E-01  5.52558E-01  7.40433E-01  9.41175E-01  1.06885E+00  9.01490E-01  1.07310E+00 -1.29219E-01 -1.07695E+00
  -9.64714E-01 -1.07503E+00 -5.90389E-01 -5.71182E-01 -4.80406E-01 -4.39269E-01 -3.76234E-01 -3.31702E-01 -2.97011E-01 -2.88862E-01
  -2.73080E-01 -2.61026E-01 -2.16700E-01 -2.16313E-01 -2.05468E-01 -2.08021E-01 -2.17701E-01 -2.04756E-01 -2.04084E-01 -1.91067E-01
  -1.92185E-01 -1.79645E-01 -1.72139E-01 -1.59350E-01 -1.50115E-01 -1.40428E-01 -1.31998E-01 -1.23922E-01 -1.14229E-01 -1.01626E-01
  -8.58889E-02 -7.40537E-02 -5.61366E-02 -4.59930E-02 -5.72325E-02 -6.14720E-02 -6.20222E-02 -4.27934E-02 -2.98087E-02 -5.92678E-02
  -8.98397E-02 -1.10198E-01 -1.16719E-01 -1.11420E-01 -1.08081E-01 -1.03466E-01 -9.86457E-02 -9.43032E-02 -8.96308E-02 -9.24333E-02
  -9.91850E-02 -8.87620E-02 -4.84628E-02  3.49948E-02  9.61305E-02  2.58231E-01  3.96193E-01  3.38976E-01  3.04065E-01  3.05327E-01
   3.97315E-01  4.73287E-01  3.29342E-01  1.70523E-01  4.99364E-02 -4.06078E-02 -5.99394E-02 -9.37113E-02 -1.08797E-01 -1.23385E-01
  -1.36538E-01 -1.47798E-01 -1.58841E-01 -1.64263E-01 -1.73090E-01 -1.77590E-01 -1.84475E-01 -1.96523E-01 -1.92133E-01 -2.07151E-01
  -2.02500E-01 -2.14311E-01 -2.48633E-01 -2.61341E-01 -2.89296E-01 -2.58072E-01 -2.77437E-01 -1.06844E-01 -8.17900E-03 -5.42318E-02
   7.14769E-02  1.10076E-01  1.61318E-01  8.77308E-02  8.84919E-02  1.69976E-01  9.59513E-02  2.01692E-01  1.83694E-01  2.37698E-01
   3.04682E-01  2.33915E-01  2.41288E-01  1.31708E-01  9.14908E-02  1.89708E-02 -3.39665E-02 -9.17419E-02 -1.66172E-01 -2.48885E-01
  -3.61770E-01 -4.50796E-01 -5.84379E-01 -5.77755E-01 -4.63301E-01 -3.03374E-01  8.46655E-02  3.02427E-01  4.98184E-01  6.32640E-01
   5.48077E-01  5.13793E-01  4.04977E-01  3.62995E-01  3.34765E-01  3.16656E-01  3.32510E-01  3.14778E-01  3.25746E-01  3.05646E-01
   2.91401E-01  2.73422E-01  2.56210E-01  2.41437E-01  2.27783E-01  2.14559E-01  1.99720E-01  1.83780E-01  1.66527E-01  1.42562E-01
   1.20220E-01  9.98412E-02  6.70888E-02  4.92255E-02  1.12432E-02 -4.35860E-02 -9.94030E-02 -1.96010E-01 -2.99932E-01 -4.07504E-01
  -4.89986E-01 -5.47161E-01 -5.70190E-01 -5.35291E-01 -4.87955E-01 -3.83435E-01 -2.81138E-01 -1.51326E-01 -2.30770E-02  5.47683E-02
   1.14545E-01  7.32691E-02  3.63556E-02 -4.32305E-02 -1.50525E-01 -1.67161E-01 -2.51273E-01 -1.95487E-01 -2.14948E-01 -3.72290E-01
  -8.42866E-01 -1.05703E+00 -2.34642E+00 -2.89605E+00 -1.91866E+00 -1.35312E+00 -4.84036E-01 -3.16015E-01 -2.19247E-01 -1.31198E-01
  -8.46313E-02 -5.28660E-02 -2.97971E-02 -1.12008E-02  2.60546E-03  1.46741E-02  2.40080E-02  3.15245E-02  3.04688E-02  2.87633E-02
   1.69154E-02 -2.48631E-03 -1.17715E-02 -3.71183E-02 -4.00469E-02 -4.56298E-02 -4.40688E-02 -2.83000E-02 -2.21911E-02 -5.58583E-03
   1.49395E-03  1.10413E-02  1.74484E-02  2.37410E-02  2.87658E-02  3.18687E-02  3.51217E-02  3.76911E-02  4.04499E-02  4.32179E-02
   4.53642E-02  4.69914E-02  4.88558E-02  5.06636E-02  5.23373E-02  5.44204E-02  5.49142E-02  5.61471E-02  5.64266E-02  5.82719E-02
   6.00727E-02  6.18116E-02  6.36456E-02  6.37416E-02  6.38536E-02  6.23539E-02  6.11047E-02  5.99959E-02  5.85439E-02  5.67374E-02
   5.43672E-02  5.11885E-02  4.77387E-02  4.46724E-02  4.06521E-02  3.68847E-02  3.36501E-02  3.07773E-02  2.78070E-02  2.41315E-02
   2.17253E-02  1.88583E-02  1.66088E-02  1.49896E-02  1.30340E-02  1.14412E-02  9.92366E-03  8.21439E-03  6.80988E-03  5.52648E-03
   4.49122E-03  4.09034E-03  3.30668E-03  3.24878E-03  4.40842E-03  5.46553E-03  7.42872E-03  1.00826E-02  1.34042E-02  1.60801E-02
   2.35875E-02  3.55954E-02  5.63372E-02  7.25972E-02  1.25174E-01  1.31838E-01  1.28542E-01  1.19093E-01  6.58306E-02  5.35825E-02
   3.51569E-02  3.83119E-02  4.30946E-02  4.77178E-02  5.37393E-02  5.89380E-02  6.49908E-02  7.05294E-02  7.51988E-02  7.88836E-02
   8.11589E-02  8.22862E-02  8.24097E-02  8.26956E-02  8.15434E-02  8.02788E-02  7.79848E-02  7.40655E-02  6.94064E-02  6.36212E-02
   5.84321E-02  5.31898E-02  4.82416E-02  4.29835E-02  3.81956E-02  3.27234E-02  2.87426E-02  2.52257E-02  2.11119E-02  1.80948E-02
   1.47249E-02  1.23626E-02  1.00381E-02  8.13834E-03  6.60389E-03  6.08664E-03  6.81308E-03  7.60025E-03  8.78408E-03  1.04600E-02
   1.23508E-02  1.45804E-02  1.71060E-02  2.02539E-02  2.24019E-02  2.41509E-02  2.53632E-02  2.63587E-02  2.71284E-02  2.80147E-02
   2.97954E-02  3.04868E-02  3.04455E-02  3.00615E-02  2.84627E-02  2.75817E-02  2.62620E-02  2.37385E-02  2.21722E-02  2.03231E-02
   1.88545E-02  1.70353E-02  1.49658E-02  1.31349E-02  1.10867E-02  9.02333E-03  6.75671E-03  4.63973E-03  2.59961E-03  1.51795E-03
   2.93831E-04 -1.64317E-03 -3.75236E-03 -6.08757E-03 -8.83245E-03 -1.23346E-02 -1.62241E-02 -2.01101E-02 -2.43060E-02 -2.93233E-02
  -3.56996E-02 -4.30872E-02 -5.21179E-02 -6.07843E-02 -6.87652E-02 -7.70146E-02 -8.45864E-02 -9.18215E-02 -9.81611E-02 -1.03575E-01
  -1.08279E-01 -1.11854E-01 -1.12633E-01 -1.12277E-01 -1.11665E-01 -1.09927E-01 -1.06810E-01 -1.02794E-01 -9.89305E-02 -9.54766E-02
  -9.20140E-02 -8.86447E-02 -8.49226E-02 -7.97797E-02 -7.50976E-02 -6.98963E-02 -6.40883E-02 -5.88174E-02 -5.28783E-02 -4.81637E-02
  -4.25497E-02 -3.78740E-02 -3.33565E-02 -2.82014E-02 -2.41973E-02 -2.03941E-02 -1.69944E-02 -1.36354E-02 -9.68270E-03 -6.94202E-03
  -5.55961E-03 -2.72702E-03 -8.56472E-04  1.02087E-03  2.72518E-03  3.62996E-03  4.68654E-03  5.56789E-03  6.70592E-03  7.26152E-03
   7.43833E-03  8.77251E-03  1.01827E-02  1.12373E-02  1.27899E-02  1.40135E-02  1.46562E-02  1.48021E-02  1.53713E-02  1.56504E-02
   1.55876E-02  1.63107E-02  1.63390E-02  1.62163E-02  1.69410E-02  1.71346E-02  1.75108E-02  1.85765E-02  1.89916E-02  1.97486E-02
   1.99523E-02  1.85070E-02  1.78234E-02  1.88648E-02  1.99056E-02  2.06698E-02  2.08408E-02  2.12853E-02  2.17344E-02  2.11699E-02
   2.16335E-02  2.22857E-02  2.39073E-02  2.53764E-02  2.62018E-02  2.74250E-02  2.84565E-02  3.00405E-02  3.14281E-02  3.24135E-02
   3.38021E-02  3.48633E-02  3.59631E-02  3.60083E-02  3.63832E-02  3.80070E-02  3.93223E-02  4.13484E-02  4.30020E-02  4.44983E-02
   4.63618E-02  4.76242E-02  4.93942E-02  5.30214E-02  5.50986E-02  5.73202E-02  5.86796E-02  5.87673E-02  6.05396E-02  6.23393E-02
   6.50103E-02  6.73958E-02  6.88338E-02  7.08015E-02  7.29169E-02  7.53743E-02  7.81770E-02  8.10510E-02  8.30557E-02  8.64923E-02
   9.06123E-02  9.39893E-02  9.73510E-02  1.00921E-01  1.04777E-01  1.09128E-01  1.13953E-01  1.18798E-01  1.25084E-01  1.32141E-01
   1.38368E-01  1.44813E-01  1.50909E-01  1.57850E-01
 NY background values follow
     6.851E-02    6.818E-02    6.784E-02    6.750E-02    6.716E-02    6.682E-02    6.648E-02    6.614E-02    6.580E-02    6.546E-02
     6.512E-02    6.478E-02    6.444E-02    6.410E-02    6.376E-02    6.342E-02    6.308E-02    6.274E-02    6.240E-02    6.207E-02
     6.173E-02    6.139E-02    6.105E-02    6.071E-02    6.037E-02    6.003E-02    5.969E-02    5.935E-02    5.901E-02    5.867E-02
     5.833E-02    5.799E-02    5.765E-02    5.731E-02    5.697E-02    5.663E-02    5.629E-02    5.596E-02    5.562E-02    5.528E-02
     5.494E-02    5.460E-02    5.426E-02    5.392E-02    5.358E-02    5.324E-02    5.290E-02    5.256E-02    5.222E-02    5.188E-02
     5.154E-02    5.120E-02    5.086E-02    5.052E-02    5.018E-02    4.985E-02    4.951E-02    4.917E-02    4.883E-02    4.849E-02
     4.815E-02    4.781E-02    4.747E-02    4.713E-02    4.679E-02    4.645E-02    4.611E-02    4.577E-02    4.543E-02    4.509E-02
