 
 $NMID
 ID=''
 FMTDAT='(2E13.5)'
 TRAMP=   1.00000E+0
 VOLUME=   1.00000E+0
 $END
   6.89918E+2  -5.16869E+2
   1.91253E+3   1.89634E+3
  -1.38060E+3  -7.85504E+3
  -3.54959E+3  -3.47203E+2
  -2.11097E+3   2.38703E+3
   1.42349E+3   4.58662E+2
   3.94409E+2   9.95366E+2
  -1.30378E+3   1.96580E+3
  -2.21936E+3  -1.79598E+3
  -2.49202E+3  -2.29229E+3
  -4.02441E+2   9.71258E+1
   2.33653E+3  -2.98443E+2
   3.19856E+3   3.33443E+3
  -2.77393E+3   5.92685E+3
   1.94234E+2  -1.88171E+3
   3.31735E+3  -1.83789E+3
   2.53934E+3  -3.41572E+3
  -6.93565E+0  -1.20894E+3
  -3.05153E+3   6.40739E+2
  -2.56521E+3  -2.57121E+3
   1.24151E+3  -2.31099E+3
   3.44219E+3   4.10555E+3
  -2.02294E+3   5.05388E+3
  -3.87299E+3  -2.38487E+3
  -1.88449E+2  -2.48753E+3
   4.28407E+3   3.14194E+3
  -2.63800E+2   3.40553E+3
  -3.49690E+3  -9.52094E+2
  -1.37338E+3  -3.39090E+3
   3.01078E+3  -3.99840E+3
   4.90385E+3   2.83500E+3
   2.31850E+3   6.00923E+3
  -4.09950E+3   1.97530E+3
  -7.35255E+2  -3.09778E+3
   1.25477E+3  -9.87230E+2
  -3.58240E+3  -2.88169E+3
  -1.38045E+3  -5.76374E+3
   4.73531E+3  -2.31646E+3
   3.71984E+3   1.05719E+3
  -1.11825E+3   2.46100E+3
  -2.35630E+3   4.17444E+3
  -6.96922E+3   3.54219E+3
  -6.60665E+3  -5.50433E+3
  -1.00556E+3  -6.30159E+3
   1.47692E+3  -2.29379E+3
   2.54026E+3  -1.00629E+3
   1.22933E+3  -1.16430E+3
   2.37272E+3   2.88604E+3
  -1.02957E+3   4.60017E+3
  -2.34229E+3   1.75096E+3
  -3.50376E+3   2.44776E+3
  -3.65508E+3  -2.74116E+3
   4.40806E+3  -1.80500E+3
   2.37044E+3   1.22204E+2
   1.60061E+3   2.09148E+3
  -3.52183E+2   2.43518E+3
  -1.51032E+3   5.04157E+3
  -9.89009E+2   6.24478E+2
  -6.04722E+3  -3.48852E+3
  -2.42416E+3  -3.85634E+3
   7.31376E+2  -5.69361E+3
   1.00025E+3  -1.96414E+3
   1.47106E+3  -1.19513E+2
  -1.23398E+3   2.61858E+2
  -6.13938E+2  -4.23201E+2
   3.11238E+3  -2.37786E+3
   1.98051E+3   1.75002E+3
  -2.09723E+3   2.07854E+3
  -1.91540E+3  -1.21801E+3
   2.09043E+3  -1.58702E+3
   2.20124E+3   1.26865E+3
   2.82429E+3   1.57700E+3
  -1.10486E+1   8.25161E+1
   1.28792E+3  -1.10082E+3
   2.00404E+3  -3.02706E+2
   1.91082E+3  -9.82965E+2
   6.84228E+2  -4.68448E+2
  -1.12536E+3  -2.20332E+3
   4.50089E+2  -2.62116E+3
   3.44919E+3   4.18967E+2
   1.01965E+3  -6.97583E+1
  -1.95497E+3  -1.25773E+3
   4.80424E+1  -9.13776E+2
   1.54089E+3   3.02853E+3
  -2.80497E+3   2.74373E+3
  -3.42324E+3  -1.89635E+2
  -3.91517E+3  -4.60072E+3
   1.22581E+3  -6.18489E+3
   1.91169E+3  -1.95078E+3
   2.82473E+3  -1.03162E+3
   1.85640E+3   2.35515E+3
   3.76161E+3   5.13318E+2
   2.40390E+3   2.35649E+3
   4.85682E+2   2.87835E+3
  -3.71976E+3  -1.42131E+0
  -3.76234E+3  -3.75061E+3
   2.48925E+3  -1.77420E+3
   3.27173E+3  -3.13313E+1
   2.95831E+2   3.39920E+3
  -1.88569E+3   6.26942E+2
  -1.63290E+3  -2.60489E+3
   3.99660E+3  -3.96128E+3
   2.44350E+3  -1.65494E+3
  -9.38494E+0   3.18616E+3
  -5.42164E+2   2.30523E+3
  -2.13569E+3  -2.11437E+3
  -1.85279E+3   1.70255E+3
  -2.95299E+3   2.82481E+1
  -3.64005E+3  -2.85120E+2
  -1.45888E+3  -2.81571E+3
   1.49328E+3  -3.02263E+3
   4.41371E+3   3.62389E+2
   2.91135E+3   1.58863E+3
   4.16459E+3   1.72656E+3
   1.25924E+3   1.06347E+3
  -1.29924E+3   1.90684E+3
  -4.00931E+1   1.43906E+3
  -1.58412E+3   1.17849E+3
  -1.87609E+2  -5.13629E+2
   6.18093E+2   1.49674E+2
   2.82591E+0   1.00240E+3
  -2.95372E+2   1.77846E+3
  -3.70487E+3   2.53388E+3
   2.58198E+1  -9.24622E+2
  -1.78355E+3   9.59003E+2
   4.25551E+1   2.50305E+3
  -1.86613E+2   6.89952E+2
   8.32229E+2  -1.55733E+2
   8.66833E+2   3.25422E+2
  -1.79543E+3  -2.83948E+3
  -1.50047E+3  -8.70419E+2
  -1.45301E+2  -2.27523E+3
   5.78592E+2  -2.73684E+3
   2.41824E+3  -1.12982E+3
  -3.47935E+2   3.48784E+3
  -5.98840E+2   1.80094E+3
  -1.40429E+3  -1.20336E+3
  -1.12140E+3  -3.49330E+2
  -5.33323E+1  -1.15121E+3
  -5.49187E+2  -3.09123E+2
   3.92292E+2   7.22296E+2
   2.87712E+2   8.67768E+2
   6.25855E+2   7.51551E+2
  -3.17066E+2   6.20742E+2
  -3.31739E+2   1.94990E+3
   4.77569E+2   1.38730E+3
   4.55955E+2   9.11180E+2
  -3.09940E+2   2.32985E+3
   5.74685E+2   2.58798E+3
  -2.13816E+3   3.21012E+3
  -1.38911E+3   2.49083E+3
  -1.62103E+3   7.59614E+2
  -2.99056E+3   4.98872E+2
  -2.08013E+3  -2.08639E+3
   8.72448E+2  -2.10276E+3
  -1.04643E+2   5.71182E+2
  -2.25876E+3   1.45804E+3
  -3.42007E+2   9.90476E+2
  -7.35600E+2   3.56869E+2
   5.18270E+2   8.86907E+2
   4.93916E+2   1.25974E+3
  -1.05663E+3   1.55372E+3
  -6.47186E+2   1.98539E+3
   3.79498E+2  -2.02480E+2
   4.17081E+2  -2.66680E+2
  -1.99571E+3   2.77655E+3
  -1.80092E+3   1.26592E+2
   5.93395E+2  -2.33557E+3
   1.01225E+3   7.75192E+2
   2.13693E+3   1.76235E+3
   5.44042E+2   2.55775E+3
  -1.44104E+3   1.57885E+3
  -2.01296E+3   6.48258E+2
   3.19727E+2  -2.73927E+2
  -5.32919E+2  -8.85515E+2
  -1.02469E+2  -6.55332E+2
  -4.00230E+2  -3.52153E+2
   2.20213E+3  -1.02163E+3
   1.23890E+3   7.89558E+2
   5.34064E+2   1.84637E+3
   4.82347E+2   3.61824E+2
   7.50993E+2   5.01194E+2
  -1.04367E+3  -7.13500E+2
  -1.36717E+2   2.77789E+2
   5.45320E+2  -1.04579E+3
   1.52271E+2   2.17392E+2
   1.60282E+3  -1.35452E+2
   2.07319E+3   1.54315E+3
  -1.67327E+3   2.54814E+2
  -4.91734E+2   9.98917E+1
   6.07757E+2  -5.91843E+2
   9.54867E+2  -5.08741E+1
   1.43909E+3   8.50802E+2
   3.74783E+2  -6.66496E+2
  -1.24710E+3  -9.06838E+2
   9.07131E+2  -4.15274E+2
  -5.99821E+1   9.51499E+2
  -5.01229E+2  -7.88542E+2
  -9.65437E+2  -2.36712E+3
   3.37032E+3   2.77000E+2
  -3.20842E+2   2.99551E+3
  -3.60684E+3  -4.16825E+2
  -5.18983E+3  -1.50889E+3
  -3.21044E+2  -1.66069E+3
   8.64357E+1  -2.74264E+2
   3.09314E+1  -9.76795E+2
  -1.00550E+3   5.86748E+2
   1.82473E+2   9.48719E+2
   1.41676E+3  -5.52798E+2
  -1.82014E+3   1.62079E+3
  -1.04085E+3   9.57979E+2
   1.33404E+2   9.38875E+2
  -5.02593E+2  -1.50496E+3
   7.67995E+2  -1.25638E+3
   2.07992E+3  -7.65101E+2
   9.43308E+2   1.34947E+3
  -1.18152E+3   8.14519E+2
  -7.30291E+2   4.85301E+2
  -5.30726E+1   2.09936E+1
  -4.71019E+2   1.44771E+3
  -2.83527E+3  -6.09327E+1
   1.66384E+2  -5.38008E+2
  -7.11314E+2   7.77622E+2
   1.23732E+3   1.80469E+2
   2.85606E+2  -8.71145E+2
   2.25856E+3   8.53575E+2
   1.34418E+3  -7.01885E+2
   9.39602E+2   3.23720E+1
   6.30348E+1   1.31337E+3
  -1.57806E+3   1.50191E+3
  -9.34662E+2   2.35904E+2
   3.74146E+3   6.03786E+2
  -1.62146E+3   1.29548E+2
  -2.34557E+3  -1.28318E+3
  -1.00080E+3  -1.60929E+3
   9.67343E+2  -8.85875E+2
   2.13145E+3   1.11860E+3
   3.13479E+2   8.20980E+2
  -1.81408E+3   4.43505E+2
  -1.37141E+3  -6.57479E+1
   1.90290E+3  -9.35373E+2
  -3.65653E+2   6.64427E+2
   5.43796E+0  -1.66189E+2
  -7.69792E+2   4.85332E+2
  -9.03305E+2  -5.68588E+2
   1.25156E+3   9.64308E+2
   3.86880E+2  -1.25177E+3
  -1.01412E+3  -5.20748E+2
   1.82287E+3  -5.93750E+2
   6.53429E+2  -8.16277E+2
   5.19320E+2  -1.80126E+2
   3.54231E+2   3.36060E+3
  -1.79333E+3   1.96243E+3
  -4.37076E+2   6.92020E+2
   7.92904E+2  -1.06614E+3
   2.43258E+2  -1.07435E+2
  -5.31518E+2  -3.87550E+3
   2.93515E+3  -1.76138E+3
   2.71215E+3  -1.14956E+2
   1.47472E+3   1.52828E+3
   1.28269E+3   1.72258E+3
   6.08732E+2  -9.39975E+0
   1.09491E+3  -4.92888E+2
   4.50502E+2  -2.72454E+3
  -1.80629E+3   8.55621E+2
   4.01387E+2  -1.10158E+3
  -4.09101E+2  -1.28509E+3
   1.30813E+3   3.37077E+2
   1.28169E+3   3.12658E+3
  -1.48770E+3   2.88700E+2
  -1.32273E+3  -1.77618E+2
   1.47152E+3  -1.90124E+3
   3.62700E+3  -8.30957E+2
   2.51557E+2  -1.58350E+3
  -1.16941E+3   1.74538E+2
   8.19633E+2  -1.75179E+3
   6.50276E+2  -2.16895E+3
   2.06436E+3  -3.75287E+2
  -5.34580E+2  -4.32428E+2
  -2.65346E+2  -1.44214E+3
   1.79375E+3  -8.48301E+2
   1.89387E+3   3.93365E+2
  -1.23935E+3   2.51824E+3
  -1.93464E+2  -1.74859E+2
  -1.79940E+3  -2.33242E+3
   6.47654E+2  -2.50685E+3
  -2.44463E+3  -7.39375E+2
   4.82534E+2   1.17991E+3
  -1.59403E+3  -2.69982E+3
   8.45608E+1  -2.53037E+2
   2.26452E+3  -1.06254E+3
  -1.71931E+2   6.24680E+2
   5.51555E+2  -1.04606E+3
   2.60693E+3  -1.50750E+3
   2.33703E+2   3.54623E+2
   4.93732E+2   6.52520E+2
  -1.02468E+3   4.14404E+2
  -1.90499E+3  -2.24338E+3
   2.25326E+3  -2.42768E+3
   8.34273E+1   2.78586E+2
   7.88662E+2  -1.28529E+3
  -8.35616E+2  -1.75360E+3
   4.03774E+2  -1.65614E+3
  -6.20684E+2  -3.12863E+1
   4.48838E+2   1.39045E+3
   5.34968E+0  -2.28747E+3
   3.50924E+2  -2.89829E+3
   2.07122E+3  -2.03688E+3
   1.54806E+3  -9.31196E+2
   1.00719E+3  -3.61762E+2
  -1.22286E+3   1.36879E+3
  -7.55598E+2  -1.61188E+2
  -1.50436E+2   5.00597E+2
   1.06465E+2   7.82671E+2
   5.56153E+1  -4.68147E+2
   9.83149E+2  -8.78266E+2
   1.57564E+3  -3.34648E+2
   3.81800E+2   2.11457E+2
  -1.71058E+3   3.59866E+3
  -2.54618E+3  -7.42024E+2
   1.11912E+3  -1.20342E+3
   3.78942E+3  -6.38598E+2
  -5.63585E+1   2.48233E+3
  -2.24958E+2   7.28397E+2
   4.79306E+1  -3.54190E+2
   6.24544E+2  -7.29123E+2
  -1.05043E+3   1.35067E+2
  -1.16277E+3   2.14548E+3
  -2.71889E+2   2.28378E+1
  -5.79733E+2  -2.78694E+3
   4.33558E+2  -8.25810E+2
   1.31657E+3   5.89643E+2
   2.62343E+2   4.18925E+2
  -6.85996E+2   8.60675E+2
   7.17939E+2  -1.18800E+3
  -1.37339E+3   1.77384E+3
   1.04495E+2   3.91483E+2
  -1.66332E+2  -7.62115E+2
  -8.33446E+2   9.14475E+2
   2.08902E+2   7.12049E+2
   1.12511E+2   1.55427E+3
   1.25715E+3   2.23833E+2
  -6.62554E+2  -4.10256E+2
  -1.39810E+3  -6.54979E+2
   1.69058E+3  -2.34840E+2
  -2.31357E+2   2.25906E+2
   3.27017E+2   3.51861E+0
  -2.08108E+2  -6.44843E+2
   1.38698E+3   9.05012E+2
  -5.50224E+2   3.46809E+2
  -3.35482E+2  -1.92764E+2
   3.21401E+2   2.27570E+2
  -1.66649E+2  -6.49889E+2
   1.71914E+3  -6.47021E+2
   1.10832E+3   9.45590E+2
  -1.12611E+3   5.48310E+2
   3.85298E+2   8.34270E+2
   1.88690E+3   9.19426E+2
  -1.91364E+3   9.02731E+2
   6.75014E+1   1.35557E+3
  -1.32919E+3  -7.70233E+2
  -5.09094E+2   1.28885E+3
  -1.89383E+3  -6.91955E+2
   4.66523E+2   3.45456E+2
  -1.38515E+3  -1.86201E+3
  -1.14113E+3  -1.16838E+3
   3.57503E+2  -1.00464E+3
