 
 $NMID
 ID=''
 FMTDAT='(2E13.5)'
 TRAMP=   1.00000E+0
 VOLUME=   1.00000E+0
 $END
  -1.72489E+3   1.67581E+4
  -1.70345E+4   3.99870E+4
  -1.01618E+4   4.18829E+4
  -9.79693E+3   3.83362E+4
  -1.16390E+4   3.93477E+4
  -1.01225E+4   3.95706E+4
  -1.05852E+4   3.76677E+4
  -1.18007E+4   3.77724E+4
  -1.10778E+4   3.76855E+4
  -1.14935E+4   3.63222E+4
  -1.23588E+4   3.61815E+4
  -1.18394E+4   3.60247E+4
  -1.20799E+4   3.49935E+4
  -1.29666E+4   3.46622E+4
  -1.27265E+4   3.43527E+4
  -1.28504E+4   3.32999E+4
  -1.34856E+4   3.29396E+4
  -1.32024E+4   3.25306E+4
  -1.31741E+4   3.16153E+4
  -1.36654E+4   3.12427E+4
  -1.34524E+4   3.06526E+4
  -1.33973E+4   2.99485E+4
  -1.35884E+4   2.95426E+4
  -1.34489E+4   2.90328E+4
  -1.33912E+4   2.82590E+4
  -1.35025E+4   2.78314E+4
  -1.33582E+4   2.73436E+4
  -1.33637E+4   2.66139E+4
  -1.35903E+4   2.60337E+4
  -1.33923E+4   2.55721E+4
  -1.33085E+4   2.50144E+4
  -1.34563E+4   2.45044E+4
  -1.33301E+4   2.40832E+4
  -1.32689E+4   2.34478E+4
  -1.32031E+4   2.30192E+4
  -1.31770E+4   2.26185E+4
  -1.29873E+4   2.19879E+4
  -1.29695E+4   2.16038E+4
  -1.29432E+4   2.11382E+4
  -1.27869E+4   2.05658E+4
  -1.27774E+4   2.02089E+4
  -1.27002E+4   1.95788E+4
  -1.26879E+4   1.90121E+4
  -1.25361E+4   1.85397E+4
  -1.23297E+4   1.81564E+4
  -1.22763E+4   1.76096E+4
  -1.21291E+4   1.72067E+4
  -1.19436E+4   1.67434E+4
  -1.18025E+4   1.63730E+4
  -1.16927E+4   1.59698E+4
  -1.15187E+4   1.55869E+4
  -1.13284E+4   1.52160E+4
  -1.11717E+4   1.48917E+4
  -1.09697E+4   1.45705E+4
  -1.09644E+4   1.42190E+4
  -1.09443E+4   1.39598E+4
  -1.08750E+4   1.36481E+4
  -1.08430E+4   1.33817E+4
  -1.07656E+4   1.29217E+4
  -1.07817E+4   1.26145E+4
  -1.07316E+4   1.22914E+4
  -1.06910E+4   1.18983E+4
  -1.07672E+4   1.15507E+4
  -1.07266E+4   1.12189E+4
  -1.07373E+4   1.08321E+4
  -1.07676E+4   1.04700E+4
  -1.07734E+4   1.00501E+4
  -1.07941E+4   9.63023E+3
  -1.07113E+4   9.15513E+3
  -1.07165E+4   8.75156E+3
  -1.06936E+4   8.31244E+3
  -1.06903E+4   7.85902E+3
  -1.06312E+4   7.46099E+3
  -1.04969E+4   7.00645E+3
  -1.04208E+4   6.56081E+3
  -1.04468E+4   6.08886E+3
  -1.02942E+4   5.71651E+3
  -1.02829E+4   5.26293E+3
  -1.01988E+4   4.72552E+3
  -1.00103E+4   4.28114E+3
  -9.92177E+3   3.80618E+3
  -9.77086E+3   3.42243E+3
  -9.66421E+3   2.95900E+3
  -9.42284E+3   2.47239E+3
  -9.27383E+3   2.03282E+3
  -9.10884E+3   1.55953E+3
  -8.86992E+3   1.14716E+3
  -8.66766E+3   7.72017E+2
  -8.38060E+3   3.66186E+2
  -8.19106E+3  -4.74541E+1
  -7.99785E+3  -3.97381E+2
  -7.67666E+3  -7.60596E+2
  -7.40665E+3  -1.06316E+3
  -7.12679E+3  -1.42350E+3
  -6.84979E+3  -1.74594E+3
  -6.55567E+3  -2.08695E+3
  -6.29521E+3  -2.26091E+3
  -6.04972E+3  -2.54796E+3
  -5.73194E+3  -2.75784E+3
  -5.45437E+3  -2.97949E+3
  -5.14997E+3  -3.20481E+3
  -4.76600E+3  -3.44768E+3
  -4.51834E+3  -3.64253E+3
  -4.23770E+3  -3.77421E+3
  -3.96157E+3  -3.95592E+3
  -3.68950E+3  -4.08317E+3
  -3.36203E+3  -4.24566E+3
  -3.18215E+3  -4.41040E+3
  -2.88915E+3  -4.49365E+3
  -2.66841E+3  -4.58898E+3
  -2.30757E+3  -4.57962E+3
  -2.06777E+3  -4.68411E+3
  -1.86203E+3  -4.80130E+3
  -1.63537E+3  -4.86722E+3
  -1.36755E+3  -4.88884E+3
  -1.19570E+3  -4.95003E+3
  -9.00113E+2  -4.91808E+3
  -6.47056E+2  -4.96915E+3
  -4.46680E+2  -4.95073E+3
  -3.02167E+2  -4.95176E+3
  -7.10908E+1  -4.95232E+3
   5.20299E+1  -5.02143E+3
   3.08472E+2  -4.93053E+3
   3.70382E+2  -4.83375E+3
   6.17281E+2  -4.86646E+3
   7.51684E+2  -4.75779E+3
   8.52166E+2  -4.75076E+3
   1.06593E+3  -4.67505E+3
   1.22913E+3  -4.67717E+3
   1.32843E+3  -4.64765E+3
   1.51087E+3  -4.60544E+3
   1.55199E+3  -4.53971E+3
   1.73047E+3  -4.42626E+3
   1.85086E+3  -4.38144E+3
   1.89537E+3  -4.35219E+3
   2.02811E+3  -4.31558E+3
   2.15316E+3  -4.17306E+3
   2.26742E+3  -4.10526E+3
   2.36363E+3  -4.05258E+3
   2.48741E+3  -3.98181E+3
   2.56317E+3  -3.85690E+3
   2.62634E+3  -3.77606E+3
   2.62965E+3  -3.69546E+3
   2.68041E+3  -3.59624E+3
   2.86909E+3  -3.53055E+3
   2.84794E+3  -3.44148E+3
   2.91884E+3  -3.25554E+3
   2.90470E+3  -3.26054E+3
   2.92826E+3  -3.12373E+3
   2.96395E+3  -3.00375E+3
   3.00748E+3  -2.96704E+3
   3.03449E+3  -2.88197E+3
   3.04219E+3  -2.71553E+3
   3.07509E+3  -2.59445E+3
   3.05228E+3  -2.53028E+3
   3.08058E+3  -2.47629E+3
   3.04481E+3  -2.41301E+3
   3.05155E+3  -2.26192E+3
   3.01887E+3  -2.20782E+3
   3.06254E+3  -2.13252E+3
   2.98854E+3  -2.04211E+3
   2.98499E+3  -1.98960E+3
   2.93243E+3  -1.91852E+3
   2.99205E+3  -1.84273E+3
   2.98324E+3  -1.78571E+3
   2.90140E+3  -1.64148E+3
   2.85905E+3  -1.63639E+3
   2.91582E+3  -1.56944E+3
   2.78132E+3  -1.43216E+3
   2.86472E+3  -1.44994E+3
   2.74483E+3  -1.42871E+3
   2.76863E+3  -1.31386E+3
   2.74329E+3  -1.34201E+3
   2.70506E+3  -1.21301E+3
   2.67879E+3  -1.18054E+3
   2.62727E+3  -1.14736E+3
   2.66407E+3  -1.11068E+3
   2.52343E+3  -1.04761E+3
   2.52746E+3  -1.03351E+3
   2.44958E+3  -1.09851E+3
   2.49792E+3  -9.92453E+2
   2.47853E+3  -1.03435E+3
   2.47680E+3  -8.67849E+2
   2.43449E+3  -8.46454E+2
   2.38672E+3  -7.96509E+2
   2.40654E+3  -8.14160E+2
   2.40084E+3  -7.50651E+2
   2.34435E+3  -7.54732E+2
   2.30116E+3  -6.78646E+2
   2.31286E+3  -7.49279E+2
   2.24965E+3  -6.63648E+2
   2.28834E+3  -6.25088E+2
   2.25664E+3  -5.37057E+2
   2.13073E+3  -4.54259E+2
   2.17131E+3  -5.41559E+2
   2.11881E+3  -4.75267E+2
   2.10848E+3  -4.85833E+2
   2.11470E+3  -4.17687E+2
   2.05053E+3  -3.85899E+2
   1.95840E+3  -4.24004E+2
   2.03759E+3  -4.10834E+2
   1.97419E+3  -3.33648E+2
   1.92579E+3  -3.01353E+2
   1.89906E+3  -3.18475E+2
   1.83555E+3  -3.26620E+2
   1.83637E+3  -2.87799E+2
   1.81003E+3  -2.90509E+2
   1.74707E+3  -3.28365E+2
   1.68319E+3  -3.01981E+2
   1.65915E+3  -2.18714E+2
   1.67919E+3  -3.17195E+2
   1.56986E+3  -2.93504E+2
   1.66927E+3  -2.68914E+2
   1.54663E+3  -2.97818E+2
   1.52913E+3  -2.42011E+2
   1.51519E+3  -2.81987E+2
   1.47248E+3  -2.77975E+2
   1.44717E+3  -2.89588E+2
   1.44581E+3  -2.64504E+2
   1.41971E+3  -2.84532E+2
   1.38407E+3  -3.70188E+2
   1.34059E+3  -3.02670E+2
   1.36446E+3  -3.27063E+2
   1.33223E+3  -3.25491E+2
   1.31380E+3  -4.04849E+2
   1.27731E+3  -3.23625E+2
   1.32794E+3  -3.65494E+2
   1.30548E+3  -3.45412E+2
   1.27219E+3  -4.01907E+2
   1.26783E+3  -3.24787E+2
   1.26964E+3  -3.39478E+2
   1.36158E+3  -3.31261E+2
   1.30048E+3  -3.31637E+2
   1.28059E+3  -3.50111E+2
   1.23630E+3  -3.80348E+2
   1.23439E+3  -3.88733E+2
   1.23896E+3  -3.56761E+2
   1.18203E+3  -3.89746E+2
   1.25452E+3  -2.93784E+2
   1.24885E+3  -3.63818E+2
   1.21364E+3  -2.74831E+2
   1.18279E+3  -2.93205E+2
   1.22085E+3  -2.73902E+2
   1.18087E+3  -2.57637E+2
   1.14182E+3  -2.96690E+2
   1.11929E+3  -3.25791E+2
   1.08883E+3  -2.56134E+2
   1.13889E+3  -2.92450E+2
   1.10984E+3  -2.01168E+2
   1.04785E+3  -2.30434E+2
   1.09357E+3  -1.82573E+2
   1.00991E+3  -2.18549E+2
   1.00569E+3  -2.33025E+2
   1.00700E+3  -2.54567E+2
   9.87263E+2  -1.97142E+2
   9.82559E+2  -2.00944E+2
   9.69493E+2  -2.16295E+2
   9.42220E+2  -2.08426E+2
   1.01739E+3  -1.98479E+2
   9.60192E+2  -1.84029E+2
   9.63768E+2  -1.68554E+2
   9.06876E+2  -1.70254E+2
   8.85066E+2  -2.24726E+2
   8.90323E+2  -2.07543E+2
   9.32845E+2  -2.23355E+2
   8.15385E+2  -1.06141E+2
   8.43839E+2  -2.36552E+2
   8.73957E+2  -1.84173E+2
   8.37294E+2  -1.53739E+2
   8.25186E+2  -1.56143E+2
   7.62902E+2  -1.78597E+2
   8.37802E+2  -2.67647E+2
   7.73636E+2  -2.12948E+2
   7.65632E+2  -2.34921E+2
   7.52399E+2  -1.79607E+2
   7.72777E+2  -1.94906E+2
   7.69120E+2  -1.62301E+2
   7.68961E+2  -2.31952E+2
   7.72307E+2  -1.25670E+2
   7.34219E+2  -1.45799E+2
   7.98247E+2  -9.46111E+1
   7.19730E+2  -1.39279E+2
   7.51992E+2  -1.19317E+2
   7.91187E+2  -1.35993E+2
   7.10851E+2  -1.01849E+2
   6.79503E+2  -8.45506E+1
   7.52281E+2  -1.43422E+2
   7.31995E+2  -1.07001E+2
   6.86345E+2  -1.41367E+2
   6.61421E+2  -9.38375E+1
   6.89612E+2  -1.01090E+2
   6.11989E+2  -1.14047E+2
   6.59391E+2  -6.75059E+1
   6.67532E+2  -9.51896E+1
   6.89206E+2  -3.52124E+1
   6.53427E+2  -8.46865E+1
   6.32237E+2  -3.67294E+1
   6.92510E+2  -2.17733E+1
   6.40461E+2   5.60979E+1
   6.56110E+2  -5.67944E+1
   5.60445E+2  -7.27131E+1
   5.96094E+2  -9.64121E+1
   6.09735E+2   7.69240E-1
   6.20898E+2  -6.52629E+1
   6.03078E+2  -3.96049E+1
   5.99462E+2  -4.76526E+1
   5.45641E+2  -6.72434E+1
   6.30039E+2  -2.61417E+1
   5.27581E+2  -6.70840E+1
   6.23475E+2  -5.99937E+1
   5.80450E+2  -1.19348E+1
   5.47292E+2   6.32611E+1
   6.19363E+2  -3.24518E+1
   5.80796E+2  -7.62853E-1
   5.31062E+2  -5.02515E+1
   5.66407E+2   3.62372E+1
   5.21098E+2   1.00268E-1
   5.35008E+2   7.28799E+0
   5.57640E+2  -9.60186E+1
   5.62068E+2  -1.43910E+1
   5.29543E+2   2.40516E+1
   5.18603E+2  -6.71783E+1
   5.92027E+2  -5.58059E+1
   5.34172E+2  -4.45663E+1
   5.38425E+2  -8.17030E+1
   6.09268E+2   4.25817E+1
   4.88889E+2  -8.55161E+1
   5.57610E+2  -3.55745E+1
   5.47557E+2   4.75578E+1
   5.06647E+2   1.91903E+1
   5.28735E+2   6.61096E+1
   5.47169E+2   1.14068E+1
   4.90834E+2   1.11660E+1
   5.00618E+2  -7.93395E+0
   5.08224E+2   4.79713E+0
   4.97108E+2  -3.42385E+1
   4.94964E+2  -4.90695E+0
   4.99431E+2  -3.43964E+1
   4.76127E+2  -2.53361E+0
   5.38886E+2  -3.58578E+1
   5.24664E+2   2.64455E+1
   4.94021E+2  -1.03346E+2
   5.55711E+2   3.22669E+1
   5.38904E+2   4.04415E+1
   5.33204E+2  -1.56276E+1
   4.28070E+2  -1.25767E+1
   5.39009E+2  -9.55353E+0
   4.79845E+2  -3.92758E+1
   5.10852E+2  -3.33383E+1
   5.02975E+2   5.35615E+0
   5.32350E+2  -1.36338E+1
   4.68621E+2   3.09688E+1
   5.74595E+2  -9.38447E+0
   5.63946E+2   3.68585E+1
   4.98282E+2   6.32478E+0
   4.99165E+2   1.11094E+1
   4.64394E+2   2.88768E+1
   5.52431E+2   1.17338E+1
   5.85394E+2  -1.28756E+1
   5.50887E+2   2.96057E+1
   5.69291E+2  -5.30547E+1
   4.96749E+2  -1.17335E+2
   4.75993E+2  -4.09121E+0
   5.37566E+2   2.34798E+1
   5.52755E+2  -3.68021E+1
   5.24274E+2   3.87535E+1
   5.17843E+2  -2.60123E+1
