 LCModel (Version 6.3-1N) Copyright: S.W. Provencher.          Ref.: Magn. Reson. Med. 30:672-679 (1993).                
 Slice_N1@16_15  02-Jun-2023 14:36:58
 27 lines in following concentration table = NCONC+1
    Conc.  %SD /Cr+PCr  Metabolite                                         
 2.49E-06  13% 2.6E-04 Mac                                                 
 3.12E-02  18%   3.268 Cr                                                  
 4.51E-02  12%   4.732 PCr                                                 
 7.53E-02   9%   7.904 Ins                                                 
 9.33E-02   6%   9.784 NAA                                                 
 4.02E-02  15%   4.220 Tau                                                 
 8.98E-03  21%   0.942 PCho                                                
 7.35E-03  26%   0.771 GPC                                                 
 7.45E-02  11%   7.817 Glu                                                 
 1.75E-02  33%   1.840 Gln                                                 
    0.000 999%   0.000 Ala                                                 
 7.81E-03 133%   0.820 Asc                                                 
 1.71E-02  46%   1.793 Asp                                                 
 1.46E-02  27%   1.530 GABA                                                
 1.32E-02  42%   1.387 Glc                                                 
 9.20E-03  34%   0.965 GSH                                                 
    0.000 999%   0.000 Lac                                                 
 1.20E-02  28%   1.258 NAAG                                                
    0.000 999%   0.000 PE                                                  
 1.63E-02  10%   1.713 GPC+PCho                                            
    0.105   6%  11.043 NAA+NAAG                                            
 9.20E-02  10%   9.657 Glu+Gln                                             
 7.63E-02   7%   8.000 Cr+PCr                                              
    0.105   6%  11.043 NAA+NAAG                                            
 7.63E-02   7%   8.000 Cr+PCr                                              
 9.20E-02  10%   9.657 Glu+Gln                                             
   6 lines in following misc. output table
  FWHM = 0.017 ppm    S/N =   7                                            
  Data shift = 0.023 ppm                                                   
  Ph: -62 deg     -15.2 deg/ppm                                            
  alphaB,S = 8.7E-01,   3.9E-01                                            
   18 spline knots.   Ns = 5(1)                                            
   2 inflections.     1 extrema                                            
  654 points on ppm-axis = NY
      4.000000     3.994181     3.988363     3.982544     3.976726     3.970907     3.965088     3.959270     3.953451     3.947633
      3.941814     3.935995     3.930177     3.924358     3.918540     3.912721     3.906902     3.901084     3.895265     3.889446
      3.883628     3.877809     3.871991     3.866172     3.860353     3.854535     3.848716     3.842898     3.837079     3.831260
      3.825442     3.819623     3.813805     3.807986     3.802167     3.796349     3.790530     3.784712     3.778893     3.773074
      3.767256     3.761437     3.755619     3.749800     3.743981     3.738163     3.732344     3.726526     3.720707     3.714888
      3.709070     3.703251     3.697433     3.691614     3.685795     3.679977     3.674158     3.668339     3.662521     3.656702
      3.650884     3.645065     3.639246     3.633428     3.627609     3.621791     3.615972     3.610153     3.604335     3.598516
      3.592698     3.586879     3.581060     3.575242     3.569423     3.563605     3.557786     3.551967     3.546149     3.540330
      3.534512     3.528693     3.522874     3.517056     3.511237     3.505419     3.499600     3.493781     3.487963     3.482144
      3.476326     3.470507     3.464688     3.458870     3.453051     3.447232     3.441414     3.435595     3.429777     3.423958
      3.418139     3.412321     3.406502     3.400684     3.394865     3.389046     3.383228     3.377409     3.371591     3.365772
      3.359953     3.354135     3.348316     3.342498     3.336679     3.330860     3.325042     3.319223     3.313405     3.307586
      3.301767     3.295949     3.290130     3.284312     3.278493     3.272674     3.266856     3.261037     3.255219     3.249400
      3.243581     3.237763     3.231944     3.226125     3.220307     3.214488     3.208670     3.202851     3.197032     3.191214
      3.185395     3.179577     3.173758     3.167939     3.162121     3.156302     3.150484     3.144665     3.138846     3.133028
      3.127209     3.121391     3.115572     3.109753     3.103935     3.098116     3.092298     3.086479     3.080660     3.074842
      3.069023     3.063205     3.057386     3.051567     3.045749     3.039930     3.034111     3.028293     3.022474     3.016656
      3.010837     3.005018     2.999200     2.993381     2.987563     2.981744     2.975925     2.970107     2.964288     2.958470
      2.952651     2.946832     2.941014     2.935195     2.929377     2.923558     2.917739     2.911921     2.906102     2.900284
      2.894465     2.888646     2.882828     2.877009     2.871191     2.865372     2.859553     2.853735     2.847916     2.842098
      2.836279     2.830460     2.824642     2.818823     2.813004     2.807186     2.801367     2.795549     2.789730     2.783911
      2.778093     2.772274     2.766456     2.760637     2.754818     2.749000     2.743181     2.737363     2.731544     2.725725
      2.719907     2.714088     2.708270     2.702451     2.696632     2.690814     2.684995     2.679177     2.673358     2.667539
      2.661721     2.655902     2.650084     2.644265     2.638446     2.632628     2.626809     2.620991     2.615172     2.609353
      2.603535     2.597716     2.591897     2.586079     2.580260     2.574442     2.568623     2.562804     2.556986     2.551167
      2.545349     2.539530     2.533711     2.527893     2.522074     2.516256     2.510437     2.504618     2.498800     2.492981
      2.487163     2.481344     2.475525     2.469707     2.463888     2.458070     2.452251     2.446432     2.440614     2.434795
      2.428977     2.423158     2.417339     2.411521     2.405702     2.399884     2.394065     2.388246     2.382428     2.376609
      2.370790     2.364972     2.359153     2.353335     2.347516     2.341697     2.335879     2.330060     2.324242     2.318423
      2.312604     2.306786     2.300967     2.295149     2.289330     2.283511     2.277693     2.271874     2.266056     2.260237
      2.254418     2.248600     2.242781     2.236963     2.231144     2.225325     2.219507     2.213688     2.207870     2.202051
      2.196232     2.190414     2.184595     2.178777     2.172958     2.167139     2.161321     2.155502     2.149683     2.143865
      2.138046     2.132228     2.126409     2.120590     2.114772     2.108953     2.103135     2.097316     2.091497     2.085679
      2.079860     2.074042     2.068223     2.062404     2.056586     2.050767     2.044949     2.039130     2.033311     2.027493
      2.021674     2.015856     2.010037     2.004218     1.998400     1.992581     1.986763     1.980944     1.975126     1.969307
      1.963489     1.957670     1.951852     1.946033     1.940215     1.934397     1.928578     1.922760     1.916941     1.911123
      1.905304     1.899486     1.893667     1.887849     1.882030     1.876212     1.870393     1.864575     1.858756     1.852938
      1.847119     1.841301     1.835482     1.829664     1.823845     1.818027     1.812208     1.806390     1.800571     1.794753
      1.788934     1.783116     1.777297     1.771479     1.765660     1.759842     1.754023     1.748205     1.742386     1.736568
      1.730749     1.724931     1.719113     1.713294     1.707476     1.701657     1.695839     1.690020     1.684202     1.678383
      1.672565     1.666746     1.660928     1.655109     1.649291     1.643472     1.637654     1.631835     1.626017     1.620198
      1.614380     1.608561     1.602743     1.596924     1.591106     1.585287     1.579469     1.573650     1.567832     1.562013
      1.556195     1.550376     1.544558     1.538739     1.532921     1.527102     1.521284     1.515465     1.509647     1.503829
      1.498010     1.492192     1.486373     1.480555     1.474736     1.468918     1.463099     1.457281     1.451462     1.445644
      1.439825     1.434007     1.428188     1.422370     1.416551     1.410733     1.404914     1.399096     1.393277     1.387459
      1.381640     1.375822     1.370003     1.364185     1.358366     1.352548     1.346729     1.340911     1.335092     1.329274
      1.323455     1.317637     1.311818     1.306000     1.300182     1.294363     1.288545     1.282726     1.276908     1.271089
      1.265271     1.259452     1.253634     1.247815     1.241997     1.236178     1.230360     1.224541     1.218723     1.212904
      1.207086     1.201267     1.195449     1.189630     1.183812     1.177993     1.172175     1.166356     1.160538     1.154719
      1.148901     1.143082     1.137264     1.131445     1.125627     1.119808     1.113990     1.108171     1.102353     1.096534
      1.090716     1.084898     1.079079     1.073261     1.067442     1.061624     1.055805     1.049987     1.044168     1.038350
      1.032531     1.026713     1.020894     1.015076     1.009257     1.003439     0.997620     0.991802     0.985983     0.980165
      0.974346     0.968528     0.962709     0.956891     0.951072     0.945254     0.939435     0.933617     0.927798     0.921980
      0.916161     0.910343     0.904524     0.898706     0.892887     0.887069     0.881251     0.875432     0.869614     0.863795
      0.857977     0.852158     0.846340     0.840521     0.834703     0.828884     0.823066     0.817247     0.811429     0.805610
      0.799792     0.793973     0.788155     0.782336     0.776518     0.770699     0.764881     0.759062     0.753244     0.747425
      0.741607     0.735788     0.729970     0.724151     0.718333     0.712514     0.706696     0.700877     0.695059     0.689240
      0.683422     0.677603     0.671785     0.665967     0.660148     0.654330     0.648511     0.642693     0.636874     0.631056
      0.625237     0.619419     0.613600     0.607782     0.601963     0.596145     0.590326     0.584508     0.578689     0.572871
      0.567052     0.561234     0.555415     0.549597     0.543778     0.537960     0.532141     0.526323     0.520504     0.514686
      0.508867     0.503049     0.497230     0.491412     0.485593     0.479775     0.473956     0.468138     0.462319     0.456501
      0.450682     0.444864     0.439045     0.433227     0.427408     0.421590     0.415771     0.409953     0.404134     0.398316
      0.392497     0.386679     0.380860     0.375042     0.369223     0.363405     0.357586     0.351767     0.345949     0.340130
      0.334312     0.328493     0.322675     0.316856     0.311038     0.305219     0.299401     0.293582     0.287764     0.281945
      0.276127     0.270308     0.264490     0.258671     0.252853     0.247034     0.241216     0.235397     0.229579     0.223760
      0.217942     0.212123     0.206305     0.200486
 NY phased data points follow
  -3.22066E-01 -2.03436E-01 -2.79235E-01  3.53002E-02 -1.82973E-01 -1.41737E-01  2.26304E-01 -3.66229E-01 -2.15686E-01  1.79688E-01
   1.49004E-01  4.71933E-01  5.91226E-01  3.19073E-01  2.85548E-01  5.96355E-01  3.66857E-01  2.29822E-01  2.84909E-01  1.12274E-01
   2.72133E-01  2.94248E-02 -1.56687E-03 -2.84401E-01 -1.27602E-01  2.84275E-01  1.23339E-01  5.56247E-02 -2.46619E-01 -1.39042E-01
  -1.94898E-01 -9.68160E-02 -1.92872E-01 -2.32804E-02 -4.60141E-02 -4.63679E-01 -2.58614E-01 -4.90451E-01 -5.57031E-01 -1.14842E-01
   5.97294E-02 -6.18004E-02  3.21490E-01  5.06731E-01  5.97075E-01  1.53760E-01  7.12641E-02  5.71432E-01  8.97206E-02 -1.64756E-01
   5.45493E-02  2.14839E-01  8.32444E-02 -4.33770E-03 -2.74366E-01  6.36684E-02 -1.27469E-01 -4.81211E-01  2.93202E-02 -1.97700E-01
  -2.39792E-01 -2.04177E-01 -3.25305E-01 -2.54039E-01 -4.59496E-01 -2.36734E-01  3.12515E-01 -6.23748E-02  3.97590E-01  5.35276E-01
   3.29732E-01  3.84519E-01 -5.15433E-02  1.86268E-01 -2.39910E-01 -3.51716E-01 -3.16143E-01 -2.71160E-01 -5.23812E-01 -7.00799E-01
  -2.18479E-01 -2.74161E-02  8.31145E-02  2.63118E-01  7.11378E-01  4.52871E-01  4.88874E-01  1.78664E-01  3.70116E-02  3.77519E-01
   5.45241E-02  1.16162E-01  2.03556E-01  1.78186E-01  4.13522E-01  1.37756E-01 -1.83584E-01  2.60964E-01  2.25743E-01 -1.10785E-01
  -2.69081E-01 -1.07281E-01 -5.10941E-02  1.80059E-01  2.59747E-01  3.20025E-01  2.82277E-01  7.43396E-02  4.19430E-01  3.38113E-01
   4.45131E-01  1.10671E-01  7.00218E-02 -4.04579E-02  1.08671E-01  4.62920E-01 -3.33152E-02  2.30935E-01  2.99983E-01  2.12435E-01
   2.04327E-01  1.58773E-01  1.14801E-01  3.08264E-02 -2.33703E-01 -3.03101E-01 -2.74591E-01 -3.64455E-01 -3.23158E-01 -4.32921E-01
  -5.92628E-01 -3.00520E-01 -2.43815E-01 -6.75238E-01 -3.30975E-01 -6.20660E-01 -1.32512E+00 -1.33506E+00 -7.04029E-01 -3.82295E-01
  -8.47827E-02 -1.50703E-02 -2.88858E-01 -1.45985E-01 -9.61929E-02  1.40991E-01 -7.07923E-03  2.29419E-01 -8.27633E-02  1.35718E-01
   4.46781E-01  1.86650E-01  1.69676E-01  1.34078E-01  4.77356E-01  1.14268E-01  4.28476E-01  8.03321E-02  2.47630E-01  7.39230E-01
   5.58281E-01  6.41250E-01  6.01935E-01  1.27966E+00  1.22821E+00  1.42828E+00  1.30602E+00  1.90208E-01 -9.51428E-01 -1.24844E+00
  -7.60100E-01 -6.33521E-01 -7.19843E-01 -8.53214E-01 -4.82232E-01 -4.85183E-01 -5.47302E-01 -5.54075E-01 -7.05667E-01 -3.70119E-01
  -4.38663E-01 -5.34373E-01 -2.63257E-01 -1.95883E-01 -3.29198E-01 -2.84365E-01 -1.10912E-02 -1.16769E-01 -2.87347E-01 -1.88502E-01
   9.49692E-03 -2.54695E-01 -1.96999E-01  1.83174E-01 -1.13962E-01 -1.06427E-01 -2.29292E-01 -8.68295E-03  1.26517E-01 -1.13027E-01
   1.46622E-01  2.40577E-02  1.08432E-02  1.67863E-01  3.12390E-02 -2.13576E-01 -1.46815E-01  8.48527E-02 -9.83580E-02 -1.43923E-01
   1.32361E-01  5.29181E-02  7.34966E-02 -4.76087E-02 -1.45139E-01 -3.47080E-02 -9.54664E-02  2.32875E-02 -1.89776E-01  4.09874E-03
   3.93781E-02 -1.10945E-01  2.42967E-01  2.36851E-01  2.26560E-01  4.31873E-01  6.67478E-01  3.51092E-01  1.52517E-01  4.69675E-01
   4.24301E-01  5.42324E-01  3.52899E-01 -9.61042E-02 -1.13373E-01 -3.59017E-01 -1.61893E-01  1.03115E-01  2.87698E-02 -9.12987E-02
  -1.93928E-01  6.73464E-03 -5.51406E-02 -2.59661E-01 -1.43772E-01  1.19220E-01 -2.52773E-01 -3.75476E-01 -5.69376E-02 -1.03992E-02
   9.88942E-03  5.24414E-02  4.90649E-02 -9.71285E-02 -1.64126E-01 -2.18019E-01  5.91471E-02  1.77065E-01  1.18887E-01  1.27831E-01
   3.33400E-01  4.85079E-01  5.20681E-02  3.30226E-02  2.22812E-01  1.25902E-01  1.77581E-01  3.92481E-01  3.84985E-01  2.23902E-01
   1.35274E-01  2.45069E-01  1.10003E-01 -1.01901E-01 -1.54071E-02  2.58251E-02 -5.58845E-02 -2.72446E-01 -2.79936E-01 -1.94692E-01
  -4.15534E-01 -5.61170E-01 -2.38737E-01 -4.01723E-01 -3.58203E-01  2.16021E-01  5.15094E-01  7.48694E-01  4.46304E-01  1.34381E-01
   1.92368E-01  2.21691E-01  2.66677E-01  1.79127E-01  1.15361E-02  1.53981E-01  1.53354E-01  1.10606E-01 -2.51975E-02  6.72296E-02
   8.46439E-02 -6.15979E-02  3.92397E-01  2.74271E-01  2.72380E-01  4.07111E-01  4.16019E-01  2.31934E-01  1.10052E-01  4.97005E-01
   2.49955E-01  1.78141E-02  1.63620E-01  2.12587E-01  1.70977E-01 -1.07307E-01 -1.74279E-01  2.17117E-01 -7.46353E-02 -1.45906E-01
   1.74590E-01 -1.91683E-01 -3.11666E-01 -2.19883E-01 -5.05136E-01 -3.24808E-01  3.52667E-02  2.04644E-01  3.66837E-01  1.60395E-01
   3.67786E-01  2.09592E-01  2.01344E-01  4.70892E-02 -2.23029E-01 -2.07046E-01 -5.26380E-01 -4.52902E-01 -3.03998E-01 -1.36230E-01
  -2.73539E-01 -8.06631E-01 -2.77579E+00 -2.61450E+00 -9.92809E-01 -7.52591E-01 -3.03094E-01 -1.15601E-01  3.75140E-01  4.70522E-02
   1.73920E-01  1.47402E-01 -1.66623E-02  4.14546E-01  3.06074E-01  3.10215E-01  2.17192E-01  2.63527E-01 -1.22763E-01 -3.76147E-02
   2.45435E-01 -1.04875E-01  1.81767E-02  8.24674E-02 -2.13068E-01  1.29493E-01 -7.70661E-03 -3.94805E-02  1.27153E-01  4.12149E-03
   2.04883E-01  6.22723E-02  1.10475E-01 -1.76777E-01  1.62564E-01  9.44210E-02 -4.14986E-01  2.56113E-01  3.51924E-01  5.48256E-03
   1.52448E-01  1.46521E-01  1.32637E-01  3.16275E-01  2.46377E-01  3.65581E-01  2.45396E-01  4.91615E-01  4.92417E-01  3.92999E-01
   4.00845E-01 -9.17768E-02 -9.62366E-02  2.54502E-01  3.69882E-01  1.94958E-01  3.58596E-01  2.68956E-02  1.38518E-01  3.64219E-01
   2.60150E-01  1.99797E-01 -3.46770E-02 -4.86025E-02 -3.91643E-02  3.55022E-01 -7.37617E-02 -3.10839E-01 -1.81109E-01 -9.83220E-02
   4.75962E-02 -2.06451E-01 -2.63772E-01 -3.42341E-01 -1.52943E-01 -2.26487E-02  3.46639E-02 -6.73539E-02 -2.64635E-01 -1.37364E-01
  -2.65157E-01 -3.54589E-01 -7.95641E-02 -2.76071E-01 -1.60436E-01  9.72985E-03 -3.47673E-01 -1.58530E-01 -7.60676E-02 -1.15218E-01
  -1.98458E-01 -2.35050E-01 -1.68001E-01  6.95483E-02  2.95780E-02 -3.02427E-02  2.10524E-01 -4.08518E-02  1.45133E-01  1.36414E-01
   1.57580E-01  7.26750E-02 -2.08778E-01 -1.19008E-01 -7.30559E-02  2.86380E-01  2.28858E-01  1.23896E-01  1.73361E-01  2.84729E-01
   9.29865E-02  4.04784E-02  2.90556E-01  2.28043E-01  6.40730E-02 -3.09731E-02  9.48457E-02 -3.28315E-01 -2.87919E-01  1.08575E-01
   4.30861E-01  1.82888E-01  4.35368E-02  2.07880E-01 -3.51036E-01 -2.58118E-01 -3.52229E-01 -2.40342E-01 -1.12299E-01 -1.47462E-01
  -1.28488E-01 -1.71014E-01 -2.11615E-01 -2.99409E-01  4.48305E-02  1.74599E-02  1.17911E-01 -4.04802E-01 -3.61561E-01 -9.88686E-02
  -2.50340E-01 -1.00328E-01 -1.22928E-01  2.79771E-01  6.08509E-02  2.07688E-01  1.67364E-01 -4.26790E-02  6.20441E-02  2.16723E-02
   1.31494E-01  1.39896E-01  1.24576E-01 -2.11495E-01  2.20960E-01  1.87577E-01  4.35889E-02  1.56719E-01 -1.75723E-01  2.04968E-01
   1.38121E-01  2.58799E-03  1.64686E-01  1.74424E-01  1.15797E-01 -1.46019E-01  3.88297E-02  1.25778E-01 -1.29367E-01  5.17894E-02
   2.11957E-01  9.28524E-02  1.51182E-01  1.72033E-01  2.18242E-01  2.47444E-01 -2.21120E-02 -2.99376E-02 -2.81902E-01 -1.16794E-01
   3.09046E-01 -2.28287E-01 -7.51110E-02  7.83188E-03 -2.84557E-01 -1.92878E-01 -8.11262E-02 -1.84131E-01 -4.79358E-01 -4.41083E-01
  -5.62184E-01 -2.93526E-01 -3.23273E-01 -2.89350E-01  1.61214E-01 -6.26730E-02 -9.63866E-02 -4.88292E-01 -4.53521E-01  6.59575E-02
  -2.94035E-01 -4.75819E-01 -4.46692E-01 -1.16909E-01  1.14379E-01 -6.52267E-02  7.33005E-02  5.18300E-02  4.14535E-02 -3.54573E-02
   1.70120E-01  1.74632E-01  1.43799E-01  5.12072E-01  1.07093E-01  1.01025E-01  2.23928E-01  8.60869E-02  8.75152E-02 -4.97937E-02
   3.25622E-02  2.06403E-01  2.52094E-01  2.04944E-01  2.29980E-01  9.92137E-02 -2.01186E-02  3.65707E-02 -1.25415E-01  1.11424E-01
   4.52843E-01  1.64885E-01 -6.64592E-02 -1.33286E-01  1.63430E-01  7.01259E-02 -3.87178E-02 -6.07499E-02  3.99688E-03  1.80194E-01
  -9.79612E-02  6.59665E-03 -1.86517E-01  2.60115E-03 -8.40473E-02  7.19311E-02  5.39173E-02  2.03742E-03  1.45132E-01 -2.66462E-01
   3.56034E-01 -1.59222E-01  8.51022E-02 -1.17418E-02 -2.78030E-01  2.37977E-01 -2.63400E-01  9.22005E-02  4.95048E-02  1.87499E-02
  -2.52430E-01 -1.17176E-01  2.82751E-01  8.96157E-02 -4.22267E-04 -2.93701E-02  1.26766E-02 -8.74921E-02  1.19230E-01  2.22874E-01
   2.57915E-01 -8.91923E-02 -1.55116E-02  1.39015E-01  1.18789E-01  1.49288E-01 -1.34883E-01 -2.98791E-02  1.62792E-01 -6.15404E-02
  -2.13669E-01  3.68247E-01  1.62184E-01 -1.82309E-01  2.86024E-02  1.36541E-01  7.30797E-02  7.00872E-02  1.55532E-01 -1.39888E-01
   1.68716E-01 -1.32943E-01 -1.98997E-01  4.07756E-01  2.96655E-02 -1.10895E-01 -3.85352E-02  1.54113E-01  1.80730E-01 -1.25795E-01
   6.52422E-02  6.52262E-02 -1.87048E-01  1.14205E-01  2.14194E-01  1.02154E-01  3.39731E-01  1.67575E-01 -1.68115E-01  8.93125E-02
   1.84484E-01 -3.88535E-02  1.21253E-01 -3.71049E-02
 NY points of the fit to the data follow
  -8.95784E-05 -5.44514E-03 -1.10560E-02 -2.06505E-02 -2.00995E-02 -1.20215E-02 -2.96106E-03 -2.00952E-02  1.15547E-02  7.78720E-02
   1.70911E-01  5.67694E-01  8.00244E-01  5.02288E-01  3.43864E-01  6.64781E-01  6.75355E-01  3.17037E-01  2.31180E-01  1.61062E-01
   1.21132E-01  2.40305E-02  1.06693E-02 -2.89199E-02 -5.40553E-02 -8.50356E-02 -1.05464E-01 -1.14062E-01 -1.19830E-01 -1.34366E-01
  -1.35455E-01 -1.37565E-01 -1.53222E-01 -1.89626E-01 -2.30473E-01 -2.74812E-01 -3.10074E-01 -3.30401E-01 -3.08418E-01 -1.57691E-01
  -2.58861E-02  5.57008E-02  2.15863E-01  3.18991E-01  3.92715E-01  3.42003E-01  2.31910E-01  1.63010E-01  8.14903E-02  6.16681E-02
   9.06939E-03 -7.56038E-03 -2.11114E-02 -5.75049E-02 -9.44103E-02 -1.47673E-01 -2.09363E-01 -2.34164E-01 -2.32198E-01 -2.46242E-01
  -3.18666E-01 -4.72910E-01 -3.26481E-01 -2.20054E-01 -4.67095E-01 -3.27026E-02  3.19503E-01  1.37999E-01  3.53967E-01  5.00458E-01
   4.13540E-01  2.71449E-01  2.07423E-01  1.51826E-01  4.72941E-02 -3.23527E-02 -1.55762E-01 -2.79751E-01 -5.13752E-01 -6.86694E-01
  -3.44098E-01 -7.77321E-02 -6.53299E-02  2.60644E-01  5.11787E-01  5.03721E-01  4.15583E-01  3.65510E-01  3.22592E-01  2.38178E-01
   2.21773E-01  2.16930E-01  1.84475E-01  1.74075E-01  1.43423E-01  1.05260E-01  1.91376E-02 -1.17655E-01 -1.70951E-01 -2.82342E-01
  -2.01845E-01 -3.61053E-02  5.40788E-02  2.19299E-01  2.29806E-01  2.67416E-01  2.44086E-01  2.53110E-01  2.42265E-01  2.49497E-01
   2.50639E-01  2.53219E-01  2.50854E-01  2.48625E-01  2.45912E-01  2.46737E-01  2.49634E-01  2.55246E-01  2.44223E-01  2.30207E-01
   2.20662E-01  7.72887E-02  6.29420E-03  5.99836E-02 -1.92119E-01 -2.14122E-01 -4.71191E-02 -2.33084E-01 -2.87488E-01 -3.85621E-01
  -3.48751E-01 -2.49039E-01 -1.89189E-01 -6.13269E-02 -3.30838E-01 -6.61439E-01 -1.22608E+00 -1.18038E+00 -6.34142E-01 -4.06474E-01
  -1.83352E-01 -8.08722E-02  4.05469E-02  2.53098E-02  4.01330E-02  6.49194E-02  9.00055E-02  1.11675E-01  1.32913E-01  1.50565E-01
   1.68028E-01  1.86144E-01  2.03483E-01  2.21268E-01  2.43837E-01  2.67381E-01  2.94261E-01  3.26870E-01  3.60581E-01  3.96115E-01
   4.44069E-01  5.13359E-01  6.29171E-01  8.20917E-01  9.84163E-01  1.19335E+00  1.22420E+00  1.63445E-01 -1.07533E+00 -1.22616E+00
  -9.68670E-01 -8.43386E-01 -7.28199E-01 -5.27985E-01 -4.62508E-01 -4.23051E-01 -3.96540E-01 -3.57393E-01 -3.52424E-01 -3.32411E-01
  -2.93683E-01 -2.80360E-01 -2.70999E-01 -2.63019E-01 -2.54185E-01 -2.43682E-01 -2.32193E-01 -2.17891E-01 -2.08037E-01 -1.95917E-01
  -1.84910E-01 -1.71676E-01 -1.60415E-01 -1.49560E-01 -1.36438E-01 -1.25977E-01 -1.16642E-01 -1.05473E-01 -9.05607E-02 -7.57134E-02
  -6.08399E-02 -2.84814E-02 -1.57921E-02 -4.12257E-02 -5.66885E-02 -4.78297E-02 -7.19929E-03  9.75729E-03 -3.69682E-02 -7.49216E-02
  -8.50659E-02 -8.52787E-02 -8.06256E-02 -7.14866E-02 -5.58514E-02 -4.17094E-02 -1.98362E-02 -7.97878E-03 -2.57051E-02 -3.69416E-02
  -3.32928E-02 -2.13596E-03  3.54968E-02  6.10918E-02  1.91232E-01  3.20721E-01  3.37187E-01  2.70876E-01  1.95686E-01  4.08346E-01
   5.79828E-01  3.88347E-01  1.83210E-01  7.98041E-02 -6.09807E-04 -6.12613E-02 -8.08347E-02 -6.78837E-02 -7.30902E-02 -7.92687E-02
  -8.97131E-02 -9.64496E-02 -1.02741E-01 -1.05269E-01 -1.07867E-01 -1.16224E-01 -1.12292E-01 -1.17817E-01 -1.12652E-01 -1.15930E-01
  -1.25189E-01 -1.11380E-01 -1.51818E-01 -1.53938E-01 -1.60144E-01 -1.92832E-01 -2.13506E-02  5.59836E-02 -2.55166E-02  1.20216E-01
   1.78981E-01  2.06898E-01  1.71605E-01  8.29275E-02  2.00298E-01  1.73293E-01  1.54664E-01  1.38780E-01  1.36452E-01  1.54473E-01
   1.01887E-01  8.93534E-02  3.97855E-02  6.03474E-03 -3.32980E-02 -7.15587E-02 -1.07156E-01 -1.59724E-01 -2.19714E-01 -2.79569E-01
  -3.90740E-01 -4.21312E-01 -3.75828E-01 -3.39078E-01 -9.19172E-02  1.43484E-01  3.06482E-01  4.74568E-01  4.59652E-01  3.75401E-01
   2.82136E-01  1.93721E-01  1.63569E-01  1.21484E-01  1.49185E-01  2.13558E-01  2.30982E-01  2.69737E-01  2.72939E-01  2.64042E-01
   2.47649E-01  2.37227E-01  2.25542E-01  2.14215E-01  2.09755E-01  1.98088E-01  1.83479E-01  1.67391E-01  1.29619E-01  9.30853E-02
   7.11754E-02  2.90467E-02  3.15750E-02  2.81059E-02  1.65710E-02  6.75741E-03 -3.83490E-02 -8.96390E-02 -1.64069E-01 -1.96074E-01
  -2.61663E-01 -2.81477E-01 -2.78811E-01 -2.68811E-01 -1.84351E-01 -8.73986E-02  2.54123E-02  9.94167E-02  1.40476E-01  1.30958E-01
   7.56963E-02  2.22584E-02 -8.39304E-02 -1.39698E-01 -2.20849E-01 -2.77566E-01 -4.89383E-01 -4.05757E-01 -6.13775E-02 -2.18730E-01
  -2.86609E-01 -9.20498E-01 -2.77200E+00 -2.66764E+00 -1.11847E+00 -7.06173E-01 -3.01687E-01 -1.33268E-01  1.46431E-01 -6.01259E-03
  -1.37619E-02 -1.08376E-03  1.51602E-02  2.66351E-02  3.77989E-02  5.13964E-02  6.09602E-02  5.88874E-02  5.86566E-02  3.46548E-02
  -2.61328E-03 -2.18336E-02 -7.15334E-02 -8.88973E-02 -9.91170E-02 -9.86668E-02 -6.63064E-02 -5.10590E-02 -2.17536E-02 -9.24096E-03
   1.11816E-02  2.23225E-02  3.61956E-02  4.60655E-02  5.05067E-02  5.53794E-02  6.06829E-02  6.57766E-02  7.22435E-02  7.69654E-02
   7.97888E-02  8.33170E-02  8.73167E-02  9.21529E-02  9.70652E-02  9.85600E-02  1.00562E-01  1.00690E-01  1.04688E-01  1.09640E-01
   1.14437E-01  1.19686E-01  1.21326E-01  1.21667E-01  1.17369E-01  1.14510E-01  1.12811E-01  1.09907E-01  1.06006E-01  1.01456E-01
   9.44325E-02  8.71259E-02  8.10191E-02  7.16245E-02  6.20868E-02  5.57068E-02  5.11216E-02  4.37157E-02  3.50058E-02  3.06309E-02
   2.47852E-02  1.89502E-02  1.61427E-02  1.31795E-02  9.31830E-03  6.22628E-03  2.56320E-03 -1.21738E-03 -4.30179E-03 -6.31589E-03
  -7.44849E-03 -1.00994E-02 -1.10429E-02 -8.27900E-03 -6.37346E-03 -4.24641E-03  5.64394E-04  6.23112E-03  1.03032E-02  1.78440E-02
   2.35308E-02  2.30562E-02  2.39118E-02  2.72741E-02  3.61769E-02  4.52180E-02  5.43400E-02  6.16740E-02  6.86386E-02  7.82992E-02
   8.94779E-02  1.01977E-01  1.15091E-01  1.28932E-01  1.40479E-01  1.54509E-01  1.67761E-01  1.79339E-01  1.87653E-01  1.93428E-01
   1.94948E-01  1.94370E-01  1.95118E-01  1.91864E-01  1.89841E-01  1.85964E-01  1.77490E-01  1.66296E-01  1.52553E-01  1.40179E-01
   1.28613E-01  1.17639E-01  1.06329E-01  9.54792E-02  8.31030E-02  7.47053E-02  6.81355E-02  5.84041E-02  5.15354E-02  4.49052E-02
   4.07607E-02  3.53445E-02  3.09267E-02  2.71906E-02  2.61856E-02  2.85645E-02  3.14781E-02  3.42605E-02  3.82764E-02  4.33306E-02
   4.76722E-02  5.42541E-02  6.32111E-02  6.85701E-02  7.24160E-02  7.53745E-02  7.77643E-02  7.78098E-02  7.99348E-02  8.58297E-02
   8.78101E-02  8.75840E-02  8.64201E-02  8.34773E-02  8.17815E-02  7.88025E-02  7.21187E-02  6.81067E-02  6.54912E-02  6.22489E-02
   5.77181E-02  5.32325E-02  5.00735E-02  4.60813E-02  4.10462E-02  3.59785E-02  3.11223E-02  2.61472E-02  2.50301E-02  2.33749E-02
   1.84293E-02  1.39865E-02  1.03897E-02  5.11130E-03 -3.89306E-03 -1.35066E-02 -2.15212E-02 -2.99328E-02 -4.05119E-02 -5.35446E-02
  -7.10225E-02 -9.32574E-02 -1.13743E-01 -1.31209E-01 -1.50370E-01 -1.68560E-01 -1.84505E-01 -1.98226E-01 -2.10789E-01 -2.23328E-01
  -2.32264E-01 -2.32150E-01 -2.29857E-01 -2.30045E-01 -2.27294E-01 -2.18137E-01 -2.07105E-01 -1.99115E-01 -1.91698E-01 -1.83385E-01
  -1.77282E-01 -1.70141E-01 -1.58214E-01 -1.47862E-01 -1.37429E-01 -1.24353E-01 -1.11516E-01 -9.87661E-02 -8.91772E-02 -7.62508E-02
  -6.63136E-02 -5.74468E-02 -4.52471E-02 -3.58208E-02 -2.90854E-02 -2.28616E-02 -1.47360E-02 -5.03192E-03  2.32881E-04  9.16611E-04
   7.11455E-03  1.26893E-02  1.55710E-02  1.79425E-02  2.05128E-02  2.14873E-02  2.31478E-02  2.64787E-02  2.62422E-02  2.43837E-02
   2.72362E-02  3.09787E-02  3.17093E-02  3.49411E-02  3.91019E-02  3.94799E-02  3.80412E-02  3.91946E-02  3.94807E-02  3.76858E-02
   3.87450E-02  3.84842E-02  3.70371E-02  3.80934E-02  3.74228E-02  3.63887E-02  3.85159E-02  3.97655E-02  4.14516E-02  4.12945E-02
   3.48347E-02  3.01825E-02  3.34731E-02  3.63320E-02  3.52746E-02  3.43854E-02  3.58827E-02  3.56006E-02  3.10560E-02  2.95455E-02
   3.04646E-02  3.39055E-02  3.61367E-02  3.56593E-02  3.69948E-02  3.80384E-02  4.01344E-02  4.09203E-02  4.14569E-02  4.29376E-02
   4.48313E-02  4.53424E-02  4.15590E-02  3.93915E-02  4.17041E-02  4.24230E-02  4.40749E-02  4.61252E-02  4.77822E-02  4.90211E-02
   4.67549E-02  4.77590E-02  5.57582E-02  5.80741E-02  5.99396E-02  5.93910E-02  5.44221E-02  5.35217E-02  5.48012E-02  5.78534E-02
   5.92741E-02  5.80531E-02  5.75840E-02  5.81743E-02  5.90777E-02  6.04102E-02  6.16252E-02  5.92824E-02  6.16384E-02  6.67006E-02
   6.77582E-02  6.70560E-02  6.87291E-02  7.10403E-02  7.19126E-02  7.41693E-02  7.56495E-02  8.16134E-02  8.94866E-02  9.32161E-02
   9.62170E-02  9.83500E-02  1.01426E-01  1.03782E-01
 NY background values follow
     3.259E-03    3.531E-03    3.804E-03    4.076E-03    4.349E-03    4.621E-03    4.893E-03    5.166E-03    5.438E-03    5.710E-03
     5.983E-03    6.255E-03    6.527E-03    6.799E-03    7.071E-03    7.343E-03    7.615E-03    7.886E-03    8.158E-03    8.429E-03
     8.701E-03    8.972E-03    9.243E-03    9.514E-03    9.785E-03    1.006E-02    1.033E-02    1.060E-02    1.087E-02    1.114E-02
     1.140E-02    1.167E-02    1.194E-02    1.221E-02    1.248E-02    1.275E-02    1.302E-02    1.328E-02    1.355E-02    1.382E-02
     1.408E-02    1.435E-02    1.462E-02    1.488E-02    1.515E-02    1.541E-02    1.568E-02    1.594E-02    1.621E-02    1.647E-02
     1.673E-02    1.700E-02    1.726E-02    1.752E-02    1.778E-02    1.804E-02    1.830E-02    1.856E-02    1.882E-02    1.908E-02
     1.934E-02    1.960E-02    1.986E-02    2.011E-02    2.037E-02    2.063E-02    2.088E-02    2.114E-02    2.139E-02    2.165E-02
