 
 $NMID
 ID=''
 FMTDAT='(2E13.5)'
 TRAMP=   1.00000E+0
 VOLUME=   1.00000E+0
 $END
  -2.23521E+4   6.23664E+3
  -5.98129E+4  -5.19209E+2
  -5.88965E+4   1.04147E+4
  -5.40482E+4   1.00481E+4
  -5.63105E+4   8.94583E+3
  -5.59068E+4   1.17762E+4
  -5.37023E+4   1.11088E+4
  -5.44720E+4   1.03284E+4
  -5.41349E+4   1.20822E+4
  -5.25945E+4   1.17932E+4
  -5.29768E+4   1.12019E+4
  -5.25395E+4   1.25343E+4
  -5.14404E+4   1.24319E+4
  -5.17449E+4   1.19232E+4
  -5.13167E+4   1.26942E+4
  -5.03354E+4   1.26589E+4
  -5.03840E+4   1.24270E+4
  -4.99489E+4   1.30803E+4
  -4.91671E+4   1.32047E+4
  -4.90909E+4   1.30130E+4
  -4.86466E+4   1.34536E+4
  -4.78645E+4   1.36865E+4
  -4.78151E+4   1.36902E+4
  -4.73329E+4   1.40282E+4
  -4.65179E+4   1.41821E+4
  -4.63208E+4   1.42857E+4
  -4.60200E+4   1.45899E+4
  -4.54031E+4   1.45201E+4
  -4.50786E+4   1.45011E+4
  -4.46715E+4   1.47569E+4
  -4.40612E+4   1.49227E+4
  -4.38345E+4   1.49158E+4
  -4.35774E+4   1.51166E+4
  -4.29409E+4   1.51787E+4
  -4.25275E+4   1.51949E+4
  -4.21455E+4   1.54316E+4
  -4.15481E+4   1.55681E+4
  -4.11221E+4   1.56381E+4
  -4.07398E+4   1.59138E+4
  -4.02759E+4   1.60096E+4
  -3.98851E+4   1.60944E+4
  -3.96022E+4   1.61263E+4
  -3.90649E+4   1.60405E+4
  -3.85090E+4   1.61084E+4
  -3.82155E+4   1.62505E+4
  -3.77904E+4   1.62959E+4
  -3.74482E+4   1.63285E+4
  -3.70206E+4   1.64845E+4
  -3.66310E+4   1.64174E+4
  -3.62385E+4   1.65498E+4
  -3.58659E+4   1.65609E+4
  -3.54396E+4   1.65967E+4
  -3.49346E+4   1.66402E+4
  -3.46055E+4   1.67919E+4
  -3.42894E+4   1.68093E+4
  -3.39138E+4   1.67154E+4
  -3.35780E+4   1.67761E+4
  -3.32247E+4   1.67306E+4
  -3.28134E+4   1.66983E+4
  -3.24422E+4   1.66874E+4
  -3.20974E+4   1.67180E+4
  -3.16483E+4   1.67692E+4
  -3.13071E+4   1.67135E+4
  -3.10549E+4   1.67122E+4
  -3.06314E+4   1.66216E+4
  -3.03037E+4   1.66791E+4
  -3.00008E+4   1.67333E+4
  -2.96862E+4   1.66084E+4
  -2.93788E+4   1.65788E+4
  -2.90765E+4   1.65184E+4
  -2.87888E+4   1.64592E+4
  -2.83962E+4   1.63949E+4
  -2.81179E+4   1.63467E+4
  -2.77902E+4   1.62231E+4
  -2.74534E+4   1.61837E+4
  -2.70646E+4   1.62257E+4
  -2.67932E+4   1.61106E+4
  -2.65349E+4   1.61588E+4
  -2.61798E+4   1.60667E+4
  -2.59130E+4   1.59644E+4
  -2.55724E+4   1.59401E+4
  -2.52579E+4   1.57960E+4
  -2.50088E+4   1.58032E+4
  -2.47104E+4   1.56752E+4
  -2.44017E+4   1.56200E+4
  -2.41610E+4   1.55098E+4
  -2.38361E+4   1.53692E+4
  -2.35137E+4   1.53643E+4
  -2.32205E+4   1.53055E+4
  -2.29406E+4   1.51980E+4
  -2.26922E+4   1.51437E+4
  -2.24007E+4   1.50625E+4
  -2.21576E+4   1.50156E+4
  -2.19195E+4   1.49781E+4
  -2.16087E+4   1.49166E+4
  -2.13002E+4   1.48201E+4
  -2.09134E+4   1.48114E+4
  -2.06921E+4   1.47183E+4
  -2.05055E+4   1.47083E+4
  -2.02863E+4   1.45499E+4
  -2.00326E+4   1.45030E+4
  -1.96664E+4   1.44222E+4
  -1.94558E+4   1.44073E+4
  -1.93006E+4   1.43131E+4
  -1.90942E+4   1.43101E+4
  -1.87770E+4   1.42167E+4
  -1.85644E+4   1.41803E+4
  -1.83660E+4   1.41090E+4
  -1.81953E+4   1.40607E+4
  -1.78452E+4   1.39166E+4
  -1.76321E+4   1.38416E+4
  -1.74904E+4   1.38567E+4
  -1.73095E+4   1.38287E+4
  -1.70191E+4   1.37013E+4
  -1.68506E+4   1.36184E+4
  -1.67208E+4   1.35364E+4
  -1.64681E+4   1.34031E+4
  -1.63231E+4   1.33459E+4
  -1.60418E+4   1.32731E+4
  -1.58910E+4   1.31277E+4
  -1.58194E+4   1.31881E+4
  -1.56438E+4   1.30779E+4
  -1.54787E+4   1.29425E+4
  -1.52601E+4   1.28603E+4
  -1.50813E+4   1.28580E+4
  -1.49544E+4   1.27831E+4
  -1.47990E+4   1.27051E+4
  -1.46612E+4   1.25764E+4
  -1.44804E+4   1.25685E+4
  -1.44119E+4   1.25140E+4
  -1.42070E+4   1.24702E+4
  -1.41791E+4   1.22649E+4
  -1.39586E+4   1.22260E+4
  -1.38043E+4   1.21924E+4
  -1.36811E+4   1.21088E+4
  -1.35309E+4   1.20855E+4
  -1.34127E+4   1.19816E+4
  -1.32979E+4   1.19234E+4
  -1.30967E+4   1.19109E+4
  -1.29962E+4   1.18214E+4
  -1.28742E+4   1.17951E+4
  -1.27118E+4   1.17085E+4
  -1.26510E+4   1.16270E+4
  -1.24817E+4   1.16368E+4
  -1.23493E+4   1.16160E+4
  -1.23289E+4   1.15569E+4
  -1.21662E+4   1.15310E+4
  -1.20382E+4   1.14981E+4
  -1.19009E+4   1.14022E+4
  -1.18156E+4   1.14162E+4
  -1.16876E+4   1.13649E+4
  -1.15887E+4   1.12812E+4
  -1.14810E+4   1.12741E+4
  -1.13100E+4   1.12178E+4
  -1.12160E+4   1.11639E+4
  -1.11408E+4   1.11565E+4
  -1.09813E+4   1.10727E+4
  -1.09480E+4   1.10235E+4
  -1.08124E+4   1.09838E+4
  -1.07559E+4   1.10043E+4
  -1.05941E+4   1.09729E+4
  -1.05530E+4   1.09860E+4
  -1.04482E+4   1.08821E+4
  -1.02803E+4   1.08806E+4
  -1.02699E+4   1.08378E+4
  -1.01353E+4   1.07776E+4
  -1.00297E+4   1.07505E+4
  -9.91096E+3   1.07128E+4
  -9.77351E+3   1.06659E+4
  -9.68733E+3   1.06036E+4
  -9.66229E+3   1.05811E+4
  -9.57295E+3   1.04908E+4
  -9.49095E+3   1.04724E+4
  -9.33736E+3   1.04495E+4
  -9.28408E+3   1.04053E+4
  -9.13912E+3   1.03272E+4
  -9.05389E+3   1.03024E+4
  -8.93049E+3   1.03177E+4
  -8.89793E+3   1.02779E+4
  -8.76084E+3   1.01475E+4
  -8.73263E+3   1.01556E+4
  -8.55714E+3   1.01329E+4
  -8.43969E+3   1.00617E+4
  -8.44843E+3   9.98692E+3
  -8.28351E+3   9.98020E+3
  -8.21374E+3   9.97916E+3
  -8.15547E+3   9.87716E+3
  -8.03071E+3   9.84701E+3
  -7.94869E+3   9.80198E+3
  -7.82232E+3   9.70656E+3
  -7.72663E+3   9.71078E+3
  -7.65784E+3   9.67885E+3
  -7.49390E+3   9.59669E+3
  -7.49935E+3   9.55384E+3
  -7.40170E+3   9.51711E+3
  -7.23992E+3   9.47727E+3
  -7.16194E+3   9.37595E+3
  -7.11905E+3   9.41212E+3
  -6.92087E+3   9.32854E+3
  -6.87501E+3   9.32253E+3
  -6.72845E+3   9.31961E+3
  -6.70201E+3   9.20894E+3
  -6.59338E+3   9.16092E+3
  -6.52247E+3   9.08876E+3
  -6.37801E+3   9.06604E+3
  -6.32832E+3   9.00663E+3
  -6.27663E+3   8.97627E+3
  -6.21977E+3   8.94899E+3
  -6.07267E+3   8.89555E+3
  -5.95350E+3   8.89968E+3
  -5.80574E+3   8.82462E+3
  -5.84233E+3   8.69847E+3
  -5.67805E+3   8.68722E+3
  -5.55160E+3   8.62050E+3
  -5.44850E+3   8.62292E+3
  -5.48015E+3   8.54801E+3
  -5.35421E+3   8.52457E+3
  -5.30608E+3   8.44203E+3
  -5.21496E+3   8.40153E+3
  -5.12876E+3   8.31542E+3
  -4.99286E+3   8.31091E+3
  -4.94177E+3   8.25026E+3
  -4.90752E+3   8.22208E+3
  -4.82484E+3   8.12178E+3
  -4.73972E+3   8.14355E+3
  -4.67255E+3   8.00837E+3
  -4.62464E+3   7.93121E+3
  -4.50775E+3   7.92172E+3
  -4.44656E+3   7.85935E+3
  -4.47258E+3   7.72528E+3
  -4.38942E+3   7.67659E+3
  -4.13892E+3   7.61113E+3
  -4.10087E+3   7.58643E+3
  -4.11032E+3   7.48013E+3
  -4.03747E+3   7.42460E+3
  -3.92092E+3   7.43680E+3
  -3.88054E+3   7.37671E+3
  -3.86464E+3   7.29262E+3
  -3.75022E+3   7.19114E+3
  -3.62531E+3   7.11224E+3
  -3.59339E+3   7.04514E+3
  -3.51149E+3   7.04280E+3
  -3.47997E+3   6.94957E+3
  -3.42357E+3   6.86957E+3
  -3.35420E+3   6.76623E+3
  -3.27496E+3   6.70596E+3
  -3.25434E+3   6.68903E+3
  -3.14614E+3   6.65844E+3
  -3.10927E+3   6.57220E+3
  -3.03194E+3   6.51087E+3
  -3.01443E+3   6.45171E+3
  -2.97326E+3   6.39159E+3
  -2.90860E+3   6.33935E+3
  -2.89980E+3   6.19983E+3
  -2.79752E+3   6.17176E+3
  -2.78369E+3   6.12348E+3
  -2.65391E+3   6.07939E+3
  -2.63092E+3   5.98399E+3
  -2.51301E+3   5.94344E+3
  -2.55914E+3   5.85769E+3
  -2.47909E+3   5.81716E+3
  -2.46200E+3   5.79279E+3
  -2.36283E+3   5.67079E+3
  -2.29326E+3   5.69217E+3
  -2.32539E+3   5.60687E+3
  -2.26233E+3   5.47249E+3
  -2.22770E+3   5.45446E+3
  -2.23149E+3   5.38000E+3
  -2.14953E+3   5.29758E+3
  -2.13887E+3   5.24709E+3
  -2.12121E+3   5.18532E+3
  -2.00941E+3   5.12335E+3
  -1.97546E+3   5.06071E+3
  -1.99290E+3   5.00859E+3
  -1.94106E+3   4.97081E+3
  -1.91988E+3   4.89274E+3
  -1.87534E+3   4.88790E+3
  -1.88117E+3   4.76593E+3
  -1.78109E+3   4.73244E+3
  -1.83968E+3   4.59778E+3
  -1.75812E+3   4.64219E+3
  -1.70969E+3   4.56110E+3
  -1.77383E+3   4.49524E+3
  -1.66099E+3   4.43778E+3
  -1.70457E+3   4.37570E+3
  -1.67694E+3   4.35073E+3
  -1.67757E+3   4.25101E+3
  -1.60000E+3   4.20677E+3
  -1.55807E+3   4.16414E+3
  -1.54918E+3   4.09725E+3
  -1.51808E+3   4.02105E+3
  -1.51344E+3   4.04556E+3
  -1.51097E+3   3.96403E+3
  -1.47852E+3   3.82438E+3
  -1.44248E+3   3.82019E+3
  -1.50204E+3   3.77699E+3
  -1.40632E+3   3.73612E+3
  -1.43797E+3   3.65155E+3
  -1.39653E+3   3.66502E+3
  -1.40790E+3   3.64615E+3
  -1.39479E+3   3.58114E+3
  -1.35781E+3   3.46351E+3
  -1.32308E+3   3.41513E+3
  -1.34878E+3   3.40568E+3
  -1.32421E+3   3.37195E+3
  -1.23704E+3   3.30751E+3
  -1.28340E+3   3.23400E+3
  -1.26447E+3   3.25939E+3
  -1.19481E+3   3.26832E+3
  -1.23922E+3   3.16361E+3
  -1.24495E+3   3.07290E+3
  -1.18967E+3   3.06338E+3
  -1.15990E+3   3.02898E+3
  -1.16842E+3   3.00942E+3
  -1.19678E+3   2.93265E+3
  -1.13642E+3   2.85793E+3
  -1.11378E+3   2.89808E+3
  -1.09554E+3   2.85879E+3
  -1.09044E+3   2.82609E+3
  -1.08349E+3   2.75651E+3
  -1.15351E+3   2.69109E+3
  -1.07949E+3   2.71404E+3
  -1.06589E+3   2.69589E+3
  -1.04422E+3   2.65920E+3
  -1.00471E+3   2.62269E+3
  -1.07112E+3   2.55276E+3
  -1.02604E+3   2.56962E+3
  -1.04216E+3   2.48145E+3
  -1.03554E+3   2.42813E+3
  -1.02391E+3   2.35071E+3
  -9.41754E+2   2.43924E+3
  -9.98855E+2   2.42182E+3
  -9.72143E+2   2.34180E+3
  -9.82224E+2   2.33730E+3
  -9.20818E+2   2.26592E+3
  -9.92431E+2   2.25761E+3
  -9.09336E+2   2.18713E+3
  -9.35717E+2   2.22750E+3
  -9.33186E+2   2.18977E+3
  -9.04798E+2   2.11543E+3
  -9.61842E+2   2.14186E+3
  -9.48108E+2   2.11053E+3
  -8.92403E+2   2.09558E+3
  -8.68642E+2   2.06036E+3
  -9.63243E+2   2.01451E+3
  -8.50239E+2   1.96406E+3
  -9.27116E+2   1.97817E+3
  -8.29235E+2   2.00623E+3
  -8.45877E+2   1.88596E+3
  -8.32560E+2   1.95486E+3
  -7.93955E+2   1.89339E+3
  -7.75929E+2   1.88201E+3
  -8.64468E+2   1.84412E+3
  -8.41829E+2   1.85026E+3
  -8.76689E+2   1.81635E+3
  -7.64936E+2   1.82120E+3
  -7.12544E+2   1.74013E+3
  -7.41691E+2   1.73124E+3
  -7.96482E+2   1.72450E+3
  -7.48692E+2   1.69526E+3
  -6.80431E+2   1.60353E+3
  -7.23931E+2   1.66363E+3
  -7.59153E+2   1.61791E+3
  -6.89095E+2   1.62325E+3
  -7.42780E+2   1.60468E+3
  -7.26837E+2   1.56639E+3
  -6.82108E+2   1.58177E+3
