 
 $NMID
 ID=''
 FMTDAT='(2E13.5)'
 TRAMP=   1.00000E+0
 VOLUME=   1.00000E+0
 $END
  -2.25819E+4   5.09270E+3
  -5.98421E+4  -4.18021E+3
  -5.97170E+4   6.15682E+3
  -5.53280E+4   5.62153E+3
  -5.78892E+4   4.27772E+3
  -5.78489E+4   6.77270E+3
  -5.57592E+4   6.17110E+3
  -5.66877E+4   5.15316E+3
  -5.63784E+4   6.73703E+3
  -5.49119E+4   6.23666E+3
  -5.51478E+4   5.28839E+3
  -5.47893E+4   6.33764E+3
  -5.37377E+4   6.09226E+3
  -5.41945E+4   5.14181E+3
  -5.39807E+4   5.58552E+3
  -5.31251E+4   5.27010E+3
  -5.34760E+4   4.72754E+3
  -5.33180E+4   5.05086E+3
  -5.27402E+4   5.03525E+3
  -5.30014E+4   4.58989E+3
  -5.27022E+4   4.86454E+3
  -5.21644E+4   5.01516E+3
  -5.23768E+4   4.73574E+3
  -5.22224E+4   4.84665E+3
  -5.16626E+4   4.86462E+3
  -5.16512E+4   4.83628E+3
  -5.15536E+4   4.95503E+3
  -5.10155E+4   4.75152E+3
  -5.08574E+4   4.53661E+3
  -5.05797E+4   4.65331E+3
  -5.01422E+4   4.76011E+3
  -5.01324E+4   4.68958E+3
  -4.98707E+4   4.60922E+3
  -4.93185E+4   4.47638E+3
  -4.91246E+4   4.51083E+3
  -4.87932E+4   4.55437E+3
  -4.83987E+4   4.48723E+3
  -4.81359E+4   4.43210E+3
  -4.78762E+4   4.52016E+3
  -4.76368E+4   4.43113E+3
  -4.74067E+4   4.27128E+3
  -4.72760E+4   4.10621E+3
  -4.68728E+4   3.77080E+3
  -4.65397E+4   3.63914E+3
  -4.62841E+4   3.64586E+3
  -4.60364E+4   3.51956E+3
  -4.58195E+4   3.23131E+3
  -4.56071E+4   3.14229E+3
  -4.53182E+4   2.99463E+3
  -4.50733E+4   2.82710E+3
  -4.48680E+4   2.73321E+3
  -4.45143E+4   2.57950E+3
  -4.42114E+4   2.51408E+3
  -4.40625E+4   2.57252E+3
  -4.38702E+4   2.39483E+3
  -4.36342E+4   2.30609E+3
  -4.34699E+4   2.14213E+3
  -4.32252E+4   2.01855E+3
  -4.30090E+4   1.83145E+3
  -4.26601E+4   1.81857E+3
  -4.23227E+4   1.75038E+3
  -4.22008E+4   1.65881E+3
  -4.19584E+4   1.63041E+3
  -4.18041E+4   1.53006E+3
  -4.15428E+4   1.34740E+3
  -4.13138E+4   1.29874E+3
  -4.11491E+4   1.31134E+3
  -4.09728E+4   1.16268E+3
  -4.06721E+4   1.03623E+3
  -4.04817E+4   9.76944E+2
  -4.03496E+4   9.50431E+2
  -4.00595E+4   8.78611E+2
  -3.97729E+4   7.91930E+2
  -3.96525E+4   6.88723E+2
  -3.93891E+4   6.23380E+2
  -3.92127E+4   6.42215E+2
  -3.89529E+4   5.85990E+2
  -3.87823E+4   4.99335E+2
  -3.84900E+4   4.49539E+2
  -3.83163E+4   4.12234E+2
  -3.82171E+4   3.54008E+2
  -3.80043E+4   2.87553E+2
  -3.78294E+4   2.69851E+2
  -3.76324E+4   2.02925E+2
  -3.75296E+4   1.26630E+1
  -3.73659E+4  -3.97815E+1
  -3.71716E+4  -1.53966E+2
  -3.69729E+4  -2.44894E+2
  -3.68400E+4  -2.85878E+2
  -3.67755E+4  -3.74573E+2
  -3.65235E+4  -4.73050E+2
  -3.63937E+4  -5.24527E+2
  -3.62650E+4  -5.49041E+2
  -3.61368E+4  -5.79959E+2
  -3.59518E+4  -7.72805E+2
  -3.58222E+4  -7.38764E+2
  -3.56261E+4  -8.02502E+2
  -3.55372E+4  -8.20104E+2
  -3.55054E+4  -8.93412E+2
  -3.53090E+4  -1.03459E+3
  -3.51104E+4  -1.09958E+3
  -3.49544E+4  -1.08204E+3
  -3.48516E+4  -1.05052E+3
  -3.47404E+4  -1.23109E+3
  -3.45937E+4  -1.19557E+3
  -3.45161E+4  -1.31722E+3
  -3.43092E+4  -1.36452E+3
  -3.41897E+4  -1.39793E+3
  -3.40163E+4  -1.45070E+3
  -3.37960E+4  -1.48391E+3
  -3.36314E+4  -1.49696E+3
  -3.35314E+4  -1.47174E+3
  -3.34324E+4  -1.46097E+3
  -3.32323E+4  -1.54343E+3
  -3.31127E+4  -1.55839E+3
  -3.29611E+4  -1.63506E+3
  -3.28389E+4  -1.70307E+3
  -3.26387E+4  -1.70449E+3
  -3.25022E+4  -1.68610E+3
  -3.23134E+4  -1.64755E+3
  -3.21912E+4  -1.65858E+3
  -3.19930E+4  -1.65572E+3
  -3.19180E+4  -1.66251E+3
  -3.16635E+4  -1.66211E+3
  -3.15122E+4  -1.66201E+3
  -3.14052E+4  -1.63583E+3
  -3.12374E+4  -1.64068E+3
  -3.10547E+4  -1.66518E+3
  -3.09114E+4  -1.58507E+3
  -3.07510E+4  -1.59404E+3
  -3.06152E+4  -1.57357E+3
  -3.04256E+4  -1.56083E+3
  -3.02476E+4  -1.57379E+3
  -3.01042E+4  -1.53950E+3
  -3.00014E+4  -1.48930E+3
  -2.98229E+4  -1.47211E+3
  -2.96649E+4  -1.41267E+3
  -2.94646E+4  -1.34836E+3
  -2.93345E+4  -1.40252E+3
  -2.91259E+4  -1.31171E+3
  -2.90053E+4  -1.35642E+3
  -2.88350E+4  -1.30425E+3
  -2.86537E+4  -1.14944E+3
  -2.85591E+4  -1.18391E+3
  -2.83761E+4  -1.14310E+3
  -2.81992E+4  -1.19411E+3
  -2.80274E+4  -1.16495E+3
  -2.78781E+4  -1.15200E+3
  -2.77482E+4  -1.09019E+3
  -2.75566E+4  -1.14844E+3
  -2.74085E+4  -1.06132E+3
  -2.72032E+4  -1.09248E+3
  -2.70328E+4  -1.07145E+3
  -2.68366E+4  -1.02629E+3
  -2.67289E+4  -9.48565E+2
  -2.65706E+4  -8.43567E+2
  -2.63287E+4  -9.05892E+2
  -2.62364E+4  -8.91578E+2
  -2.60058E+4  -8.74704E+2
  -2.57864E+4  -8.99199E+2
  -2.57104E+4  -8.30149E+2
  -2.54804E+4  -7.94993E+2
  -2.52872E+4  -8.20358E+2
  -2.51189E+4  -7.43517E+2
  -2.50212E+4  -7.67205E+2
  -2.48129E+4  -7.51569E+2
  -2.46526E+4  -7.05750E+2
  -2.44460E+4  -7.31665E+2
  -2.42892E+4  -7.21802E+2
  -2.40657E+4  -6.30886E+2
  -2.40017E+4  -6.63069E+2
  -2.37749E+4  -6.54917E+2
  -2.35442E+4  -6.17351E+2
  -2.34325E+4  -6.19771E+2
  -2.32327E+4  -6.05929E+2
  -2.30335E+4  -6.12276E+2
  -2.28394E+4  -5.56344E+2
  -2.27066E+4  -4.99780E+2
  -2.25754E+4  -5.47637E+2
  -2.25364E+4  -5.09288E+2
  -2.23118E+4  -5.39322E+2
  -2.20026E+4  -5.20451E+2
  -2.18616E+4  -5.39770E+2
  -2.17031E+4  -5.53889E+2
  -2.14709E+4  -5.10678E+2
  -2.14225E+4  -5.47586E+2
  -2.12834E+4  -5.26245E+2
  -2.11159E+4  -5.14291E+2
  -2.09795E+4  -6.07453E+2
  -2.07103E+4  -5.56798E+2
  -2.05930E+4  -6.04198E+2
  -2.04318E+4  -5.12373E+2
  -2.02610E+4  -5.46948E+2
  -2.01268E+4  -5.36392E+2
  -1.99480E+4  -5.65772E+2
  -1.97307E+4  -5.70302E+2
  -1.96923E+4  -4.83528E+2
  -1.94181E+4  -6.25478E+2
  -1.92853E+4  -6.11387E+2
  -1.91117E+4  -6.68674E+2
  -1.90813E+4  -5.84249E+2
  -1.89022E+4  -6.55357E+2
  -1.87928E+4  -6.85705E+2
  -1.85326E+4  -7.05706E+2
  -1.83889E+4  -6.46232E+2
  -1.82769E+4  -6.80665E+2
  -1.81427E+4  -6.81535E+2
  -1.80191E+4  -6.82346E+2
  -1.78649E+4  -7.41082E+2
  -1.77275E+4  -7.08474E+2
  -1.75643E+4  -7.97398E+2
  -1.74183E+4  -8.15607E+2
  -1.72551E+4  -7.39934E+2
  -1.71142E+4  -7.36791E+2
  -1.70649E+4  -7.87735E+2
  -1.68536E+4  -7.73909E+2
  -1.67720E+4  -8.71429E+2
  -1.66617E+4  -8.70716E+2
  -1.64372E+4  -8.36243E+2
  -1.63795E+4  -8.68426E+2
  -1.62321E+4  -8.70547E+2
  -1.61275E+4  -8.57722E+2
  -1.60548E+4  -8.80208E+2
  -1.58566E+4  -9.85557E+2
  -1.57877E+4  -9.11001E+2
  -1.55700E+4  -1.00666E+3
  -1.54976E+4  -9.71183E+2
  -1.53855E+4  -9.88915E+2
  -1.52752E+4  -1.06094E+3
  -1.52350E+4  -1.04735E+3
  -1.50019E+4  -1.08509E+3
  -1.49473E+4  -1.08367E+3
  -1.48291E+4  -1.11150E+3
  -1.46768E+4  -1.15443E+3
  -1.45338E+4  -1.16877E+3
  -1.44699E+4  -1.15632E+3
  -1.43857E+4  -1.16906E+3
  -1.42541E+4  -1.27665E+3
  -1.42188E+4  -1.24638E+3
  -1.40687E+4  -1.24580E+3
  -1.39861E+4  -1.27262E+3
  -1.38694E+4  -1.32648E+3
  -1.38246E+4  -1.21271E+3
  -1.36447E+4  -1.30385E+3
  -1.35679E+4  -1.28940E+3
  -1.34853E+4  -1.39471E+3
  -1.34552E+4  -1.37163E+3
  -1.32853E+4  -1.45615E+3
  -1.32327E+4  -1.45097E+3
  -1.31499E+4  -1.46481E+3
  -1.30775E+4  -1.46422E+3
  -1.29524E+4  -1.51383E+3
  -1.28759E+4  -1.51798E+3
  -1.27291E+4  -1.57916E+3
  -1.26585E+4  -1.55735E+3
  -1.24987E+4  -1.59078E+3
  -1.24516E+4  -1.51004E+3
  -1.23710E+4  -1.55985E+3
  -1.24198E+4  -1.61747E+3
  -1.23326E+4  -1.64557E+3
  -1.21501E+4  -1.60062E+3
  -1.20621E+4  -1.60799E+3
  -1.20108E+4  -1.62451E+3
  -1.19078E+4  -1.69492E+3
  -1.18665E+4  -1.62510E+3
  -1.17950E+4  -1.68140E+3
  -1.16833E+4  -1.68236E+3
  -1.16493E+4  -1.69258E+3
  -1.15646E+4  -1.72085E+3
  -1.14460E+4  -1.75660E+3
  -1.14059E+4  -1.70998E+3
  -1.13403E+4  -1.76212E+3
  -1.12498E+4  -1.72062E+3
  -1.12415E+4  -1.76425E+3
  -1.11358E+4  -1.78690E+3
  -1.09867E+4  -1.77793E+3
  -1.08963E+4  -1.82277E+3
  -1.09833E+4  -1.77469E+3
  -1.08512E+4  -1.83172E+3
  -1.08318E+4  -1.80581E+3
  -1.07244E+4  -1.88308E+3
  -1.06459E+4  -1.84585E+3
  -1.05789E+4  -1.83741E+3
  -1.05228E+4  -1.87633E+3
  -1.04954E+4  -1.89992E+3
  -1.03381E+4  -1.94964E+3
  -1.03234E+4  -1.97386E+3
  -1.02574E+4  -1.96613E+3
  -1.01810E+4  -2.04209E+3
  -1.00985E+4  -1.92814E+3
  -1.00789E+4  -1.94189E+3
  -1.00422E+4  -1.95836E+3
  -9.93787E+3  -1.94662E+3
  -9.92805E+3  -1.94571E+3
  -9.89019E+3  -2.03403E+3
  -9.74586E+3  -2.01581E+3
  -9.69666E+3  -2.07650E+3
  -9.62589E+3  -1.97635E+3
  -9.59903E+3  -2.05960E+3
  -9.58178E+3  -2.00173E+3
  -9.50676E+3  -2.08751E+3
  -9.41984E+3  -2.02060E+3
  -9.38701E+3  -2.10442E+3
  -9.32751E+3  -2.13322E+3
  -9.30441E+3  -2.11443E+3
  -9.17749E+3  -2.06115E+3
  -9.15881E+3  -2.07273E+3
  -9.15093E+3  -2.08915E+3
  -9.14894E+3  -2.02997E+3
  -8.95148E+3  -2.16057E+3
  -8.96354E+3  -2.14482E+3
  -8.93413E+3  -2.11442E+3
  -8.83258E+3  -2.11631E+3
  -8.80676E+3  -2.04172E+3
  -8.72792E+3  -2.08092E+3
  -8.68570E+3  -2.05670E+3
  -8.66024E+3  -2.11753E+3
  -8.62784E+3  -2.09164E+3
  -8.57216E+3  -2.12995E+3
  -8.52010E+3  -2.12280E+3
  -8.44191E+3  -2.06949E+3
  -8.41689E+3  -2.14520E+3
  -8.29878E+3  -2.07762E+3
  -8.35459E+3  -2.06491E+3
  -8.26541E+3  -2.14997E+3
  -8.17607E+3  -2.10595E+3
  -8.19794E+3  -2.09144E+3
  -8.13999E+3  -2.08784E+3
  -8.11283E+3  -2.09024E+3
  -8.00750E+3  -2.05085E+3
  -8.03145E+3  -2.06210E+3
  -7.92601E+3  -2.12816E+3
  -7.85735E+3  -2.10290E+3
  -7.90370E+3  -2.03943E+3
  -7.80427E+3  -2.08337E+3
  -7.78933E+3  -2.10099E+3
  -7.66995E+3  -2.06150E+3
  -7.67689E+3  -2.02694E+3
  -7.58843E+3  -2.02816E+3
  -7.63247E+3  -2.04745E+3
  -7.48293E+3  -2.11666E+3
  -7.47054E+3  -2.06647E+3
  -7.41495E+3  -1.97799E+3
  -7.38467E+3  -2.02632E+3
  -7.37987E+3  -1.97611E+3
  -7.29796E+3  -1.95950E+3
  -7.30943E+3  -2.04100E+3
  -7.21083E+3  -1.96269E+3
  -7.23768E+3  -2.00075E+3
  -7.12298E+3  -1.99630E+3
  -7.08822E+3  -1.96799E+3
  -7.07612E+3  -1.97595E+3
  -6.97437E+3  -1.96503E+3
  -6.96278E+3  -1.95382E+3
  -6.93071E+3  -1.95752E+3
  -6.81632E+3  -1.92104E+3
  -6.87195E+3  -1.84989E+3
  -6.82395E+3  -1.89985E+3
  -6.81764E+3  -1.81447E+3
  -6.73641E+3  -1.92454E+3
  -6.70943E+3  -1.88474E+3
  -6.68478E+3  -1.89328E+3
  -6.63335E+3  -1.80352E+3
  -6.61875E+3  -1.85583E+3
  -6.48983E+3  -1.83634E+3
  -6.50857E+3  -1.82108E+3
  -6.54907E+3  -1.84930E+3
