 
 $NMID
 ID=''
 FMTDAT='(2E13.5)'
 TRAMP=   1.00000E+0
 VOLUME=   1.00000E+0
 $END
   2.62500E+2  -4.05333E+2
   1.16977E+3   1.28624E+3
  -1.11444E+3  -4.03435E+3
  -1.53655E+3  -3.55181E+2
  -2.12786E+1   2.35359E+3
   1.32611E+3  -1.60972E+3
   1.19269E+3   1.76716E+3
   1.03955E+3   4.79105E+2
  -1.31061E+3  -2.74079E+3
  -1.12597E+3  -1.22074E+3
  -9.43003E+2  -2.51382E+3
   1.95967E+3  -2.97998E+3
   2.93398E+3   1.28330E+3
  -2.17388E+3   1.79815E+3
  -2.92706E+3   6.89622E+2
  -1.61384E+3  -1.15554E+3
   1.72348E+3  -1.01520E+2
   1.27884E+3  -6.83305E+1
   1.79736E+3   1.90564E+3
  -9.61415E+2   1.46172E+3
   2.14151E+2  -2.22344E+3
   4.65033E+3   1.10013E+2
   9.54221E+2   3.76295E+3
  -1.69303E+3   4.40657E+2
   8.38272E+2  -1.06972E+3
   2.91148E+3  -1.27511E+3
   3.51028E+3   1.17942E+3
  -8.73484E+2   7.51116E+2
  -4.97742E+3  -2.61623E+3
  -2.31416E+3  -5.05852E+3
   5.56232E+3  -1.32462E+3
   1.41464E+3   5.31413E+3
  -4.21368E+3   1.70796E+3
  -4.05108E+3  -1.96380E+3
   1.02344E+3   3.82950E+2
  -4.37681E+3   2.93826E+3
  -2.35317E+3  -3.93745E+3
   1.88999E+3  -1.51410E+3
  -6.61358E+2   3.21913E+3
  -1.11486E+2  -1.01254E+3
  -1.13082E+3   2.37946E+3
  -2.45248E+3   4.04612E+3
  -5.18846E+3  -2.14680E+3
  -7.65706E+2  -5.72626E+3
   2.71884E+3  -2.64852E+3
   1.11793E+3   3.82493E+2
   3.12643E+3  -3.54052E+3
   3.98574E+3  -3.09276E+2
   1.09532E+3   9.84374E+2
  -1.73844E+3  -1.13795E+2
  -1.93704E+3  -2.58957E+3
  -2.40722E+3  -9.58969E+2
   1.39558E+3  -3.95816E+3
   4.53525E+3   1.20888E+3
   9.40685E+2   6.50803E+2
  -5.09696E+2   1.09369E+3
  -1.94106E+3   3.52856E+2
  -3.82600E+3   9.56728E+2
  -6.20345E+3  -1.50669E+3
  -2.04635E+3  -3.66850E+3
   1.88037E+3  -3.62722E+3
   1.93410E+3  -1.36797E+3
   8.18692E+2   2.52484E+3
  -4.81570E+1   1.97988E+3
  -6.49593E+2   8.46579E+1
   2.11829E+3   1.62710E+3
   3.56209E+3   4.18301E+3
  -2.51927E+3   3.33178E+3
  -9.59295E+2   1.11863E+3
   4.85098E+1  -9.68287E+2
   7.59362E+2   2.51028E+3
  -1.81793E+3  -6.50131E+2
  -3.84147E+2   7.40713E+2
   5.25104E+2   5.24233E+2
   1.40209E+3   6.07235E+2
   2.80877E+2   2.28279E+3
   2.79527E+2   3.04908E+3
   6.99435E+2   8.98770E+2
   2.56869E+3   1.04433E+3
   1.23290E+3   1.06259E+3
  -1.65966E+3  -1.07598E+3
  -6.75929E+2   1.74227E+2
   9.26861E+2  -6.05571E+2
  -1.32095E+3   1.95200E+3
  -2.37884E+3   1.87133E+3
  -2.65175E+3   4.61123E+2
  -1.87320E+3  -3.94896E+3
   1.61537E+2  -2.82062E+3
   3.89397E+3  -5.16909E+2
   8.75732E+2  -1.19508E+3
  -1.89652E+2   1.27586E+2
   1.20453E+3  -1.58145E+3
   3.10898E+3   2.10529E+3
  -8.73005E+2   2.63569E+3
  -1.21908E+3   3.86791E+2
   1.79634E+3  -2.45591E+3
   3.14429E+3  -1.38780E+3
   3.13243E+3   7.96664E+2
   1.18007E+3   3.47372E+3
  -1.58817E+3   5.60615E+2
   1.06403E+3  -4.88433E+3
   3.79027E+3  -3.95592E+2
   2.87997E+3   1.86346E+3
   1.29895E+0   2.52614E+3
  -1.64399E+3  -5.99102E+2
  -1.05219E+3   1.73090E+3
   2.18453E+2   1.47824E+3
  -2.42201E+3   1.61294E+3
  -2.13493E+3   5.68882E+2
  -2.24076E+2  -3.89572E+3
   1.92432E+2  -8.38118E+2
   1.77755E+3  -2.08714E+2
   1.30510E+3   1.31147E+3
   8.25256E+2   2.84006E+3
  -9.91003E+2   3.33397E+3
  -2.68621E+3  -5.31645E+2
  -1.66125E+3   7.38522E+2
  -1.45722E+3   1.47674E+3
  -7.23431E+2  -2.02732E+3
   1.55154E+3   2.71102E+2
   2.31815E+3   1.92235E+3
  -1.52748E+3   1.46444E+3
  -2.64458E+3  -1.74692E+3
   1.81972E+3  -1.08301E+3
   1.98287E+3   1.07644E+3
   4.47493E+2   7.79752E+2
   8.88492E+1  -3.94988E+3
   1.49479E+3  -1.42015E+3
   2.50831E+3  -5.50748E+2
  -1.04893E+3   1.14885E+3
   3.67349E+1  -5.46428E+2
   1.16766E+2  -9.71899E+2
   2.20993E+3   1.12090E+1
   1.77882E+3   1.56062E+3
  -1.70426E+2   2.58538E+2
  -4.08481E+3   6.78839E+2
  -1.44509E+3  -1.48042E+3
   1.16074E+3  -2.27879E+3
   1.72930E+3   1.37504E+2
   7.13482E+2  -5.46237E+2
   7.34903E+2  -1.51877E+2
   9.44724E+2   1.43670E+2
   1.64128E+3   2.77304E+3
  -7.99543E+2   1.68652E+3
  -1.03757E+3  -1.00616E+3
  -4.37616E+2  -1.01710E+3
   1.79198E+3   2.73212E+2
   9.00952E+2   8.61041E+2
  -7.73516E+2  -4.24433E+2
  -2.08845E+3  -1.61329E+2
   1.45539E+3   2.45479E+2
  -3.41308E+1  -4.85625E+2
  -3.84104E+2  -1.90113E+3
   1.07034E+3  -3.28616E+3
   2.95305E+3  -7.15018E+1
  -4.56238E+2  -2.92316E+2
  -2.44956E+3  -2.53961E+1
   1.46922E+1   1.26277E+3
   1.74316E+3   4.35281E+2
  -2.33591E+3  -3.37691E+2
  -2.28549E+3   1.66956E+3
  -8.05737E+2  -1.47095E+3
  -1.31246E+3  -3.62456E+3
   5.56179E+2   2.92895E+2
   3.41163E+2   1.77926E+3
   1.56966E+3  -6.31570E+2
   5.70007E+2  -1.83175E+3
   2.24855E+3  -2.89466E+3
   1.46527E+2   1.29961E+3
   6.05757E+1   1.44947E+3
  -5.33799E+2   2.28273E+2
  -3.55993E+2  -1.59351E+2
   1.86238E+2  -9.53098E+2
   1.82191E+2   8.80055E+2
  -1.23992E+2  -7.99713E+2
  -1.19551E+3  -2.40200E+3
   2.31405E+3  -1.63152E+3
   2.30444E+3   1.00094E+3
  -1.63651E+3   1.40055E+3
  -1.53616E+3  -9.39283E+1
  -4.76648E+3  -3.28953E+3
   5.01984E+2  -2.48435E+2
  -1.24058E+3   2.00715E+0
   9.20930E+2  -2.30121E+3
  -5.80694E+2  -2.44267E+3
  -5.21890E+0   1.51368E+2
   5.49469E+2  -1.99811E+2
  -3.51619E+3  -4.50361E+2
  -3.60629E+3  -2.63503E+3
  -5.92187E+2  -2.71855E+2
   1.59672E+3  -2.88090E+2
  -1.79371E+2  -8.18558E+2
  -3.35809E+3  -2.78248E+2
   3.48780E+1  -9.86604E+1
   1.89425E+3  -7.44898E+1
   9.39560E+2   1.91966E+3
  -1.00177E+2   1.15215E+3
  -6.92728E+2   2.55579E+2
   1.24266E+3  -1.93403E+3
   1.05727E+3   1.55552E+3
  -1.55935E+3  -1.31312E+3
  -2.30134E+3  -1.83875E+3
  -2.07367E+3  -2.10769E+3
  -1.97897E+2  -4.37330E+0
   1.19269E+3  -8.65590E+2
  -1.40983E+3   5.63118E+2
  -1.29521E+2  -6.59903E+2
   4.87713E+2   2.41309E+1
  -1.66140E+2   1.34491E+3
   4.48373E+2   1.02607E+3
   9.27611E+2  -1.29810E+3
   8.43867E+2   4.57493E+2
   1.06009E+3  -1.59721E+3
   1.35812E+3   7.68714E+2
   1.84347E+2   3.17993E+3
   2.86658E+2  -6.55756E+2
  -7.04068E+2  -5.16797E+2
   2.13561E+2   4.52391E+2
  -2.63640E+2   2.60810E+2
  -4.70071E+2  -2.89524E+2
  -7.01924E+2  -1.52535E+3
   7.77002E+2  -1.02208E+3
  -1.45959E+3   1.57975E+3
   2.51138E+2   9.46589E+2
  -2.70309E+2   1.06563E+3
   1.77052E+3  -1.20688E+3
   1.69783E+3   2.39687E+2
  -6.20688E+2   2.12743E+3
   4.50555E+1   1.27268E+3
   5.00439E+2   2.37696E+2
   3.32244E+1  -7.52125E+2
  -1.55662E+3   8.16174E+2
  -6.79900E+2   1.16768E+3
   1.01163E+3  -2.36682E+3
   1.18472E+2   1.13505E+3
   1.29869E+3   1.50934E+3
  -8.52981E+2   9.03043E+2
  -2.54345E+3  -5.64143E+2
  -1.60869E+3  -8.36732E+2
   8.49413E+1   1.08625E+3
   9.17180E+0   1.13019E+2
  -3.53514E+2  -1.24457E+3
   1.93202E+1   2.54462E+2
   1.08941E+3  -1.67489E+2
  -1.07765E+2  -5.28880E+2
  -4.57355E+2  -1.16251E+3
  -1.11755E+3  -9.34816E+2
   3.03827E+3  -2.34559E+1
   3.84953E+1   1.10720E+3
  -3.88490E+2   4.34645E+2
  -4.59653E+2   6.84154E+2
  -1.97175E+3   1.55642E+3
   6.82144E+2  -4.94717E+2
  -7.73411E+2   8.55684E+2
   1.37333E+3   2.77007E+2
   1.23330E+3   1.97964E+3
   1.10307E+3  -7.32417E+2
  -9.98464E+2  -4.09583E+2
  -1.74010E+3  -3.92909E+2
  -6.77405E+2   6.03242E+2
  -6.10218E+1  -2.20212E+2
   7.11417E+1   2.04051E+3
  -5.91094E+2  -2.67471E+2
  -2.92482E+2   1.81405E+2
  -2.01613E+3   3.63901E+1
  -1.89087E+3  -1.13480E+3
   3.78687E+2   9.52034E+2
  -1.78606E+3  -2.79100E+1
  -5.52213E+2   9.45945E+1
  -1.73708E+3  -3.71005E+2
  -9.22547E+1  -1.18663E+3
   1.52351E+3   1.64669E+3
  -1.10341E+3   5.06136E+2
   3.15557E+1   6.63391E+2
  -2.12035E+3  -7.94099E+2
   1.85700E+3   1.60551E+3
  -5.86262E+2   7.33667E+2
   4.85002E+2   1.14450E+2
  -1.14319E+3  -1.93564E+2
   1.09970E+3   1.81085E+3
   4.20331E+2   6.90425E+2
  -1.77021E+3   5.57090E+2
   1.30770E+3   9.15826E+1
  -1.58248E+2  -4.01124E+2
   8.18447E+2  -4.52555E+2
  -1.33967E+3  -7.02574E+2
   9.70996E+2  -1.16275E+3
  -1.79683E+3  -8.92980E+2
  -1.38505E+2   1.21497E+3
  -1.16520E+2  -4.84573E+1
   8.95125E+1   1.06259E+3
  -8.49743E+2  -1.34580E+3
  -1.55521E+3  -2.20793E+1
  -9.09718E+2   1.82710E+2
  -1.34052E+3   8.23371E+2
  -1.30680E+3   2.79016E+2
   7.72062E+2  -2.75676E+2
  -2.80396E+2  -1.53914E+3
   6.16867E+2   1.60366E+3
  -3.92339E+1  -9.90361E+2
   8.57861E+2  -5.57975E+2
   3.12621E+1  -4.45742E+2
   1.71533E+2   2.01581E+3
  -6.35653E+2   1.50768E+3
  -6.96124E+2   4.08966E+2
   1.85487E+2   1.07090E+3
   4.60040E+2   1.17426E+1
  -1.06124E+3   1.92925E+3
   4.90117E+2   3.04714E+2
   1.35260E-1  -9.48530E+2
  -1.59703E+2  -5.63344E+2
   9.80377E+2  -1.54286E+3
   5.57221E+2   4.14001E+2
  -1.37584E+3   3.28543E+2
   2.83953E+2  -1.06680E+3
   2.01445E+3   1.47316E+3
  -1.96678E+3   2.50217E+3
   4.87512E+2  -2.38390E+2
  -2.48883E+2  -1.61878E+3
   7.26074E+2  -1.20291E+3
   1.50869E+3  -6.54668E+2
   1.27228E+3  -1.38881E+3
  -4.57864E+2  -1.06752E+3
  -9.11028E+2   6.97349E+2
  -6.80121E+2  -6.65446E+2
   1.30068E+3   3.03493E+3
   1.13637E+3   6.21801E+2
   1.51163E+2  -1.11262E+3
  -4.61662E+2  -1.94715E+2
  -6.48881E+1   2.88731E+2
  -6.40862E+2   1.23364E+3
  -7.15339E+2   3.40295E+2
  -2.57215E+3  -1.50237E+3
   2.10955E+2   2.30390E+2
   3.42663E+2   9.29740E+2
  -4.60663E+2  -3.19768E+2
   1.72182E+3  -8.13189E+2
   2.06627E+3   2.25726E+3
  -8.81688E+2  -1.17724E+3
  -1.07172E+3   3.53270E+2
  -4.16685E+2  -4.02801E+2
  -1.27006E+3  -6.71996E+2
  -5.41978E+2   1.04825E+3
   1.76704E+2  -4.49499E+2
  -1.99847E+3   1.55615E+2
   7.32401E+2   1.46277E+2
  -1.15350E+3  -7.37345E+2
   4.83980E+2   2.52310E+3
   2.22284E+3   1.14658E+3
  -9.36730E+2   5.80359E+2
   5.11290E+2   1.73925E+3
   1.82613E+2   2.97092E+3
  -1.22167E+3   1.19085E+3
  -7.50382E+2   7.19828E+2
   9.37901E+2  -5.65452E+1
  -4.78494E+2  -2.26229E+3
   1.26837E+3  -8.43060E+2
   1.18212E+3   7.51107E+2
   6.36024E+0   6.72464E+2
  -1.98488E+3  -2.22810E+2
   1.03123E+3  -1.11066E+3
   1.31444E+3  -1.15636E+3
   1.09196E+3   2.41187E+3
  -3.39684E+2  -1.06759E+3
  -2.04669E+2  -4.06694E+2
  -6.24732E+2  -4.07474E-1
   2.10984E+3  -9.80338E+2
