 
 $NMID
 ID=''
 FMTDAT='(2E13.5)'
 TRAMP=   1.00000E+0
 VOLUME=   1.00000E+0
 $END
  -4.69478E+3   1.78279E+4
  -2.56566E+4   4.03288E+4
  -1.92668E+4   4.33419E+4
  -1.90382E+4   3.92932E+4
  -2.19960E+4   3.98304E+4
  -2.10490E+4   3.99091E+4
  -2.18490E+4   3.75603E+4
  -2.39238E+4   3.70346E+4
  -2.36739E+4   3.67110E+4
  -2.44592E+4   3.49149E+4
  -2.58769E+4   3.41895E+4
  -2.58880E+4   3.36365E+4
  -2.64243E+4   3.21271E+4
  -2.78037E+4   3.13820E+4
  -2.78940E+4   3.07070E+4
  -2.83000E+4   2.92917E+4
  -2.92311E+4   2.85581E+4
  -2.93554E+4   2.77339E+4
  -2.96453E+4   2.65603E+4
  -3.04627E+4   2.58308E+4
  -3.05281E+4   2.49835E+4
  -3.06852E+4   2.39661E+4
  -3.14344E+4   2.31903E+4
  -3.15869E+4   2.23749E+4
  -3.17255E+4   2.12140E+4
  -3.22270E+4   2.05287E+4
  -3.24140E+4   1.96798E+4
  -3.26374E+4   1.84100E+4
  -3.30967E+4   1.74562E+4
  -3.31446E+4   1.65126E+4
  -3.32436E+4   1.55291E+4
  -3.35683E+4   1.46304E+4
  -3.37485E+4   1.37125E+4
  -3.36762E+4   1.25358E+4
  -3.38322E+4   1.17168E+4
  -3.37685E+4   1.07887E+4
  -3.37154E+4   9.75593E+3
  -3.36547E+4   8.95696E+3
  -3.36391E+4   8.22701E+3
  -3.35529E+4   7.31200E+3
  -3.35593E+4   6.43139E+3
  -3.34814E+4   5.47046E+3
  -3.33015E+4   4.48681E+3
  -3.31134E+4   3.74759E+3
  -3.30507E+4   2.93312E+3
  -3.28955E+4   2.06193E+3
  -3.27536E+4   1.25198E+3
  -3.25905E+4   4.28167E+2
  -3.23859E+4  -4.42296E+2
  -3.22464E+4  -1.27383E+3
  -3.18628E+4  -2.05739E+3
  -3.16114E+4  -2.98016E+3
  -3.13422E+4  -3.74296E+3
  -3.10452E+4  -4.34782E+3
  -3.06853E+4  -5.24699E+3
  -3.03185E+4  -6.02978E+3
  -3.00594E+4  -6.83266E+3
  -2.96338E+4  -7.63919E+3
  -2.91555E+4  -8.35252E+3
  -2.86498E+4  -9.15724E+3
  -2.81775E+4  -9.87718E+3
  -2.77279E+4  -1.05470E+4
  -2.72304E+4  -1.12903E+4
  -2.66682E+4  -1.19657E+4
  -2.60915E+4  -1.26629E+4
  -2.54420E+4  -1.33084E+4
  -2.49297E+4  -1.38865E+4
  -2.42540E+4  -1.45507E+4
  -2.36321E+4  -1.50923E+4
  -2.29393E+4  -1.56278E+4
  -2.22617E+4  -1.61975E+4
  -2.14660E+4  -1.67687E+4
  -2.07128E+4  -1.72789E+4
  -1.99392E+4  -1.77708E+4
  -1.91928E+4  -1.81215E+4
  -1.84692E+4  -1.85066E+4
  -1.76387E+4  -1.87937E+4
  -1.67894E+4  -1.91581E+4
  -1.60011E+4  -1.94374E+4
  -1.52346E+4  -1.96568E+4
  -1.43819E+4  -1.98980E+4
  -1.35767E+4  -2.00459E+4
  -1.27451E+4  -2.02303E+4
  -1.19152E+4  -2.03435E+4
  -1.10789E+4  -2.04120E+4
  -1.02450E+4  -2.05179E+4
  -9.44256E+3  -2.05499E+4
  -8.63032E+3  -2.04713E+4
  -7.89648E+3  -2.04087E+4
  -7.15684E+3  -2.03963E+4
  -6.35057E+3  -2.03570E+4
  -5.62080E+3  -2.02245E+4
  -4.91726E+3  -2.00709E+4
  -4.22131E+3  -1.99329E+4
  -3.59320E+3  -1.97078E+4
  -2.92309E+3  -1.95148E+4
  -2.23965E+3  -1.92153E+4
  -1.65217E+3  -1.90673E+4
  -1.01804E+3  -1.87910E+4
  -4.37199E+2  -1.84775E+4
   1.71578E+2  -1.82217E+4
   6.76799E+2  -1.78343E+4
   1.18837E+3  -1.76753E+4
   1.75839E+3  -1.73153E+4
   2.21640E+3  -1.69547E+4
   2.72529E+3  -1.66773E+4
   3.21994E+3  -1.63050E+4
   3.63122E+3  -1.58928E+4
   4.02136E+3  -1.55360E+4
   4.43391E+3  -1.51369E+4
   4.85295E+3  -1.48194E+4
   5.11290E+3  -1.43697E+4
   5.50683E+3  -1.39848E+4
   5.82381E+3  -1.36747E+4
   6.16988E+3  -1.32116E+4
   6.44928E+3  -1.28485E+4
   6.71970E+3  -1.24631E+4
   6.90824E+3  -1.19873E+4
   7.21205E+3  -1.17061E+4
   7.39244E+3  -1.12941E+4
   7.62111E+3  -1.10113E+4
   7.78233E+3  -1.05356E+4
   8.01658E+3  -1.00244E+4
   8.14997E+3  -9.73213E+3
   8.29888E+3  -9.33508E+3
   8.42754E+3  -9.00274E+3
   8.57053E+3  -8.59133E+3
   8.67771E+3  -8.21548E+3
   8.78000E+3  -7.87690E+3
   8.75244E+3  -7.49294E+3
   8.94392E+3  -7.17810E+3
   8.97443E+3  -6.78778E+3
   9.03590E+3  -6.47781E+3
   9.11736E+3  -6.18600E+3
   9.11905E+3  -5.80426E+3
   9.05212E+3  -5.44994E+3
   9.07071E+3  -5.14358E+3
   9.09592E+3  -4.86887E+3
   9.02319E+3  -4.48551E+3
   9.05471E+3  -4.21366E+3
   8.96795E+3  -3.88191E+3
   8.92043E+3  -3.65939E+3
   8.79760E+3  -3.32067E+3
   8.77911E+3  -3.15733E+3
   8.69917E+3  -2.84335E+3
   8.61677E+3  -2.63234E+3
   8.52289E+3  -2.40101E+3
   8.46321E+3  -2.16599E+3
   8.31934E+3  -1.96074E+3
   8.22075E+3  -1.72909E+3
   8.15578E+3  -1.48313E+3
   8.04339E+3  -1.21360E+3
   7.95077E+3  -1.02630E+3
   7.80309E+3  -9.04709E+2
   7.62653E+3  -7.07743E+2
   7.49846E+3  -5.66820E+2
   7.38864E+3  -3.95973E+2
   7.20920E+3  -2.08591E+2
   7.10635E+3  -2.18869E+1
   6.89893E+3   1.36741E+2
   6.83187E+3   2.67392E+2
   6.67229E+3   3.17197E+2
   6.43358E+3   4.90051E+2
   6.36349E+3   6.12797E+2
   6.16274E+3   7.12502E+2
   6.08105E+3   8.90318E+2
   5.93671E+3   9.25237E+2
   5.73714E+3   9.88472E+2
   5.56983E+3   1.15602E+3
   5.38225E+3   1.16718E+3
   5.30081E+3   1.28870E+3
   5.14797E+3   1.30512E+3
   4.99982E+3   1.38389E+3
   4.89909E+3   1.43257E+3
   4.72560E+3   1.47159E+3
   4.58388E+3   1.54927E+3
   4.41272E+3   1.61370E+3
   4.27143E+3   1.62526E+3
   4.21590E+3   1.67615E+3
   4.04462E+3   1.68132E+3
   3.90890E+3   1.71283E+3
   3.72357E+3   1.71660E+3
   3.62210E+3   1.68042E+3
   3.49366E+3   1.78899E+3
   3.34611E+3   1.80901E+3
   3.25066E+3   1.78716E+3
   3.10603E+3   1.81952E+3
   2.95964E+3   1.82308E+3
   2.85511E+3   1.90612E+3
   2.85043E+3   1.84226E+3
   2.66115E+3   1.81901E+3
   2.49402E+3   1.86037E+3
   2.37495E+3   1.82155E+3
   2.31399E+3   1.79951E+3
   2.25902E+3   1.82713E+3
   2.08676E+3   1.76112E+3
   2.10298E+3   1.76924E+3
   2.00734E+3   1.80052E+3
   1.83250E+3   1.82049E+3
   1.78711E+3   1.83963E+3
   1.76482E+3   1.75603E+3
   1.65674E+3   1.72931E+3
   1.52705E+3   1.69981E+3
   1.46847E+3   1.71424E+3
   1.40118E+3   1.77991E+3
   1.36366E+3   1.71655E+3
   1.18636E+3   1.65555E+3
   1.18800E+3   1.63412E+3
   1.07625E+3   1.57093E+3
   9.50454E+2   1.56376E+3
   9.48972E+2   1.55630E+3
   9.42406E+2   1.49092E+3
   8.63411E+2   1.48571E+3
   7.75468E+2   1.50479E+3
   7.11842E+2   1.41808E+3
   6.70182E+2   1.34134E+3
   6.00682E+2   1.37638E+3
   6.09581E+2   1.36068E+3
   5.51448E+2   1.34614E+3
   4.57999E+2   1.29431E+3
   4.28837E+2   1.27756E+3
   4.02575E+2   1.26700E+3
   3.44550E+2   1.29820E+3
   3.42878E+2   1.19225E+3
   3.12139E+2   1.13866E+3
   3.05119E+2   1.15580E+3
   2.22384E+2   1.17971E+3
   1.60022E+2   1.07379E+3
   1.85302E+2   1.10187E+3
   1.77718E+2   1.11183E+3
   1.20817E+2   1.08494E+3
   6.57436E+1   1.09529E+3
   1.42728E+2   9.95550E+2
   9.23052E+1   9.72009E+2
  -2.60291E+1   9.31003E+2
  -8.57456E+1   9.19563E+2
  -8.91470E+1   9.45708E+2
  -3.69843E+1   9.14046E+2
  -8.99392E+1   8.67517E+2
  -9.78644E+1   9.01148E+2
  -2.08443E+2   8.87900E+2
  -9.72376E+1   9.11679E+2
  -1.47544E+2   8.61804E+2
  -1.02649E+2   8.47860E+2
  -1.99888E+2   8.53995E+2
  -1.15054E+2   8.09512E+2
  -1.98009E+2   8.19172E+2
  -2.02024E+2   7.60241E+2
  -1.87647E+2   7.59594E+2
  -2.03773E+2   7.39519E+2
  -2.25607E+2   7.31718E+2
  -2.67159E+2   7.61985E+2
  -2.15827E+2   7.16502E+2
  -2.50401E+2   6.84558E+2
  -2.81034E+2   7.03622E+2
  -2.83126E+2   6.22338E+2
  -3.61813E+2   6.03371E+2
  -3.12845E+2   6.10890E+2
  -3.08963E+2   6.18374E+2
  -3.29035E+2   5.88332E+2
  -2.84658E+2   5.75264E+2
  -2.69571E+2   6.00070E+2
  -2.88294E+2   5.39026E+2
  -2.81275E+2   5.92240E+2
  -3.16292E+2   5.20695E+2
  -2.92830E+2   5.35471E+2
  -3.70425E+2   4.93600E+2
  -3.75137E+2   5.46007E+2
  -3.26817E+2   5.37266E+2
  -2.92464E+2   4.73916E+2
  -3.23086E+2   4.03774E+2
  -3.21224E+2   3.77771E+2
  -2.72649E+2   4.64774E+2
  -3.16165E+2   4.17402E+2
  -3.37417E+2   3.97389E+2
  -3.24335E+2   3.49681E+2
  -2.48498E+2   3.57416E+2
  -3.47804E+2   3.89209E+2
  -2.85472E+2   4.04465E+2
  -2.82285E+2   4.17588E+2
  -2.91610E+2   3.60904E+2
  -3.16741E+2   3.68379E+2
  -3.40862E+2   3.60679E+2
  -3.07806E+2   3.14178E+2
  -3.32999E+2   2.85518E+2
  -3.01553E+2   3.35904E+2
  -3.27324E+2   3.40525E+2
  -3.20986E+2   2.40539E+2
  -3.21686E+2   2.85114E+2
  -3.36530E+2   2.93234E+2
  -2.58442E+2   2.62190E+2
  -3.03381E+2   3.12012E+2
  -2.57771E+2   3.21037E+2
  -3.19077E+2   2.80492E+2
  -2.77341E+2   2.69476E+2
  -2.68655E+2   2.67079E+2
  -2.40136E+2   2.48023E+2
  -2.61472E+2   2.78272E+2
  -2.74078E+2   1.91729E+2
  -2.94348E+2   2.64827E+2
  -2.43306E+2   2.20709E+2
  -2.94314E+2   1.76061E+2
  -3.19173E+2   2.26656E+2
  -2.56913E+2   2.17078E+2
  -2.23837E+2   1.61875E+2
  -2.72701E+2   2.05460E+2
  -2.41078E+2   2.10095E+2
  -2.51812E+2   1.76353E+2
  -2.78872E+2   1.57981E+2
  -2.55734E+2   2.20319E+2
  -2.14811E+2   1.81785E+2
  -2.18801E+2   1.74127E+2
  -1.71980E+2   1.39948E+2
  -2.11252E+2   1.64438E+2
  -1.88817E+2   1.58912E+2
  -1.92714E+2   1.92075E+2
  -1.84207E+2   1.38492E+2
  -1.92682E+2   3.89574E+1
  -1.80315E+2   7.78179E+1
  -1.67289E+2   1.23360E+2
  -1.93701E+2   7.09595E+1
  -1.48470E+2   1.35004E+2
  -1.52695E+2   1.08432E+2
  -1.64301E+2   7.59819E+1
  -1.77268E+2   9.45027E+1
  -1.55677E+2   7.96179E+1
  -1.56848E+2   6.67648E+1
  -4.44365E+1   6.95160E+1
  -1.63727E+2   1.08020E+2
  -7.61633E+1   1.37626E+2
  -1.42704E+2   1.41110E+2
  -1.35822E+2   8.38606E+1
  -1.03533E+2   3.52397E+1
  -1.43472E+2   1.63390E+1
  -8.25736E+1   5.01178E+1
  -1.23125E+2   3.45881E+1
  -1.55057E+2   1.05167E+2
  -1.65420E+2   1.92156E+1
  -6.51602E+1   1.09208E+1
  -1.08586E+2   3.19574E+1
  -3.58763E+1   9.83687E+1
  -7.63029E+1   6.39544E+1
  -1.28772E+2   8.54103E+1
  -1.27096E+1   1.27050E+1
  -1.15034E+2   1.38267E+1
  -4.49961E+1  -1.95031E+1
  -7.84232E+1   3.82508E+1
  -3.69536E+1   9.18900E+1
  -7.56401E+1   4.82333E+1
  -8.94218E+1   3.86742E+1
  -2.17802E+1   1.80924E+1
   2.74318E+1   3.01117E+1
  -3.58506E+1  -2.31859E+1
  -3.69866E+1   7.83592E+1
  -8.65348E+0   3.05375E+1
  -8.92561E+1   2.60768E+1
   3.11814E+1   6.92556E+1
  -4.19352E+1   4.01895E+1
   3.55196E+1   3.69698E+1
  -6.38135E+1   1.12709E+2
   2.82768E+0   4.51514E+1
   6.66810E+1   1.12980E+2
   2.84982E+1  -2.94086E+0
  -2.79546E+1   4.37526E+1
   5.40511E+0   6.12529E+1
  -3.10044E+1   2.55167E+1
   8.02367E+0   6.58891E+1
