 
 $NMID
 ID=''
 FMTDAT='(2E13.5)'
 TRAMP=   1.00000E+0
 VOLUME=   1.00000E+0
 $END
  -2.17493E+4   5.07932E+3
  -5.74809E+4  -4.08986E+3
  -5.70854E+4   5.01218E+3
  -5.26820E+4   3.47388E+3
  -5.48589E+4   1.15764E+3
  -5.46553E+4   2.61175E+3
  -5.25873E+4   6.75604E+2
  -5.32528E+4  -1.47465E+3
  -5.30310E+4  -9.64460E+2
  -5.17078E+4  -2.58006E+3
  -5.20196E+4  -4.26674E+3
  -5.16985E+4  -4.05238E+3
  -5.06875E+4  -5.10833E+3
  -5.08145E+4  -6.84018E+3
  -5.03059E+4  -7.04823E+3
  -4.93265E+4  -8.11949E+3
  -4.92181E+4  -9.40007E+3
  -4.86052E+4  -9.74139E+3
  -4.76302E+4  -1.05584E+4
  -4.74012E+4  -1.17780E+4
  -4.66975E+4  -1.21269E+4
  -4.59339E+4  -1.26120E+4
  -4.56785E+4  -1.36641E+4
  -4.50744E+4  -1.41976E+4
  -4.40411E+4  -1.48270E+4
  -4.37022E+4  -1.56813E+4
  -4.31148E+4  -1.61978E+4
  -4.22393E+4  -1.70037E+4
  -4.16200E+4  -1.78667E+4
  -4.09647E+4  -1.83198E+4
  -4.01534E+4  -1.88258E+4
  -3.96448E+4  -1.94613E+4
  -3.90416E+4  -2.00300E+4
  -3.82056E+4  -2.06154E+4
  -3.76966E+4  -2.11153E+4
  -3.71313E+4  -2.15782E+4
  -3.63500E+4  -2.19777E+4
  -3.58095E+4  -2.25240E+4
  -3.52336E+4  -2.29247E+4
  -3.46119E+4  -2.33945E+4
  -3.40532E+4  -2.39345E+4
  -3.33395E+4  -2.44457E+4
  -3.25676E+4  -2.49294E+4
  -3.18471E+4  -2.53210E+4
  -3.11866E+4  -2.56502E+4
  -3.04190E+4  -2.60818E+4
  -2.96558E+4  -2.65916E+4
  -2.90565E+4  -2.70239E+4
  -2.82539E+4  -2.73156E+4
  -2.76489E+4  -2.76683E+4
  -2.68246E+4  -2.80842E+4
  -2.60118E+4  -2.83268E+4
  -2.53913E+4  -2.86016E+4
  -2.46576E+4  -2.88535E+4
  -2.39532E+4  -2.91344E+4
  -2.31182E+4  -2.94431E+4
  -2.23394E+4  -2.97258E+4
  -2.15340E+4  -2.99065E+4
  -2.07187E+4  -3.00657E+4
  -1.99195E+4  -3.01660E+4
  -1.91086E+4  -3.03017E+4
  -1.83354E+4  -3.04409E+4
  -1.76216E+4  -3.05953E+4
  -1.68485E+4  -3.06909E+4
  -1.60508E+4  -3.07091E+4
  -1.52532E+4  -3.07564E+4
  -1.45202E+4  -3.08014E+4
  -1.37833E+4  -3.08081E+4
  -1.29429E+4  -3.08135E+4
  -1.22204E+4  -3.07340E+4
  -1.15252E+4  -3.07456E+4
  -1.08097E+4  -3.05493E+4
  -1.00662E+4  -3.04233E+4
  -9.33790E+3  -3.03462E+4
  -8.69998E+3  -3.02616E+4
  -8.03748E+3  -3.00677E+4
  -7.36163E+3  -2.99755E+4
  -6.70347E+3  -2.96410E+4
  -6.09723E+3  -2.95066E+4
  -5.50938E+3  -2.93348E+4
  -4.90650E+3  -2.91012E+4
  -4.24330E+3  -2.88459E+4
  -3.65850E+3  -2.86157E+4
  -2.99936E+3  -2.84014E+4
  -2.51848E+3  -2.81029E+4
  -1.86479E+3  -2.78369E+4
  -1.30052E+3  -2.75609E+4
  -7.38888E+2  -2.72669E+4
  -2.86647E+2  -2.69764E+4
   1.68791E+2  -2.67225E+4
   7.03880E+2  -2.64308E+4
   1.17663E+3  -2.60949E+4
   1.60654E+3  -2.58293E+4
   2.04663E+3  -2.55486E+4
   2.56559E+3  -2.52409E+4
   2.97231E+3  -2.48738E+4
   3.40326E+3  -2.44932E+4
   3.81472E+3  -2.41946E+4
   4.23669E+3  -2.39661E+4
   4.68187E+3  -2.36224E+4
   5.11138E+3  -2.32528E+4
   5.49713E+3  -2.28128E+4
   5.85417E+3  -2.26405E+4
   6.27409E+3  -2.22698E+4
   6.68779E+3  -2.19465E+4
   7.07588E+3  -2.15902E+4
   7.38323E+3  -2.12239E+4
   7.81116E+3  -2.08624E+4
   8.15863E+3  -2.04495E+4
   8.44599E+3  -2.00175E+4
   8.76395E+3  -1.97337E+4
   9.12882E+3  -1.93279E+4
   9.48883E+3  -1.89963E+4
   9.84539E+3  -1.85037E+4
   1.01637E+4  -1.82035E+4
   1.05025E+4  -1.77570E+4
   1.08167E+4  -1.72784E+4
   1.10197E+4  -1.68252E+4
   1.13513E+4  -1.64824E+4
   1.15866E+4  -1.60598E+4
   1.18509E+4  -1.55928E+4
   1.21412E+4  -1.51596E+4
   1.24009E+4  -1.46804E+4
   1.25523E+4  -1.41933E+4
   1.27472E+4  -1.37751E+4
   1.29662E+4  -1.33515E+4
   1.31400E+4  -1.27977E+4
   1.33172E+4  -1.23769E+4
   1.34548E+4  -1.19608E+4
   1.36069E+4  -1.14364E+4
   1.37699E+4  -1.09737E+4
   1.38912E+4  -1.05523E+4
   1.39568E+4  -1.00592E+4
   1.40241E+4  -9.65762E+3
   1.41671E+4  -9.23169E+3
   1.41472E+4  -8.73383E+3
   1.42197E+4  -8.21594E+3
   1.42782E+4  -7.77161E+3
   1.42509E+4  -7.40517E+3
   1.42482E+4  -7.00269E+3
   1.42907E+4  -6.61934E+3
   1.43065E+4  -6.12007E+3
   1.42399E+4  -5.74781E+3
   1.42501E+4  -5.35027E+3
   1.42912E+4  -4.90571E+3
   1.41839E+4  -4.53623E+3
   1.41513E+4  -4.17449E+3
   1.40645E+4  -3.86326E+3
   1.39502E+4  -3.41473E+3
   1.39947E+4  -3.07998E+3
   1.38558E+4  -2.76498E+3
   1.37795E+4  -2.39880E+3
   1.36579E+4  -2.01351E+3
   1.34827E+4  -1.72063E+3
   1.34183E+4  -1.44870E+3
   1.32902E+4  -1.12805E+3
   1.32141E+4  -8.88592E+2
   1.30870E+4  -5.10555E+2
   1.28899E+4  -2.67125E+2
   1.28236E+4  -2.17659E-1
   1.26070E+4   3.48459E+2
   1.24561E+4   5.41511E+2
   1.23564E+4   7.72252E+2
   1.21990E+4   1.04171E+3
   1.21138E+4   1.30989E+3
   1.18838E+4   1.51850E+3
   1.17528E+4   1.71285E+3
   1.15982E+4   1.86840E+3
   1.14541E+4   2.10201E+3
   1.12689E+4   2.34204E+3
   1.11000E+4   2.43796E+3
   1.09380E+4   2.76619E+3
   1.07784E+4   2.88331E+3
   1.05788E+4   3.00366E+3
   1.04875E+4   3.13413E+3
   1.02853E+4   3.30455E+3
   1.00528E+4   3.40108E+3
   9.99053E+3   3.57820E+3
   9.82175E+3   3.65212E+3
   9.60566E+3   3.82556E+3
   9.40634E+3   4.00659E+3
   9.32393E+3   4.16989E+3
   9.14224E+3   4.22453E+3
   9.01578E+3   4.37051E+3
   8.83295E+3   4.38962E+3
   8.62425E+3   4.52597E+3
   8.46648E+3   4.66617E+3
   8.36838E+3   4.67116E+3
   8.19075E+3   4.78814E+3
   7.94097E+3   4.88510E+3
   7.82769E+3   4.93216E+3
   7.68267E+3   5.03476E+3
   7.56279E+3   5.07943E+3
   7.39439E+3   5.07174E+3
   7.16968E+3   5.14289E+3
   7.03832E+3   5.23445E+3
   6.87106E+3   5.21051E+3
   6.71572E+3   5.33598E+3
   6.59877E+3   5.36580E+3
   6.39242E+3   5.35264E+3
   6.31431E+3   5.44465E+3
   6.14842E+3   5.46707E+3
   6.05915E+3   5.41347E+3
   5.79107E+3   5.45884E+3
   5.73104E+3   5.42786E+3
   5.59041E+3   5.51079E+3
   5.49416E+3   5.43951E+3
   5.32667E+3   5.44785E+3
   5.21962E+3   5.42707E+3
   5.05699E+3   5.44221E+3
   4.93616E+3   5.39232E+3
   4.81236E+3   5.39786E+3
   4.62866E+3   5.36871E+3
   4.59973E+3   5.29684E+3
   4.38509E+3   5.35229E+3
   4.35312E+3   5.30695E+3
   4.18758E+3   5.33263E+3
   4.12080E+3   5.25037E+3
   4.02268E+3   5.18421E+3
   3.86684E+3   5.18161E+3
   3.79696E+3   5.19481E+3
   3.67728E+3   5.05372E+3
   3.62996E+3   5.02869E+3
   3.54378E+3   4.99910E+3
   3.45829E+3   4.97453E+3
   3.33644E+3   4.94232E+3
   3.19701E+3   4.94356E+3
   3.15436E+3   4.92966E+3
   3.08162E+3   4.82294E+3
   2.97955E+3   4.75308E+3
   2.90766E+3   4.75839E+3
   2.80673E+3   4.68246E+3
   2.76224E+3   4.63297E+3
   2.68987E+3   4.60796E+3
   2.59873E+3   4.56783E+3
   2.52554E+3   4.49151E+3
   2.48072E+3   4.47991E+3
   2.28542E+3   4.41709E+3
   2.27278E+3   4.33539E+3
   2.26230E+3   4.32534E+3
   2.20096E+3   4.22073E+3
   2.12861E+3   4.18562E+3
   2.04212E+3   4.14862E+3
   1.99935E+3   4.11432E+3
   1.87741E+3   4.11384E+3
   1.89312E+3   4.00914E+3
   1.80951E+3   3.94342E+3
   1.79568E+3   3.88026E+3
   1.71315E+3   3.95854E+3
   1.68583E+3   3.86623E+3
   1.62003E+3   3.79228E+3
   1.58270E+3   3.67654E+3
   1.51754E+3   3.70837E+3
   1.45684E+3   3.64100E+3
   1.40872E+3   3.64653E+3
   1.34583E+3   3.64318E+3
   1.33681E+3   3.50495E+3
   1.22586E+3   3.58164E+3
   1.26581E+3   3.48465E+3
   1.19987E+3   3.41049E+3
   1.13000E+3   3.34906E+3
   1.12834E+3   3.31533E+3
   1.12847E+3   3.23553E+3
   1.09183E+3   3.29087E+3
   9.42153E+2   3.24236E+3
   9.87827E+2   3.12380E+3
   9.39828E+2   3.06043E+3
   8.62838E+2   3.06809E+3
   8.25576E+2   3.01652E+3
   8.76922E+2   2.97173E+3
   7.74756E+2   2.91159E+3
   8.68336E+2   2.87120E+3
   7.06380E+2   2.91991E+3
   6.35985E+2   2.81110E+3
   5.99195E+2   2.78146E+3
   5.81843E+2   2.71788E+3
   6.00884E+2   2.69013E+3
   5.48994E+2   2.72211E+3
   4.93501E+2   2.57557E+3
   4.62945E+2   2.56888E+3
   5.08832E+2   2.54603E+3
   4.25392E+2   2.50271E+3
   3.81094E+2   2.47188E+3
   3.96742E+2   2.34879E+3
   3.54236E+2   2.33740E+3
   3.43505E+2   2.27622E+3
   3.23535E+2   2.29158E+3
   3.18051E+2   2.24451E+3
   2.86429E+2   2.15322E+3
   2.39808E+2   2.11766E+3
   2.10867E+2   2.14981E+3
   2.35944E+2   2.09937E+3
   1.93758E+2   2.04090E+3
   1.67475E+2   1.95285E+3
   1.34005E+2   1.97371E+3
   5.19119E+1   1.98670E+3
   4.42992E+1   1.92057E+3
   1.12402E+2   1.84420E+3
   3.41842E+1   1.86773E+3
   3.02159E+1   1.79860E+3
   2.10709E+1   1.78657E+3
   1.71799E+1   1.71576E+3
  -7.55958E+0   1.69932E+3
   8.99464E+0   1.67678E+3
  -5.81520E+0   1.60647E+3
  -4.70357E+1   1.58531E+3
  -1.94473E+1   1.55071E+3
  -7.81149E+1   1.50798E+3
  -2.86024E+1   1.53290E+3
  -2.61128E+1   1.49000E+3
  -6.89853E+1   1.40594E+3
  -8.03450E+1   1.39623E+3
  -6.33521E+1   1.37463E+3
  -1.24589E+2   1.34347E+3
  -8.37192E+1   1.29510E+3
  -7.51341E+1   1.36477E+3
  -1.10305E+2   1.24565E+3
  -1.33980E+2   1.24824E+3
  -1.55929E+2   1.23185E+3
  -1.51014E+2   1.20065E+3
  -1.11785E+2   1.16690E+3
  -8.86880E+1   1.15097E+3
  -1.14412E+2   1.08837E+3
  -1.17276E+2   1.15620E+3
  -1.29601E+2   1.04248E+3
  -1.93197E+2   1.00715E+3
  -1.88810E+2   1.05581E+3
  -2.18400E+2   9.90253E+2
  -1.75558E+2   9.56755E+2
  -1.68658E+2   9.71553E+2
  -1.45506E+2   9.74302E+2
  -1.64013E+2   9.30736E+2
  -2.02815E+2   8.85073E+2
  -2.15447E+2   8.77370E+2
  -2.49569E+2   8.66924E+2
  -1.66089E+2   8.86024E+2
  -2.23111E+2   8.70324E+2
  -2.40611E+2   8.77599E+2
  -2.11769E+2   8.19131E+2
  -1.93141E+2   7.37220E+2
  -2.21670E+2   7.40699E+2
  -2.28924E+2   7.41966E+2
  -2.82894E+2   7.72721E+2
  -2.55557E+2   6.57307E+2
  -2.41141E+2   6.63885E+2
  -2.56303E+2   6.84857E+2
  -2.18868E+2   6.37576E+2
  -3.15581E+2   7.19880E+2
  -3.40008E+2   6.45353E+2
  -2.86606E+2   6.72357E+2
  -3.33858E+2   6.25644E+2
  -3.60525E+2   5.32365E+2
  -2.81239E+2   6.01538E+2
  -3.14129E+2   6.08795E+2
  -2.73042E+2   5.68534E+2
  -3.34747E+2   5.48812E+2
  -3.76287E+2   4.74135E+2
  -3.51615E+2   4.85563E+2
  -3.63767E+2   4.75119E+2
  -3.70858E+2   4.50779E+2
  -3.59434E+2   4.17860E+2
  -3.36381E+2   4.41840E+2
  -3.86564E+2   4.27695E+2
  -3.56681E+2   3.75041E+2
  -3.88260E+2   4.14215E+2
  -4.04300E+2   3.62677E+2
  -3.67828E+2   3.16274E+2
