 LCModel (Version 6.3-1N) Copyright: S.W. Provencher.          Ref.: Magn. Reson. Med. 30:672-679 (1993).                
 Slice_N1@16_23  02-Jun-2023 14:37:12
 27 lines in following concentration table = NCONC+1
    Conc.  %SD /Cr+PCr  Metabolite                                         
 1.38E-06  27% 1.6E-04 Mac                                                 
 4.67E-02  44%   5.561 Cr                                                  
 2.05E-02 104%   2.439 PCr                                                 
 8.43E-02  14%  10.050 Ins                                                 
 8.59E-02  10%  10.239 NAA                                                 
 7.78E-02  14%   9.277 Tau                                                 
 1.12E-02  97%   1.337 PCho                                                
 2.96E-03 385%   0.353 GPC                                                 
 6.64E-02  18%   7.908 Glu                                                 
 2.82E-02  31%   3.367 Gln                                                 
    0.000 999%   0.000 Ala                                                 
 2.29E-02  71%   2.735 Asc                                                 
 7.12E-03 107%   0.848 Asp                                                 
 5.21E-03  82%   0.620 GABA                                                
 7.83E-03  62%   0.933 Glc                                                 
 1.41E-02  36%   1.686 GSH                                                 
    0.000 999%   0.000 Lac                                                 
    0.000 999%   0.000 NAAG                                                
    0.000 999%   0.000 PE                                                  
 1.42E-02  19%   1.690 GPC+PCho                                            
 8.59E-02  10%  10.239 NAA+NAAG                                            
 9.46E-02  15%  11.275 Glu+Gln                                             
 6.71E-02  13%   8.000 Cr+PCr                                              
 8.59E-02  10%  10.239 NAA+NAAG                                            
 6.71E-02  13%   8.000 Cr+PCr                                              
 9.46E-02  15%  11.275 Glu+Gln                                             
   6 lines in following misc. output table
  FWHM = 0.047 ppm    S/N =   2                                            
  Data shift =-0.035 ppm                                                   
  Ph:  25 deg      -4.9 deg/ppm                                            
  alphaB,S = 4.0E+00,   4.4E+01                                            
   18 spline knots.   Ns = 9(1)                                            
  ( 6) 5 infls.   ( 2) 1 extrs.                                            
  654 points on ppm-axis = NY
      4.000000     3.994181     3.988363     3.982544     3.976726     3.970907     3.965088     3.959270     3.953451     3.947633
      3.941814     3.935995     3.930177     3.924358     3.918540     3.912721     3.906902     3.901084     3.895265     3.889446
      3.883628     3.877809     3.871991     3.866172     3.860353     3.854535     3.848716     3.842898     3.837079     3.831260
      3.825442     3.819623     3.813805     3.807986     3.802167     3.796349     3.790530     3.784712     3.778893     3.773074
      3.767256     3.761437     3.755619     3.749800     3.743981     3.738163     3.732344     3.726526     3.720707     3.714888
      3.709070     3.703251     3.697433     3.691614     3.685795     3.679977     3.674158     3.668339     3.662521     3.656702
      3.650884     3.645065     3.639246     3.633428     3.627609     3.621791     3.615972     3.610153     3.604335     3.598516
      3.592698     3.586879     3.581060     3.575242     3.569423     3.563605     3.557786     3.551967     3.546149     3.540330
      3.534512     3.528693     3.522874     3.517056     3.511237     3.505419     3.499600     3.493781     3.487963     3.482144
      3.476326     3.470507     3.464688     3.458870     3.453051     3.447232     3.441414     3.435595     3.429777     3.423958
      3.418139     3.412321     3.406502     3.400684     3.394865     3.389046     3.383228     3.377409     3.371591     3.365772
      3.359953     3.354135     3.348316     3.342498     3.336679     3.330860     3.325042     3.319223     3.313405     3.307586
      3.301767     3.295949     3.290130     3.284312     3.278493     3.272674     3.266856     3.261037     3.255219     3.249400
      3.243581     3.237763     3.231944     3.226125     3.220307     3.214488     3.208670     3.202851     3.197032     3.191214
      3.185395     3.179577     3.173758     3.167939     3.162121     3.156302     3.150484     3.144665     3.138846     3.133028
      3.127209     3.121391     3.115572     3.109753     3.103935     3.098116     3.092298     3.086479     3.080660     3.074842
      3.069023     3.063205     3.057386     3.051567     3.045749     3.039930     3.034111     3.028293     3.022474     3.016656
      3.010837     3.005018     2.999200     2.993381     2.987563     2.981744     2.975925     2.970107     2.964288     2.958470
      2.952651     2.946832     2.941014     2.935195     2.929377     2.923558     2.917739     2.911921     2.906102     2.900284
      2.894465     2.888646     2.882828     2.877009     2.871191     2.865372     2.859553     2.853735     2.847916     2.842098
      2.836279     2.830460     2.824642     2.818823     2.813004     2.807186     2.801367     2.795549     2.789730     2.783911
      2.778093     2.772274     2.766456     2.760637     2.754818     2.749000     2.743181     2.737363     2.731544     2.725725
      2.719907     2.714088     2.708270     2.702451     2.696632     2.690814     2.684995     2.679177     2.673358     2.667539
      2.661721     2.655902     2.650084     2.644265     2.638446     2.632628     2.626809     2.620991     2.615172     2.609353
      2.603535     2.597716     2.591897     2.586079     2.580260     2.574442     2.568623     2.562804     2.556986     2.551167
      2.545349     2.539530     2.533711     2.527893     2.522074     2.516256     2.510437     2.504618     2.498800     2.492981
      2.487163     2.481344     2.475525     2.469707     2.463888     2.458070     2.452251     2.446432     2.440614     2.434795
      2.428977     2.423158     2.417339     2.411521     2.405702     2.399884     2.394065     2.388246     2.382428     2.376609
      2.370790     2.364972     2.359153     2.353335     2.347516     2.341697     2.335879     2.330060     2.324242     2.318423
      2.312604     2.306786     2.300967     2.295149     2.289330     2.283511     2.277693     2.271874     2.266056     2.260237
      2.254418     2.248600     2.242781     2.236963     2.231144     2.225325     2.219507     2.213688     2.207870     2.202051
      2.196232     2.190414     2.184595     2.178777     2.172958     2.167139     2.161321     2.155502     2.149683     2.143865
      2.138046     2.132228     2.126409     2.120590     2.114772     2.108953     2.103135     2.097316     2.091497     2.085679
      2.079860     2.074042     2.068223     2.062404     2.056586     2.050767     2.044949     2.039130     2.033311     2.027493
      2.021674     2.015856     2.010037     2.004218     1.998400     1.992581     1.986763     1.980944     1.975126     1.969307
      1.963489     1.957670     1.951852     1.946033     1.940215     1.934397     1.928578     1.922760     1.916941     1.911123
      1.905304     1.899486     1.893667     1.887849     1.882030     1.876212     1.870393     1.864575     1.858756     1.852938
      1.847119     1.841301     1.835482     1.829664     1.823845     1.818027     1.812208     1.806390     1.800571     1.794753
      1.788934     1.783116     1.777297     1.771479     1.765660     1.759842     1.754023     1.748205     1.742386     1.736568
      1.730749     1.724931     1.719113     1.713294     1.707476     1.701657     1.695839     1.690020     1.684202     1.678383
      1.672565     1.666746     1.660928     1.655109     1.649291     1.643472     1.637654     1.631835     1.626017     1.620198
      1.614380     1.608561     1.602743     1.596924     1.591106     1.585287     1.579469     1.573650     1.567832     1.562013
      1.556195     1.550376     1.544558     1.538739     1.532921     1.527102     1.521284     1.515465     1.509647     1.503829
      1.498010     1.492192     1.486373     1.480555     1.474736     1.468918     1.463099     1.457281     1.451462     1.445644
      1.439825     1.434007     1.428188     1.422370     1.416551     1.410733     1.404914     1.399096     1.393277     1.387459
      1.381640     1.375822     1.370003     1.364185     1.358366     1.352548     1.346729     1.340911     1.335092     1.329274
      1.323455     1.317637     1.311818     1.306000     1.300182     1.294363     1.288545     1.282726     1.276908     1.271089
      1.265271     1.259452     1.253634     1.247815     1.241997     1.236178     1.230360     1.224541     1.218723     1.212904
      1.207086     1.201267     1.195449     1.189630     1.183812     1.177993     1.172175     1.166356     1.160538     1.154719
      1.148901     1.143082     1.137264     1.131445     1.125627     1.119808     1.113990     1.108171     1.102353     1.096534
      1.090716     1.084898     1.079079     1.073261     1.067442     1.061624     1.055805     1.049987     1.044168     1.038350
      1.032531     1.026713     1.020894     1.015076     1.009257     1.003439     0.997620     0.991802     0.985983     0.980165
      0.974346     0.968528     0.962709     0.956891     0.951072     0.945254     0.939435     0.933617     0.927798     0.921980
      0.916161     0.910343     0.904524     0.898706     0.892887     0.887069     0.881251     0.875432     0.869614     0.863795
      0.857977     0.852158     0.846340     0.840521     0.834703     0.828884     0.823066     0.817247     0.811429     0.805610
      0.799792     0.793973     0.788155     0.782336     0.776518     0.770699     0.764881     0.759062     0.753244     0.747425
      0.741607     0.735788     0.729970     0.724151     0.718333     0.712514     0.706696     0.700877     0.695059     0.689240
      0.683422     0.677603     0.671785     0.665967     0.660148     0.654330     0.648511     0.642693     0.636874     0.631056
      0.625237     0.619419     0.613600     0.607782     0.601963     0.596145     0.590326     0.584508     0.578689     0.572871
      0.567052     0.561234     0.555415     0.549597     0.543778     0.537960     0.532141     0.526323     0.520504     0.514686
      0.508867     0.503049     0.497230     0.491412     0.485593     0.479775     0.473956     0.468138     0.462319     0.456501
      0.450682     0.444864     0.439045     0.433227     0.427408     0.421590     0.415771     0.409953     0.404134     0.398316
      0.392497     0.386679     0.380860     0.375042     0.369223     0.363405     0.357586     0.351767     0.345949     0.340130
      0.334312     0.328493     0.322675     0.316856     0.311038     0.305219     0.299401     0.293582     0.287764     0.281945
      0.276127     0.270308     0.264490     0.258671     0.252853     0.247034     0.241216     0.235397     0.229579     0.223760
      0.217942     0.212123     0.206305     0.200486
 NY phased data points follow
   8.23091E-02 -4.13198E-01 -1.41333E-01 -2.40840E-01 -3.39745E-01  2.54403E-01 -2.44478E-01 -2.61318E-02  1.93282E-01 -1.52657E-01
   1.74335E-01  3.66457E-01  2.04195E-01 -6.05025E-02  2.27654E-01  4.84288E-02  2.86941E-01  2.92227E-01 -4.31189E-02  9.31916E-02
   1.08022E-01  4.25625E-01  5.72914E-02 -2.41501E-02  2.92678E-02  2.97262E-01  2.28671E-01  3.14367E-02  7.57930E-02 -3.26926E-01
  -6.15421E-02 -2.29868E-01 -5.16074E-01 -1.13167E-01  1.58605E-01 -1.81403E-01 -2.37231E-01 -2.09335E-01 -5.24557E-01 -5.14666E-01
  -2.37672E-01 -4.39325E-02 -8.04528E-02 -9.89465E-02  1.18580E-01  2.68846E-01  2.40345E-01  4.76463E-01  4.19236E-01  4.57158E-01
   7.60096E-02  5.20081E-02  2.81368E-01 -1.19223E-01  1.41941E-01  1.55320E-01  8.94284E-02 -7.20248E-02 -1.93484E-01 -1.98572E-01
  -1.71706E-01  4.07734E-03 -1.90121E-01 -2.37538E-01 -8.24580E-02 -8.42730E-02  2.28248E-02  2.57875E-01  1.12895E-02 -2.73656E-02
   1.06770E-01  1.60470E-01  2.54909E-01  1.44395E-01 -2.35026E-01 -6.62360E-02  2.34880E-01 -3.43401E-01 -3.47647E-01 -3.14765E-01
  -2.77568E-01 -1.19966E-01 -2.57655E-01 -2.26951E-01 -2.89434E-01  4.45878E-02  1.56600E-01  3.06103E-01  4.09394E-01  2.83619E-01
   3.82486E-01  9.10421E-02  2.73333E-01  8.01661E-02 -4.38307E-02  3.85979E-01  4.43208E-02 -5.31106E-02  1.41237E-01 -2.59922E-02
  -4.78052E-01  8.44763E-03 -2.69315E-02 -4.49331E-01 -3.46897E-02 -6.39414E-02  2.22248E-01  3.26242E-02  3.55385E-01  4.80679E-01
   1.78236E-01  6.56935E-01  2.38438E-01  3.19420E-01  5.31812E-01  3.54600E-01  2.76751E-01  1.51863E-01  1.42203E-01  3.11876E-02
   1.48001E-01  5.07088E-02  7.82766E-02  2.47040E-01  3.85586E-02  8.22846E-02 -7.09270E-02 -2.67030E-01 -1.41752E-01 -3.12715E-01
  -3.66417E-01 -5.95650E-01 -6.31384E-01 -6.28694E-01 -6.87481E-01 -4.49620E-01 -5.63071E-01 -6.61493E-01 -6.23833E-01 -4.46576E-01
  -5.55924E-01 -4.70283E-01 -3.89670E-01 -1.03595E-01  2.36065E-01 -6.80936E-02 -1.81871E-02 -2.36446E-01 -7.31331E-02 -1.39078E-02
  -1.67483E-01  3.28249E-02 -2.18608E-01  1.61916E-01  1.48307E-01 -4.57606E-02  6.13352E-01  4.82079E-01  3.05312E-01  5.14383E-01
   5.25541E-01  5.26708E-01  4.70367E-01  4.54340E-01  5.90046E-01  7.15023E-01  3.82114E-01  3.90441E-01  2.65274E-01  1.41648E-02
   1.75574E-01  1.81507E-01 -3.31538E-01 -8.06176E-01 -8.24157E-01 -1.06949E+00 -7.08966E-01 -3.54789E-01 -6.57259E-02 -3.01868E-01
  -4.55911E-01 -3.89005E-03 -2.30958E-01 -1.19578E-01 -1.08264E-01 -9.19100E-02  1.00093E-02 -9.08654E-02 -2.98446E-01 -1.86917E-01
  -6.77352E-02 -2.80213E-01 -1.92001E-01  2.28698E-02 -1.16316E-01 -6.66984E-02  1.59906E-01 -1.54010E-01  1.41715E-02 -2.95884E-01
  -3.63340E-01  1.74955E-02  2.30030E-01  2.89814E-01 -1.15059E-01 -6.96212E-02 -2.94679E-01 -2.29935E-01 -3.24372E-02 -5.27072E-02
  -2.42515E-01 -1.46143E-01 -1.62429E-01 -4.03070E-01  2.45009E-01  2.34204E-01  1.67664E-02  6.80223E-02 -9.23560E-02  2.49958E-01
   2.40586E-01 -2.22140E-01 -1.85607E-01  2.03950E-02  3.31566E-01  3.37498E-01 -2.04685E-02 -1.90550E-01 -8.16586E-02  3.52934E-01
   4.29795E-01  4.78154E-01  4.95183E-01 -4.74903E-02  1.41171E-01  3.33073E-01  3.31378E-02 -5.45954E-02 -4.64655E-02  2.93805E-01
  -2.01100E-01 -1.75112E-01  3.02086E-02 -2.95615E-01 -8.59374E-02 -3.07756E-02  2.83772E-01 -1.29803E-01 -2.31422E-01  1.47309E-01
   1.73152E-02  2.13115E-01  5.92415E-02 -1.35704E-01  1.07532E-01 -6.31565E-02 -9.17870E-02  2.06391E-01  3.62106E-02 -2.09000E-02
  -2.37605E-02  1.24496E-01  9.74331E-02  1.51513E-01  3.15093E-01  2.48665E-01  4.23365E-01  2.36130E-01  1.08838E-01  7.72350E-02
   3.58295E-01  5.33797E-01  1.31524E-01  2.09159E-03  1.53930E-01  3.23581E-01 -2.76301E-01 -2.75583E-01  1.58655E-01 -1.31347E-01
  -3.50445E-02 -1.74674E-01 -5.27158E-01 -3.44404E-01  2.90373E-01  1.96060E-01  1.70504E-01  7.99681E-02 -9.99910E-02  4.60856E-01
   4.55791E-02  2.94901E-01  7.51850E-01  7.60518E-01  5.12461E-01 -4.13073E-02  9.40247E-02  1.34271E-02 -1.16100E-01 -3.74684E-02
   1.88053E-01  3.69383E-01  3.50641E-01  5.03429E-02  8.17032E-02  1.64709E-01  5.66751E-02 -6.23629E-02  1.31191E-01  3.67718E-01
   2.22676E-01  1.73375E-01  1.86103E-01  4.47177E-01  3.52714E-01  9.28029E-02 -7.46261E-02  2.47832E-01 -5.33576E-02 -1.55412E-01
  -1.54577E-01 -5.61237E-01 -3.19495E-01 -5.80635E-01 -2.99382E-01 -4.41541E-01 -1.26718E-01  3.03258E-02 -2.82107E-01  1.94946E-01
  -4.25279E-02  7.59428E-02  3.33583E-01  2.99003E-01  8.03317E-02 -1.70191E-01 -1.67329E-01 -2.40220E-01 -4.48797E-01 -8.11116E-02
  -3.91102E-01 -6.22603E-01 -4.67783E-01 -9.53358E-01 -5.44918E-01 -6.09352E-01 -8.91819E-01 -1.35194E+00 -9.52293E-01  9.74626E-03
   2.20924E-01  4.24190E-01 -1.28769E-01  2.45100E-01  1.60784E-01 -1.72360E-01  4.46047E-02 -1.14275E-02  4.40751E-01  1.68867E-01
  -4.78998E-02 -3.66535E-02 -1.94492E-01 -5.44806E-02 -1.04586E-01 -2.73988E-01  2.47647E-01  1.71031E-01 -3.25829E-01  1.89749E-01
   3.03437E-01  2.61358E-01  4.30331E-01  3.11034E-01  6.77552E-02  1.78507E-01  4.59307E-02  1.17869E-01  5.28878E-01  2.51222E-01
  -1.26158E-01 -8.78803E-02  1.25556E-01 -1.44806E-01 -2.75002E-01  6.13837E-02  3.41782E-01 -7.21966E-02  4.90272E-02  2.65971E-01
   1.32027E-01  4.56695E-01  1.55249E-01 -1.69796E-02  4.32149E-01  4.92651E-01  2.00285E-01  1.92482E-01 -2.21477E-01  9.41251E-02
   2.21136E-01 -1.82982E-01  4.52102E-02 -1.37647E-02 -1.90562E-01 -8.67606E-02 -1.59746E-01 -2.75028E-01  3.56805E-01  1.87641E-02
   1.07943E-02  1.23084E-01 -1.48359E-01 -1.89039E-01  3.75722E-02  1.58406E-01 -3.41854E-01 -1.73546E-01 -2.49333E-01  9.24886E-02
  -1.18648E-01  3.51856E-02  1.42722E-01 -3.62912E-01 -3.57748E-02 -3.65932E-01 -4.67443E-01 -1.59214E-02 -1.49496E-01 -3.41692E-01
  -1.91909E-01 -3.77089E-02  5.63782E-01 -4.83295E-02 -3.61431E-01 -8.52837E-02 -9.47723E-02  1.33951E-01  7.40379E-02  3.32088E-01
   3.35758E-02  1.12998E-01  3.05860E-01 -6.40417E-02  2.43774E-01  3.50700E-01 -1.78064E-01  1.63828E-01  1.82455E-01  1.53334E-01
   1.81102E-01  1.89099E-01  3.50750E-01 -1.97393E-02  1.36817E-01  9.72241E-03  4.20031E-01  3.26676E-01  7.84546E-02  2.88394E-01
  -9.93784E-02 -7.65951E-02  8.46271E-03  2.38866E-01  1.45427E-01 -1.91410E-01  3.37823E-01  3.17903E-01 -8.24077E-02 -8.36256E-02
  -2.07312E-01 -1.20156E-01 -2.72560E-01  1.05713E-01 -5.57264E-01 -1.79725E-01  6.47864E-02 -7.70717E-01  2.49056E-01 -1.85933E-01
  -5.52900E-01 -6.42313E-02  3.85196E-01 -5.38865E-02 -1.14431E-01  9.39872E-02 -2.29517E-01  2.69464E-02 -2.04615E-03  1.23762E-01
  -2.40184E-01 -1.88034E-01  1.12907E-01  2.32364E-01  3.00978E-01  1.53507E-01 -1.36393E-01  3.18778E-01  2.41553E-01 -2.04017E-01
   1.23554E-01 -2.33280E-01 -2.46543E-02 -1.63282E-02 -3.69817E-02  2.03071E-01  9.68009E-02  1.53381E-01  1.98054E-01  2.20595E-01
   1.86299E-01 -1.08287E-01  8.29711E-02  2.44818E-01  1.57268E-01  1.58105E-01  1.03756E-01  3.32512E-01 -4.97430E-02  1.68064E-01
  -1.24970E-01 -2.46220E-01  6.78728E-02 -1.25765E-01 -4.18959E-02 -2.58112E-01  1.69899E-01 -2.46159E-01 -4.82747E-01 -3.55613E-01
  -7.68287E-01 -2.28008E-01 -1.64362E-01 -3.39625E-01  3.88230E-02 -3.25758E-01 -1.48368E-01  2.24502E-02 -7.96621E-02  2.19341E-01
  -2.41023E-01  1.12781E-01  1.53540E-01  1.11922E-01 -3.58257E-02 -4.06222E-01  3.02086E-01  2.20874E-01  2.09978E-01  1.20019E-01
  -3.10205E-01 -4.25308E-02  2.45934E-01  2.98494E-01  2.70147E-01  2.43701E-01  3.07584E-01  2.32973E-01  1.38881E-01 -4.86595E-02
   2.53989E-02  1.42058E-01 -1.23123E-02  2.84047E-01  1.78362E-01  3.04764E-01  8.06942E-02 -4.32103E-02  1.62337E-01 -3.08042E-01
  -2.88546E-02  2.67070E-01  3.97757E-01 -6.66332E-02  1.85707E-01  2.46000E-01 -1.60378E-01  2.72627E-01 -1.26150E-01  1.17714E-01
   1.58092E-01 -1.34236E-01 -1.14878E-01 -3.74564E-02  7.58920E-02  2.23525E-01  1.90136E-01 -2.69755E-01 -2.31200E-02  1.51837E-01
   4.91201E-04 -3.69826E-02 -1.55192E-01 -4.00467E-01  1.59236E-01  5.61358E-02 -3.13927E-01  3.14596E-02 -5.02297E-02 -1.58570E-01
  -3.08310E-01 -4.19396E-01 -8.27967E-02  3.71357E-01  1.18887E-01  3.59413E-01  7.30784E-02  1.64039E-01  2.60507E-01 -1.62291E-01
   8.60116E-02 -1.78602E-01  1.93630E-02  1.47977E-01  2.01391E-01 -1.05807E-01 -5.20532E-02 -2.96052E-02 -9.76204E-02 -1.70810E-01
  -2.56311E-01  3.46500E-01  1.99039E-01 -7.56213E-02 -2.98602E-01 -1.54999E-01 -8.40500E-02 -7.11953E-02 -1.33742E-01  8.69795E-03
   1.31806E-01  1.39855E-01  2.32473E-01  6.30935E-02  1.86734E-01 -7.12173E-02  1.51049E-01  3.52440E-01  1.67546E-02 -6.32974E-02
  -7.69208E-02 -1.34673E-01  1.73167E-01  2.05092E-01 -1.07792E-01  8.40203E-02  2.47265E-01 -6.07283E-02  4.55834E-02  2.42286E-01
   1.41196E-01  1.88895E-01  7.16084E-02  2.08263E-01
 NY points of the fit to the data follow
   2.79771E-02  3.96203E-02  4.40844E-02  4.16939E-02  3.58930E-02  3.05484E-02  2.00482E-02  1.24449E-02  2.20953E-02  4.75603E-02
   8.27089E-02  1.17401E-01  1.49258E-01  1.88521E-01  2.37613E-01  2.88997E-01  3.34325E-01  3.56689E-01  3.53518E-01  3.37859E-01
   3.05020E-01  2.36693E-01  1.34010E-01  2.52768E-02 -4.44803E-02 -6.13897E-02 -6.61799E-02 -8.24602E-02 -9.98698E-02 -1.16612E-01
  -1.32538E-01 -1.47674E-01 -1.66229E-01 -1.80703E-01 -1.89593E-01 -1.93004E-01 -1.94810E-01 -1.92985E-01 -1.85101E-01 -1.62590E-01
  -1.26884E-01 -7.97602E-02 -2.10258E-02  4.83626E-02  1.31547E-01  2.21390E-01  2.93672E-01  3.26210E-01  3.17672E-01  2.81953E-01
   2.36835E-01  1.90211E-01  1.35013E-01  8.37520E-02  3.14064E-02 -1.28158E-02 -5.62408E-02 -1.04470E-01 -1.46481E-01 -1.82020E-01
  -2.12442E-01 -2.27878E-01 -2.31248E-01 -2.21340E-01 -1.93448E-01 -1.55023E-01 -9.63751E-02 -1.63979E-02  6.48782E-02  1.43522E-01
   2.18705E-01  2.67117E-01  2.75436E-01  2.54613E-01  1.94122E-01  1.16436E-01  3.36778E-02 -6.09144E-02 -1.26548E-01 -1.61800E-01
  -1.83718E-01 -1.90084E-01 -1.81689E-01 -1.50655E-01 -6.63693E-02  7.06208E-02  2.15324E-01  3.24608E-01  3.83593E-01  4.01579E-01
   3.88589E-01  3.39949E-01  2.50463E-01  1.74684E-01  1.17456E-01  6.45611E-02  1.35992E-02 -3.97232E-02 -9.70300E-02 -1.47708E-01
  -1.86385E-01 -2.10327E-01 -2.14393E-01 -1.93293E-01 -1.30874E-01 -2.17976E-02  1.16389E-01  2.45672E-01  3.31145E-01  3.63122E-01
   3.51462E-01  3.35856E-01  3.18218E-01  3.16021E-01  3.10627E-01  3.02198E-01  2.96126E-01  2.83347E-01  2.67528E-01  2.53369E-01
   2.27863E-01  2.02718E-01  1.58972E-01  9.99872E-02  3.34955E-02 -4.15278E-02 -1.16291E-01 -1.67575E-01 -2.41742E-01 -3.35421E-01
  -4.22148E-01 -4.87006E-01 -5.24112E-01 -5.59006E-01 -6.15737E-01 -6.47313E-01 -6.12367E-01 -5.37796E-01 -4.61615E-01 -4.44696E-01
  -4.95215E-01 -4.95602E-01 -3.88405E-01 -1.91114E-01 -1.52756E-02  6.07820E-02  6.11492E-02  7.86587E-02  9.79937E-02  1.16115E-01
   1.33062E-01  1.49148E-01  1.64566E-01  1.79567E-01  1.94726E-01  2.10714E-01  2.27897E-01  2.46210E-01  2.68121E-01  3.31704E-01
   3.89529E-01  4.11279E-01  4.04130E-01  3.93041E-01  4.05814E-01  4.27351E-01  4.00551E-01  3.21069E-01  2.12267E-01  9.98754E-02
   3.72360E-04 -1.52612E-01 -4.05173E-01 -6.64039E-01 -7.69946E-01 -6.66985E-01 -4.55929E-01 -3.02440E-01 -2.75615E-01 -2.57972E-01
  -2.38523E-01 -2.20095E-01 -2.04549E-01 -1.94696E-01 -1.90745E-01 -1.85882E-01 -1.77423E-01 -1.67275E-01 -1.60725E-01 -1.58248E-01
  -1.57092E-01 -1.52163E-01 -1.44081E-01 -1.35792E-01 -1.27284E-01 -1.19409E-01 -1.10705E-01 -1.01684E-01 -9.33565E-02 -8.60439E-02
  -7.86549E-02 -7.12457E-02 -6.48533E-02 -5.99789E-02 -5.61329E-02 -5.21935E-02 -4.82826E-02 -4.58418E-02 -4.60960E-02 -4.82514E-02
  -4.97309E-02 -4.90115E-02 -4.78192E-02 -4.92608E-02 -5.32314E-02 -5.70693E-02 -6.01675E-02 -5.75288E-02 -4.62698E-02 -3.23067E-02
  -2.21440E-02 -1.53944E-02 -2.89416E-03  2.52046E-02  6.22863E-02  9.62120E-02  1.22840E-01  1.47924E-01  1.82234E-01  2.23709E-01
   2.48051E-01  2.34029E-01  1.90986E-01  1.51507E-01  1.34172E-01  1.19892E-01  7.57841E-02  8.07577E-03 -4.79911E-02 -7.50572E-02
  -8.12277E-02 -8.40902E-02 -8.91195E-02 -9.31841E-02 -9.74626E-02 -1.01164E-01 -1.04622E-01 -1.08123E-01 -1.13682E-01 -1.15353E-01
  -1.14467E-01 -1.14427E-01 -1.15890E-01 -1.14976E-01 -1.08319E-01 -1.00000E-01 -9.12719E-02 -7.96912E-02 -6.37312E-02 -3.80103E-02
  -1.55978E-03  4.16368E-02  8.12328E-02  1.07412E-01  1.24716E-01  1.40071E-01  1.47782E-01  1.47533E-01  1.40821E-01  1.41656E-01
   1.46871E-01  1.43949E-01  1.33044E-01  1.20007E-01  1.05313E-01  7.47616E-02  2.98627E-02 -1.62326E-02 -6.02956E-02 -9.36728E-02
  -1.18545E-01 -1.34139E-01 -1.43418E-01 -1.41914E-01 -1.28843E-01 -1.00043E-01 -5.27548E-02  1.07140E-02  8.76561E-02  1.71122E-01
   2.47629E-01  3.02325E-01  3.25899E-01  3.14052E-01  2.79776E-01  2.42762E-01  2.12658E-01  1.97348E-01  1.91922E-01  1.89047E-01
   1.88482E-01  1.87278E-01  1.83776E-01  1.77249E-01  1.68684E-01  1.60920E-01  1.52960E-01  1.45415E-01  1.37253E-01  1.26635E-01
   1.13620E-01  9.64209E-02  7.53333E-02  4.91620E-02  1.83460E-02 -1.77747E-02 -5.88012E-02 -1.03147E-01 -1.49119E-01 -1.93326E-01
  -2.33567E-01 -2.66655E-01 -2.88954E-01 -2.96460E-01 -2.85543E-01 -2.58914E-01 -2.17110E-01 -1.68936E-01 -1.15615E-01 -6.53214E-02
  -2.03858E-02  1.10877E-02  2.96644E-02  5.87794E-02  3.26770E-02 -5.27956E-02 -1.56277E-01 -2.37754E-01 -2.81929E-01 -3.27274E-01
  -4.29127E-01 -5.56669E-01 -6.69089E-01 -7.49277E-01 -7.99346E-01 -8.95506E-01 -1.01913E+00 -1.02439E+00 -7.94103E-01 -4.10300E-01
  -7.91789E-02  4.73683E-02  1.07009E-02  5.02299E-03  1.33272E-02  2.13463E-02  2.74524E-02  3.14483E-02  3.37465E-02  3.46763E-02
   3.44089E-02  3.31184E-02  3.10200E-02  2.81444E-02  2.52453E-02  2.32062E-02  2.26240E-02  2.38458E-02  2.68931E-02  3.15470E-02
   3.69896E-02  4.29523E-02  4.79191E-02  5.22474E-02  5.56105E-02  5.85779E-02  6.14569E-02  6.41696E-02  6.66108E-02  6.86541E-02
   7.04019E-02  7.21240E-02  7.39978E-02  7.59277E-02  7.76019E-02  7.90745E-02  8.04824E-02  8.19196E-02  8.33923E-02  8.47224E-02
   8.58078E-02  8.66385E-02  8.74182E-02  8.81299E-02  8.87657E-02  8.90914E-02  8.88008E-02  8.77234E-02  8.58542E-02  8.34373E-02
   8.06804E-02  7.78496E-02  7.48202E-02  7.14553E-02  6.76801E-02  6.36416E-02  5.95353E-02  5.54716E-02  5.14748E-02  4.76290E-02
   4.41315E-02  4.09933E-02  3.80519E-02  3.52241E-02  3.24878E-02  3.00642E-02  2.79995E-02  2.61761E-02  2.44941E-02  2.29909E-02
   2.16377E-02  2.04839E-02  1.97510E-02  1.94455E-02  1.95451E-02  1.99334E-02  2.05651E-02  2.16384E-02  2.33310E-02  2.54891E-02
   2.78807E-02  3.03288E-02  3.28747E-02  3.57311E-02  3.87891E-02  4.18155E-02  4.48032E-02  4.79495E-02  5.17714E-02  5.65709E-02
   6.20790E-02  6.77562E-02  7.33609E-02  7.90258E-02  8.49856E-02  9.13125E-02  9.77084E-02  1.03851E-01  1.09451E-01  1.14418E-01
   1.18677E-01  1.22060E-01  1.24316E-01  1.25381E-01  1.25201E-01  1.23914E-01  1.21759E-01  1.18754E-01  1.15060E-01  1.10759E-01
   1.05796E-01  1.00138E-01  9.38832E-02  8.74215E-02  8.12567E-02  7.56309E-02  7.03391E-02  6.52157E-02  6.02637E-02  5.57616E-02
   5.18885E-02  4.86184E-02  4.57627E-02  4.33294E-02  4.14169E-02  4.01961E-02  3.96772E-02  3.96443E-02  4.01889E-02  4.14480E-02
   4.33510E-02  4.56103E-02  4.80704E-02  5.06303E-02  5.32555E-02  5.59055E-02  5.83734E-02  6.06209E-02  6.26103E-02  6.41174E-02
   6.51074E-02  6.56960E-02  6.60575E-02  6.63409E-02  6.64443E-02  6.61295E-02  6.51774E-02  6.36235E-02  6.17780E-02  5.98506E-02
   5.77849E-02  5.55362E-02  5.33065E-02  5.12056E-02  4.91510E-02  4.70607E-02  4.47923E-02  4.25132E-02  4.02755E-02  3.79928E-02
   3.56119E-02  3.31805E-02  3.07845E-02  2.83457E-02  2.55358E-02  2.21243E-02  1.80823E-02  1.34730E-02  8.22610E-03  2.21195E-03
  -4.55801E-03 -1.18315E-02 -1.95676E-02 -2.79625E-02 -3.70447E-02 -4.65692E-02 -5.61187E-02 -6.52279E-02 -7.35563E-02 -8.09572E-02
  -8.72641E-02 -9.23703E-02 -9.62564E-02 -9.89157E-02 -1.00425E-01 -1.00493E-01 -9.90612E-02 -9.64646E-02 -9.32453E-02 -8.95781E-02
  -8.53337E-02 -8.04904E-02 -7.53735E-02 -7.03950E-02 -6.54766E-02 -6.02673E-02 -5.45863E-02 -4.85163E-02 -4.22682E-02 -3.60298E-02
  -2.97288E-02 -2.34848E-02 -1.75032E-02 -1.18839E-02 -6.68125E-03 -1.68545E-03  3.16345E-03  7.69911E-03  1.17657E-02  1.53375E-02
   1.85758E-02  2.16879E-02  2.46275E-02  2.70217E-02  2.88906E-02  3.05467E-02  3.22074E-02  3.37976E-02  3.50780E-02  3.60047E-02
   3.69418E-02  3.79507E-02  3.88703E-02  3.97564E-02  4.06002E-02  4.15100E-02  4.25404E-02  4.34907E-02  4.42375E-02  4.47145E-02
   4.49262E-02  4.50179E-02  4.50884E-02  4.51297E-02  4.51224E-02  4.50953E-02  4.51015E-02  4.52324E-02  4.53422E-02  4.53371E-02
   4.53413E-02  4.53485E-02  4.53205E-02  4.52370E-02  4.48901E-02  4.42570E-02  4.37737E-02  4.37532E-02  4.40909E-02  4.44225E-02
   4.45470E-02  4.46074E-02  4.47819E-02  4.49468E-02  4.52332E-02  4.58360E-02  4.67198E-02  4.75939E-02  4.81921E-02  4.87001E-02
   4.92987E-02  4.99238E-02  5.04464E-02  5.07759E-02  5.10478E-02  5.13904E-02  5.17347E-02  5.20740E-02  5.24985E-02  5.31410E-02
   5.40712E-02  5.51168E-02  5.62027E-02  5.72340E-02  5.81390E-02  5.88319E-02  5.95612E-02  6.04804E-02  6.15057E-02  6.22662E-02
   6.24519E-02  6.23211E-02  6.24649E-02  6.31198E-02  6.40866E-02  6.49465E-02  6.54151E-02  6.58403E-02  6.65221E-02  6.74950E-02
   6.86141E-02  6.96535E-02  7.07234E-02  7.20948E-02  7.37249E-02  7.54506E-02  7.70757E-02  7.87337E-02  8.07329E-02  8.31174E-02
   8.56491E-02  8.83064E-02  9.12781E-02  9.45201E-02
 NY background values follow
     4.647E-02    4.634E-02    4.622E-02    4.609E-02    4.596E-02    4.583E-02    4.571E-02    4.558E-02    4.545E-02    4.532E-02
     4.520E-02    4.507E-02    4.494E-02    4.481E-02    4.469E-02    4.456E-02    4.443E-02    4.430E-02    4.417E-02    4.405E-02
     4.392E-02    4.379E-02    4.366E-02    4.354E-02    4.341E-02    4.328E-02    4.315E-02    4.302E-02    4.290E-02    4.277E-02
     4.264E-02    4.251E-02    4.238E-02    4.226E-02    4.213E-02    4.200E-02    4.187E-02    4.174E-02    4.162E-02    4.149E-02
     4.136E-02    4.123E-02    4.110E-02    4.098E-02    4.085E-02    4.072E-02    4.059E-02    4.046E-02    4.033E-02    4.021E-02
     4.008E-02    3.995E-02    3.982E-02    3.969E-02    3.956E-02    3.944E-02    3.931E-02    3.918E-02    3.905E-02    3.892E-02
     3.879E-02    3.866E-02    3.854E-02    3.841E-02    3.828E-02    3.815E-02    3.802E-02    3.789E-02    3.776E-02    3.763E-02
