 LCModel (Version 6.3-1N) Copyright: S.W. Provencher.          Ref.: Magn. Reson. Med. 30:672-679 (1993).                
 Slice_N1@20_17  02-Jun-2023 14:37:32
 27 lines in following concentration table = NCONC+1
    Conc.  %SD /Cr+PCr  Metabolite                                         
 2.15E-06  15% 2.4E-04 Mac                                                 
 3.26E-02  27%   3.711 Cr                                                  
 3.77E-02  23%   4.289 PCr                                                 
 6.80E-02  12%   7.724 Ins                                                 
 7.68E-02   8%   8.725 NAA                                                 
 6.26E-02  11%   7.110 Tau                                                 
 1.10E-02  16%   1.249 PCho                                                
    0.000 999%   0.000 GPC                                                 
 6.47E-02  13%   7.354 Glu                                                 
 3.08E-02  22%   3.501 Gln                                                 
    0.000 999%   0.000 Ala                                                 
 1.50E-02  75%   1.699 Asc                                                 
 6.78E-03  99%   0.771 Asp                                                 
 5.11E-03  71%   0.580 GABA                                                
 7.10E-03  62%   0.807 Glc                                                 
 1.12E-02  34%   1.277 GSH                                                 
    0.000 999%   0.000 Lac                                                 
 1.01E-03 476%   0.115 NAAG                                                
    0.000 999%   0.000 PE                                                  
 1.10E-02  16%   1.249 GPC+PCho                                            
 7.78E-02   8%   8.839 NAA+NAAG                                            
 9.55E-02  11%  10.855 Glu+Gln                                             
 7.04E-02   8%   8.000 Cr+PCr                                              
 7.78E-02   8%   8.839 NAA+NAAG                                            
 7.04E-02   8%   8.000 Cr+PCr                                              
 9.55E-02  11%  10.855 Glu+Gln                                             
   6 lines in following misc. output table
  FWHM = 0.023 ppm    S/N =   4                                            
  Data shift = 0.012 ppm                                                   
  Ph: -30 deg     -17.2 deg/ppm                                            
  alphaB,S = 2.2E-01,   2.5E+01                                            
   18 spline knots.   Ns = 5(1)                                            
  ( 4) 3 infls.   ( 3) 1 extrs.                                            
  654 points on ppm-axis = NY
      4.000000     3.994181     3.988363     3.982544     3.976726     3.970907     3.965088     3.959270     3.953451     3.947633
      3.941814     3.935995     3.930177     3.924358     3.918540     3.912721     3.906902     3.901084     3.895265     3.889446
      3.883628     3.877809     3.871991     3.866172     3.860353     3.854535     3.848716     3.842898     3.837079     3.831260
      3.825442     3.819623     3.813805     3.807986     3.802167     3.796349     3.790530     3.784712     3.778893     3.773074
      3.767256     3.761437     3.755619     3.749800     3.743981     3.738163     3.732344     3.726526     3.720707     3.714888
      3.709070     3.703251     3.697433     3.691614     3.685795     3.679977     3.674158     3.668339     3.662521     3.656702
      3.650884     3.645065     3.639246     3.633428     3.627609     3.621791     3.615972     3.610153     3.604335     3.598516
      3.592698     3.586879     3.581060     3.575242     3.569423     3.563605     3.557786     3.551967     3.546149     3.540330
      3.534512     3.528693     3.522874     3.517056     3.511237     3.505419     3.499600     3.493781     3.487963     3.482144
      3.476326     3.470507     3.464688     3.458870     3.453051     3.447232     3.441414     3.435595     3.429777     3.423958
      3.418139     3.412321     3.406502     3.400684     3.394865     3.389046     3.383228     3.377409     3.371591     3.365772
      3.359953     3.354135     3.348316     3.342498     3.336679     3.330860     3.325042     3.319223     3.313405     3.307586
      3.301767     3.295949     3.290130     3.284312     3.278493     3.272674     3.266856     3.261037     3.255219     3.249400
      3.243581     3.237763     3.231944     3.226125     3.220307     3.214488     3.208670     3.202851     3.197032     3.191214
      3.185395     3.179577     3.173758     3.167939     3.162121     3.156302     3.150484     3.144665     3.138846     3.133028
      3.127209     3.121391     3.115572     3.109753     3.103935     3.098116     3.092298     3.086479     3.080660     3.074842
      3.069023     3.063205     3.057386     3.051567     3.045749     3.039930     3.034111     3.028293     3.022474     3.016656
      3.010837     3.005018     2.999200     2.993381     2.987563     2.981744     2.975925     2.970107     2.964288     2.958470
      2.952651     2.946832     2.941014     2.935195     2.929377     2.923558     2.917739     2.911921     2.906102     2.900284
      2.894465     2.888646     2.882828     2.877009     2.871191     2.865372     2.859553     2.853735     2.847916     2.842098
      2.836279     2.830460     2.824642     2.818823     2.813004     2.807186     2.801367     2.795549     2.789730     2.783911
      2.778093     2.772274     2.766456     2.760637     2.754818     2.749000     2.743181     2.737363     2.731544     2.725725
      2.719907     2.714088     2.708270     2.702451     2.696632     2.690814     2.684995     2.679177     2.673358     2.667539
      2.661721     2.655902     2.650084     2.644265     2.638446     2.632628     2.626809     2.620991     2.615172     2.609353
      2.603535     2.597716     2.591897     2.586079     2.580260     2.574442     2.568623     2.562804     2.556986     2.551167
      2.545349     2.539530     2.533711     2.527893     2.522074     2.516256     2.510437     2.504618     2.498800     2.492981
      2.487163     2.481344     2.475525     2.469707     2.463888     2.458070     2.452251     2.446432     2.440614     2.434795
      2.428977     2.423158     2.417339     2.411521     2.405702     2.399884     2.394065     2.388246     2.382428     2.376609
      2.370790     2.364972     2.359153     2.353335     2.347516     2.341697     2.335879     2.330060     2.324242     2.318423
      2.312604     2.306786     2.300967     2.295149     2.289330     2.283511     2.277693     2.271874     2.266056     2.260237
      2.254418     2.248600     2.242781     2.236963     2.231144     2.225325     2.219507     2.213688     2.207870     2.202051
      2.196232     2.190414     2.184595     2.178777     2.172958     2.167139     2.161321     2.155502     2.149683     2.143865
      2.138046     2.132228     2.126409     2.120590     2.114772     2.108953     2.103135     2.097316     2.091497     2.085679
      2.079860     2.074042     2.068223     2.062404     2.056586     2.050767     2.044949     2.039130     2.033311     2.027493
      2.021674     2.015856     2.010037     2.004218     1.998400     1.992581     1.986763     1.980944     1.975126     1.969307
      1.963489     1.957670     1.951852     1.946033     1.940215     1.934397     1.928578     1.922760     1.916941     1.911123
      1.905304     1.899486     1.893667     1.887849     1.882030     1.876212     1.870393     1.864575     1.858756     1.852938
      1.847119     1.841301     1.835482     1.829664     1.823845     1.818027     1.812208     1.806390     1.800571     1.794753
      1.788934     1.783116     1.777297     1.771479     1.765660     1.759842     1.754023     1.748205     1.742386     1.736568
      1.730749     1.724931     1.719113     1.713294     1.707476     1.701657     1.695839     1.690020     1.684202     1.678383
      1.672565     1.666746     1.660928     1.655109     1.649291     1.643472     1.637654     1.631835     1.626017     1.620198
      1.614380     1.608561     1.602743     1.596924     1.591106     1.585287     1.579469     1.573650     1.567832     1.562013
      1.556195     1.550376     1.544558     1.538739     1.532921     1.527102     1.521284     1.515465     1.509647     1.503829
      1.498010     1.492192     1.486373     1.480555     1.474736     1.468918     1.463099     1.457281     1.451462     1.445644
      1.439825     1.434007     1.428188     1.422370     1.416551     1.410733     1.404914     1.399096     1.393277     1.387459
      1.381640     1.375822     1.370003     1.364185     1.358366     1.352548     1.346729     1.340911     1.335092     1.329274
      1.323455     1.317637     1.311818     1.306000     1.300182     1.294363     1.288545     1.282726     1.276908     1.271089
      1.265271     1.259452     1.253634     1.247815     1.241997     1.236178     1.230360     1.224541     1.218723     1.212904
      1.207086     1.201267     1.195449     1.189630     1.183812     1.177993     1.172175     1.166356     1.160538     1.154719
      1.148901     1.143082     1.137264     1.131445     1.125627     1.119808     1.113990     1.108171     1.102353     1.096534
      1.090716     1.084898     1.079079     1.073261     1.067442     1.061624     1.055805     1.049987     1.044168     1.038350
      1.032531     1.026713     1.020894     1.015076     1.009257     1.003439     0.997620     0.991802     0.985983     0.980165
      0.974346     0.968528     0.962709     0.956891     0.951072     0.945254     0.939435     0.933617     0.927798     0.921980
      0.916161     0.910343     0.904524     0.898706     0.892887     0.887069     0.881251     0.875432     0.869614     0.863795
      0.857977     0.852158     0.846340     0.840521     0.834703     0.828884     0.823066     0.817247     0.811429     0.805610
      0.799792     0.793973     0.788155     0.782336     0.776518     0.770699     0.764881     0.759062     0.753244     0.747425
      0.741607     0.735788     0.729970     0.724151     0.718333     0.712514     0.706696     0.700877     0.695059     0.689240
      0.683422     0.677603     0.671785     0.665967     0.660148     0.654330     0.648511     0.642693     0.636874     0.631056
      0.625237     0.619419     0.613600     0.607782     0.601963     0.596145     0.590326     0.584508     0.578689     0.572871
      0.567052     0.561234     0.555415     0.549597     0.543778     0.537960     0.532141     0.526323     0.520504     0.514686
      0.508867     0.503049     0.497230     0.491412     0.485593     0.479775     0.473956     0.468138     0.462319     0.456501
      0.450682     0.444864     0.439045     0.433227     0.427408     0.421590     0.415771     0.409953     0.404134     0.398316
      0.392497     0.386679     0.380860     0.375042     0.369223     0.363405     0.357586     0.351767     0.345949     0.340130
      0.334312     0.328493     0.322675     0.316856     0.311038     0.305219     0.299401     0.293582     0.287764     0.281945
      0.276127     0.270308     0.264490     0.258671     0.252853     0.247034     0.241216     0.235397     0.229579     0.223760
      0.217942     0.212123     0.206305     0.200486
 NY phased data points follow
  -9.45773E-02 -1.21402E-01 -4.27516E-02 -6.11987E-02 -3.25703E-01 -1.50390E-01 -1.57419E-01 -1.11786E-01 -2.53927E-01 -1.01731E-01
  -5.65488E-02 -1.00226E-01  4.38893E-01  3.85674E-01  4.84016E-01  4.56723E-01  4.13435E-01  5.12701E-01  1.27932E-01  4.40815E-02
  -3.46069E-02  1.47021E-02  6.63513E-02  9.06619E-02 -2.29401E-01 -4.58912E-01  3.58427E-02 -1.68674E-01 -1.87465E-01 -1.25807E-01
  -5.13111E-02  3.29387E-01  2.63633E-01 -7.14566E-02 -4.74054E-02  8.91276E-02 -3.01795E-01 -4.89492E-01 -7.06754E-01 -4.47933E-01
  -1.36907E-01  3.06306E-02  3.09022E-01  1.99873E-01  1.09101E-01  1.09947E-01  3.41299E-01  4.31778E-01  3.21862E-01  2.67781E-01
   2.33788E-01  1.99705E-01  3.95858E-01  1.59070E-01 -1.18817E-01 -7.53423E-02 -2.25870E-01 -2.07333E-01 -6.10296E-02 -2.83862E-01
  -5.48885E-01 -2.83692E-01 -2.15870E-01 -3.09225E-01 -3.39565E-01 -1.36980E-01  1.01621E-01  2.75609E-01  3.49872E-01  1.16742E-01
   1.23912E-01  1.12882E-01  8.08892E-02  9.16647E-02 -5.70325E-03  3.18700E-02 -1.65717E-01 -2.73047E-02  1.60205E-01 -4.17668E-01
  -4.76784E-01 -4.33258E-01 -2.24908E-01  2.47850E-03 -5.14560E-03  2.55505E-01  4.22117E-01  3.42250E-01  3.43381E-02  1.61290E-01
   3.04340E-01  5.93321E-02 -3.82141E-02  2.42234E-01  1.94011E-02  1.69683E-01  8.39009E-02 -1.67112E-01  1.83512E-01 -2.88123E-01
  -2.73409E-01 -7.02687E-02 -1.69484E-01 -2.38005E-01  2.18916E-01  4.09938E-01  1.52403E-01  2.37418E-01  3.03634E-01  3.02355E-01
   1.87675E-01  6.60184E-01  4.33418E-01  3.11132E-01  5.18986E-01  1.54891E-01  2.43727E-01  4.00663E-01  3.18012E-01  5.28197E-02
   2.59852E-01  2.17941E-01  7.02648E-02  7.04159E-02 -1.78752E-01 -1.02926E-01 -8.09267E-02  1.38016E-01 -1.13251E-01 -3.65356E-01
  -4.51699E-01 -4.83728E-01 -5.12922E-01 -7.65974E-01 -5.06503E-01 -6.16117E-01 -3.55455E-01 -6.79327E-01 -7.50918E-01 -3.11327E-01
  -3.55741E-01 -1.09140E-01 -2.80402E-01 -6.93861E-02  2.44490E-02 -6.64718E-02 -1.77484E-02  3.70843E-01  6.66391E-02 -1.19739E-01
   3.84036E-01  1.37906E-01  1.18769E-01  2.16224E-01  1.43912E-01  1.84119E-01  1.41164E-01 -1.41010E-02  3.52536E-01  1.53627E-01
   1.45629E-01  6.54971E-01  7.13288E-01  6.52104E-01  6.15196E-01  6.46028E-01  8.76494E-01  9.02015E-01  8.75419E-02 -5.90146E-01
  -1.00165E+00 -5.98824E-01 -4.29633E-01 -5.17534E-01 -3.37507E-01 -2.65286E-01 -2.40977E-01 -2.27944E-01 -2.62415E-01 -2.90874E-01
  -2.38570E-01 -4.03245E-01 -2.04580E-01 -3.03514E-01 -1.07024E-01 -4.46024E-01 -4.06023E-01 -3.71566E-01 -5.59909E-01 -2.34425E-01
  -2.16487E-01 -3.97087E-02 -2.86462E-01 -2.34556E-02 -4.63511E-01 -5.01675E-01 -2.05671E-01 -1.37010E-01 -2.36182E-01 -1.50855E-01
   1.12311E-01 -2.26317E-01  1.04612E-01 -5.45457E-03  1.38237E-02 -1.27538E-01 -1.18195E-01 -1.86876E-01 -7.69221E-02  1.88033E-01
   9.03375E-02  2.01892E-01  1.75413E-01  4.25887E-02 -1.90484E-01  2.41772E-02  6.01384E-02  1.82933E-01  1.63854E-01  2.46307E-01
  -1.01071E-01  9.00745E-03  2.64228E-01  6.31456E-02  4.94494E-01  1.08174E-01  3.15584E-01  5.61673E-01  2.85472E-01  1.50020E-01
   1.32428E-01  4.52023E-01  1.96864E-01  5.60570E-02  3.83973E-02 -1.13426E-01  7.33440E-02  1.24970E-01 -1.41148E-02 -1.91895E-01
  -4.89537E-02 -2.70306E-02 -2.21764E-01 -2.10997E-01  5.79969E-02  2.25192E-01  8.56372E-02 -1.78701E-01 -5.44220E-01  2.40100E-02
  -7.41214E-03 -7.16685E-02 -1.04246E-01 -3.05786E-01  7.34239E-02 -1.61509E-01 -3.40413E-02  4.34980E-02 -4.46611E-02 -3.53432E-01
  -2.54377E-01  1.80034E-01  2.78835E-01  4.24850E-02  6.84533E-03  1.27942E-01 -7.26519E-02 -3.47020E-02  1.10627E-01  3.20974E-01
   8.59969E-02  2.54203E-01  1.54634E-01 -7.82436E-03  9.87613E-02  1.61659E-01  1.87705E-01 -5.64564E-03 -5.34510E-02 -6.44276E-02
  -5.49336E-03 -2.37307E-01 -1.97295E-01 -1.60760E-01 -4.92495E-02 -1.42581E-01  5.37007E-02  2.10724E-01  3.76447E-01  5.43850E-01
   1.49750E-01  1.73679E-01  2.48068E-01  3.84597E-01  8.61125E-02  2.29008E-01  1.88724E-01 -2.44662E-03 -3.47530E-02  8.12386E-02
   6.09130E-01  3.47251E-01  3.01387E-01  2.25224E-01  2.61150E-01  2.89001E-01  2.05145E-01  3.00202E-01  2.62661E-01  4.54468E-01
   2.19290E-01  1.92646E-01  2.00206E-01  7.53671E-02  2.39702E-01 -4.77077E-02  2.49317E-01  2.03005E-01 -2.61392E-01 -1.32869E-01
  -1.59364E-01 -2.51873E-01 -3.81921E-01 -3.71281E-01 -2.87963E-01 -1.80627E-01 -3.01427E-01  6.70422E-02  6.70855E-02 -4.08458E-02
   2.01579E-01 -3.85452E-02 -1.28973E-02 -1.16253E-01 -9.87920E-02 -2.67739E-01 -2.33121E-01 -1.27318E-01 -2.29151E-01 -4.06744E-01
  -4.59513E-01 -1.06131E-01 -6.74032E-01 -1.73561E+00 -1.68522E+00 -7.35610E-01 -4.97485E-01 -3.81737E-01  1.28358E-02 -1.37443E-02
  -9.89490E-02  3.35534E-02  6.52203E-02  6.29223E-02  9.06166E-02 -4.17403E-02 -5.49577E-02 -2.19082E-03  4.39679E-02  1.34313E-01
   1.45732E-01  1.69505E-01  1.75368E-01  1.38271E-01 -4.84289E-02 -9.13433E-02  2.38113E-01 -9.44452E-02  1.45496E-01  5.90867E-01
   2.30123E-01  1.40077E-02  3.30169E-01  4.15516E-01 -6.03907E-02  3.01636E-01  1.15365E-01  1.41535E-01  1.90931E-01 -6.97995E-02
   2.15357E-01  1.81102E-01  4.45993E-01  5.57154E-02 -1.36011E-01  2.21510E-01  3.21387E-01  3.62698E-01  1.97575E-01  4.18902E-03
  -1.35249E-01  6.26423E-03 -4.26179E-04  9.76352E-02  4.08075E-01  3.16000E-01  1.15003E-01  1.09831E-01  3.21773E-01  3.14755E-01
   2.87766E-01  1.85153E-01  2.34933E-02  8.63878E-02 -1.33752E-01  1.45583E-01  1.75935E-01 -3.45962E-02  1.31419E-01  2.18885E-02
  -1.11061E-01 -3.30348E-01 -3.39267E-01 -2.00859E-01 -3.05671E-01 -2.54228E-01 -1.36064E-01 -2.86249E-01 -7.05113E-02  1.66045E-01
  -3.96789E-04 -2.45009E-01 -1.81289E-01 -2.28720E-01 -3.29858E-01 -3.74343E-01 -2.90574E-01  1.03436E-01 -1.14981E-01 -3.36248E-01
  -2.69953E-01 -8.90175E-02 -2.67711E-01 -1.35690E-01  7.36323E-02 -1.76433E-01 -5.05085E-02  1.22474E-01  1.63121E-01  4.76948E-02
   2.43801E-02  4.58370E-02  2.12596E-01  1.29289E-01  1.20924E-01  1.23332E-01  1.63366E-01  3.95180E-02 -4.40584E-02  4.68616E-01
   3.88233E-01  2.37401E-01  2.39812E-01 -2.81909E-02  6.60520E-02  2.51707E-01 -2.53659E-02 -1.22308E-01 -1.55966E-01  1.76877E-01
  -9.31603E-02 -5.59228E-02  2.81515E-01 -1.36627E-01 -7.23674E-02 -2.50256E-01  2.26038E-02 -1.00894E-01  8.57857E-02  1.09731E-01
  -2.64406E-01 -2.37563E-01 -3.62130E-01 -6.42465E-02 -4.72541E-01 -2.32334E-01  2.95386E-02 -1.48854E-01 -8.52087E-02 -2.28510E-01
  -3.36374E-03  9.95343E-02  8.79937E-02  4.44436E-01  1.84769E-01 -9.32781E-02  2.47391E-01  1.22651E-01  1.20608E-01 -2.50729E-02
   1.59666E-01  2.84912E-01 -1.48461E-01  2.01006E-01  1.13175E-01 -1.84336E-01  3.20498E-01  1.16065E-01 -9.48456E-02  2.85903E-02
   4.94222E-02  1.99860E-01 -5.48099E-02  2.49073E-01  2.81642E-02 -3.03252E-01  3.28473E-02 -4.97690E-02  7.23457E-02 -6.84880E-02
  -8.49006E-02  3.29200E-02  3.35143E-02  3.24524E-01  2.03399E-01 -5.26986E-02  3.68121E-03  8.98095E-02 -7.07531E-02 -1.44626E-01
   9.82651E-02  2.71780E-01  1.49412E-01  3.20055E-02 -1.14749E-01 -4.52670E-01 -4.04169E-01 -4.45559E-01 -3.37030E-01 -3.78623E-01
  -5.90003E-01 -3.45457E-01 -2.50053E-01 -1.92700E-01 -1.30129E-01  3.08872E-02 -2.42199E-01  1.29116E-02  9.45022E-02 -3.75392E-02
   1.58217E-01 -2.54170E-01 -3.57984E-02 -1.39703E-02 -1.13181E-01 -3.30555E-02  2.87169E-01  4.49348E-01  7.85574E-02  8.01675E-02
   1.55513E-01  1.50904E-01 -1.37101E-01  9.76768E-02  3.72528E-01  7.06866E-02  1.54656E-01  2.53963E-01  1.04432E-01  8.13668E-02
   1.33347E-01  1.32639E-01  3.86384E-02  4.96650E-02  4.87281E-02 -8.99174E-02 -8.24124E-02  1.75166E-01  2.06463E-01  1.67722E-01
   2.05970E-01  1.46966E-01  1.16062E-01 -1.55263E-01  6.55979E-02  9.09495E-02 -3.65396E-02  1.71753E-01  2.08719E-02 -8.76473E-02
  -1.05403E-01  6.76338E-02  4.77865E-02  3.78853E-02 -4.75992E-02  1.20811E-01  6.51217E-02 -2.66457E-01  2.60094E-01  5.27648E-02
   3.18912E-01  5.72490E-01  1.11201E-03  3.34099E-02 -7.88788E-02  3.15611E-01  1.70828E-01  8.41628E-02  1.53117E-01  2.77262E-02
   8.73320E-02 -1.55599E-01  2.05385E-01 -6.68395E-02 -2.14970E-02 -8.21440E-02 -2.20272E-02  1.52208E-02 -1.78336E-01  3.24234E-01
   1.31976E-01  3.00652E-01  4.35690E-02  4.92209E-02  3.83248E-02 -1.40934E-01  3.53703E-01  1.43683E-01 -1.22894E-01  6.26626E-02
  -4.58992E-03 -6.65100E-02  7.57421E-02 -4.18144E-02 -1.28623E-01 -2.92414E-01  7.12089E-02 -1.52295E-01 -5.82200E-02  2.09744E-01
  -9.58858E-02 -4.33624E-02 -7.29391E-02  2.51227E-01 -8.42444E-02 -2.29739E-02  1.28939E-01  3.29157E-04 -4.89620E-02 -1.23490E-01
  -2.10616E-02  1.06359E-01 -1.79460E-02 -1.09679E-01  4.05566E-01  4.71389E-02  2.18768E-01  1.78907E-01 -7.12958E-02  2.54801E-01
  -1.13464E-01  1.45494E-01  1.49886E-01 -8.33974E-03
 NY points of the fit to the data follow
  -2.24523E-02 -2.06322E-02 -2.72963E-02 -4.02815E-02 -5.53897E-02 -6.79958E-02 -7.35742E-02 -6.22992E-02 -3.21964E-02 -5.28891E-03
   1.86068E-02  1.11128E-01  2.93023E-01  4.38410E-01  4.63014E-01  4.50264E-01  4.63592E-01  4.18743E-01  2.81367E-01  1.54626E-01
   7.92395E-02  3.08282E-02  1.09300E-03 -2.35901E-02 -4.93739E-02 -7.50287E-02 -9.73827E-02 -1.15284E-01 -1.29624E-01 -1.42315E-01
  -1.55257E-01 -1.68802E-01 -1.83482E-01 -2.02441E-01 -2.27945E-01 -2.54574E-01 -2.74689E-01 -2.89334E-01 -3.00322E-01 -2.83804E-01
  -2.06050E-01 -7.85862E-02  4.63571E-02  1.37960E-01  2.08930E-01  2.65369E-01  2.90427E-01  2.77835E-01  2.38521E-01  1.94324E-01
   1.56664E-01  1.21754E-01  8.73572E-02  5.33319E-02  1.98700E-02 -1.89869E-02 -6.39925E-02 -1.12230E-01 -1.60364E-01 -2.09503E-01
  -2.63991E-01 -3.10671E-01 -3.18894E-01 -2.88156E-01 -2.40660E-01 -1.67270E-01 -5.98838E-02  5.05400E-02  1.38860E-01  2.20619E-01
   2.84076E-01  2.79469E-01  2.24256E-01  1.60948E-01  9.04526E-02  1.33734E-02 -5.76964E-02 -1.20433E-01 -2.11949E-01 -3.36296E-01
  -3.97945E-01 -3.23053E-01 -1.74381E-01 -4.04833E-02  8.69459E-02  2.20612E-01  3.01652E-01  3.10743E-01  2.88914E-01  2.60313E-01
   2.32687E-01  2.08834E-01  1.85374E-01  1.55226E-01  1.13545E-01  6.14403E-02 -1.00536E-03 -7.96083E-02 -1.75602E-01 -2.74167E-01
  -3.37052E-01 -3.21936E-01 -2.17613E-01 -6.10179E-02  8.53344E-02  1.80929E-01  2.25093E-01  2.39488E-01  2.44464E-01  2.46412E-01
   2.48836E-01  2.52018E-01  2.54750E-01  2.56446E-01  2.57665E-01  2.59365E-01  2.61633E-01  2.60944E-01  2.55282E-01  2.47864E-01
   2.36774E-01  2.07054E-01  1.56218E-01  9.82421E-02  3.80945E-02 -2.51123E-02 -7.93617E-02 -1.27383E-01 -1.95382E-01 -3.01798E-01
  -4.13878E-01 -5.01102E-01 -5.42997E-01 -4.99387E-01 -3.76820E-01 -3.06207E-01 -4.23477E-01 -6.42906E-01 -7.00252E-01 -5.39059E-01
  -3.35736E-01 -2.01772E-01 -1.12960E-01 -5.60836E-02 -1.44539E-02  1.92666E-02  4.83962E-02  7.42709E-02  9.73987E-02  1.18216E-01
   1.37372E-01  1.55746E-01  1.74263E-01  1.93315E-01  2.13195E-01  2.34733E-01  2.59017E-01  2.87309E-01  3.20610E-01  3.60298E-01
   4.11699E-01  4.87927E-01  5.77450E-01  6.26185E-01  6.27368E-01  6.84293E-01  7.80081E-01  6.28791E-01  7.43798E-02 -5.57144E-01
  -8.36934E-01 -7.69552E-01 -6.19125E-01 -5.00940E-01 -4.23836E-01 -3.79070E-01 -3.45468E-01 -3.11261E-01 -2.81317E-01 -2.66080E-01
  -2.59761E-01 -2.48658E-01 -2.30195E-01 -2.13090E-01 -2.02709E-01 -1.96935E-01 -1.92700E-01 -1.86659E-01 -1.77670E-01 -1.68530E-01
  -1.61014E-01 -1.53327E-01 -1.44004E-01 -1.33546E-01 -1.23162E-01 -1.13242E-01 -1.04174E-01 -9.53985E-02 -8.62515E-02 -7.74472E-02
  -7.00386E-02 -6.29568E-02 -5.42242E-02 -4.49866E-02 -3.96242E-02 -4.01389E-02 -4.19340E-02 -3.89463E-02 -3.22083E-02 -2.88844E-02
  -3.27304E-02 -3.90984E-02 -4.19401E-02 -4.06885E-02 -3.78206E-02 -3.49866E-02 -3.26509E-02 -3.10627E-02 -3.01543E-02 -2.91429E-02
  -2.37197E-02 -8.24265E-03  1.23818E-02  2.74612E-02  5.38126E-02  1.25566E-01  2.22623E-01  2.68197E-01  2.38553E-01  2.07732E-01
   2.33550E-01  2.71914E-01  2.55690E-01  1.83351E-01  1.02126E-01  4.52035E-02  1.13191E-02 -9.45485E-03 -2.25256E-02 -3.29229E-02
  -4.23820E-02 -5.14460E-02 -5.91054E-02 -6.42955E-02 -6.72498E-02 -6.92962E-02 -7.11728E-02 -7.29512E-02 -7.44341E-02 -7.60982E-02
  -7.99689E-02 -8.78465E-02 -9.72064E-02 -1.05215E-01 -1.15587E-01 -1.28727E-01 -1.19708E-01 -7.29854E-02 -1.96325E-02  7.46460E-03
   3.02111E-02  7.53164E-02  1.07307E-01  9.90037E-02  9.07931E-02  1.07964E-01  1.28990E-01  1.35754E-01  1.47088E-01  1.71374E-01
   1.92152E-01  1.99580E-01  1.86045E-01  1.53471E-01  1.14211E-01  7.26324E-02  3.21068E-02 -1.01363E-02 -5.37934E-02 -9.77290E-02
  -1.42620E-01 -1.83806E-01 -2.08709E-01 -2.05220E-01 -1.63160E-01 -7.60059E-02  4.82641E-02  1.82835E-01  2.93206E-01  3.56835E-01
   3.64742E-01  3.32957E-01  2.94228E-01  2.62157E-01  2.39410E-01  2.28208E-01  2.26412E-01  2.29623E-01  2.31952E-01  2.31340E-01
   2.28641E-01  2.24266E-01  2.19705E-01  2.14798E-01  2.10126E-01  2.05566E-01  2.00137E-01  1.93160E-01  1.84437E-01  1.73099E-01
   1.58439E-01  1.39786E-01  1.16442E-01  8.74349E-02  5.22491E-02  1.02230E-02 -3.94202E-02 -9.59403E-02 -1.56634E-01 -2.15546E-01
  -2.67580E-01 -3.07256E-01 -3.27280E-01 -3.22971E-01 -2.91398E-01 -2.34651E-01 -1.57560E-01 -7.32301E-02 -1.22985E-03  4.69754E-02
   6.52882E-02  5.73565E-02  2.86400E-02 -1.10768E-02 -4.89015E-02 -7.49258E-02 -8.91477E-02 -1.32187E-01 -2.33012E-01 -3.25275E-01
  -3.44512E-01 -4.89357E-01 -9.62891E-01 -1.46308E+00 -1.47548E+00 -1.00290E+00 -5.25483E-01 -2.69231E-01 -1.33749E-01 -6.93790E-02
  -3.19917E-02 -6.91775E-03  1.10911E-02  2.44141E-02  3.40128E-02  4.09364E-02  4.61750E-02  4.97753E-02  5.12964E-02  5.04371E-02
   4.76012E-02  4.37828E-02  3.94640E-02  3.49909E-02  3.12354E-02  2.99472E-02  3.22824E-02  3.71163E-02  4.31969E-02  4.93060E-02
   5.49743E-02  6.03098E-02  6.54325E-02  7.05919E-02  7.50402E-02  7.81555E-02  8.04998E-02  8.31505E-02  8.63975E-02  8.97358E-02
   9.24440E-02  9.42821E-02  9.59642E-02  9.81333E-02  1.00668E-01  1.03036E-01  1.04665E-01  1.05539E-01  1.06394E-01  1.07990E-01
   1.10286E-01  1.12675E-01  1.14546E-01  1.15261E-01  1.14282E-01  1.11908E-01  1.08867E-01  1.05581E-01  1.02097E-01  9.80259E-02
   9.29572E-02  8.70335E-02  8.07808E-02  7.41030E-02  6.66994E-02  5.92000E-02  5.25234E-02  4.64868E-02  4.04480E-02  3.44475E-02
   2.88126E-02  2.36729E-02  1.92173E-02  1.54526E-02  1.19724E-02  8.47159E-03  5.04436E-03  1.71465E-03 -1.43075E-03 -3.88530E-03
  -5.57453E-03 -6.94592E-03 -8.05207E-03 -8.34746E-03 -7.48414E-03 -5.70186E-03 -3.36710E-03 -5.96403E-04  2.63363E-03  6.60037E-03
   1.12403E-02  1.53841E-02  1.80718E-02  2.03468E-02  2.40933E-02  2.99703E-02  3.71299E-02  4.43752E-02  5.13259E-02  5.84008E-02
   6.64137E-02  7.57892E-02  8.61659E-02  9.68391E-02  1.07261E-01  1.17377E-01  1.27237E-01  1.36628E-01  1.44896E-01  1.51146E-01
   1.54915E-01  1.56530E-01  1.56522E-01  1.55268E-01  1.52931E-01  1.49458E-01  1.44613E-01  1.37760E-01  1.28724E-01  1.18187E-01
   1.07477E-01  9.75497E-02  8.82810E-02  7.90292E-02  6.96253E-02  6.06183E-02  5.27075E-02  4.58011E-02  3.93274E-02  3.32470E-02
   2.81163E-02  2.40059E-02  2.06136E-02  1.76549E-02  1.55350E-02  1.51116E-02  1.65649E-02  1.90964E-02  2.20267E-02  2.54104E-02
   2.93899E-02  3.39538E-02  3.90785E-02  4.42709E-02  4.87043E-02  5.22239E-02  5.49751E-02  5.68730E-02  5.83047E-02  6.00275E-02
   6.21349E-02  6.36361E-02  6.36729E-02  6.24365E-02  6.06313E-02  5.84725E-02  5.55859E-02  5.20149E-02  4.84330E-02  4.52863E-02
   4.22206E-02  3.88783E-02  3.53889E-02  3.18414E-02  2.83035E-02  2.46996E-02  2.08494E-02  1.69089E-02  1.35309E-02  1.08916E-02
   8.06478E-03  4.37999E-03  3.06699E-04 -4.00613E-03 -9.41197E-03 -1.63963E-02 -2.44742E-02 -3.29263E-02 -4.16818E-02 -5.15132E-02
  -6.35319E-02 -7.81317E-02 -9.40903E-02 -1.09672E-01 -1.24433E-01 -1.38837E-01 -1.52687E-01 -1.64914E-01 -1.75152E-01 -1.84097E-01
  -1.91573E-01 -1.95983E-01 -1.96594E-01 -1.94931E-01 -1.92319E-01 -1.88089E-01 -1.81567E-01 -1.73677E-01 -1.65636E-01 -1.57884E-01
  -1.50504E-01 -1.43074E-01 -1.34715E-01 -1.25326E-01 -1.15582E-01 -1.05541E-01 -9.48956E-02 -8.40640E-02 -7.35772E-02 -6.33917E-02
  -5.37580E-02 -4.48584E-02 -3.60974E-02 -2.71036E-02 -1.89427E-02 -1.25259E-02 -6.71572E-03 -2.33560E-04  6.11443E-03  1.08449E-02
   1.42258E-02  1.76575E-02  2.14030E-02  2.45452E-02  2.66965E-02  2.81888E-02  2.96366E-02  3.14244E-02  3.28844E-02  3.33650E-02
   3.38438E-02  3.52638E-02  3.71698E-02  3.90779E-02  4.10627E-02  4.27404E-02  4.34483E-02  4.35080E-02  4.35163E-02  4.33966E-02
   4.31145E-02  4.29073E-02  4.27889E-02  4.25518E-02  4.23213E-02  4.22856E-02  4.22889E-02  4.24237E-02  4.30778E-02  4.37620E-02
   4.30113E-02  4.06396E-02  3.88553E-02  3.91264E-02  3.99728E-02  3.97814E-02  3.92635E-02  3.92876E-02  3.91644E-02  3.82887E-02
   3.76352E-02  3.84840E-02  4.03585E-02  4.18443E-02  4.25913E-02  4.33234E-02  4.45861E-02  4.60037E-02  4.70778E-02  4.78475E-02
   4.88011E-02  4.97684E-02  4.98805E-02  4.91786E-02  4.88403E-02  4.94614E-02  5.06307E-02  5.21172E-02  5.40033E-02  5.57458E-02
   5.67721E-02  5.77244E-02  5.95920E-02  6.23552E-02  6.49554E-02  6.63609E-02  6.63875E-02  6.56957E-02  6.56920E-02  6.71059E-02
   6.91862E-02  7.08424E-02  7.16308E-02  7.20647E-02  7.30519E-02  7.48583E-02  7.68831E-02  7.84235E-02  7.98082E-02  8.20907E-02
   8.52673E-02  8.81085E-02  9.03488E-02  9.28872E-02  9.61657E-02  9.97583E-02  1.03419E-01  1.07716E-01  1.13150E-01  1.19290E-01
   1.25044E-01  1.30194E-01  1.35313E-01  1.40595E-01
 NY background values follow
    -4.537E-02   -4.457E-02   -4.377E-02   -4.296E-02   -4.216E-02   -4.136E-02   -4.056E-02   -3.976E-02   -3.896E-02   -3.816E-02
    -3.736E-02   -3.656E-02   -3.576E-02   -3.496E-02   -3.416E-02   -3.336E-02   -3.257E-02   -3.177E-02   -3.097E-02   -3.018E-02
    -2.938E-02   -2.859E-02   -2.780E-02   -2.701E-02   -2.622E-02   -2.543E-02   -2.464E-02   -2.385E-02   -2.307E-02   -2.229E-02
    -2.150E-02   -2.072E-02   -1.994E-02   -1.917E-02   -1.839E-02   -1.762E-02   -1.684E-02   -1.607E-02   -1.531E-02   -1.454E-02
    -1.378E-02   -1.301E-02   -1.226E-02   -1.150E-02   -1.074E-02   -9.990E-03   -9.240E-03   -8.492E-03   -7.747E-03   -7.004E-03
    -6.263E-03   -5.525E-03   -4.790E-03   -4.057E-03   -3.327E-03   -2.600E-03   -1.875E-03   -1.152E-03   -4.329E-04    2.839E-04
     9.979E-04    1.709E-03    2.418E-03    3.123E-03    3.826E-03    4.526E-03    5.223E-03    5.917E-03    6.609E-03    7.297E-03
