 
 $NMID
 ID=''
 FMTDAT='(2E13.5)'
 TRAMP=   1.00000E+0
 VOLUME=   1.00000E+0
 $END
  -1.92847E+4  -5.34767E+2
  -4.80170E+4  -1.46338E+4
  -5.05944E+4  -4.90812E+3
  -4.70550E+4  -2.56335E+3
  -4.85476E+4  -2.42019E+3
  -4.85557E+4   1.24507E+3
  -4.64163E+4   2.43245E+3
  -4.63920E+4   2.43786E+3
  -4.60443E+4   4.78505E+3
  -4.44441E+4   5.54550E+3
  -4.42238E+4   5.64850E+3
  -4.38987E+4   7.53204E+3
  -4.27862E+4   8.48408E+3
  -4.27219E+4   8.65723E+3
  -4.25444E+4   1.00482E+4
  -4.16818E+4   1.09520E+4
  -4.15996E+4   1.14649E+4
  -4.11991E+4   1.29778E+4
  -4.03942E+4   1.41606E+4
  -4.02160E+4   1.47846E+4
  -3.96883E+4   1.61395E+4
  -3.86802E+4   1.74334E+4
  -3.83159E+4   1.82220E+4
  -3.77562E+4   1.93347E+4
  -3.67122E+4   2.02447E+4
  -3.60227E+4   2.12309E+4
  -3.54797E+4   2.21835E+4
  -3.44374E+4   2.28730E+4
  -3.36452E+4   2.34835E+4
  -3.28566E+4   2.42137E+4
  -3.17576E+4   2.50459E+4
  -3.09542E+4   2.56215E+4
  -3.02197E+4   2.62484E+4
  -2.90317E+4   2.67296E+4
  -2.80223E+4   2.73230E+4
  -2.70805E+4   2.79212E+4
  -2.59368E+4   2.83275E+4
  -2.48309E+4   2.87214E+4
  -2.38387E+4   2.93030E+4
  -2.28195E+4   2.96928E+4
  -2.17934E+4   2.98721E+4
  -2.09917E+4   3.01526E+4
  -2.00324E+4   3.02499E+4
  -1.89490E+4   3.03691E+4
  -1.80534E+4   3.05888E+4
  -1.71332E+4   3.08210E+4
  -1.62693E+4   3.09228E+4
  -1.53430E+4   3.10832E+4
  -1.44057E+4   3.12309E+4
  -1.34365E+4   3.13325E+4
  -1.26342E+4   3.14034E+4
  -1.17330E+4   3.13519E+4
  -1.08040E+4   3.12389E+4
  -9.87111E+3   3.13989E+4
  -8.99924E+3   3.13851E+4
  -8.13318E+3   3.12976E+4
  -7.29468E+3   3.12203E+4
  -6.50743E+3   3.11750E+4
  -5.72011E+3   3.09865E+4
  -4.80770E+3   3.07441E+4
  -3.95769E+3   3.05754E+4
  -3.12043E+3   3.04973E+4
  -2.36859E+3   3.03464E+4
  -1.52433E+3   3.01704E+4
  -7.79719E+2   2.98955E+4
   9.20010E+1   2.97383E+4
   8.96798E+2   2.95348E+4
   1.57350E+3   2.93148E+4
   2.29179E+3   2.89554E+4
   2.95384E+3   2.86232E+4
   3.77935E+3   2.82898E+4
   4.39944E+3   2.79188E+4
   5.02566E+3   2.76203E+4
   5.64547E+3   2.71585E+4
   6.36301E+3   2.67348E+4
   7.08964E+3   2.62828E+4
   7.68938E+3   2.58499E+4
   8.29878E+3   2.53850E+4
   8.94177E+3   2.49084E+4
   9.59760E+3   2.43466E+4
   1.01709E+4   2.39122E+4
   1.06998E+4   2.33056E+4
   1.11741E+4   2.27947E+4
   1.17375E+4   2.22499E+4
   1.22622E+4   2.17448E+4
   1.26936E+4   2.12111E+4
   1.30912E+4   2.06339E+4
   1.34908E+4   2.00812E+4
   1.40160E+4   1.94649E+4
   1.44023E+4   1.90317E+4
   1.48537E+4   1.84240E+4
   1.52739E+4   1.78280E+4
   1.56792E+4   1.73045E+4
   1.60085E+4   1.67769E+4
   1.63221E+4   1.63210E+4
   1.65899E+4   1.57570E+4
   1.68629E+4   1.51146E+4
   1.72159E+4   1.45724E+4
   1.74446E+4   1.40940E+4
   1.76177E+4   1.36344E+4
   1.77709E+4   1.30528E+4
   1.79784E+4   1.24850E+4
   1.82035E+4   1.20023E+4
   1.82780E+4   1.15438E+4
   1.83986E+4   1.11248E+4
   1.84488E+4   1.06811E+4
   1.85130E+4   1.02207E+4
   1.85697E+4   9.73216E+3
   1.85367E+4   9.35681E+3
   1.84913E+4   8.86828E+3
   1.85263E+4   8.40229E+3
   1.85125E+4   7.94557E+3
   1.85060E+4   7.61581E+3
   1.84196E+4   7.19890E+3
   1.83204E+4   6.73178E+3
   1.81821E+4   6.34663E+3
   1.80606E+4   6.00370E+3
   1.79111E+4   5.63598E+3
   1.77364E+4   5.22794E+3
   1.75384E+4   4.84308E+3
   1.73286E+4   4.49265E+3
   1.71657E+4   4.06627E+3
   1.68934E+4   3.75685E+3
   1.67111E+4   3.38462E+3
   1.65410E+4   2.99432E+3
   1.62086E+4   2.65808E+3
   1.59703E+4   2.41523E+3
   1.57094E+4   2.04150E+3
   1.54260E+4   1.69494E+3
   1.51819E+4   1.24464E+3
   1.48642E+4   1.01007E+3
   1.45362E+4   6.52193E+2
   1.42755E+4   3.48791E+2
   1.40090E+4   6.70834E+1
   1.36469E+4  -1.74352E+2
   1.32445E+4  -4.93642E+2
   1.30033E+4  -7.17586E+2
   1.25982E+4  -9.50714E+2
   1.23148E+4  -1.24292E+3
   1.20275E+4  -1.51834E+3
   1.16545E+4  -1.77396E+3
   1.13435E+4  -1.99964E+3
   1.10600E+4  -2.19867E+3
   1.06594E+4  -2.39816E+3
   1.02920E+4  -2.62026E+3
   9.96740E+3  -2.83371E+3
   9.64812E+3  -2.98061E+3
   9.20952E+3  -3.20455E+3
   8.94558E+3  -3.38181E+3
   8.52699E+3  -3.48466E+3
   8.24760E+3  -3.61722E+3
   7.79903E+3  -3.81232E+3
   7.41239E+3  -3.94685E+3
   7.19743E+3  -4.03446E+3
   6.84002E+3  -4.15151E+3
   6.50623E+3  -4.20319E+3
   6.12702E+3  -4.27212E+3
   5.82925E+3  -4.42120E+3
   5.48709E+3  -4.53894E+3
   5.18863E+3  -4.65170E+3
   4.83547E+3  -4.64233E+3
   4.54620E+3  -4.67911E+3
   4.28550E+3  -4.67160E+3
   3.88333E+3  -4.74954E+3
   3.59893E+3  -4.83184E+3
   3.36227E+3  -4.78690E+3
   3.00703E+3  -4.81181E+3
   2.69290E+3  -4.77342E+3
   2.49335E+3  -4.85810E+3
   2.22874E+3  -4.80297E+3
   1.87579E+3  -4.76343E+3
   1.70871E+3  -4.90030E+3
   1.43253E+3  -4.77391E+3
   1.14688E+3  -4.75827E+3
   9.10963E+2  -4.78555E+3
   7.20071E+2  -4.71553E+3
   3.42226E+2  -4.72110E+3
   1.99122E+2  -4.67502E+3
   5.91352E-1  -4.60083E+3
  -1.83130E+2  -4.56193E+3
  -4.12906E+2  -4.48854E+3
  -6.49297E+2  -4.44831E+3
  -8.63606E+2  -4.39492E+3
  -1.00071E+3  -4.32833E+3
  -1.17486E+3  -4.31048E+3
  -1.34635E+3  -4.14300E+3
  -1.48111E+3  -4.04194E+3
  -1.70429E+3  -4.00526E+3
  -1.91327E+3  -3.93524E+3
  -2.05340E+3  -3.79455E+3
  -2.12456E+3  -3.73769E+3
  -2.31354E+3  -3.65160E+3
  -2.44598E+3  -3.55779E+3
  -2.59835E+3  -3.47297E+3
  -2.70899E+3  -3.28778E+3
  -2.77820E+3  -3.34117E+3
  -2.87270E+3  -3.12606E+3
  -3.02750E+3  -3.04753E+3
  -3.08320E+3  -2.98136E+3
  -3.18993E+3  -2.88588E+3
  -3.31588E+3  -2.79660E+3
  -3.41041E+3  -2.71474E+3
  -3.46678E+3  -2.59611E+3
  -3.51643E+3  -2.48908E+3
  -3.55582E+3  -2.38321E+3
  -3.61672E+3  -2.24760E+3
  -3.70295E+3  -2.16393E+3
  -3.78188E+3  -2.07687E+3
  -3.78752E+3  -2.00768E+3
  -3.82358E+3  -1.85009E+3
  -3.96418E+3  -1.78440E+3
  -3.90125E+3  -1.61226E+3
  -3.93299E+3  -1.54441E+3
  -3.90774E+3  -1.42140E+3
  -3.99580E+3  -1.40444E+3
  -3.98426E+3  -1.20691E+3
  -4.03210E+3  -1.17674E+3
  -4.01973E+3  -1.08558E+3
  -3.99769E+3  -9.38546E+2
  -4.00062E+3  -9.05147E+2
  -4.03643E+3  -8.24711E+2
  -4.03114E+3  -7.42003E+2
  -4.01755E+3  -6.22712E+2
  -4.02565E+3  -5.47675E+2
  -4.00682E+3  -4.76389E+2
  -3.99804E+3  -4.08916E+2
  -3.92352E+3  -2.97335E+2
  -3.90686E+3  -2.31059E+2
  -3.88021E+3  -1.39469E+2
  -3.87602E+3  -9.56797E+1
  -3.87252E+3  -1.86701E+1
  -3.78941E+3   6.40192E+1
  -3.69711E+3   1.00021E+2
  -3.69840E+3   1.11502E+2
  -3.65012E+3   2.81348E+2
  -3.65884E+3   2.70964E+2
  -3.61867E+3   3.24393E+2
  -3.51716E+3   3.99354E+2
  -3.49616E+3   3.80790E+2
  -3.39350E+3   4.82930E+2
  -3.41618E+3   5.27937E+2
  -3.34719E+3   6.78300E+2
  -3.27171E+3   6.42660E+2
  -3.21845E+3   6.81705E+2
  -3.14479E+3   7.48375E+2
  -3.14448E+3   6.83122E+2
  -3.10799E+3   8.07091E+2
  -2.98215E+3   8.16182E+2
  -2.98264E+3   8.14013E+2
  -2.97449E+3   9.56804E+2
  -2.88969E+3   9.88307E+2
  -2.76709E+3   9.78333E+2
  -2.77611E+3   9.71626E+2
  -2.70322E+3   9.35655E+2
  -2.61631E+3   1.05264E+3
  -2.51588E+3   1.08405E+3
  -2.52062E+3   1.13423E+3
  -2.38715E+3   1.08966E+3
  -2.36410E+3   1.11071E+3
  -2.28171E+3   1.10897E+3
  -2.27782E+3   1.13804E+3
  -2.18941E+3   1.12218E+3
  -2.08000E+3   1.21082E+3
  -2.08415E+3   1.16157E+3
  -2.03337E+3   1.20886E+3
  -1.96664E+3   1.23977E+3
  -1.92771E+3   1.25149E+3
  -1.84688E+3   1.20611E+3
  -1.76611E+3   1.21711E+3
  -1.69899E+3   1.15953E+3
  -1.70163E+3   1.19624E+3
  -1.63108E+3   1.13412E+3
  -1.59065E+3   1.17743E+3
  -1.56983E+3   1.18753E+3
  -1.53075E+3   1.17751E+3
  -1.38968E+3   1.19955E+3
  -1.38109E+3   1.19889E+3
  -1.40366E+3   1.11033E+3
  -1.25567E+3   1.16265E+3
  -1.25008E+3   1.14567E+3
  -1.18185E+3   1.10100E+3
  -1.10355E+3   1.12063E+3
  -1.08173E+3   1.06082E+3
  -1.12080E+3   1.03845E+3
  -1.03333E+3   9.77183E+2
  -9.74610E+2   1.03494E+3
  -9.33130E+2   1.01909E+3
  -9.33283E+2   1.04799E+3
  -8.27261E+2   9.67985E+2
  -8.38379E+2   1.01350E+3
  -7.50895E+2   9.36974E+2
  -8.03723E+2   9.04773E+2
  -7.07034E+2   9.57345E+2
  -6.73460E+2   9.24860E+2
  -7.13168E+2   8.64798E+2
  -5.89968E+2   8.84183E+2
  -5.93437E+2   8.10345E+2
  -5.80002E+2   8.51600E+2
  -5.82800E+2   8.33981E+2
  -5.17570E+2   8.19818E+2
  -4.94501E+2   7.64920E+2
  -4.93082E+2   7.72468E+2
  -4.59101E+2   7.99056E+2
  -3.86860E+2   6.95059E+2
  -3.47211E+2   6.96503E+2
  -4.08859E+2   7.31424E+2
  -2.70483E+2   7.18060E+2
  -2.23728E+2   6.82543E+2
  -2.57654E+2   6.38848E+2
  -2.69520E+2   6.00123E+2
  -2.78308E+2   6.25162E+2
  -2.46244E+2   5.26903E+2
  -2.15289E+2   5.33189E+2
  -2.38771E+2   5.74384E+2
  -1.87633E+2   4.83723E+2
  -2.18693E+2   4.87326E+2
  -2.45540E+2   4.89797E+2
  -2.10541E+2   4.47488E+2
  -1.55148E+2   5.51863E+2
  -1.41295E+2   4.64986E+2
  -2.15212E+2   4.78574E+2
  -1.64501E+2   3.88819E+2
  -1.00004E+2   3.87736E+2
  -1.23033E+2   3.71096E+2
  -1.71651E+2   3.19042E+2
  -1.73846E+2   3.14048E+2
  -6.59715E+1   3.34456E+2
  -4.48167E+1   3.39559E+2
  -1.25602E+2   2.90828E+2
  -1.52147E+2   3.46234E+2
  -1.20629E+2   3.02892E+2
  -8.08838E+1   2.35643E+2
  -1.07692E+2   2.51933E+2
  -1.06697E+2   2.59817E+2
  -8.34791E+1   2.80503E+2
  -1.16678E+2   2.21726E+2
  -1.09367E+2   2.11761E+2
  -5.22179E+1   2.18665E+2
  -1.65808E+2   1.76375E+2
  -9.93444E+1   2.04747E+2
  -7.96765E+1   2.16480E+2
  -7.08333E+1   1.71732E+2
  -9.45037E+1   2.19080E+2
  -1.30211E+2   1.19355E+2
  -1.76643E+2   1.84588E+2
  -1.12098E+2   1.49849E+2
  -1.11482E+2   1.68494E+2
  -1.29047E+2   1.13379E+2
  -1.19092E+2   1.92467E+2
  -1.16907E+2   1.31643E+2
  -1.72893E+2   8.83811E+1
  -1.54962E+2   1.07822E+2
  -1.05340E+2   5.28538E+1
  -8.25634E+1   1.19083E+2
  -1.32296E+2   1.16167E+2
  -7.72038E+1   9.76598E+1
  -1.74284E+2   1.84471E+2
  -1.91581E+2   1.29753E+2
  -9.12241E+1   1.29255E+2
  -2.03060E+2   1.20697E+2
  -9.64857E+1   1.56117E+2
  -1.27386E+2   1.29864E+2
  -1.34830E+2   9.30689E+1
  -1.74266E+2   1.24298E+2
  -1.86179E+2   9.13956E+1
  -1.63111E+2   1.14044E+2
  -1.68208E+2   1.62999E+2
