 
 $NMID
 ID=''
 FMTDAT='(2E13.5)'
 TRAMP=   1.00000E+0
 VOLUME=   1.00000E+0
 $END
  -1.93518E+4  -4.01994E+3
  -4.52383E+4  -2.35708E+4
  -4.90623E+4  -1.50227E+4
  -4.54315E+4  -1.35868E+4
  -4.67211E+4  -1.52525E+4
  -4.76068E+4  -1.30893E+4
  -4.58273E+4  -1.28317E+4
  -4.62079E+4  -1.38541E+4
  -4.66774E+4  -1.24682E+4
  -4.55407E+4  -1.21389E+4
  -4.55740E+4  -1.27458E+4
  -4.57914E+4  -1.16240E+4
  -4.50014E+4  -1.11766E+4
  -4.50591E+4  -1.17321E+4
  -4.49382E+4  -1.09123E+4
  -4.42134E+4  -1.04573E+4
  -4.42530E+4  -1.06499E+4
  -4.41242E+4  -9.99249E+3
  -4.35135E+4  -9.54204E+3
  -4.34140E+4  -9.69752E+3
  -4.32527E+4  -9.08796E+3
  -4.27548E+4  -8.51122E+3
  -4.27062E+4  -8.58689E+3
  -4.25211E+4  -8.13446E+3
  -4.18293E+4  -7.73278E+3
  -4.17830E+4  -7.63285E+3
  -4.17408E+4  -7.26280E+3
  -4.10926E+4  -7.05485E+3
  -4.09852E+4  -6.95916E+3
  -4.08445E+4  -6.61634E+3
  -4.04916E+4  -6.23075E+3
  -4.04381E+4  -6.06481E+3
  -4.02444E+4  -5.79713E+3
  -3.98472E+4  -5.52002E+3
  -3.97013E+4  -5.24066E+3
  -3.95427E+4  -4.96246E+3
  -3.92690E+4  -4.61641E+3
  -3.90145E+4  -4.37917E+3
  -3.89629E+4  -4.00362E+3
  -3.87380E+4  -3.76038E+3
  -3.84602E+4  -3.49119E+3
  -3.83727E+4  -3.38751E+3
  -3.80924E+4  -3.28618E+3
  -3.78279E+4  -2.97760E+3
  -3.76765E+4  -2.64965E+3
  -3.73983E+4  -2.55676E+3
  -3.73625E+4  -2.27263E+3
  -3.71152E+4  -2.09228E+3
  -3.68804E+4  -1.79066E+3
  -3.65975E+4  -1.58269E+3
  -3.63959E+4  -1.42352E+3
  -3.62286E+4  -1.16693E+3
  -3.59509E+4  -8.82333E+2
  -3.57769E+4  -5.51526E+2
  -3.55771E+4  -4.28200E+2
  -3.53524E+4  -2.76628E+2
  -3.51830E+4  -5.64034E+1
  -3.49663E+4   9.87911E+1
  -3.46988E+4   2.63299E+2
  -3.43310E+4   4.72430E+2
  -3.41150E+4   6.97256E+2
  -3.38674E+4   8.73288E+2
  -3.36942E+4   1.18538E+3
  -3.35089E+4   1.26298E+3
  -3.32482E+4   1.34566E+3
  -3.29437E+4   1.50643E+3
  -3.27225E+4   1.79723E+3
  -3.25005E+4   1.99464E+3
  -3.22822E+4   1.98793E+3
  -3.19924E+4   2.30122E+3
  -3.17547E+4   2.51815E+3
  -3.15008E+4   2.68281E+3
  -3.12332E+4   2.76137E+3
  -3.09636E+4   2.98107E+3
  -3.07494E+4   3.16247E+3
  -3.05140E+4   3.39054E+3
  -3.02798E+4   3.56284E+3
  -3.00605E+4   3.69033E+3
  -2.97284E+4   3.90549E+3
  -2.95068E+4   4.10211E+3
  -2.92894E+4   4.25027E+3
  -2.90693E+4   4.40199E+3
  -2.88247E+4   4.47882E+3
  -2.85951E+4   4.67864E+3
  -2.83313E+4   4.82343E+3
  -2.81668E+4   4.92113E+3
  -2.78376E+4   4.97063E+3
  -2.75101E+4   5.13748E+3
  -2.73121E+4   5.34432E+3
  -2.70642E+4   5.51397E+3
  -2.68604E+4   5.56466E+3
  -2.66063E+4   5.74416E+3
  -2.64151E+4   5.92420E+3
  -2.62161E+4   6.06207E+3
  -2.59122E+4   6.22734E+3
  -2.56578E+4   6.25466E+3
  -2.54042E+4   6.46068E+3
  -2.52227E+4   6.64362E+3
  -2.50043E+4   6.72159E+3
  -2.48134E+4   6.84393E+3
  -2.45350E+4   6.89020E+3
  -2.43118E+4   7.09696E+3
  -2.41128E+4   7.23674E+3
  -2.38737E+4   7.33985E+3
  -2.36605E+4   7.35569E+3
  -2.34741E+4   7.51501E+3
  -2.32103E+4   7.62225E+3
  -2.30005E+4   7.68000E+3
  -2.28105E+4   7.70202E+3
  -2.25251E+4   7.83398E+3
  -2.22218E+4   7.91770E+3
  -2.21363E+4   8.06383E+3
  -2.19011E+4   8.18718E+3
  -2.16912E+4   8.27198E+3
  -2.15591E+4   8.31581E+3
  -2.12385E+4   8.34203E+3
  -2.11126E+4   8.43768E+3
  -2.08464E+4   8.38356E+3
  -2.06702E+4   8.49554E+3
  -2.04081E+4   8.62205E+3
  -2.03236E+4   8.63100E+3
  -2.00642E+4   8.68436E+3
  -1.99108E+4   8.75875E+3
  -1.96404E+4   8.78626E+3
  -1.94258E+4   8.81616E+3
  -1.92670E+4   8.86837E+3
  -1.90739E+4   8.89442E+3
  -1.88797E+4   8.92921E+3
  -1.87145E+4   8.95294E+3
  -1.85119E+4   8.99420E+3
  -1.83348E+4   9.03914E+3
  -1.81287E+4   8.98867E+3
  -1.79003E+4   9.08036E+3
  -1.77214E+4   9.16698E+3
  -1.75946E+4   9.20110E+3
  -1.73567E+4   9.24483E+3
  -1.71001E+4   9.17966E+3
  -1.69351E+4   9.16840E+3
  -1.67961E+4   9.20790E+3
  -1.65003E+4   9.28674E+3
  -1.63112E+4   9.25226E+3
  -1.61390E+4   9.28335E+3
  -1.59850E+4   9.28938E+3
  -1.57900E+4   9.37783E+3
  -1.56099E+4   9.45572E+3
  -1.53955E+4   9.38767E+3
  -1.53210E+4   9.38461E+3
  -1.50305E+4   9.40456E+3
  -1.48832E+4   9.44218E+3
  -1.46550E+4   9.46054E+3
  -1.45328E+4   9.50820E+3
  -1.42765E+4   9.45455E+3
  -1.41528E+4   9.48764E+3
  -1.39080E+4   9.49542E+3
  -1.38002E+4   9.45511E+3
  -1.35726E+4   9.51889E+3
  -1.34292E+4   9.54699E+3
  -1.32612E+4   9.52971E+3
  -1.31688E+4   9.51359E+3
  -1.29619E+4   9.65200E+3
  -1.27859E+4   9.55825E+3
  -1.26037E+4   9.63483E+3
  -1.24696E+4   9.60357E+3
  -1.23509E+4   9.52752E+3
  -1.21978E+4   9.55495E+3
  -1.20587E+4   9.53732E+3
  -1.18654E+4   9.48583E+3
  -1.16690E+4   9.49820E+3
  -1.14434E+4   9.51995E+3
  -1.14343E+4   9.52130E+3
  -1.12240E+4   9.57970E+3
  -1.10736E+4   9.55965E+3
  -1.09783E+4   9.55091E+3
  -1.07964E+4   9.43822E+3
  -1.06961E+4   9.48844E+3
  -1.04940E+4   9.45378E+3
  -1.03754E+4   9.43057E+3
  -1.02630E+4   9.44476E+3
  -1.00988E+4   9.47694E+3
  -9.95024E+3   9.48328E+3
  -9.81052E+3   9.40231E+3
  -9.72100E+3   9.41222E+3
  -9.57579E+3   9.40510E+3
  -9.48785E+3   9.39225E+3
  -9.34079E+3   9.32715E+3
  -9.20126E+3   9.38184E+3
  -9.13343E+3   9.38539E+3
  -8.98200E+3   9.32704E+3
  -8.86292E+3   9.30199E+3
  -8.68014E+3   9.26025E+3
  -8.54750E+3   9.21844E+3
  -8.45357E+3   9.21779E+3
  -8.32333E+3   9.21441E+3
  -8.24387E+3   9.08465E+3
  -8.01686E+3   9.19343E+3
  -7.92115E+3   9.14836E+3
  -7.78225E+3   9.16633E+3
  -7.66181E+3   9.07015E+3
  -7.57559E+3   9.00831E+3
  -7.38787E+3   9.04797E+3
  -7.34619E+3   9.07173E+3
  -7.21171E+3   9.01895E+3
  -7.13873E+3   8.97797E+3
  -6.96497E+3   8.97087E+3
  -6.88508E+3   9.00432E+3
  -6.72493E+3   8.91868E+3
  -6.65442E+3   8.93261E+3
  -6.50372E+3   8.80388E+3
  -6.38445E+3   8.87702E+3
  -6.27117E+3   8.89304E+3
  -6.21882E+3   8.87014E+3
  -6.10050E+3   8.78727E+3
  -5.96589E+3   8.78497E+3
  -5.84524E+3   8.75885E+3
  -5.80372E+3   8.78232E+3
  -5.68765E+3   8.74283E+3
  -5.60968E+3   8.69194E+3
  -5.52825E+3   8.59563E+3
  -5.36384E+3   8.64268E+3
  -5.28054E+3   8.64564E+3
  -5.15795E+3   8.60166E+3
  -5.09385E+3   8.52580E+3
  -4.99551E+3   8.50113E+3
  -4.94444E+3   8.47340E+3
  -4.80460E+3   8.45284E+3
  -4.69938E+3   8.41580E+3
  -4.64829E+3   8.41815E+3
  -4.50000E+3   8.36648E+3
  -4.50694E+3   8.30749E+3
  -4.38602E+3   8.29512E+3
  -4.28411E+3   8.25875E+3
  -4.13674E+3   8.22176E+3
  -4.10832E+3   8.15668E+3
  -4.02851E+3   8.14262E+3
  -3.95624E+3   8.09090E+3
  -3.84389E+3   8.11228E+3
  -3.77106E+3   8.10337E+3
  -3.75405E+3   8.01241E+3
  -3.55625E+3   7.97160E+3
  -3.53593E+3   7.88920E+3
  -3.41363E+3   7.99003E+3
  -3.34464E+3   7.84701E+3
  -3.28536E+3   7.89645E+3
  -3.18878E+3   7.73826E+3
  -3.09877E+3   7.73763E+3
  -2.98114E+3   7.72192E+3
  -2.98484E+3   7.68732E+3
  -2.90816E+3   7.64449E+3
  -2.81574E+3   7.63490E+3
  -2.76352E+3   7.51877E+3
  -2.61376E+3   7.50856E+3
  -2.63134E+3   7.51159E+3
  -2.52273E+3   7.44158E+3
  -2.49298E+3   7.45185E+3
  -2.35750E+3   7.34476E+3
  -2.31124E+3   7.30123E+3
  -2.24237E+3   7.29127E+3
  -2.16431E+3   7.17596E+3
  -2.09166E+3   7.26418E+3
  -2.04474E+3   7.19537E+3
  -1.97478E+3   7.10631E+3
  -1.94393E+3   7.03174E+3
  -1.86450E+3   7.07974E+3
  -1.84492E+3   7.06057E+3
  -1.70570E+3   6.91819E+3
  -1.67664E+3   6.94144E+3
  -1.56829E+3   6.91968E+3
  -1.54737E+3   6.87879E+3
  -1.50524E+3   6.79721E+3
  -1.48085E+3   6.79464E+3
  -1.37948E+3   6.73708E+3
  -1.25523E+3   6.64756E+3
  -1.29677E+3   6.64377E+3
  -1.17617E+3   6.65213E+3
  -1.13470E+3   6.56275E+3
  -1.05719E+3   6.50709E+3
  -9.78960E+2   6.42521E+3
  -9.72921E+2   6.43543E+3
  -9.07136E+2   6.39251E+3
  -8.62624E+2   6.34907E+3
  -7.72305E+2   6.30696E+3
  -7.48980E+2   6.32226E+3
  -7.25814E+2   6.25724E+3
  -6.22624E+2   6.16391E+3
  -6.25937E+2   6.15264E+3
  -5.22298E+2   6.09914E+3
  -5.59069E+2   6.00857E+3
  -5.51003E+2   5.99134E+3
  -4.95391E+2   5.94896E+3
  -4.38112E+2   5.92014E+3
  -3.23514E+2   5.85780E+3
  -3.37269E+2   5.83590E+3
  -2.91850E+2   5.82111E+3
  -2.72034E+2   5.77929E+3
  -1.89696E+2   5.75069E+3
  -1.71634E+2   5.74237E+3
  -1.80186E+2   5.59112E+3
  -1.26506E+2   5.50835E+3
  -6.97528E+1   5.54875E+3
  -3.54662E+1   5.55089E+3
  -8.96673E+1   5.45257E+3
   2.83735E+1   5.40858E+3
   2.28820E+1   5.40077E+3
   7.32085E+1   5.31255E+3
   1.06803E+2   5.27968E+3
   1.45119E+2   5.29662E+3
   2.41120E+2   5.23520E+3
   3.07584E+2   5.16917E+3
   2.48645E+2   5.21795E+3
   3.11345E+2   5.09815E+3
   2.53256E+2   5.10281E+3
   3.87978E+2   4.99814E+3
   4.07699E+2   4.96118E+3
   4.00867E+2   4.93790E+3
   4.36412E+2   4.94322E+3
   3.88143E+2   4.98824E+3
   4.78872E+2   4.84885E+3
   5.38310E+2   4.77639E+3
   5.25581E+2   4.79261E+3
   5.12653E+2   4.76868E+3
   5.28168E+2   4.70992E+3
   6.00442E+2   4.67114E+3
   5.93434E+2   4.65261E+3
   6.34623E+2   4.57281E+3
   6.30688E+2   4.51818E+3
   6.37823E+2   4.49937E+3
   6.91587E+2   4.50529E+3
   6.86017E+2   4.44237E+3
   7.04402E+2   4.45141E+3
   7.71094E+2   4.43237E+3
   7.80167E+2   4.39667E+3
   8.53442E+2   4.30995E+3
   8.18140E+2   4.32224E+3
   8.43047E+2   4.24868E+3
   8.41019E+2   4.23993E+3
   8.84482E+2   4.14559E+3
   8.73406E+2   4.16012E+3
   8.74205E+2   4.07299E+3
   9.03954E+2   4.09428E+3
   8.83397E+2   3.99958E+3
   8.83784E+2   3.97533E+3
   1.01870E+3   3.97802E+3
   9.17160E+2   3.90632E+3
   1.01129E+3   3.98569E+3
   9.93963E+2   3.91451E+3
   9.81348E+2   3.85929E+3
   1.01097E+3   3.91765E+3
   1.05332E+3   3.75371E+3
   1.08563E+3   3.73499E+3
   1.02281E+3   3.72288E+3
   1.04189E+3   3.69789E+3
   1.04381E+3   3.65178E+3
   1.03216E+3   3.63441E+3
   1.02471E+3   3.53995E+3
   1.01239E+3   3.56659E+3
   1.14738E+3   3.51642E+3
   1.10378E+3   3.53860E+3
   1.15298E+3   3.48105E+3
   1.19919E+3   3.51943E+3
   1.15138E+3   3.47315E+3
   1.12191E+3   3.42417E+3
   1.07356E+3   3.42953E+3
   1.16303E+3   3.33029E+3
   1.18706E+3   3.34618E+3
   1.16245E+3   3.29696E+3
   1.17487E+3   3.28800E+3
   1.15888E+3   3.22439E+3
