 
 $NMID
 ID=''
 FMTDAT='(2E13.5)'
 TRAMP=   1.00000E+0
 VOLUME=   1.00000E+0
 $END
   8.13297E+2  -6.48226E+0
  -8.78958E+2   1.45822E+3
   4.46420E+3  -4.00852E+3
  -3.04401E+3  -1.46612E+3
  -3.13233E+3  -7.17340E+2
  -2.24009E+3   8.69923E+2
  -3.20094E+3   3.08735E+3
  -3.31540E+3   1.62128E+3
   9.12312E+2   2.79144E+3
   2.99609E+3   2.68134E+3
   3.04700E+3   1.26784E+3
   4.22780E+3   2.20360E+3
  -4.21558E+2   3.00675E+3
  -1.26463E+3   6.40558E+2
   5.60602E+2  -2.72377E+3
   1.73772E+3  -2.19145E+3
   1.77728E+3  -1.08832E+3
   2.54699E+3   4.81615E+2
  -1.62566E+3  -1.12865E+2
   1.38430E+3  -2.00368E+3
   8.06900E+2  -7.64538E+0
   5.39222E+2   2.50309E+3
  -4.71295E+3  -1.15072E+3
  -2.04341E+2  -5.38188E+3
   8.59135E+2  -2.54647E+2
  -4.05019E+1   1.50519E+3
  -2.74870E+3  -4.91969E+2
   4.30309E+2  -2.09678E+3
   2.66051E+3  -3.42921E+3
   5.00202E+3   1.18502E+3
   1.92813E+3   5.30599E+3
  -4.03625E+3   1.38624E+3
  -4.07293E+3  -1.93990E+3
   1.33511E+3  -2.77834E+3
  -8.18715E+2   1.53189E+2
  -2.13574E+2  -1.95421E+3
   3.61876E+3  -3.11203E+3
   1.64886E+3   1.11924E+3
   1.21411E+3   3.23046E+3
  -1.42924E+3   4.90935E+1
  -1.65148E+3   1.14626E+3
  -1.64882E+3   9.64686E+2
   1.67037E+3  -1.29395E+3
   4.02762E+3   8.47872E+2
   1.93222E+3   3.09320E+3
   1.27366E+3   1.69163E+3
   4.55783E+2   1.53983E+3
  -3.06703E+2   1.78680E+2
  -2.19505E+3   7.17235E+2
  -2.11320E+3  -3.71892E+2
  -1.03542E+3  -2.23995E+3
   1.30286E+3  -1.06157E+3
   3.41134E+3   3.12101E+2
   2.14044E+3   3.78028E+3
  -1.40011E+3   3.59220E+2
  -1.11252E+3   7.34693E+2
  -3.29749E+3  -1.05202E+3
  -3.73617E+3  -3.95868E+3
  -8.74226E+1  -3.98279E+3
   4.06147E+3  -3.60067E+2
   2.44480E+3   9.37953E+2
   1.21260E+3   2.21464E+3
  -6.28550E+2   2.42192E+3
  -3.11134E+3   4.42376E+1
  -1.05854E+3  -3.23126E+2
   3.13818E+3   1.36799E+3
  -3.17971E+3   2.88098E+3
  -3.52601E+3  -4.55389E+2
  -3.90915E+3  -9.04763E+2
  -1.94183E+3   4.78244E+2
  -2.34604E+3   1.41024E+3
  -4.07832E+3  -8.44615E+0
  -3.18798E+3  -1.78545E+3
  -1.19622E+3  -1.51026E+3
  -9.69464E+0  -6.32318E+2
  -1.46074E+3  -4.00376E+2
  -1.50642E+3  -1.78673E+3
  -2.17189E+3  -6.86011E+2
   2.25942E+3   1.16818E+3
  -2.10578E+3   6.16372E+2
  -9.04055E+2  -8.38428E+2
  -1.91097E+3  -2.47297E+2
  -1.09928E+3   1.20569E+3
  -5.39673E+2  -1.11145E+3
  -1.93029E+3  -2.47466E+3
  -1.28854E+3  -1.60968E+3
   1.02084E+3  -4.02203E+3
   3.55785E+3  -1.00133E+3
   3.07065E+3   4.35490E+2
   4.13647E+2   1.60768E+3
   5.83750E+1  -1.14587E+3
   2.98760E+3   3.86824E+2
  -2.29880E+2   3.13802E+3
  -2.37450E+3   1.08004E+3
  -5.22830E+2  -1.50831E+3
   2.37134E+3  -4.30622E+2
   1.40100E+3  -9.19370E+0
   1.02825E+3   3.71703E+3
  -2.79408E+3   1.14020E+3
  -2.14578E+3  -2.53924E+3
   2.30639E+3  -1.17878E+3
   2.95140E+3   2.41729E+2
   2.10450E+3   2.63812E+3
  -6.29298E+2   2.88509E+3
  -5.44479E+2   2.20787E+2
   2.14390E+2   1.88476E+2
  -1.59133E+3   1.58073E+3
   2.74951E+2   1.55807E+3
  -1.15719E+3  -2.20146E+3
   2.44851E+3   1.28179E+3
   1.86625E+3   1.45406E+3
   3.23213E+3   2.71423E+3
   3.39781E+2   7.68824E+2
   1.32535E+3   6.28522E+1
  -4.81677E+2   1.25223E+3
  -5.02024E+2  -1.07845E+1
  -1.46865E+2  -2.67674E+3
  -3.22827E+2   1.69110E+3
   2.72651E+3   6.51336E+2
   2.52509E+3   3.40291E+3
   5.07292E+1   9.27111E+2
  -1.40296E+3  -4.58932E+2
   1.55053E+3  -1.56606E+3
   1.00241E+3   9.51107E+2
   1.21319E+3   1.83758E+3
  -4.84139E+2   6.47100E+2
   9.53576E+2   7.15889E+2
   2.76219E+2   6.01862E+2
  -3.47018E+2   3.27768E+3
   1.06597E+3  -5.82799E+2
  -9.84221E+2  -1.71660E+3
   2.66075E+3  -3.30377E+3
   3.05944E+3   2.35822E+3
   1.35441E+3   2.42932E+3
  -9.40105E+2   2.80309E+3
   5.66645E+2   1.51959E+3
  -5.34827E+2  -1.82629E+3
   9.48309E+2   1.68373E+3
  -5.32799E+2  -1.55992E+3
   1.34233E+3  -1.35292E+3
   1.44112E+3  -9.55829E+2
   6.05959E+2  -1.92376E+3
   6.78903E+2  -1.69221E+3
   1.12917E+3   1.40570E+3
   7.21107E+1   2.27785E+2
   7.50277E+2  -1.00253E+3
   6.27117E+2   5.06096E+2
  -1.06315E+3   1.30381E+3
   1.51218E+3   5.21183E+1
  -2.84085E+2  -1.92926E+2
  -8.71786E+2   2.34570E+2
   1.99840E+3   5.42301E+2
   2.74829E+2  -8.64367E+2
  -1.17407E+2  -3.81708E+2
   2.10350E+3   1.17596E+3
   2.95990E+1   7.65430E+2
   1.69360E+3   4.41217E+2
  -1.46867E+3   4.03094E+2
   1.55497E+3   1.58749E+3
   1.97997E+2   9.82080E+2
  -1.10749E+3   6.41184E+2
  -2.86519E+3  -9.65938E+2
  -1.07214E+2   2.93824E+2
  -6.43302E+2   1.77526E+3
   7.58674E+2   1.74126E+3
  -2.78122E+3   9.81830E+2
  -6.13782E+2  -9.05030E+2
   1.23862E+3  -1.57515E+3
   1.71091E+3  -7.03386E+1
  -5.04776E+1   1.37409E+3
  -1.79046E+3   4.69075E+2
  -2.26513E+3   1.35359E+2
  -5.23224E+2  -1.87882E+3
   4.23704E+2  -2.35414E+2
   1.34228E+3   1.23274E+3
   3.36383E+2   7.14378E+1
   1.91789E+3   3.21649E+2
   2.05333E+2  -1.50806E+2
   6.46522E+0   1.94794E+3
  -2.55059E+3   4.12467E+2
  -4.86573E+2  -1.15862E+3
  -1.19517E+2  -1.90844E+3
   7.20501E+2  -1.57534E+2
  -6.53755E+2  -2.47068E+3
  -3.28400E+2  -1.71082E+3
   3.62340E+2   1.40026E+3
   1.62817E+3   1.55917E+3
  -1.24754E+3   6.40566E+1
  -1.29925E+3  -2.63831E+3
  -1.28984E+3  -1.11791E+3
  -2.90075E+2   7.09687E+2
  -2.73440E+1  -4.56627E+2
  -1.75358E+3   5.97594E+2
   2.18251E+2  -1.16146E+3
  -1.20324E+2   2.40529E+2
  -1.98257E+3  -1.83309E+3
   2.32355E+2   6.84857E+2
   1.18888E+2  -1.16452E+3
   2.43156E+3  -2.06551E+2
   1.66370E+3   2.46448E+3
  -1.64814E+3   1.58133E+2
  -5.06185E+2   1.07120E+3
   5.68812E+2  -2.48967E+3
   5.66426E+2  -5.80710E+2
   1.06799E+3   1.06282E+2
   3.38659E+2   1.23887E+3
   1.27114E+3  -6.72400E+2
   8.06804E+2  -1.63322E+3
  -5.18613E+2  -2.96064E+2
  -1.11024E+3   1.05423E+3
  -1.00905E+3   7.44749E+2
  -3.10645E+1   1.91637E+2
   3.82801E+2  -7.94439E+2
   6.09241E+2  -5.79498E+2
  -8.30351E+2   1.01847E+3
  -1.10163E+3   1.61342E+3
  -3.31238E+2  -2.57900E+3
   1.95835E+3  -1.60817E+3
   2.16658E+2   1.49761E+2
  -1.53971E+3   2.83934E+2
  -1.65382E+3   5.53067E+2
  -3.23554E+2   3.14541E+1
   6.77448E+2   5.73753E+2
  -1.09808E+3  -1.98776E+3
   9.32383E+2  -4.08706E+2
  -1.38670E+3   3.04861E+2
  -6.36470E+2   1.23842E+2
  -5.82204E+2   1.94994E+3
  -7.03322E+2  -2.19363E+3
   7.39676E+1  -9.77388E+2
   7.66636E+2  -8.60466E+2
  -1.52445E+3  -2.96232E+2
  -1.92088E+3   1.24871E+3
  -6.83496E+2  -9.44377E+2
   1.66559E+3   9.30432E+2
   9.64961E+2   5.62265E+1
   4.13500E+2   1.46950E+3
  -1.44251E+3  -1.67831E+3
  -1.65537E+2   1.23671E+3
   1.03116E+3  -8.08932E+2
  -4.80176E+1  -7.10425E+2
  -8.13483E+2  -4.49555E+2
   4.64405E+2  -3.92992E+2
  -1.26939E+3  -9.12509E+2
   1.63243E+3   1.88073E+3
  -8.48123E+2  -9.24086E+1
  -1.16409E+3  -2.56788E+3
   6.67643E+2  -1.06482E+3
  -5.73762E+2  -8.76185E+2
  -3.89009E+2   4.12943E+2
  -2.49817E+3  -1.48120E+3
  -7.51178E+2   1.63251E+3
   7.47406E+2  -1.77634E+3
  -9.94836E+0   8.12057E+2
   9.46368E+1   9.56097E+1
   8.25854E+2  -2.56703E+1
   6.75867E+2   7.71621E+2
   4.93536E+2   3.83155E+2
  -8.21594E+2   9.37656E+2
   7.10556E+1   1.76082E+3
   5.82554E+2   7.73049E+2
   2.06171E+3  -5.73339E+1
   3.83920E+2  -7.48910E+1
  -1.21977E+3   7.78872E+2
   1.43833E+3   4.15978E+2
   2.17569E+2  -7.31583E+2
   4.63486E+2   5.48574E+2
  -1.14954E+3  -7.39600E+2
  -1.48563E+3   6.44809E+2
  -7.66984E+2  -1.79890E+3
   9.19810E+2  -8.66021E+2
   2.02941E+3   1.23079E+3
  -1.42649E+1  -3.64732E+2
  -1.26290E+3  -8.81521E+2
  -1.37917E+3  -4.54006E+2
   2.31103E+2  -7.95878E+2
  -2.17076E+3  -8.12998E+1
   9.01688E+1   3.10156E+2
  -1.89433E+3   6.48396E+2
   2.39074E+2   9.84586E+2
   1.05610E+3   1.16923E+3
  -7.79792E+2   8.53939E+2
  -9.22888E+0   2.49351E+2
   6.33248E+2   1.15478E+3
   3.99193E+2  -3.89561E+2
  -8.29329E+2   9.49893E+2
   2.86023E+2   2.17528E+3
  -3.00463E+2  -1.50260E+3
  -1.08959E+2  -2.63848E+3
   1.21479E+3   5.23183E+2
  -1.19709E+3   1.32783E+3
  -9.98362E+1  -2.44767E+2
  -1.90576E+3   7.79266E+1
  -1.00959E+3   3.64118E+2
   1.62021E+1   3.25241E+2
   1.18127E+3   1.05635E+3
  -5.30762E+1  -6.83865E+1
  -5.83150E+1  -1.25479E+3
   2.51230E+2  -2.33235E+2
  -1.17104E+3   1.31605E+3
   1.01343E+2   1.01683E+3
  -5.25613E+2  -9.32316E+2
  -6.81859E+2   1.60161E+3
   3.53553E+2   1.13807E+3
  -2.32222E+3  -7.75671E+2
  -1.05561E+3   2.02287E+1
   9.04350E+2   1.12250E+2
   9.95997E+2  -1.03433E+3
  -2.18595E+3  -1.71547E+2
  -2.58648E+3  -1.39648E+2
  -3.64237E+2   9.26353E+2
  -1.06008E+3  -1.50316E+3
   2.14583E+2  -4.35072E+2
  -9.73517E+2   1.27961E+3
   6.08026E+2   1.30409E+3
   1.13999E+3   7.58966E+2
   2.58791E+2   4.33940E+1
  -8.62580E+2   5.94387E+2
  -1.28255E+3   3.43375E+2
  -7.74510E+2  -4.82750E+1
   8.43839E+2   3.03208E+1
  -1.33283E+2  -3.65717E+2
  -1.24544E+3  -6.40093E+2
   5.50028E+2  -5.78638E+0
   1.43188E+3   5.24672E+2
   5.08837E+2  -5.43259E+1
  -9.22859E+2   1.44281E+3
  -1.13829E+2   9.64251E+2
  -8.66422E+2  -3.77846E+3
  -2.52206E+2   1.16699E+3
  -7.44858E+2  -8.66186E+0
   4.35309E+2  -3.28815E+2
   5.81651E+2  -2.45687E+3
  -2.22076E+3  -1.02967E+3
  -7.68989E+2   2.70513E+3
   1.03628E+3   4.54386E+2
  -9.01253E+2  -1.13566E+2
   1.31022E+3  -1.64158E+3
   1.14090E+3   1.76985E+3
   4.73549E+2   1.40073E+2
  -5.26182E+2   1.43786E+3
   2.23624E+3   1.74175E+3
   9.32609E+2  -3.31663E+2
   1.69310E+3   9.83475E+2
   6.12039E+2   2.29715E+3
  -9.98370E+2  -1.14874E+2
  -2.01527E+2  -6.03473E+2
   1.08183E+3   5.55432E+2
  -1.61848E+2   3.00847E+2
  -2.01775E+3   1.72877E+3
  -6.97225E+2   1.81087E+3
  -1.73496E+3   5.89878E+2
  -1.27169E+3   1.82136E+3
  -1.24114E+3  -1.44455E+3
   7.57894E+2   1.62677E+3
   9.80766E+2   8.70812E+2
   1.69793E+3   2.86644E+2
  -1.55469E+3   2.79673E+2
   5.43233E+2   1.13130E+2
  -1.22855E+1  -1.20529E+2
  -1.54565E+3  -1.67988E+3
  -2.77843E+2   2.52174E+2
   1.08686E+3  -4.10769E+2
   9.73773E+2   2.74330E+2
  -1.59543E+3   1.20180E+3
  -7.07940E+2  -3.89166E+2
   7.24367E+2   2.17035E+3
