 LCModel (Version 6.3-1N) Copyright: S.W. Provencher.          Ref.: Magn. Reson. Med. 30:672-679 (1993).                
 Slice_N1@12_17  02-Jun-2023 14:36:31
 27 lines in following concentration table = NCONC+1
    Conc.  %SD /Cr+PCr  Metabolite                                         
    0.000 999%   0.000 Mac                                                 
 5.47E-02  54%   7.990 Cr                                                  
 7.19E-05 999% 1.0E-02 PCr                                                 
 9.86E-02  19%  14.403 Ins                                                 
 5.82E-02  25%   8.506 NAA                                                 
    0.109  17%  15.902 Tau                                                 
 2.28E-02  78%   3.335 PCho                                                
 1.27E-02 135%   1.853 GPC                                                 
    0.124  16%  18.176 Glu                                                 
 7.77E-03 166%   1.134 Gln                                                 
    0.000 999%   0.000 Ala                                                 
 3.66E-02  79%   5.343 Asc                                                 
 1.14E-02  60%   1.658 Asp                                                 
 4.23E-03  96%   0.618 GABA                                                
 5.25E-03  80%   0.767 Glc                                                 
 2.93E-03 179%   0.428 GSH                                                 
    0.194  10%  28.278 Lac                                                 
 1.50E-02  74%   2.191 NAAG                                                
 5.40E-03 486%   0.789 PE                                                  
 3.55E-02  20%   5.188 GPC+PCho                                            
 7.32E-02  21%  10.697 NAA+NAAG                                            
    0.132  17%  19.310 Glu+Gln                                             
 5.48E-02  24%   8.000 Cr+PCr                                              
 7.32E-02  21%  10.697 NAA+NAAG                                            
 5.48E-02  24%   8.000 Cr+PCr                                              
    0.132  17%  19.310 Glu+Gln                                             
   6 lines in following misc. output table
  FWHM = 0.041 ppm    S/N =   2                                            
  Data shift = 0.012 ppm                                                   
  Ph: -23 deg       2.8 deg/ppm                                            
  alphaB,S = 3.1E+01,   7.3E+01                                            
   18 spline knots.   Ns = 6(1)                                            
   2 inflections.     1 extrema                                            
  654 points on ppm-axis = NY
      4.000000     3.994181     3.988363     3.982544     3.976726     3.970907     3.965088     3.959270     3.953451     3.947633
      3.941814     3.935995     3.930177     3.924358     3.918540     3.912721     3.906902     3.901084     3.895265     3.889446
      3.883628     3.877809     3.871991     3.866172     3.860353     3.854535     3.848716     3.842898     3.837079     3.831260
      3.825442     3.819623     3.813805     3.807986     3.802167     3.796349     3.790530     3.784712     3.778893     3.773074
      3.767256     3.761437     3.755619     3.749800     3.743981     3.738163     3.732344     3.726526     3.720707     3.714888
      3.709070     3.703251     3.697433     3.691614     3.685795     3.679977     3.674158     3.668339     3.662521     3.656702
      3.650884     3.645065     3.639246     3.633428     3.627609     3.621791     3.615972     3.610153     3.604335     3.598516
      3.592698     3.586879     3.581060     3.575242     3.569423     3.563605     3.557786     3.551967     3.546149     3.540330
      3.534512     3.528693     3.522874     3.517056     3.511237     3.505419     3.499600     3.493781     3.487963     3.482144
      3.476326     3.470507     3.464688     3.458870     3.453051     3.447232     3.441414     3.435595     3.429777     3.423958
      3.418139     3.412321     3.406502     3.400684     3.394865     3.389046     3.383228     3.377409     3.371591     3.365772
      3.359953     3.354135     3.348316     3.342498     3.336679     3.330860     3.325042     3.319223     3.313405     3.307586
      3.301767     3.295949     3.290130     3.284312     3.278493     3.272674     3.266856     3.261037     3.255219     3.249400
      3.243581     3.237763     3.231944     3.226125     3.220307     3.214488     3.208670     3.202851     3.197032     3.191214
      3.185395     3.179577     3.173758     3.167939     3.162121     3.156302     3.150484     3.144665     3.138846     3.133028
      3.127209     3.121391     3.115572     3.109753     3.103935     3.098116     3.092298     3.086479     3.080660     3.074842
      3.069023     3.063205     3.057386     3.051567     3.045749     3.039930     3.034111     3.028293     3.022474     3.016656
      3.010837     3.005018     2.999200     2.993381     2.987563     2.981744     2.975925     2.970107     2.964288     2.958470
      2.952651     2.946832     2.941014     2.935195     2.929377     2.923558     2.917739     2.911921     2.906102     2.900284
      2.894465     2.888646     2.882828     2.877009     2.871191     2.865372     2.859553     2.853735     2.847916     2.842098
      2.836279     2.830460     2.824642     2.818823     2.813004     2.807186     2.801367     2.795549     2.789730     2.783911
      2.778093     2.772274     2.766456     2.760637     2.754818     2.749000     2.743181     2.737363     2.731544     2.725725
      2.719907     2.714088     2.708270     2.702451     2.696632     2.690814     2.684995     2.679177     2.673358     2.667539
      2.661721     2.655902     2.650084     2.644265     2.638446     2.632628     2.626809     2.620991     2.615172     2.609353
      2.603535     2.597716     2.591897     2.586079     2.580260     2.574442     2.568623     2.562804     2.556986     2.551167
      2.545349     2.539530     2.533711     2.527893     2.522074     2.516256     2.510437     2.504618     2.498800     2.492981
      2.487163     2.481344     2.475525     2.469707     2.463888     2.458070     2.452251     2.446432     2.440614     2.434795
      2.428977     2.423158     2.417339     2.411521     2.405702     2.399884     2.394065     2.388246     2.382428     2.376609
      2.370790     2.364972     2.359153     2.353335     2.347516     2.341697     2.335879     2.330060     2.324242     2.318423
      2.312604     2.306786     2.300967     2.295149     2.289330     2.283511     2.277693     2.271874     2.266056     2.260237
      2.254418     2.248600     2.242781     2.236963     2.231144     2.225325     2.219507     2.213688     2.207870     2.202051
      2.196232     2.190414     2.184595     2.178777     2.172958     2.167139     2.161321     2.155502     2.149683     2.143865
      2.138046     2.132228     2.126409     2.120590     2.114772     2.108953     2.103135     2.097316     2.091497     2.085679
      2.079860     2.074042     2.068223     2.062404     2.056586     2.050767     2.044949     2.039130     2.033311     2.027493
      2.021674     2.015856     2.010037     2.004218     1.998400     1.992581     1.986763     1.980944     1.975126     1.969307
      1.963489     1.957670     1.951852     1.946033     1.940215     1.934397     1.928578     1.922760     1.916941     1.911123
      1.905304     1.899486     1.893667     1.887849     1.882030     1.876212     1.870393     1.864575     1.858756     1.852938
      1.847119     1.841301     1.835482     1.829664     1.823845     1.818027     1.812208     1.806390     1.800571     1.794753
      1.788934     1.783116     1.777297     1.771479     1.765660     1.759842     1.754023     1.748205     1.742386     1.736568
      1.730749     1.724931     1.719113     1.713294     1.707476     1.701657     1.695839     1.690020     1.684202     1.678383
      1.672565     1.666746     1.660928     1.655109     1.649291     1.643472     1.637654     1.631835     1.626017     1.620198
      1.614380     1.608561     1.602743     1.596924     1.591106     1.585287     1.579469     1.573650     1.567832     1.562013
      1.556195     1.550376     1.544558     1.538739     1.532921     1.527102     1.521284     1.515465     1.509647     1.503829
      1.498010     1.492192     1.486373     1.480555     1.474736     1.468918     1.463099     1.457281     1.451462     1.445644
      1.439825     1.434007     1.428188     1.422370     1.416551     1.410733     1.404914     1.399096     1.393277     1.387459
      1.381640     1.375822     1.370003     1.364185     1.358366     1.352548     1.346729     1.340911     1.335092     1.329274
      1.323455     1.317637     1.311818     1.306000     1.300182     1.294363     1.288545     1.282726     1.276908     1.271089
      1.265271     1.259452     1.253634     1.247815     1.241997     1.236178     1.230360     1.224541     1.218723     1.212904
      1.207086     1.201267     1.195449     1.189630     1.183812     1.177993     1.172175     1.166356     1.160538     1.154719
      1.148901     1.143082     1.137264     1.131445     1.125627     1.119808     1.113990     1.108171     1.102353     1.096534
      1.090716     1.084898     1.079079     1.073261     1.067442     1.061624     1.055805     1.049987     1.044168     1.038350
      1.032531     1.026713     1.020894     1.015076     1.009257     1.003439     0.997620     0.991802     0.985983     0.980165
      0.974346     0.968528     0.962709     0.956891     0.951072     0.945254     0.939435     0.933617     0.927798     0.921980
      0.916161     0.910343     0.904524     0.898706     0.892887     0.887069     0.881251     0.875432     0.869614     0.863795
      0.857977     0.852158     0.846340     0.840521     0.834703     0.828884     0.823066     0.817247     0.811429     0.805610
      0.799792     0.793973     0.788155     0.782336     0.776518     0.770699     0.764881     0.759062     0.753244     0.747425
      0.741607     0.735788     0.729970     0.724151     0.718333     0.712514     0.706696     0.700877     0.695059     0.689240
      0.683422     0.677603     0.671785     0.665967     0.660148     0.654330     0.648511     0.642693     0.636874     0.631056
      0.625237     0.619419     0.613600     0.607782     0.601963     0.596145     0.590326     0.584508     0.578689     0.572871
      0.567052     0.561234     0.555415     0.549597     0.543778     0.537960     0.532141     0.526323     0.520504     0.514686
      0.508867     0.503049     0.497230     0.491412     0.485593     0.479775     0.473956     0.468138     0.462319     0.456501
      0.450682     0.444864     0.439045     0.433227     0.427408     0.421590     0.415771     0.409953     0.404134     0.398316
      0.392497     0.386679     0.380860     0.375042     0.369223     0.363405     0.357586     0.351767     0.345949     0.340130
      0.334312     0.328493     0.322675     0.316856     0.311038     0.305219     0.299401     0.293582     0.287764     0.281945
      0.276127     0.270308     0.264490     0.258671     0.252853     0.247034     0.241216     0.235397     0.229579     0.223760
      0.217942     0.212123     0.206305     0.200486
 NY phased data points follow
  -4.13648E-01  9.43178E-02 -6.35844E-01 -5.52118E-02 -1.06499E-03  9.22471E-02  8.09569E-03 -6.89612E-02  4.97777E-01 -1.78164E-01
   2.96475E-01 -7.07138E-01  4.34405E-01  7.84609E-01 -9.81723E-02  5.07208E-01  3.56407E-01  2.16462E-01 -1.76704E-01  5.64697E-01
   3.51218E-01  2.76415E-01  6.61624E-01 -2.10249E-02  2.27141E-01  4.68542E-01 -3.03870E-01 -5.97220E-01 -3.59676E-01 -4.57930E-01
  -5.87529E-02 -5.47135E-02 -2.02122E-01  4.50269E-02 -4.59416E-01 -4.47725E-01 -7.33493E-01 -5.00549E-01  2.55630E-01 -5.27515E-01
  -4.26620E-01  1.33674E-01 -1.61130E-01  1.06114E-01  8.18661E-01  4.51039E-01  4.77506E-02  5.13773E-02  2.33687E-02  2.42134E-01
   2.49157E-01 -2.97208E-02  1.17016E-01  3.72220E-01  2.99576E-01  5.82542E-01 -6.26371E-02 -1.68863E-01 -6.08224E-03 -4.76995E-01
  -1.14855E-01 -7.85239E-02 -4.40753E-01 -3.37749E-01 -2.01869E-01 -2.93457E-01 -2.88618E-01  2.95130E-01  6.29001E-01  6.32077E-02
   3.30783E-01  3.95817E-01  1.25019E-01 -9.78509E-02  1.22831E-01 -3.81907E-02 -6.24685E-01 -7.18338E-02 -1.38450E-01 -2.50810E-01
  -3.24332E-01 -1.38393E-01  9.00411E-02 -2.70704E-01  2.61414E-01  1.12628E+00  1.64868E-01 -1.38493E-01 -1.68200E-01 -1.61570E-01
   7.17309E-01  2.27835E-01  1.75049E-01  8.99966E-02  5.08505E-01 -4.14712E-02 -4.90801E-01  3.16582E-02  9.55504E-02 -1.24269E-01
  -3.59695E-01  1.59632E-01 -4.55372E-03  3.93051E-01  3.56807E-01  8.12827E-01  8.64861E-01  8.41331E-01  6.45212E-01  1.97992E-01
   2.95210E-01 -6.77637E-02  6.84564E-01  3.78348E-01  5.58148E-01  5.88664E-01  5.11658E-01  5.35614E-01  5.70605E-01  5.78845E-01
  -3.15456E-02  5.48886E-01  2.34515E-01  6.79017E-01  1.12069E+00 -4.18929E-02 -3.93506E-01 -5.40412E-01 -1.11231E+00 -8.09274E-01
  -6.70571E-01 -4.73846E-01 -3.86209E-01 -6.81397E-01 -3.23762E-01 -6.65437E-01 -1.59163E+00 -1.99682E+00 -1.46687E+00 -9.26436E-01
  -3.24718E-01 -6.47190E-01 -7.32527E-01 -5.40889E-01 -1.96421E-01  3.65465E-01 -3.09206E-01 -2.66702E-02 -1.02723E-01  1.11854E-02
   3.20461E-01 -2.94588E-01 -2.95849E-01 -6.72278E-02 -6.36476E-01 -1.11286E-01  6.22541E-01 -1.03982E-01  1.29497E-01  1.65250E-01
   1.55226E-01 -4.26273E-03  1.78672E-01  2.12630E-01  1.83483E-01  7.72831E-01  3.04706E-01  4.35740E-01  3.20414E-01 -3.92684E-01
  -7.82106E-01 -3.09587E-01 -4.13465E-01 -8.72243E-01 -6.22145E-01 -1.26641E-01 -2.50564E-02 -4.57485E-01  2.65733E-01 -2.94749E-01
  -4.26494E-01 -6.11206E-02 -3.78275E-01  2.45257E-01  2.12529E-01 -1.04978E-01 -7.18412E-02 -1.11053E-01 -2.76182E-02 -9.15120E-02
  -6.58189E-01 -6.09087E-03  1.98353E-01  1.29780E-01 -2.67296E-02 -4.28624E-01  6.98915E-02 -6.69281E-02 -9.66917E-02  1.87790E-01
   6.52847E-01  2.12000E-01  6.32171E-01  8.54779E-01  2.32604E-01  4.71765E-01  2.63371E-01  4.97066E-01  3.79068E-01  4.05233E-01
   5.90209E-01  1.60292E-01 -1.33164E-01 -8.26274E-02 -2.60625E-01 -3.19054E-01 -1.22018E-01  1.53589E-01 -8.13133E-02 -5.07591E-01
   6.18804E-02 -1.30586E-01 -4.37236E-01  2.05184E-01  9.45484E-03 -5.13773E-01  1.76275E-01  3.50034E-01  2.83966E-01 -2.61220E-02
   3.74635E-01  5.10019E-01 -2.43454E-01  2.79963E-01 -6.81231E-01 -7.67212E-01 -1.23498E-01 -3.42077E-01 -2.87784E-02 -3.47392E-01
  -3.88827E-01 -2.24515E-01 -5.69194E-01  8.16012E-02 -1.81645E-01 -7.38322E-01 -1.86075E-01 -1.03047E-01 -1.30206E-02 -9.41659E-01
  -1.26694E-01  2.73427E-01 -2.10641E-01  3.92090E-02 -2.70614E-01  4.72747E-02 -2.06147E-01 -2.31985E-01 -3.70735E-01 -1.47993E-01
   1.52365E-01  3.70730E-01  3.51897E-01 -4.87660E-02 -1.30472E-01 -9.32367E-02 -1.99714E-01  1.92933E-01  6.67101E-01 -1.23612E-01
   1.76591E-01  5.24723E-01 -6.06020E-02 -1.30426E-01  1.05738E-01 -3.01105E-01  9.38453E-03 -7.00399E-02 -5.33649E-01 -9.61361E-01
  -1.12845E+00 -3.59981E-01 -4.60663E-01 -4.12210E-02  9.20512E-02  7.91066E-01  5.62664E-01  2.10573E-01  4.18085E-01  5.26185E-01
   4.03448E-01  1.37983E-01  1.09894E+00  1.52589E-01  1.63444E-02  7.20028E-02  3.39812E-01  2.31989E-02 -5.20049E-01  2.85983E-01
   3.35374E-01  5.27803E-01  2.63783E-01  4.20933E-01 -2.15462E-01 -1.56277E-01  5.72243E-01  4.51772E-01  2.25974E-01  1.84910E-01
   1.74524E-01  3.73699E-01  4.92160E-01  1.24778E-02  7.02552E-01  4.69928E-01  1.50494E-01  3.17284E-03 -3.07360E-01 -5.36027E-02
  -1.93753E-01  1.64279E-01 -4.28692E-01 -3.44840E-01  5.39582E-01 -1.44557E-01  6.61153E-02  2.06328E-01  3.24916E-01  6.46891E-01
  -2.41019E-01 -1.34976E-01 -2.05755E-01 -2.10983E-01 -2.01567E-01 -7.11098E-01 -8.18704E-01 -1.19796E+00 -7.03548E-01 -1.50893E-01
  -6.33177E-01 -5.83704E-01 -2.78135E-01 -1.26688E+00 -1.41798E+00 -4.51185E-01 -4.23051E-01 -1.66983E-01  4.52083E-01  7.75652E-02
   5.96693E-02  6.04196E-01  3.82333E-01  2.91353E-01  1.95218E-01  1.48733E-01  2.31983E-01  2.39547E-01  5.93949E-01 -8.45686E-03
  -4.33021E-01  1.40230E-01  4.16753E-01  2.67155E-01 -3.93123E-01  3.23111E-01  3.90155E-01 -2.27582E-02  5.62572E-01  3.84982E-03
   1.09652E-01  2.31042E-01  6.07190E-01  4.88768E-01  1.36984E-01  9.51314E-01  4.21067E-01  4.04339E-01  4.40127E-01 -1.67523E-02
   5.66909E-01  4.06894E-01  1.55892E-01  3.19495E-01  3.48216E-01  3.83972E-01  2.20873E-01  4.05299E-01  5.55084E-01  4.55509E-01
   1.61684E-01  2.83540E-01  4.71008E-01  4.56969E-01 -1.63591E-02 -1.35968E-01  2.02538E-01  3.10444E-01  5.25338E-01 -6.67258E-01
   4.13911E-02  1.15345E-01 -2.46737E-01  3.23915E-01 -6.49122E-01 -1.65990E-01 -6.14544E-02  1.44076E-01 -5.41934E-01 -4.71481E-01
  -8.96085E-02 -4.35144E-01 -4.87819E-02 -5.36354E-01 -2.86759E-01 -5.95862E-01 -2.50287E-01 -5.03830E-01 -3.97119E-01 -4.00729E-01
  -7.80377E-01 -2.13129E-02 -6.07567E-01 -7.54003E-01 -9.55345E-01 -5.03083E-01 -8.94939E-01 -6.62126E-01 -2.62527E-01 -7.66217E-01
  -2.89731E-01 -7.49971E-01 -5.68703E-01 -1.08999E+00 -8.43202E-01 -3.38937E-01 -7.64269E-01 -8.35828E-01 -4.58735E-01 -2.68245E-02
  -6.76061E-01 -7.97539E-01 -8.59647E-01 -5.02352E-01 -6.24084E-01 -1.03542E-01  1.94951E-02 -6.16467E-01  1.62096E-02 -1.55625E-01
  -3.98177E-01 -1.50425E-01  4.72638E-03 -7.42296E-01 -7.13145E-02  2.35414E-01 -4.63811E-01 -2.59356E-01 -2.88811E-02  4.95757E-01
   4.91318E-01  7.62866E-01  8.90748E-01  1.18211E+00  5.91695E-01  1.05254E+00  1.68939E+00  1.23549E+00  1.64469E+00  1.07268E+00
   1.76858E+00  1.79638E+00  1.44059E+00  1.47893E+00  8.38940E-01  7.33145E-01  6.53697E-01  6.14803E-01  4.25056E-01  3.34748E-01
  -2.61797E-01  6.58552E-02 -1.73363E-01 -4.24455E-01 -3.72336E-01 -6.62278E-01 -9.57590E-02 -4.00677E-01 -2.27816E-01 -4.29493E-01
   3.44619E-02  9.75018E-02 -4.68779E-01 -2.53727E-02 -7.71875E-01 -6.45687E-01  3.04860E-02  3.45653E-03 -6.38597E-01 -5.22492E-01
  -2.63542E-01 -4.47645E-01 -2.84441E-01 -3.17925E-01  1.48413E-01  1.37780E-01  1.19287E-01  3.07041E-04 -1.62000E-01  1.76759E-01
   2.76390E-01  1.61426E-01  3.83242E-01  4.56701E-01  1.90096E-01  1.49702E-01  9.28725E-02  1.55090E-01  1.83558E-01  5.39241E-01
   3.00128E-03 -1.89698E-01  1.76228E-01 -1.10052E-01 -1.72013E-01 -3.82714E-01  1.08533E-01  8.28058E-02 -2.35940E-01  1.96944E-01
  -2.40803E-01 -6.05042E-01  4.15832E-01 -1.26496E-02 -4.50894E-01  8.01202E-01  4.82334E-01 -3.08630E-01 -3.00135E-01  2.18548E-01
   3.02274E-01  5.63492E-01  7.40247E-01  4.30339E-01  5.64165E-01  2.41483E-01  6.15591E-01  3.49870E-01  5.52232E-01  9.27765E-01
  -1.67486E-01  4.76516E-01  6.51162E-01  5.35298E-01  9.11551E-01  4.77047E-01  6.64350E-01  7.43676E-01  5.30003E-01  8.11004E-01
   8.57061E-01  2.89490E-02 -1.76073E-01 -3.51553E-01 -7.67636E-02  4.14448E-01  4.22084E-02 -7.72830E-02 -3.58893E-01  1.49507E-02
  -4.18346E-03  3.61788E-01  2.58243E-01 -2.57243E-01  3.08935E-01 -1.19925E-01  1.09260E-01 -1.48682E-02 -4.65713E-01  6.37150E-02
   2.26732E-01 -4.19104E-01 -3.54835E-01 -2.38986E-01 -7.38319E-01  8.05759E-02  1.19026E-01 -4.16502E-03  4.11551E-02 -3.62088E-01
   3.20392E-02  1.47825E-02 -3.20361E-01  1.60611E-01  1.26019E-01  4.65886E-02  5.60107E-01 -2.90326E-01 -8.12343E-02  9.16582E-02
  -2.23741E-01  9.05342E-02 -2.72391E-01 -5.74854E-02 -5.75404E-03  7.01648E-01  5.31966E-01 -2.13731E-01  9.24918E-02 -3.55303E-02
  -7.34433E-02  2.32912E-01  1.68015E-01 -1.58673E-01  4.22367E-01  1.11814E-01  7.71665E-02  1.35495E-01 -3.56907E-01  1.36350E-01
   7.83062E-02  1.48323E-01 -2.65105E-02  9.73486E-02  4.84965E-01 -2.08090E-01 -7.84178E-02  2.15351E-01 -2.14108E-01  3.05643E-01
   1.75224E-01 -2.54236E-01  3.01698E-02 -5.17306E-01 -2.69657E-01  5.33298E-01  2.49410E-01 -2.65066E-01 -1.88522E-01 -1.28903E-01
  -8.72167E-02  1.58628E-01  1.26454E-01  2.14013E-01  3.05729E-01 -1.67985E-01 -2.95804E-01 -3.17744E-02  1.94097E-01  1.18567E-01
   4.88733E-02 -5.13650E-02 -8.31641E-02  2.68008E-01
 NY points of the fit to the data follow
  -9.27769E-03 -8.08919E-03 -1.36750E-02 -2.43414E-02 -3.80563E-02 -5.21482E-02 -6.46675E-02 -7.46708E-02 -8.07282E-02 -7.74653E-02
  -4.74811E-02  4.99613E-03  7.48497E-02  1.53855E-01  2.32966E-01  2.99774E-01  3.39218E-01  3.43057E-01  3.16713E-01  2.73888E-01
   2.21579E-01  1.58255E-01  8.79731E-02  2.60902E-02 -7.76719E-03 -3.42327E-02 -5.72712E-02 -7.84151E-02 -9.71529E-02 -1.14893E-01
  -1.32662E-01 -1.52225E-01 -1.74042E-01 -1.99449E-01 -2.27734E-01 -2.53805E-01 -2.73537E-01 -2.76895E-01 -2.60136E-01 -2.15811E-01
  -1.47070E-01 -5.78219E-02  3.99781E-02  1.34898E-01  2.17115E-01  2.77624E-01  3.11885E-01  3.17685E-01  2.97983E-01  2.61051E-01
   2.08589E-01  1.50707E-01  8.69778E-02  2.81293E-02 -3.10663E-02 -8.40074E-02 -1.34173E-01 -1.79393E-01 -2.11836E-01 -2.36753E-01
  -2.56307E-01 -2.57835E-01 -2.40281E-01 -1.99273E-01 -1.33613E-01 -4.82091E-02  5.30087E-02  1.61046E-01  2.61338E-01  3.41246E-01
   3.92119E-01  4.09523E-01  4.00700E-01  3.53303E-01  2.64508E-01  1.57993E-01  4.01705E-02 -7.53490E-02 -1.68738E-01 -2.24023E-01
  -2.29043E-01 -1.81271E-01 -9.16360E-02  2.16775E-02  1.42265E-01  2.59041E-01  3.57746E-01  4.21939E-01  4.40068E-01  4.26269E-01
   3.94098E-01  3.26778E-01  2.28964E-01  1.13019E-01 -1.33614E-02 -1.37386E-01 -2.38799E-01 -2.99920E-01 -3.08596E-01 -2.61804E-01
  -1.68850E-01 -4.64715E-02  8.65205E-02  2.14621E-01  3.24391E-01  4.07001E-01  4.59117E-01  4.81357E-01  4.86667E-01  4.83188E-01
   4.80846E-01  4.79830E-01  4.80203E-01  4.82000E-01  4.85125E-01  4.89758E-01  4.95248E-01  4.95678E-01  4.91755E-01  4.82528E-01
   4.58857E-01  4.10248E-01  3.37483E-01  2.23027E-01  7.92800E-02 -8.76834E-02 -2.55593E-01 -3.97298E-01 -4.87191E-01 -5.12658E-01
  -5.10593E-01 -5.35271E-01 -5.93128E-01 -6.90446E-01 -8.27155E-01 -9.83605E-01 -1.11086E+00 -1.19152E+00 -1.17810E+00 -1.09643E+00
  -9.70237E-01 -8.11956E-01 -6.20365E-01 -4.14144E-01 -2.57789E-01 -1.76705E-01 -1.22429E-01 -8.15666E-02 -4.86771E-02 -2.09368E-02
   3.35367E-03  2.53331E-02  4.58436E-02  6.55736E-02  8.51466E-02  1.05197E-01  1.26454E-01  1.49856E-01  1.76762E-01  2.09385E-01
   2.51896E-01  3.13329E-01  3.73385E-01  4.08092E-01  4.05158E-01  3.58142E-01  2.65942E-01  1.34271E-01 -1.81373E-02 -1.61890E-01
  -2.71319E-01 -3.41326E-01 -3.81336E-01 -3.93411E-01 -3.70543E-01 -3.08655E-01 -2.50558E-01 -2.12524E-01 -1.84596E-01 -1.62487E-01
  -1.44745E-01 -1.29806E-01 -1.17819E-01 -1.08218E-01 -1.00228E-01 -9.32210E-02 -8.70970E-02 -8.18798E-02 -7.72539E-02 -7.28830E-02
  -6.85516E-02 -6.43585E-02 -6.01711E-02 -5.61996E-02 -5.22627E-02 -4.82355E-02 -4.35336E-02 -3.81630E-02 -3.25791E-02 -2.71941E-02
  -2.22661E-02 -1.74202E-02 -1.28089E-02 -9.22217E-03 -6.99626E-03 -6.08638E-03 -6.57638E-03 -9.01133E-03 -1.36166E-02 -1.94688E-02
  -2.44875E-02 -2.73196E-02 -2.81797E-02 -2.75990E-02 -2.55812E-02 -2.10597E-02 -1.47790E-02 -8.27820E-03 -2.32322E-03  6.55705E-03
   2.03517E-02  3.81308E-02  5.77025E-02  7.72688E-02  9.85605E-02  1.22046E-01  1.43340E-01  1.59013E-01  1.68470E-01  1.72009E-01
   1.66552E-01  1.49302E-01  1.21346E-01  9.19887E-02  6.42624E-02  3.64813E-02  8.57416E-03 -1.68718E-02 -3.45562E-02 -4.49308E-02
  -5.30860E-02 -5.96942E-02 -6.58201E-02 -7.18559E-02 -7.80579E-02 -8.41239E-02 -8.97798E-02 -9.53464E-02 -1.00423E-01 -1.05456E-01
  -1.10472E-01 -1.11912E-01 -1.10318E-01 -1.05483E-01 -9.51124E-02 -7.83899E-02 -5.60887E-02 -3.22303E-02 -8.13578E-03  1.50510E-02
   3.56958E-02  5.12374E-02  5.93815E-02  6.00385E-02  5.47033E-02  4.81916E-02  3.56502E-02  1.80032E-02 -2.65312E-05 -1.96630E-02
  -4.23970E-02 -7.06443E-02 -1.01702E-01 -1.36999E-01 -1.79228E-01 -2.32490E-01 -2.96512E-01 -3.68925E-01 -4.41813E-01 -4.98067E-01
  -5.25560E-01 -5.07851E-01 -4.38343E-01 -3.21230E-01 -1.69924E-01 -4.49821E-03  1.54479E-01  2.90036E-01  3.90701E-01  4.48712E-01
   4.69851E-01  4.58556E-01  4.27926E-01  3.93234E-01  3.56525E-01  3.28532E-01  3.07612E-01  2.89703E-01  2.74213E-01  2.59275E-01
   2.44857E-01  2.30688E-01  2.15567E-01  1.99734E-01  1.82358E-01  1.63512E-01  1.42274E-01  1.20254E-01  9.77434E-02  7.70826E-02
   5.97901E-02  4.55640E-02  3.39373E-02  2.23326E-02  9.26488E-03 -9.35114E-03 -3.36804E-02 -6.58580E-02 -1.02980E-01 -1.42928E-01
  -1.81330E-01 -2.10361E-01 -2.25941E-01 -2.22344E-01 -2.01358E-01 -1.66821E-01 -1.26879E-01 -9.05493E-02 -6.40454E-02 -5.63188E-02
  -6.63853E-02 -1.04271E-01 -1.58107E-01 -2.22068E-01 -2.81589E-01 -3.29363E-01 -3.80680E-01 -4.42065E-01 -5.09908E-01 -5.78236E-01
  -6.47253E-01 -7.04121E-01 -7.27978E-01 -7.04450E-01 -6.34435E-01 -5.48023E-01 -4.50820E-01 -3.49331E-01 -2.39531E-01 -1.32997E-01
  -6.74217E-02 -3.67086E-02 -1.70528E-02 -2.63939E-03  8.26217E-03  1.63697E-02  2.16408E-02  2.38541E-02  2.28376E-02  1.86299E-02
   1.16334E-02  2.72383E-03 -6.98731E-03 -1.63287E-02 -2.43459E-02 -3.01586E-02 -3.33179E-02 -3.35629E-02 -3.16493E-02 -2.79072E-02
  -2.31563E-02 -1.79875E-02 -1.29009E-02 -8.32009E-03 -4.53958E-03 -1.45618E-03  9.59806E-04  2.84330E-03  4.15084E-03  5.08822E-03
   5.75906E-03  6.22554E-03  6.52812E-03  6.69470E-03  6.74547E-03  6.69577E-03  6.55774E-03  6.34124E-03  6.05466E-03  5.70479E-03
   5.29697E-03  4.83550E-03  4.32330E-03  3.76175E-03  3.15132E-03  2.49249E-03  1.78587E-03  1.03218E-03  2.32383E-04 -6.12283E-04
  -1.50032E-03 -2.42997E-03 -3.39977E-03 -4.40977E-03 -5.46073E-03 -6.55378E-03 -7.69071E-03 -8.87387E-03 -1.01056E-02 -1.13876E-02
  -1.27214E-02 -1.41086E-02 -1.55510E-02 -1.70508E-02 -1.86108E-02 -2.02339E-02 -2.19241E-02 -2.36860E-02 -2.55241E-02 -2.74432E-02
  -2.94491E-02 -3.15476E-02 -3.37446E-02 -3.60458E-02 -3.84577E-02 -4.09881E-02 -4.36468E-02 -4.64446E-02 -4.93931E-02 -5.25058E-02
  -5.57982E-02 -5.92881E-02 -6.29955E-02 -6.69430E-02 -7.11557E-02 -7.56620E-02 -8.04952E-02 -8.56932E-02 -9.12999E-02 -9.73668E-02
  -1.03956E-01 -1.11143E-01 -1.19017E-01 -1.27689E-01 -1.37292E-01 -1.47993E-01 -1.60003E-01 -1.73594E-01 -1.89118E-01 -2.07046E-01
  -2.28025E-01 -2.52960E-01 -2.83169E-01 -3.20587E-01 -3.67582E-01 -4.14628E-01 -4.13101E-01 -3.49728E-01 -1.78038E-01  9.31702E-02
   4.40667E-01  8.22463E-01  1.17822E+00  1.45093E+00  1.60084E+00  1.62778E+00  1.55063E+00  1.39510E+00  1.18420E+00  9.47945E-01
   7.52264E-01  5.82799E-01  4.91690E-01  4.31003E-01  3.86245E-01  3.51357E-01  3.23170E-01  2.99807E-01  2.80062E-01  2.63116E-01
   2.48386E-01  2.35446E-01  2.23975E-01  2.13725E-01  2.04502E-01  1.96152E-01  1.88550E-01  1.81594E-01  1.75201E-01  1.69304E-01
   1.63844E-01  1.58772E-01  1.54046E-01  1.49628E-01  1.45488E-01  1.41598E-01  1.37934E-01  1.34475E-01  1.31203E-01  1.28103E-01
   1.25161E-01  1.22363E-01  1.19697E-01  1.17152E-01  1.14720E-01  1.12392E-01  1.10160E-01  1.08018E-01  1.05959E-01  1.03979E-01
   1.02074E-01  1.00238E-01  9.84677E-02  9.67591E-02  9.51084E-02  9.35114E-02  9.19645E-02  9.04644E-02  8.90089E-02  8.75954E-02
   8.62212E-02  8.48836E-02  8.35807E-02  8.23111E-02  8.10732E-02  7.98653E-02  7.86856E-02  7.75331E-02  7.64068E-02  7.53054E-02
   7.42281E-02  7.31740E-02  7.21421E-02  7.11315E-02  7.01415E-02  6.91714E-02  6.82201E-02  6.72862E-02  6.63684E-02  6.54658E-02
   6.45772E-02  6.37015E-02  6.28382E-02  6.19877E-02  6.11505E-02  6.03262E-02  5.95141E-02  5.87137E-02  5.79249E-02  5.71480E-02
   5.63822E-02  5.56263E-02  5.48793E-02  5.41412E-02  5.34118E-02  5.26906E-02  5.19767E-02  5.12696E-02  5.05693E-02  4.98755E-02
   4.91875E-02  4.85047E-02  4.78271E-02  4.71551E-02  4.64884E-02  4.58266E-02  4.51701E-02  4.45195E-02  4.38750E-02  4.32362E-02
   4.26029E-02  4.19752E-02  4.13528E-02  4.07352E-02  4.01217E-02  3.95118E-02  3.89050E-02  3.82999E-02  3.76954E-02  3.70913E-02
   3.64879E-02  3.58857E-02  3.52852E-02  3.46871E-02  3.40925E-02  3.35020E-02  3.29159E-02  3.23343E-02  3.17567E-02  3.11823E-02
   3.06093E-02  3.00362E-02  2.94622E-02  2.88871E-02  2.83110E-02  2.77342E-02  2.71576E-02  2.65816E-02  2.60060E-02  2.54304E-02
   2.48549E-02  2.42795E-02  2.37034E-02  2.31258E-02  2.25466E-02  2.19662E-02  2.13852E-02  2.08034E-02  2.02205E-02  1.96365E-02
   1.90514E-02  1.84639E-02  1.78736E-02  1.72811E-02  1.66874E-02  1.60934E-02  1.54995E-02  1.49056E-02  1.43113E-02  1.37159E-02
   1.31184E-02  1.25181E-02  1.19143E-02  1.13076E-02  1.06986E-02  1.00883E-02  9.47752E-03  8.86675E-03  8.25566E-03  7.64337E-03
   7.02927E-03  6.41304E-03  5.79485E-03  5.17517E-03  4.55466E-03  3.93422E-03  3.31517E-03  2.69894E-03  2.08668E-03  1.47876E-03
   8.75441E-04  2.77699E-04 -3.13278E-04 -8.96323E-04 -1.47002E-03 -2.03237E-03 -2.58134E-03 -3.11486E-03 -3.62972E-03 -4.12168E-03
  -4.58497E-03 -5.01297E-03 -5.39801E-03 -5.73106E-03
 NY background values follow
     4.715E-02    4.697E-02    4.678E-02    4.659E-02    4.641E-02    4.622E-02    4.603E-02    4.584E-02    4.566E-02    4.547E-02
     4.528E-02    4.510E-02    4.491E-02    4.472E-02    4.454E-02    4.435E-02    4.416E-02    4.398E-02    4.379E-02    4.360E-02
     4.342E-02    4.323E-02    4.304E-02    4.285E-02    4.267E-02    4.248E-02    4.229E-02    4.211E-02    4.192E-02    4.173E-02
     4.155E-02    4.136E-02    4.117E-02    4.098E-02    4.080E-02    4.061E-02    4.042E-02    4.024E-02    4.005E-02    3.986E-02
     3.967E-02    3.949E-02    3.930E-02    3.911E-02    3.893E-02    3.874E-02    3.855E-02    3.836E-02    3.818E-02    3.799E-02
     3.780E-02    3.761E-02    3.743E-02    3.724E-02    3.705E-02    3.687E-02    3.668E-02    3.649E-02    3.630E-02    3.612E-02
     3.593E-02    3.574E-02    3.555E-02    3.537E-02    3.518E-02    3.499E-02    3.480E-02    3.462E-02    3.443E-02    3.424E-02
