 LCModel (Version 6.3-1N) Copyright: S.W. Provencher.          Ref.: Magn. Reson. Med. 30:672-679 (1993).                
 Slice_N1@18_19  02-Jun-2023 14:37:14
 27 lines in following concentration table = NCONC+1
    Conc.  %SD /Cr+PCr  Metabolite                                         
 2.03E-06  17% 2.1E-04 Mac                                                 
 3.60E-02  21%   3.633 Cr                                                  
 4.32E-02  17%   4.367 PCr                                                 
 9.39E-02   9%   9.483 Ins                                                 
 9.14E-02   7%   9.239 NAA                                                 
 7.90E-02   9%   7.982 Tau                                                 
 8.80E-03  35%   0.889 PCho                                                
 6.41E-03  46%   0.648 GPC                                                 
 7.39E-02  13%   7.469 Glu                                                 
 3.21E-02  22%   3.246 Gln                                                 
 5.09E-03 126%   0.514 Ala                                                 
 3.23E-02  40%   3.268 Asc                                                 
 1.40E-02  59%   1.414 Asp                                                 
 1.03E-02  42%   1.039 GABA                                                
 8.96E-03  63%   0.905 Glc                                                 
 1.19E-02  35%   1.199 GSH                                                 
    0.000 999%   0.000 Lac                                                 
 1.38E-02  31%   1.394 NAAG                                                
    0.000 999%   0.000 PE                                                  
 1.52E-02  12%   1.537 GPC+PCho                                            
    0.105   7%  10.634 NAA+NAAG                                            
    0.106  11%  10.714 Glu+Gln                                             
 7.92E-02   8%   8.000 Cr+PCr                                              
    0.105   7%  10.634 NAA+NAAG                                            
 7.92E-02   8%   8.000 Cr+PCr                                              
    0.106  11%  10.714 Glu+Gln                                             
   6 lines in following misc. output table
  FWHM = 0.017 ppm    S/N =   6                                            
  Data shift = 0.017 ppm                                                   
  Ph: -18 deg     -11.9 deg/ppm                                            
  alphaB,S = 3.1E+01,   5.3E+00                                            
   18 spline knots.   Ns = 5(1)                                            
   3 inflections.     1 extrema                                            
  654 points on ppm-axis = NY
      4.000000     3.994181     3.988363     3.982544     3.976726     3.970907     3.965088     3.959270     3.953451     3.947633
      3.941814     3.935995     3.930177     3.924358     3.918540     3.912721     3.906902     3.901084     3.895265     3.889446
      3.883628     3.877809     3.871991     3.866172     3.860353     3.854535     3.848716     3.842898     3.837079     3.831260
      3.825442     3.819623     3.813805     3.807986     3.802167     3.796349     3.790530     3.784712     3.778893     3.773074
      3.767256     3.761437     3.755619     3.749800     3.743981     3.738163     3.732344     3.726526     3.720707     3.714888
      3.709070     3.703251     3.697433     3.691614     3.685795     3.679977     3.674158     3.668339     3.662521     3.656702
      3.650884     3.645065     3.639246     3.633428     3.627609     3.621791     3.615972     3.610153     3.604335     3.598516
      3.592698     3.586879     3.581060     3.575242     3.569423     3.563605     3.557786     3.551967     3.546149     3.540330
      3.534512     3.528693     3.522874     3.517056     3.511237     3.505419     3.499600     3.493781     3.487963     3.482144
      3.476326     3.470507     3.464688     3.458870     3.453051     3.447232     3.441414     3.435595     3.429777     3.423958
      3.418139     3.412321     3.406502     3.400684     3.394865     3.389046     3.383228     3.377409     3.371591     3.365772
      3.359953     3.354135     3.348316     3.342498     3.336679     3.330860     3.325042     3.319223     3.313405     3.307586
      3.301767     3.295949     3.290130     3.284312     3.278493     3.272674     3.266856     3.261037     3.255219     3.249400
      3.243581     3.237763     3.231944     3.226125     3.220307     3.214488     3.208670     3.202851     3.197032     3.191214
      3.185395     3.179577     3.173758     3.167939     3.162121     3.156302     3.150484     3.144665     3.138846     3.133028
      3.127209     3.121391     3.115572     3.109753     3.103935     3.098116     3.092298     3.086479     3.080660     3.074842
      3.069023     3.063205     3.057386     3.051567     3.045749     3.039930     3.034111     3.028293     3.022474     3.016656
      3.010837     3.005018     2.999200     2.993381     2.987563     2.981744     2.975925     2.970107     2.964288     2.958470
      2.952651     2.946832     2.941014     2.935195     2.929377     2.923558     2.917739     2.911921     2.906102     2.900284
      2.894465     2.888646     2.882828     2.877009     2.871191     2.865372     2.859553     2.853735     2.847916     2.842098
      2.836279     2.830460     2.824642     2.818823     2.813004     2.807186     2.801367     2.795549     2.789730     2.783911
      2.778093     2.772274     2.766456     2.760637     2.754818     2.749000     2.743181     2.737363     2.731544     2.725725
      2.719907     2.714088     2.708270     2.702451     2.696632     2.690814     2.684995     2.679177     2.673358     2.667539
      2.661721     2.655902     2.650084     2.644265     2.638446     2.632628     2.626809     2.620991     2.615172     2.609353
      2.603535     2.597716     2.591897     2.586079     2.580260     2.574442     2.568623     2.562804     2.556986     2.551167
      2.545349     2.539530     2.533711     2.527893     2.522074     2.516256     2.510437     2.504618     2.498800     2.492981
      2.487163     2.481344     2.475525     2.469707     2.463888     2.458070     2.452251     2.446432     2.440614     2.434795
      2.428977     2.423158     2.417339     2.411521     2.405702     2.399884     2.394065     2.388246     2.382428     2.376609
      2.370790     2.364972     2.359153     2.353335     2.347516     2.341697     2.335879     2.330060     2.324242     2.318423
      2.312604     2.306786     2.300967     2.295149     2.289330     2.283511     2.277693     2.271874     2.266056     2.260237
      2.254418     2.248600     2.242781     2.236963     2.231144     2.225325     2.219507     2.213688     2.207870     2.202051
      2.196232     2.190414     2.184595     2.178777     2.172958     2.167139     2.161321     2.155502     2.149683     2.143865
      2.138046     2.132228     2.126409     2.120590     2.114772     2.108953     2.103135     2.097316     2.091497     2.085679
      2.079860     2.074042     2.068223     2.062404     2.056586     2.050767     2.044949     2.039130     2.033311     2.027493
      2.021674     2.015856     2.010037     2.004218     1.998400     1.992581     1.986763     1.980944     1.975126     1.969307
      1.963489     1.957670     1.951852     1.946033     1.940215     1.934397     1.928578     1.922760     1.916941     1.911123
      1.905304     1.899486     1.893667     1.887849     1.882030     1.876212     1.870393     1.864575     1.858756     1.852938
      1.847119     1.841301     1.835482     1.829664     1.823845     1.818027     1.812208     1.806390     1.800571     1.794753
      1.788934     1.783116     1.777297     1.771479     1.765660     1.759842     1.754023     1.748205     1.742386     1.736568
      1.730749     1.724931     1.719113     1.713294     1.707476     1.701657     1.695839     1.690020     1.684202     1.678383
      1.672565     1.666746     1.660928     1.655109     1.649291     1.643472     1.637654     1.631835     1.626017     1.620198
      1.614380     1.608561     1.602743     1.596924     1.591106     1.585287     1.579469     1.573650     1.567832     1.562013
      1.556195     1.550376     1.544558     1.538739     1.532921     1.527102     1.521284     1.515465     1.509647     1.503829
      1.498010     1.492192     1.486373     1.480555     1.474736     1.468918     1.463099     1.457281     1.451462     1.445644
      1.439825     1.434007     1.428188     1.422370     1.416551     1.410733     1.404914     1.399096     1.393277     1.387459
      1.381640     1.375822     1.370003     1.364185     1.358366     1.352548     1.346729     1.340911     1.335092     1.329274
      1.323455     1.317637     1.311818     1.306000     1.300182     1.294363     1.288545     1.282726     1.276908     1.271089
      1.265271     1.259452     1.253634     1.247815     1.241997     1.236178     1.230360     1.224541     1.218723     1.212904
      1.207086     1.201267     1.195449     1.189630     1.183812     1.177993     1.172175     1.166356     1.160538     1.154719
      1.148901     1.143082     1.137264     1.131445     1.125627     1.119808     1.113990     1.108171     1.102353     1.096534
      1.090716     1.084898     1.079079     1.073261     1.067442     1.061624     1.055805     1.049987     1.044168     1.038350
      1.032531     1.026713     1.020894     1.015076     1.009257     1.003439     0.997620     0.991802     0.985983     0.980165
      0.974346     0.968528     0.962709     0.956891     0.951072     0.945254     0.939435     0.933617     0.927798     0.921980
      0.916161     0.910343     0.904524     0.898706     0.892887     0.887069     0.881251     0.875432     0.869614     0.863795
      0.857977     0.852158     0.846340     0.840521     0.834703     0.828884     0.823066     0.817247     0.811429     0.805610
      0.799792     0.793973     0.788155     0.782336     0.776518     0.770699     0.764881     0.759062     0.753244     0.747425
      0.741607     0.735788     0.729970     0.724151     0.718333     0.712514     0.706696     0.700877     0.695059     0.689240
      0.683422     0.677603     0.671785     0.665967     0.660148     0.654330     0.648511     0.642693     0.636874     0.631056
      0.625237     0.619419     0.613600     0.607782     0.601963     0.596145     0.590326     0.584508     0.578689     0.572871
      0.567052     0.561234     0.555415     0.549597     0.543778     0.537960     0.532141     0.526323     0.520504     0.514686
      0.508867     0.503049     0.497230     0.491412     0.485593     0.479775     0.473956     0.468138     0.462319     0.456501
      0.450682     0.444864     0.439045     0.433227     0.427408     0.421590     0.415771     0.409953     0.404134     0.398316
      0.392497     0.386679     0.380860     0.375042     0.369223     0.363405     0.357586     0.351767     0.345949     0.340130
      0.334312     0.328493     0.322675     0.316856     0.311038     0.305219     0.299401     0.293582     0.287764     0.281945
      0.276127     0.270308     0.264490     0.258671     0.252853     0.247034     0.241216     0.235397     0.229579     0.223760
      0.217942     0.212123     0.206305     0.200486
 NY phased data points follow
  -2.78968E-01 -4.97656E-01 -2.29204E-01 -4.43821E-01  1.80122E-01 -1.87889E-01 -3.19889E-01  8.70168E-02 -3.97991E-01  1.93668E-01
   4.48785E-01  9.15351E-01  9.15976E-01 -8.66368E-02  2.68648E-01  7.36991E-01  3.28101E-01  2.81557E-01  8.67719E-02 -2.95145E-01
   1.51225E-01  2.58293E-01 -1.12297E-01 -1.20281E-01 -2.82265E-02 -4.72443E-02 -1.74869E-02 -2.25333E-01 -4.71351E-01 -6.61633E-02
  -2.35797E-02 -4.44478E-02 -1.57444E-01 -2.34896E-01 -1.72424E-01 -4.67739E-01 -3.68437E-01 -7.50177E-01 -3.39918E-01  1.09809E-01
   2.60634E-01  6.53623E-01  4.30391E-01  5.22840E-01  2.48783E-01  5.02175E-01  6.88724E-01  3.48023E-01  2.36658E-01  2.65483E-01
  -1.81098E-02 -2.07820E-01  2.44710E-02 -1.63499E-01 -2.23234E-02 -3.84166E-01 -3.34317E-01 -9.68030E-02 -3.32772E-01 -1.47035E-01
  -4.11503E-01 -6.69376E-01 -3.33419E-01 -2.30486E-01 -5.38732E-01 -5.25437E-02  3.69830E-01  1.25994E-01  2.55658E-01  4.23066E-01
   2.56931E-01  1.33238E-01 -6.63291E-02 -4.22466E-02 -4.99391E-02 -4.80969E-02 -6.89010E-02 -3.14170E-01 -2.52839E-01 -5.72204E-01
  -3.11592E-01  1.73521E-01  2.16274E-01  3.75745E-01  4.62744E-01  5.62909E-01  4.36680E-01  1.51186E-01  2.95150E-01  3.95262E-01
   1.94841E-01  1.96582E-01  7.96379E-02  2.78953E-01 -2.30487E-01 -2.21748E-01  1.68797E-02 -4.68324E-01 -7.68622E-02 -4.68281E-01
  -5.45044E-01 -1.08829E-01  5.95337E-02  2.20277E-01  4.06662E-01  6.24347E-01  3.05714E-01  5.81362E-01  5.12221E-01  2.64883E-01
   6.41756E-01  4.71283E-01  4.13899E-01  3.35956E-01  3.25163E-01  3.85197E-01  2.53052E-01  2.38334E-01  8.87584E-02  3.09859E-01
   2.26051E-01  2.59778E-01  1.36828E-01 -9.52816E-02 -3.05499E-01 -3.47510E-01  2.21742E-01 -5.69059E-01 -7.08767E-01 -6.13812E-01
  -1.03195E+00 -4.32224E-01 -3.49807E-01 -5.15923E-01 -3.97820E-01 -8.53564E-01 -9.64955E-01 -8.03614E-01 -5.97132E-01 -1.10867E-02
  -1.80751E-01  7.41007E-02  2.10250E-01 -1.17647E-01 -6.15947E-02  5.41594E-02  4.67612E-02  2.08050E-02  5.11677E-02  2.24580E-01
   4.96764E-01  2.13801E-01  3.90972E-01  5.32035E-02 -7.22963E-02  4.01992E-01  1.96653E-01  1.45196E-01  6.56604E-01  7.38924E-01
   4.42112E-01  7.08377E-01  5.23032E-01  6.36679E-01  8.08545E-01  9.18899E-01  9.02369E-01 -2.43448E-01 -1.26958E+00 -1.05769E+00
  -9.06960E-01 -7.57630E-01 -5.29599E-01 -7.46777E-01 -4.04230E-01 -4.63313E-01 -1.84548E-01 -1.63211E-01 -2.99953E-01 -2.49904E-01
  -4.29679E-01 -2.71188E-01 -3.90834E-01 -8.91843E-02 -2.66280E-01 -3.72274E-01  1.09124E-01 -3.60616E-02 -3.23404E-01 -2.49668E-01
  -3.50016E-02 -7.33985E-02 -2.86518E-01 -2.47950E-01 -3.31580E-01 -2.15958E-01  1.38682E-01  1.51461E-01 -1.67547E-01 -1.16608E-01
   2.28152E-01 -1.83336E-01  5.56391E-02 -3.43942E-03 -1.28916E-01  2.37831E-01  2.92009E-02  1.11821E-01 -1.49486E-02 -1.49671E-01
   3.86541E-03 -1.36524E-01 -1.92703E-01 -1.02204E-01 -2.07958E-01  1.95022E-01  9.45811E-02  1.01588E-02  1.71524E-01 -5.06439E-02
  -5.66837E-02  7.17978E-02  2.85763E-01 -1.23587E-01  9.32426E-02  3.65930E-01  3.19399E-01  3.37354E-01  3.79858E-01  4.58395E-01
   3.24635E-01  4.01529E-01 -1.88129E-02 -1.99324E-01 -1.24947E-02 -7.98937E-02 -4.43763E-01 -2.96586E-01 -2.51693E-02 -1.11950E-01
   1.48133E-01 -1.45633E-01 -3.72826E-01 -1.70584E-01 -2.44646E-01 -2.47850E-01 -7.76495E-02 -2.62282E-01 -3.84291E-01 -2.96077E-02
  -1.85563E-01 -3.21078E-02 -3.48432E-02 -2.27798E-01  6.92064E-02 -3.08130E-01  2.42991E-01  1.60433E-01 -2.72028E-01  1.59368E-01
  -1.60344E-01  1.13839E-01  9.18894E-02  5.61475E-02  1.64788E-01 -1.04546E-01  1.53585E-01  2.27590E-01  2.16820E-01  2.49067E-01
   1.41066E-01  1.07254E-01  3.48515E-02 -3.79131E-03  4.74640E-02  3.15019E-02  2.03223E-02  2.26698E-01  6.13452E-03 -2.40920E-01
  -2.25663E-01 -3.17013E-01 -6.47568E-02 -3.86625E-01  3.86371E-02  5.77473E-01  3.87827E-01  4.92986E-01  6.89605E-01  6.81529E-01
  -4.71585E-02  1.93760E-01  1.48408E-01  1.08539E-01  4.26122E-01  7.32330E-02  1.30051E-01  3.41781E-01  4.81484E-01  5.29829E-01
   5.52262E-01  3.01417E-01  2.51082E-01  2.03800E-01  4.14400E-01  3.44045E-01  2.48477E-01  4.64205E-01  2.86067E-01  1.32664E-01
  -8.86262E-02  1.45685E-01  2.38002E-01  3.10578E-01  1.24103E-01 -4.28203E-02  2.03114E-01 -4.92750E-02 -3.87627E-02  3.43447E-02
  -1.53666E-01 -3.37367E-01 -1.94337E-01 -1.28156E-01 -3.28141E-01  4.38508E-02 -2.95451E-03 -4.39929E-02  1.80468E-01  1.96975E-01
   2.01015E-01 -4.43846E-02 -9.71497E-02 -1.10863E-01  1.16879E-01 -5.25261E-01 -6.02756E-01 -3.04703E-01 -5.26572E-01 -5.66660E-01
  -6.93065E-01 -7.32187E-01 -2.57212E+00 -2.36378E+00 -7.04407E-01 -3.57004E-01  1.31229E-01  8.13169E-02 -2.37593E-01 -2.41148E-01
   2.33370E-01  1.22748E-01  6.88845E-02  5.67920E-02  2.32713E-01  3.51866E-01 -1.81663E-01 -1.99557E-01  1.38253E-01  1.59787E-01
   1.99108E-01  5.89595E-02  1.75867E-01  2.08725E-01 -1.33619E-01  1.63071E-01  1.11843E-01  3.50591E-02 -1.48547E-01  1.00665E-01
  -5.12160E-02  1.33269E-01  2.01836E-01 -2.86145E-01  2.85941E-01 -2.69425E-01  6.28616E-02  2.71351E-01  3.11204E-01  5.09238E-01
  -8.58412E-03  1.08831E-01  8.79970E-02  1.93658E-01 -1.37687E-01  5.47116E-02  3.51032E-01  1.83542E-01  3.48527E-01  3.61213E-01
   3.18377E-01  2.03235E-01 -4.40807E-02 -5.01652E-02  3.03147E-01  2.40458E-01  5.70322E-02  4.18491E-01  1.48524E-01  1.22717E-01
   3.62058E-01 -1.81693E-01 -7.46936E-02 -1.98501E-01 -2.08222E-01  9.97472E-02 -8.78771E-02 -1.73116E-02  2.51191E-01 -2.07513E-02
  -2.95990E-01 -2.51373E-01 -3.05438E-01 -1.63778E-01 -3.01416E-02  3.64193E-02 -2.52749E-01  9.14725E-02 -1.88233E-01 -2.15437E-01
   3.10129E-01 -3.05667E-01 -3.27566E-02  3.76402E-02 -2.37147E-01 -2.52200E-01 -1.60630E-02  4.60609E-02 -2.42467E-01 -2.19527E-01
  -1.87507E-01 -1.08879E-01  1.78430E-02  2.87964E-01  5.07182E-01  4.87512E-02 -4.09656E-01  3.57696E-02 -1.11538E-01  1.84747E-01
   1.53095E-01 -3.07312E-01  5.58540E-02  2.87298E-02  2.84393E-01 -9.70209E-02 -5.03179E-02  2.01582E-01  2.45360E-01  6.28495E-01
   3.91393E-01  2.45948E-01  1.29623E-01  1.06437E-01  8.78697E-03  7.97176E-02 -4.90503E-03 -8.60809E-02 -5.74945E-02  2.88884E-02
   1.33518E-01  3.21378E-02  3.28973E-01 -7.10259E-03 -3.31122E-01 -3.51558E-01 -2.93493E-01 -1.62673E-01 -3.40782E-01 -3.08213E-01
   8.79675E-02  5.37180E-02 -4.52122E-01 -3.05380E-01 -1.48153E-01 -7.69072E-02 -1.58249E-01 -1.40106E-01 -2.23994E-01 -3.53948E-01
   1.27283E-01  6.22211E-02 -1.71341E-01 -9.62802E-02 -1.01047E-01  1.97485E-01  3.24052E-01 -1.62293E-01  9.26589E-02  1.74559E-01
  -1.81037E-01  2.87194E-02  1.54318E-01  1.00985E-01  7.47077E-03  2.59194E-02  4.73693E-02  8.18719E-02  1.23422E-01  2.15981E-01
   1.14914E-01  1.96691E-01  1.57736E-01 -5.72492E-02  1.63185E-01  3.41141E-01  3.34532E-01  1.36457E-01 -1.13389E-01  8.40032E-02
   8.98333E-02 -1.55218E-01  3.55560E-01  2.60788E-01  2.17730E-01  1.46490E-01 -1.91823E-01  2.53721E-01  1.81977E-01  3.62198E-03
   8.24976E-02 -8.71431E-02 -1.09627E-01 -2.12510E-01 -3.70218E-01 -2.75342E-01 -5.96336E-01 -1.85365E-01 -3.59364E-01 -6.20312E-01
  -1.71132E-02 -2.90213E-01 -2.51517E-01 -1.65172E-01 -4.12525E-02 -1.16783E-01 -8.33749E-02 -1.31148E-01 -1.32529E-01 -3.00831E-01
  -5.14816E-01 -1.07283E-01 -5.66835E-01 -4.97220E-01 -3.26009E-02  4.86345E-02  2.84757E-01  1.84439E-01 -2.07249E-01  1.13275E-01
   3.85452E-01  3.34792E-01  3.87493E-01  1.00795E-01  1.28533E-01  7.70242E-02 -1.03736E-01 -1.39058E-01  9.03516E-02  2.19243E-01
   8.81592E-02  2.01667E-01 -7.04552E-02 -3.58287E-02  4.32552E-01 -5.45525E-03 -1.01829E-01 -1.45129E-01  4.57983E-02  3.03753E-01
  -5.92383E-01 -3.52602E-01 -1.23701E-02 -2.20397E-01  1.76209E-01 -2.63167E-02 -3.13716E-01 -5.47616E-02  8.44552E-03  7.68178E-02
  -1.06841E-01  1.07936E-01 -5.63688E-02 -3.17084E-01  2.21230E-01  1.24471E-01  3.58686E-01  1.02099E-01  1.09245E-01  3.08873E-02
  -1.77912E-01  2.11780E-01 -1.32847E-01  5.04316E-02  1.20045E-01 -1.48957E-01 -2.98032E-02  9.27496E-03 -2.35944E-01 -2.17039E-01
  -1.56375E-01  5.76639E-02  1.61995E-01  7.94495E-02  1.69071E-01  4.70384E-02 -3.61698E-02  1.51150E-01  2.50847E-01 -4.22621E-02
  -1.13205E-01 -1.19950E-01 -1.29285E-01 -2.99303E-01  1.00277E-01 -7.23865E-02 -3.50481E-01  4.65445E-01  2.59415E-01  7.48595E-02
   2.99487E-01 -4.80590E-02 -5.05265E-02  1.05918E-01 -1.23762E-01  7.78933E-02 -5.91816E-02  2.58338E-02  2.71017E-01 -2.36257E-02
  -8.54257E-02  8.56692E-02  7.86697E-02  1.79035E-01  2.24151E-01 -2.12511E-01  1.79154E-01  5.05894E-02 -8.07396E-02  1.67158E-01
   8.82184E-02 -4.07568E-03  2.39308E-01  2.90262E-01 -4.34123E-02  2.52983E-01 -8.40081E-02  8.19767E-02  1.36822E-01  8.41936E-02
   6.78212E-02 -2.65408E-01  8.56913E-02  8.73254E-02
 NY points of the fit to the data follow
   5.12583E-02  1.74613E-02 -1.28962E-02 -1.28171E-02 -4.55674E-03  8.61010E-03  2.98981E-02  9.70061E-02  1.19765E-01  1.65289E-01
   2.58661E-01  7.14377E-01  7.52780E-01  3.93824E-01  3.07337E-01  5.94388E-01  5.41684E-01  2.66722E-01  1.27357E-01  3.26923E-02
   1.44363E-02  2.23742E-02 -3.80079E-02 -7.34351E-02 -9.83280E-02 -1.18110E-01 -1.37722E-01 -1.48152E-01 -1.60169E-01 -1.76475E-01
  -1.89259E-01 -2.03090E-01 -2.28424E-01 -2.63351E-01 -2.97733E-01 -3.02512E-01 -3.12365E-01 -2.91964E-01 -2.41346E-01 -1.59594E-02
   1.51674E-01  2.37480E-01  2.52199E-01  3.71606E-01  3.98550E-01  4.71391E-01  4.34597E-01  2.83915E-01  2.26110E-01  1.60905E-01
   8.23603E-02  5.78954E-02  1.04574E-02 -4.39994E-02 -8.85268E-02 -1.48803E-01 -2.13774E-01 -2.56003E-01 -2.44023E-01 -2.83715E-01
  -3.78856E-01 -4.13193E-01 -2.87544E-01 -1.85215E-01 -3.57960E-01  8.63246E-02  4.66274E-01  2.17044E-01  4.53270E-01  5.91406E-01
   3.93428E-01  3.36683E-01  2.01471E-01  8.02810E-02  7.97148E-03 -1.16726E-01 -1.94282E-01 -3.10483E-01 -5.09247E-01 -6.49993E-01
  -2.94727E-01  8.01861E-02  1.07306E-01  3.69598E-01  5.82373E-01  5.30101E-01  4.81999E-01  3.87643E-01  3.12875E-01  2.87629E-01
   2.61035E-01  2.29553E-01  1.74279E-01  1.01671E-01  4.21391E-02 -9.44972E-02 -1.76134E-01 -4.31586E-01 -4.42882E-01 -6.05568E-01
  -3.81021E-01 -6.90515E-02  1.32122E-01  3.95858E-01  4.10586E-01  3.57208E-01  3.61951E-01  3.25293E-01  3.39643E-01  3.39163E-01
   3.35711E-01  3.30698E-01  3.24783E-01  3.19894E-01  3.16468E-01  3.13965E-01  3.11315E-01  2.93863E-01  2.74564E-01  2.59066E-01
   1.93607E-01  8.58408E-02 -9.45142E-03 -1.77781E-02 -2.35718E-01 -3.23245E-01 -1.59700E-01 -4.19051E-01 -5.68502E-01 -6.85817E-01
  -7.73474E-01 -6.36496E-01 -5.15208E-01 -3.20597E-01 -4.55998E-01 -7.91027E-01 -1.02285E+00 -7.97764E-01 -3.52837E-01 -1.37274E-01
  -3.67457E-02 -7.82602E-03 -5.44262E-03  4.28281E-02  7.46051E-02  1.01447E-01  1.23487E-01  1.44108E-01  1.62307E-01  1.77552E-01
   1.95500E-01  2.12803E-01  2.30160E-01  2.49308E-01  2.70890E-01  2.95135E-01  3.23222E-01  3.56768E-01  3.94081E-01  4.41106E-01
   5.12559E-01  6.24496E-01  7.19374E-01  7.09881E-01  7.33584E-01  8.65423E-01  7.13781E-01 -3.60564E-01 -1.26872E+00 -1.20847E+00
  -8.48507E-01 -5.78094E-01 -4.20554E-01 -4.40313E-01 -4.55431E-01 -3.90340E-01 -3.27531E-01 -3.02169E-01 -3.08122E-01 -3.01715E-01
  -2.70093E-01 -2.32794E-01 -2.26537E-01 -2.18091E-01 -2.20961E-01 -2.20994E-01 -2.07134E-01 -1.92070E-01 -1.85385E-01 -1.80572E-01
  -1.69359E-01 -1.56631E-01 -1.45302E-01 -1.33338E-01 -1.23866E-01 -1.15347E-01 -1.05308E-01 -9.24988E-02 -8.23591E-02 -7.37153E-02
  -6.36754E-02 -4.24636E-02 -3.04158E-02 -4.65457E-02 -6.16825E-02 -5.98286E-02 -3.27464E-02 -1.71919E-02 -4.65040E-02 -7.81897E-02
  -8.64411E-02 -8.00939E-02 -6.53396E-02 -5.58666E-02 -4.99595E-02 -3.97554E-02 -1.86127E-02 -5.30626E-03 -2.19059E-02 -3.64362E-02
  -2.55154E-03  3.48690E-02  6.21564E-02  7.17250E-02  1.65029E-01  3.04815E-01  3.34317E-01  2.45575E-01  1.65605E-01  3.21944E-01
   4.75998E-01  3.05546E-01  1.02342E-01 -1.08441E-02 -7.60722E-02 -6.74937E-02 -6.64859E-02 -8.54173E-02 -9.46806E-02 -1.07459E-01
  -1.17017E-01 -1.25038E-01 -1.26379E-01 -1.30856E-01 -1.30957E-01 -1.37516E-01 -1.39335E-01 -1.39908E-01 -1.46934E-01 -1.44367E-01
  -1.40543E-01 -1.47022E-01 -1.50479E-01 -1.57344E-01 -1.56352E-01 -1.50050E-01 -1.72316E-02  7.02390E-02 -2.53944E-02  7.93922E-02
   1.30404E-01  1.31640E-01  1.39432E-01  3.24722E-02  1.36439E-01  1.55230E-01  1.57801E-01  1.88233E-01  1.73130E-01  2.05826E-01
   1.79883E-01  1.36877E-01  8.96292E-02  3.61351E-02  5.12750E-05 -4.11515E-02 -8.68090E-02 -1.44834E-01 -1.99136E-01 -2.60894E-01
  -3.12319E-01 -3.80612E-01 -3.60849E-01 -2.65917E-01 -1.01878E-01  1.91976E-01  3.32481E-01  4.23716E-01  4.66210E-01  3.46307E-01
   2.80840E-01  2.17371E-01  1.96263E-01  1.93040E-01  2.11515E-01  2.40449E-01  2.43086E-01  2.51797E-01  2.42663E-01  2.23202E-01
   2.16513E-01  2.02861E-01  1.92353E-01  1.83434E-01  1.68732E-01  1.52028E-01  1.31553E-01  1.04748E-01  6.69435E-02  3.55151E-02
   1.82241E-02 -2.56609E-02 -1.03000E-02 -2.85234E-02 -5.15138E-02 -6.23387E-02 -1.30625E-01 -2.03719E-01 -2.72681E-01 -3.13907E-01
  -3.41516E-01 -3.55651E-01 -3.07877E-01 -2.75219E-01 -1.87222E-01 -1.12733E-01 -3.09812E-02  5.12570E-02  8.68074E-02  1.00726E-01
   4.81942E-02 -1.14940E-02 -1.06532E-01 -1.67857E-01 -1.84038E-01 -3.03540E-01 -4.34079E-01 -3.88170E-01 -4.41088E-01 -4.04552E-01
  -4.84576E-01 -9.20826E-01 -2.54726E+00 -2.36190E+00 -9.26447E-01 -4.14481E-01 -7.01259E-02 -4.23418E-02 -1.98150E-01 -8.95610E-02
  -5.00123E-02 -2.46485E-02 -5.52730E-03  7.23181E-03  1.94942E-02  2.77580E-02  3.47266E-02  3.08419E-02  2.59707E-02  6.84515E-03
  -1.84744E-02 -3.29391E-02 -6.01732E-02 -6.74963E-02 -6.85038E-02 -6.56581E-02 -4.79187E-02 -3.34319E-02 -1.76153E-02 -4.69109E-03
   4.89365E-03  1.70185E-02  2.78134E-02  3.49099E-02  3.86891E-02  4.40016E-02  4.83474E-02  5.42964E-02  5.93142E-02  6.24791E-02
   6.46906E-02  6.84687E-02  7.22176E-02  7.59334E-02  7.96692E-02  8.09366E-02  8.20942E-02  8.36088E-02  8.83612E-02  9.17998E-02
   9.56060E-02  9.86979E-02  9.88352E-02  9.75170E-02  9.50196E-02  9.21600E-02  9.06120E-02  8.86401E-02  8.57300E-02  8.05474E-02
   7.47798E-02  6.93164E-02  6.40129E-02  5.61440E-02  4.96453E-02  4.54021E-02  4.09719E-02  3.56422E-02  2.98537E-02  2.59242E-02
   2.12547E-02  1.84164E-02  1.62444E-02  1.24299E-02  9.76328E-03  7.48802E-03  4.04748E-03  2.02525E-03  4.08504E-04 -5.17954E-04
  -1.14250E-03 -2.91682E-03 -2.27842E-03  6.43451E-04  2.29785E-03  5.80486E-03  1.03580E-02  1.48079E-02  2.19475E-02  3.55883E-02
   4.28685E-02  5.35139E-02  6.54598E-02  1.08152E-01  1.16033E-01  1.15749E-01  1.08322E-01  7.36802E-02  6.37621E-02  7.07050E-02
   7.97172E-02  9.44456E-02  1.04028E-01  1.14148E-01  1.23605E-01  1.33734E-01  1.44673E-01  1.51933E-01  1.57578E-01  1.60332E-01
   1.61230E-01  1.61594E-01  1.61422E-01  1.59460E-01  1.57066E-01  1.52326E-01  1.45366E-01  1.34813E-01  1.24184E-01  1.15350E-01
   1.07605E-01  9.94805E-02  9.10529E-02  8.18596E-02  7.24462E-02  6.70359E-02  6.15135E-02  5.47768E-02  4.91353E-02  4.45263E-02
   4.08082E-02  3.77463E-02  3.44811E-02  3.20246E-02  3.28850E-02  3.62254E-02  3.77168E-02  4.00485E-02  4.45326E-02  4.78493E-02
   5.23973E-02  5.80584E-02  6.31328E-02  6.67911E-02  6.94779E-02  7.20868E-02  7.33018E-02  7.43496E-02  7.69545E-02  8.07944E-02
   8.25813E-02  8.12639E-02  8.01572E-02  7.73381E-02  7.64086E-02  7.39815E-02  6.91742E-02  6.67856E-02  6.46135E-02  6.23765E-02
   5.92940E-02  5.57889E-02  5.26311E-02  4.93640E-02  4.65641E-02  4.28152E-02  3.82630E-02  3.60881E-02  3.52712E-02  3.27413E-02
   2.89260E-02  2.51867E-02  2.13970E-02  1.57763E-02  8.25655E-03  9.41789E-04 -6.38047E-03 -1.42309E-02 -2.34791E-02 -3.71471E-02
  -5.23207E-02 -6.95451E-02 -8.45311E-02 -9.84764E-02 -1.13801E-01 -1.28436E-01 -1.40313E-01 -1.50487E-01 -1.60464E-01 -1.69799E-01
  -1.74585E-01 -1.73755E-01 -1.72791E-01 -1.72894E-01 -1.69684E-01 -1.63232E-01 -1.57014E-01 -1.50520E-01 -1.45098E-01 -1.40626E-01
  -1.35603E-01 -1.28163E-01 -1.19201E-01 -1.11622E-01 -1.02489E-01 -9.20859E-02 -8.30523E-02 -7.37703E-02 -6.46561E-02 -5.59038E-02
  -4.92082E-02 -4.05919E-02 -3.07450E-02 -2.46466E-02 -2.00358E-02 -1.45609E-02 -7.43578E-03  1.57049E-04  2.55715E-03  3.98911E-03
   9.78742E-03  1.29314E-02  1.54765E-02  1.85983E-02  1.85078E-02  2.03629E-02  2.31060E-02  2.37792E-02  2.34639E-02  2.40475E-02
   2.74320E-02  2.93140E-02  3.08348E-02  3.38953E-02  3.52335E-02  3.48884E-02  3.46073E-02  3.53253E-02  3.47948E-02  3.41733E-02
   3.54151E-02  3.45820E-02  3.33929E-02  3.45447E-02  3.47681E-02  3.44151E-02  3.46685E-02  3.55000E-02  3.73163E-02  3.54227E-02
   2.94589E-02  2.83446E-02  3.15542E-02  3.18591E-02  3.08121E-02  2.97747E-02  3.09942E-02  3.03226E-02  2.72111E-02  2.66780E-02
   2.83924E-02  3.05176E-02  3.08878E-02  3.06840E-02  3.09739E-02  3.20494E-02  3.36994E-02  3.42013E-02  3.32021E-02  3.45181E-02
   3.49736E-02  3.40471E-02  3.13057E-02  3.06577E-02  3.18536E-02  3.23157E-02  3.36541E-02  3.48394E-02  3.53577E-02  3.54860E-02
   3.48650E-02  3.62753E-02  3.93810E-02  4.08396E-02  4.13678E-02  3.92726E-02  3.62055E-02  3.57545E-02  3.67702E-02  3.87147E-02
   3.87439E-02  3.62427E-02  3.51279E-02  3.46287E-02  3.50387E-02  3.65583E-02  3.51166E-02  3.26144E-02  3.42736E-02  3.69047E-02
   3.60670E-02  3.47352E-02  3.50213E-02  3.49631E-02  3.62829E-02  3.61010E-02  3.62627E-02  3.98105E-02  4.33221E-02  4.44205E-02
   4.49934E-02  4.50781E-02  4.57684E-02  4.54961E-02
 NY background values follow
     5.126E-02    5.112E-02    5.098E-02    5.085E-02    5.071E-02    5.057E-02    5.043E-02    5.030E-02    5.016E-02    5.002E-02
     4.989E-02    4.975E-02    4.961E-02    4.948E-02    4.934E-02    4.920E-02    4.906E-02    4.893E-02    4.879E-02    4.865E-02
     4.852E-02    4.838E-02    4.824E-02    4.810E-02    4.797E-02    4.783E-02    4.769E-02    4.755E-02    4.742E-02    4.728E-02
     4.714E-02    4.700E-02    4.687E-02    4.673E-02    4.659E-02    4.645E-02    4.632E-02    4.618E-02    4.604E-02    4.590E-02
     4.577E-02    4.563E-02    4.549E-02    4.535E-02    4.522E-02    4.508E-02    4.494E-02    4.480E-02    4.467E-02    4.453E-02
     4.439E-02    4.425E-02    4.411E-02    4.398E-02    4.384E-02    4.370E-02    4.356E-02    4.343E-02    4.329E-02    4.315E-02
     4.301E-02    4.287E-02    4.274E-02    4.260E-02    4.246E-02    4.232E-02    4.218E-02    4.205E-02    4.191E-02    4.177E-02
