 
 $NMID
 ID=''
 FMTDAT='(2E13.5)'
 TRAMP=   1.00000E+0
 VOLUME=   1.00000E+0
 $END
  -6.66553E+0  -4.29130E+2
   1.24958E+3   1.54143E+3
  -1.61830E+3  -2.27451E+3
   1.47761E+3   2.03221E+3
   3.33023E+3   2.97750E+3
   5.13119E+3  -3.46574E+3
   2.80873E+3  -3.64460E+3
  -1.21950E+3  -3.13038E+3
  -1.55905E+3  -5.72423E+3
  -2.88211E+3  -4.65186E+3
  -2.40895E+3  -8.89799E+2
  -4.30743E+2  -1.83438E+3
   1.18286E+2   3.11322E+3
  -1.00821E+3   5.30526E+3
  -5.47237E+2   1.83795E+3
   2.83961E+3  -2.30422E+3
   3.34057E+3  -3.78317E+3
   2.05005E+3  -2.93251E+3
   1.29147E+3  -9.14680E+2
  -3.00467E+3  -2.21491E+3
  -1.05879E+3  -3.25640E+3
   2.75234E+3   1.89183E+3
  -2.12295E+3   5.06371E+3
  -5.01217E+3   8.42373E+1
   1.23087E+3  -1.89243E+3
   3.63179E+3   2.24031E+3
  -2.84310E+2   4.95070E+3
  -1.67217E+3   7.76979E+2
  -1.62814E+3  -2.79060E+3
   5.26883E+3  -5.18551E+3
   1.00205E+4   9.22163E+2
   1.67717E+3   5.16875E+3
  -6.84557E+3   2.12173E+3
  -3.74457E+3  -4.98400E+3
  -9.49169E+2   6.44293E+2
  -7.90963E+3  -1.31455E+3
  -2.70609E+3  -2.18191E+3
   4.50908E+3   1.61825E+3
   3.53816E+3   5.10279E+3
   2.16471E+3   3.86630E+3
   1.31626E+3   5.57919E+3
  -3.23747E+3   4.45597E+3
  -6.14763E+3  -1.13689E+3
   7.72059E+2  -5.36415E+3
   7.13300E+3  -8.16219E+2
   3.40456E+3   1.34665E+3
   8.93553E+2  -2.77604E+2
   3.94015E+3   2.94145E+3
   4.68724E+3   3.02328E+3
   1.48031E+3   2.46805E+3
  -1.96572E+2   1.48098E+3
  -5.17509E+2  -3.72732E+3
   3.53925E+3  -1.94887E+3
   4.42443E+3  -8.27058E+1
   1.83499E+3   1.59593E+3
   3.42331E+2  -2.71923E+2
  -2.62739E+3   1.31068E+3
  -5.66921E+3  -5.47472E+2
  -5.85288E+3  -4.96782E+3
  -1.83299E+3  -6.10652E+3
   2.71583E+3  -5.49286E+3
   4.94480E+2  -1.53879E+3
  -1.03426E+2   4.98923E+3
  -3.79667E+3   3.02507E+3
  -1.83970E+3  -5.00567E+2
   2.00701E+3   5.28197E+1
  -8.17979E+2   5.18866E+3
  -7.74776E+2   4.14129E+3
  -2.54257E+3   2.69044E+2
   6.20904E+2  -1.88698E+3
  -5.59205E+2   1.60666E+2
  -1.89260E+3   3.77973E+2
  -2.13619E+3  -3.85492E+1
  -2.56564E+3   1.50595E+2
  -1.47634E+3  -2.80534E+3
  -4.03147E+2   4.54303E+2
  -1.88757E+3   1.86556E+3
  -3.66100E+3  -7.13986E+2
  -7.08603E+2  -2.03309E+3
   1.08163E+3   2.68445E+3
  -1.48840E+3   3.48393E+3
  -6.53703E+2  -5.66219E+2
  -1.20757E+2  -1.30267E+3
   9.35647E+2   3.41520E+3
  -1.57528E+3   3.06760E+3
  -4.76061E+3   9.45031E+2
  -3.99026E+3  -2.74119E+3
   1.50191E+3  -4.31673E+3
   2.52172E+3  -2.31764E+3
  -2.86761E+2   1.07498E+3
  -3.37700E+1   1.95653E+2
   2.50587E+3  -9.37030E+2
   3.80702E+3   1.55010E+3
  -7.55026E+2   6.06745E+3
  -3.92016E+3   2.23401E+2
  -3.39636E+3  -2.94486E+3
   2.16966E+3  -2.12127E+3
   4.24528E+3   1.31097E+3
  -1.04972E+3   4.83591E+3
  -2.65976E+3   1.31205E+3
  -2.23581E+3  -4.16801E+3
   4.62088E+3  -2.13551E+3
   4.34256E+3   1.04342E+3
   1.42896E+3   3.17880E+3
   8.78189E+1   1.38304E+3
  -4.94903E+2  -4.42967E+2
   2.19918E+2   2.16857E+3
  -2.10047E+3   1.52858E+2
  -4.93311E+3  -5.04929E+2
  -1.62139E+3  -5.58183E+3
   2.57087E+3  -3.49282E+3
   2.31295E+3   5.24322E+2
   3.02213E+3   3.04805E+3
   2.49130E+3   1.97541E+3
  -8.63230E+2   5.39224E+2
  -3.38784E+3   2.65899E+3
  -1.22987E+3   4.87846E+2
  -4.66822E+2  -1.59444E+3
  -5.53421E+2  -7.01088E+2
  -1.24014E+3  -6.63661E+2
   1.68150E+3   1.12876E+3
  -1.56687E+3   1.90613E+3
  -6.11470E+2  -1.32753E+3
   1.79426E+3  -1.86213E+3
   3.20092E+3   8.45974E+2
  -4.21022E+1  -1.08680E+3
  -1.12274E+3  -5.17035E+2
   2.06938E+3  -1.45266E+3
   7.89804E+2   6.65607E+2
   2.07691E+2  -2.80337E+2
  -1.21113E+3   2.75226E+2
   2.51825E+3  -1.44831E+3
   3.69161E+3  -7.83832E+2
   2.63226E+3   1.61481E+3
   4.85003E+2   2.97220E+3
  -2.01353E+3   3.22427E+3
  -1.65487E+3  -4.61141E+2
  -1.45780E+3  -9.10018E+2
   3.73523E+2   1.05285E+3
   1.03288E+2   6.99753E+2
  -1.03753E+3  -2.03339E+3
   1.45624E+3  -2.53561E+3
   4.25530E+3   1.71807E+2
   1.08575E+3   2.22833E+3
  -1.07202E+2   1.43603E+2
  -1.43238E+3  -1.97880E+3
   3.04142E+2   3.34852E+1
   9.93762E+2   7.31636E+1
   3.92710E+2   1.39242E+3
  -1.38754E+3   5.68346E+2
  -2.16037E+3   2.90069E+1
  -1.95238E+3  -9.77012E+1
  -1.58901E+3   4.50471E+2
  -2.22505E+3  -2.92386E+3
   1.48846E+3  -2.51685E+3
   2.48943E+3  -6.53381E+2
   2.56981E+3   1.14811E+3
   1.22099E+3   3.66407E+2
  -3.07394E+2  -8.41055E+2
  -6.07595E+2  -1.26382E+3
  -8.70122E+2   2.36283E+2
   1.43021E+2   2.06812E+3
  -1.83158E+3  -1.51091E+3
  -1.90827E+3  -2.67575E+3
   2.51969E+3   1.12253E+3
  -1.43870E+3   9.63663E+2
  -1.94114E+3  -3.66954E+2
  -1.08638E+3  -8.20032E+1
   8.35194E+2  -8.30082E+2
   1.80881E+3  -3.87126E+2
  -1.07617E+3   1.05979E+3
   5.93845E+2   2.96683E+1
  -4.93624E+2   1.18700E+3
  -2.49550E+3  -1.27870E+3
   1.85050E+2  -1.83656E+2
  -5.83186E+2  -1.13832E+3
   1.10617E+3  -2.31522E+3
   4.39327E+3  -1.17656E+3
   7.74776E+2   8.79537E+2
  -1.66049E+3   1.86472E+2
  -1.42230E+3  -1.29585E+3
  -1.27368E+3   4.75397E+2
  -9.06685E+2  -7.70580E+2
   2.31722E+2  -1.75485E+3
   1.41192E+3   1.93589E+2
   8.86358E+2  -1.84450E+3
   2.09946E+3   1.55933E+3
  -1.42864E+3   4.49305E+2
   9.22456E+2   1.36357E+3
   4.44088E+2  -2.27984E+3
   2.15528E+3   3.57223E+2
  -1.74913E+3   4.49039E+2
   6.14314E+2   3.86127E+2
  -1.79061E+3   1.04303E+3
   1.84828E+2  -2.26065E+3
   1.02062E+3   1.13772E+3
   1.48332E+2   6.45477E+2
   1.61920E+2  -9.51543E+2
   2.22549E+2  -1.37896E+3
   1.40277E+3   8.83629E+2
   1.49506E+3   3.16843E+3
  -2.95488E+3   1.18068E+3
  -4.06637E+2  -4.22435E+2
   5.32619E+2  -1.96241E+3
   9.23272E+2  -1.63602E+3
   1.01366E+3   4.96024E+1
   5.78021E+2   1.70076E+2
  -2.29829E+3   1.05425E+3
   2.77457E+2  -2.49280E+3
  -1.27610E+3   2.79398E+2
  -1.73367E+3   1.18271E+2
  -1.83261E+3  -1.73276E+3
   1.07278E+2  -1.76830E+3
   1.77130E+3  -1.27510E+3
   2.02574E+3   1.14681E+3
  -1.51402E+3   4.70770E+2
  -2.04863E+3   9.81758E+2
  -1.11454E+3  -1.43751E+2
  -6.58607E+2   4.37380E+2
   1.01067E+3  -2.59993E+2
  -7.11709E+1  -6.53189E+2
  -5.25781E+2  -1.74217E+3
   1.36397E+3   2.15965E+2
  -8.85588E+2  -5.71260E+2
  -2.71490E+3   1.51780E+2
   1.04324E+3  -6.41511E+2
   2.40522E+3   9.90363E+2
   1.17716E+3  -1.44737E+3
   2.00310E+2   2.51999E+3
  -6.45746E+2  -3.27119E+2
  -1.64682E+3  -1.08776E+2
  -5.27592E+2   1.20810E+2
  -4.01215E+3  -1.37510E+3
  -1.31508E+3  -1.24851E+2
  -1.74521E+2   2.64665E+2
   2.84186E+3  -2.98455E+2
   7.15297E+2   1.66881E+3
  -2.84796E+2   3.66401E+3
  -2.47794E+3   1.22864E+3
  -2.62829E+3  -1.26179E+3
   4.83363E+2   8.74300E+2
   1.85902E+3   1.59814E+3
   1.01690E+2  -3.90312E+2
  -1.40140E+3  -1.33419E+3
  -1.60857E+3  -1.26628E+3
   4.06067E+2  -9.89244E+2
  -1.01564E+3  -3.96609E+2
  -2.56835E+2  -2.35455E+3
   5.54491E+2  -6.10664E+2
   2.01660E+3   1.69702E+3
   3.52422E+2   1.45566E+3
  -1.27349E+3   2.39792E+3
  -1.58899E+3   1.75098E+3
   4.57993E+2   5.83018E+2
  -4.77973E+2  -3.98861E+2
  -1.58832E+3  -9.52857E+2
   9.19049E+2  -1.00771E+3
   7.07303E+2  -4.74373E+2
   8.53868E+2   6.54167E+2
  -1.36385E+3   2.79468E+2
  -1.37810E+3   9.60950E+2
  -2.03166E+3  -4.44953E+2
   4.78918E+2   2.72805E+1
   5.79373E+1   7.98010E+2
   1.92556E+3   6.28859E+2
  -7.55464E+2   7.78040E+1
   3.05631E+1   6.74885E+2
   1.61356E+3   1.42365E+3
  -6.28361E+2   3.09307E+3
  -3.37096E+3  -3.37807E+2
   1.61968E+3  -4.11555E+3
   2.71479E+3  -7.98568E+2
   1.56509E+3   1.65293E+3
   6.36042E+2   1.85479E+2
   7.47108E+2   1.52507E+3
  -6.14579E+2   3.73785E+2
   1.15587E+3  -3.91409E+2
  -1.14424E+3   1.55823E+3
   4.33967E+2  -1.43204E+3
  -4.25587E+2  -1.24652E+3
   3.25899E+1   1.94532E+3
   1.60959E+3   1.42101E+2
   8.60380E+2   1.55665E+3
  -1.95889E+3   1.74151E+2
   1.72028E+3  -6.83650E+1
  -5.10200E+2  -7.17576E+2
  -1.13663E+3  -8.77051E+2
  -3.22239E+2   2.06983E+2
  -1.08484E+3  -9.12512E+2
  -5.52865E+2  -7.33089E+2
   8.14960E+1   2.26394E+2
   2.20889E+3  -4.07306E+2
   9.19618E+2   3.64430E+2
   1.27024E+3   1.72685E+2
  -9.90204E+1   1.71339E+3
  -1.87247E+2   2.49637E+3
  -1.09765E+3  -7.58530E+2
  -7.93530E+2  -1.26724E+3
   5.35819E+2  -1.53431E+3
   2.14338E+3   1.42842E+3
   3.13630E+2  -2.89239E+2
   7.78930E+2   4.76182E+2
   1.42251E+3  -7.42202E+2
  -1.12590E+3   2.37247E+3
  -3.10492E+2  -4.46346E+2
   1.38399E+3  -2.86714E+2
  -1.36670E+3  -2.09107E+3
   1.98255E+3  -3.13904E+2
   1.96046E+3   2.20684E+3
  -7.15919E+2   6.78013E+1
  -7.30011E+2  -3.81314E+2
  -3.88305E+1  -1.59186E+3
   1.47117E+3  -4.12706E+2
   4.63166E+2   2.24205E+2
  -6.29231E+2  -8.92240E+0
  -1.06317E+2  -5.20947E+2
   1.97092E+3   1.08825E+3
   1.11280E+3  -7.29659E+2
  -1.85801E+3  -6.07724E+2
  -1.46019E+3  -1.39611E+3
   1.94632E+3  -2.51387E+3
   5.58985E+2  -1.16530E+2
  -4.97443E+2  -1.19567E+2
   8.85140E+1   2.39141E+2
   8.74835E+2  -8.55332E+2
  -1.05158E+2  -1.33766E+3
  -7.15077E+2   4.96992E+2
  -1.84491E+3  -6.99685E+2
  -1.08843E+3  -2.06959E+2
   1.27153E+3  -1.68186E+3
   7.21699E+2   5.88481E+2
   1.56048E+3  -4.75999E+0
  -2.37348E+3   3.40317E+2
  -1.21268E+3  -3.26358E+2
  -6.09728E+2  -5.62037E+2
  -5.22209E+2   2.41450E+2
  -1.16672E+2   4.35356E+2
  -4.56253E+2  -1.30970E+3
   2.61319E+2  -3.70936E+2
   1.34588E+3   4.95297E+2
  -6.65563E+1   1.43878E+3
   5.80833E+2  -2.19563E+2
  -1.60791E+2  -7.78034E+2
   1.77930E+3  -1.48610E+3
   2.00065E+2  -3.25608E+2
   1.69053E+2   9.44214E+2
   3.82872E+2  -8.32580E+1
  -2.08508E+3  -2.67000E+3
  -1.23689E+2  -6.44257E+2
   1.10507E+3   9.37042E+1
  -1.08745E+3  -4.64946E+1
   3.36588E+2  -7.94036E+2
  -1.23021E+2   2.05118E+3
  -2.66121E+3   1.49417E+3
  -2.08898E+3  -7.89335E+2
   9.09250E+2  -2.25870E+3
   1.52446E+3  -4.08356E+2
   3.39989E+1  -5.72457E+2
  -3.96317E+2   3.07333E+3
  -5.45651E+2  -2.04037E+2
  -1.41999E+2   1.70765E+3
   2.04911E+3   2.11390E+2
  -1.30378E+3   3.03780E+3
  -5.69862E+2  -8.33350E+2
  -4.99969E+1  -1.74503E+3
   1.86389E+3  -4.22382E+2
   2.94714E+3   7.00734E+2
