 
 $NMID
 ID=''
 FMTDAT='(2E13.5)'
 TRAMP=   1.00000E+0
 VOLUME=   1.00000E+0
 $END
   5.11512E+2  -5.12676E+2
   2.68965E+2   1.00977E+3
   7.14924E+2  -4.66581E+3
  -4.14001E+3  -3.43144E+2
  -4.56162E+3   3.22666E+3
   1.24206E+3   5.52599E+3
   2.01587E+3   4.37139E+3
   4.54636E+3   2.71568E+3
   3.65565E+3  -2.62535E+3
   2.65918E+3  -2.31152E+3
   1.41140E+3  -4.88725E+3
   3.21951E+3  -4.23371E+3
   9.09693E+2   1.32259E+2
  -2.52279E+3   2.43353E+3
  -5.10437E+3   1.13805E+3
  -3.07227E+3  -3.83256E+3
   2.54032E+3  -7.41282E+2
   3.96307E+3   2.73309E+3
   2.39458E+3   3.40576E+3
   6.98328E+2  -2.83729E+3
   3.43302E+3  -6.11683E+3
   4.88134E+3  -1.73299E+3
  -3.27114E+2   1.49916E+3
  -6.40870E+3  -3.86417E+3
  -1.91584E+3  -5.86425E+3
   1.16683E+3   2.14478E+1
  -8.12586E+2   1.63974E+3
  -4.44407E+3  -2.23450E+2
  -2.33863E+3  -4.67371E+3
   2.97582E+3  -3.22007E+3
   8.08028E+3  -6.98540E+2
   2.92233E+3   7.39561E+3
  -6.01094E+3   4.15942E+3
  -2.58276E+3  -2.41180E+3
   1.00759E+2   1.82957E+3
  -5.26878E+3  -2.03479E+3
  -3.82124E+2  -7.02633E+3
   3.64850E+3  -3.31000E+3
   3.76058E+3  -4.39819E+2
   2.11828E+3   4.54258E+2
  -3.27301E+2   4.03253E+3
  -5.40536E+3   4.21171E+3
  -8.27857E+3  -1.04932E+3
  -1.94750E+3  -4.73474E+3
   2.84181E+2   1.52413E+3
  -2.44585E+2   3.10137E+3
   6.66552E+2   2.24244E+3
   4.10727E+2   4.55341E+3
  -1.59737E+3   6.64050E+3
  -2.48451E+3   3.19064E+3
  -4.09720E+3   1.33613E+2
  -1.37230E+3  -7.78178E+2
   1.29603E+3  -2.72696E+3
   4.32831E+3   9.59355E+2
   5.45760E+2   3.50954E+3
   3.94521E+2   2.82483E+3
  -1.80837E+3   4.32349E+3
  -4.77822E+3   2.55479E+3
  -4.00321E+3  -3.04755E+3
  -2.27506E+3  -5.31873E+3
   1.43312E+3  -1.72516E+3
   5.00858E+3  -9.94595E+2
   4.98668E+3   3.80176E+3
   5.42235E+2   1.78607E+3
   1.42080E+3   3.76976E+2
   2.66406E+3   4.85524E+2
   1.54664E+3   4.32310E+3
  -2.13609E+3   4.86152E+3
  -2.90552E+3  -7.70081E+1
  -1.66367E+3   2.52434E+3
  -2.26932E+3  -7.45693E+2
  -1.52461E+3   6.86064E+2
  -2.16530E+3  -2.26802E+3
  -4.38938E+3  -2.10735E+3
   3.14815E+2  -1.00379E+3
  -7.52845E+1  -8.54043E+2
  -1.34761E+3   3.53791E+2
  -4.91633E+2  -1.42718E+3
   2.73830E+3  -3.09348E+3
   2.74524E+3   1.64515E+3
   9.10527E+2   2.83860E+3
  -1.35370E+3  -4.08046E+2
   1.44936E+3  -7.94939E+2
   1.57415E+3   4.25310E+3
  -2.07962E+3   3.05503E+3
  -4.19585E+3   1.47197E+3
  -3.29574E+3  -8.50284E+2
   2.12349E+2  -2.40199E+3
   4.93215E+2  -2.01064E+3
   8.74584E+2   9.80079E+2
  -4.17659E+2  -9.39549E+2
   2.47881E+3  -1.51808E+3
   1.91257E+3   5.58515E+2
  -5.06865E+2   3.09921E+3
  -1.95472E+3   2.03919E+3
  -1.04653E+3  -3.33486E+3
   4.27976E+3  -3.17201E+3
   1.64738E+3   2.03103E+3
  -1.37403E+3   4.38887E+3
  -3.09438E+3  -1.33417E+3
  -1.11381E+3  -3.21710E+3
   2.01917E+3  -1.58619E+3
   1.44755E+3   1.30250E+2
   8.07443E+2   2.78724E+3
  -1.63924E+3   2.56117E+3
   6.14065E+2  -3.05998E+1
  -1.21924E+3   1.36282E+3
  -2.03888E+3  -1.09209E+1
  -3.60338E+3   6.91026E+2
  -1.42208E+3  -3.23059E+3
   3.93573E+3  -3.21897E+3
   1.91750E+3  -1.56218E+3
   8.30094E+2   1.54165E+3
   6.34390E+2   1.45022E+3
   1.84126E+3   1.46479E+3
  -3.07843E+3   1.30429E+3
  -2.78623E+3  -1.41766E+3
  -3.53793E+2  -1.35214E+3
  -1.20251E+3  -1.52107E+3
   9.83638E+2  -1.00765E+3
   2.77260E+2   3.48255E+2
  -1.07958E+3   1.20964E+3
  -3.40747E+3  -3.03362E+2
   2.30360E+3  -3.48291E+3
  -1.16007E+2   1.41756E+3
  -1.30340E+3  -1.49343E+3
  -2.29957E+3  -2.12178E+3
   1.64397E+3   3.98360E+2
   1.65128E+3   6.58352E+2
  -1.14298E+3   9.15607E+2
  -2.21662E+3  -6.47941E+2
  -6.20639E+2  -1.24122E+3
   1.40585E+3  -7.34843E+2
   2.73653E+3   2.47572E+3
  -1.14785E+3   3.81105E+3
  -4.37620E+3   2.94149E+2
  -8.43805E+2  -1.11134E+2
  -2.43577E+3  -1.24051E+3
   4.15576E+1  -9.00782E+1
  -1.22393E+2  -2.01537E+3
  -2.72844E+2  -3.05730E+3
  -3.23894E+2  -2.38227E+3
   2.64734E+3  -2.26982E+2
  -1.70454E+3   4.02734E+3
  -8.47810E+2  -3.99662E+2
   9.87166E+2  -1.24741E+3
  -1.58830E+2   1.03102E+3
   1.87441E+3   1.06634E+3
   7.59994E+2  -6.31784E+2
  -1.39890E+3  -6.73612E+1
  -1.93151E+3   1.66003E+3
  -3.02282E+3   4.18421E+2
  -2.17274E+3  -2.78858E+3
  -1.54133E+3  -2.24569E+3
   6.49272E+2  -2.00951E+3
   4.43645E+3  -6.34162E+2
   5.78978E+2   7.54546E+2
  -1.41964E+3   1.99236E+3
   1.41644E+2  -9.04579E+2
   2.05221E+3   2.14193E+3
  -6.50881E+2   2.51688E+3
   1.02189E+3   1.40309E+3
   4.19208E+2   1.38454E+3
   2.97316E+2  -1.99652E+2
   2.08327E+2   1.96121E+3
  -1.95876E+3   1.59750E+3
  -3.38733E+3   2.66957E+2
   7.32216E+2  -2.73502E+3
   2.59183E+3   3.89506E+2
   5.32485E+2   1.73001E+3
  -2.07785E+3   2.59403E+3
  -4.15931E+2   1.94512E+3
  -8.79103E+2  -1.12877E+3
   1.14310E+2  -1.39172E+3
  -4.65646E+2  -1.43702E+3
  -2.20588E+2  -1.59741E+1
   2.55996E+2  -1.57404E+3
   1.26317E+3   3.60533E+2
   2.82943E+3   5.04714E+1
  -1.38749E+3   3.41066E+3
   7.69481E+0   8.08794E+1
   1.49073E+3  -6.55873E+2
  -1.21448E+3   5.80426E+2
   1.32002E+3   1.65362E+3
  -3.39185E+2   3.09663E+1
   2.94299E+3   1.11415E+3
   1.61009E+3   1.60178E+3
   1.68269E+3   1.18929E+3
  -4.26042E+1  -8.41553E+2
   2.88482E+2  -1.19244E+3
   2.77020E+2  -4.83633E+1
   3.10092E+3   1.59252E+3
  -1.72216E+2   1.16090E+3
  -1.58392E+3  -1.11450E+3
   1.02523E+2  -1.18680E+2
   8.45370E+1  -9.98075E+2
   1.05031E+3   1.07953E+3
   6.33241E+2   1.10887E+3
   1.82637E+3  -1.13803E+3
   9.01189E+2   1.99791E+3
   1.86654E+3   4.27436E+3
  -3.40719E+3   4.00635E+3
  -2.44187E+3  -1.04800E+3
   2.00512E+2  -1.63467E+3
   2.15290E+3  -7.61844E+2
   1.20024E+3   2.42098E+2
   9.45754E+2  -5.53284E+2
   1.30691E+3  -1.46770E+3
   2.61425E+3   6.28542E+2
   3.27252E+2   1.00769E+3
  -2.16551E+3   3.15242E+2
  -8.42696E+1  -1.23348E+3
  -1.83647E+3  -6.78125E+2
   4.03007E+3  -2.42375E+3
   1.09078E+3   9.07153E+2
  -2.49646E+3  -2.60039E+2
  -4.70835E+2  -1.85273E+3
   9.83543E+2  -1.50053E+2
   6.02470E+2   5.29274E+2
  -1.70574E+3   1.84458E+3
  -4.22359E+2   4.76736E+2
  -8.55533E+2  -5.06833E+2
   5.83752E+2  -4.35198E+2
  -5.40533E+2   4.80866E+2
  -6.22845E+2  -1.03465E+3
  -2.25390E+2  -3.60939E+3
  -5.91572E+2   5.68909E+2
  -2.43682E+2  -1.36118E+2
  -1.34166E+3   1.82095E+3
  -6.55228E+2   5.86742E+2
  -9.87793E+2  -3.85487E+2
   9.43126E+2  -1.02309E+3
  -1.32399E+3   7.94065E+2
  -8.92184E+2  -2.89321E+2
  -2.22402E+2  -3.07517E+3
   3.31691E+3  -6.97751E+2
   5.93032E+2   1.14666E+3
  -2.22527E+3   9.69374E+2
  -1.24922E+3   4.46914E+2
   1.94757E+2  -2.07305E+3
  -2.48822E+1   7.15427E+2
   2.75226E+3   7.84251E+2
  -6.77562E+2   2.96119E+2
  -2.52640E+3   1.18041E+3
   7.96698E+2  -5.65143E+2
   1.00704E+3  -8.53598E+2
  -7.94852E+2   5.05524E+2
  -6.51584E+2  -4.52362E+2
  -1.11349E+3  -3.36311E+3
   2.41860E+2  -1.22763E+2
   1.05914E+3   6.75793E+0
  -7.87072E+2   2.91656E+3
  -1.26058E+3  -9.11630E+2
   6.96372E+1  -1.23365E+3
   1.14844E+3  -3.12710E+3
   6.43305E+2   5.12958E+2
  -4.44681E+2  -9.33467E+2
   1.68029E+3   6.46990E+2
   9.98849E+2  -5.61444E+2
  -5.46335E+2   1.91046E+3
  -1.50286E+3   1.36624E+3
   3.16242E+2   4.03118E+2
  -6.13547E+2  -2.77026E+3
   5.06102E+2   5.43020E+1
   1.27876E+3  -1.08734E+3
  -1.10902E+3   8.50147E+2
   5.60465E+2   1.90723E+3
   1.40844E+2   1.45006E+3
  -2.25952E+3   2.71743E+2
  -1.46792E+3  -2.14413E+3
   1.54206E+2  -5.79719E+2
   1.64524E+3  -1.84970E+3
   1.87796E+3   1.41872E+3
   1.00389E+3  -7.31264E+2
   1.01629E+3  -3.41921E+2
  -1.53982E+3  -7.33345E+2
  -7.68243E+2  -1.13928E+3
  -5.01195E+2  -6.13728E+2
  -9.66057E+2   5.55063E+2
  -1.60293E+2  -6.21665E+2
   1.40865E+3  -2.66471E+3
   2.09664E+3   1.69174E+2
  -3.27554E+3  -4.88798E+2
  -6.68005E+2  -2.88870E+3
  -7.84640E+2  -1.24004E+3
   1.00336E+3   2.58947E+2
  -1.76215E+3  -2.52989E+2
  -1.49866E+3  -5.40824E+2
  -7.54138E+2   3.55229E+2
  -4.36274E+2   4.50352E+2
   3.10137E+2  -6.29379E+2
  -1.34351E+3  -1.02485E+2
   2.03535E+3  -1.05815E+3
  -5.14279E+1   5.51753E+2
   2.09577E+2   1.80033E+3
  -2.18556E+3  -1.15860E+3
  -2.67559E+3  -1.23781E+3
  -9.40961E+2  -6.33043E+1
  -3.15810E+2  -9.37382E+2
   9.31684E+2  -4.17905E+2
   7.33199E+1   1.04654E+3
  -8.42311E+2  -1.45081E+3
  -5.37182E+2  -1.97082E+3
  -3.94956E+2   6.31884E+2
  -2.32537E+3   1.21491E+3
  -1.82143E+3  -1.53722E+3
  -1.37091E+3  -1.45100E+3
   2.69546E+3  -1.94785E+3
  -1.03254E+3  -3.18826E+2
   7.03686E+2  -6.40141E+1
  -2.57752E+3   5.95047E+2
   2.05835E+2  -2.03456E+3
  -5.24458E+2   2.64539E+2
   9.53410E+2   1.11845E+3
  -4.47290E+2  -9.69769E+2
   5.39415E+2  -1.93394E+3
  -7.70391E+1  -6.54949E+2
  -1.07531E+3   8.60575E+2
   3.36622E+2  -5.53088E+2
  -2.01992E+3   5.01028E+1
  -1.24055E+3  -2.75028E+3
   5.41976E+2   1.52258E+3
   1.19694E+3   1.83758E+3
   2.19278E+3  -3.21481E+2
  -9.08749E+2  -2.04721E+2
  -1.24477E+3   5.38711E+2
   2.25046E+2   1.68028E+3
  -1.78575E+3  -6.83113E+2
  -3.14768E+2  -2.21765E+3
   3.57355E+2  -1.04041E+3
   2.08958E+3   1.18520E+3
  -1.16614E+3   1.78460E+3
  -4.67089E+2   1.30323E+3
   4.52798E+2  -1.58043E+3
  -1.18481E+3  -7.85244E+2
  -6.76695E+2   6.62724E+2
   1.02131E+3   7.04551E+2
   1.00108E+2  -7.26878E+2
  -4.10877E+2  -2.11765E+3
   2.22194E+2   6.95914E+2
  -2.71352E+3  -3.30628E+2
  -2.63560E+3  -1.05725E+3
   6.42726E+2   4.59835E+1
   5.88846E+2   7.97313E+2
   9.26387E+2   5.02853E+2
  -7.33384E+2  -2.15588E+1
  -3.13150E+2   7.84260E+2
   6.50976E+2  -8.62506E+1
   6.52423E+2   2.81571E+2
  -4.63980E+2   9.32728E+2
   8.75743E+1  -1.81917E+2
   7.03115E+2  -1.97740E+3
   1.00488E+3   2.17152E+3
  -6.97687E+2  -8.08587E+2
  -8.07597E+1  -1.17886E+3
  -1.46298E+3  -8.84874E+2
  -1.27990E+2  -4.08415E+2
   1.62223E+3  -3.43202E+2
   1.13125E+3   5.20942E+2
  -1.98421E+3  -3.69372E+2
   8.56886E+2  -5.22248E+2
   4.23373E+2   3.38710E+2
   3.79550E+2   7.62974E+2
  -5.89926E+2   8.37616E+2
  -4.36416E+2  -5.87614E+2
   2.16786E+3  -7.50055E+2
   7.35465E+2   7.78092E+2
