 
 $NMID
 ID=''
 FMTDAT='(2E13.5)'
 TRAMP=   1.00000E+0
 VOLUME=   1.00000E+0
 $END
  -9.56021E+3  -7.27991E+3
  -1.86366E+4  -2.52450E+4
  -2.32068E+4  -2.18922E+4
  -2.20256E+4  -2.02290E+4
  -2.25225E+4  -2.17605E+4
  -2.36077E+4  -2.09762E+4
  -2.27008E+4  -2.04008E+4
  -2.25876E+4  -2.10574E+4
  -2.32422E+4  -2.04199E+4
  -2.26266E+4  -2.01138E+4
  -2.24443E+4  -2.04169E+4
  -2.27922E+4  -1.97970E+4
  -2.24956E+4  -1.94300E+4
  -2.22716E+4  -1.96863E+4
  -2.25068E+4  -1.92872E+4
  -2.21254E+4  -1.88481E+4
  -2.20970E+4  -1.89407E+4
  -2.22131E+4  -1.85197E+4
  -2.20520E+4  -1.81091E+4
  -2.20031E+4  -1.80770E+4
  -2.21089E+4  -1.75807E+4
  -2.21716E+4  -1.72141E+4
  -2.21346E+4  -1.71014E+4
  -2.22622E+4  -1.68224E+4
  -2.21014E+4  -1.64208E+4
  -2.22182E+4  -1.63844E+4
  -2.23705E+4  -1.61128E+4
  -2.21755E+4  -1.58541E+4
  -2.20764E+4  -1.58679E+4
  -2.20846E+4  -1.56340E+4
  -2.20310E+4  -1.53827E+4
  -2.20126E+4  -1.53488E+4
  -2.20586E+4  -1.52299E+4
  -2.17993E+4  -1.49950E+4
  -2.18577E+4  -1.47704E+4
  -2.17813E+4  -1.46911E+4
  -2.15540E+4  -1.44010E+4
  -2.14753E+4  -1.41484E+4
  -2.14353E+4  -1.38411E+4
  -2.13466E+4  -1.36465E+4
  -2.12486E+4  -1.35059E+4
  -2.12131E+4  -1.33683E+4
  -2.09578E+4  -1.31421E+4
  -2.08029E+4  -1.28069E+4
  -2.08191E+4  -1.26301E+4
  -2.07273E+4  -1.23777E+4
  -2.06253E+4  -1.22462E+4
  -2.06082E+4  -1.20056E+4
  -2.05479E+4  -1.17609E+4
  -2.05133E+4  -1.16765E+4
  -2.03876E+4  -1.14264E+4
  -2.04360E+4  -1.12930E+4
  -2.02506E+4  -1.10547E+4
  -2.02934E+4  -1.08686E+4
  -2.02930E+4  -1.08357E+4
  -2.01594E+4  -1.05765E+4
  -2.00250E+4  -1.05027E+4
  -1.99750E+4  -1.04187E+4
  -1.97663E+4  -1.02829E+4
  -1.96636E+4  -1.00818E+4
  -1.96639E+4  -1.00277E+4
  -1.94968E+4  -9.91653E+3
  -1.94932E+4  -9.80536E+3
  -1.93137E+4  -9.59578E+3
  -1.92686E+4  -9.50650E+3
  -1.90743E+4  -9.36611E+3
  -1.90143E+4  -9.23766E+3
  -1.89903E+4  -9.13562E+3
  -1.87603E+4  -8.99791E+3
  -1.87466E+4  -8.80582E+3
  -1.85768E+4  -8.64396E+3
  -1.85390E+4  -8.56645E+3
  -1.84286E+4  -8.37475E+3
  -1.82627E+4  -8.24664E+3
  -1.82008E+4  -8.13701E+3
  -1.81262E+4  -7.98063E+3
  -1.79629E+4  -7.86228E+3
  -1.79151E+4  -7.66360E+3
  -1.77382E+4  -7.58059E+3
  -1.77810E+4  -7.40072E+3
  -1.75575E+4  -7.31730E+3
  -1.74847E+4  -7.17798E+3
  -1.74009E+4  -7.03357E+3
  -1.72990E+4  -6.91231E+3
  -1.72403E+4  -6.84330E+3
  -1.71189E+4  -6.75069E+3
  -1.69438E+4  -6.65829E+3
  -1.68015E+4  -6.56028E+3
  -1.67391E+4  -6.37180E+3
  -1.66186E+4  -6.36539E+3
  -1.65557E+4  -6.23406E+3
  -1.64936E+4  -6.13736E+3
  -1.64104E+4  -5.94133E+3
  -1.63252E+4  -5.93411E+3
  -1.60432E+4  -5.82857E+3
  -1.60695E+4  -5.73084E+3
  -1.59646E+4  -5.55525E+3
  -1.58455E+4  -5.47214E+3
  -1.57731E+4  -5.38155E+3
  -1.56838E+4  -5.34797E+3
  -1.55062E+4  -5.24858E+3
  -1.54382E+4  -5.09596E+3
  -1.53923E+4  -5.01885E+3
  -1.52612E+4  -5.04700E+3
  -1.51286E+4  -4.91624E+3
  -1.51247E+4  -4.81134E+3
  -1.50479E+4  -4.68886E+3
  -1.48853E+4  -4.70058E+3
  -1.48856E+4  -4.61282E+3
  -1.47427E+4  -4.51807E+3
  -1.45989E+4  -4.41763E+3
  -1.45908E+4  -4.35926E+3
  -1.44654E+4  -4.33557E+3
  -1.44042E+4  -4.21169E+3
  -1.42807E+4  -4.08998E+3
  -1.41796E+4  -4.08740E+3
  -1.41063E+4  -4.01773E+3
  -1.39997E+4  -3.96173E+3
  -1.39407E+4  -3.87719E+3
  -1.37914E+4  -3.78433E+3
  -1.37024E+4  -3.73474E+3
  -1.36518E+4  -3.68550E+3
  -1.35263E+4  -3.58375E+3
  -1.34263E+4  -3.53786E+3
  -1.32646E+4  -3.50617E+3
  -1.31736E+4  -3.46474E+3
  -1.30310E+4  -3.37667E+3
  -1.29573E+4  -3.26739E+3
  -1.28911E+4  -3.22588E+3
  -1.27414E+4  -3.12862E+3
  -1.26703E+4  -3.03744E+3
  -1.25112E+4  -3.02043E+3
  -1.23736E+4  -2.87542E+3
  -1.23150E+4  -2.79519E+3
  -1.22455E+4  -2.73154E+3
  -1.21457E+4  -2.62993E+3
  -1.20134E+4  -2.49320E+3
  -1.19597E+4  -2.49191E+3
  -1.18761E+4  -2.32046E+3
  -1.16930E+4  -2.21994E+3
  -1.16716E+4  -2.12707E+3
  -1.16375E+4  -2.05141E+3
  -1.14785E+4  -1.97460E+3
  -1.14296E+4  -1.93412E+3
  -1.13497E+4  -1.80520E+3
  -1.12496E+4  -1.77116E+3
  -1.12076E+4  -1.53338E+3
  -1.10331E+4  -1.61752E+3
  -1.09959E+4  -1.49283E+3
  -1.08587E+4  -1.36968E+3
  -1.08749E+4  -1.38116E+3
  -1.07590E+4  -1.32202E+3
  -1.05996E+4  -1.22795E+3
  -1.05872E+4  -1.15864E+3
  -1.04945E+4  -9.71512E+2
  -1.03333E+4  -9.21433E+2
  -1.03402E+4  -8.75722E+2
  -1.02197E+4  -8.36863E+2
  -1.00708E+4  -7.94930E+2
  -1.01213E+4  -6.98222E+2
  -9.99054E+3  -6.39882E+2
  -9.93424E+3  -5.89283E+2
  -9.83197E+3  -5.08555E+2
  -9.66249E+3  -4.46318E+2
  -9.66346E+3  -3.26630E+2
  -9.56959E+3  -3.08801E+2
  -9.50177E+3  -2.56959E+2
  -9.34849E+3  -1.56545E+2
  -9.30354E+3  -1.80289E+2
  -9.27566E+3  -9.15724E+1
  -9.18211E+3  -5.88129E+1
  -9.02477E+3   1.46962E+1
  -9.02714E+3   8.87406E+1
  -8.93918E+3   1.47337E+2
  -8.85307E+3   2.08097E+2
  -8.78541E+3   2.61462E+2
  -8.72751E+3   3.07781E+2
  -8.64850E+3   3.66024E+2
  -8.55826E+3   4.07653E+2
  -8.48678E+3   4.82145E+2
  -8.45613E+3   5.24535E+2
  -8.31137E+3   4.78896E+2
  -8.20794E+3   5.73042E+2
  -8.15988E+3   5.69591E+2
  -8.09619E+3   6.57825E+2
  -7.99847E+3   7.25160E+2
  -7.99389E+3   7.54998E+2
  -7.93883E+3   7.84547E+2
  -7.87040E+3   8.29614E+2
  -7.76852E+3   8.20977E+2
  -7.69249E+3   8.10170E+2
  -7.57008E+3   8.78853E+2
  -7.55755E+3   9.02739E+2
  -7.41619E+3   9.04458E+2
  -7.40886E+3   9.75383E+2
  -7.29419E+3   9.85071E+2
  -7.22412E+3   1.01508E+3
  -7.14885E+3   1.08515E+3
  -7.03038E+3   1.06761E+3
  -6.97790E+3   1.08256E+3
  -7.03333E+3   1.06932E+3
  -6.92556E+3   1.11313E+3
  -6.83074E+3   1.14927E+3
  -6.73725E+3   1.17844E+3
  -6.68610E+3   1.21698E+3
  -6.54669E+3   1.26629E+3
  -6.48911E+3   1.25069E+3
  -6.45824E+3   1.26369E+3
  -6.38487E+3   1.26930E+3
  -6.26144E+3   1.29547E+3
  -6.28071E+3   1.31997E+3
  -6.19770E+3   1.31434E+3
  -6.08741E+3   1.27335E+3
  -6.06113E+3   1.37214E+3
  -6.01862E+3   1.36207E+3
  -5.99980E+3   1.33991E+3
  -5.95512E+3   1.41853E+3
  -5.80959E+3   1.34861E+3
  -5.72658E+3   1.35156E+3
  -5.69864E+3   1.38994E+3
  -5.67512E+3   1.34155E+3
  -5.63880E+3   1.43216E+3
  -5.56907E+3   1.44127E+3
  -5.53389E+3   1.43564E+3
  -5.48560E+3   1.44379E+3
  -5.42820E+3   1.37814E+3
  -5.41667E+3   1.43927E+3
  -5.26435E+3   1.44028E+3
  -5.28290E+3   1.42299E+3
  -5.20214E+3   1.39682E+3
  -5.12794E+3   1.49725E+3
  -5.07722E+3   1.41882E+3
  -5.09412E+3   1.41223E+3
  -5.01497E+3   1.43189E+3
  -4.96507E+3   1.39093E+3
  -4.95034E+3   1.41588E+3
  -4.89738E+3   1.39506E+3
  -4.83350E+3   1.42184E+3
  -4.80818E+3   1.33981E+3
  -4.84729E+3   1.34876E+3
  -4.74684E+3   1.36189E+3
  -4.68139E+3   1.39283E+3
  -4.71740E+3   1.36716E+3
  -4.68480E+3   1.33231E+3
  -4.62231E+3   1.33163E+3
  -4.58324E+3   1.29129E+3
  -4.54805E+3   1.25961E+3
  -4.49273E+3   1.25419E+3
  -4.40447E+3   1.26708E+3
  -4.39183E+3   1.27828E+3
  -4.36719E+3   1.22775E+3
  -4.32732E+3   1.15886E+3
  -4.29764E+3   1.20625E+3
  -4.22860E+3   1.18290E+3
  -4.18126E+3   1.21027E+3
  -4.22933E+3   1.15791E+3
  -4.06902E+3   1.19406E+3
  -4.14743E+3   1.19284E+3
  -4.07355E+3   1.11632E+3
  -4.05994E+3   1.12239E+3
  -4.01299E+3   1.12116E+3
  -3.99635E+3   1.17340E+3
  -3.99715E+3   1.14601E+3
  -3.97868E+3   1.09608E+3
  -3.89919E+3   1.16277E+3
  -3.85577E+3   1.11773E+3
  -3.87693E+3   1.11110E+3
  -3.87612E+3   1.01755E+3
  -3.76081E+3   1.01104E+3
  -3.74360E+3   1.02902E+3
  -3.68606E+3   1.01837E+3
  -3.68356E+3   1.03036E+3
  -3.63622E+3   1.00235E+3
  -3.64406E+3   9.83133E+2
  -3.58903E+3   9.56223E+2
  -3.51644E+3   9.39410E+2
  -3.49440E+3   9.87414E+2
  -3.46045E+3   1.00958E+3
  -3.49147E+3   9.49428E+2
  -3.50682E+3   9.26626E+2
  -3.41540E+3   9.55635E+2
  -3.43572E+3   9.34221E+2
  -3.38253E+3   9.32377E+2
  -3.34920E+3   9.22096E+2
  -3.35783E+3   8.68418E+2
  -3.34362E+3   9.44329E+2
  -3.35528E+3   9.03471E+2
  -3.23225E+3   8.43349E+2
  -3.20183E+3   8.31054E+2
  -3.22134E+3   8.49464E+2
  -3.13984E+3   8.55582E+2
  -3.20815E+3   8.15080E+2
  -3.13637E+3   8.71943E+2
  -3.08508E+3   8.56380E+2
  -3.12668E+3   8.55475E+2
  -3.12222E+3   8.57093E+2
  -3.02610E+3   8.26589E+2
  -3.11148E+3   7.93007E+2
  -2.99690E+3   7.75379E+2
  -2.97345E+3   8.06390E+2
  -3.08259E+3   8.07827E+2
  -2.94913E+3   7.67524E+2
  -2.92233E+3   8.35043E+2
  -2.88028E+3   8.33311E+2
  -2.88072E+3   7.78298E+2
  -2.85604E+3   8.51001E+2
  -2.84589E+3   8.02128E+2
  -2.80742E+3   7.43824E+2
  -2.87876E+3   7.43960E+2
  -2.80219E+3   7.86499E+2
  -2.74464E+3   7.23719E+2
  -2.73561E+3   7.78279E+2
  -2.74848E+3   7.68360E+2
  -2.74641E+3   7.46864E+2
  -2.68112E+3   7.56223E+2
  -2.68329E+3   6.95905E+2
  -2.67393E+3   7.10118E+2
  -2.60450E+3   6.95709E+2
  -2.58523E+3   6.95661E+2
  -2.50444E+3   6.97827E+2
  -2.48884E+3   6.54837E+2
  -2.48816E+3   7.41934E+2
  -2.51384E+3   6.43871E+2
  -2.47890E+3   6.84653E+2
  -2.44964E+3   6.65119E+2
  -2.48019E+3   6.84615E+2
  -2.42637E+3   6.79346E+2
  -2.41317E+3   6.72966E+2
  -2.35611E+3   6.01368E+2
  -2.36968E+3   6.51195E+2
  -2.36168E+3   6.20447E+2
  -2.32428E+3   6.09064E+2
  -2.31896E+3   6.26418E+2
  -2.21124E+3   6.21926E+2
  -2.25512E+3   6.11272E+2
  -2.22794E+3   6.12635E+2
  -2.10550E+3   6.00909E+2
  -2.18676E+3   5.71011E+2
  -2.15400E+3   6.29290E+2
  -2.22776E+3   5.81217E+2
  -2.14208E+3   5.38548E+2
  -2.09784E+3   5.72902E+2
  -2.06398E+3   5.46214E+2
  -2.06873E+3   6.01710E+2
  -2.01142E+3   6.06929E+2
  -2.01187E+3   4.78357E+2
  -2.00714E+3   5.66796E+2
  -1.93636E+3   5.79773E+2
  -1.96129E+3   5.24552E+2
  -1.91395E+3   4.76434E+2
  -1.86794E+3   5.76752E+2
  -1.82062E+3   5.61921E+2
  -1.86654E+3   5.11801E+2
  -1.84136E+3   4.48946E+2
  -1.79472E+3   4.63029E+2
  -1.68678E+3   5.08154E+2
  -1.73165E+3   4.91965E+2
  -1.76413E+3   4.96305E+2
  -1.72765E+3   4.65052E+2
  -1.73173E+3   4.57900E+2
  -1.69779E+3   4.81255E+2
  -1.68587E+3   5.03242E+2
  -1.73841E+3   4.84077E+2
  -1.66517E+3   4.25285E+2
  -1.57259E+3   4.44081E+2
  -1.60688E+3   4.30330E+2
  -1.59332E+3   4.35222E+2
