 
 $NMID
 ID=''
 FMTDAT='(2E13.5)'
 TRAMP=   1.00000E+0
 VOLUME=   1.00000E+0
 $END
  -6.16922E+3   1.68997E+4
  -2.91950E+4   3.66870E+4
  -2.40964E+4   3.96522E+4
  -2.42622E+4   3.53415E+4
  -2.78478E+4   3.51360E+4
  -2.78395E+4   3.47505E+4
  -2.90414E+4   3.16507E+4
  -3.16565E+4   3.05382E+4
  -3.20089E+4   2.95681E+4
  -3.30233E+4   2.68978E+4
  -3.47621E+4   2.53342E+4
  -3.50827E+4   2.40619E+4
  -3.58952E+4   2.17901E+4
  -3.74137E+4   1.98840E+4
  -3.76392E+4   1.83297E+4
  -3.82246E+4   1.60202E+4
  -3.92942E+4   1.41448E+4
  -3.94327E+4   1.25577E+4
  -3.97256E+4   1.03706E+4
  -4.04518E+4   8.49748E+3
  -4.02898E+4   6.70233E+3
  -4.03548E+4   4.75071E+3
  -4.08339E+4   2.90116E+3
  -4.05858E+4   1.01536E+3
  -4.03240E+4  -1.00657E+3
  -4.03029E+4  -2.86053E+3
  -3.98741E+4  -4.76858E+3
  -3.94064E+4  -6.86602E+3
  -3.90555E+4  -8.71239E+3
  -3.83015E+4  -1.04865E+4
  -3.75227E+4  -1.23710E+4
  -3.68962E+4  -1.39996E+4
  -3.60133E+4  -1.58057E+4
  -3.48929E+4  -1.74797E+4
  -3.39444E+4  -1.88782E+4
  -3.28188E+4  -2.02662E+4
  -3.15547E+4  -2.17037E+4
  -3.04012E+4  -2.28686E+4
  -2.91088E+4  -2.40647E+4
  -2.77415E+4  -2.52402E+4
  -2.64430E+4  -2.63314E+4
  -2.49297E+4  -2.74200E+4
  -2.32888E+4  -2.83099E+4
  -2.18898E+4  -2.90758E+4
  -2.04136E+4  -2.97850E+4
  -1.89083E+4  -3.05252E+4
  -1.73748E+4  -3.12511E+4
  -1.58105E+4  -3.16648E+4
  -1.42711E+4  -3.22162E+4
  -1.26067E+4  -3.26398E+4
  -1.08821E+4  -3.29586E+4
  -9.31502E+3  -3.30771E+4
  -7.68964E+3  -3.32181E+4
  -6.19291E+3  -3.32712E+4
  -4.53754E+3  -3.33139E+4
  -2.86994E+3  -3.32501E+4
  -1.27712E+3  -3.30917E+4
   3.24259E+2  -3.28597E+4
   1.95102E+3  -3.24122E+4
   3.39241E+3  -3.19699E+4
   4.93835E+3  -3.14766E+4
   6.32113E+3  -3.09065E+4
   7.67145E+3  -3.02718E+4
   9.03111E+3  -2.96014E+4
   1.03479E+4  -2.87426E+4
   1.15710E+4  -2.78916E+4
   1.26702E+4  -2.70457E+4
   1.38166E+4  -2.61584E+4
   1.49677E+4  -2.50942E+4
   1.58888E+4  -2.41788E+4
   1.67742E+4  -2.30215E+4
   1.76290E+4  -2.19681E+4
   1.83807E+4  -2.08338E+4
   1.90820E+4  -1.96801E+4
   1.96598E+4  -1.86161E+4
   2.02885E+4  -1.74576E+4
   2.07148E+4  -1.63294E+4
   2.12000E+4  -1.51536E+4
   2.15692E+4  -1.39169E+4
   2.18563E+4  -1.28201E+4
   2.21244E+4  -1.16864E+4
   2.23229E+4  -1.05354E+4
   2.23772E+4  -9.31878E+3
   2.24166E+4  -8.28337E+3
   2.25163E+4  -7.09107E+3
   2.24477E+4  -5.91972E+3
   2.23262E+4  -4.85184E+3
   2.21221E+4  -3.82290E+3
   2.19650E+4  -2.87815E+3
   2.17038E+4  -1.85157E+3
   2.13652E+4  -9.74350E+2
   2.10365E+4  -4.93024E+1
   2.06805E+4   7.95431E+2
   2.03135E+4   1.58953E+3
   1.99033E+4   2.37050E+3
   1.92744E+4   3.16169E+3
   1.88607E+4   3.82684E+3
   1.84089E+4   4.43927E+3
   1.79054E+4   5.12360E+3
   1.73298E+4   5.66625E+3
   1.67178E+4   6.31846E+3
   1.61597E+4   6.79901E+3
   1.55639E+4   7.25388E+3
   1.51034E+4   7.73109E+3
   1.43984E+4   8.14721E+3
   1.38177E+4   8.50647E+3
   1.32416E+4   8.88887E+3
   1.26463E+4   9.18834E+3
   1.20589E+4   9.44540E+3
   1.13940E+4   9.65024E+3
   1.07270E+4   9.89710E+3
   1.02499E+4   1.00040E+4
   9.68568E+3   1.02204E+4
   9.05222E+3   1.03280E+4
   8.52894E+3   1.04291E+4
   7.95181E+3   1.05422E+4
   7.39890E+3   1.05488E+4
   6.81344E+3   1.05715E+4
   6.34143E+3   1.05570E+4
   5.81588E+3   1.06055E+4
   5.33844E+3   1.05541E+4
   4.85311E+3   1.05067E+4
   4.35118E+3   1.03964E+4
   3.85344E+3   1.04017E+4
   3.36858E+3   1.02134E+4
   2.99666E+3   1.01354E+4
   2.55261E+3   1.01038E+4
   2.13230E+3   9.91525E+3
   1.73825E+3   9.73044E+3
   1.25783E+3   9.64479E+3
   9.34750E+2   9.45174E+3
   6.03104E+2   9.28567E+3
   2.52377E+2   9.02239E+3
  -2.89328E+1   8.91694E+3
  -4.46560E+2   8.67669E+3
  -7.12086E+2   8.42490E+3
  -1.01890E+3   8.25690E+3
  -1.30105E+3   8.02676E+3
  -1.57996E+3   7.78022E+3
  -1.80443E+3   7.52254E+3
  -2.02315E+3   7.32142E+3
  -2.28499E+3   7.05488E+3
  -2.46425E+3   6.92853E+3
  -2.71671E+3   6.64694E+3
  -2.91274E+3   6.40842E+3
  -3.08134E+3   6.15559E+3
  -3.27187E+3   5.95826E+3
  -3.38996E+3   5.72712E+3
  -3.55498E+3   5.41880E+3
  -3.69745E+3   5.19914E+3
  -3.77380E+3   5.01305E+3
  -3.97664E+3   4.74332E+3
  -4.01139E+3   4.54077E+3
  -4.11278E+3   4.27986E+3
  -4.19044E+3   4.07814E+3
  -4.28576E+3   3.78624E+3
  -4.36867E+3   3.55037E+3
  -4.39485E+3   3.37318E+3
  -4.41376E+3   3.19283E+3
  -4.49784E+3   2.89188E+3
  -4.49845E+3   2.72016E+3
  -4.51139E+3   2.49444E+3
  -4.53254E+3   2.35768E+3
  -4.48262E+3   2.18370E+3
  -4.56069E+3   1.99353E+3
  -4.53907E+3   1.83157E+3
  -4.57625E+3   1.64114E+3
  -4.53762E+3   1.54074E+3
  -4.48468E+3   1.33211E+3
  -4.42437E+3   1.15984E+3
  -4.41741E+3   1.03665E+3
  -4.33488E+3   8.64528E+2
  -4.36290E+3   7.36205E+2
  -4.28829E+3   5.58900E+2
  -4.24911E+3   4.32768E+2
  -4.20272E+3   2.84471E+2
  -4.14838E+3   2.70095E+2
  -4.04987E+3   1.31533E+2
  -4.03887E+3   7.99397E+1
  -3.96709E+3  -7.48476E+1
  -3.89339E+3  -1.68922E+2
  -3.98036E+3  -2.84793E+2
  -3.84632E+3  -3.80702E+2
  -3.74216E+3  -5.13469E+2
  -3.70887E+3  -5.44588E+2
  -3.67337E+3  -6.39976E+2
  -3.53701E+3  -7.56377E+2
  -3.53515E+3  -7.54600E+2
  -3.42614E+3  -8.93293E+2
  -3.35169E+3  -8.96597E+2
  -3.31330E+3  -1.02426E+3
  -3.24245E+3  -1.05635E+3
  -3.12445E+3  -1.08639E+3
  -3.03496E+3  -1.17282E+3
  -2.98684E+3  -1.29854E+3
  -2.94414E+3  -1.19950E+3
  -2.89332E+3  -1.19142E+3
  -2.77570E+3  -1.33583E+3
  -2.77482E+3  -1.33673E+3
  -2.68607E+3  -1.39875E+3
  -2.61790E+3  -1.48470E+3
  -2.46904E+3  -1.48578E+3
  -2.43197E+3  -1.45561E+3
  -2.36728E+3  -1.47724E+3
  -2.30936E+3  -1.58326E+3
  -2.25218E+3  -1.52849E+3
  -2.25114E+3  -1.53525E+3
  -2.11366E+3  -1.60325E+3
  -2.12230E+3  -1.60181E+3
  -1.98381E+3  -1.54605E+3
  -1.89826E+3  -1.55882E+3
  -1.87397E+3  -1.61061E+3
  -1.82577E+3  -1.64962E+3
  -1.73753E+3  -1.64297E+3
  -1.67608E+3  -1.68825E+3
  -1.69839E+3  -1.66747E+3
  -1.51052E+3  -1.58088E+3
  -1.54943E+3  -1.56386E+3
  -1.46907E+3  -1.56923E+3
  -1.45454E+3  -1.62817E+3
  -1.30161E+3  -1.56280E+3
  -1.33310E+3  -1.54994E+3
  -1.26868E+3  -1.56977E+3
  -1.30396E+3  -1.53661E+3
  -1.21753E+3  -1.51751E+3
  -1.22235E+3  -1.58569E+3
  -1.19378E+3  -1.48470E+3
  -1.11345E+3  -1.45373E+3
  -1.03273E+3  -1.49894E+3
  -1.07730E+3  -1.48691E+3
  -1.01778E+3  -1.48428E+3
  -1.03625E+3  -1.49415E+3
  -1.04749E+3  -1.46097E+3
  -9.97169E+2  -1.44243E+3
  -9.43249E+2  -1.40401E+3
  -9.23033E+2  -1.42850E+3
  -8.97958E+2  -1.37615E+3
  -8.43163E+2  -1.37983E+3
  -7.92952E+2  -1.42405E+3
  -8.49534E+2  -1.37138E+3
  -8.18110E+2  -1.44799E+3
  -7.92058E+2  -1.45428E+3
  -7.27361E+2  -1.41968E+3
  -7.60360E+2  -1.41269E+3
  -7.14071E+2  -1.40778E+3
  -7.52177E+2  -1.39696E+3
  -6.51420E+2  -1.40469E+3
  -7.09169E+2  -1.42990E+3
  -6.47778E+2  -1.42169E+3
  -6.00875E+2  -1.41098E+3
  -6.00516E+2  -1.42387E+3
  -5.50336E+2  -1.45415E+3
  -6.13363E+2  -1.51483E+3
  -5.49100E+2  -1.37626E+3
  -5.09405E+2  -1.42092E+3
  -5.60914E+2  -1.43635E+3
  -4.47564E+2  -1.37274E+3
  -4.00024E+2  -1.39603E+3
  -3.93820E+2  -1.33010E+3
  -3.78516E+2  -1.42167E+3
  -3.72972E+2  -1.36837E+3
  -3.80221E+2  -1.38848E+3
  -4.02005E+2  -1.39874E+3
  -3.58542E+2  -1.36488E+3
  -3.33604E+2  -1.33371E+3
  -2.42842E+2  -1.41186E+3
  -2.53221E+2  -1.36505E+3
  -1.99345E+2  -1.34998E+3
  -2.33445E+2  -1.30970E+3
  -1.89887E+2  -1.31622E+3
  -1.81342E+2  -1.33241E+3
  -1.92861E+2  -1.25741E+3
  -1.71674E+2  -1.28388E+3
  -1.39888E+2  -1.27922E+3
  -1.63934E+2  -1.32185E+3
  -9.21984E+1  -1.24326E+3
  -1.52322E+2  -1.23602E+3
  -1.09066E+2  -1.21695E+3
  -9.95146E+1  -1.18871E+3
  -1.07410E+1  -1.27100E+3
  -4.18493E+1  -1.14301E+3
  -8.58180E+0  -1.18364E+3
   6.64262E+0  -1.09930E+3
  -1.79663E+1  -1.12832E+3
   5.76403E+1  -1.10741E+3
   2.46799E+0  -1.18989E+3
   7.56272E+1  -1.11472E+3
   6.50722E+1  -1.09648E+3
   3.54569E+1  -1.04944E+3
   5.19013E+1  -1.12109E+3
   3.31739E+1  -1.00260E+3
   9.34137E+1  -9.95797E+2
   1.26924E+2  -1.00422E+3
   4.91764E+1  -9.95235E+2
   1.26155E+2  -9.42524E+2
   1.11329E+2  -9.89107E+2
   1.05627E+2  -9.36419E+2
   9.98005E+1  -9.75010E+2
   1.26966E+2  -8.61584E+2
   8.08374E+1  -9.56391E+2
   1.27271E+2  -8.92209E+2
   1.66895E+2  -9.04954E+2
   1.01304E+2  -8.64750E+2
   1.53748E+2  -8.39757E+2
   1.10537E+2  -8.45888E+2
   1.05831E+2  -8.36888E+2
   5.83758E+1  -8.45974E+2
   1.08584E+2  -8.63102E+2
   1.20193E+2  -7.96906E+2
   6.68888E+1  -7.46502E+2
   8.26456E+1  -7.38525E+2
   1.58315E+2  -7.49993E+2
   8.53581E+1  -7.02682E+2
   1.58610E+1  -7.41022E+2
   1.21112E+2  -7.77174E+2
   1.63903E+2  -7.32310E+2
   6.48263E+1  -7.04967E+2
  -5.91358E+0  -6.86495E+2
   6.25957E+1  -7.08644E+2
   6.13521E+1  -6.19613E+2
   6.72481E+1  -6.27613E+2
   8.21998E+0  -6.08556E+2
   1.66546E+0  -6.14606E+2
   4.05180E+1  -6.31941E+2
   1.13147E+2  -5.96279E+2
   5.61384E+1  -6.09865E+2
   3.68641E+1  -5.87075E+2
   3.03506E+1  -5.57289E+2
   1.29192E+2  -5.61287E+2
   6.43777E+1  -5.57866E+2
   5.39284E+1  -5.01357E+2
   2.87317E+1  -5.13383E+2
   2.99816E+1  -5.47735E+2
   2.33794E+1  -4.84255E+2
   8.14645E+1  -4.71838E+2
   1.04458E+2  -4.38208E+2
  -3.35676E+1  -5.02570E+2
   5.47021E+1  -4.34108E+2
  -4.93948E-1  -4.61674E+2
  -3.02773E-1  -4.72353E+2
   4.31882E+1  -4.06216E+2
  -1.28421E+1  -4.47315E+2
   1.48515E+1  -4.54452E+2
   1.52803E+1  -3.71825E+2
  -2.55928E+1  -3.95322E+2
  -3.65201E+0  -4.06232E+2
   7.54336E+0  -3.08044E+2
  -1.07873E+2  -3.39240E+2
   1.35067E+0  -3.02538E+2
  -5.12649E+1  -3.13114E+2
  -2.57159E+1  -3.21514E+2
  -1.53866E+1  -3.19261E+2
   1.64804E+1  -3.82025E+2
  -2.44005E+1  -2.83858E+2
  -3.85068E+1  -3.16003E+2
   3.24306E+1  -3.04687E+2
  -5.77418E+1  -3.33519E+2
  -4.97695E+1  -2.95536E+2
  -5.62084E+0  -2.79704E+2
  -2.96428E+1  -2.28644E+2
  -2.57174E+1  -3.09985E+2
  -2.57849E+1  -2.42297E+2
  -7.13873E+1  -2.43971E+2
  -7.53701E+1  -2.40802E+2
  -1.12427E+2  -2.73713E+2
  -6.00307E+1  -2.46201E+2
  -8.04736E+1  -1.61037E+2
