 LCModel (Version 6.3-1N) Copyright: S.W. Provencher.          Ref.: Magn. Reson. Med. 30:672-679 (1993).                
 Slice_N1@20_10  02-Jun-2023 14:37:22
 27 lines in following concentration table = NCONC+1
    Conc.  %SD /Cr+PCr  Metabolite                                         
 2.67E-06  13% 3.3E-04 Mac                                                 
 5.98E-02  22%   7.402 Cr                                                  
 4.84E-03 289%   0.598 PCr                                                 
 6.22E-02  15%   7.692 Ins                                                 
    0.117   8%  14.426 NAA                                                 
 4.62E-02  17%   5.716 Tau                                                 
 1.51E-02  14%   1.872 PCho                                                
    0.000 999%   0.000 GPC                                                 
 8.91E-02  12%  11.026 Glu                                                 
 2.94E-02  24%   3.635 Gln                                                 
    0.000 999%   0.000 Ala                                                 
 1.87E-03 684%   0.231 Asc                                                 
 1.54E-02  51%   1.901 Asp                                                 
 6.48E-03  65%   0.802 GABA                                                
 7.69E-03  67%   0.951 Glc                                                 
 5.55E-03  75%   0.686 GSH                                                 
    0.000 999%   0.000 Lac                                                 
    0.000 999%   0.000 NAAG                                                
    0.000 999%   0.000 PE                                                  
 1.51E-02  14%   1.872 GPC+PCho                                            
    0.117   8%  14.426 NAA+NAAG                                            
    0.119  11%  14.661 Glu+Gln                                             
 6.47E-02  11%   8.000 Cr+PCr                                              
    0.117   8%  14.426 NAA+NAAG                                            
 6.47E-02  11%   8.000 Cr+PCr                                              
    0.119  11%  14.661 Glu+Gln                                             
   6 lines in following misc. output table
  FWHM = 0.052 ppm    S/N =   4                                            
  Data shift =-0.017 ppm                                                   
  Ph: -75 deg     -14.9 deg/ppm                                            
  alphaB,S = 5.5E-01,   1.9E+01                                            
   18 spline knots.   Ns = 8(1)                                            
  ( 9) 5 infls.   ( 4) 2 extrs.                                            
  654 points on ppm-axis = NY
      4.000000     3.994181     3.988363     3.982544     3.976726     3.970907     3.965088     3.959270     3.953451     3.947633
      3.941814     3.935995     3.930177     3.924358     3.918540     3.912721     3.906902     3.901084     3.895265     3.889446
      3.883628     3.877809     3.871991     3.866172     3.860353     3.854535     3.848716     3.842898     3.837079     3.831260
      3.825442     3.819623     3.813805     3.807986     3.802167     3.796349     3.790530     3.784712     3.778893     3.773074
      3.767256     3.761437     3.755619     3.749800     3.743981     3.738163     3.732344     3.726526     3.720707     3.714888
      3.709070     3.703251     3.697433     3.691614     3.685795     3.679977     3.674158     3.668339     3.662521     3.656702
      3.650884     3.645065     3.639246     3.633428     3.627609     3.621791     3.615972     3.610153     3.604335     3.598516
      3.592698     3.586879     3.581060     3.575242     3.569423     3.563605     3.557786     3.551967     3.546149     3.540330
      3.534512     3.528693     3.522874     3.517056     3.511237     3.505419     3.499600     3.493781     3.487963     3.482144
      3.476326     3.470507     3.464688     3.458870     3.453051     3.447232     3.441414     3.435595     3.429777     3.423958
      3.418139     3.412321     3.406502     3.400684     3.394865     3.389046     3.383228     3.377409     3.371591     3.365772
      3.359953     3.354135     3.348316     3.342498     3.336679     3.330860     3.325042     3.319223     3.313405     3.307586
      3.301767     3.295949     3.290130     3.284312     3.278493     3.272674     3.266856     3.261037     3.255219     3.249400
      3.243581     3.237763     3.231944     3.226125     3.220307     3.214488     3.208670     3.202851     3.197032     3.191214
      3.185395     3.179577     3.173758     3.167939     3.162121     3.156302     3.150484     3.144665     3.138846     3.133028
      3.127209     3.121391     3.115572     3.109753     3.103935     3.098116     3.092298     3.086479     3.080660     3.074842
      3.069023     3.063205     3.057386     3.051567     3.045749     3.039930     3.034111     3.028293     3.022474     3.016656
      3.010837     3.005018     2.999200     2.993381     2.987563     2.981744     2.975925     2.970107     2.964288     2.958470
      2.952651     2.946832     2.941014     2.935195     2.929377     2.923558     2.917739     2.911921     2.906102     2.900284
      2.894465     2.888646     2.882828     2.877009     2.871191     2.865372     2.859553     2.853735     2.847916     2.842098
      2.836279     2.830460     2.824642     2.818823     2.813004     2.807186     2.801367     2.795549     2.789730     2.783911
      2.778093     2.772274     2.766456     2.760637     2.754818     2.749000     2.743181     2.737363     2.731544     2.725725
      2.719907     2.714088     2.708270     2.702451     2.696632     2.690814     2.684995     2.679177     2.673358     2.667539
      2.661721     2.655902     2.650084     2.644265     2.638446     2.632628     2.626809     2.620991     2.615172     2.609353
      2.603535     2.597716     2.591897     2.586079     2.580260     2.574442     2.568623     2.562804     2.556986     2.551167
      2.545349     2.539530     2.533711     2.527893     2.522074     2.516256     2.510437     2.504618     2.498800     2.492981
      2.487163     2.481344     2.475525     2.469707     2.463888     2.458070     2.452251     2.446432     2.440614     2.434795
      2.428977     2.423158     2.417339     2.411521     2.405702     2.399884     2.394065     2.388246     2.382428     2.376609
      2.370790     2.364972     2.359153     2.353335     2.347516     2.341697     2.335879     2.330060     2.324242     2.318423
      2.312604     2.306786     2.300967     2.295149     2.289330     2.283511     2.277693     2.271874     2.266056     2.260237
      2.254418     2.248600     2.242781     2.236963     2.231144     2.225325     2.219507     2.213688     2.207870     2.202051
      2.196232     2.190414     2.184595     2.178777     2.172958     2.167139     2.161321     2.155502     2.149683     2.143865
      2.138046     2.132228     2.126409     2.120590     2.114772     2.108953     2.103135     2.097316     2.091497     2.085679
      2.079860     2.074042     2.068223     2.062404     2.056586     2.050767     2.044949     2.039130     2.033311     2.027493
      2.021674     2.015856     2.010037     2.004218     1.998400     1.992581     1.986763     1.980944     1.975126     1.969307
      1.963489     1.957670     1.951852     1.946033     1.940215     1.934397     1.928578     1.922760     1.916941     1.911123
      1.905304     1.899486     1.893667     1.887849     1.882030     1.876212     1.870393     1.864575     1.858756     1.852938
      1.847119     1.841301     1.835482     1.829664     1.823845     1.818027     1.812208     1.806390     1.800571     1.794753
      1.788934     1.783116     1.777297     1.771479     1.765660     1.759842     1.754023     1.748205     1.742386     1.736568
      1.730749     1.724931     1.719113     1.713294     1.707476     1.701657     1.695839     1.690020     1.684202     1.678383
      1.672565     1.666746     1.660928     1.655109     1.649291     1.643472     1.637654     1.631835     1.626017     1.620198
      1.614380     1.608561     1.602743     1.596924     1.591106     1.585287     1.579469     1.573650     1.567832     1.562013
      1.556195     1.550376     1.544558     1.538739     1.532921     1.527102     1.521284     1.515465     1.509647     1.503829
      1.498010     1.492192     1.486373     1.480555     1.474736     1.468918     1.463099     1.457281     1.451462     1.445644
      1.439825     1.434007     1.428188     1.422370     1.416551     1.410733     1.404914     1.399096     1.393277     1.387459
      1.381640     1.375822     1.370003     1.364185     1.358366     1.352548     1.346729     1.340911     1.335092     1.329274
      1.323455     1.317637     1.311818     1.306000     1.300182     1.294363     1.288545     1.282726     1.276908     1.271089
      1.265271     1.259452     1.253634     1.247815     1.241997     1.236178     1.230360     1.224541     1.218723     1.212904
      1.207086     1.201267     1.195449     1.189630     1.183812     1.177993     1.172175     1.166356     1.160538     1.154719
      1.148901     1.143082     1.137264     1.131445     1.125627     1.119808     1.113990     1.108171     1.102353     1.096534
      1.090716     1.084898     1.079079     1.073261     1.067442     1.061624     1.055805     1.049987     1.044168     1.038350
      1.032531     1.026713     1.020894     1.015076     1.009257     1.003439     0.997620     0.991802     0.985983     0.980165
      0.974346     0.968528     0.962709     0.956891     0.951072     0.945254     0.939435     0.933617     0.927798     0.921980
      0.916161     0.910343     0.904524     0.898706     0.892887     0.887069     0.881251     0.875432     0.869614     0.863795
      0.857977     0.852158     0.846340     0.840521     0.834703     0.828884     0.823066     0.817247     0.811429     0.805610
      0.799792     0.793973     0.788155     0.782336     0.776518     0.770699     0.764881     0.759062     0.753244     0.747425
      0.741607     0.735788     0.729970     0.724151     0.718333     0.712514     0.706696     0.700877     0.695059     0.689240
      0.683422     0.677603     0.671785     0.665967     0.660148     0.654330     0.648511     0.642693     0.636874     0.631056
      0.625237     0.619419     0.613600     0.607782     0.601963     0.596145     0.590326     0.584508     0.578689     0.572871
      0.567052     0.561234     0.555415     0.549597     0.543778     0.537960     0.532141     0.526323     0.520504     0.514686
      0.508867     0.503049     0.497230     0.491412     0.485593     0.479775     0.473956     0.468138     0.462319     0.456501
      0.450682     0.444864     0.439045     0.433227     0.427408     0.421590     0.415771     0.409953     0.404134     0.398316
      0.392497     0.386679     0.380860     0.375042     0.369223     0.363405     0.357586     0.351767     0.345949     0.340130
      0.334312     0.328493     0.322675     0.316856     0.311038     0.305219     0.299401     0.293582     0.287764     0.281945
      0.276127     0.270308     0.264490     0.258671     0.252853     0.247034     0.241216     0.235397     0.229579     0.223760
      0.217942     0.212123     0.206305     0.200486
 NY phased data points follow
  -1.82130E-01 -2.22078E-01 -2.00759E-01 -2.33282E-01 -8.91582E-02  2.03423E-01 -3.35411E-01 -1.80611E-01 -5.76236E-02  1.14021E-01
   4.13432E-01  1.75241E-01  3.07145E-01  4.73408E-01  2.26847E-01  2.10551E-01  6.50941E-02  1.94014E-01  3.22512E-01  3.01393E-01
   3.49826E-02 -2.54448E-01  8.11155E-02 -2.15557E-01  8.61803E-02  7.65119E-02 -1.51816E-01  1.85094E-01 -6.14512E-01 -1.94581E-01
  -3.73014E-02 -3.82771E-01 -1.36930E-01 -3.47083E-01  4.36579E-02 -2.71258E-01 -1.17428E-01  1.13451E-01  1.20417E-01  1.11425E-01
  -7.01331E-02  4.28964E-01  2.65186E-01  3.35142E-01  4.94444E-01  1.66411E-01 -4.99458E-02  4.57469E-01  3.77476E-01 -3.32161E-02
   7.21299E-02 -1.85179E-01 -1.81940E-01 -1.72682E-01 -3.36044E-02 -1.96522E-01 -4.03532E-01 -3.36121E-01 -4.59662E-01 -3.62373E-01
  -4.03964E-01 -2.65435E-01  9.62772E-02 -4.03437E-01 -1.01548E-01  4.42895E-02  6.80571E-02  3.39879E-01 -2.68549E-01  2.98239E-01
   1.42905E-01  1.70252E-01  3.93633E-01  7.74052E-02  2.57742E-01 -2.29220E-01 -2.12392E-01 -1.15165E-01 -3.38226E-02  1.83525E-02
  -1.44568E-01 -1.80021E-03  2.09469E-01  2.22218E-01  1.94483E-01  3.36902E-01  3.94838E-01  1.23393E-01  1.16037E-01  7.69345E-02
   3.32550E-02  8.50233E-02 -1.37373E-01  3.22464E-01  1.59744E-01 -7.68693E-02 -5.43174E-02  1.20190E-01  4.10664E-01 -3.63387E-01
  -6.14920E-02  2.62440E-01  1.19217E-01  1.12235E-01  9.20175E-02  4.23060E-01  3.61549E-01  8.16704E-01  5.52340E-01  4.82017E-01
   6.09009E-01  2.26940E-01  5.14970E-01  1.37542E-01  1.32878E-01  1.01424E-01  5.58819E-02 -1.53477E-01 -1.49648E-01  2.44908E-02
  -2.21638E-01  5.34210E-02 -1.24036E-01 -1.68171E-01 -4.17070E-01 -3.72358E-01 -4.99009E-01 -6.38069E-01 -4.71043E-01 -5.90586E-01
  -6.31625E-01 -7.15193E-01 -7.07858E-01 -9.81234E-01 -4.34828E-01 -5.28560E-01 -7.48741E-01 -5.15375E-01 -4.41016E-01 -2.32396E-01
  -1.91511E-01  3.45660E-01  2.29924E-01 -1.36509E-02  2.75204E-01  2.28241E-01  2.18975E-01  5.10859E-01  2.85689E-01  1.16660E-01
   3.59899E-01  2.57783E-01  2.46560E-01  4.32741E-01  3.40084E-01  1.59765E-01  1.89428E-01  1.87092E-01  3.31747E-01  6.68265E-01
   3.60403E-01  4.25412E-01  6.26817E-01  1.87242E-02  5.22638E-01  1.78370E-01 -2.11590E-01  4.91182E-02 -8.10384E-01 -9.21606E-01
  -1.04124E+00 -1.39031E+00 -1.03851E+00 -5.13707E-01 -4.20613E-01 -4.56886E-01 -6.90764E-01 -5.35221E-01 -3.22604E-01 -4.30034E-01
  -2.53619E-01 -4.13919E-01 -2.49487E-01 -1.74352E-01 -3.19853E-01 -1.52550E-01 -3.49473E-01 -1.84049E-01  2.01651E-01 -2.65987E-01
  -1.51073E-01 -3.41332E-01 -3.87200E-01  6.95797E-02 -2.80877E-01 -1.26090E-01 -1.33616E-01 -1.55349E-01  2.12800E-01  3.20784E-01
  -8.14371E-02  1.08780E-01  3.19294E-02 -3.49454E-01  5.12318E-03  1.57274E-01  3.80635E-01 -9.43568E-02 -2.71288E-01 -8.60000E-02
  -4.60699E-02 -1.46172E-01 -2.61594E-01 -1.71908E-01 -2.35802E-01  1.73373E-01  1.71617E-01 -6.12391E-03 -1.47565E-01 -2.32043E-01
   5.56109E-02  2.46337E-01  5.78248E-01  4.01416E-01  2.68458E-01  6.95093E-01  5.58127E-01  7.16568E-01  6.89412E-01  2.84686E-01
   3.95709E-01  4.40035E-01  3.61095E-01 -1.44360E-01 -1.71601E-01 -1.35055E-01 -4.48296E-01 -3.89868E-01 -1.45363E-01 -2.29537E-01
  -2.70959E-01  7.14607E-02 -2.37063E-01 -2.30687E-01 -9.70596E-02 -1.78680E-01 -9.99526E-02 -2.41034E-01 -2.19161E-01 -1.06295E-01
   2.27435E-02  2.67722E-01 -9.02415E-02 -1.25887E-01  5.60597E-01 -7.27011E-02 -1.06205E-01  2.49698E-01 -1.93923E-02  9.09058E-02
   1.62147E-01  1.80096E-01 -2.25986E-01  1.69775E-01  4.33577E-01  1.57902E-02  1.59321E-01  3.31639E-01  2.06144E-01  3.14924E-01
   4.67675E-01  1.23755E-01  8.06217E-02 -3.45394E-03 -1.49452E-01  5.77804E-02 -1.50019E-01 -1.26271E-01 -4.36811E-02 -4.24049E-01
  -1.60447E-01 -2.77292E-01  1.43332E-01  4.70373E-01  3.82982E-02  3.12540E-01  4.34189E-01  1.04412E+00  1.08982E+00  8.67002E-01
   6.83485E-01  5.86025E-01  5.51808E-01  7.34185E-02  7.08572E-02  2.53146E-04  3.89188E-02  1.44381E-01  2.58444E-01  1.95424E-01
   1.86988E-01  1.72881E-01  5.71632E-01  5.24279E-01  7.26676E-03  4.17206E-01  3.56022E-01  2.45112E-01  5.08143E-01  3.27470E-01
   2.87049E-01  4.52080E-01  7.34016E-02 -5.03187E-05  8.17804E-02 -1.24116E-01 -7.88933E-02  1.56916E-01 -3.96566E-01 -5.44292E-01
  -1.60881E-02 -3.32409E-01 -4.17604E-01 -3.92958E-01 -1.21311E-01 -1.65302E-01 -2.14067E-02  5.54365E-02  3.44818E-02  4.79506E-01
   2.93425E-01 -6.56516E-02 -3.08258E-01  1.32198E-01 -1.05210E-02 -6.80220E-01 -7.60173E-01 -7.96885E-01 -1.21720E+00 -9.21025E-01
  -8.35365E-01 -1.37442E+00 -1.31235E+00 -1.56641E+00 -1.35320E+00 -1.13837E+00 -5.87035E-01 -2.55179E-02  1.80987E-02  5.07508E-01
   5.76510E-01  4.78126E-01  7.34266E-01  8.57152E-01  4.96956E-01  2.54063E-01 -2.00837E-01 -2.64937E-01  1.23985E-01 -1.59501E-01
   1.56403E-01  2.45187E-01  1.39309E-01  2.97415E-01  1.36651E-01  9.57108E-02  3.06749E-02  3.12453E-01  1.64488E-02  1.95449E-01
  -1.65261E-02 -6.83244E-02  4.04741E-01 -2.60856E-01  1.44099E-01 -1.74431E-01 -1.19098E-01  3.39926E-01  2.08548E-01  1.09130E-01
  -2.33865E-01  5.11738E-02 -1.02501E-01  2.02179E-01  2.73787E-01  2.49341E-01  1.69991E-01 -6.18837E-02  3.80790E-01  8.08626E-02
   5.57409E-02  3.31197E-01  3.13051E-01  2.23643E-01  9.21823E-02  2.44922E-01  2.34296E-02  1.72908E-01  2.25739E-01 -1.12561E-01
   2.00962E-01  1.88010E-01 -5.87693E-02 -1.12968E-01 -1.67948E-01 -1.93100E-01 -1.53632E-01 -8.58458E-02  2.13881E-01 -1.19835E-01
  -1.62004E-01  1.06441E-01 -2.87621E-01 -2.40715E-01 -2.21041E-01  7.11997E-02  2.91524E-03 -2.13000E-02 -9.17386E-02 -2.68435E-01
  -2.97872E-01 -3.34012E-01  4.52575E-02 -7.59882E-02 -4.77003E-03  3.57165E-03 -1.66961E-01 -1.05846E-01  1.11683E-01 -2.52262E-01
  -1.49456E-01  1.93165E-01  1.95926E-01  2.82549E-01 -4.23189E-02 -1.55684E-02 -7.65664E-02  1.62397E-01  1.28640E-01  1.50016E-01
  -1.28946E-01 -1.24203E-01  9.53415E-02 -1.06894E-01  4.91323E-01  2.26803E-01  3.21783E-01  2.70050E-01  2.87257E-01  4.57863E-01
  -4.07719E-02  1.92163E-01  2.33858E-02  1.69338E-01  4.40375E-01  3.33738E-01  8.47925E-02 -1.96441E-01 -3.46010E-01 -2.97234E-01
  -1.03991E-01 -2.63331E-01  2.15474E-01  2.31390E-02 -1.64440E-02  1.18065E-01 -4.45617E-01 -2.77972E-01 -3.82907E-01 -2.80891E-01
  -1.29995E-01 -2.73476E-01 -1.64448E-01  6.15239E-02 -2.90381E-01 -2.96424E-01  6.20024E-02 -4.38103E-02 -2.36432E-02 -7.63857E-02
  -4.67802E-02 -2.45082E-01 -7.07630E-02 -2.43999E-01  1.20343E-01  3.89731E-01 -1.47604E-01  4.93089E-02 -1.24391E-01  8.28029E-02
   3.17032E-01  1.80688E-01  3.19630E-01  2.66525E-01 -2.02457E-02  2.32058E-01  2.61055E-01 -8.04180E-02  7.75053E-02  2.16804E-01
   9.20822E-02  3.98633E-02  9.87980E-02 -5.97057E-02 -5.23069E-02  1.16737E-01  3.36513E-01  3.92189E-01  1.88803E-01 -1.57224E-02
   1.89828E-01  2.16121E-01  4.00703E-01  2.54773E-01 -2.42231E-01  8.92207E-02  2.54404E-01 -2.12396E-02 -1.06040E-01  1.54590E-01
  -1.18415E-01 -8.34485E-02 -3.34624E-01 -3.08105E-01 -3.55411E-01 -5.61579E-01 -7.21708E-02 -5.39937E-01 -5.12475E-01 -5.61859E-01
  -4.47159E-01 -3.12224E-01 -2.80293E-01 -1.49987E-01 -4.21662E-01 -1.16907E-01  1.97956E-01  1.11099E-02 -3.84409E-01  1.92355E-02
  -1.65203E-01 -3.74979E-01  2.87394E-01  2.00916E-01  1.42153E-01 -4.93840E-02 -1.76570E-01  1.71627E-01  1.56472E-01  3.41589E-01
   2.19466E-01  2.57795E-01  2.31541E-01 -1.37078E-02  1.94121E-01  1.38997E-01  3.02436E-01  2.23518E-01  2.29254E-01  2.04112E-01
   2.28050E-01  3.12093E-01  1.31281E-01 -2.00450E-02  2.23453E-02 -2.22615E-02 -1.85685E-01  4.30541E-01  2.26157E-01 -1.45478E-02
   3.52375E-01  2.75593E-01  3.51876E-01  1.25093E-01 -2.31119E-01  2.39201E-01  2.96525E-01  4.18881E-02  1.96680E-01  6.60780E-03
   4.08257E-03  1.08744E-01  7.23194E-02 -2.20743E-01  1.42815E-01  2.66122E-01 -2.25667E-01  3.11243E-01  2.02087E-01 -9.58740E-02
   2.07007E-01 -4.12601E-02 -4.12695E-02 -1.66796E-01 -7.42614E-02 -1.59019E-02 -2.24976E-01  9.19800E-02  3.38869E-02  1.50812E-01
  -1.20426E-01 -1.32215E-01  5.88329E-02 -2.83236E-02  2.52434E-02  2.16044E-03  6.32897E-02 -1.40266E-01  1.29534E-01 -1.60056E-01
  -1.77502E-01  4.26100E-01  3.21477E-01  1.03940E-01 -4.23830E-02 -4.61704E-02  2.02563E-01  9.71189E-02 -4.75131E-02  1.89261E-01
   1.35248E-01 -1.38793E-01  7.02371E-02  3.95096E-01  1.65130E-01  1.94206E-01 -1.20842E-02  2.29600E-01  1.07242E-01 -7.08488E-02
   4.97271E-01  2.28012E-01 -3.16195E-03 -2.27806E-02 -4.66230E-03 -8.14166E-02 -4.58859E-02 -9.83516E-02  9.65140E-02 -2.69588E-02
  -2.39482E-03 -3.39970E-02 -7.71516E-02  2.51657E-01 -1.65889E-01  4.18072E-02  1.14267E-01 -1.86719E-02 -4.74438E-02  1.65591E-02
   1.42861E-02  7.83682E-02  1.02231E-01 -1.23446E-02
 NY points of the fit to the data follow
  -6.53702E-03  5.10008E-03  4.60524E-03  3.87794E-03  9.32957E-03  1.49119E-02  2.43637E-02  7.62420E-02  1.56316E-01  2.22308E-01
   2.88859E-01  3.28292E-01  3.55402E-01  3.92005E-01  4.25104E-01  4.61736E-01  4.58781E-01  3.88412E-01  2.66864E-01  9.98846E-02
  -6.45762E-02 -1.70572E-01 -2.23138E-01 -2.41682E-01 -2.13525E-01 -1.77240E-01 -1.78720E-01 -1.84088E-01 -1.91571E-01 -2.00516E-01
  -2.11324E-01 -2.21920E-01 -2.27367E-01 -2.26796E-01 -2.11123E-01 -1.87037E-01 -1.41698E-01 -8.64418E-02 -1.62453E-02  6.35222E-02
   1.43059E-01  2.25587E-01  2.95679E-01  3.45413E-01  3.68474E-01  3.51714E-01  2.99586E-01  2.15556E-01  1.15866E-01  2.11402E-02
  -5.95638E-02 -1.18002E-01 -1.59134E-01 -1.79923E-01 -2.02745E-01 -2.22240E-01 -2.33913E-01 -2.54997E-01 -2.87479E-01 -2.68540E-01
  -2.55724E-01 -2.21925E-01 -1.42348E-01 -8.01127E-02  4.08427E-03  7.66137E-02  1.31319E-01  2.02213E-01  2.41763E-01  2.69085E-01
   2.83993E-01  2.40582E-01  1.46008E-01  4.47293E-02 -5.90538E-02 -1.73258E-01 -2.12400E-01 -2.24886E-01 -2.35067E-01 -1.97879E-01
  -1.53588E-01 -9.08952E-02  1.04048E-02  1.25555E-01  2.49226E-01  3.55995E-01  4.07457E-01  4.08098E-01  3.66564E-01  2.74282E-01
   1.62365E-01  8.10625E-02 -8.82014E-03 -7.42101E-02 -1.05556E-01 -1.23253E-01 -1.30780E-01 -1.38554E-01 -1.34857E-01 -1.17661E-01
  -7.42099E-02  2.70718E-03  9.85412E-02  1.99740E-01  2.80590E-01  3.24863E-01  3.29819E-01  3.04753E-01  2.70059E-01  2.33580E-01
   2.15474E-01  2.03665E-01  2.01958E-01  2.00287E-01  1.96745E-01  1.83292E-01  1.70052E-01  1.55503E-01  1.16515E-01  9.02453E-02
   3.83717E-02 -2.09828E-02 -1.03387E-01 -1.84643E-01 -2.60820E-01 -3.23106E-01 -3.55938E-01 -3.79159E-01 -5.00488E-01 -5.89607E-01
  -6.61814E-01 -6.92344E-01 -6.39888E-01 -5.84188E-01 -5.24462E-01 -5.30145E-01 -5.75720E-01 -5.71003E-01 -5.02785E-01 -3.66399E-01
  -1.27915E-01  7.70886E-02  2.04617E-01  2.70755E-01  2.88782E-01  2.00660E-01  1.77147E-01  1.77821E-01  1.85364E-01  1.95916E-01
   2.08436E-01  2.22571E-01  2.38224E-01  2.56516E-01  2.78606E-01  3.06473E-01  3.42132E-01  3.91228E-01  4.64154E-01  5.76726E-01
   5.40521E-01  4.75447E-01  3.69074E-01  2.20372E-01  1.41203E-01  3.28274E-02 -9.50676E-02 -2.81511E-01 -5.71726E-01 -8.26194E-01
  -1.00158E+00 -1.03859E+00 -8.92166E-01 -6.52472E-01 -4.41360E-01 -2.74814E-01 -1.43641E-01 -1.84396E-01 -2.08704E-01 -2.11529E-01
  -2.04939E-01 -1.98727E-01 -1.89584E-01 -1.81080E-01 -1.72343E-01 -1.63511E-01 -1.54438E-01 -1.44940E-01 -1.36357E-01 -1.26828E-01
  -1.16581E-01 -1.06331E-01 -9.66735E-02 -8.62283E-02 -7.41453E-02 -6.21413E-02 -5.18533E-02 -4.29418E-02 -3.61366E-02 -2.71968E-02
  -1.76763E-02 -1.03702E-02 -6.16800E-03 -7.79433E-03 -1.34594E-02 -2.06496E-02 -2.77269E-02 -3.20655E-02 -3.55865E-02 -4.08447E-02
  -4.76761E-02 -5.45194E-02 -5.92318E-02 -5.96539E-02 -5.53040E-02 -4.77018E-02 -3.55848E-02 -6.76803E-03  3.03086E-02  7.05608E-02
   1.08134E-01  1.38837E-01  1.98654E-01  2.74255E-01  3.44784E-01  4.15843E-01  4.47996E-01  4.45270E-01  4.17469E-01  3.65510E-01
   3.14359E-01  2.54173E-01  1.74902E-01  8.03456E-02 -2.24844E-02 -1.15808E-01 -1.73542E-01 -1.98438E-01 -1.98627E-01 -1.63218E-01
  -1.30617E-01 -1.24808E-01 -1.23910E-01 -1.27727E-01 -1.32482E-01 -1.39703E-01 -1.49898E-01 -1.63484E-01 -1.83092E-01 -1.78303E-01
  -1.77746E-01 -1.80428E-01 -1.53472E-01 -1.43689E-01 -1.06558E-01 -6.73919E-02 -2.71870E-02  5.08822E-02  1.03981E-01  1.69899E-01
   2.23496E-01  2.45956E-01  2.65021E-01  2.60959E-01  2.47461E-01  2.19991E-01  2.08903E-01  1.89441E-01  1.56676E-01  1.39327E-01
   1.02811E-01  6.66254E-02  8.61840E-03 -5.84616E-02 -1.28931E-01 -2.06943E-01 -2.75879E-01 -3.23563E-01 -3.25437E-01 -3.10690E-01
  -2.54018E-01 -1.88302E-01 -1.14996E-01 -1.02106E-02  1.05268E-01  2.57755E-01  4.18125E-01  5.53348E-01  6.44934E-01  6.59232E-01
   6.03912E-01  5.02722E-01  3.94276E-01  2.98586E-01  2.45437E-01  2.32442E-01  2.31642E-01  2.50624E-01  2.62877E-01  2.67217E-01
   2.67353E-01  2.61269E-01  2.54603E-01  2.44359E-01  2.34771E-01  2.23757E-01  2.10024E-01  1.94860E-01  1.73910E-01  1.48107E-01
   1.13013E-01  6.95417E-02  1.85537E-02 -4.09283E-02 -1.03373E-01 -1.65328E-01 -2.28482E-01 -2.78979E-01 -3.24530E-01 -3.49203E-01
  -3.53407E-01 -3.34539E-01 -2.88040E-01 -2.29442E-01 -1.52618E-01 -8.12240E-02 -9.69493E-03  4.71877E-02  8.26562E-02  1.05169E-01
   9.33995E-02  6.83869E-02  2.83920E-02 -2.42138E-02 -1.46403E-01 -4.68800E-01 -6.83376E-01 -8.92851E-01 -1.02916E+00 -1.04827E+00
  -1.15670E+00 -1.26837E+00 -1.44325E+00 -1.57706E+00 -1.46449E+00 -1.15955E+00 -6.62258E-01 -9.81367E-02  3.05479E-01  4.73672E-01
   5.06264E-01  4.00178E-01  1.58548E-01  1.01485E-01  8.04100E-02  6.75566E-02  5.92703E-02  5.17041E-02  4.53097E-02  4.06289E-02
   3.54944E-02  3.23970E-02  3.06200E-02  2.99007E-02  3.28037E-02  3.84355E-02  4.72097E-02  5.76990E-02  6.92836E-02  7.96584E-02
   8.85468E-02  9.63587E-02  1.01016E-01  1.06077E-01  1.08935E-01  1.12219E-01  1.15155E-01  1.18120E-01  1.20864E-01  1.23972E-01
   1.26380E-01  1.29027E-01  1.31688E-01  1.34453E-01  1.37376E-01  1.40219E-01  1.42613E-01  1.44287E-01  1.45409E-01  1.46407E-01
   1.46949E-01  1.47621E-01  1.46990E-01  1.44924E-01  1.40995E-01  1.35299E-01  1.28097E-01  1.20299E-01  1.12569E-01  1.04561E-01
   9.65818E-02  8.79044E-02  7.91794E-02  6.99913E-02  6.12163E-02  5.32282E-02  4.60923E-02  4.00203E-02  3.45835E-02  2.96352E-02
   2.51260E-02  2.09042E-02  1.75633E-02  1.44533E-02  1.16085E-02  9.39505E-03  7.63260E-03  5.79662E-03  4.82220E-03  4.56394E-03
   5.03348E-03  6.69671E-03  9.52509E-03  1.32368E-02  1.74633E-02  2.22662E-02  2.74133E-02  3.33480E-02  3.97795E-02  4.66767E-02
   5.35612E-02  5.97283E-02  6.58412E-02  7.25841E-02  8.00642E-02  8.94514E-02  1.00608E-01  1.12710E-01  1.25599E-01  1.38974E-01
   1.52311E-01  1.65743E-01  1.78937E-01  1.91681E-01  2.03416E-01  2.13584E-01  2.21841E-01  2.28011E-01  2.31610E-01  2.32457E-01
   2.30243E-01  2.24736E-01  2.17080E-01  2.07691E-01  1.96998E-01  1.85672E-01  1.73254E-01  1.59463E-01  1.45258E-01  1.30592E-01
   1.16381E-01  1.03413E-01  9.17879E-02  8.15312E-02  7.25510E-02  6.44226E-02  5.74442E-02  5.13935E-02  4.68265E-02  4.34902E-02
   4.15078E-02  4.05922E-02  4.08352E-02  4.23146E-02  4.49130E-02  4.95464E-02  5.51635E-02  6.17204E-02  6.87063E-02  7.55582E-02
   8.18968E-02  8.79569E-02  9.38058E-02  9.88678E-02  1.03257E-01  1.06600E-01  1.08041E-01  1.08808E-01  1.08496E-01  1.07603E-01
   1.06504E-01  1.04649E-01  1.02395E-01  9.88307E-02  9.42534E-02  8.92026E-02  8.37068E-02  7.81662E-02  7.29391E-02  6.80235E-02
   6.32365E-02  5.88853E-02  5.46820E-02  5.02834E-02  4.62206E-02  4.18303E-02  3.71716E-02  3.23859E-02  2.74769E-02  2.24220E-02
   1.69203E-02  1.07931E-02  3.33315E-03 -5.82696E-03 -1.73706E-02 -3.05969E-02 -4.56214E-02 -6.20211E-02 -7.92474E-02 -9.76814E-02
  -1.17218E-01 -1.37608E-01 -1.58497E-01 -1.78646E-01 -1.96781E-01 -2.12264E-01 -2.24526E-01 -2.33385E-01 -2.39098E-01 -2.41528E-01
  -2.40749E-01 -2.37294E-01 -2.30793E-01 -2.22367E-01 -2.12253E-01 -2.00866E-01 -1.89009E-01 -1.76606E-01 -1.64196E-01 -1.52403E-01
  -1.40805E-01 -1.29357E-01 -1.17586E-01 -1.05884E-01 -9.33195E-02 -7.99204E-02 -6.67280E-02 -5.39066E-02 -4.19773E-02 -3.08600E-02
  -2.04482E-02 -1.12638E-02 -2.61980E-03  5.17452E-03  1.18871E-02  1.82415E-02  2.38010E-02  2.84443E-02  3.27317E-02  3.62738E-02
   3.90441E-02  4.13608E-02  4.29720E-02  4.46070E-02  4.57860E-02  4.68260E-02  4.81365E-02  4.96081E-02  5.05839E-02  5.15293E-02
   5.29980E-02  5.42039E-02  5.56498E-02  5.73742E-02  5.85916E-02  5.94171E-02  5.97726E-02  5.94085E-02  5.85757E-02  5.75828E-02
   5.70596E-02  5.70503E-02  5.68163E-02  5.63546E-02  5.60044E-02  5.53870E-02  5.49710E-02  5.50861E-02  5.47778E-02  5.45653E-02
   5.37964E-02  5.20372E-02  5.04671E-02  4.93280E-02  4.90110E-02  4.94588E-02  5.01568E-02  5.06267E-02  5.08772E-02  5.09977E-02
   5.08891E-02  5.13902E-02  5.29514E-02  5.46590E-02  5.63923E-02  5.73717E-02  5.83033E-02  5.86904E-02  5.86516E-02  5.89484E-02
   5.91788E-02  5.94160E-02  5.93705E-02  5.88343E-02  5.86764E-02  5.92603E-02  6.05149E-02  6.27939E-02  6.47772E-02  6.63226E-02
   6.75051E-02  6.81357E-02  6.88772E-02  6.99904E-02  7.07745E-02  7.12981E-02  7.07956E-02  6.97310E-02  6.87924E-02  6.80494E-02
   6.74798E-02  6.78412E-02  6.85116E-02  6.88554E-02  6.93605E-02  6.96359E-02  7.00075E-02  7.07526E-02  7.14659E-02  7.26729E-02
   7.41429E-02  7.58621E-02  7.79832E-02  8.01751E-02  8.21467E-02  8.45683E-02  8.68478E-02  8.96878E-02  9.34598E-02  9.75115E-02
   1.01517E-01  1.04848E-01  1.07694E-01  1.10075E-01
 NY background values follow
     4.951E-03    5.310E-03    5.670E-03    6.029E-03    6.388E-03    6.748E-03    7.107E-03    7.466E-03    7.826E-03    8.185E-03
     8.544E-03    8.903E-03    9.261E-03    9.620E-03    9.979E-03    1.034E-02    1.070E-02    1.105E-02    1.141E-02    1.177E-02
     1.213E-02    1.248E-02    1.284E-02    1.320E-02    1.355E-02    1.391E-02    1.426E-02    1.462E-02    1.497E-02    1.533E-02
     1.568E-02    1.604E-02    1.639E-02    1.674E-02    1.709E-02    1.745E-02    1.780E-02    1.815E-02    1.850E-02    1.885E-02
     1.920E-02    1.955E-02    1.990E-02    2.024E-02    2.059E-02    2.094E-02    2.128E-02    2.163E-02    2.197E-02    2.232E-02
     2.266E-02    2.300E-02    2.334E-02    2.369E-02    2.403E-02    2.437E-02    2.470E-02    2.504E-02    2.538E-02    2.572E-02
     2.605E-02    2.639E-02    2.672E-02    2.705E-02    2.739E-02    2.772E-02    2.805E-02    2.838E-02    2.871E-02    2.903E-02
