 
 $NMID
 ID=''
 FMTDAT='(2E13.5)'
 TRAMP=   1.00000E+0
 VOLUME=   1.00000E+0
 $END
  -2.09221E+4   8.13167E+3
  -5.76508E+4   4.71689E+3
  -5.57947E+4   1.43741E+4
  -5.14056E+4   1.28404E+4
  -5.37961E+4   1.15510E+4
  -5.31480E+4   1.37063E+4
  -5.13177E+4   1.20760E+4
  -5.23338E+4   1.07028E+4
  -5.19019E+4   1.17695E+4
  -5.07553E+4   1.06401E+4
  -5.12446E+4   9.51661E+3
  -5.07945E+4   1.01580E+4
  -4.99335E+4   9.43632E+3
  -5.04664E+4   8.39025E+3
  -5.00707E+4   8.64165E+3
  -4.91483E+4   7.95357E+3
  -4.93698E+4   7.22127E+3
  -4.90228E+4   7.33435E+3
  -4.81641E+4   6.82002E+3
  -4.83307E+4   6.17130E+3
  -4.78196E+4   6.29886E+3
  -4.71185E+4   6.11223E+3
  -4.72300E+4   5.58425E+3
  -4.68068E+4   5.42287E+3
  -4.61653E+4   5.10344E+3
  -4.60331E+4   4.75527E+3
  -4.57236E+4   4.60838E+3
  -4.51268E+4   4.15088E+3
  -4.49422E+4   3.58159E+3
  -4.45983E+4   3.49552E+3
  -4.40945E+4   3.21566E+3
  -4.40039E+4   2.84636E+3
  -4.37593E+4   2.56908E+3
  -4.32410E+4   2.27017E+3
  -4.30078E+4   2.00138E+3
  -4.28160E+4   1.83557E+3
  -4.22646E+4   1.65886E+3
  -4.20305E+4   1.40380E+3
  -4.17706E+4   1.32067E+3
  -4.13593E+4   1.08138E+3
  -4.11059E+4   7.60630E+2
  -4.09324E+4   4.56085E+2
  -4.04994E+4   9.03330E+1
  -4.01615E+4  -1.11063E+2
  -3.98349E+4  -2.50313E+2
  -3.95379E+4  -4.53795E+2
  -3.93224E+4  -7.39066E+2
  -3.90749E+4  -9.06955E+2
  -3.87254E+4  -1.07386E+3
  -3.84146E+4  -1.30634E+3
  -3.81486E+4  -1.50708E+3
  -3.78718E+4  -1.75005E+3
  -3.75733E+4  -1.91590E+3
  -3.74242E+4  -2.09305E+3
  -3.71511E+4  -2.29121E+3
  -3.69231E+4  -2.53186E+3
  -3.66530E+4  -2.82702E+3
  -3.64348E+4  -2.95696E+3
  -3.61473E+4  -3.32357E+3
  -3.57790E+4  -3.52408E+3
  -3.55504E+4  -3.76813E+3
  -3.52716E+4  -4.00662E+3
  -3.50365E+4  -4.15519E+3
  -3.47694E+4  -4.40900E+3
  -3.44669E+4  -4.70856E+3
  -3.41466E+4  -4.88302E+3
  -3.39344E+4  -5.10769E+3
  -3.36416E+4  -5.27635E+3
  -3.32622E+4  -5.58714E+3
  -3.30013E+4  -5.81257E+3
  -3.26855E+4  -6.06165E+3
  -3.23767E+4  -6.18550E+3
  -3.21090E+4  -6.39664E+3
  -3.17466E+4  -6.62530E+3
  -3.14342E+4  -6.78078E+3
  -3.11824E+4  -6.92136E+3
  -3.09207E+4  -7.04057E+3
  -3.05401E+4  -7.22791E+3
  -3.02613E+4  -7.35380E+3
  -3.00546E+4  -7.48717E+3
  -2.97428E+4  -7.60355E+3
  -2.94413E+4  -7.75435E+3
  -2.91719E+4  -7.96136E+3
  -2.89022E+4  -8.16261E+3
  -2.86777E+4  -8.32461E+3
  -2.83340E+4  -8.46073E+3
  -2.80028E+4  -8.69713E+3
  -2.78092E+4  -8.83070E+3
  -2.75525E+4  -8.98190E+3
  -2.73002E+4  -9.13363E+3
  -2.70139E+4  -9.28330E+3
  -2.68059E+4  -9.33815E+3
  -2.65639E+4  -9.46997E+3
  -2.63138E+4  -9.69867E+3
  -2.60128E+4  -9.85513E+3
  -2.57160E+4  -9.88453E+3
  -2.54885E+4  -1.00828E+4
  -2.52965E+4  -1.01406E+4
  -2.50869E+4  -1.03335E+4
  -2.47854E+4  -1.05129E+4
  -2.44821E+4  -1.05738E+4
  -2.42095E+4  -1.06064E+4
  -2.40544E+4  -1.06930E+4
  -2.38819E+4  -1.09019E+4
  -2.35821E+4  -1.10812E+4
  -2.33963E+4  -1.11247E+4
  -2.31514E+4  -1.12827E+4
  -2.29228E+4  -1.13876E+4
  -2.26213E+4  -1.15437E+4
  -2.23731E+4  -1.16062E+4
  -2.21220E+4  -1.17066E+4
  -2.19407E+4  -1.17292E+4
  -2.17184E+4  -1.18419E+4
  -2.15431E+4  -1.19763E+4
  -2.12889E+4  -1.20465E+4
  -2.10831E+4  -1.21408E+4
  -2.07669E+4  -1.21742E+4
  -2.05529E+4  -1.21596E+4
  -2.03049E+4  -1.23254E+4
  -2.01201E+4  -1.23620E+4
  -1.99188E+4  -1.23624E+4
  -1.97085E+4  -1.24362E+4
  -1.94183E+4  -1.24541E+4
  -1.92380E+4  -1.25941E+4
  -1.89660E+4  -1.25825E+4
  -1.87198E+4  -1.25237E+4
  -1.85475E+4  -1.25662E+4
  -1.84005E+4  -1.25580E+4
  -1.82047E+4  -1.25571E+4
  -1.79844E+4  -1.26176E+4
  -1.77910E+4  -1.26370E+4
  -1.75317E+4  -1.26291E+4
  -1.74562E+4  -1.25831E+4
  -1.72409E+4  -1.25689E+4
  -1.70680E+4  -1.25645E+4
  -1.68814E+4  -1.25290E+4
  -1.66759E+4  -1.24947E+4
  -1.65087E+4  -1.24075E+4
  -1.63497E+4  -1.23798E+4
  -1.61631E+4  -1.23062E+4
  -1.60295E+4  -1.23052E+4
  -1.58520E+4  -1.22765E+4
  -1.57047E+4  -1.21836E+4
  -1.55806E+4  -1.21908E+4
  -1.54448E+4  -1.21204E+4
  -1.53191E+4  -1.20706E+4
  -1.51802E+4  -1.20301E+4
  -1.50228E+4  -1.20430E+4
  -1.49198E+4  -1.19176E+4
  -1.48135E+4  -1.19429E+4
  -1.46595E+4  -1.18584E+4
  -1.45094E+4  -1.17929E+4
  -1.43294E+4  -1.16868E+4
  -1.42079E+4  -1.16515E+4
  -1.41771E+4  -1.15247E+4
  -1.40108E+4  -1.15252E+4
  -1.38752E+4  -1.14680E+4
  -1.37221E+4  -1.14202E+4
  -1.35486E+4  -1.13657E+4
  -1.34521E+4  -1.12903E+4
  -1.34475E+4  -1.12269E+4
  -1.32459E+4  -1.12006E+4
  -1.30506E+4  -1.11434E+4
  -1.29905E+4  -1.10951E+4
  -1.28829E+4  -1.09683E+4
  -1.27885E+4  -1.09908E+4
  -1.26698E+4  -1.09525E+4
  -1.25358E+4  -1.07787E+4
  -1.24748E+4  -1.07415E+4
  -1.23159E+4  -1.06925E+4
  -1.21942E+4  -1.06082E+4
  -1.20907E+4  -1.05295E+4
  -1.19537E+4  -1.04739E+4
  -1.18455E+4  -1.04655E+4
  -1.17563E+4  -1.03757E+4
  -1.15618E+4  -1.03656E+4
  -1.15673E+4  -1.02315E+4
  -1.13611E+4  -1.01178E+4
  -1.13491E+4  -1.00947E+4
  -1.11987E+4  -1.00879E+4
  -1.10840E+4  -1.00024E+4
  -1.10097E+4  -9.92377E+3
  -1.08528E+4  -9.77772E+3
  -1.07388E+4  -9.80292E+3
  -1.06663E+4  -9.79180E+3
  -1.05480E+4  -9.57381E+3
  -1.04601E+4  -9.65193E+3
  -1.03282E+4  -9.54445E+3
  -1.02160E+4  -9.48410E+3
  -1.00254E+4  -9.41169E+3
  -9.98570E+3  -9.36311E+3
  -9.91574E+3  -9.22458E+3
  -9.77501E+3  -9.17993E+3
  -9.57996E+3  -9.09878E+3
  -9.49857E+3  -9.14493E+3
  -9.40682E+3  -8.98200E+3
  -9.32833E+3  -8.96462E+3
  -9.24326E+3  -8.83795E+3
  -9.04720E+3  -8.79469E+3
  -9.00794E+3  -8.77291E+3
  -8.85671E+3  -8.71114E+3
  -8.73774E+3  -8.64564E+3
  -8.60937E+3  -8.62551E+3
  -8.46532E+3  -8.49905E+3
  -8.44254E+3  -8.40946E+3
  -8.32203E+3  -8.35210E+3
  -8.17640E+3  -8.26857E+3
  -8.04766E+3  -8.28325E+3
  -8.02608E+3  -8.12833E+3
  -7.79778E+3  -8.12153E+3
  -7.75226E+3  -8.08605E+3
  -7.63946E+3  -7.96343E+3
  -7.56348E+3  -7.94215E+3
  -7.52421E+3  -7.83788E+3
  -7.43383E+3  -7.72746E+3
  -7.23476E+3  -7.67680E+3
  -7.12168E+3  -7.66380E+3
  -7.01713E+3  -7.56199E+3
  -6.94055E+3  -7.52502E+3
  -6.81285E+3  -7.47613E+3
  -6.70938E+3  -7.36155E+3
  -6.62206E+3  -7.31315E+3
  -6.52594E+3  -7.30440E+3
  -6.44446E+3  -7.20093E+3
  -6.33511E+3  -7.15667E+3
  -6.22875E+3  -7.03941E+3
  -6.13575E+3  -7.04882E+3
  -5.99112E+3  -6.91094E+3
  -5.95403E+3  -6.89014E+3
  -5.83911E+3  -6.80862E+3
  -5.76879E+3  -6.76281E+3
  -5.74021E+3  -6.69135E+3
  -5.64930E+3  -6.64693E+3
  -5.50910E+3  -6.55951E+3
  -5.46940E+3  -6.46105E+3
  -5.41653E+3  -6.40120E+3
  -5.28074E+3  -6.40763E+3
  -5.24671E+3  -6.32712E+3
  -5.13044E+3  -6.17863E+3
  -5.04974E+3  -6.20806E+3
  -5.03736E+3  -6.09481E+3
  -4.92510E+3  -6.08661E+3
  -4.83476E+3  -5.99285E+3
  -4.76105E+3  -5.94482E+3
  -4.68801E+3  -5.84822E+3
  -4.63001E+3  -5.79231E+3
  -4.57971E+3  -5.72251E+3
  -4.54618E+3  -5.65687E+3
  -4.39387E+3  -5.64210E+3
  -4.37514E+3  -5.57173E+3
  -4.30027E+3  -5.52722E+3
  -4.22176E+3  -5.36768E+3
  -4.19597E+3  -5.39281E+3
  -4.05597E+3  -5.32149E+3
  -4.08056E+3  -5.30552E+3
  -3.98670E+3  -5.22954E+3
  -3.96094E+3  -5.15528E+3
  -3.88443E+3  -5.08417E+3
  -3.85379E+3  -5.02336E+3
  -3.78910E+3  -5.05883E+3
  -3.70823E+3  -4.89904E+3
  -3.68048E+3  -4.88161E+3
  -3.68636E+3  -4.85695E+3
  -3.59524E+3  -4.79650E+3
  -3.55231E+3  -4.64865E+3
  -3.43266E+3  -4.67105E+3
  -3.46151E+3  -4.62666E+3
  -3.39422E+3  -4.53479E+3
  -3.36086E+3  -4.47094E+3
  -3.28526E+3  -4.49567E+3
  -3.16535E+3  -4.41342E+3
  -3.20667E+3  -4.32363E+3
  -3.18295E+3  -4.28320E+3
  -3.05984E+3  -4.18407E+3
  -3.01745E+3  -4.15873E+3
  -2.98647E+3  -4.14832E+3
  -2.99928E+3  -4.06734E+3
  -2.96721E+3  -3.95672E+3
  -2.88306E+3  -3.93902E+3
  -2.83415E+3  -3.93814E+3
  -2.79036E+3  -3.89529E+3
  -2.71638E+3  -3.81021E+3
  -2.72253E+3  -3.81231E+3
  -2.69785E+3  -3.77027E+3
  -2.61136E+3  -3.68763E+3
  -2.56926E+3  -3.67318E+3
  -2.53052E+3  -3.57769E+3
  -2.52318E+3  -3.51786E+3
  -2.42631E+3  -3.46049E+3
  -2.46015E+3  -3.45991E+3
  -2.46019E+3  -3.40564E+3
  -2.34850E+3  -3.32582E+3
  -2.32018E+3  -3.28458E+3
  -2.24258E+3  -3.21793E+3
  -2.25651E+3  -3.24966E+3
  -2.17624E+3  -3.14763E+3
  -2.17563E+3  -3.19024E+3
  -2.11494E+3  -3.09924E+3
  -2.12260E+3  -3.01049E+3
  -2.04418E+3  -2.92457E+3
  -2.02687E+3  -2.91606E+3
  -2.07158E+3  -2.83630E+3
  -1.92550E+3  -2.86425E+3
  -1.96088E+3  -2.77199E+3
  -1.92617E+3  -2.82055E+3
  -1.87965E+3  -2.80138E+3
  -1.83979E+3  -2.74891E+3
  -1.84960E+3  -2.77438E+3
  -1.83149E+3  -2.63739E+3
  -1.80025E+3  -2.56448E+3
  -1.69363E+3  -2.59868E+3
  -1.74098E+3  -2.51281E+3
  -1.72212E+3  -2.51394E+3
  -1.59740E+3  -2.44264E+3
  -1.59916E+3  -2.42526E+3
  -1.61676E+3  -2.39059E+3
  -1.57883E+3  -2.37352E+3
  -1.47438E+3  -2.33954E+3
  -1.48334E+3  -2.31845E+3
  -1.43075E+3  -2.19391E+3
  -1.44072E+3  -2.22815E+3
  -1.38133E+3  -2.15896E+3
  -1.33426E+3  -2.13479E+3
  -1.32039E+3  -2.15960E+3
  -1.33454E+3  -2.11830E+3
  -1.37071E+3  -2.10029E+3
  -1.28902E+3  -1.99434E+3
  -1.27006E+3  -2.06599E+3
  -1.25623E+3  -1.97641E+3
  -1.23669E+3  -1.91593E+3
  -1.20013E+3  -1.89773E+3
  -1.18510E+3  -1.87263E+3
  -1.12034E+3  -1.85346E+3
  -1.15722E+3  -1.78634E+3
  -1.07744E+3  -1.77479E+3
  -1.01825E+3  -1.70800E+3
  -1.04938E+3  -1.69670E+3
  -1.05157E+3  -1.65090E+3
  -1.03238E+3  -1.65151E+3
  -9.30750E+2  -1.60151E+3
  -1.03433E+3  -1.60514E+3
  -8.67533E+2  -1.54630E+3
  -9.45392E+2  -1.49520E+3
  -8.94335E+2  -1.52559E+3
  -9.22049E+2  -1.47631E+3
  -8.47822E+2  -1.44974E+3
  -7.67151E+2  -1.46271E+3
  -7.85702E+2  -1.42370E+3
  -8.22120E+2  -1.37241E+3
  -7.96016E+2  -1.34082E+3
  -6.82101E+2  -1.29457E+3
  -6.80168E+2  -1.29521E+3
  -6.97993E+2  -1.25487E+3
  -6.73773E+2  -1.28438E+3
  -5.78240E+2  -1.21475E+3
  -5.67653E+2  -1.22758E+3
  -6.37774E+2  -1.22843E+3
  -5.98060E+2  -1.15511E+3
  -5.59873E+2  -1.14975E+3
  -5.98020E+2  -1.11114E+3
  -5.58756E+2  -1.08835E+3
  -5.26732E+2  -1.02347E+3
  -5.32514E+2  -1.03203E+3
  -4.45388E+2  -9.94134E+2
  -5.04849E+2  -9.80057E+2
  -4.19408E+2  -9.59669E+2
  -4.67297E+2  -9.22657E+2
