 
 $NMID
 ID=''
 FMTDAT='(2E13.5)'
 TRAMP=   1.00000E+0
 VOLUME=   1.00000E+0
 $END
  -2.02043E+4   9.64273E+3
  -5.73034E+4   8.80334E+3
  -5.49913E+4   1.84101E+4
  -5.08889E+4   1.69296E+4
  -5.36975E+4   1.60781E+4
  -5.30077E+4   1.85547E+4
  -5.13369E+4   1.73435E+4
  -5.22580E+4   1.66773E+4
  -5.16738E+4   1.80647E+4
  -5.03890E+4   1.71315E+4
  -5.07713E+4   1.63269E+4
  -5.01606E+4   1.72290E+4
  -4.92401E+4   1.66805E+4
  -4.98006E+4   1.57964E+4
  -4.94348E+4   1.61767E+4
  -4.86594E+4   1.56494E+4
  -4.90084E+4   1.52014E+4
  -4.87712E+4   1.54547E+4
  -4.81093E+4   1.52101E+4
  -4.84264E+4   1.48083E+4
  -4.80541E+4   1.50644E+4
  -4.76085E+4   1.49714E+4
  -4.76827E+4   1.48137E+4
  -4.76350E+4   1.48669E+4
  -4.70505E+4   1.46826E+4
  -4.70688E+4   1.45481E+4
  -4.69661E+4   1.45732E+4
  -4.65240E+4   1.42532E+4
  -4.63849E+4   1.39170E+4
  -4.60977E+4   1.38628E+4
  -4.56307E+4   1.38446E+4
  -4.55939E+4   1.36956E+4
  -4.53415E+4   1.35987E+4
  -4.49211E+4   1.33598E+4
  -4.46307E+4   1.33451E+4
  -4.43507E+4   1.32972E+4
  -4.39689E+4   1.30127E+4
  -4.37136E+4   1.29501E+4
  -4.35025E+4   1.29004E+4
  -4.31479E+4   1.28392E+4
  -4.30062E+4   1.26500E+4
  -4.28705E+4   1.24734E+4
  -4.25820E+4   1.20371E+4
  -4.22808E+4   1.20189E+4
  -4.20631E+4   1.19007E+4
  -4.18364E+4   1.16476E+4
  -4.16419E+4   1.14832E+4
  -4.13698E+4   1.14071E+4
  -4.11659E+4   1.12644E+4
  -4.09974E+4   1.10157E+4
  -4.08051E+4   1.08945E+4
  -4.05801E+4   1.07119E+4
  -4.03057E+4   1.06006E+4
  -4.01261E+4   1.05800E+4
  -4.00459E+4   1.04136E+4
  -3.97624E+4   1.02223E+4
  -3.97143E+4   1.01931E+4
  -3.96422E+4   1.00355E+4
  -3.93117E+4   9.76292E+3
  -3.90565E+4   9.71266E+3
  -3.88332E+4   9.59388E+3
  -3.86624E+4   9.45830E+3
  -3.84696E+4   9.36577E+3
  -3.83827E+4   9.16295E+3
  -3.81954E+4   8.95391E+3
  -3.79489E+4   8.92264E+3
  -3.78054E+4   8.81796E+3
  -3.77062E+4   8.62582E+3
  -3.74538E+4   8.41986E+3
  -3.72030E+4   8.28859E+3
  -3.70124E+4   8.12810E+3
  -3.67944E+4   7.98670E+3
  -3.65786E+4   7.84574E+3
  -3.63077E+4   7.71149E+3
  -3.60605E+4   7.62277E+3
  -3.59023E+4   7.54826E+3
  -3.56498E+4   7.46137E+3
  -3.54414E+4   7.30522E+3
  -3.53070E+4   7.25381E+3
  -3.49975E+4   7.20358E+3
  -3.48702E+4   7.04161E+3
  -3.47124E+4   6.90187E+3
  -3.44375E+4   6.88980E+3
  -3.42299E+4   6.75634E+3
  -3.42009E+4   6.57875E+3
  -3.39170E+4   6.42945E+3
  -3.36843E+4   6.30892E+3
  -3.34348E+4   6.24416E+3
  -3.32890E+4   6.16329E+3
  -3.31061E+4   6.06935E+3
  -3.29558E+4   6.05808E+3
  -3.27695E+4   6.01510E+3
  -3.25682E+4   5.97766E+3
  -3.23999E+4   5.98396E+3
  -3.22340E+4   5.86569E+3
  -3.20831E+4   5.77249E+3
  -3.18900E+4   5.74462E+3
  -3.17670E+4   5.74841E+3
  -3.16199E+4   5.69264E+3
  -3.14481E+4   5.58303E+3
  -3.12968E+4   5.51561E+3
  -3.10666E+4   5.49880E+3
  -3.09659E+4   5.58903E+3
  -3.08557E+4   5.59125E+3
  -3.07061E+4   5.50819E+3
  -3.05783E+4   5.44984E+3
  -3.04603E+4   5.45430E+3
  -3.03086E+4   5.47393E+3
  -3.02283E+4   5.38248E+3
  -2.99359E+4   5.33977E+3
  -2.98069E+4   5.27894E+3
  -2.96280E+4   5.39275E+3
  -2.95775E+4   5.36286E+3
  -2.94519E+4   5.31945E+3
  -2.93580E+4   5.39147E+3
  -2.92441E+4   5.22794E+3
  -2.90465E+4   5.19021E+3
  -2.88988E+4   5.19376E+3
  -2.87077E+4   5.16084E+3
  -2.86471E+4   5.13997E+3
  -2.85020E+4   5.13199E+3
  -2.83416E+4   5.13419E+3
  -2.82525E+4   5.08396E+3
  -2.80689E+4   5.07284E+3
  -2.78614E+4   5.03521E+3
  -2.77587E+4   5.05019E+3
  -2.75553E+4   4.94710E+3
  -2.73560E+4   4.99483E+3
  -2.72099E+4   4.96990E+3
  -2.70703E+4   4.96023E+3
  -2.69235E+4   4.92440E+3
  -2.67785E+4   4.90911E+3
  -2.66024E+4   4.95143E+3
  -2.64425E+4   4.87274E+3
  -2.63145E+4   4.96945E+3
  -2.62412E+4   4.93265E+3
  -2.59747E+4   4.82232E+3
  -2.57954E+4   4.82019E+3
  -2.56492E+4   4.80021E+3
  -2.54637E+4   4.84573E+3
  -2.53795E+4   4.86034E+3
  -2.50872E+4   4.83008E+3
  -2.49939E+4   4.79578E+3
  -2.48825E+4   4.86201E+3
  -2.46475E+4   4.75743E+3
  -2.44420E+4   4.79091E+3
  -2.43023E+4   4.83161E+3
  -2.41630E+4   4.81638E+3
  -2.39909E+4   4.86927E+3
  -2.38143E+4   4.82440E+3
  -2.36632E+4   4.72181E+3
  -2.35199E+4   4.71701E+3
  -2.32879E+4   4.75726E+3
  -2.31182E+4   4.82285E+3
  -2.29030E+4   4.83216E+3
  -2.27445E+4   4.84223E+3
  -2.25679E+4   4.84022E+3
  -2.24566E+4   4.81597E+3
  -2.22693E+4   4.79159E+3
  -2.20381E+4   4.84645E+3
  -2.18924E+4   4.89670E+3
  -2.16996E+4   4.78558E+3
  -2.15234E+4   4.73666E+3
  -2.13903E+4   4.80993E+3
  -2.11576E+4   4.77656E+3
  -2.10915E+4   4.85467E+3
  -2.08876E+4   4.77122E+3
  -2.07190E+4   4.78764E+3
  -2.05122E+4   4.87683E+3
  -2.03551E+4   4.85286E+3
  -2.01856E+4   4.82812E+3
  -2.00441E+4   4.83328E+3
  -1.98390E+4   4.77764E+3
  -1.97070E+4   4.77199E+3
  -1.95034E+4   4.82862E+3
  -1.93185E+4   4.82091E+3
  -1.92010E+4   4.79184E+3
  -1.89296E+4   4.80733E+3
  -1.88567E+4   4.77570E+3
  -1.87217E+4   4.72604E+3
  -1.85368E+4   4.77218E+3
  -1.83351E+4   4.67463E+3
  -1.82346E+4   4.70123E+3
  -1.79970E+4   4.64905E+3
  -1.78189E+4   4.67517E+3
  -1.77054E+4   4.61374E+3
  -1.75806E+4   4.58993E+3
  -1.74262E+4   4.51935E+3
  -1.72738E+4   4.44047E+3
  -1.70706E+4   4.36775E+3
  -1.67693E+4   4.42387E+3
  -1.66780E+4   4.36899E+3
  -1.64895E+4   4.38566E+3
  -1.64540E+4   4.30243E+3
  -1.62392E+4   4.35727E+3
  -1.60355E+4   4.27674E+3
  -1.58976E+4   4.25938E+3
  -1.56272E+4   4.18061E+3
  -1.55298E+4   4.16730E+3
  -1.53965E+4   4.14818E+3
  -1.52288E+4   4.14872E+3
  -1.51294E+4   3.99333E+3
  -1.49530E+4   3.94372E+3
  -1.48217E+4   3.92521E+3
  -1.46038E+4   3.91163E+3
  -1.44691E+4   3.93207E+3
  -1.42901E+4   3.88494E+3
  -1.42093E+4   3.80120E+3
  -1.40283E+4   3.80189E+3
  -1.38389E+4   3.79357E+3
  -1.37694E+4   3.77492E+3
  -1.36778E+4   3.72485E+3
  -1.34869E+4   3.64969E+3
  -1.33044E+4   3.59350E+3
  -1.31396E+4   3.59160E+3
  -1.29633E+4   3.56922E+3
  -1.29849E+4   3.46784E+3
  -1.28089E+4   3.43638E+3
  -1.25907E+4   3.45190E+3
  -1.25129E+4   3.32200E+3
  -1.23502E+4   3.34574E+3
  -1.21846E+4   3.24164E+3
  -1.20905E+4   3.29122E+3
  -1.19745E+4   3.18063E+3
  -1.18519E+4   3.11514E+3
  -1.16919E+4   3.09456E+3
  -1.15596E+4   3.00720E+3
  -1.14418E+4   3.00350E+3
  -1.13693E+4   2.95673E+3
  -1.12182E+4   2.88163E+3
  -1.11096E+4   2.84629E+3
  -1.09963E+4   2.81253E+3
  -1.08416E+4   2.78981E+3
  -1.07135E+4   2.62152E+3
  -1.05771E+4   2.67959E+3
  -1.05134E+4   2.59503E+3
  -1.03173E+4   2.65764E+3
  -1.03355E+4   2.54707E+3
  -1.01808E+4   2.49321E+3
  -1.01072E+4   2.38296E+3
  -9.89612E+3   2.42692E+3
  -9.82337E+3   2.41909E+3
  -9.74904E+3   2.34235E+3
  -9.61356E+3   2.27927E+3
  -9.53748E+3   2.23011E+3
  -9.37815E+3   2.18263E+3
  -9.34632E+3   2.10107E+3
  -9.27708E+3   2.09513E+3
  -9.08680E+3   2.08170E+3
  -9.02223E+3   1.92181E+3
  -9.02329E+3   1.97730E+3
  -8.90122E+3   1.83908E+3
  -8.79043E+3   1.83930E+3
  -8.66967E+3   1.77940E+3
  -8.57999E+3   1.75223E+3
  -8.51844E+3   1.72969E+3
  -8.39863E+3   1.67031E+3
  -8.27293E+3   1.59021E+3
  -8.26771E+3   1.55863E+3
  -8.20595E+3   1.53812E+3
  -8.15305E+3   1.49520E+3
  -8.03101E+3   1.37909E+3
  -7.99504E+3   1.38394E+3
  -7.81747E+3   1.36532E+3
  -7.84235E+3   1.27932E+3
  -7.75274E+3   1.16315E+3
  -7.66869E+3   1.16001E+3
  -7.58344E+3   1.18055E+3
  -7.50285E+3   1.12672E+3
  -7.47649E+3   1.03449E+3
  -7.34054E+3   9.62008E+2
  -7.33932E+3   9.27564E+2
  -7.29360E+3   9.48354E+2
  -7.17617E+3   8.72263E+2
  -7.14786E+3   8.16889E+2
  -7.02662E+3   8.62764E+2
  -6.98901E+3   7.95441E+2
  -6.94193E+3   7.08193E+2
  -6.94277E+3   7.29872E+2
  -6.78655E+3   6.99638E+2
  -6.74893E+3   6.56883E+2
  -6.72379E+3   6.24677E+2
  -6.65318E+3   5.35195E+2
  -6.64074E+3   5.02910E+2
  -6.47238E+3   4.31092E+2
  -6.48736E+3   4.62407E+2
  -6.46008E+3   4.06787E+2
  -6.39475E+3   3.30578E+2
  -6.31986E+3   3.55785E+2
  -6.28274E+3   2.68095E+2
  -6.24073E+3   2.59716E+2
  -6.16834E+3   2.38355E+2
  -6.13268E+3   2.58320E+2
  -6.03845E+3   1.98397E+2
  -6.00887E+3   1.96695E+2
  -6.00881E+3   1.10154E+2
  -6.00412E+3   5.94686E+1
  -5.93667E+3  -5.66367E+1
  -5.86141E+3  -3.06255E+1
  -5.84431E+3  -6.16976E+0
  -5.83340E+3  -9.97432E+0
  -5.80767E+3  -2.72520E+1
  -5.68123E+3  -2.58639E+1
  -5.73418E+3  -1.40684E+2
  -5.67646E+3  -1.16290E+2
  -5.65049E+3  -1.91529E+2
  -5.58524E+3  -2.27720E+2
  -5.51605E+3  -1.04149E+2
  -5.53200E+3  -1.67386E+2
  -5.53968E+3  -2.62425E+2
  -5.45171E+3  -2.45167E+2
  -5.45642E+3  -3.16523E+2
  -5.32711E+3  -2.60603E+2
  -5.28150E+3  -3.64786E+2
  -5.30469E+3  -3.71671E+2
  -5.20174E+3  -3.83184E+2
  -5.26314E+3  -4.13710E+2
  -5.20333E+3  -3.76617E+2
  -5.16397E+3  -4.69516E+2
  -5.13994E+3  -4.39480E+2
  -5.07799E+3  -4.35151E+2
  -5.06270E+3  -4.11151E+2
  -4.98876E+3  -4.71375E+2
  -5.05616E+3  -4.87885E+2
  -4.98651E+3  -4.96960E+2
  -4.97302E+3  -5.12647E+2
  -4.95805E+3  -5.12426E+2
  -4.89854E+3  -4.72856E+2
  -4.84712E+3  -5.08010E+2
  -4.86462E+3  -5.20250E+2
  -4.78845E+3  -5.57085E+2
  -4.82915E+3  -5.37424E+2
  -4.82485E+3  -5.13832E+2
  -4.70401E+3  -6.06198E+2
  -4.76016E+3  -6.07482E+2
  -4.66701E+3  -5.94521E+2
  -4.63512E+3  -5.76150E+2
  -4.63896E+3  -5.97032E+2
  -4.67376E+3  -6.16089E+2
  -4.63435E+3  -6.34515E+2
  -4.48206E+3  -5.64177E+2
  -4.58851E+3  -6.22033E+2
  -4.53254E+3  -6.13057E+2
  -4.50618E+3  -5.94677E+2
  -4.46779E+3  -6.54783E+2
  -4.53041E+3  -6.58961E+2
  -4.37969E+3  -6.31702E+2
  -4.40928E+3  -6.55595E+2
  -4.39361E+3  -5.95405E+2
  -4.34740E+3  -6.01939E+2
  -4.30155E+3  -6.58837E+2
  -4.28146E+3  -6.33488E+2
  -4.30625E+3  -6.36135E+2
  -4.24042E+3  -6.70773E+2
  -4.20011E+3  -6.33722E+2
  -4.18300E+3  -7.32619E+2
  -4.22531E+3  -6.16928E+2
  -4.14453E+3  -6.39918E+2
  -4.11184E+3  -6.54032E+2
  -4.08507E+3  -7.12529E+2
  -4.05382E+3  -6.69201E+2
  -4.04877E+3  -6.38727E+2
  -4.06033E+3  -6.45452E+2
  -4.03247E+3  -5.99201E+2
  -3.93594E+3  -5.65650E+2
  -3.97285E+3  -6.45769E+2
  -3.91915E+3  -6.35403E+2
