 
 $NMID
 ID=''
 FMTDAT='(2E13.5)'
 TRAMP=   1.00000E+0
 VOLUME=   1.00000E+0
 $END
  -5.44291E+3   1.86619E+4
  -2.74333E+4   4.20268E+4
  -1.99593E+4   4.57119E+4
  -1.88126E+4   4.18466E+4
  -2.09769E+4   4.26719E+4
  -1.93826E+4   4.32846E+4
  -1.95042E+4   4.10638E+4
  -2.10241E+4   4.09301E+4
  -2.02522E+4   4.11137E+4
  -2.05216E+4   3.95870E+4
  -2.16910E+4   3.92764E+4
  -2.11604E+4   3.92649E+4
  -2.11546E+4   3.82634E+4
  -2.21161E+4   3.79925E+4
  -2.18080E+4   3.77374E+4
  -2.17893E+4   3.67035E+4
  -2.24483E+4   3.64748E+4
  -2.20875E+4   3.62453E+4
  -2.21103E+4   3.54737E+4
  -2.26310E+4   3.52010E+4
  -2.23366E+4   3.49447E+4
  -2.21711E+4   3.43424E+4
  -2.26436E+4   3.41327E+4
  -2.26301E+4   3.38835E+4
  -2.25342E+4   3.32271E+4
  -2.28473E+4   3.30037E+4
  -2.29480E+4   3.27292E+4
  -2.31318E+4   3.20204E+4
  -2.35184E+4   3.16294E+4
  -2.35197E+4   3.12869E+4
  -2.35001E+4   3.07582E+4
  -2.38415E+4   3.04853E+4
  -2.39756E+4   3.00829E+4
  -2.40151E+4   2.93455E+4
  -2.41640E+4   2.90088E+4
  -2.41612E+4   2.87002E+4
  -2.41757E+4   2.81916E+4
  -2.42172E+4   2.78381E+4
  -2.42212E+4   2.75605E+4
  -2.42373E+4   2.71772E+4
  -2.43317E+4   2.67200E+4
  -2.45184E+4   2.63826E+4
  -2.46115E+4   2.58513E+4
  -2.45394E+4   2.54547E+4
  -2.45249E+4   2.50954E+4
  -2.45631E+4   2.46617E+4
  -2.46052E+4   2.42975E+4
  -2.46182E+4   2.39593E+4
  -2.46815E+4   2.34195E+4
  -2.46811E+4   2.30355E+4
  -2.47573E+4   2.25905E+4
  -2.46568E+4   2.22148E+4
  -2.46487E+4   2.17331E+4
  -2.45704E+4   2.15280E+4
  -2.45444E+4   2.10790E+4
  -2.45347E+4   2.06820E+4
  -2.45167E+4   2.02974E+4
  -2.44042E+4   1.98589E+4
  -2.43949E+4   1.93431E+4
  -2.42589E+4   1.89782E+4
  -2.41064E+4   1.86421E+4
  -2.39340E+4   1.83550E+4
  -2.38970E+4   1.80960E+4
  -2.38823E+4   1.77058E+4
  -2.37642E+4   1.74203E+4
  -2.36012E+4   1.70545E+4
  -2.35393E+4   1.67982E+4
  -2.34593E+4   1.65100E+4
  -2.33426E+4   1.61547E+4
  -2.32905E+4   1.58010E+4
  -2.31708E+4   1.55808E+4
  -2.30854E+4   1.52871E+4
  -2.29899E+4   1.49675E+4
  -2.27662E+4   1.47207E+4
  -2.27519E+4   1.45002E+4
  -2.26218E+4   1.43057E+4
  -2.25116E+4   1.40117E+4
  -2.24283E+4   1.37663E+4
  -2.22559E+4   1.35323E+4
  -2.21538E+4   1.34177E+4
  -2.20695E+4   1.31970E+4
  -2.19329E+4   1.30328E+4
  -2.18561E+4   1.27750E+4
  -2.16735E+4   1.25596E+4
  -2.17155E+4   1.22945E+4
  -2.16021E+4   1.21098E+4
  -2.15414E+4   1.18960E+4
  -2.13218E+4   1.17122E+4
  -2.13229E+4   1.14969E+4
  -2.12272E+4   1.13736E+4
  -2.11505E+4   1.11326E+4
  -2.10594E+4   1.09908E+4
  -2.09617E+4   1.07626E+4
  -2.09370E+4   1.06162E+4
  -2.08424E+4   1.04410E+4
  -2.07450E+4   1.01236E+4
  -2.06289E+4   9.96320E+3
  -2.05578E+4   9.86932E+3
  -2.05141E+4   9.64927E+3
  -2.04225E+4   9.41150E+3
  -2.02810E+4   9.24448E+3
  -2.01207E+4   9.00982E+3
  -2.00346E+4   8.90234E+3
  -2.00047E+4   8.67019E+3
  -1.99724E+4   8.44250E+3
  -1.98376E+4   8.19618E+3
  -1.96829E+4   8.01823E+3
  -1.96382E+4   7.85456E+3
  -1.95039E+4   7.58582E+3
  -1.93176E+4   7.35238E+3
  -1.92043E+4   7.19298E+3
  -1.91474E+4   7.03503E+3
  -1.90344E+4   6.86949E+3
  -1.89016E+4   6.63383E+3
  -1.87898E+4   6.42702E+3
  -1.86535E+4   6.16541E+3
  -1.85559E+4   5.98655E+3
  -1.83787E+4   5.74220E+3
  -1.82767E+4   5.60042E+3
  -1.80811E+4   5.42937E+3
  -1.79611E+4   5.22065E+3
  -1.78455E+4   5.03759E+3
  -1.77649E+4   4.88863E+3
  -1.76322E+4   4.63094E+3
  -1.73944E+4   4.47060E+3
  -1.72448E+4   4.28236E+3
  -1.71048E+4   4.09713E+3
  -1.68500E+4   3.97830E+3
  -1.67584E+4   3.80393E+3
  -1.66112E+4   3.54677E+3
  -1.64724E+4   3.41822E+3
  -1.63027E+4   3.27254E+3
  -1.60974E+4   3.15296E+3
  -1.59573E+4   3.01050E+3
  -1.58084E+4   2.82051E+3
  -1.56435E+4   2.64161E+3
  -1.54469E+4   2.48757E+3
  -1.53129E+4   2.30455E+3
  -1.51650E+4   2.25227E+3
  -1.50226E+4   2.13858E+3
  -1.48340E+4   1.97237E+3
  -1.46003E+4   1.85104E+3
  -1.45384E+4   1.75304E+3
  -1.42954E+4   1.70023E+3
  -1.42317E+4   1.51788E+3
  -1.40437E+4   1.33395E+3
  -1.39660E+4   1.21937E+3
  -1.38000E+4   1.10697E+3
  -1.36365E+4   1.02874E+3
  -1.34813E+4   9.16205E+2
  -1.33560E+4   7.57366E+2
  -1.31664E+4   6.74116E+2
  -1.30222E+4   5.50126E+2
  -1.29447E+4   4.45818E+2
  -1.27308E+4   3.14540E+2
  -1.26116E+4   2.31234E+2
  -1.24446E+4   2.07731E+2
  -1.23083E+4  -1.44113E+1
  -1.21589E+4  -1.40472E+2
  -1.20533E+4  -2.35916E+2
  -1.19500E+4  -3.28208E+2
  -1.17477E+4  -4.38739E+2
  -1.15789E+4  -5.41888E+2
  -1.15245E+4  -6.97685E+2
  -1.13418E+4  -7.54933E+2
  -1.11985E+4  -9.02659E+2
  -1.09913E+4  -9.46981E+2
  -1.08638E+4  -1.04693E+3
  -1.07570E+4  -1.16209E+3
  -1.05891E+4  -1.23199E+3
  -1.04208E+4  -1.38892E+3
  -1.02442E+4  -1.47252E+3
  -1.01757E+4  -1.53401E+3
  -9.89688E+3  -1.59702E+3
  -9.85953E+3  -1.72586E+3
  -9.68662E+3  -1.78881E+3
  -9.57592E+3  -1.82892E+3
  -9.38197E+3  -1.86809E+3
  -9.29759E+3  -1.98001E+3
  -9.14477E+3  -2.11475E+3
  -8.97394E+3  -2.15986E+3
  -8.75764E+3  -2.17881E+3
  -8.63437E+3  -2.27565E+3
  -8.54056E+3  -2.33111E+3
  -8.38205E+3  -2.42080E+3
  -8.19772E+3  -2.40539E+3
  -8.02887E+3  -2.48372E+3
  -7.89996E+3  -2.52551E+3
  -7.70240E+3  -2.62131E+3
  -7.58570E+3  -2.65254E+3
  -7.41500E+3  -2.62826E+3
  -7.35907E+3  -2.68302E+3
  -7.13323E+3  -2.70342E+3
  -7.03409E+3  -2.76534E+3
  -6.83959E+3  -2.76215E+3
  -6.71696E+3  -2.79359E+3
  -6.59941E+3  -2.81629E+3
  -6.46585E+3  -2.84862E+3
  -6.35695E+3  -2.84282E+3
  -6.28288E+3  -2.87095E+3
  -6.15196E+3  -2.89926E+3
  -6.00605E+3  -2.98468E+3
  -5.85844E+3  -2.95402E+3
  -5.81207E+3  -2.97657E+3
  -5.68821E+3  -2.95423E+3
  -5.56445E+3  -3.01292E+3
  -5.48914E+3  -2.99292E+3
  -5.29558E+3  -3.02723E+3
  -5.22666E+3  -2.95686E+3
  -5.17048E+3  -2.99526E+3
  -5.04482E+3  -3.04782E+3
  -4.84426E+3  -3.04535E+3
  -4.76811E+3  -3.01344E+3
  -4.72482E+3  -3.04824E+3
  -4.62898E+3  -3.07723E+3
  -4.51054E+3  -3.07427E+3
  -4.41174E+3  -3.04078E+3
  -4.33488E+3  -3.10140E+3
  -4.18861E+3  -3.03743E+3
  -4.12139E+3  -3.05653E+3
  -3.97672E+3  -3.02126E+3
  -3.93269E+3  -3.08919E+3
  -3.87121E+3  -3.04061E+3
  -3.77855E+3  -3.08732E+3
  -3.69877E+3  -3.08070E+3
  -3.59918E+3  -3.09359E+3
  -3.47426E+3  -3.05500E+3
  -3.38808E+3  -3.02814E+3
  -3.30658E+3  -3.00067E+3
  -3.20150E+3  -3.04416E+3
  -3.18892E+3  -2.97068E+3
  -3.08535E+3  -2.93726E+3
  -2.96783E+3  -3.02694E+3
  -2.91075E+3  -2.94080E+3
  -2.80884E+3  -2.91571E+3
  -2.71359E+3  -2.89063E+3
  -2.63019E+3  -2.94371E+3
  -2.61727E+3  -2.94695E+3
  -2.53039E+3  -2.85143E+3
  -2.37030E+3  -2.85693E+3
  -2.38947E+3  -2.83014E+3
  -2.29758E+3  -2.83695E+3
  -2.23068E+3  -2.80302E+3
  -2.14759E+3  -2.85809E+3
  -2.09172E+3  -2.74595E+3
  -2.02537E+3  -2.70406E+3
  -1.98260E+3  -2.70139E+3
  -1.87013E+3  -2.72655E+3
  -1.87306E+3  -2.71203E+3
  -1.84756E+3  -2.70921E+3
  -1.72662E+3  -2.58903E+3
  -1.70661E+3  -2.56429E+3
  -1.59203E+3  -2.57052E+3
  -1.54808E+3  -2.47977E+3
  -1.50423E+3  -2.58261E+3
  -1.43529E+3  -2.50008E+3
  -1.46686E+3  -2.51707E+3
  -1.42276E+3  -2.46387E+3
  -1.29439E+3  -2.50674E+3
  -1.32184E+3  -2.45782E+3
  -1.31429E+3  -2.39688E+3
  -1.27121E+3  -2.40857E+3
  -1.16964E+3  -2.33302E+3
  -1.07416E+3  -2.28226E+3
  -1.04142E+3  -2.28263E+3
  -1.09860E+3  -2.30586E+3
  -1.00531E+3  -2.26083E+3
  -9.44292E+2  -2.16805E+3
  -9.28954E+2  -2.21495E+3
  -9.69171E+2  -2.18251E+3
  -8.05964E+2  -2.21670E+3
  -8.27584E+2  -2.18170E+3
  -7.86959E+2  -2.08999E+3
  -7.66213E+2  -2.11447E+3
  -7.55854E+2  -2.05664E+3
  -7.18835E+2  -2.10208E+3
  -6.93166E+2  -2.07647E+3
  -7.13410E+2  -2.06121E+3
  -6.25897E+2  -1.98207E+3
  -6.12964E+2  -2.01851E+3
  -5.63304E+2  -1.98068E+3
  -5.57056E+2  -1.97562E+3
  -5.18805E+2  -1.97362E+3
  -4.29672E+2  -1.99991E+3
  -4.11441E+2  -1.95105E+3
  -3.54172E+2  -1.91365E+3
  -3.69638E+2  -1.84472E+3
  -3.65696E+2  -1.90579E+3
  -3.73487E+2  -1.85717E+3
  -2.98913E+2  -1.76669E+3
  -2.76255E+2  -1.84387E+3
  -2.71168E+2  -1.84780E+3
  -2.28872E+2  -1.78397E+3
  -2.09130E+2  -1.73811E+3
  -2.42745E+2  -1.75873E+3
  -1.84738E+2  -1.75303E+3
  -8.44451E+1  -1.77267E+3
  -9.59783E+1  -1.70906E+3
  -3.57463E+1  -1.63956E+3
  -8.05820E+1  -1.67555E+3
  -5.96170E+1  -1.63315E+3
  -1.94098E+1  -1.65866E+3
  -4.79587E+1  -1.62364E+3
   2.06728E+0  -1.57366E+3
   4.59525E+1  -1.50985E+3
  -1.03510E+1  -1.55745E+3
  -1.00387E+1  -1.51849E+3
   5.49085E+1  -1.45392E+3
   9.06223E+1  -1.46144E+3
   6.99695E+1  -1.43552E+3
   1.00170E+2  -1.52475E+3
   1.33900E+2  -1.43064E+3
   1.58489E+2  -1.36728E+3
   1.71028E+2  -1.34680E+3
   1.75890E+2  -1.32865E+3
   1.54889E+2  -1.29573E+3
   1.45309E+2  -1.28936E+3
   1.76041E+2  -1.29860E+3
   1.63471E+2  -1.25889E+3
   1.98066E+2  -1.23795E+3
   1.61585E+2  -1.24303E+3
   2.76746E+2  -1.18871E+3
   3.01072E+2  -1.22816E+3
   2.53004E+2  -1.18061E+3
   2.75059E+2  -1.15434E+3
   2.29401E+2  -1.08685E+3
   2.60715E+2  -1.18313E+3
   2.50224E+2  -1.11157E+3
   2.27106E+2  -1.10002E+3
   2.84523E+2  -1.13173E+3
   2.41605E+2  -1.12489E+3
   2.88917E+2  -1.11696E+3
   2.55534E+2  -1.04721E+3
   3.77903E+2  -1.06255E+3
   3.13908E+2  -1.05540E+3
   3.15343E+2  -1.04471E+3
   3.39918E+2  -1.01694E+3
   2.84414E+2  -1.03472E+3
   2.92333E+2  -9.89760E+2
   3.22917E+2  -1.02052E+3
   3.47959E+2  -9.56664E+2
   3.61110E+2  -9.95230E+2
   3.57889E+2  -9.89554E+2
   3.87902E+2  -9.89636E+2
   3.14769E+2  -9.76021E+2
   3.51749E+2  -9.46121E+2
   4.16123E+2  -8.96212E+2
   3.81161E+2  -8.92326E+2
   3.94967E+2  -8.53548E+2
   3.74119E+2  -8.94223E+2
   3.95757E+2  -8.67235E+2
   4.02854E+2  -8.50306E+2
   3.74901E+2  -8.11794E+2
   3.79998E+2  -8.80617E+2
   4.13306E+2  -8.10302E+2
   3.38566E+2  -8.56994E+2
   4.14041E+2  -7.65782E+2
   3.40174E+2  -8.75100E+2
   4.37690E+2  -8.40950E+2
   4.30528E+2  -7.95020E+2
   3.44802E+2  -7.54667E+2
   3.90859E+2  -7.20405E+2
   3.66462E+2  -7.49125E+2
   4.48850E+2  -7.47532E+2
   4.44779E+2  -8.02571E+2
   4.37130E+2  -7.04425E+2
   4.80412E+2  -6.75803E+2
