 
 $NMID
 ID=''
 FMTDAT='(2E13.5)'
 TRAMP=   1.00000E+0
 VOLUME=   1.00000E+0
 $END
   4.77119E+2   5.02474E+2
  -8.09004E+2   2.05442E+3
   4.04173E+3  -8.22582E+2
   1.51075E+3  -2.39047E+3
  -1.34108E+3  -4.89440E+3
  -8.64691E+2  -1.01840E+2
  -8.85262E+2   1.55263E+3
  -1.14804E+3  -3.50581E+2
  -3.76050E+0   2.31291E+3
  -7.27899E+2  -1.22590E+3
   2.72679E+3  -3.95469E+3
   4.53633E+3  -2.17987E+3
   9.84274E+2   2.87157E+3
  -5.50357E+3   1.46984E+1
  -2.33578E+3  -3.81435E+3
   1.44495E+3  -2.85530E+3
   3.30576E+3   2.70437E+2
   2.82526E+1   3.52462E+3
  -3.31551E+3   1.97554E+2
   9.51667E+2  -3.11095E+3
   1.58583E+3   1.99095E+2
   5.60743E+2   6.16803E+2
  -4.07838E+3   2.89803E+2
   5.08586E+2  -5.65269E+3
   1.55646E+3  -4.99870E+2
   3.47145E+2   4.28788E+3
  -4.61611E+3   4.34880E+3
  -3.94510E+3   1.17435E+3
  -4.57111E+2  -5.73910E+3
   5.54902E+3  -1.54180E+3
   5.10407E+3   8.34706E+3
  -4.96984E+3   6.09028E+3
  -6.82031E+3  -1.91590E+3
   2.03307E+3  -7.23670E+2
  -1.68067E+3   1.57962E+3
  -2.95203E+3  -2.95228E+3
   3.30131E+3  -3.20596E+3
   3.29122E+3   6.03936E+3
   8.69268E+2   6.62386E+3
  -2.26514E+3   3.04804E+3
  -1.04035E+3   5.12576E+3
  -5.62021E+3   4.07151E+2
  -9.46398E+2  -9.94340E+3
   7.38054E+3  -3.24134E+3
   5.61460E+3   2.15109E+3
   1.94021E+3   8.55663E+2
   4.89858E+3   2.00790E+3
   2.25751E+3   2.24490E+3
  -3.44058E+2   2.36761E+3
  -1.21921E+3   9.00196E+2
  -1.40263E+3  -3.10961E+3
   2.62597E+3  -5.48525E+3
   4.82510E+3  -7.00865E+2
   4.88967E+2   9.32187E+2
  -9.81077E+2   5.58395E+2
  -1.08686E+3   2.76812E+2
  -3.95274E+3  -5.68780E+0
  -3.83561E+3  -4.35378E+3
   5.05437E+2  -7.84910E+3
   5.29609E+3  -4.75531E+3
   6.51098E+3  -2.12932E+3
   4.89010E+3   1.62318E+3
   3.02294E+1   4.08826E+3
  -2.31005E+3  -7.49210E+2
  -2.98802E+2  -1.09645E+3
   3.59113E+3   1.51600E+3
  -1.16517E+3   6.55246E+3
  -6.40846E+3   4.85437E+1
  -4.23765E+3  -3.53968E+3
  -1.62935E+3  -1.97699E+3
  -3.06734E+3  -1.05504E+3
  -4.40138E+3  -1.27296E+3
  -2.47484E+3  -2.14306E+3
   4.05149E+2  -2.17738E+3
   1.33816E+3  -2.61190E+3
  -6.19586E+2  -4.53880E+2
  -9.25518E+2  -3.02225E+3
   1.72639E+3  -1.96270E+3
   4.64886E+3   1.18338E+3
   1.45906E+3   3.74915E+3
   8.46118E+2   2.57184E+3
  -2.20244E+3   2.36225E+2
   1.87265E+3   6.06761E+2
   9.66923E+2   4.14676E+3
  -3.74687E+3   3.38790E+3
  -3.77053E+3   3.48447E+2
  -4.15526E+2  -3.91468E+3
   3.29061E+3  -3.49687E+3
   4.54005E+3   5.12462E+2
  -1.31828E+3   2.78742E+3
  -1.30774E+3   8.17065E+2
  -1.93305E+3  -1.52004E+3
  -1.12211E+2   4.12997E+3
  -4.47107E+3   3.37378E+3
  -4.81977E+3  -1.57353E+3
   1.97148E+3  -4.36546E+3
   4.54914E+3  -4.93547E+2
   1.69643E+3   4.68415E+3
  -4.13180E+3   2.67918E+3
  -4.93333E+3  -3.48353E+3
   1.85153E+3  -5.65383E+3
   4.72549E+3   7.21522E+2
   2.73988E+3   6.31142E+3
  -1.23807E+3   3.88575E+3
  -1.96549E+3   5.18577E+1
   3.02277E+2  -1.09153E+3
  -3.11209E+2   6.18491E+2
  -2.95741E+3   9.22454E+2
  -3.36672E+2  -3.97729E+3
   1.91225E+3  -3.72373E+3
   4.78714E+3  -7.50969E+2
   7.62792E+2   2.22629E+3
   1.35838E+3   1.48728E+3
  -9.01013E+2   1.09274E+3
  -2.17916E+3   4.06391E+3
  -1.45211E+3   2.93916E+2
  -1.46336E+3  -1.39140E+3
   1.81904E+3  -3.35929E+2
   3.79862E+2  -1.54749E+3
   3.59999E+3  -5.98261E+2
   1.25229E+3   3.12501E+3
  -2.79490E+3   1.73230E+3
   9.68141E+2  -1.74641E+3
   1.09837E+3   5.87868E+2
   2.07814E+3   2.85205E+3
  -1.25598E+3   1.49398E+3
   1.42196E+3  -1.47295E+3
   8.05930E+2   2.85000E+3
  -5.54223E+2   2.11673E+3
  -2.51769E+3   2.06232E+3
  -2.38891E+3  -9.08975E+2
  -6.79988E+2  -1.06072E+2
   1.43539E+3   1.54032E+3
   1.27839E+3   3.01502E+3
  -2.82066E+3   1.27123E+3
  -2.06592E+3  -1.61280E+3
   6.76324E+2  -2.96983E+3
   2.02034E+3  -8.37984E+2
   1.83863E+3   9.99085E+2
   9.52569E+2  -3.99300E+2
   2.14526E+2  -1.43195E+3
   2.32368E+3  -2.53840E+2
   1.02354E+3   1.11037E+3
   1.11423E+1   1.52426E+3
   1.23197E+3   1.41213E+2
  -2.22371E+3  -1.64728E+3
  -1.68892E+3  -6.35608E+2
  -7.97987E+2   1.28175E+3
  -1.26173E+3  -1.08214E+3
  -1.88727E+3  -1.98120E+2
  -3.82828E+2  -1.55357E+3
  -2.82632E+3  -6.31172E+2
  -1.49544E+2  -7.16349E+2
   1.05991E+3  -1.57584E+3
   3.14224E+3   1.81291E+3
  -3.07139E+2   1.61953E+3
  -2.35188E+2  -1.57697E+2
   7.47910E+2  -2.20047E+2
   5.07937E+2  -6.36440E+2
  -2.85173E+2  -7.75217E+2
  -9.79906E+2   7.91845E+1
  -8.63126E+2  -1.76164E+3
   4.65182E+2  -8.24972E+2
   1.05468E+2   1.83846E+3
  -2.91624E+3   4.43555E+2
  -2.27203E+3   3.29385E+2
   1.26310E+3   6.13292E+2
   4.71982E+1  -1.24068E+3
  -8.44232E+2   9.70171E+2
  -2.82522E+2  -1.25511E+3
  -7.20770E+2  -1.75913E+3
   2.44579E+2  -1.04903E+3
  -5.23590E+1  -9.83007E+2
  -1.25686E+3   5.55445E+1
  -5.11378E+2  -2.51461E+3
   6.10045E+2  -1.91537E+3
   2.16941E+3  -4.33726E+2
   1.15053E+3   2.17614E+2
  -9.88232E+2   1.04522E+2
   6.87512E+2  -6.95971E+2
   6.50608E+2  -3.12526E+3
  -4.85381E+2  -1.03349E+3
   1.02416E+3   1.74544E+3
   8.22254E+1  -5.61453E+2
   6.13558E+2   3.36422E+2
  -1.28590E+2   1.20332E+3
  -9.96898E+2   1.30958E+3
  -2.17226E+3   7.63669E+1
   4.13355E+2  -1.38832E+3
   3.00090E+2  -5.96390E+2
   2.51243E+2  -4.98178E+2
   1.06417E+3  -1.12112E+3
   4.59630E+2  -1.89206E+3
  -1.41832E+3  -1.85235E+3
  -5.12086E+2  -3.21478E+3
   3.51537E+2  -1.70437E+3
   8.71570E+1  -1.69840E+3
  -9.35009E+2  -1.41681E+3
   1.79434E+2   1.25976E+3
  -6.60042E+2   2.73907E+2
  -2.44498E+3   8.74924E+2
  -1.07051E+3  -2.02658E+2
  -6.95561E+1  -3.79042E+2
   8.61325E+2  -1.34132E+3
  -1.33655E+3  -8.51451E+2
   9.29633E+2  -1.10784E+3
   4.66990E+2  -3.54926E+2
  -1.48691E+3   5.14121E+2
  -1.16481E+3   2.87427E+2
   4.45245E+2   4.49522E+2
   1.46636E+2  -4.57835E+2
  -3.29103E+3   1.11862E+3
   2.13168E+3   5.07199E+2
  -6.48827E+1   3.28319E+2
  -1.01494E+3  -4.98000E+2
   4.01070E+2   3.05907E+2
   2.26582E+2  -4.00474E+2
  -5.58355E+2   1.04043E+3
  -2.59854E+2   1.08624E+3
   1.34338E+3   1.57694E+3
   1.17070E+3   2.41525E+2
   1.28571E+3   1.99029E+3
   8.94486E+2   1.85441E+3
  -2.97549E+2   5.84951E+2
   1.59636E+3   1.41133E+3
   1.13708E+3  -3.36987E+2
   6.54172E+2  -2.35221E+3
  -3.70718E+2   1.27268E+3
   1.15594E+3   1.18217E+3
  -9.19862E+1  -4.81616E+2
   2.38120E+3   1.28074E+3
   8.31262E+2  -8.42412E+2
   6.87865E+2  -4.77638E+2
  -5.81430E+2  -6.53652E+2
  -1.96306E+3  -2.62862E+2
  -1.65358E+3  -2.68408E+2
   6.22463E+2   5.17288E+2
   1.46543E+2   9.28694E+1
  -8.57407E+2   9.47690E+2
   1.09703E+3  -6.91106E+2
   5.26377E+2   2.23561E+3
   1.35851E+3  -1.32493E+3
  -1.03383E+2  -5.48124E+1
   5.41847E+2  -2.39198E+3
   6.90575E+2   1.47369E+2
   3.14095E+2   1.48368E+2
   7.57848E+1   1.02529E+3
   5.85136E+2  -9.60883E+2
   8.00863E+1  -5.35951E+2
   7.42462E+2   1.34068E+3
   2.31248E+2   3.40831E+2
   3.51369E+2   1.59546E+1
   1.89912E+3   3.76296E+2
   1.15448E+3   1.27986E+3
  -7.74939E+2   5.49916E+1
   1.09180E+3   6.55006E+2
   9.92911E+2  -9.24472E+2
   1.46819E+3  -6.57330E+2
  -5.33222E+2  -4.84089E+2
   1.17010E+3  -1.89063E+2
  -3.44956E+1   1.01174E+3
  -5.72452E+2   1.09642E+3
   6.09794E+2   1.12564E+3
  -7.67784E+2  -3.64619E+2
   4.32470E+2  -2.87023E+2
   3.12661E+2   4.12889E+0
   1.25817E+3  -1.27804E+2
  -1.57991E+3   1.63587E+2
  -1.60587E+3   1.89397E+3
   1.08358E+3  -5.66410E+2
   1.08955E+3   6.43466E+2
   2.03970E+3  -2.16233E+2
   3.08680E+2   4.55875E+2
   1.28040E+3  -1.15531E+3
   8.21873E+2  -1.99301E+2
  -6.26614E+1  -2.78203E+2
  -8.49129E+2   7.04304E+2
  -2.78676E+2  -7.92824E+1
   2.34589E+2   8.97187E+2
   1.34378E+3   9.45265E+2
   8.05719E+2  -1.22187E+3
   1.03958E+2  -8.06167E+2
   5.30175E+2   2.00192E+2
   6.43713E+2  -8.45902E+2
   1.15622E+2   5.22287E+2
  -1.01322E+3   7.22184E+2
  -4.63247E+2  -4.76546E+2
  -5.56533E+2  -6.82853E+2
  -3.44770E+2   3.12845E+2
   7.48816E+2   5.95212E+2
   1.49169E+2  -5.99073E+2
  -1.28150E+3  -5.57344E+2
   1.73056E+3   2.43099E+3
   9.64894E+2  -1.42773E+3
  -1.45747E+3   1.18846E+3
   9.65837E+2  -1.47140E+3
   2.71974E+2  -9.97716E+2
   7.89805E+2   3.88428E+2
  -1.03950E+3   1.42262E+2
   7.60971E+2  -1.30278E+2
   2.33221E+3   1.50339E+3
   1.11932E+3  -1.10404E+3
  -1.00390E+3   9.68512E+1
   2.47972E+2  -8.70253E+2
  -2.35496E+3   8.37142E+2
  -6.70515E+2  -7.31757E+2
   6.14073E+2   4.27328E+2
  -9.36303E+1   9.58506E+2
  -1.05650E+3   8.41071E+2
   1.46750E+3   2.31419E+2
   9.03047E+1  -2.57602E+1
  -1.34003E+2   1.53102E+3
   8.15425E+2   2.31764E+2
  -6.60476E+2  -7.28469E+2
  -1.34596E+3   6.71211E+2
   1.57735E+3  -2.50801E+2
   8.22440E+2  -8.59491E+2
  -3.10438E+2   7.83262E+1
  -1.66514E+3  -7.65898E+2
  -1.58331E+2  -9.57314E+1
   1.34220E+3   1.60173E+2
   7.95615E+2  -4.02585E+2
  -3.52008E+2  -1.85205E+3
   2.76937E+2  -8.00353E+2
  -3.51092E+2   5.18079E+2
   1.43277E+3   3.39626E+2
  -7.25918E+2   8.91428E+2
  -9.79683E+2  -1.14356E+3
  -6.78394E+2  -6.67850E+2
  -1.02540E+2  -1.31741E+3
   5.84245E+2   1.79757E+2
   1.13793E+3   1.25275E+3
   4.61030E+1   6.69491E+2
  -1.21935E+3   4.43246E+2
   9.96227E+2   5.54170E+2
   1.72655E+2   9.60174E+2
  -1.07276E+3  -2.79056E+2
   3.03936E+2   3.68498E+2
  -6.99831E+2   1.47438E+3
   7.47670E+2   1.98690E+2
  -1.19043E+3  -1.09189E+3
   1.04936E+3   1.06975E+3
   3.43165E+2  -8.50178E+2
  -6.06633E+1  -7.84539E+2
   4.49325E+2  -2.39551E+3
  -4.92525E+2  -1.71677E+2
  -9.57726E+2  -1.51130E+2
   2.40656E+2  -1.35357E+3
  -5.49416E+2  -6.00883E+2
  -8.80416E+2   4.47188E+2
  -1.25026E+3   1.43295E+3
   1.98825E+3   1.35466E+2
  -1.00762E+2  -1.28714E+3
  -3.09752E+2  -3.32852E+2
  -3.58603E+3   1.26279E+3
   1.02443E+3   8.68278E+2
  -9.47529E+2   9.20483E+2
  -2.80706E+2   9.83017E+1
  -1.46258E+3   1.17970E+3
  -1.38053E+2  -8.56403E+2
  -9.62955E+2  -2.32116E+2
   1.00196E+3  -1.04413E+2
  -9.00131E+2   4.04143E+2
   8.73346E+2  -2.56495E+1
  -1.96789E+3   4.60358E+2
   5.99745E+2  -1.06524E+3
  -1.47575E+3   8.10167E+2
