 
 $NMID
 ID=''
 FMTDAT='(2E13.5)'
 TRAMP=   1.00000E+0
 VOLUME=   1.00000E+0
 $END
  -2.10251E+4   7.58124E+3
  -5.77578E+4   3.35422E+3
  -5.61317E+4   1.33070E+4
  -5.17002E+4   1.21105E+4
  -5.39970E+4   1.08300E+4
  -5.34961E+4   1.30867E+4
  -5.18318E+4   1.20005E+4
  -5.29954E+4   1.10006E+4
  -5.27832E+4   1.23068E+4
  -5.16235E+4   1.16629E+4
  -5.21613E+4   1.10979E+4
  -5.17497E+4   1.22438E+4
  -5.08569E+4   1.19265E+4
  -5.12547E+4   1.12229E+4
  -5.08704E+4   1.17983E+4
  -5.00639E+4   1.14566E+4
  -5.02466E+4   1.08732E+4
  -4.98942E+4   1.12230E+4
  -4.91651E+4   1.10069E+4
  -4.93989E+4   1.06001E+4
  -4.90287E+4   1.08312E+4
  -4.84304E+4   1.07433E+4
  -4.86147E+4   1.04802E+4
  -4.84149E+4   1.04735E+4
  -4.78413E+4   1.02500E+4
  -4.78023E+4   1.01008E+4
  -4.76403E+4   9.93840E+3
  -4.72305E+4   9.69078E+3
  -4.70965E+4   9.25580E+3
  -4.68100E+4   9.22503E+3
  -4.63501E+4   9.23408E+3
  -4.63171E+4   9.11971E+3
  -4.61088E+4   8.93780E+3
  -4.56782E+4   8.73043E+3
  -4.55241E+4   8.74825E+3
  -4.52233E+4   8.75117E+3
  -4.47192E+4   8.70692E+3
  -4.44570E+4   8.64500E+3
  -4.41654E+4   8.74946E+3
  -4.38461E+4   8.76727E+3
  -4.35564E+4   8.68736E+3
  -4.33063E+4   8.55817E+3
  -4.29358E+4   8.31170E+3
  -4.25668E+4   8.27949E+3
  -4.22109E+4   8.29191E+3
  -4.19298E+4   8.13874E+3
  -4.16676E+4   8.01109E+3
  -4.14333E+4   8.03419E+3
  -4.12086E+4   7.95233E+3
  -4.08665E+4   7.79781E+3
  -4.06584E+4   7.69838E+3
  -4.03698E+4   7.60616E+3
  -4.00252E+4   7.57257E+3
  -3.98937E+4   7.58375E+3
  -3.96295E+4   7.44429E+3
  -3.94087E+4   7.24475E+3
  -3.91788E+4   7.13920E+3
  -3.89863E+4   6.96855E+3
  -3.86625E+4   6.76414E+3
  -3.83301E+4   6.69835E+3
  -3.81466E+4   6.54418E+3
  -3.78063E+4   6.41608E+3
  -3.76034E+4   6.29578E+3
  -3.74323E+4   6.19567E+3
  -3.71759E+4   5.98503E+3
  -3.69426E+4   5.98023E+3
  -3.67570E+4   5.92960E+3
  -3.65705E+4   5.70138E+3
  -3.63454E+4   5.61075E+3
  -3.61142E+4   5.43111E+3
  -3.58706E+4   5.39695E+3
  -3.56901E+4   5.28793E+3
  -3.54289E+4   5.03342E+3
  -3.51705E+4   4.97610E+3
  -3.48692E+4   4.87313E+3
  -3.47313E+4   4.93750E+3
  -3.44371E+4   4.76013E+3
  -3.42528E+4   4.61475E+3
  -3.39252E+4   4.43112E+3
  -3.38145E+4   4.40724E+3
  -3.35966E+4   4.32105E+3
  -3.34306E+4   4.16686E+3
  -3.30883E+4   4.07735E+3
  -3.28103E+4   3.96804E+3
  -3.27091E+4   3.84772E+3
  -3.23633E+4   3.64472E+3
  -3.20802E+4   3.52911E+3
  -3.17619E+4   3.36924E+3
  -3.15545E+4   3.35693E+3
  -3.13277E+4   3.27664E+3
  -3.11704E+4   3.21065E+3
  -3.08896E+4   3.19964E+3
  -3.06472E+4   3.17248E+3
  -3.03932E+4   3.13545E+3
  -3.01946E+4   3.04410E+3
  -2.98273E+4   3.03561E+3
  -2.96414E+4   2.96500E+3
  -2.94567E+4   2.94076E+3
  -2.93120E+4   2.88114E+3
  -2.90656E+4   2.84188E+3
  -2.88240E+4   2.85605E+3
  -2.85779E+4   2.82469E+3
  -2.84731E+4   2.74851E+3
  -2.82751E+4   2.79514E+3
  -2.81379E+4   2.78493E+3
  -2.79770E+4   2.67395E+3
  -2.77090E+4   2.58762E+3
  -2.76172E+4   2.60844E+3
  -2.74621E+4   2.58944E+3
  -2.71476E+4   2.50886E+3
  -2.69657E+4   2.59104E+3
  -2.68241E+4   2.56479E+3
  -2.66445E+4   2.56980E+3
  -2.65866E+4   2.47222E+3
  -2.64227E+4   2.47113E+3
  -2.62147E+4   2.35763E+3
  -2.61267E+4   2.42479E+3
  -2.58624E+4   2.33834E+3
  -2.57645E+4   2.36737E+3
  -2.55710E+4   2.24581E+3
  -2.54407E+4   2.26785E+3
  -2.52831E+4   2.22734E+3
  -2.50876E+4   2.18229E+3
  -2.49320E+4   2.15172E+3
  -2.48013E+4   2.19303E+3
  -2.45590E+4   2.12096E+3
  -2.43962E+4   2.08693E+3
  -2.42714E+4   2.08793E+3
  -2.41117E+4   2.12632E+3
  -2.39859E+4   2.03413E+3
  -2.37940E+4   2.00602E+3
  -2.36515E+4   1.94801E+3
  -2.34790E+4   2.01421E+3
  -2.33199E+4   1.98762E+3
  -2.32907E+4   1.98793E+3
  -2.30994E+4   1.95725E+3
  -2.28947E+4   1.90613E+3
  -2.26484E+4   1.91266E+3
  -2.25198E+4   1.97676E+3
  -2.23665E+4   2.00016E+3
  -2.22705E+4   1.94354E+3
  -2.20801E+4   1.96381E+3
  -2.18880E+4   2.01867E+3
  -2.17306E+4   1.99464E+3
  -2.16155E+4   1.90975E+3
  -2.15257E+4   1.93420E+3
  -2.12820E+4   1.95244E+3
  -2.11548E+4   1.94115E+3
  -2.10916E+4   1.90414E+3
  -2.09316E+4   1.91328E+3
  -2.07525E+4   2.02501E+3
  -2.06229E+4   1.92984E+3
  -2.04735E+4   1.97504E+3
  -2.03859E+4   1.94552E+3
  -2.01481E+4   2.02390E+3
  -2.01100E+4   2.04447E+3
  -1.99612E+4   2.04504E+3
  -1.98363E+4   2.02939E+3
  -1.97316E+4   2.03615E+3
  -1.95765E+4   2.08302E+3
  -1.94841E+4   2.04252E+3
  -1.92726E+4   2.02038E+3
  -1.91946E+4   2.00663E+3
  -1.90730E+4   2.04633E+3
  -1.89883E+4   1.98490E+3
  -1.88976E+4   2.00157E+3
  -1.87094E+4   2.01296E+3
  -1.85303E+4   2.07412E+3
  -1.84322E+4   2.02657E+3
  -1.83543E+4   2.11963E+3
  -1.81627E+4   2.08078E+3
  -1.80618E+4   2.06843E+3
  -1.79326E+4   2.05006E+3
  -1.78262E+4   2.03624E+3
  -1.76581E+4   2.14598E+3
  -1.75164E+4   2.10207E+3
  -1.73815E+4   2.05964E+3
  -1.73052E+4   2.14973E+3
  -1.72260E+4   2.12306E+3
  -1.70435E+4   2.19154E+3
  -1.69280E+4   2.09653E+3
  -1.68110E+4   2.15940E+3
  -1.66817E+4   2.15661E+3
  -1.65866E+4   2.14378E+3
  -1.64268E+4   2.16645E+3
  -1.63337E+4   2.17745E+3
  -1.61972E+4   2.25613E+3
  -1.61484E+4   2.14141E+3
  -1.60330E+4   2.09314E+3
  -1.58772E+4   2.19218E+3
  -1.57579E+4   2.18944E+3
  -1.56135E+4   2.22417E+3
  -1.54099E+4   2.13747E+3
  -1.53809E+4   2.21525E+3
  -1.53016E+4   2.20585E+3
  -1.51748E+4   2.17741E+3
  -1.50192E+4   2.19189E+3
  -1.49646E+4   2.16327E+3
  -1.48996E+4   2.26289E+3
  -1.47613E+4   2.30077E+3
  -1.46970E+4   2.23284E+3
  -1.45500E+4   2.21973E+3
  -1.44426E+4   2.25532E+3
  -1.42736E+4   2.20885E+3
  -1.41878E+4   2.33972E+3
  -1.40910E+4   2.29113E+3
  -1.40536E+4   2.28961E+3
  -1.39392E+4   2.28825E+3
  -1.38193E+4   2.25175E+3
  -1.36891E+4   2.32147E+3
  -1.37004E+4   2.34428E+3
  -1.35600E+4   2.33849E+3
  -1.34379E+4   2.37114E+3
  -1.34262E+4   2.28917E+3
  -1.32817E+4   2.30570E+3
  -1.32148E+4   2.37764E+3
  -1.31827E+4   2.33644E+3
  -1.29708E+4   2.35220E+3
  -1.29536E+4   2.33952E+3
  -1.28765E+4   2.30937E+3
  -1.27381E+4   2.36298E+3
  -1.26430E+4   2.37604E+3
  -1.25945E+4   2.35290E+3
  -1.25056E+4   2.31940E+3
  -1.24293E+4   2.30991E+3
  -1.22255E+4   2.29373E+3
  -1.22062E+4   2.33134E+3
  -1.21166E+4   2.26204E+3
  -1.20563E+4   2.30094E+3
  -1.19789E+4   2.19795E+3
  -1.19541E+4   2.22239E+3
  -1.18039E+4   2.26430E+3
  -1.17146E+4   2.22312E+3
  -1.16473E+4   2.22297E+3
  -1.15512E+4   2.20859E+3
  -1.14680E+4   2.15972E+3
  -1.14393E+4   2.23746E+3
  -1.13489E+4   2.14869E+3
  -1.11765E+4   2.21168E+3
  -1.11649E+4   2.20423E+3
  -1.10917E+4   2.22090E+3
  -1.10294E+4   2.20524E+3
  -1.09434E+4   2.14695E+3
  -1.08173E+4   2.19987E+3
  -1.06948E+4   2.12596E+3
  -1.06964E+4   2.15535E+3
  -1.06050E+4   2.13508E+3
  -1.05092E+4   2.15950E+3
  -1.03802E+4   2.06220E+3
  -1.03585E+4   2.14121E+3
  -1.03390E+4   2.11850E+3
  -1.02284E+4   2.07882E+3
  -1.01408E+4   2.06775E+3
  -1.00486E+4   2.05801E+3
  -1.00366E+4   2.07869E+3
  -9.93336E+3   2.07986E+3
  -9.82949E+3   2.07219E+3
  -9.76824E+3   2.06487E+3
  -9.72070E+3   2.00413E+3
  -9.66214E+3   2.03243E+3
  -9.57959E+3   2.06120E+3
  -9.53156E+3   2.01744E+3
  -9.44769E+3   2.02571E+3
  -9.36011E+3   2.02846E+3
  -9.31272E+3   2.04171E+3
  -9.25384E+3   1.93160E+3
  -9.19050E+3   2.00523E+3
  -9.10751E+3   1.96099E+3
  -9.12968E+3   1.98179E+3
  -8.98132E+3   1.99002E+3
  -8.92549E+3   1.92312E+3
  -8.88074E+3   1.99610E+3
  -8.80368E+3   1.99638E+3
  -8.69141E+3   1.98844E+3
  -8.68574E+3   1.86063E+3
  -8.62363E+3   1.87299E+3
  -8.61240E+3   1.91056E+3
  -8.50804E+3   1.85022E+3
  -8.39286E+3   1.87671E+3
  -8.38499E+3   1.87803E+3
  -8.34198E+3   1.92021E+3
  -8.33861E+3   1.82937E+3
  -8.22322E+3   1.85707E+3
  -8.14938E+3   1.81151E+3
  -8.16987E+3   1.77542E+3
  -8.04096E+3   1.76666E+3
  -8.11668E+3   1.72907E+3
  -7.93293E+3   1.71345E+3
  -7.81732E+3   1.68850E+3
  -7.86176E+3   1.69607E+3
  -7.70901E+3   1.72719E+3
  -7.72250E+3   1.71134E+3
  -7.66469E+3   1.70428E+3
  -7.61351E+3   1.68173E+3
  -7.57635E+3   1.65037E+3
  -7.52421E+3   1.64269E+3
  -7.51183E+3   1.60741E+3
  -7.44436E+3   1.62891E+3
  -7.34765E+3   1.63200E+3
  -7.31762E+3   1.58191E+3
  -7.27034E+3   1.57339E+3
  -7.22710E+3   1.54196E+3
  -7.22544E+3   1.56241E+3
  -7.18077E+3   1.56075E+3
  -7.13852E+3   1.58248E+3
  -7.02490E+3   1.51706E+3
  -6.94838E+3   1.50171E+3
  -6.95561E+3   1.49934E+3
  -6.90159E+3   1.48910E+3
  -6.89331E+3   1.51046E+3
  -6.86164E+3   1.46015E+3
  -6.80926E+3   1.39647E+3
  -6.74539E+3   1.43912E+3
  -6.72480E+3   1.47142E+3
  -6.63585E+3   1.43114E+3
  -6.58419E+3   1.39506E+3
  -6.58382E+3   1.37730E+3
  -6.59343E+3   1.40554E+3
  -6.52831E+3   1.34286E+3
  -6.45144E+3   1.34258E+3
  -6.44030E+3   1.34366E+3
  -6.40371E+3   1.33439E+3
  -6.34020E+3   1.33048E+3
  -6.31354E+3   1.28277E+3
  -6.28767E+3   1.32431E+3
  -6.22000E+3   1.27907E+3
  -6.23800E+3   1.31554E+3
  -6.21277E+3   1.23183E+3
  -6.15154E+3   1.24988E+3
  -6.07714E+3   1.33584E+3
  -6.07315E+3   1.25372E+3
  -6.02724E+3   1.19725E+3
  -6.03305E+3   1.21198E+3
  -5.98141E+3   1.19220E+3
  -5.93371E+3   1.21668E+3
  -5.89299E+3   1.17090E+3
  -5.87656E+3   1.09869E+3
  -5.84133E+3   1.09615E+3
  -5.83943E+3   1.11225E+3
  -5.82963E+3   1.09967E+3
  -5.74152E+3   1.15644E+3
  -5.71583E+3   1.05542E+3
  -5.69501E+3   1.10629E+3
  -5.70080E+3   1.05041E+3
  -5.61665E+3   1.03932E+3
  -5.63965E+3   1.03958E+3
  -5.62164E+3   1.04503E+3
  -5.52085E+3   1.00275E+3
  -5.54577E+3   9.84669E+2
  -5.46178E+3   9.56990E+2
  -5.36728E+3   1.02807E+3
  -5.37254E+3   8.98038E+2
  -5.31474E+3   9.35327E+2
  -5.29670E+3   9.42937E+2
  -5.32167E+3   8.99629E+2
  -5.30426E+3   9.16530E+2
  -5.25816E+3   9.08525E+2
  -5.26519E+3   9.44022E+2
  -5.23631E+3   8.02929E+2
  -5.22046E+3   8.09756E+2
  -5.12161E+3   8.65625E+2
  -5.11503E+3   8.00800E+2
  -5.12455E+3   8.10879E+2
  -5.14480E+3   8.52546E+2
  -5.10030E+3   8.11663E+2
  -5.02674E+3   8.11938E+2
  -5.02034E+3   8.02256E+2
