 
 $NMID
 ID=''
 FMTDAT='(2E13.5)'
 TRAMP=   1.00000E+0
 VOLUME=   1.00000E+0
 $END
  -1.33890E+4   1.16420E+4
  -4.13294E+4   1.91221E+4
  -3.68615E+4   2.63475E+4
  -3.37544E+4   2.47602E+4
  -3.54384E+4   2.48700E+4
  -3.39844E+4   2.66956E+4
  -3.23481E+4   2.55869E+4
  -3.30318E+4   2.54213E+4
  -3.20466E+4   2.65713E+4
  -3.09445E+4   2.57536E+4
  -3.11657E+4   2.55635E+4
  -3.01987E+4   2.63808E+4
  -2.93677E+4   2.61809E+4
  -2.96485E+4   2.59291E+4
  -2.89017E+4   2.65667E+4
  -2.81021E+4   2.63434E+4
  -2.80029E+4   2.62865E+4
  -2.73460E+4   2.67461E+4
  -2.65170E+4   2.65464E+4
  -2.64799E+4   2.64331E+4
  -2.58664E+4   2.67270E+4
  -2.50503E+4   2.66429E+4
  -2.49475E+4   2.66912E+4
  -2.44674E+4   2.68618E+4
  -2.37264E+4   2.67013E+4
  -2.34514E+4   2.67232E+4
  -2.30333E+4   2.67839E+4
  -2.25471E+4   2.65633E+4
  -2.23172E+4   2.63699E+4
  -2.17684E+4   2.63904E+4
  -2.11216E+4   2.63414E+4
  -2.07880E+4   2.62855E+4
  -2.03436E+4   2.63599E+4
  -1.97672E+4   2.61368E+4
  -1.93579E+4   2.61349E+4
  -1.88409E+4   2.62280E+4
  -1.82110E+4   2.60886E+4
  -1.76937E+4   2.61518E+4
  -1.72466E+4   2.62787E+4
  -1.68104E+4   2.62849E+4
  -1.63875E+4   2.62845E+4
  -1.61671E+4   2.62518E+4
  -1.57447E+4   2.60961E+4
  -1.53912E+4   2.60146E+4
  -1.49578E+4   2.60441E+4
  -1.45665E+4   2.59845E+4
  -1.42127E+4   2.59027E+4
  -1.38458E+4   2.57698E+4
  -1.34596E+4   2.56962E+4
  -1.31081E+4   2.55629E+4
  -1.28170E+4   2.54430E+4
  -1.24979E+4   2.52468E+4
  -1.19355E+4   2.51535E+4
  -1.15842E+4   2.51207E+4
  -1.12493E+4   2.50132E+4
  -1.09239E+4   2.48623E+4
  -1.06023E+4   2.47903E+4
  -1.03089E+4   2.46586E+4
  -9.98108E+3   2.44455E+4
  -9.57974E+3   2.42853E+4
  -9.15761E+3   2.41625E+4
  -8.88777E+3   2.40821E+4
  -8.58440E+3   2.40246E+4
  -8.26483E+3   2.39046E+4
  -7.99343E+3   2.36536E+4
  -7.60464E+3   2.35769E+4
  -7.27000E+3   2.35438E+4
  -7.06421E+3   2.34374E+4
  -6.74670E+3   2.32535E+4
  -6.50387E+3   2.31090E+4
  -6.21910E+3   2.30159E+4
  -5.94132E+3   2.28575E+4
  -5.65162E+3   2.26868E+4
  -5.33277E+3   2.25340E+4
  -5.01273E+3   2.24293E+4
  -4.75816E+3   2.22493E+4
  -4.44349E+3   2.21333E+4
  -4.20190E+3   2.19633E+4
  -3.90854E+3   2.18411E+4
  -3.59538E+3   2.16353E+4
  -3.30613E+3   2.15425E+4
  -3.06071E+3   2.14103E+4
  -2.80350E+3   2.12118E+4
  -2.51697E+3   2.10947E+4
  -2.29980E+3   2.09371E+4
  -2.18195E+3   2.07538E+4
  -1.88946E+3   2.05526E+4
  -1.61934E+3   2.04018E+4
  -1.32757E+3   2.01736E+4
  -1.07204E+3   2.00353E+4
  -8.95797E+2   1.98422E+4
  -6.05266E+2   1.96172E+4
  -3.68756E+2   1.93859E+4
  -1.11475E+2   1.92238E+4
   9.50795E+1   1.90180E+4
   3.87563E+2   1.88298E+4
   6.36720E+2   1.85675E+4
   9.69302E+2   1.84470E+4
   1.15182E+3   1.82350E+4
   1.32887E+3   1.79975E+4
   1.56512E+3   1.77842E+4
   1.85092E+3   1.75843E+4
   2.09949E+3   1.74386E+4
   2.31182E+3   1.72729E+4
   2.48059E+3   1.70353E+4
   2.71670E+3   1.67844E+4
   2.93145E+3   1.66352E+4
   3.14675E+3   1.64343E+4
   3.31927E+3   1.61861E+4
   3.55985E+3   1.59865E+4
   3.78588E+3   1.57326E+4
   4.05290E+3   1.55143E+4
   4.25953E+3   1.53450E+4
   4.41701E+3   1.51740E+4
   4.58909E+3   1.48879E+4
   4.79525E+3   1.47996E+4
   4.98150E+3   1.45762E+4
   5.15309E+3   1.43904E+4
   5.34066E+3   1.42670E+4
   5.54679E+3   1.40540E+4
   5.69845E+3   1.38857E+4
   5.89526E+3   1.37645E+4
   6.07003E+3   1.35815E+4
   6.16264E+3   1.33803E+4
   6.39759E+3   1.31910E+4
   6.48926E+3   1.31015E+4
   6.62274E+3   1.29238E+4
   6.72287E+3   1.27466E+4
   6.85745E+3   1.26447E+4
   6.99379E+3   1.25039E+4
   7.05895E+3   1.23454E+4
   7.24029E+3   1.20508E+4
   7.35663E+3   1.19388E+4
   7.42052E+3   1.17778E+4
   7.55267E+3   1.16577E+4
   7.65506E+3   1.15663E+4
   7.71541E+3   1.13495E+4
   7.78240E+3   1.11628E+4
   7.94134E+3   1.10359E+4
   8.06107E+3   1.08699E+4
   8.06262E+3   1.07516E+4
   8.18203E+3   1.05814E+4
   8.20667E+3   1.04500E+4
   8.28652E+3   1.02484E+4
   8.37930E+3   1.01248E+4
   8.55701E+3   9.94163E+3
   8.49979E+3   9.86377E+3
   8.54375E+3   9.68394E+3
   8.60520E+3   9.49148E+3
   8.60638E+3   9.42927E+3
   8.64831E+3   9.26927E+3
   8.66115E+3   9.13226E+3
   8.72477E+3   8.94040E+3
   8.85028E+3   8.73022E+3
   8.79882E+3   8.62758E+3
   8.85381E+3   8.49400E+3
   8.87517E+3   8.29738E+3
   8.91292E+3   8.19607E+3
   8.97449E+3   8.06712E+3
   8.94083E+3   7.87808E+3
   9.02868E+3   7.78120E+3
   9.04311E+3   7.62616E+3
   9.09361E+3   7.49747E+3
   9.00850E+3   7.31786E+3
   9.06832E+3   7.24481E+3
   9.11180E+3   7.09120E+3
   9.06234E+3   6.96582E+3
   9.03479E+3   6.81399E+3
   9.12572E+3   6.67381E+3
   9.10403E+3   6.55876E+3
   9.06962E+3   6.39484E+3
   9.11262E+3   6.30235E+3
   9.09543E+3   6.17149E+3
   9.09654E+3   6.06319E+3
   9.01061E+3   5.89230E+3
   9.02760E+3   5.78075E+3
   8.98961E+3   5.66275E+3
   9.01375E+3   5.56088E+3
   9.05517E+3   5.34366E+3
   9.02049E+3   5.35370E+3
   8.98540E+3   5.12985E+3
   8.92265E+3   5.07572E+3
   8.85101E+3   4.88613E+3
   8.92904E+3   4.82419E+3
   8.86301E+3   4.65368E+3
   8.78635E+3   4.50245E+3
   8.80016E+3   4.45439E+3
   8.77565E+3   4.33031E+3
   8.73713E+3   4.18240E+3
   8.64921E+3   4.06117E+3
   8.63636E+3   3.97459E+3
   8.66908E+3   3.84707E+3
   8.60252E+3   3.74201E+3
   8.52020E+3   3.57971E+3
   8.49058E+3   3.46736E+3
   8.42229E+3   3.38041E+3
   8.54472E+3   3.28805E+3
   8.41250E+3   3.16764E+3
   8.37960E+3   3.07326E+3
   8.28164E+3   2.95519E+3
   8.30061E+3   2.86488E+3
   8.21055E+3   2.75935E+3
   8.08563E+3   2.58549E+3
   8.13647E+3   2.50659E+3
   8.06221E+3   2.41448E+3
   8.05601E+3   2.35388E+3
   8.00060E+3   2.21469E+3
   7.91987E+3   2.12578E+3
   7.91064E+3   2.08699E+3
   7.82056E+3   1.93576E+3
   7.78009E+3   1.80135E+3
   7.74309E+3   1.71710E+3
   7.62367E+3   1.62276E+3
   7.58065E+3   1.44595E+3
   7.65373E+3   1.47012E+3
   7.47750E+3   1.29869E+3
   7.48424E+3   1.20446E+3
   7.42042E+3   1.19627E+3
   7.37521E+3   1.06448E+3
   7.28537E+3   9.82975E+2
   7.24556E+3   8.70967E+2
   7.14488E+3   8.14841E+2
   7.11191E+3   7.39341E+2
   7.05359E+3   6.98894E+2
   6.98087E+3   5.43070E+2
   6.94727E+3   4.79606E+2
   6.87605E+3   3.73441E+2
   6.86391E+3   3.62087E+2
   6.82639E+3   2.38721E+2
   6.69194E+3   1.48775E+2
   6.64033E+3   8.26877E+1
   6.64572E+3   1.03633E+0
   6.58715E+3  -1.10772E+2
   6.46868E+3  -1.64557E+2
   6.44569E+3  -3.16491E+2
   6.33623E+3  -3.61833E+2
   6.30657E+3  -4.32291E+2
   6.26669E+3  -4.18569E+2
   6.18630E+3  -5.21250E+2
   6.16625E+3  -6.67640E+2
   6.02207E+3  -6.71665E+2
   6.07247E+3  -7.29010E+2
   5.96569E+3  -7.99026E+2
   5.87027E+3  -9.19339E+2
   5.86499E+3  -9.57605E+2
   5.75833E+3  -9.96711E+2
   5.70989E+3  -1.05615E+3
   5.63007E+3  -1.09919E+3
   5.60611E+3  -1.19112E+3
   5.55434E+3  -1.21620E+3
   5.45711E+3  -1.40045E+3
   5.39222E+3  -1.37434E+3
   5.33013E+3  -1.39414E+3
   5.30419E+3  -1.52281E+3
   5.20798E+3  -1.49149E+3
   5.14232E+3  -1.56828E+3
   5.13324E+3  -1.65584E+3
   5.08070E+3  -1.69653E+3
   4.92506E+3  -1.78292E+3
   5.00591E+3  -1.78121E+3
   4.87385E+3  -1.86517E+3
   4.82564E+3  -1.87556E+3
   4.72588E+3  -1.93991E+3
   4.71290E+3  -2.01850E+3
   4.62400E+3  -2.04001E+3
   4.59167E+3  -1.98431E+3
   4.48849E+3  -2.08131E+3
   4.46379E+3  -2.09634E+3
   4.35734E+3  -2.17720E+3
   4.33689E+3  -2.15773E+3
   4.27623E+3  -2.28201E+3
   4.26133E+3  -2.27258E+3
   4.11588E+3  -2.32416E+3
   4.13643E+3  -2.37173E+3
   4.04801E+3  -2.43704E+3
   4.00609E+3  -2.43468E+3
   3.93615E+3  -2.48569E+3
   3.83417E+3  -2.42021E+3
   3.77495E+3  -2.49424E+3
   3.74436E+3  -2.50744E+3
   3.67121E+3  -2.60909E+3
   3.70371E+3  -2.58502E+3
   3.59272E+3  -2.58423E+3
   3.52370E+3  -2.67716E+3
   3.49023E+3  -2.67411E+3
   3.41404E+3  -2.71528E+3
   3.36418E+3  -2.77342E+3
   3.38897E+3  -2.78685E+3
   3.27928E+3  -2.71503E+3
   3.24065E+3  -2.77091E+3
   3.20179E+3  -2.86653E+3
   3.12942E+3  -2.80805E+3
   3.07631E+3  -2.81972E+3
   3.07258E+3  -2.91279E+3
   3.01110E+3  -2.88712E+3
   2.94855E+3  -2.87359E+3
   2.91190E+3  -2.93036E+3
   2.81004E+3  -2.94074E+3
   2.75298E+3  -2.95681E+3
   2.77132E+3  -2.95160E+3
   2.69992E+3  -2.91816E+3
   2.69387E+3  -2.96421E+3
   2.60680E+3  -2.94185E+3
   2.57411E+3  -3.00639E+3
   2.53065E+3  -2.96079E+3
   2.45428E+3  -2.97325E+3
   2.40881E+3  -3.06056E+3
   2.37339E+3  -3.05916E+3
   2.31697E+3  -3.00246E+3
   2.20491E+3  -3.06074E+3
   2.25756E+3  -3.02673E+3
   2.19255E+3  -3.05847E+3
   2.15969E+3  -3.07487E+3
   2.15568E+3  -3.01260E+3
   2.09396E+3  -3.03040E+3
   2.00099E+3  -3.02217E+3
   2.02334E+3  -3.09625E+3
   2.03441E+3  -3.05131E+3
   2.02439E+3  -3.04168E+3
   1.90928E+3  -3.04118E+3
   1.86952E+3  -3.09703E+3
   1.79957E+3  -3.10737E+3
   1.74090E+3  -3.12615E+3
   1.77114E+3  -3.08161E+3
   1.72989E+3  -3.07507E+3
   1.65712E+3  -3.00618E+3
   1.63913E+3  -3.11336E+3
   1.69341E+3  -2.95976E+3
   1.54026E+3  -3.04710E+3
   1.57930E+3  -3.06088E+3
   1.49185E+3  -3.08941E+3
   1.52357E+3  -3.05378E+3
   1.41801E+3  -3.05115E+3
   1.38661E+3  -3.05865E+3
   1.33427E+3  -3.00988E+3
   1.34933E+3  -3.01062E+3
   1.33858E+3  -2.97852E+3
   1.26490E+3  -3.04062E+3
   1.31101E+3  -3.00775E+3
   1.26457E+3  -3.00832E+3
   1.21469E+3  -3.00256E+3
   1.11561E+3  -3.02499E+3
   1.16310E+3  -3.01475E+3
   1.13094E+3  -3.00923E+3
   1.15147E+3  -2.94860E+3
   1.02835E+3  -2.95473E+3
   1.01395E+3  -2.93608E+3
   1.01307E+3  -2.95943E+3
   9.53924E+2  -2.94924E+3
   8.97991E+2  -2.90162E+3
   8.90707E+2  -2.96669E+3
   8.84763E+2  -2.97934E+3
   8.56345E+2  -2.95312E+3
   8.27311E+2  -2.86060E+3
   8.54026E+2  -2.90953E+3
   8.19893E+2  -2.86054E+3
   7.95549E+2  -2.94654E+3
   7.60176E+2  -2.89697E+3
   7.51622E+2  -2.81732E+3
   7.35782E+2  -2.87882E+3
   6.25568E+2  -2.87831E+3
   6.75177E+2  -2.85068E+3
   5.51194E+2  -2.84826E+3
   5.63530E+2  -2.74572E+3
   5.38163E+2  -2.81537E+3
   5.57334E+2  -2.84037E+3
   5.21594E+2  -2.72518E+3
