 LCModel (Version 6.3-1N) Copyright: S.W. Provencher.          Ref.: Magn. Reson. Med. 30:672-679 (1993).                
 Slice_N1@21_21  02-Jun-2023 14:37:30
 27 lines in following concentration table = NCONC+1
    Conc.  %SD /Cr+PCr  Metabolite                                         
 1.84E-06  18% 2.4E-04 Mac                                                 
 4.35E-02  23%   5.629 Cr                                                  
 1.83E-02  55%   2.371 PCr                                                 
 7.59E-02  12%   9.816 Ins                                                 
 7.47E-02   9%   9.671 NAA                                                 
 7.14E-02  11%   9.233 Tau                                                 
 1.59E-02  49%   2.063 PCho                                                
 5.86E-04 999% 7.6E-02 GPC                                                 
 8.05E-02  12%  10.413 Glu                                                 
 2.12E-02  32%   2.747 Gln                                                 
    0.000 999%   0.000 Ala                                                 
 2.11E-02  63%   2.732 Asc                                                 
 5.79E-03 118%   0.749 Asp                                                 
 4.61E-03  82%   0.596 GABA                                                
 5.73E-03  78%   0.742 Glc                                                 
 9.14E-03  42%   1.182 GSH                                                 
 9.45E-03  82%   1.223 Lac                                                 
 2.94E-03 177%   0.380 NAAG                                                
    0.000 999%   0.000 PE                                                  
 1.65E-02  14%   2.138 GPC+PCho                                            
 7.77E-02  10%  10.050 NAA+NAAG                                            
    0.102  11%  13.159 Glu+Gln                                             
 6.18E-02  10%   8.000 Cr+PCr                                              
 7.77E-02  10%  10.050 NAA+NAAG                                            
 6.18E-02  10%   8.000 Cr+PCr                                              
    0.102  11%  13.159 Glu+Gln                                             
   6 lines in following misc. output table
  FWHM = 0.023 ppm    S/N =   3                                            
  Data shift = 0.023 ppm                                                   
  Ph:  35 deg      -6.0 deg/ppm                                            
  alphaB,S = 3.1E+01,   1.7E+01                                            
   18 spline knots.   Ns = 6(1)                                            
   2 inflections.     1 extrema                                            
  654 points on ppm-axis = NY
      4.000000     3.994181     3.988363     3.982544     3.976726     3.970907     3.965088     3.959270     3.953451     3.947633
      3.941814     3.935995     3.930177     3.924358     3.918540     3.912721     3.906902     3.901084     3.895265     3.889446
      3.883628     3.877809     3.871991     3.866172     3.860353     3.854535     3.848716     3.842898     3.837079     3.831260
      3.825442     3.819623     3.813805     3.807986     3.802167     3.796349     3.790530     3.784712     3.778893     3.773074
      3.767256     3.761437     3.755619     3.749800     3.743981     3.738163     3.732344     3.726526     3.720707     3.714888
      3.709070     3.703251     3.697433     3.691614     3.685795     3.679977     3.674158     3.668339     3.662521     3.656702
      3.650884     3.645065     3.639246     3.633428     3.627609     3.621791     3.615972     3.610153     3.604335     3.598516
      3.592698     3.586879     3.581060     3.575242     3.569423     3.563605     3.557786     3.551967     3.546149     3.540330
      3.534512     3.528693     3.522874     3.517056     3.511237     3.505419     3.499600     3.493781     3.487963     3.482144
      3.476326     3.470507     3.464688     3.458870     3.453051     3.447232     3.441414     3.435595     3.429777     3.423958
      3.418139     3.412321     3.406502     3.400684     3.394865     3.389046     3.383228     3.377409     3.371591     3.365772
      3.359953     3.354135     3.348316     3.342498     3.336679     3.330860     3.325042     3.319223     3.313405     3.307586
      3.301767     3.295949     3.290130     3.284312     3.278493     3.272674     3.266856     3.261037     3.255219     3.249400
      3.243581     3.237763     3.231944     3.226125     3.220307     3.214488     3.208670     3.202851     3.197032     3.191214
      3.185395     3.179577     3.173758     3.167939     3.162121     3.156302     3.150484     3.144665     3.138846     3.133028
      3.127209     3.121391     3.115572     3.109753     3.103935     3.098116     3.092298     3.086479     3.080660     3.074842
      3.069023     3.063205     3.057386     3.051567     3.045749     3.039930     3.034111     3.028293     3.022474     3.016656
      3.010837     3.005018     2.999200     2.993381     2.987563     2.981744     2.975925     2.970107     2.964288     2.958470
      2.952651     2.946832     2.941014     2.935195     2.929377     2.923558     2.917739     2.911921     2.906102     2.900284
      2.894465     2.888646     2.882828     2.877009     2.871191     2.865372     2.859553     2.853735     2.847916     2.842098
      2.836279     2.830460     2.824642     2.818823     2.813004     2.807186     2.801367     2.795549     2.789730     2.783911
      2.778093     2.772274     2.766456     2.760637     2.754818     2.749000     2.743181     2.737363     2.731544     2.725725
      2.719907     2.714088     2.708270     2.702451     2.696632     2.690814     2.684995     2.679177     2.673358     2.667539
      2.661721     2.655902     2.650084     2.644265     2.638446     2.632628     2.626809     2.620991     2.615172     2.609353
      2.603535     2.597716     2.591897     2.586079     2.580260     2.574442     2.568623     2.562804     2.556986     2.551167
      2.545349     2.539530     2.533711     2.527893     2.522074     2.516256     2.510437     2.504618     2.498800     2.492981
      2.487163     2.481344     2.475525     2.469707     2.463888     2.458070     2.452251     2.446432     2.440614     2.434795
      2.428977     2.423158     2.417339     2.411521     2.405702     2.399884     2.394065     2.388246     2.382428     2.376609
      2.370790     2.364972     2.359153     2.353335     2.347516     2.341697     2.335879     2.330060     2.324242     2.318423
      2.312604     2.306786     2.300967     2.295149     2.289330     2.283511     2.277693     2.271874     2.266056     2.260237
      2.254418     2.248600     2.242781     2.236963     2.231144     2.225325     2.219507     2.213688     2.207870     2.202051
      2.196232     2.190414     2.184595     2.178777     2.172958     2.167139     2.161321     2.155502     2.149683     2.143865
      2.138046     2.132228     2.126409     2.120590     2.114772     2.108953     2.103135     2.097316     2.091497     2.085679
      2.079860     2.074042     2.068223     2.062404     2.056586     2.050767     2.044949     2.039130     2.033311     2.027493
      2.021674     2.015856     2.010037     2.004218     1.998400     1.992581     1.986763     1.980944     1.975126     1.969307
      1.963489     1.957670     1.951852     1.946033     1.940215     1.934397     1.928578     1.922760     1.916941     1.911123
      1.905304     1.899486     1.893667     1.887849     1.882030     1.876212     1.870393     1.864575     1.858756     1.852938
      1.847119     1.841301     1.835482     1.829664     1.823845     1.818027     1.812208     1.806390     1.800571     1.794753
      1.788934     1.783116     1.777297     1.771479     1.765660     1.759842     1.754023     1.748205     1.742386     1.736568
      1.730749     1.724931     1.719113     1.713294     1.707476     1.701657     1.695839     1.690020     1.684202     1.678383
      1.672565     1.666746     1.660928     1.655109     1.649291     1.643472     1.637654     1.631835     1.626017     1.620198
      1.614380     1.608561     1.602743     1.596924     1.591106     1.585287     1.579469     1.573650     1.567832     1.562013
      1.556195     1.550376     1.544558     1.538739     1.532921     1.527102     1.521284     1.515465     1.509647     1.503829
      1.498010     1.492192     1.486373     1.480555     1.474736     1.468918     1.463099     1.457281     1.451462     1.445644
      1.439825     1.434007     1.428188     1.422370     1.416551     1.410733     1.404914     1.399096     1.393277     1.387459
      1.381640     1.375822     1.370003     1.364185     1.358366     1.352548     1.346729     1.340911     1.335092     1.329274
      1.323455     1.317637     1.311818     1.306000     1.300182     1.294363     1.288545     1.282726     1.276908     1.271089
      1.265271     1.259452     1.253634     1.247815     1.241997     1.236178     1.230360     1.224541     1.218723     1.212904
      1.207086     1.201267     1.195449     1.189630     1.183812     1.177993     1.172175     1.166356     1.160538     1.154719
      1.148901     1.143082     1.137264     1.131445     1.125627     1.119808     1.113990     1.108171     1.102353     1.096534
      1.090716     1.084898     1.079079     1.073261     1.067442     1.061624     1.055805     1.049987     1.044168     1.038350
      1.032531     1.026713     1.020894     1.015076     1.009257     1.003439     0.997620     0.991802     0.985983     0.980165
      0.974346     0.968528     0.962709     0.956891     0.951072     0.945254     0.939435     0.933617     0.927798     0.921980
      0.916161     0.910343     0.904524     0.898706     0.892887     0.887069     0.881251     0.875432     0.869614     0.863795
      0.857977     0.852158     0.846340     0.840521     0.834703     0.828884     0.823066     0.817247     0.811429     0.805610
      0.799792     0.793973     0.788155     0.782336     0.776518     0.770699     0.764881     0.759062     0.753244     0.747425
      0.741607     0.735788     0.729970     0.724151     0.718333     0.712514     0.706696     0.700877     0.695059     0.689240
      0.683422     0.677603     0.671785     0.665967     0.660148     0.654330     0.648511     0.642693     0.636874     0.631056
      0.625237     0.619419     0.613600     0.607782     0.601963     0.596145     0.590326     0.584508     0.578689     0.572871
      0.567052     0.561234     0.555415     0.549597     0.543778     0.537960     0.532141     0.526323     0.520504     0.514686
      0.508867     0.503049     0.497230     0.491412     0.485593     0.479775     0.473956     0.468138     0.462319     0.456501
      0.450682     0.444864     0.439045     0.433227     0.427408     0.421590     0.415771     0.409953     0.404134     0.398316
      0.392497     0.386679     0.380860     0.375042     0.369223     0.363405     0.357586     0.351767     0.345949     0.340130
      0.334312     0.328493     0.322675     0.316856     0.311038     0.305219     0.299401     0.293582     0.287764     0.281945
      0.276127     0.270308     0.264490     0.258671     0.252853     0.247034     0.241216     0.235397     0.229579     0.223760
      0.217942     0.212123     0.206305     0.200486
 NY phased data points follow
  -2.39614E-01  4.10526E-02  3.39880E-01 -3.40941E-01  3.40765E-01  4.83792E-02 -2.80990E-01  1.92061E-01  1.04528E-01  1.59442E-02
  -2.51809E-01  2.10210E-01  4.95481E-01  2.05410E-01  9.33744E-02  5.09523E-01  4.84625E-01  3.00296E-01  2.20593E-01  2.42740E-01
   3.06855E-01  1.00777E-01  2.95606E-01  1.62418E-01 -2.72369E-01 -3.60086E-01  2.31540E-02 -2.61096E-01 -2.95987E-01 -6.44928E-02
  -1.34744E-01  7.71239E-02  1.14693E-01 -2.03364E-01 -5.39466E-01 -3.14623E-02 -2.24253E-01 -3.92017E-01 -4.05750E-01 -4.04892E-01
  -1.77957E-01 -2.73862E-01  1.83975E-01  7.43212E-02  1.44609E-01  3.70137E-01  4.12884E-01  3.60947E-01  1.36998E-01  1.52408E-01
   1.88612E-01  1.22665E-01 -1.53545E-01  2.05304E-01  1.91607E-01  7.65771E-02  6.30216E-02 -2.01451E-01 -1.27817E-01 -2.16166E-01
  -3.04078E-01 -2.79801E-01  1.27132E-02 -1.50901E-01 -4.81516E-01 -3.07025E-01 -1.89913E-01  1.46246E-01  3.70028E-01  1.33214E-01
   3.12490E-01  4.42814E-01  2.82709E-01  8.26825E-02  1.18293E-01  2.81584E-01 -1.98952E-01 -2.26352E-01 -2.77888E-01 -2.02800E-01
  -2.89499E-01 -1.74262E-01  3.24077E-01  7.16970E-02  9.54833E-02 -9.52175E-03  4.48586E-01  3.66846E-01  9.18508E-02  4.25474E-01
   1.91927E-01  1.73122E-01  2.80808E-01  2.43301E-01  1.32876E-01 -3.39607E-03  5.90382E-03  2.40955E-01 -1.90088E-01 -1.74213E-01
  -1.79605E-01 -4.10616E-01 -3.03664E-01 -1.66729E-01  4.17010E-01  2.46217E-01  2.38406E-01  2.81886E-01  3.12619E-01  4.44281E-01
   2.70915E-01  3.63758E-01  3.67766E-01  1.83508E-01 -1.88124E-01  8.30019E-02  6.70744E-01  3.65670E-01  1.62746E-01  2.71485E-01
   1.83625E-01  3.78870E-01  1.12529E-01 -5.35172E-02 -6.02378E-02 -1.50614E-01 -1.90267E-02 -1.97659E-01 -3.80161E-01 -6.21435E-01
  -5.91175E-01 -7.28763E-01 -9.28347E-01 -4.32130E-01 -2.50535E-01 -7.36520E-01 -9.77812E-01 -8.86730E-01 -5.12482E-01 -3.48935E-01
  -5.38748E-01 -3.48867E-01 -3.54038E-01 -3.73100E-01 -5.35429E-02  1.29520E-01 -5.13889E-02 -7.04656E-02  6.39263E-02  2.86997E-02
  -7.55767E-02 -6.09406E-02  2.04571E-01 -6.98106E-03  7.06114E-02  3.23639E-01  1.59414E-01  3.35841E-01  1.78965E-01  9.81262E-02
   4.78894E-01  3.48547E-01  4.02738E-01  6.42317E-01  7.77681E-01  9.01854E-01  5.49278E-01  2.22843E-01 -5.15756E-01 -6.59569E-01
  -3.20354E-01 -7.66176E-01 -8.39861E-01 -5.76467E-01 -4.60693E-01 -4.93409E-01 -8.56338E-02 -2.81768E-01 -4.92342E-01 -3.04593E-01
  -3.43999E-01 -5.11625E-03 -1.72424E-01 -9.75683E-02 -2.96288E-01 -1.45055E-01  1.27991E-01 -3.99251E-01 -1.51519E-01 -5.99510E-02
  -5.35849E-01 -3.23368E-01  7.10143E-02 -1.90667E-01 -1.45418E-01 -2.50282E-01 -2.74541E-01  8.29830E-02  9.20291E-02 -2.71024E-01
  -1.52440E-01 -1.51034E-02 -1.48121E-01  1.74768E-01  7.40911E-02  3.67918E-02 -2.45469E-01  8.02196E-02  6.25478E-02 -3.15402E-01
   2.46189E-01  1.55791E-01  1.48099E-03 -1.18937E-01  5.92327E-02  5.79614E-02 -8.22061E-02  2.49675E-01  2.88966E-01 -2.55983E-02
   1.19434E-01  2.33785E-01 -4.12510E-02 -3.75936E-02 -1.00288E-01  1.95826E-01  2.23824E-01  4.59720E-02  1.87909E-02  1.26279E-01
   2.47609E-01  1.29104E-01  4.19209E-01  4.09304E-01  1.24243E-01 -1.65547E-01 -1.35365E-01  5.33803E-02 -8.36814E-02 -1.15258E-01
  -4.02780E-01 -2.83183E-02  7.27329E-02 -4.98713E-01  2.47227E-03  2.07250E-01 -2.31550E-01 -4.38107E-01  1.10795E-01  2.35261E-01
   4.35723E-03  1.69136E-01  1.19791E-01  7.00224E-02 -4.78796E-01  1.69844E-01  3.13732E-01 -6.53203E-02  3.52558E-01  4.38018E-02
   2.79691E-01  7.72982E-02  8.42048E-02 -5.14414E-03 -2.16129E-01  1.56701E-01  1.24455E-01  1.56423E-01  1.89223E-01  3.38317E-01
   1.55927E-01  5.19666E-01  3.04037E-01  2.32987E-01  2.09536E-01 -4.01852E-01  1.02525E-01 -2.27201E-02 -2.26809E-01 -3.98775E-01
  -3.07958E-01 -1.96954E-01 -5.08442E-01 -4.74515E-01 -1.43097E-01 -2.16865E-01 -8.02772E-02  5.64099E-01  5.54184E-01  6.94406E-01
   2.53811E-01  4.55242E-01  4.37803E-01 -1.05347E-02  6.09398E-01  5.68456E-01  8.02715E-02 -5.12171E-02  8.33075E-02  3.43256E-01
   4.30221E-01  2.47989E-01  3.81622E-01  2.91411E-01  2.89868E-01  1.69703E-01  2.74251E-01  2.45792E-01  2.90402E-01  2.37108E-01
  -1.15740E-01  4.09926E-01  4.28291E-01  2.34014E-01  6.25356E-02 -1.05463E-02 -4.53658E-01 -1.07912E-01 -4.12955E-02 -1.34266E-01
  -4.10046E-02 -1.84038E-01 -5.98111E-02 -7.09973E-01 -1.46263E-01 -3.23175E-01 -1.49744E-01  2.78044E-01  2.02470E-01  2.92155E-02
  -2.08390E-01  3.53619E-01  4.09445E-02  2.07489E-01 -7.76053E-03 -2.31050E-01 -1.47826E-01 -3.69856E-01 -1.68499E-01 -2.96868E-01
  -5.03067E-01 -4.28431E-01 -1.16728E+00 -1.51179E+00 -1.03463E+00 -5.90718E-01 -4.77053E-01 -4.63410E-01  1.16613E-01 -3.43344E-01
  -2.94465E-01  1.59399E-01  2.33582E-01  3.73086E-01  4.52238E-01  6.79075E-02 -1.08840E-01  2.14897E-01  5.12226E-03  1.51832E-01
   1.34849E-01  1.54634E-01 -1.97729E-01 -1.65411E-01  8.94607E-02  4.92056E-02  1.94655E-02  1.08201E-02  1.85265E-01  1.63729E-01
   1.45562E-01 -7.05536E-02  3.31726E-01  1.39658E-01  9.75615E-02  3.47200E-01  1.58726E-01  2.60372E-01 -4.74440E-02  8.54980E-02
   2.93587E-02  7.85084E-02  3.87574E-01 -1.14975E-01  3.13206E-01  4.24759E-01  5.89165E-02 -8.25354E-03 -1.52324E-01  3.80830E-01
  -5.63526E-03  7.62379E-02  2.07747E-01 -3.88098E-02  2.12420E-01  6.44111E-03  3.42228E-02  7.57346E-02  1.76795E-01  3.36515E-01
   1.40246E-01 -1.95799E-01 -1.69360E-01 -2.12451E-01  1.55411E-01  1.13542E-01 -1.47688E-01  1.97991E-01  1.35022E-01  2.66997E-02
  -1.64540E-01 -2.64923E-01 -2.43145E-01 -1.01212E-01 -2.29859E-01 -3.29092E-01 -1.40672E-01 -2.84588E-01 -4.05364E-01 -2.61254E-01
  -3.67359E-01 -3.52067E-01  9.99381E-03 -3.03341E-02 -3.86174E-01 -1.98371E-01  9.02713E-02 -4.39525E-02  5.23570E-02  4.02151E-02
  -6.17209E-02 -9.76207E-02 -2.25384E-01 -3.52156E-01  1.50183E-01  2.95198E-01  3.01082E-01  7.53635E-02 -2.99725E-01  2.18285E-01
   1.09824E-01 -3.45770E-03 -1.28670E-02  1.95021E-02 -1.10308E-01 -1.00276E-01  1.33650E-01  1.46624E-01 -5.88898E-02  6.21061E-02
   1.65557E-01 -1.49859E-01  4.17103E-01  3.10198E-01  4.19748E-02  8.63527E-02 -1.06849E-01 -3.12908E-01 -5.30331E-02  2.90120E-01
   1.41992E-01  6.18107E-02  4.33657E-01  3.23288E-01  2.36707E-02  3.60189E-01 -2.57579E-01 -9.25886E-03 -1.07102E-01 -2.13501E-01
   7.60998E-03 -3.27492E-01  2.41726E-01 -8.22866E-02 -7.14721E-02 -1.32910E-01 -1.57480E-01  2.81440E-01 -1.27476E-01  2.63376E-02
   5.92205E-03  6.90309E-02  1.72855E-01 -1.38421E-01  2.57875E-01 -1.26021E-01 -2.95460E-01  7.77372E-02  2.95505E-01  8.21743E-02
  -2.40182E-01 -3.46658E-02 -3.12847E-02  3.24131E-01 -9.59807E-02  3.72917E-03 -7.82849E-02 -1.69527E-01  2.37561E-01 -4.94194E-02
   3.34323E-04  1.07846E-02  1.99432E-01 -4.84816E-02  2.98895E-02 -7.06760E-02  1.45105E-01  2.82862E-01 -2.41462E-01  8.15995E-02
   1.07092E-01  5.39037E-02  1.27328E-01  1.35945E-01  1.44454E-01  5.44733E-02 -2.68383E-02  3.87518E-01  1.49733E-01 -1.97134E-01
   1.02136E-01  6.25239E-03 -9.08409E-02 -4.95089E-01 -1.99822E-01 -2.10166E-01 -5.63406E-01 -4.29048E-02 -3.74894E-01 -4.54451E-01
  -3.19602E-01 -2.70809E-01 -2.17036E-01 -2.27309E-01  3.24207E-02 -2.27211E-01  1.35819E-02 -2.99450E-01 -2.30806E-01  1.83328E-01
  -7.60095E-02  4.47196E-02 -1.12181E-01 -7.74743E-02  9.41594E-02  4.09427E-01 -5.47838E-02 -2.37270E-01  1.65698E-01  2.41256E-01
   4.59434E-02 -2.89441E-01  2.47088E-01  5.24298E-02 -7.33037E-03  2.62223E-01  2.27250E-02  2.22399E-01  1.54518E-01  2.30859E-01
   2.72517E-01 -6.35771E-02 -5.56831E-02  2.59031E-03  6.84100E-03  1.26299E-01  3.64819E-01  2.24840E-01  7.93891E-02 -5.56878E-02
  -1.20494E-01  1.15444E-01 -1.19390E-01 -7.72889E-02 -3.35809E-02 -1.79132E-01 -1.75946E-01 -7.38985E-02 -1.88597E-02  4.66953E-02
  -7.70736E-02 -2.89701E-01  1.16200E-01  5.06126E-02  2.46058E-01  2.30657E-01  1.39525E-01  5.73240E-01  1.36736E-01  1.52887E-01
  -4.76007E-03  5.38616E-02  2.96858E-01 -1.34032E-01  1.00142E-01  2.07025E-01  2.50484E-01 -3.10170E-02 -6.35521E-02 -3.16842E-02
   1.66848E-02  2.99741E-01  2.30240E-01  3.33742E-01 -8.83811E-02  7.96470E-02  6.05258E-02  1.45034E-01  2.62060E-01  9.09588E-02
   4.02417E-01  1.85364E-01  2.28089E-01  1.92321E-01 -8.88816E-02 -1.56836E-01  3.62322E-02  1.90182E-01  5.62056E-01  2.30461E-01
   1.00963E-01  2.52287E-01  7.70241E-02  1.99161E-01  1.59160E-02  1.80473E-01 -2.86924E-02  3.05410E-01  2.01090E-01  4.50608E-02
   2.77169E-01  1.12657E-01  4.83995E-01  3.19249E-01  2.40349E-03 -2.35720E-01 -1.16434E-01  1.58174E-01  1.75987E-01 -1.61934E-01
  -8.54455E-02  8.73504E-02  1.78160E-02  3.22888E-01  9.28134E-02  1.25001E-01  1.86663E-01  2.02293E-02  2.02755E-01 -4.02735E-02
   1.10968E-01  4.43492E-01  8.59102E-02  2.40439E-02
 NY points of the fit to the data follow
   9.51379E-02  8.88739E-02  7.54453E-02  6.04270E-02  4.74335E-02  3.91482E-02  3.29365E-02  3.64124E-02  4.38427E-02  5.41365E-02
   1.08356E-01  2.04176E-01  2.71664E-01  3.02860E-01  3.76605E-01  4.91290E-01  5.08096E-01  3.90966E-01  2.76697E-01  2.07719E-01
   1.43077E-01  7.96728E-02  3.17844E-02 -4.98296E-03 -2.96080E-02 -4.90155E-02 -6.48655E-02 -7.82679E-02 -8.96724E-02 -1.00159E-01
  -1.09728E-01 -1.18984E-01 -1.30966E-01 -1.48299E-01 -1.69726E-01 -1.93104E-01 -2.15890E-01 -2.31568E-01 -2.30378E-01 -1.93127E-01
  -1.17360E-01 -2.57804E-02  6.38336E-02  1.49499E-01  2.37214E-01  3.13014E-01  3.47709E-01  3.40371E-01  3.07691E-01  2.64513E-01
   2.23837E-01  1.73250E-01  1.24105E-01  8.17843E-02  3.62709E-02 -1.05556E-02 -5.72138E-02 -1.05842E-01 -1.60109E-01 -2.04831E-01
  -2.37272E-01 -2.68191E-01 -2.64035E-01 -2.31225E-01 -2.11949E-01 -1.84454E-01 -9.49778E-02  5.19824E-02  1.66106E-01  2.30355E-01
   3.12066E-01  3.44596E-01  2.99950E-01  2.56704E-01  2.02240E-01  1.28189E-01  4.26178E-02 -4.47655E-02 -1.61899E-01 -3.05784E-01
  -3.71917E-01 -3.02457E-01 -1.72593E-01 -6.24734E-02  6.91745E-02  2.44366E-01  3.51125E-01  3.64986E-01  3.64274E-01  3.49356E-01
   3.19101E-01  2.83623E-01  2.43611E-01  1.97026E-01  1.48655E-01  7.76124E-02 -2.36386E-02 -1.51506E-01 -2.84838E-01 -3.70252E-01
  -3.67786E-01 -2.70532E-01 -1.14240E-01  3.27863E-02  1.47965E-01  2.30990E-01  2.69055E-01  3.02174E-01  3.06248E-01  3.05631E-01
   2.99385E-01  2.93270E-01  2.87404E-01  2.82008E-01  2.77082E-01  2.73079E-01  2.69796E-01  2.67942E-01  2.60677E-01  2.52421E-01
   2.44954E-01  2.08571E-01  1.52459E-01  9.66099E-02  4.21979E-02 -4.37848E-02 -1.54768E-01 -2.60896E-01 -3.87000E-01 -5.38146E-01
  -6.07079E-01 -5.95839E-01 -5.27392E-01 -4.24325E-01 -4.50981E-01 -6.78272E-01 -9.33419E-01 -9.05979E-01 -6.76522E-01 -5.08064E-01
  -4.08943E-01 -2.65098E-01 -1.52022E-01 -6.04894E-02 -5.86361E-03  3.04980E-02  5.87995E-02  8.19744E-02  1.01659E-01  1.18840E-01
   1.34446E-01  1.49257E-01  1.63463E-01  1.77541E-01  1.92554E-01  2.08834E-01  2.26792E-01  2.46765E-01  2.68833E-01  2.94208E-01
   3.26190E-01  3.77075E-01  4.51112E-01  5.10585E-01  5.87632E-01  6.70484E-01  5.62546E-01  1.41744E-01 -3.66256E-01 -6.14701E-01
  -6.07763E-01 -5.98597E-01 -5.98751E-01 -5.29639E-01 -4.57262E-01 -3.83229E-01 -3.29574E-01 -2.92015E-01 -2.70799E-01 -2.55206E-01
  -2.37989E-01 -2.18489E-01 -2.02810E-01 -1.92882E-01 -1.86781E-01 -1.80456E-01 -1.74380E-01 -1.66572E-01 -1.58709E-01 -1.53300E-01
  -1.46047E-01 -1.37488E-01 -1.27913E-01 -1.19323E-01 -1.10607E-01 -1.02388E-01 -9.45100E-02 -8.66069E-02 -7.89288E-02 -7.19774E-02
  -6.47067E-02 -5.67905E-02 -5.02658E-02 -4.77136E-02 -4.83024E-02 -4.68093E-02 -4.15145E-02 -3.72160E-02 -3.84673E-02 -4.40684E-02
  -4.77703E-02 -4.76305E-02 -4.64659E-02 -4.49304E-02 -4.26421E-02 -3.93042E-02 -3.53641E-02 -3.23964E-02 -3.11586E-02 -3.12103E-02
  -2.67147E-02 -1.64534E-02 -3.41223E-03  2.18953E-02  7.05769E-02  1.32434E-01  1.68402E-01  1.59480E-01  1.58982E-01  2.11876E-01
   2.71964E-01  2.63966E-01  1.84754E-01  1.08270E-01  6.28241E-02  1.99039E-02 -1.97933E-02 -4.68845E-02 -6.52402E-02 -7.58950E-02
  -8.44510E-02 -9.12254E-02 -9.62847E-02 -9.96964E-02 -1.03077E-01 -1.06264E-01 -1.08887E-01 -1.10587E-01 -1.10452E-01 -1.09863E-01
  -1.10556E-01 -1.17330E-01 -1.24991E-01 -1.33267E-01 -1.46829E-01 -1.38545E-01 -9.87788E-02 -5.72750E-02 -3.56970E-02 -1.38579E-02
   3.82584E-02  7.63539E-02  7.15104E-02  7.05640E-02  8.13808E-02  9.24965E-02  9.59618E-02  9.22576E-02  1.03122E-01  1.08277E-01
   1.02564E-01  8.32694E-02  5.47623E-02  2.54208E-02 -1.03421E-02 -4.38102E-02 -8.24037E-02 -1.24317E-01 -1.69505E-01 -2.21170E-01
  -2.85035E-01 -3.46215E-01 -3.84382E-01 -3.65586E-01 -2.68026E-01 -1.11025E-01  6.97197E-02  2.25741E-01  3.31761E-01  3.86591E-01
   3.82368E-01  3.55172E-01  3.26708E-01  2.90282E-01  2.63709E-01  2.44664E-01  2.32582E-01  2.23752E-01  2.14521E-01  2.06269E-01
   1.96838E-01  1.89081E-01  1.79938E-01  1.71762E-01  1.63648E-01  1.55136E-01  1.45676E-01  1.34708E-01  1.21856E-01  1.06676E-01
   8.94282E-02  7.11327E-02  5.07863E-02  2.76154E-02  3.73227E-05 -3.54127E-02 -8.07313E-02 -1.36997E-01 -1.94530E-01 -2.43570E-01
  -2.82207E-01 -3.07990E-01 -3.16155E-01 -3.06042E-01 -2.79328E-01 -2.36971E-01 -1.80818E-01 -1.14919E-01 -5.46821E-02 -1.38223E-02
  -6.13863E-04 -1.43289E-02 -4.83243E-02 -8.86715E-02 -1.29901E-01 -1.64904E-01 -1.85609E-01 -1.89986E-01 -2.14437E-01 -2.43713E-01
  -3.43321E-01 -6.71699E-01 -1.12191E+00 -1.31899E+00 -1.09535E+00 -7.51024E-01 -5.73842E-01 -4.24903E-01 -2.38269E-01 -1.20935E-01
  -4.02281E-02 -7.27639E-03  1.26464E-02  2.56044E-02  3.48258E-02  4.15842E-02  4.63223E-02  4.85107E-02  4.78289E-02  4.49363E-02
   4.02327E-02  3.47218E-02  2.94462E-02  2.52042E-02  2.33692E-02  2.46129E-02  2.74609E-02  3.20586E-02  3.69343E-02  4.22894E-02
   4.77024E-02  5.31217E-02  5.84728E-02  6.30151E-02  6.64379E-02  6.92979E-02  7.23749E-02  7.54547E-02  7.81545E-02  8.04094E-02
   8.22042E-02  8.40939E-02  8.63107E-02  8.84378E-02  9.03262E-02  9.15626E-02  9.23017E-02  9.31043E-02  9.46318E-02  9.65832E-02
   9.86360E-02  1.00360E-01  1.01401E-01  1.01152E-01  9.97505E-02  9.78184E-02  9.55064E-02  9.30682E-02  8.99994E-02  8.60688E-02
   8.14446E-02  7.65161E-02  7.11479E-02  6.51202E-02  5.88807E-02  5.33750E-02  4.83643E-02  4.31815E-02  3.79767E-02  3.32757E-02
   2.91268E-02  2.54973E-02  2.22240E-02  1.93283E-02  1.65090E-02  1.39604E-02  1.16692E-02  9.37954E-03  7.59677E-03  6.29152E-03
   5.08263E-03  4.07572E-03  3.75447E-03  4.35899E-03  5.65263E-03  7.35871E-03  9.88968E-03  1.31933E-02  1.69931E-02  2.11485E-02
   2.47678E-02  2.72239E-02  2.94583E-02  3.28226E-02  3.75458E-02  4.28263E-02  4.82540E-02  5.36814E-02  5.93664E-02  6.59314E-02
   7.33541E-02  8.12851E-02  8.94775E-02  9.77477E-02  1.06179E-01  1.14580E-01  1.22702E-01  1.29936E-01  1.35380E-01  1.38921E-01
   1.40790E-01  1.41073E-01  1.40127E-01  1.37890E-01  1.34049E-01  1.28373E-01  1.23362E-01  1.16442E-01  1.12942E-01  1.22676E-01
   1.46791E-01  1.75916E-01  1.93453E-01  1.91605E-01  1.73578E-01  1.45898E-01  1.21836E-01  1.03856E-01  8.33463E-02  6.97119E-02
   5.90534E-02  5.19901E-02  4.64856E-02  4.23719E-02  4.01690E-02  3.95903E-02  3.99105E-02  4.07996E-02  4.26789E-02  4.54254E-02
   4.85628E-02  5.22540E-02  5.63269E-02  5.99279E-02  6.28774E-02  6.53081E-02  6.71114E-02  6.84313E-02  6.99312E-02  7.17471E-02
   7.31053E-02  7.33172E-02  7.25382E-02  7.13911E-02  6.97837E-02  6.74040E-02  6.43313E-02  6.10423E-02  5.82233E-02  5.54757E-02
   5.22987E-02  4.90944E-02  4.58541E-02  4.26973E-02  3.94029E-02  3.58162E-02  3.21497E-02  2.89318E-02  2.64497E-02  2.39483E-02
   2.08941E-02  1.76441E-02  1.42192E-02  9.95542E-03  4.62052E-03 -1.32715E-03 -7.35767E-03 -1.38392E-02 -2.14312E-02 -3.06480E-02
  -4.16790E-02 -5.38760E-02 -6.63610E-02 -7.88489E-02 -9.13583E-02 -1.03658E-01 -1.14806E-01 -1.24419E-01 -1.33187E-01 -1.40770E-01
  -1.45957E-01 -1.48060E-01 -1.48209E-01 -1.47216E-01 -1.44487E-01 -1.39359E-01 -1.32876E-01 -1.26169E-01 -1.19426E-01 -1.12786E-01
  -1.06099E-01 -9.88142E-02 -9.08970E-02 -8.27092E-02 -7.41506E-02 -6.49193E-02 -5.54146E-02 -4.62008E-02 -3.70757E-02 -2.82632E-02
  -1.99787E-02 -1.18137E-02 -3.68555E-03  3.72790E-03  9.79657E-03  1.55382E-02  2.19072E-02  2.77541E-02  3.22105E-02  3.57410E-02
   3.94274E-02  4.32879E-02  4.62750E-02  4.84801E-02  5.05294E-02  5.22751E-02  5.40003E-02  5.53737E-02  5.59432E-02  5.67270E-02
   5.82328E-02  5.99929E-02  6.16540E-02  6.34699E-02  6.53184E-02  6.64099E-02  6.70165E-02  6.76239E-02  6.79911E-02  6.81481E-02
   6.83023E-02  6.84633E-02  6.84011E-02  6.84539E-02  6.89711E-02  6.94177E-02  6.98427E-02  7.08457E-02  7.18665E-02  7.16914E-02
   7.02993E-02  6.92984E-02  6.98994E-02  7.07681E-02  7.07083E-02  7.08266E-02  7.16788E-02  7.21880E-02  7.18613E-02  7.17209E-02
   7.27959E-02  7.44288E-02  7.56524E-02  7.67270E-02  7.80283E-02  7.97954E-02  8.15949E-02  8.31629E-02  8.44970E-02  8.59637E-02
   8.75222E-02  8.83357E-02  8.84419E-02  8.88101E-02  8.99278E-02  9.14546E-02  9.30925E-02  9.49739E-02  9.70126E-02  9.86500E-02
   1.00386E-01  1.02655E-01  1.05613E-01  1.08610E-01  1.10783E-01  1.12079E-01  1.12919E-01  1.13989E-01  1.15926E-01  1.18226E-01
   1.20100E-01  1.21552E-01  1.22962E-01  1.24877E-01  1.27267E-01  1.29711E-01  1.31835E-01  1.33868E-01  1.36783E-01  1.40586E-01
   1.44049E-01  1.46878E-01  1.50106E-01  1.54027E-01  1.57977E-01  1.61941E-01  1.66541E-01  1.72252E-01  1.78874E-01  1.85249E-01
   1.91205E-01  1.97346E-01  2.03576E-01  2.10162E-01
 NY background values follow
     7.333E-02    7.309E-02    7.286E-02    7.262E-02    7.238E-02    7.215E-02    7.191E-02    7.167E-02    7.144E-02    7.120E-02
     7.096E-02    7.073E-02    7.049E-02    7.025E-02    7.002E-02    6.978E-02    6.954E-02    6.930E-02    6.907E-02    6.883E-02
     6.859E-02    6.836E-02    6.812E-02    6.788E-02    6.765E-02    6.741E-02    6.717E-02    6.694E-02    6.670E-02    6.646E-02
     6.622E-02    6.599E-02    6.575E-02    6.551E-02    6.528E-02    6.504E-02    6.480E-02    6.457E-02    6.433E-02    6.409E-02
     6.386E-02    6.362E-02    6.338E-02    6.315E-02    6.291E-02    6.267E-02    6.243E-02    6.220E-02    6.196E-02    6.172E-02
     6.149E-02    6.125E-02    6.101E-02    6.078E-02    6.054E-02    6.030E-02    6.007E-02    5.983E-02    5.959E-02    5.935E-02
     5.912E-02    5.888E-02    5.864E-02    5.841E-02    5.817E-02    5.793E-02    5.770E-02    5.746E-02    5.722E-02    5.699E-02
