 LCModel (Version 6.3-1N) Copyright: S.W. Provencher.          Ref.: Magn. Reson. Med. 30:672-679 (1993).                
 Slice_N1@21_10  02-Jun-2023 14:37:30
 27 lines in following concentration table = NCONC+1
    Conc.  %SD /Cr+PCr  Metabolite                                         
 2.68E-06  13% 2.5E-04 Mac                                                 
 7.35E-02  34%   6.984 Cr                                                  
 1.07E-02 230%   1.016 PCr                                                 
 7.82E-02  13%   7.431 Ins                                                 
    0.134   6%  12.701 NAA                                                 
 8.35E-02  12%   7.937 Tau                                                 
 6.98E-03 131%   0.664 PCho                                                
 6.67E-03 146%   0.634 GPC                                                 
 9.67E-02  11%   9.188 Glu                                                 
 3.04E-02  28%   2.892 Gln                                                 
    0.000 999%   0.000 Ala                                                 
 3.29E-02  48%   3.126 Asc                                                 
 3.16E-02  31%   3.001 Asp                                                 
 1.72E-02  30%   1.630 GABA                                                
 1.64E-02  41%   1.555 Glc                                                 
 1.64E-02  33%   1.560 GSH                                                 
    0.000 999%   0.000 Lac                                                 
 1.75E-03 408%   0.167 NAAG                                                
    0.000 999%   0.000 PE                                                  
 1.37E-02  19%   1.298 GPC+PCho                                            
    0.135   6%  12.868 NAA+NAAG                                            
    0.127  11%  12.080 Glu+Gln                                             
 8.42E-02   9%   8.000 Cr+PCr                                              
    0.135   6%  12.868 NAA+NAAG                                            
 8.42E-02   9%   8.000 Cr+PCr                                              
    0.127  11%  12.080 Glu+Gln                                             
   6 lines in following misc. output table
  FWHM = 0.047 ppm    S/N =   4                                            
  Data shift = 0.012 ppm                                                   
  Ph: -40 deg      -9.5 deg/ppm                                            
  alphaB,S = 1.0E+00,   4.2E+01                                            
   18 spline knots.   Ns = 7(1)                                            
  ( 6) 2 infls.   ( 2) 1 extrs.                                            
  654 points on ppm-axis = NY
      4.000000     3.994181     3.988363     3.982544     3.976726     3.970907     3.965088     3.959270     3.953451     3.947633
      3.941814     3.935995     3.930177     3.924358     3.918540     3.912721     3.906902     3.901084     3.895265     3.889446
      3.883628     3.877809     3.871991     3.866172     3.860353     3.854535     3.848716     3.842898     3.837079     3.831260
      3.825442     3.819623     3.813805     3.807986     3.802167     3.796349     3.790530     3.784712     3.778893     3.773074
      3.767256     3.761437     3.755619     3.749800     3.743981     3.738163     3.732344     3.726526     3.720707     3.714888
      3.709070     3.703251     3.697433     3.691614     3.685795     3.679977     3.674158     3.668339     3.662521     3.656702
      3.650884     3.645065     3.639246     3.633428     3.627609     3.621791     3.615972     3.610153     3.604335     3.598516
      3.592698     3.586879     3.581060     3.575242     3.569423     3.563605     3.557786     3.551967     3.546149     3.540330
      3.534512     3.528693     3.522874     3.517056     3.511237     3.505419     3.499600     3.493781     3.487963     3.482144
      3.476326     3.470507     3.464688     3.458870     3.453051     3.447232     3.441414     3.435595     3.429777     3.423958
      3.418139     3.412321     3.406502     3.400684     3.394865     3.389046     3.383228     3.377409     3.371591     3.365772
      3.359953     3.354135     3.348316     3.342498     3.336679     3.330860     3.325042     3.319223     3.313405     3.307586
      3.301767     3.295949     3.290130     3.284312     3.278493     3.272674     3.266856     3.261037     3.255219     3.249400
      3.243581     3.237763     3.231944     3.226125     3.220307     3.214488     3.208670     3.202851     3.197032     3.191214
      3.185395     3.179577     3.173758     3.167939     3.162121     3.156302     3.150484     3.144665     3.138846     3.133028
      3.127209     3.121391     3.115572     3.109753     3.103935     3.098116     3.092298     3.086479     3.080660     3.074842
      3.069023     3.063205     3.057386     3.051567     3.045749     3.039930     3.034111     3.028293     3.022474     3.016656
      3.010837     3.005018     2.999200     2.993381     2.987563     2.981744     2.975925     2.970107     2.964288     2.958470
      2.952651     2.946832     2.941014     2.935195     2.929377     2.923558     2.917739     2.911921     2.906102     2.900284
      2.894465     2.888646     2.882828     2.877009     2.871191     2.865372     2.859553     2.853735     2.847916     2.842098
      2.836279     2.830460     2.824642     2.818823     2.813004     2.807186     2.801367     2.795549     2.789730     2.783911
      2.778093     2.772274     2.766456     2.760637     2.754818     2.749000     2.743181     2.737363     2.731544     2.725725
      2.719907     2.714088     2.708270     2.702451     2.696632     2.690814     2.684995     2.679177     2.673358     2.667539
      2.661721     2.655902     2.650084     2.644265     2.638446     2.632628     2.626809     2.620991     2.615172     2.609353
      2.603535     2.597716     2.591897     2.586079     2.580260     2.574442     2.568623     2.562804     2.556986     2.551167
      2.545349     2.539530     2.533711     2.527893     2.522074     2.516256     2.510437     2.504618     2.498800     2.492981
      2.487163     2.481344     2.475525     2.469707     2.463888     2.458070     2.452251     2.446432     2.440614     2.434795
      2.428977     2.423158     2.417339     2.411521     2.405702     2.399884     2.394065     2.388246     2.382428     2.376609
      2.370790     2.364972     2.359153     2.353335     2.347516     2.341697     2.335879     2.330060     2.324242     2.318423
      2.312604     2.306786     2.300967     2.295149     2.289330     2.283511     2.277693     2.271874     2.266056     2.260237
      2.254418     2.248600     2.242781     2.236963     2.231144     2.225325     2.219507     2.213688     2.207870     2.202051
      2.196232     2.190414     2.184595     2.178777     2.172958     2.167139     2.161321     2.155502     2.149683     2.143865
      2.138046     2.132228     2.126409     2.120590     2.114772     2.108953     2.103135     2.097316     2.091497     2.085679
      2.079860     2.074042     2.068223     2.062404     2.056586     2.050767     2.044949     2.039130     2.033311     2.027493
      2.021674     2.015856     2.010037     2.004218     1.998400     1.992581     1.986763     1.980944     1.975126     1.969307
      1.963489     1.957670     1.951852     1.946033     1.940215     1.934397     1.928578     1.922760     1.916941     1.911123
      1.905304     1.899486     1.893667     1.887849     1.882030     1.876212     1.870393     1.864575     1.858756     1.852938
      1.847119     1.841301     1.835482     1.829664     1.823845     1.818027     1.812208     1.806390     1.800571     1.794753
      1.788934     1.783116     1.777297     1.771479     1.765660     1.759842     1.754023     1.748205     1.742386     1.736568
      1.730749     1.724931     1.719113     1.713294     1.707476     1.701657     1.695839     1.690020     1.684202     1.678383
      1.672565     1.666746     1.660928     1.655109     1.649291     1.643472     1.637654     1.631835     1.626017     1.620198
      1.614380     1.608561     1.602743     1.596924     1.591106     1.585287     1.579469     1.573650     1.567832     1.562013
      1.556195     1.550376     1.544558     1.538739     1.532921     1.527102     1.521284     1.515465     1.509647     1.503829
      1.498010     1.492192     1.486373     1.480555     1.474736     1.468918     1.463099     1.457281     1.451462     1.445644
      1.439825     1.434007     1.428188     1.422370     1.416551     1.410733     1.404914     1.399096     1.393277     1.387459
      1.381640     1.375822     1.370003     1.364185     1.358366     1.352548     1.346729     1.340911     1.335092     1.329274
      1.323455     1.317637     1.311818     1.306000     1.300182     1.294363     1.288545     1.282726     1.276908     1.271089
      1.265271     1.259452     1.253634     1.247815     1.241997     1.236178     1.230360     1.224541     1.218723     1.212904
      1.207086     1.201267     1.195449     1.189630     1.183812     1.177993     1.172175     1.166356     1.160538     1.154719
      1.148901     1.143082     1.137264     1.131445     1.125627     1.119808     1.113990     1.108171     1.102353     1.096534
      1.090716     1.084898     1.079079     1.073261     1.067442     1.061624     1.055805     1.049987     1.044168     1.038350
      1.032531     1.026713     1.020894     1.015076     1.009257     1.003439     0.997620     0.991802     0.985983     0.980165
      0.974346     0.968528     0.962709     0.956891     0.951072     0.945254     0.939435     0.933617     0.927798     0.921980
      0.916161     0.910343     0.904524     0.898706     0.892887     0.887069     0.881251     0.875432     0.869614     0.863795
      0.857977     0.852158     0.846340     0.840521     0.834703     0.828884     0.823066     0.817247     0.811429     0.805610
      0.799792     0.793973     0.788155     0.782336     0.776518     0.770699     0.764881     0.759062     0.753244     0.747425
      0.741607     0.735788     0.729970     0.724151     0.718333     0.712514     0.706696     0.700877     0.695059     0.689240
      0.683422     0.677603     0.671785     0.665967     0.660148     0.654330     0.648511     0.642693     0.636874     0.631056
      0.625237     0.619419     0.613600     0.607782     0.601963     0.596145     0.590326     0.584508     0.578689     0.572871
      0.567052     0.561234     0.555415     0.549597     0.543778     0.537960     0.532141     0.526323     0.520504     0.514686
      0.508867     0.503049     0.497230     0.491412     0.485593     0.479775     0.473956     0.468138     0.462319     0.456501
      0.450682     0.444864     0.439045     0.433227     0.427408     0.421590     0.415771     0.409953     0.404134     0.398316
      0.392497     0.386679     0.380860     0.375042     0.369223     0.363405     0.357586     0.351767     0.345949     0.340130
      0.334312     0.328493     0.322675     0.316856     0.311038     0.305219     0.299401     0.293582     0.287764     0.281945
      0.276127     0.270308     0.264490     0.258671     0.252853     0.247034     0.241216     0.235397     0.229579     0.223760
      0.217942     0.212123     0.206305     0.200486
 NY phased data points follow
  -4.60389E-01 -1.44403E-01 -7.92332E-02 -2.83213E-01 -2.95692E-01 -8.67271E-02 -4.17455E-01 -3.99948E-01  1.24601E-01 -3.01477E-02
   7.45511E-02  1.46738E-01  4.60332E-01  3.69983E-01  4.41615E-01  5.01379E-01  6.24139E-01  6.36313E-01  3.07984E-01  4.75460E-01
   2.39155E-01  5.01892E-01  2.19166E-01 -3.11869E-01 -2.94023E-01  7.11367E-02 -1.68487E-01 -5.31197E-01 -4.36334E-02 -3.85461E-01
  -1.99954E-01 -3.24251E-02 -3.21120E-01 -3.50747E-01 -2.12815E-01 -7.52342E-02 -6.51393E-01 -4.39151E-01 -1.59804E-01 -4.32833E-01
  -2.00886E-01 -1.56371E-01  3.80250E-02  2.71765E-01  4.82125E-01  5.85405E-01  2.46494E-01  3.77854E-01  4.82314E-01  2.02901E-01
   3.31609E-01  4.02503E-01  1.23647E-01  2.76852E-01  1.00790E-01 -1.64035E-01 -1.15903E-02 -7.91629E-02 -2.88544E-01 -1.81632E-01
  -1.66289E-01 -3.96432E-01  2.62951E-02 -1.97935E-02 -1.49116E-01  7.31439E-02  9.32779E-02 -1.06115E-02 -5.41603E-02  1.43991E-01
   7.17703E-02  2.90655E-01  2.73545E-01  9.65691E-02  2.47924E-01 -6.14899E-02 -2.25027E-01 -1.24529E-01 -4.57719E-01 -5.10202E-01
  -3.84066E-01 -5.40986E-01 -2.10960E-01  2.03352E-01 -5.70076E-02 -1.15860E-02  7.23238E-02  3.54319E-03  3.04231E-01  2.42793E-01
   2.32487E-01  5.80626E-02 -2.78486E-02  6.32217E-02  7.32963E-02 -3.28947E-01 -4.08005E-01  9.54348E-02 -3.37199E-01 -2.89958E-01
  -1.62876E-01 -3.12621E-01 -1.19811E-01  1.45458E-01  2.27349E-02 -4.33010E-02  2.91021E-01  1.02815E-01  3.97108E-01  4.68982E-01
   2.21177E-01  3.98269E-01  4.44970E-01  4.36334E-01  2.77093E-01  2.95615E-01  2.62571E-01  1.66117E-01  3.70811E-01  3.70848E-01
   2.01883E-01  6.74848E-03  1.16997E-01  2.63306E-01  2.55591E-01  6.69071E-02 -1.83432E-01 -6.61943E-02 -2.37016E-01 -4.29403E-01
  -6.89830E-01 -7.18522E-01 -6.26449E-01 -5.10599E-01 -6.59785E-01 -7.44683E-01 -8.36912E-01 -8.91939E-01  6.26769E-03 -4.40647E-01
  -4.79752E-01 -2.05401E-01 -2.45932E-01  2.22234E-01 -9.76556E-03  7.83477E-02  3.29922E-01  3.12573E-01 -2.67920E-02  8.98548E-02
  -4.81921E-02 -5.20483E-02  3.17629E-01  3.19847E-01  2.23278E-01  2.45569E-01  4.34211E-01  2.41909E-01  4.25471E-01  4.97461E-01
   5.93397E-01  6.35585E-01  7.81807E-01  9.94654E-01  1.04357E+00  8.38568E-01  5.32729E-01  4.85449E-01 -1.07170E-01  2.10508E-02
  -3.56699E-01 -6.39536E-01 -4.69273E-01 -8.03601E-01 -6.70604E-01 -7.84211E-01 -4.37088E-01 -2.85149E-01 -3.01589E-01 -4.48641E-01
  -5.47530E-01 -3.16226E-01 -4.47047E-01 -2.86299E-01 -4.47697E-01 -3.75230E-01 -2.54281E-01 -1.95654E-01 -4.05977E-03 -3.95552E-01
  -5.67925E-01 -3.06870E-01 -2.01690E-01 -4.22194E-01 -3.23890E-01 -1.39145E-01 -1.69298E-01  6.34580E-02  3.13932E-02 -2.25784E-01
  -6.70285E-02 -1.26799E-01  1.92640E-01  2.65628E-01 -2.28041E-01  7.55906E-02  5.21588E-02 -6.73730E-03  1.84456E-01  2.85179E-01
   1.34861E-01  7.52050E-02  1.46602E-01 -1.15313E-01 -4.10642E-02 -6.57946E-02 -1.67945E-01 -8.32787E-02 -1.74736E-01 -1.93761E-01
   2.74002E-01  1.65227E-01 -2.97388E-02  7.18680E-02  1.30392E-01  6.01606E-01  6.44708E-01  5.51963E-01  5.35470E-01  6.53933E-01
   8.08789E-01  6.99220E-01  4.11003E-01  4.66789E-01  4.48865E-01  1.51224E-02  6.72605E-02 -9.80470E-02 -2.40582E-01 -1.05839E-02
  -2.33726E-01 -2.13494E-01  8.14628E-03 -1.80988E-01 -2.48381E-01 -1.41913E-01  1.68377E-01  4.78404E-02 -4.05880E-02  1.16488E-02
  -9.84433E-02 -8.29698E-02  1.49495E-02  1.50633E-02 -3.06525E-01  3.06392E-01  2.07897E-01  5.27410E-03  2.68192E-01  1.34974E-01
   1.41675E-01 -5.62733E-02  1.88230E-01  3.55773E-02  8.09836E-02  2.06271E-01  2.54164E-01  1.01418E-01  6.10044E-03  2.60321E-01
   3.74077E-01  3.31499E-01 -3.99039E-02  3.40821E-01  1.92157E-02 -7.13249E-02  7.05499E-02 -2.92428E-01 -2.65795E-01 -5.07964E-01
  -3.64407E-01 -8.47690E-02 -3.20798E-01 -2.13677E-01  1.55891E-01 -8.84369E-02  2.68689E-01  4.47162E-01  3.69876E-01  3.51688E-01
   6.09251E-01  5.24263E-01  7.37749E-02  4.89436E-01  8.41131E-02  2.78056E-01  1.26759E-01 -2.30303E-01 -5.06646E-02 -2.87101E-02
   2.32680E-01  1.42293E-01  5.08549E-01  4.95208E-01  4.40669E-01  3.26888E-01  5.00730E-01  6.12724E-01  1.76515E-01  3.44324E-01
   2.91627E-01  7.08044E-02  3.05249E-01  2.63888E-01  9.14113E-02  3.67629E-01 -4.13098E-02 -1.46739E-01 -4.05493E-02 -3.68348E-01
  -3.39570E-01 -3.09027E-01 -3.08882E-01 -6.16050E-01 -6.05959E-01 -1.47753E-01 -9.79019E-02  2.39077E-02  2.07315E-01  2.47689E-01
   3.10654E-01  2.44075E-02  1.32185E-01  4.20655E-01  3.63448E-02 -2.54873E-01 -2.25534E-01 -6.82612E-01 -7.70990E-01 -7.40556E-01
  -1.03220E+00 -1.16388E+00 -1.50955E+00 -1.51098E+00 -1.69836E+00 -1.45328E+00 -1.21961E+00 -7.73401E-01 -2.72494E-01 -3.31335E-01
   2.39516E-01  2.92687E-01  3.12465E-01  5.32907E-01  4.47176E-01  2.42059E-01  2.58825E-01  2.29833E-01 -2.35005E-02 -4.07607E-01
  -2.29005E-01  4.23992E-02 -1.27820E-01  1.25302E-01  1.20520E-01  1.58623E-01  1.04512E-02 -7.22490E-02 -1.29115E-01  5.55905E-02
   3.80988E-02 -1.26978E-01  3.05600E-01  2.26822E-01 -6.43050E-03  1.76001E-01  2.92294E-01  4.77566E-02  2.88626E-01  1.40249E-01
   2.38107E-01  2.42235E-01 -3.63480E-02  1.45019E-01 -5.47362E-02  7.86024E-02  2.84598E-01  1.94609E-01 -2.71327E-02  2.13206E-01
   4.32791E-01  4.63129E-01  2.09938E-01  3.30637E-01  2.25091E-01  2.57532E-01  6.08365E-01  1.25229E-01  3.45913E-01  2.43650E-01
   1.44590E-01  7.27184E-03  1.80912E-02  1.32304E-01  9.65611E-03  9.16455E-02  6.47422E-02 -5.06651E-03 -1.59638E-01  4.51244E-02
  -2.11074E-01 -6.31932E-02 -9.99921E-02  1.05353E-01  1.60655E-01 -7.73523E-02  2.31786E-01  5.36235E-02  3.18712E-02 -1.64520E-01
   1.15178E-02 -1.12596E-01 -4.10897E-02 -1.99710E-01 -3.39484E-01 -5.89710E-02 -2.06608E-01 -7.43325E-02 -4.24768E-01 -9.91826E-02
   3.38763E-02 -7.07869E-02  2.02140E-01  2.17866E-01 -5.30283E-02 -1.54442E-01  5.04742E-02 -5.26366E-03  1.32256E-01 -1.52919E-03
   2.24584E-01  2.88260E-01  6.21493E-03  2.20836E-01  4.12209E-01  2.30324E-01  4.24824E-01  4.07158E-01  1.98034E-01  5.07119E-01
   2.30189E-01  4.06374E-01  3.28027E-01  2.97162E-01  4.00732E-01  2.30491E-01  3.01863E-01 -2.72100E-01 -1.05827E-02 -1.64040E-01
  -5.20318E-01  1.48351E-01 -2.44028E-02 -7.54315E-02  2.23248E-02 -2.49591E-01 -3.49291E-01 -1.16932E-01  1.37616E-01 -4.60047E-01
  -3.19784E-01 -9.11746E-02 -4.73567E-01 -3.32715E-01 -2.13262E-01 -1.91354E-01 -4.16738E-01 -6.20115E-01 -5.78211E-01 -2.65982E-01
  -2.11281E-01 -1.05348E-01 -8.93630E-02  5.88633E-02  2.42552E-01  5.25793E-02  1.82098E-01  1.94119E-02  3.51063E-02  1.40417E-01
  -9.48600E-02 -4.94467E-01 -6.51596E-02  3.25074E-01 -8.80580E-02 -1.63140E-01 -9.75297E-03 -1.70869E-01 -4.83381E-03  2.51638E-01
  -3.83454E-03  2.36512E-01  2.57455E-01  5.49074E-01  2.62347E-01  1.99517E-02  3.26041E-01  1.69956E-01  1.96954E-01  1.94647E-01
   1.20224E-01  6.86766E-02  3.49614E-01  3.32130E-02  2.90334E-01  4.37627E-01  1.54399E-01  1.31006E-01  2.50165E-01  1.12182E-01
  -1.64862E-01  4.49172E-02 -1.23759E-01 -4.74349E-02 -4.53486E-01 -4.29347E-01 -2.77378E-01 -2.08178E-01 -3.08211E-01 -3.11304E-01
  -3.71211E-01 -6.63118E-01 -3.47531E-01 -6.13343E-01 -2.93409E-01 -2.41269E-01 -2.37985E-01 -2.50394E-01 -3.18020E-01 -3.11369E-01
  -1.96307E-01  1.11869E-02 -2.97664E-01 -2.15762E-01 -1.06983E-01 -1.58426E-01 -3.59900E-01 -7.22378E-02 -1.97444E-01  1.51441E-01
   2.48525E-01 -4.02243E-02  1.77083E-01  2.06184E-01  6.79075E-01  2.53419E-01  2.19487E-02  1.08739E-01  6.38584E-02  4.99044E-02
   1.19392E-01  2.47707E-01 -2.15519E-01  6.06614E-02  2.93512E-01 -9.51073E-02  5.07012E-02 -5.13212E-02 -9.81266E-02  4.24619E-02
   1.62760E-01  1.93589E-01 -1.18562E-01  4.98806E-02 -1.18875E-01 -3.95090E-02 -1.70206E-02 -2.26987E-01 -3.57635E-02  5.65873E-02
   1.23402E-01 -9.73068E-02  7.54360E-02  1.75647E-01 -2.70932E-01 -3.26168E-01  1.89276E-04 -6.73070E-02 -1.12999E-01 -1.83780E-01
  -4.50506E-02  7.51281E-02  2.21017E-01  6.18534E-02 -4.74474E-01  2.57392E-02  1.41806E-01  6.13251E-02 -3.05682E-02  7.70956E-04
   2.21797E-01  1.43920E-01  3.97285E-02  2.11957E-01  3.10367E-01 -2.06499E-01  5.50778E-02  2.31137E-01  1.46932E-01  6.83039E-02
  -7.66075E-02  1.72509E-01  5.13842E-03 -3.11308E-01 -4.47638E-03  3.81164E-03 -7.26878E-02  1.22503E-01 -2.62100E-01 -1.49050E-02
   4.07201E-02 -5.27221E-02  8.31707E-02 -2.39744E-01 -6.45091E-02  3.37332E-01 -3.11603E-03 -3.56923E-01  1.28745E-01  2.62813E-01
   1.59433E-01 -4.71931E-02  4.44222E-04 -2.13882E-02  2.66170E-02  2.10569E-01 -1.47816E-02  9.05304E-02 -2.09919E-02  6.63548E-02
   4.24380E-02  2.59879E-01  1.12687E-01  1.03978E-01  2.82441E-01 -1.77311E-02  2.54993E-01 -2.90591E-02  1.23494E-01 -7.05367E-02
  -8.77683E-02  3.73201E-02  2.79492E-02  2.52041E-01
 NY points of the fit to the data follow
   4.59483E-02  4.31221E-02  3.31763E-02  1.87356E-02  3.16790E-03 -1.01027E-02 -1.80716E-02 -1.71507E-02 -1.81691E-02  1.68167E-02
   9.68701E-02  1.85397E-01  2.76506E-01  3.79352E-01  4.80041E-01  5.63924E-01  5.98573E-01  5.86202E-01  5.24776E-01  4.29885E-01
   3.09213E-01  1.78907E-01  7.45424E-02  8.11126E-03 -4.14843E-02 -8.35453E-02 -1.18377E-01 -1.46290E-01 -1.68429E-01 -1.86958E-01
  -2.03832E-01 -2.22095E-01 -2.44176E-01 -2.72722E-01 -2.99125E-01 -3.12487E-01 -3.14777E-01 -3.00737E-01 -2.60551E-01 -1.91189E-01
  -9.42060E-02  1.86975E-02  1.32633E-01  2.38053E-01  3.25414E-01  3.82797E-01  4.03210E-01  3.95932E-01  3.68928E-01  3.26378E-01
   2.73536E-01  2.16545E-01  1.60731E-01  1.10184E-01  6.47492E-02  2.07278E-02 -2.34544E-02 -6.80674E-02 -1.05952E-01 -1.40981E-01
  -1.78027E-01 -1.99967E-01 -2.07272E-01 -2.03261E-01 -1.75973E-01 -1.26673E-01 -5.84502E-02  2.31300E-02  1.07378E-01  1.84514E-01
   2.40328E-01  2.70965E-01  2.68720E-01  2.34623E-01  1.67823E-01  7.18215E-02 -2.42643E-02 -1.10265E-01 -1.91399E-01 -2.48904E-01
  -2.67964E-01 -2.46320E-01 -1.88204E-01 -1.01092E-01  6.00773E-03  1.17570E-01  2.15371E-01  2.76557E-01  2.97221E-01  2.92645E-01
   2.67969E-01  2.19383E-01  1.60029E-01  8.69319E-02  3.57973E-03 -8.41473E-02 -1.69578E-01 -2.41674E-01 -2.88177E-01 -3.05088E-01
  -2.78856E-01 -2.15300E-01 -1.15655E-01 -3.94039E-04  1.15414E-01  2.13758E-01  2.82280E-01  3.19203E-01  3.32608E-01  3.32009E-01
   3.28214E-01  3.24610E-01  3.21074E-01  3.17240E-01  3.13023E-01  3.08893E-01  3.06051E-01  2.97474E-01  2.83597E-01  2.69080E-01
   2.44610E-01  2.11984E-01  1.64766E-01  9.95581E-02  1.12411E-02 -9.72535E-02 -2.14572E-01 -3.30921E-01 -4.32281E-01 -5.06236E-01
  -5.85215E-01 -6.51539E-01 -6.83259E-01 -6.82408E-01 -6.69679E-01 -6.50553E-01 -6.25148E-01 -5.83650E-01 -5.26581E-01 -4.47517E-01
  -3.48574E-01 -2.28873E-01 -1.07460E-01 -1.50324E-02  4.28596E-02  8.31036E-02  1.15352E-01  1.42837E-01  1.67044E-01  1.89015E-01
   2.09561E-01  2.29257E-01  2.48827E-01  2.68941E-01  2.89941E-01  3.12604E-01  3.37879E-01  3.66765E-01  4.00544E-01  4.41455E-01
   4.99199E-01  6.16050E-01  7.12805E-01  7.26042E-01  6.96276E-01  6.34689E-01  5.07067E-01  3.04893E-01  3.52224E-02 -2.33313E-01
  -4.75351E-01 -6.52371E-01 -7.58401E-01 -7.70696E-01 -6.89964E-01 -5.84769E-01 -5.14207E-01 -4.68813E-01 -4.33059E-01 -4.01727E-01
  -3.73362E-01 -3.47979E-01 -3.26086E-01 -3.07949E-01 -2.92299E-01 -2.77870E-01 -2.65029E-01 -2.53627E-01 -2.42102E-01 -2.29556E-01
  -2.16077E-01 -2.01939E-01 -1.87506E-01 -1.73025E-01 -1.58480E-01 -1.43842E-01 -1.27445E-01 -1.08391E-01 -8.95799E-02 -7.28571E-02
  -5.76652E-02 -4.12810E-02 -2.30134E-02 -8.77676E-03 -1.60917E-03  1.06582E-03  5.25985E-04 -3.89597E-03 -1.34567E-02 -2.59629E-02
  -3.86275E-02 -5.14938E-02 -6.43947E-02 -7.54924E-02 -8.10399E-02 -7.95038E-02 -7.42809E-02 -6.94211E-02 -6.57124E-02 -5.10740E-02
  -1.66125E-02  2.76127E-02  7.24116E-02  1.28510E-01  2.07076E-01  2.94640E-01  3.67424E-01  4.20101E-01  4.53079E-01  4.62602E-01
   4.41347E-01  3.89124E-01  3.19867E-01  2.46014E-01  1.67306E-01  8.39683E-02  8.94765E-03 -4.37211E-02 -7.54288E-02 -9.54635E-02
  -1.09814E-01 -1.20160E-01 -1.28388E-01 -1.34502E-01 -1.38531E-01 -1.41330E-01 -1.43102E-01 -1.44925E-01 -1.48574E-01 -1.56421E-01
  -1.67294E-01 -1.71067E-01 -1.73423E-01 -1.73349E-01 -1.63993E-01 -1.37983E-01 -9.50945E-02 -4.88534E-02  1.16638E-03  6.20251E-02
   1.15469E-01  1.58299E-01  1.84284E-01  1.99942E-01  2.11783E-01  2.16047E-01  2.12759E-01  2.06984E-01  2.01152E-01  1.95198E-01
   1.78992E-01  1.56456E-01  1.28973E-01  9.33064E-02  4.98167E-02 -4.18592E-03 -6.58950E-02 -1.29110E-01 -1.93372E-01 -2.47248E-01
  -2.82300E-01 -2.93770E-01 -2.69605E-01 -2.09920E-01 -1.18980E-01 -4.02121E-03  1.20279E-01  2.37518E-01  3.29416E-01  3.83555E-01
   4.00056E-01  3.84638E-01  3.50877E-01  3.12528E-01  2.80549E-01  2.61889E-01  2.58908E-01  2.65311E-01  2.78526E-01  2.92010E-01
   3.02496E-01  3.06792E-01  3.03840E-01  2.95101E-01  2.83163E-01  2.69464E-01  2.55295E-01  2.40501E-01  2.23391E-01  2.03740E-01
   1.79772E-01  1.50239E-01  1.14560E-01  7.16400E-02  2.29493E-02 -3.23960E-02 -9.28379E-02 -1.54640E-01 -2.15841E-01 -2.70921E-01
  -3.14057E-01 -3.40179E-01 -3.44073E-01 -3.25749E-01 -2.85878E-01 -2.29840E-01 -1.62691E-01 -9.60654E-02 -3.72432E-02  4.06636E-03
   2.44694E-02  2.16591E-02  5.54829E-04 -2.97690E-02 -5.51974E-02 -4.46984E-02 -1.31394E-01 -3.47324E-01 -5.70364E-01 -7.93061E-01
  -1.05514E+00 -1.32564E+00 -1.55864E+00 -1.65379E+00 -1.61799E+00 -1.44589E+00 -1.18062E+00 -8.37407E-01 -4.75738E-01 -2.17468E-01
  -9.81896E-02 -4.05191E-02 -4.06928E-03  2.15509E-02  4.10657E-02  5.47256E-02  6.38811E-02  6.80400E-02  6.64539E-02  5.96838E-02
   4.84122E-02  3.31904E-02  1.70523E-02  8.17358E-04 -1.15852E-02 -1.92382E-02 -2.03002E-02 -1.49056E-02 -4.18737E-03  9.95222E-03
   2.54582E-02  4.02490E-02  5.36153E-02  6.49385E-02  7.43806E-02  8.22140E-02  8.87856E-02  9.44831E-02  9.95776E-02  1.04206E-01
   1.08577E-01  1.12634E-01  1.16291E-01  1.19640E-01  1.22747E-01  1.25639E-01  1.28503E-01  1.31346E-01  1.34093E-01  1.36720E-01
   1.39065E-01  1.41137E-01  1.42718E-01  1.43614E-01  1.43456E-01  1.42108E-01  1.39638E-01  1.36266E-01  1.31961E-01  1.26803E-01
   1.20933E-01  1.14515E-01  1.07480E-01  9.98242E-02  9.18320E-02  8.37965E-02  7.58940E-02  6.83525E-02  6.11419E-02  5.43745E-02
   4.81804E-02  4.24189E-02  3.70635E-02  3.21276E-02  2.76983E-02  2.37301E-02  2.00264E-02  1.65692E-02  1.35419E-02  1.09311E-02
   8.82545E-03  7.32555E-03  6.55885E-03  6.64640E-03  7.74091E-03  9.87934E-03  1.28133E-02  1.63186E-02  2.03675E-02  2.47816E-02
   2.94562E-02  3.43011E-02  3.92498E-02  4.43984E-02  4.99549E-02  5.61972E-02  6.32655E-02  7.12488E-02  8.02364E-02  8.99909E-02
   1.00345E-01  1.11405E-01  1.23114E-01  1.35376E-01  1.47905E-01  1.60251E-01  1.71935E-01  1.82550E-01  1.91726E-01  1.99207E-01
   2.04774E-01  2.08365E-01  2.09755E-01  2.08926E-01  2.06062E-01  2.01404E-01  1.94961E-01  1.86854E-01  1.77194E-01  1.66212E-01
   1.54390E-01  1.42260E-01  1.30079E-01  1.18168E-01  1.06796E-01  9.60745E-02  8.60218E-02  7.66357E-02  6.79767E-02  6.01418E-02
   5.33989E-02  4.76496E-02  4.28050E-02  3.91154E-02  3.67560E-02  3.56921E-02  3.59298E-02  3.74864E-02  4.02707E-02  4.40329E-02
   4.85296E-02  5.34247E-02  5.83982E-02  6.32945E-02  6.80195E-02  7.24006E-02  7.62076E-02  7.94129E-02  8.19453E-02  8.39611E-02
   8.55092E-02  8.63122E-02  8.62806E-02  8.54523E-02  8.37920E-02  8.12538E-02  7.78848E-02  7.40745E-02  7.00180E-02  6.58302E-02
   6.15305E-02  5.70150E-02  5.23966E-02  4.78186E-02  4.32234E-02  3.85263E-02  3.38203E-02  2.92899E-02  2.49260E-02  2.05117E-02
   1.59018E-02  1.09899E-02  5.68396E-03 -1.88487E-04 -6.98622E-03 -1.48623E-02 -2.39635E-02 -3.43557E-02 -4.61045E-02 -5.93763E-02
  -7.42528E-02 -9.05401E-02 -1.07990E-01 -1.26205E-01 -1.44878E-01 -1.63368E-01 -1.80849E-01 -1.96705E-01 -2.10833E-01 -2.22992E-01
  -2.32674E-01 -2.39497E-01 -2.43449E-01 -2.44695E-01 -2.43401E-01 -2.39861E-01 -2.34487E-01 -2.27734E-01 -2.20108E-01 -2.11828E-01
  -2.02903E-01 -1.93528E-01 -1.83749E-01 -1.73462E-01 -1.62508E-01 -1.51003E-01 -1.39079E-01 -1.26765E-01 -1.14398E-01 -1.02318E-01
  -9.06360E-02 -7.94325E-02 -6.85505E-02 -5.82309E-02 -4.87547E-02 -3.99083E-02 -3.16033E-02 -2.39690E-02 -1.70621E-02 -1.09588E-02
  -5.46653E-03 -4.96732E-04  3.85077E-03  7.47611E-03  1.04103E-02  1.30323E-02  1.53334E-02  1.71439E-02  1.87428E-02  2.03576E-02
   2.20174E-02  2.37061E-02  2.54645E-02  2.72608E-02  2.89366E-02  3.04949E-02  3.17373E-02  3.24512E-02  3.28166E-02  3.29139E-02
   3.27399E-02  3.24421E-02  3.21799E-02  3.21340E-02  3.22833E-02  3.22978E-02  3.21112E-02  3.19712E-02  3.18885E-02  3.15806E-02
   3.08699E-02  3.00943E-02  2.94474E-02  2.87220E-02  2.79108E-02  2.72751E-02  2.70353E-02  2.70474E-02  2.69143E-02  2.66885E-02
   2.66493E-02  2.69812E-02  2.75980E-02  2.83449E-02  2.93894E-02  3.07348E-02  3.21582E-02  3.33234E-02  3.42470E-02  3.50841E-02
   3.57863E-02  3.62407E-02  3.65396E-02  3.67549E-02  3.71126E-02  3.75376E-02  3.81021E-02  3.90324E-02  4.04136E-02  4.21552E-02
   4.40089E-02  4.57535E-02  4.74359E-02  4.90471E-02  5.06016E-02  5.20433E-02  5.31591E-02  5.39810E-02  5.45625E-02  5.50091E-02
   5.55796E-02  5.63131E-02  5.70529E-02  5.78468E-02  5.88331E-02  5.98942E-02  6.09486E-02  6.22217E-02  6.38062E-02  6.56604E-02
   6.76121E-02  6.95361E-02  7.16199E-02  7.41311E-02  7.69990E-02  8.00830E-02  8.34850E-02  8.75000E-02  9.19066E-02  9.66177E-02
   1.01645E-01  1.06838E-01  1.12162E-01  1.17623E-01
 NY background values follow
     1.100E-03    1.362E-03    1.623E-03    1.885E-03    2.146E-03    2.408E-03    2.670E-03    2.931E-03    3.193E-03    3.455E-03
     3.716E-03    3.978E-03    4.240E-03    4.501E-03    4.763E-03    5.024E-03    5.285E-03    5.547E-03    5.808E-03    6.069E-03
     6.330E-03    6.591E-03    6.852E-03    7.112E-03    7.373E-03    7.633E-03    7.893E-03    8.153E-03    8.413E-03    8.673E-03
     8.932E-03    9.192E-03    9.451E-03    9.710E-03    9.969E-03    1.023E-02    1.049E-02    1.074E-02    1.100E-02    1.126E-02
     1.152E-02    1.177E-02    1.203E-02    1.229E-02    1.254E-02    1.280E-02    1.305E-02    1.331E-02    1.356E-02    1.382E-02
     1.407E-02    1.433E-02    1.458E-02    1.483E-02    1.509E-02    1.534E-02    1.559E-02    1.584E-02    1.609E-02    1.634E-02
     1.659E-02    1.684E-02    1.709E-02    1.734E-02    1.759E-02    1.784E-02    1.808E-02    1.833E-02    1.858E-02    1.882E-02
