 
 $NMID
 ID=''
 FMTDAT='(2E13.5)'
 TRAMP=   1.00000E+0
 VOLUME=   1.00000E+0
 $END
  -1.90007E+2  -7.94570E+1
  -3.57690E+1   4.37642E+2
   2.65107E+3  -2.29280E+2
   2.65932E+3  -1.09399E+3
   1.90072E+2  -2.49412E+3
  -1.38135E+3   7.32305E+1
  -1.80396E+3  -3.27630E+2
  -1.47395E+3  -1.35827E+3
  -2.70415E+3  -2.93753E+3
   6.28707E+2  -1.80154E+3
   1.69315E+3   1.77089E+3
   1.57297E+3   2.15089E+3
  -1.35875E+3   8.37175E+2
  -3.31233E+3   1.65367E+2
  -1.73490E+3  -4.65684E+2
   8.26998E+2   2.59410E+2
   4.40589E+1  -4.51565E+1
   3.96089E+2  -1.80214E+3
   1.62563E+3   2.24832E+3
   6.68066E+2  -4.49484E+2
   1.69374E+3  -4.35252E+2
   6.53298E+2   2.61588E+3
  -2.04576E+3   2.99921E+2
   3.18802E+3  -2.46626E+3
   6.42960E+2  -3.63917E+2
  -7.78067E+2  -1.80178E+2
  -2.10043E+3   3.41159E+2
   1.73116E+3  -4.46927E+2
   3.66803E+3  -3.57030E+3
   3.48285E+3   3.58402E+2
  -4.23981E+2   2.80328E+3
   2.33261E+2  -1.80415E+2
   1.39382E+3  -1.30558E+3
   1.33343E+3  -7.99307E+2
   5.40946E+2  -6.29261E+2
   1.99640E+3   1.60162E+2
   1.77285E+3   6.58029E+2
  -1.65306E+3   2.02719E+3
  -5.70391E+1   1.23810E+3
  -2.76031E+3  -2.14103E+3
   5.45411E+2  -4.35915E+3
   2.18186E+3  -1.16692E+3
   4.88713E+3  -7.87958E+2
   3.05007E+3   9.83124E+2
   2.11403E+3   2.79887E+3
   3.62014E+2   1.56656E+3
   6.79891E+1   3.20176E+3
  -3.50600E+3   1.33117E+3
  -1.62236E+3   2.99419E+3
  -2.85365E+3   1.39639E+3
  -1.08454E+3  -1.07486E+3
  -1.47492E+3   1.28185E+3
  -3.55807E+3  -7.22611E+2
  -2.42847E+3  -1.51486E+3
  -4.25844E+2  -2.03499E+3
  -3.19624E+2  -2.46247E+3
   4.80375E+3  -2.06998E+3
   4.72194E+3   4.61578E+2
   2.77677E+3   1.51011E+3
   2.03371E+3   2.44237E+3
  -1.08606E+3   8.91795E+2
  -2.82471E+3   1.33251E+2
  -1.87198E+3  -1.80168E+3
  -2.53440E+3  -3.46067E+3
  -1.10720E+3  -2.61376E+3
  -1.40031E+3  -6.38897E+2
   6.41013E+2  -3.62517E+3
   1.09868E+3  -2.18761E+3
   1.49699E+3  -2.03160E+3
   1.66705E+3  -7.91619E+2
   2.42451E+3  -1.00722E+3
   1.37407E+3  -1.25430E+3
  -6.31194E+2   6.19375E+2
   1.86376E+3   2.23513E+2
   1.85365E+3  -2.14899E+2
  -1.59356E+2  -9.81722E+2
  -1.87301E+3  -1.06396E+1
   2.27673E+2  -1.53950E+2
  -1.13972E+3  -6.00829E+2
  -4.48397E+2  -1.13112E+3
   1.52430E+3  -1.72726E+3
  -8.18085E+2   2.82622E+2
   2.32267E+2  -3.22779E-1
   1.02722E+3   1.15251E+3
   1.28088E+3  -3.83509E+2
   1.24914E+2   6.28901E+2
   1.53134E+2   3.26200E+3
  -1.91264E+3   1.47246E+3
  -1.55851E+3   2.79331E+3
  -5.02086E+2   7.23007E+2
  -2.08283E+3   7.38651E+2
  -7.77256E+2   4.05793E+2
  -1.95936E+3   7.11388E+2
   1.05122E+3   4.77615E+2
  -1.62906E+3   2.98069E+3
  -3.17410E+3  -1.21624E+3
  -1.62623E+2   1.06650E+3
   1.15431E+3   9.78449E+2
   1.01163E+3   1.18084E+3
  -1.46584E+3   2.98941E+1
  -1.47245E+3   2.92489E+2
   6.97840E+2   7.07759E+2
  -1.33500E+3   9.80333E+2
  -7.07130E+2   1.66529E+1
  -1.26985E+3  -1.20942E+3
  -5.23626E+2   2.32723E+3
  -1.01963E+3   1.40298E+3
  -2.24627E+3  -1.86873E+3
   1.05904E+3   7.86098E+2
  -4.24138E+1  -2.90744E+2
  -9.87415E+2   7.97307E+2
   1.24893E+2   9.94590E+2
  -1.92894E+3   1.24167E+3
  -1.57324E+3   2.37806E+3
  -3.43420E+3   4.16012E+2
  -1.79469E+3   9.09587E+2
  -2.51447E+3  -2.66543E+2
  -7.39763E+2   2.65990E+2
   1.37577E+3  -9.64273E+2
  -1.39448E+1  -1.97857E+3
   3.84458E+2   3.17064E+2
  -1.51753E+3  -9.49787E+1
   5.03673E+2   7.67105E+1
   2.43296E+2  -3.16762E+2
  -2.93630E+2   1.05759E+3
  -6.08927E+2  -6.38317E+2
  -1.33723E+2  -8.98488E+2
   1.77051E+2   1.10757E+3
   4.72584E+2   4.83136E+2
  -7.48049E+2   2.88815E+2
  -1.16666E+3   1.95449E+1
   2.28478E+1  -5.43071E+2
  -5.17815E+2   2.60471E+2
  -2.10582E+3   7.23959E+2
   4.95744E+2   7.09075E+2
   1.46571E+3   4.94743E+2
   3.51717E+2  -6.78467E+2
  -4.63312E+1  -8.37229E+2
   1.41901E+3  -1.91608E+2
   2.00143E+2  -1.28541E+3
   1.23355E+3   4.31717E+2
  -1.25125E+3   4.06708E+2
  -2.27233E+3   1.01819E+2
   1.09876E+2  -1.35594E+3
   1.27669E+3   4.26356E+2
  -1.75265E+3  -3.34077E+2
   6.25177E+2  -1.19570E+3
  -3.66271E+2   2.12104E+3
   5.98899E+2   7.49073E+2
  -4.14055E+2  -1.11228E+3
   7.53222E+2   3.11840E+2
   6.19136E+2   1.20718E+2
  -5.16023E+2  -1.18706E+3
   2.56711E+3   1.05516E+3
   1.33430E+3  -2.39927E+3
  -1.78152E+3   4.19573E+2
  -1.99267E+3   1.03576E+3
  -2.21517E+2   7.86620E+2
   3.39427E+2   2.84212E+2
   9.78140E+2  -6.52732E+2
   2.84288E+2  -1.62510E+3
  -7.35250E+2   9.34747E+2
   7.57894E+2   1.87025E+3
   2.18849E+2   1.19456E+2
   3.62705E+2  -1.20779E+3
  -1.23532E+3  -1.61947E+2
  -1.66632E+3   6.96350E+2
  -4.37453E+2  -1.11010E+3
  -9.97251E+2  -1.39524E+3
  -1.15085E+3   1.02628E+3
  -6.48374E+2   5.67441E+2
  -2.32039E+3   2.19497E+2
  -1.26038E+3   5.06806E+1
  -7.21681E+2  -1.09433E+2
  -1.07057E+3  -1.08771E+3
   1.57601E+3  -1.33004E+3
   1.99650E+3  -1.60857E+3
   7.26585E+2  -1.36169E+3
   1.05032E+3   1.76224E+2
   6.68456E+2  -1.56191E+3
   1.76468E+3  -6.34918E+2
  -2.08532E+3  -4.65166E+2
  -1.12841E+3   3.86664E+2
   1.41784E+3  -4.35641E+2
   4.21510E+2  -1.93147E+2
  -1.37866E+3   1.45195E+3
   4.19210E+2   1.83764E+3
  -2.11409E+2   8.44202E+2
  -5.00340E+2   5.37574E+2
  -3.01411E+2   4.99853E+2
   1.15872E+3   1.40055E+2
   1.54960E+3   3.71509E+2
   1.40915E+3   1.28681E+3
  -1.85119E+2   5.56037E+2
   4.91123E+2  -3.18387E+2
  -1.66750E+2  -2.39497E+1
   2.24976E+3   5.58359E+1
  -2.76525E+2   4.49662E+2
  -9.15270E+2   2.65465E+1
   1.95546E+2  -2.11581E+2
  -2.68780E+2   1.58541E+3
   4.57454E+1   1.46979E+3
   1.48132E+3  -2.40709E+2
  -1.67358E+3  -1.78069E+3
  -2.09455E+2   3.83771E+2
   1.43523E+3   5.60165E+2
   4.05496E+2   7.78984E+2
   1.37685E+3   3.28517E+2
  -1.88231E+1   1.11962E+3
   2.53318E+3   1.79193E+3
   1.01679E+2  -1.25044E+3
  -1.25425E+3   7.63720E+2
   2.38998E+2   9.70233E+2
  -1.74173E+3   2.48633E+2
   5.95453E+2  -8.27316E+1
   9.90014E+2  -1.06950E+3
  -1.16564E+1   4.68694E+2
  -8.33510E+2  -1.28502E+3
   5.13382E+2   1.43471E+3
  -9.31697E+2   1.43275E+3
  -3.42907E+2  -6.34451E+2
   1.24151E+3  -1.35537E+3
   1.31257E+3   5.28105E+2
   1.76196E+3  -1.03440E+2
  -1.27082E+3  -1.91773E+2
  -1.01377E+3   4.80716E+2
   1.22424E+3   7.67053E+2
   2.16253E+2   8.04060E+0
   1.11669E+3   1.17482E+3
  -4.49981E+2  -1.04740E+2
   7.11007E+2   4.24419E+2
  -1.66835E+3   8.66098E+2
  -8.56897E+2   2.09522E+3
   6.23159E+1   1.69430E+3
  -9.90344E+2   1.37661E+3
  -4.00519E+2  -3.39420E+2
  -1.53005E+3   3.80895E+2
   5.74718E+2   3.93473E+2
  -1.82929E+3   1.27799E+3
   3.46335E+2  -9.96863E+2
  -6.12655E+2   5.16285E+2
  -2.28779E+3  -1.24600E+3
   5.03064E+2  -1.85729E+3
  -9.55976E+2  -9.59071E+2
  -1.04809E+3  -6.68481E+2
  -1.14488E+3  -2.34517E+3
   1.22226E+3  -6.44528E+1
   2.97615E+2   1.71930E+3
   6.93215E+2   8.80168E+2
   1.16661E+3  -4.23712E+2
   1.86116E+3   2.04313E+3
  -3.76640E+2  -7.28716E+2
   7.40279E+2   3.01831E+1
   1.03134E+2   1.22430E+3
   1.21230E+3   1.40205E+3
   8.71011E+2   5.94724E+2
  -5.80043E+2  -9.37040E+2
  -4.75383E+2   1.79970E+3
   1.18307E+3   1.74620E+2
   7.31267E+2   1.38902E+3
  -6.97712E+1  -1.91538E+3
  -5.35232E+1  -1.06865E+2
   1.57406E+3   2.31173E+2
   5.66670E+2  -1.14654E+3
   8.58117E+2   1.02117E+3
  -1.36079E+3  -1.19553E+3
  -1.90041E+3   4.03325E+2
   2.42180E+3  -9.95503E+2
  -2.66078E+2  -5.59645E+2
   1.40527E+3  -3.79900E+2
   6.37962E+1  -1.19009E+3
   2.70073E+3  -1.91161E+3
  -1.35944E+3  -7.78430E+2
   9.96321E+2   4.39739E+2
  -3.74577E+1  -1.57837E+3
   7.65236E+2  -6.76640E+2
   2.33054E+3   1.58440E+3
   1.90625E+3  -7.67012E+2
   1.26776E+3   4.38565E+2
   1.84648E+2   9.50405E+0
  -1.27835E+3  -5.54517E+2
   2.63251E+2  -6.29933E+2
  -1.12342E+3   2.93303E+2
   1.80716E+3  -6.69005E+2
   1.37317E+2   2.96916E+2
   5.28261E+2  -2.23590E+3
   3.75461E+1  -7.28947E+2
   8.04126E+2   3.90483E+2
  -1.59650E+3   1.49906E+2
   5.74159E+2   1.13081E+1
  -7.95316E+2  -1.38598E+3
  -5.38218E+1  -8.82818E+2
  -2.58377E+3   8.05224E+2
   3.68097E+2  -1.32341E+3
  -5.42563E+2   2.16230E+2
   1.13132E+3   2.61961E+3
  -6.90790E+2   4.50429E+2
  -1.35618E+3   7.56471E+2
   4.86769E+2  -1.64055E+3
   3.77063E+2   1.43393E+3
  -8.50749E+2   3.18910E+2
  -1.30426E+2  -1.35328E+3
  -1.07737E+3  -2.15302E+2
   8.77242E+2   1.23395E+3
   4.73833E+2   1.64873E+3
  -5.30873E+2   1.46117E+3
   8.09038E+2  -6.35590E+2
  -4.97644E+2   1.32267E+3
  -2.03966E+2  -1.15411E+3
  -1.95054E+2   1.12129E+2
  -7.06666E+2   2.78415E+3
   2.16870E+3   2.80071E+3
  -2.78431E+2  -4.03244E+2
  -1.46283E+3   8.88471E+2
   1.86387E+2  -1.57232E+3
  -8.95670E+2  -5.58717E+2
  -2.62995E+2  -5.67452E+2
  -9.54110E+2  -5.11786E+2
   3.78301E+2  -4.83927E+2
  -2.30151E+2  -2.24174E+2
  -1.00661E+3  -1.14370E+3
  -7.64463E+2  -1.06466E+3
   1.81103E+3  -1.09453E+3
   3.26511E+2  -1.24150E+3
  -1.52735E+3   2.21308E+3
   2.98554E+2  -1.23988E+3
   1.21970E+3   8.53452E+2
   8.84755E+2  -1.10848E+3
  -4.44075E+2  -6.23209E+2
   7.87002E+2  -1.70275E+3
   1.25275E+3  -9.32002E+2
   1.11841E+2  -2.03750E+2
   1.90394E+3  -4.44417E+2
   3.73836E+2   1.03084E+3
  -1.38108E+3  -9.50550E+2
   6.26283E+2  -1.51209E+3
   1.17293E+2   2.84755E+2
  -8.97220E+2  -2.99120E+2
  -6.79493E+2   7.54511E+2
  -1.22526E+3   4.69606E+2
   1.46177E+3  -3.87040E+2
  -1.29359E+3  -4.20322E+2
   3.96165E+2   3.19640E+2
  -4.78932E+2  -7.87494E+2
   4.74244E+2  -7.76896E+2
   4.24434E+2  -2.65199E+3
  -1.25207E+3   3.56059E+1
   2.91887E+2  -7.41535E+2
  -7.46264E+2   7.81618E+2
  -4.39390E+2   2.10892E+2
  -1.59040E+3  -2.10855E+3
  -3.44912E+2  -9.84967E+2
   1.43433E+3  -1.02065E+3
   8.66415E+2  -1.07479E+3
  -2.40543E+2   6.24806E+2
  -3.99102E+2   1.05824E+3
   5.48456E+2  -8.75110E+2
   1.61254E+2   2.17033E+1
  -2.67615E+2   5.67112E+2
   1.43325E+2   1.00752E+3
  -7.81055E+2  -2.47338E+1
   1.17773E+2  -1.06952E+3
   3.02341E+2  -4.17702E+2
  -7.24199E+2  -5.68473E+2
   4.79191E+2  -1.36909E+3
  -1.16625E+3   3.07296E+2
   1.15233E+3   1.04058E+3
