 
 $NMID
 ID=''
 FMTDAT='(2E13.5)'
 TRAMP=   1.00000E+0
 VOLUME=   1.00000E+0
 $END
  -1.89787E+4   6.57630E+3
  -5.17126E+4   2.50198E+3
  -5.05117E+4   1.17072E+4
  -4.64125E+4   1.11699E+4
  -4.84689E+4   1.01558E+4
  -4.79443E+4   1.23526E+4
  -4.62248E+4   1.15071E+4
  -4.71529E+4   1.06751E+4
  -4.68237E+4   1.20157E+4
  -4.55055E+4   1.14774E+4
  -4.58050E+4   1.07630E+4
  -4.54752E+4   1.17249E+4
  -4.45819E+4   1.14914E+4
  -4.49161E+4   1.09712E+4
  -4.44856E+4   1.15404E+4
  -4.36256E+4   1.13374E+4
  -4.36862E+4   1.11463E+4
  -4.34637E+4   1.16268E+4
  -4.27431E+4   1.16337E+4
  -4.28051E+4   1.14230E+4
  -4.24167E+4   1.18262E+4
  -4.18222E+4   1.19949E+4
  -4.18931E+4   1.19039E+4
  -4.16120E+4   1.20824E+4
  -4.10463E+4   1.21136E+4
  -4.10139E+4   1.20558E+4
  -4.08519E+4   1.21278E+4
  -4.04011E+4   1.19392E+4
  -4.02209E+4   1.18016E+4
  -3.99542E+4   1.19971E+4
  -3.94449E+4   1.19880E+4
  -3.92785E+4   1.19168E+4
  -3.90967E+4   1.20754E+4
  -3.85625E+4   1.19471E+4
  -3.83036E+4   1.19834E+4
  -3.80388E+4   1.20817E+4
  -3.74796E+4   1.21477E+4
  -3.72920E+4   1.23092E+4
  -3.70406E+4   1.25256E+4
  -3.66976E+4   1.25911E+4
  -3.65056E+4   1.26250E+4
  -3.63107E+4   1.25616E+4
  -3.59089E+4   1.25732E+4
  -3.55819E+4   1.25809E+4
  -3.53908E+4   1.27024E+4
  -3.50723E+4   1.27207E+4
  -3.49288E+4   1.27099E+4
  -3.46162E+4   1.28172E+4
  -3.43668E+4   1.29067E+4
  -3.41013E+4   1.28479E+4
  -3.38141E+4   1.28693E+4
  -3.34822E+4   1.29115E+4
  -3.31725E+4   1.30259E+4
  -3.28793E+4   1.31090E+4
  -3.26454E+4   1.32807E+4
  -3.23944E+4   1.32417E+4
  -3.21819E+4   1.33104E+4
  -3.19046E+4   1.33309E+4
  -3.15749E+4   1.33146E+4
  -3.13979E+4   1.33356E+4
  -3.10803E+4   1.34143E+4
  -3.09272E+4   1.34414E+4
  -3.07031E+4   1.35418E+4
  -3.05223E+4   1.35148E+4
  -3.02096E+4   1.35569E+4
  -3.00470E+4   1.35438E+4
  -2.98241E+4   1.36590E+4
  -2.96513E+4   1.36160E+4
  -2.94193E+4   1.35809E+4
  -2.92029E+4   1.34847E+4
  -2.89896E+4   1.35321E+4
  -2.88213E+4   1.34923E+4
  -2.85904E+4   1.34506E+4
  -2.83103E+4   1.33935E+4
  -2.80734E+4   1.34481E+4
  -2.78469E+4   1.35008E+4
  -2.75730E+4   1.34630E+4
  -2.73893E+4   1.33738E+4
  -2.72602E+4   1.33962E+4
  -2.70139E+4   1.34580E+4
  -2.68273E+4   1.34236E+4
  -2.65936E+4   1.33903E+4
  -2.63978E+4   1.33421E+4
  -2.62422E+4   1.32912E+4
  -2.60174E+4   1.32732E+4
  -2.58546E+4   1.32029E+4
  -2.56372E+4   1.32140E+4
  -2.53560E+4   1.30880E+4
  -2.51731E+4   1.31344E+4
  -2.51148E+4   1.30682E+4
  -2.47962E+4   1.30287E+4
  -2.46383E+4   1.30001E+4
  -2.43543E+4   1.30031E+4
  -2.42490E+4   1.29942E+4
  -2.39701E+4   1.29071E+4
  -2.37509E+4   1.28813E+4
  -2.34977E+4   1.28935E+4
  -2.34256E+4   1.29323E+4
  -2.32235E+4   1.28506E+4
  -2.30378E+4   1.27994E+4
  -2.28398E+4   1.26859E+4
  -2.25973E+4   1.27952E+4
  -2.23927E+4   1.28327E+4
  -2.21053E+4   1.27804E+4
  -2.20008E+4   1.27797E+4
  -2.17855E+4   1.26874E+4
  -2.16470E+4   1.27656E+4
  -2.15115E+4   1.27143E+4
  -2.12525E+4   1.26706E+4
  -2.10690E+4   1.26539E+4
  -2.08262E+4   1.26909E+4
  -2.06857E+4   1.27055E+4
  -2.05083E+4   1.27264E+4
  -2.02815E+4   1.27826E+4
  -2.02646E+4   1.27275E+4
  -2.00390E+4   1.26674E+4
  -1.98517E+4   1.26421E+4
  -1.96387E+4   1.26657E+4
  -1.94949E+4   1.26148E+4
  -1.93416E+4   1.26426E+4
  -1.91466E+4   1.26149E+4
  -1.89636E+4   1.25845E+4
  -1.87868E+4   1.25404E+4
  -1.86687E+4   1.25351E+4
  -1.84170E+4   1.25177E+4
  -1.82700E+4   1.25267E+4
  -1.81744E+4   1.25054E+4
  -1.79399E+4   1.24362E+4
  -1.78230E+4   1.25000E+4
  -1.77443E+4   1.24454E+4
  -1.74986E+4   1.23700E+4
  -1.73729E+4   1.23182E+4
  -1.71326E+4   1.23140E+4
  -1.69925E+4   1.23377E+4
  -1.68786E+4   1.23715E+4
  -1.67492E+4   1.22468E+4
  -1.66152E+4   1.22925E+4
  -1.64374E+4   1.21909E+4
  -1.62840E+4   1.22179E+4
  -1.61185E+4   1.22546E+4
  -1.60077E+4   1.22389E+4
  -1.58716E+4   1.21064E+4
  -1.56606E+4   1.20678E+4
  -1.55022E+4   1.21767E+4
  -1.54577E+4   1.21028E+4
  -1.52595E+4   1.19937E+4
  -1.51540E+4   1.20913E+4
  -1.50197E+4   1.20426E+4
  -1.48530E+4   1.20245E+4
  -1.47278E+4   1.19622E+4
  -1.46449E+4   1.18674E+4
  -1.44101E+4   1.18666E+4
  -1.42655E+4   1.17806E+4
  -1.41874E+4   1.17445E+4
  -1.39858E+4   1.17988E+4
  -1.39418E+4   1.17225E+4
  -1.37322E+4   1.17306E+4
  -1.37108E+4   1.16868E+4
  -1.35570E+4   1.16975E+4
  -1.34064E+4   1.16180E+4
  -1.32222E+4   1.15665E+4
  -1.31012E+4   1.15201E+4
  -1.30391E+4   1.15567E+4
  -1.28336E+4   1.14531E+4
  -1.27488E+4   1.15027E+4
  -1.26214E+4   1.13793E+4
  -1.25004E+4   1.13727E+4
  -1.24376E+4   1.13819E+4
  -1.22617E+4   1.13130E+4
  -1.21246E+4   1.13076E+4
  -1.20616E+4   1.12550E+4
  -1.19250E+4   1.12272E+4
  -1.17990E+4   1.12012E+4
  -1.17139E+4   1.11411E+4
  -1.16065E+4   1.10794E+4
  -1.14373E+4   1.10519E+4
  -1.13306E+4   1.10786E+4
  -1.12556E+4   1.10388E+4
  -1.10964E+4   1.10328E+4
  -1.10965E+4   1.09791E+4
  -1.09817E+4   1.08614E+4
  -1.08484E+4   1.08732E+4
  -1.07429E+4   1.08263E+4
  -1.07361E+4   1.08024E+4
  -1.05259E+4   1.07324E+4
  -1.04414E+4   1.07709E+4
  -1.03588E+4   1.06484E+4
  -1.03105E+4   1.06584E+4
  -1.02995E+4   1.05832E+4
  -1.01397E+4   1.05552E+4
  -1.00240E+4   1.04155E+4
  -9.98209E+3   1.05149E+4
  -9.89417E+3   1.03866E+4
  -9.72341E+3   1.03132E+4
  -9.67243E+3   1.02869E+4
  -9.60577E+3   1.02840E+4
  -9.50376E+3   1.02776E+4
  -9.45366E+3   1.02321E+4
  -9.35421E+3   1.01360E+4
  -9.30823E+3   1.00660E+4
  -9.23302E+3   1.00749E+4
  -9.11768E+3   1.00666E+4
  -9.07265E+3   1.00464E+4
  -8.92625E+3   9.84081E+3
  -8.86918E+3   9.86332E+3
  -8.77499E+3   9.84829E+3
  -8.71474E+3   9.85603E+3
  -8.70458E+3   9.76793E+3
  -8.54863E+3   9.75427E+3
  -8.49087E+3   9.72147E+3
  -8.44675E+3   9.69796E+3
  -8.37149E+3   9.62511E+3
  -8.25561E+3   9.67628E+3
  -8.14302E+3   9.56618E+3
  -8.07084E+3   9.57914E+3
  -8.05431E+3   9.47217E+3
  -7.97375E+3   9.44708E+3
  -7.92941E+3   9.45172E+3
  -7.83949E+3   9.38205E+3
  -7.77012E+3   9.31459E+3
  -7.66753E+3   9.39600E+3
  -7.54148E+3   9.21935E+3
  -7.57299E+3   9.26072E+3
  -7.44598E+3   9.17308E+3
  -7.47501E+3   9.16209E+3
  -7.30940E+3   9.12193E+3
  -7.28387E+3   9.12990E+3
  -7.17495E+3   9.08485E+3
  -7.16081E+3   9.00407E+3
  -7.06654E+3   8.97046E+3
  -6.97621E+3   8.98133E+3
  -6.95341E+3   8.84272E+3
  -6.87507E+3   8.81797E+3
  -6.83299E+3   8.84177E+3
  -6.82510E+3   8.75185E+3
  -6.68285E+3   8.74760E+3
  -6.64991E+3   8.78390E+3
  -6.61174E+3   8.70082E+3
  -6.52659E+3   8.68919E+3
  -6.40767E+3   8.59660E+3
  -6.33265E+3   8.50982E+3
  -6.32496E+3   8.49680E+3
  -6.26832E+3   8.49857E+3
  -6.16254E+3   8.45209E+3
  -6.12338E+3   8.45221E+3
  -6.07921E+3   8.33208E+3
  -6.04072E+3   8.33380E+3
  -5.92195E+3   8.22435E+3
  -5.90144E+3   8.23762E+3
  -5.82057E+3   8.13297E+3
  -5.78803E+3   8.15850E+3
  -5.74219E+3   8.12812E+3
  -5.61722E+3   8.04418E+3
  -5.58576E+3   8.04453E+3
  -5.55345E+3   7.99131E+3
  -5.42985E+3   7.98353E+3
  -5.30586E+3   7.95771E+3
  -5.30134E+3   7.98155E+3
  -5.26721E+3   7.92680E+3
  -5.21692E+3   7.86953E+3
  -5.14582E+3   7.77721E+3
  -5.10994E+3   7.72684E+3
  -4.99961E+3   7.70272E+3
  -4.90866E+3   7.71387E+3
  -4.94500E+3   7.68235E+3
  -4.87293E+3   7.58066E+3
  -4.76553E+3   7.57295E+3
  -4.68199E+3   7.52302E+3
  -4.70832E+3   7.53134E+3
  -4.62922E+3   7.39344E+3
  -4.57372E+3   7.34745E+3
  -4.50145E+3   7.34410E+3
  -4.44899E+3   7.29034E+3
  -4.36958E+3   7.31906E+3
  -4.33833E+3   7.28778E+3
  -4.27396E+3   7.17867E+3
  -4.25645E+3   7.10902E+3
  -4.16342E+3   7.10606E+3
  -4.08311E+3   7.08454E+3
  -4.12318E+3   7.01624E+3
  -4.00632E+3   6.93496E+3
  -4.01871E+3   6.99626E+3
  -3.90264E+3   6.89175E+3
  -3.85173E+3   6.77017E+3
  -3.79745E+3   6.79929E+3
  -3.83561E+3   6.81647E+3
  -3.70674E+3   6.76346E+3
  -3.74005E+3   6.71105E+3
  -3.62356E+3   6.66679E+3
  -3.57412E+3   6.61123E+3
  -3.53760E+3   6.53224E+3
  -3.54806E+3   6.48387E+3
  -3.42802E+3   6.44523E+3
  -3.38414E+3   6.44655E+3
  -3.36157E+3   6.45490E+3
  -3.32683E+3   6.35643E+3
  -3.27520E+3   6.35605E+3
  -3.28229E+3   6.27655E+3
  -3.17795E+3   6.23456E+3
  -3.20855E+3   6.22429E+3
  -3.14426E+3   6.13689E+3
  -3.10549E+3   6.20413E+3
  -3.04120E+3   6.02629E+3
  -3.03813E+3   6.03992E+3
  -2.97149E+3   6.01302E+3
  -2.88848E+3   5.97176E+3
  -2.88731E+3   5.93819E+3
  -2.75241E+3   5.89707E+3
  -2.81267E+3   5.89177E+3
  -2.72688E+3   5.84407E+3
  -2.72155E+3   5.78129E+3
  -2.70417E+3   5.70376E+3
  -2.61824E+3   5.63370E+3
  -2.53371E+3   5.59581E+3
  -2.62257E+3   5.63951E+3
  -2.48065E+3   5.51128E+3
  -2.40796E+3   5.53941E+3
  -2.44095E+3   5.49111E+3
  -2.44819E+3   5.47284E+3
  -2.37199E+3   5.37215E+3
  -2.29401E+3   5.40711E+3
  -2.27039E+3   5.36850E+3
  -2.25656E+3   5.31448E+3
  -2.23016E+3   5.26653E+3
  -2.19937E+3   5.24860E+3
  -2.14788E+3   5.18600E+3
  -2.19237E+3   5.22714E+3
  -2.09420E+3   5.13510E+3
  -2.07404E+3   5.10383E+3
  -1.99438E+3   5.09382E+3
  -2.00518E+3   5.01416E+3
  -2.00805E+3   4.98715E+3
  -1.94215E+3   4.96832E+3
  -1.87973E+3   4.90177E+3
  -1.90069E+3   4.86602E+3
  -1.83516E+3   4.85582E+3
  -1.83894E+3   4.78839E+3
  -1.80965E+3   4.75814E+3
  -1.73285E+3   4.67049E+3
  -1.69750E+3   4.75322E+3
  -1.67838E+3   4.64016E+3
  -1.62953E+3   4.65321E+3
  -1.68257E+3   4.57197E+3
  -1.66834E+3   4.60688E+3
  -1.56954E+3   4.55423E+3
  -1.59321E+3   4.51328E+3
  -1.54003E+3   4.45067E+3
  -1.48675E+3   4.41048E+3
  -1.50640E+3   4.43370E+3
  -1.51367E+3   4.38836E+3
  -1.45869E+3   4.33950E+3
  -1.37997E+3   4.26943E+3
  -1.34557E+3   4.25456E+3
  -1.45341E+3   4.24135E+3
  -1.30678E+3   4.15962E+3
  -1.25993E+3   4.14294E+3
  -1.25475E+3   4.08758E+3
  -1.28641E+3   4.06263E+3
  -1.25038E+3   4.05648E+3
  -1.21529E+3   4.07167E+3
  -1.20832E+3   3.96572E+3
  -1.20599E+3   3.95180E+3
  -1.08671E+3   3.92835E+3
  -1.14489E+3   3.91971E+3
  -1.09956E+3   3.83810E+3
  -1.10008E+3   3.85569E+3
  -1.13793E+3   3.79253E+3
