 
 $NMID
 ID=''
 FMTDAT='(2E13.5)'
 TRAMP=   1.00000E+0
 VOLUME=   1.00000E+0
 $END
   4.52083E+1  -4.13119E+2
   1.72212E+3  -6.39157E+2
  -3.92280E+3  -3.25993E+2
   4.26237E+2   7.28328E+2
  -2.45317E+3  -3.66714E+2
  -6.43848E+2  -1.80683E+3
  -2.11766E+3   2.16186E+2
  -1.71538E+3   2.68192E+3
   1.04714E+3   4.61980E+3
  -1.67788E+3   3.16234E+3
  -1.60335E+3   1.84370E+3
   1.37250E+2  -1.60795E+3
   2.21971E+3  -4.43755E+2
   1.93370E+3   3.18865E+3
   3.69064E+2  -4.88280E+1
   4.06371E+2  -2.28756E+3
   2.80978E+3  -1.88773E+3
   3.05728E+2   1.31676E+3
  -2.17262E+3  -2.87109E+2
  -3.95899E+3  -2.43947E+3
  -2.49566E+3  -4.13956E+3
   4.08181E+2  -4.49620E+2
   7.88817E+2   5.55553E+2
  -2.53972E+3  -1.38848E+3
  -2.40146E+3  -3.18771E+3
   1.53133E+3   2.25453E+2
  -2.24296E+2   1.91300E+3
  -2.80467E+3   1.87181E+3
  -6.29155E+3  -6.46361E+2
  -3.47854E+3  -3.23821E+3
   3.50803E+3  -3.51121E+3
   2.89541E+3   2.25954E+3
  -5.19272E+1   3.68476E+3
  -3.97216E+2   8.30736E+2
   8.53857E+2   2.94325E+3
   2.95446E+2   1.19178E+3
   1.11327E+2  -8.74823E+2
   1.06315E+3  -2.27793E+3
   5.08770E+2  -1.32647E+3
  -3.38623E+0  -2.29099E+3
   5.14662E+3   1.55583E+2
   3.80925E+3   2.59077E+3
  -6.42720E+2   1.95832E+3
  -5.22964E+3  -1.16991E+3
  -1.04542E+3  -2.62243E+3
  -4.98309E+2   7.46286E+2
   1.53150E+3  -6.51760E+2
   5.33126E+2  -1.84068E+3
   8.63131E+2   7.67278E+1
   2.00378E+2  -2.41545E+3
   4.03257E+2   3.84979E+3
  -9.78403E+2  -1.09094E+3
  -5.88075E+2  -2.43145E+3
   1.36943E+3   7.36964E+1
   1.32012E+3  -9.21665E+2
   8.58206E+2  -1.95422E+3
   3.54791E+2  -9.87630E+2
   1.81652E+2   1.91577E+3
  -1.73763E+3   4.79169E+2
  -2.37271E+3  -6.76088E+2
   1.62390E+2  -1.91146E+3
  -3.93377E+2  -2.56084E+3
   6.85330E+2   1.41063E+2
   1.60457E+3  -4.42529E+2
   3.99002E+2  -1.66382E+3
   4.92028E+2  -2.42775E+3
   1.92296E+3   1.89325E+3
   1.95923E+3   8.17001E+2
  -2.19504E+2   1.15706E+3
   9.88780E+2   4.44796E+1
   6.20413E+2   5.89956E+2
   6.92285E+2   1.53401E+3
  -1.37299E+3   2.61565E+3
  -1.02688E+3   3.12080E+1
   1.08186E+3  -2.56030E+2
  -1.66442E+2   7.79938E+1
   1.21412E+3   3.70459E+1
   5.87102E+2  -8.20604E+2
   1.54382E+2  -7.03314E+2
  -2.65677E+1  -8.44193E+2
  -2.79781E+2  -5.01103E+2
   2.23901E+3   1.42692E+3
   8.00805E+2   7.93710E+2
   4.98910E+2  -2.37863E+2
   4.66179E+2   2.07386E+3
   5.39791E+2   1.71339E+3
   4.53079E+2   2.22259E+3
  -2.22654E+3   1.94000E+3
   1.00396E+3   1.36258E+3
   9.94243E+2  -3.25668E+2
   5.35576E+2   2.57454E+3
   2.22140E+2   1.71836E+3
   2.94779E+1  -5.52617E+2
   1.09799E+3   9.78673E+2
  -1.10066E+3   9.28677E+2
  -2.54497E+3   1.63244E+3
  -1.02581E+3   3.62861E+2
  -1.68441E+3  -2.01055E+3
   1.35031E+3   1.58573E+3
  -2.10229E+3   6.10210E+2
   3.37801E+2   2.79609E+3
   7.83242E+2   1.34925E+3
   7.92650E+2   4.32671E+2
  -1.53890E+3  -1.25169E+2
  -7.22823E+2   1.63691E+3
   2.75001E+2   1.08840E+3
   2.29791E+3  -2.30976E+3
   1.51391E+3  -1.01723E+3
  -1.09315E+3   4.78303E+2
   9.54968E+1  -1.83792E+3
   3.03229E+1  -1.11430E+3
  -1.48448E+2   4.74660E+2
   1.98911E+2   5.53918E+1
   7.35984E+2  -2.03922E+3
  -9.95243E+1  -9.06413E+2
  -2.07097E+3   1.41407E+2
  -2.07593E+3  -1.17832E+3
  -9.40004E+1  -2.15020E+2
  -3.57085E+1  -4.90226E+1
   1.39691E+1  -3.27648E+1
   9.28236E+2   2.41137E+3
   8.74334E+2   1.05288E+3
  -9.88274E+2   7.41759E+2
   9.14935E+2  -1.09997E+3
  -1.39395E+3  -1.69821E+2
   1.13337E+3  -1.08109E+3
  -8.79378E+2  -3.37363E+2
   6.78985E+2  -1.55959E+3
   5.82325E+2  -1.91290E+3
   1.40304E+3   6.73944E+2
  -6.81828E+2   4.13115E+2
  -8.18258E+2  -4.71302E+2
  -3.42593E+3  -1.77834E+3
   1.91210E+3   1.78898E+3
  -2.58305E+2   8.36336E+2
   5.10187E+1   1.89427E+2
   6.76553E+2   1.01248E+3
   5.45145E+2  -1.36058E+3
  -8.04150E+2  -1.04861E+3
  -9.14550E+2   1.72530E+2
  -8.75816E+2  -6.15501E+2
   6.55430E+2  -2.60125E+0
  -2.38894E+2  -8.09424E+2
   2.05228E+3   9.03949E+2
  -8.61802E+2  -1.21459E+3
  -7.76738E+2   4.30882E+2
  -6.55684E+2  -3.75963E+2
   6.68302E+2  -3.64364E+2
   6.65582E+2  -9.76719E+1
  -2.46200E+3  -1.83788E+2
  -3.59418E+2   1.09812E+3
  -1.67940E+3   4.81889E+2
  -1.66017E+3   1.35326E+3
   5.06398E+2  -1.29834E+3
  -1.05735E+3   8.64300E+2
  -1.36810E+3  -9.41312E+2
  -3.09911E+0   2.39032E+3
  -1.03157E+3   1.58491E+3
  -1.35172E+3   1.51696E+3
  -1.27898E+3   1.41792E+3
  -2.47685E+2  -5.57949E+2
   2.58323E+2  -8.86817E+2
  -5.57320E+2  -2.08808E+3
   9.05810E+2  -7.05705E+2
   6.84097E+2  -6.86892E+1
   3.03536E+1  -1.02331E+3
  -6.93200E+2   9.42871E+2
   2.87096E+3  -1.34490E+3
   8.54381E+2   6.82540E+1
   4.51560E+2  -7.43179E+2
   6.31207E+2  -1.70578E+3
  -9.31805E+2   1.44366E+3
  -5.28991E+2  -1.03202E+3
  -1.01678E+3  -1.60174E+3
  -2.66712E+2  -2.82820E+3
  -1.56450E+3  -3.35476E+2
   2.13698E+3  -8.63011E+1
   1.22949E+3  -1.20188E+3
   5.59078E+2  -2.05210E+2
   6.85809E+2  -1.33048E+3
  -9.50129E+2  -1.31520E+3
   2.08769E+3  -8.35400E+1
  -1.66213E+2  -8.20666E+1
  -9.09847E+2   1.62250E+3
   3.41240E+3  -1.47733E+3
  -4.53562E+2   3.27961E+2
   9.02911E+2   1.11136E+2
  -1.28039E+2   4.81629E+2
  -6.11411E+2  -1.76689E+3
  -7.84328E+2  -3.65857E+2
   1.22780E+3  -5.61258E+2
  -3.93800E+2   4.87729E+2
  -5.06818E+2   1.05081E+3
   2.08600E+3  -7.28988E+2
   6.01950E+2  -1.45909E+3
  -1.66287E+3  -7.37010E+2
  -8.23671E+1  -6.25694E+2
  -1.59556E+2  -1.67485E+3
   7.34097E+2  -7.19347E+2
   4.26650E+1  -3.90426E+2
  -1.05189E+2  -2.05814E+3
   1.73085E+3  -1.74751E+2
  -1.44646E+3  -5.35716E+2
   5.29671E+2  -9.67111E+2
  -1.04320E+3  -1.18586E+3
  -1.29852E+3   1.61519E+2
   9.24788E+2  -1.01665E+3
  -1.45436E+3  -7.02696E+2
  -4.92476E+2  -1.34427E+3
  -1.20057E+3   4.80348E+2
  -2.51848E+2  -1.40592E+3
   2.28364E+1  -1.13086E+3
   9.64801E+2   1.20951E+1
   1.66276E+3   4.42178E+2
  -1.02499E+3   9.36178E+2
   9.18304E+1   4.83885E+2
   1.53573E+3  -9.14640E+2
   1.06148E+3  -1.89151E+1
  -1.26967E+3  -1.92385E+3
  -5.37263E+2   2.58307E+2
  -4.27163E+2   8.02872E+2
  -2.39648E+2   1.64909E+3
  -2.45066E+2   1.28075E+3
  -1.37081E+3   9.74555E+1
  -4.40697E+2   3.81357E+2
   4.55781E+2  -1.07533E+1
   9.07496E+2   1.71307E+2
   4.52290E+2   2.11255E+3
   1.48568E+2   1.09048E+3
   4.33600E+2   1.46096E+2
  -1.59439E+3  -5.43161E+2
  -1.94435E+2  -1.56113E+3
   7.36218E+2  -1.84926E+3
  -3.57284E+2  -3.96607E+2
  -1.02076E+3  -3.04461E+3
   1.97370E+3  -2.46322E+3
   1.29397E+2   4.49024E+2
   9.61540E+2  -8.78567E+2
   9.87436E+1  -8.44523E+2
   4.93750E+2   1.97083E+2
   1.52684E+3  -7.06875E+2
  -1.53478E+3   8.96409E+2
   2.41727E+2  -2.20624E+1
   1.40353E+3   8.47102E+2
  -3.02984E+2   1.36472E+3
   3.67110E+1   1.42995E+3
   5.11671E+1  -3.36449E+2
  -7.88310E+2   3.43424E+2
   4.87446E+2  -2.10023E+2
  -2.48028E+3   1.31101E+3
  -1.76021E+3  -2.98790E+2
  -6.55049E+2   3.69297E+2
  -9.97120E+2   1.97588E+3
  -9.57128E+1   1.66869E+3
   1.14501E+3  -7.15014E+2
  -7.78886E+2  -6.29170E+2
  -1.15453E+3  -3.33269E+2
   6.57696E+2   1.91572E+2
  -5.13158E+2   1.33871E+3
   7.25551E+2   2.12212E+3
   2.20063E+3  -6.57894E+2
   1.82072E+3  -1.87544E+3
   6.57846E+2   1.54499E+2
   9.12877E+2   8.46389E+2
   1.20799E+3   5.47449E+2
   4.35466E+2   1.14774E+2
  -8.25906E+2   4.80888E+2
   6.82452E+2   2.35185E+3
   1.65040E+2   1.61543E+3
   2.61219E+2  -1.63372E+3
   1.56409E+3   5.26495E+2
   8.96878E+2   4.05837E+1
   3.26361E+2  -1.34836E+3
  -1.23981E+3  -2.84827E+3
   8.81663E+1   9.90245E+2
  -9.93897E+2   7.51030E+2
   6.55206E+2   1.70703E+2
   9.19620E+2  -4.75043E+2
  -4.75989E+2   1.01136E+3
  -2.96624E+2  -6.78237E+2
   1.50039E+3   2.29678E+3
  -9.40712E+2  -1.07392E+2
   7.41227E+2  -6.83450E+2
  -9.00259E+2  -1.07520E+3
   2.98516E+2   5.15217E+2
   1.02341E+3   1.18114E+3
  -3.72502E+2   3.23328E+2
  -7.75254E+2  -2.78366E+2
   4.57089E+0   2.23929E+2
  -1.33255E+3  -1.40556E+3
  -7.34842E+2  -2.76775E+2
   2.58589E+2  -2.01213E+2
   1.83629E+3  -5.08453E+2
   7.04186E+2  -4.38152E+2
  -1.34282E+3   1.68564E+2
   1.56363E+3   8.98984E+2
   1.55788E+3   1.59820E+3
  -1.07828E+3  -1.56112E+3
   1.37261E+3   8.22616E+2
  -1.69625E+3   8.19359E+2
   9.42780E+2  -1.34323E+3
   4.31575E+2  -8.19241E+2
   1.33798E+3  -8.60523E+2
  -8.50673E+2  -5.49169E+2
   6.03618E+2   1.07264E+3
  -1.62580E+2  -6.79168E+2
   1.16475E+3   3.02555E+2
   1.02763E+3   4.04056E+2
   6.26377E+2   1.79987E+2
  -2.81124E+3  -1.95587E+2
  -5.70908E+2  -1.84539E+3
   7.24208E+1  -7.57607E+2
  -1.13779E+2  -9.50244E+2
   3.19381E+2  -5.75602E+2
   7.48731E+2   3.07760E+1
   6.48150E+2   1.64498E+3
   1.14624E+3   1.60800E+2
  -7.11626E+2  -1.31602E+3
   5.51376E+2   1.19756E+3
   1.41602E+3  -6.74977E+2
   1.77763E+3  -6.88436E+2
  -3.16690E+2  -6.35256E+2
  -9.63005E+2   1.57376E+3
  -6.64807E+2  -1.18313E+3
  -6.69083E+2   2.07305E+3
  -6.34420E+2  -1.45118E+2
   1.40561E+3   1.86017E+3
  -4.12050E+2   5.91338E+2
  -2.57586E+3  -5.12702E+2
   3.84203E+2   2.02059E+3
  -1.62988E+3   2.19190E+2
  -6.21831E+0   7.24971E+2
  -2.14794E+3   7.41134E+2
   3.46450E+2   9.72852E+2
   1.60592E+3   1.58170E+3
   4.76879E+2   8.45618E+2
  -1.20681E+2   6.92535E+2
   1.80338E+3   1.63840E+1
  -1.21058E+3  -3.68042E+2
   2.96274E+2   1.57513E+3
  -2.68688E+2  -1.53584E+3
  -9.76578E+1  -1.01190E+3
   1.55357E+2   4.18572E+2
  -1.16962E+3   4.26268E+2
  -9.82446E+2  -5.26480E+1
  -8.80039E+2   1.67254E+3
  -8.68826E+2  -3.97496E+2
  -1.12387E+2  -2.53670E+2
  -1.36966E+3   2.78915E+3
   7.32557E+2   1.55024E+3
   2.44899E+3   2.53683E+3
   1.84072E+3  -7.62268E+1
  -5.82086E+2  -1.24785E+3
  -3.87278E+2   9.34668E+2
   1.03262E+1   1.56764E+3
   3.44413E+2  -3.82811E+2
  -3.56258E+2   1.69372E+3
   1.35691E+3   6.01951E+2
  -9.30208E+2  -2.67691E+2
  -1.61331E+3   1.01788E+3
  -1.63479E+2   1.00685E+3
  -5.47025E+2  -5.25226E+2
   1.01228E+3   1.03170E+3
   4.06377E+2  -1.37132E+3
   1.79685E+3   7.45567E+2
  -2.00316E+3  -1.53193E+2
   8.00990E+2  -3.67004E+2
