 LCModel (Version 6.3-1N) Copyright: S.W. Provencher.          Ref.: Magn. Reson. Med. 30:672-679 (1993).                
 Slice_N1@18_13  02-Jun-2023 14:36:57
 27 lines in following concentration table = NCONC+1
    Conc.  %SD /Cr+PCr  Metabolite                                         
 2.53E-06  13% 2.9E-04 Mac                                                 
 2.63E-02  18%   2.967 Cr                                                  
 4.46E-02  11%   5.033 PCr                                                 
 7.21E-02  10%   8.124 Ins                                                 
 7.58E-02   7%   8.549 NAA                                                 
 5.70E-02  11%   6.428 Tau                                                 
 8.00E-03  18%   0.902 PCho                                                
 2.74E-03  65%   0.309 GPC                                                 
 8.03E-02  10%   9.049 Glu                                                 
 2.79E-02  22%   3.147 Gln                                                 
    0.000 999%   0.000 Ala                                                 
 1.58E-02  68%   1.783 Asc                                                 
 4.39E-03 154%   0.495 Asp                                                 
 9.75E-03  37%   1.099 GABA                                                
 4.48E-03 103%   0.505 Glc                                                 
 1.48E-02  24%   1.664 GSH                                                 
    0.000 999%   0.000 Lac                                                 
 5.66E-03  60%   0.638 NAAG                                                
 3.59E-03 243%   0.405 PE                                                  
 1.07E-02  19%   1.211 GPC+PCho                                            
 8.15E-02   8%   9.186 NAA+NAAG                                            
    0.108   9%  12.197 Glu+Gln                                             
 7.10E-02   8%   8.000 Cr+PCr                                              
 8.15E-02   8%   9.186 NAA+NAAG                                            
 7.10E-02   8%   8.000 Cr+PCr                                              
    0.108   9%  12.197 Glu+Gln                                             
   6 lines in following misc. output table
  FWHM = 0.017 ppm    S/N =   7                                            
  Data shift = 0.017 ppm                                                   
  Ph: -55 deg     -11.4 deg/ppm                                            
  alphaB,S = 5.1E-01,   3.6E-01                                            
   18 spline knots.   Ns = 5(1)                                            
   2 inflections.     2 extrema                                            
  654 points on ppm-axis = NY
      4.000000     3.994181     3.988363     3.982544     3.976726     3.970907     3.965088     3.959270     3.953451     3.947633
      3.941814     3.935995     3.930177     3.924358     3.918540     3.912721     3.906902     3.901084     3.895265     3.889446
      3.883628     3.877809     3.871991     3.866172     3.860353     3.854535     3.848716     3.842898     3.837079     3.831260
      3.825442     3.819623     3.813805     3.807986     3.802167     3.796349     3.790530     3.784712     3.778893     3.773074
      3.767256     3.761437     3.755619     3.749800     3.743981     3.738163     3.732344     3.726526     3.720707     3.714888
      3.709070     3.703251     3.697433     3.691614     3.685795     3.679977     3.674158     3.668339     3.662521     3.656702
      3.650884     3.645065     3.639246     3.633428     3.627609     3.621791     3.615972     3.610153     3.604335     3.598516
      3.592698     3.586879     3.581060     3.575242     3.569423     3.563605     3.557786     3.551967     3.546149     3.540330
      3.534512     3.528693     3.522874     3.517056     3.511237     3.505419     3.499600     3.493781     3.487963     3.482144
      3.476326     3.470507     3.464688     3.458870     3.453051     3.447232     3.441414     3.435595     3.429777     3.423958
      3.418139     3.412321     3.406502     3.400684     3.394865     3.389046     3.383228     3.377409     3.371591     3.365772
      3.359953     3.354135     3.348316     3.342498     3.336679     3.330860     3.325042     3.319223     3.313405     3.307586
      3.301767     3.295949     3.290130     3.284312     3.278493     3.272674     3.266856     3.261037     3.255219     3.249400
      3.243581     3.237763     3.231944     3.226125     3.220307     3.214488     3.208670     3.202851     3.197032     3.191214
      3.185395     3.179577     3.173758     3.167939     3.162121     3.156302     3.150484     3.144665     3.138846     3.133028
      3.127209     3.121391     3.115572     3.109753     3.103935     3.098116     3.092298     3.086479     3.080660     3.074842
      3.069023     3.063205     3.057386     3.051567     3.045749     3.039930     3.034111     3.028293     3.022474     3.016656
      3.010837     3.005018     2.999200     2.993381     2.987563     2.981744     2.975925     2.970107     2.964288     2.958470
      2.952651     2.946832     2.941014     2.935195     2.929377     2.923558     2.917739     2.911921     2.906102     2.900284
      2.894465     2.888646     2.882828     2.877009     2.871191     2.865372     2.859553     2.853735     2.847916     2.842098
      2.836279     2.830460     2.824642     2.818823     2.813004     2.807186     2.801367     2.795549     2.789730     2.783911
      2.778093     2.772274     2.766456     2.760637     2.754818     2.749000     2.743181     2.737363     2.731544     2.725725
      2.719907     2.714088     2.708270     2.702451     2.696632     2.690814     2.684995     2.679177     2.673358     2.667539
      2.661721     2.655902     2.650084     2.644265     2.638446     2.632628     2.626809     2.620991     2.615172     2.609353
      2.603535     2.597716     2.591897     2.586079     2.580260     2.574442     2.568623     2.562804     2.556986     2.551167
      2.545349     2.539530     2.533711     2.527893     2.522074     2.516256     2.510437     2.504618     2.498800     2.492981
      2.487163     2.481344     2.475525     2.469707     2.463888     2.458070     2.452251     2.446432     2.440614     2.434795
      2.428977     2.423158     2.417339     2.411521     2.405702     2.399884     2.394065     2.388246     2.382428     2.376609
      2.370790     2.364972     2.359153     2.353335     2.347516     2.341697     2.335879     2.330060     2.324242     2.318423
      2.312604     2.306786     2.300967     2.295149     2.289330     2.283511     2.277693     2.271874     2.266056     2.260237
      2.254418     2.248600     2.242781     2.236963     2.231144     2.225325     2.219507     2.213688     2.207870     2.202051
      2.196232     2.190414     2.184595     2.178777     2.172958     2.167139     2.161321     2.155502     2.149683     2.143865
      2.138046     2.132228     2.126409     2.120590     2.114772     2.108953     2.103135     2.097316     2.091497     2.085679
      2.079860     2.074042     2.068223     2.062404     2.056586     2.050767     2.044949     2.039130     2.033311     2.027493
      2.021674     2.015856     2.010037     2.004218     1.998400     1.992581     1.986763     1.980944     1.975126     1.969307
      1.963489     1.957670     1.951852     1.946033     1.940215     1.934397     1.928578     1.922760     1.916941     1.911123
      1.905304     1.899486     1.893667     1.887849     1.882030     1.876212     1.870393     1.864575     1.858756     1.852938
      1.847119     1.841301     1.835482     1.829664     1.823845     1.818027     1.812208     1.806390     1.800571     1.794753
      1.788934     1.783116     1.777297     1.771479     1.765660     1.759842     1.754023     1.748205     1.742386     1.736568
      1.730749     1.724931     1.719113     1.713294     1.707476     1.701657     1.695839     1.690020     1.684202     1.678383
      1.672565     1.666746     1.660928     1.655109     1.649291     1.643472     1.637654     1.631835     1.626017     1.620198
      1.614380     1.608561     1.602743     1.596924     1.591106     1.585287     1.579469     1.573650     1.567832     1.562013
      1.556195     1.550376     1.544558     1.538739     1.532921     1.527102     1.521284     1.515465     1.509647     1.503829
      1.498010     1.492192     1.486373     1.480555     1.474736     1.468918     1.463099     1.457281     1.451462     1.445644
      1.439825     1.434007     1.428188     1.422370     1.416551     1.410733     1.404914     1.399096     1.393277     1.387459
      1.381640     1.375822     1.370003     1.364185     1.358366     1.352548     1.346729     1.340911     1.335092     1.329274
      1.323455     1.317637     1.311818     1.306000     1.300182     1.294363     1.288545     1.282726     1.276908     1.271089
      1.265271     1.259452     1.253634     1.247815     1.241997     1.236178     1.230360     1.224541     1.218723     1.212904
      1.207086     1.201267     1.195449     1.189630     1.183812     1.177993     1.172175     1.166356     1.160538     1.154719
      1.148901     1.143082     1.137264     1.131445     1.125627     1.119808     1.113990     1.108171     1.102353     1.096534
      1.090716     1.084898     1.079079     1.073261     1.067442     1.061624     1.055805     1.049987     1.044168     1.038350
      1.032531     1.026713     1.020894     1.015076     1.009257     1.003439     0.997620     0.991802     0.985983     0.980165
      0.974346     0.968528     0.962709     0.956891     0.951072     0.945254     0.939435     0.933617     0.927798     0.921980
      0.916161     0.910343     0.904524     0.898706     0.892887     0.887069     0.881251     0.875432     0.869614     0.863795
      0.857977     0.852158     0.846340     0.840521     0.834703     0.828884     0.823066     0.817247     0.811429     0.805610
      0.799792     0.793973     0.788155     0.782336     0.776518     0.770699     0.764881     0.759062     0.753244     0.747425
      0.741607     0.735788     0.729970     0.724151     0.718333     0.712514     0.706696     0.700877     0.695059     0.689240
      0.683422     0.677603     0.671785     0.665967     0.660148     0.654330     0.648511     0.642693     0.636874     0.631056
      0.625237     0.619419     0.613600     0.607782     0.601963     0.596145     0.590326     0.584508     0.578689     0.572871
      0.567052     0.561234     0.555415     0.549597     0.543778     0.537960     0.532141     0.526323     0.520504     0.514686
      0.508867     0.503049     0.497230     0.491412     0.485593     0.479775     0.473956     0.468138     0.462319     0.456501
      0.450682     0.444864     0.439045     0.433227     0.427408     0.421590     0.415771     0.409953     0.404134     0.398316
      0.392497     0.386679     0.380860     0.375042     0.369223     0.363405     0.357586     0.351767     0.345949     0.340130
      0.334312     0.328493     0.322675     0.316856     0.311038     0.305219     0.299401     0.293582     0.287764     0.281945
      0.276127     0.270308     0.264490     0.258671     0.252853     0.247034     0.241216     0.235397     0.229579     0.223760
      0.217942     0.212123     0.206305     0.200486
 NY phased data points follow
  -2.10621E-01 -1.57371E-01 -9.59983E-02  2.24888E-01  5.52044E-02 -1.83660E-01 -9.88051E-02 -3.31679E-01 -2.79170E-02  6.85734E-02
  -1.27807E-01  4.49472E-01  9.90220E-01  3.67280E-01  8.37274E-02  2.90476E-01  4.90391E-01  1.08232E-01 -1.23964E-01  1.44263E-02
  -2.82145E-01 -7.18935E-02 -5.01470E-02 -2.20974E-01  1.34803E-01  9.97350E-02 -8.26001E-02 -3.39135E-03 -1.57194E-01 -6.48173E-02
  -3.88048E-02  1.26970E-02 -3.51262E-01 -2.68476E-01  5.70570E-03 -3.18993E-01 -2.61702E-01 -3.52469E-01 -3.94857E-01 -1.46111E-01
   1.72848E-01  2.02412E-01  4.69237E-01  2.97924E-01  2.20696E-01  4.21350E-01  3.78574E-01  4.26432E-01  4.19084E-01  3.54645E-01
   1.34441E-01  2.11401E-01  1.14226E-01 -1.46622E-02 -2.58159E-01 -1.44385E-01 -1.90320E-01 -6.68342E-02 -1.83563E-01 -3.51326E-01
  -9.20576E-02 -2.72178E-01 -4.83451E-01 -6.22727E-01 -2.16334E-01 -5.24367E-01  6.34477E-02  1.88214E-01 -1.82490E-01  6.67538E-02
   1.23518E-01  3.82449E-01 -8.76348E-02  1.15589E-01 -6.11582E-02  5.35266E-02 -1.75121E-01 -5.65588E-01 -2.92982E-01 -7.41178E-01
  -4.38931E-01  1.17961E-01  1.17483E-01  9.87316E-02  5.32197E-01  6.25657E-01  4.68706E-01  2.76150E-01  1.35776E-01  2.95714E-01
   3.46769E-01  2.41727E-01  1.48552E-01  1.24848E-01 -9.95485E-02  1.02805E-01  1.93871E-01 -1.48219E-01  4.63649E-02 -2.70643E-02
  -5.21144E-01 -3.49324E-01 -8.83747E-02  3.38145E-01  8.44651E-01  7.48267E-01  6.08592E-01  3.66281E-01  5.21608E-01  5.19725E-01
   4.18917E-01  6.07961E-01  4.29985E-02  2.87066E-01  1.24512E-01  6.40338E-02  3.32131E-01 -6.16792E-02  6.44503E-01  3.84757E-01
   1.94956E-01  3.04103E-01 -3.95920E-02 -4.43463E-02  7.43791E-02 -1.20076E-01 -3.95052E-01 -1.82602E-02 -4.49487E-01 -6.24186E-01
  -6.01627E-01 -6.23134E-01 -4.61917E-01 -5.59331E-01 -4.33118E-01 -3.72670E-01 -7.95260E-01 -1.05689E+00 -7.31625E-01 -2.09326E-01
  -1.68877E-02 -1.06980E-01  7.18793E-02 -2.08966E-01  1.16436E-01  3.18061E-01  2.76245E-01  1.75803E-01 -6.29827E-03  2.24407E-01
   5.43175E-02  2.29253E-01  1.64490E-01  2.53288E-01  4.16706E-01  5.02082E-01  2.88230E-01  2.93384E-01  3.52632E-01  2.81260E-01
   6.98526E-01  6.42445E-01  4.48702E-01  4.95906E-01  9.64400E-01  1.34766E+00  1.60785E+00  4.68344E-01 -8.45641E-01 -1.46859E+00
  -1.28203E+00 -4.88960E-01 -5.56176E-01 -1.98404E-01 -5.27181E-01 -4.85598E-01 -3.08810E-01 -4.53539E-01 -3.20294E-01 -5.89659E-01
  -3.27521E-01 -1.93467E-02 -1.87080E-01 -2.81286E-01  7.45263E-02 -1.08406E-01 -2.87228E-01 -2.65630E-01 -1.71579E-01 -2.84205E-01
  -3.73639E-01 -3.03539E-01 -4.24805E-01  5.47397E-02  2.35587E-02 -3.90670E-02 -2.61757E-01 -1.24529E-01 -1.67304E-01 -3.29382E-01
   4.32915E-02 -3.72371E-01  5.55092E-03  5.37870E-02  7.88637E-02  8.38224E-02 -1.03552E-01 -8.73637E-02 -8.32916E-02  2.47182E-02
  -4.64710E-01 -4.12928E-02 -4.20254E-02 -1.04339E-01 -8.85072E-02 -4.84500E-02 -2.75639E-02 -2.35306E-01  9.60081E-02 -2.41930E-01
   4.80899E-02  2.02560E-01  1.86665E-02  2.84838E-01  9.96756E-02 -3.97902E-02  5.78597E-01  5.49137E-01  4.52561E-02  1.71841E-01
   3.06307E-01  6.23625E-01  3.62934E-01 -2.91053E-01 -2.41001E-01 -1.06382E-01 -2.02366E-01  1.74605E-01 -1.04007E-01 -2.49974E-01
  -3.71826E-01 -1.80510E-01  1.90441E-01 -3.99951E-01 -1.22455E-01 -2.03306E-01 -2.95979E-01 -1.33895E-01 -4.80239E-02 -1.19613E-01
  -1.74473E-01 -7.17841E-02 -1.85527E-01 -6.27967E-02 -1.93734E-02  6.70551E-02  1.77711E-01  2.09179E-01 -2.33044E-01 -6.17625E-03
   2.38519E-01  3.51056E-01  1.15430E-01 -1.04630E-01 -2.40288E-02 -2.40668E-01  1.68986E-01  7.80843E-02  2.14367E-01  1.35237E-01
   1.72041E-01  3.90176E-01 -6.45005E-02 -2.71999E-01 -8.80156E-02  1.93774E-02 -2.80564E-01 -2.59371E-01 -3.12456E-01 -3.52611E-01
  -2.62464E-01 -2.38963E-01 -2.79171E-01 -2.71468E-01  1.65414E-01  4.83696E-01  3.45429E-01  7.13889E-01  7.19731E-01  4.05719E-01
   3.06687E-01  2.39012E-01  3.90894E-01  6.09867E-02  1.41416E-01  8.64619E-02  3.82059E-02  2.69654E-01  3.82878E-01  2.85548E-01
   2.94163E-01  4.60577E-01  5.02894E-02  2.40666E-01  5.70922E-01  4.52800E-01  4.12554E-01  3.44874E-01  3.32287E-01  4.90719E-01
   2.80948E-01  3.61275E-01  1.46304E-01 -8.75896E-03  2.73374E-01 -4.76419E-02 -1.39185E-01 -1.95705E-01 -6.27497E-02 -3.99009E-01
  -4.15333E-01 -2.21377E-01 -4.26017E-01 -2.87520E-01 -3.90596E-01 -3.26105E-01 -2.68046E-01 -2.34083E-01 -4.11815E-03  3.72229E-01
   4.57295E-01  1.65166E-01  2.04540E-01  5.96180E-02 -5.86979E-01 -3.87493E-01 -3.96856E-01 -4.78894E-01 -1.61290E-01 -3.07311E-01
   5.60816E-02 -4.22764E-01 -2.07004E+00 -2.79980E+00 -1.51121E+00 -2.53130E-01 -3.80279E-02 -1.45047E-01  6.22654E-02  4.60520E-01
  -8.73515E-02 -6.34521E-02  1.57386E-01 -1.44728E-01 -1.17811E-01  5.84551E-02  1.28998E-01  1.10815E-01  1.08895E-01  4.44065E-01
   3.92829E-01  6.16129E-02  3.19499E-02 -6.01616E-02  7.37450E-02  4.00004E-02  2.15380E-01  1.43843E-01  1.17590E-02 -8.45850E-02
  -5.07661E-02  4.75547E-01  2.02532E-01  3.65012E-01  4.00583E-01  7.36960E-02  2.13345E-01  7.53633E-02  2.82714E-01  3.07587E-01
   9.20941E-04  1.68598E-01  4.58352E-01  3.40121E-01  1.93328E-01  2.12864E-01  7.54549E-02  2.82820E-01  3.03706E-01  1.18441E-01
   2.21406E-01  1.90596E-01  1.39673E-01 -8.81623E-02  1.22125E-01  4.25931E-01  3.03370E-01  3.35295E-01  2.92363E-01  3.16456E-01
   2.38466E-01  7.09041E-02 -5.64606E-02 -1.20448E-01 -2.14331E-01 -2.58495E-01  6.04706E-03 -1.72097E-01 -1.59359E-01  2.24329E-01
   7.93654E-02 -1.80900E-01 -2.04093E-01 -1.85381E-02 -3.21899E-01 -2.61375E-01  3.97112E-02 -3.54007E-01 -1.52901E-01 -1.67917E-01
  -4.06032E-01 -1.25705E-01 -3.34458E-01 -5.12530E-01 -2.72241E-01 -4.40870E-01 -2.57149E-01 -9.42622E-02 -3.55954E-01  8.07608E-02
  -7.03451E-02 -2.19023E-01 -4.37720E-02 -1.59671E-01  1.86019E-01  1.46313E-01 -1.02914E-01 -5.15574E-02 -1.21856E-01 -1.30190E-01
   5.55617E-03  1.34793E-01  1.12410E-01 -1.01842E-01  7.06464E-02  6.27368E-02 -6.97140E-02  2.71947E-01  3.13120E-01  1.09952E-01
   2.65356E-01  3.70723E-01  4.84552E-02  1.60771E-01  2.11458E-01  1.02681E-01  7.08197E-02 -9.61851E-02 -3.05814E-02  6.30605E-02
  -7.09961E-02 -1.58520E-01 -1.91104E-02 -2.17650E-01 -2.63517E-02 -1.41002E-01 -4.24500E-01 -3.98176E-02 -2.48160E-01 -2.75257E-01
  -1.41425E-01 -1.21153E-01 -1.83949E-01 -2.12495E-01 -1.57821E-01 -3.32289E-01 -3.96751E-02 -1.40808E-01 -2.28848E-01  3.05811E-02
   1.14287E-02  1.02751E-01  2.02888E-01  2.13148E-01 -1.66439E-01  1.48423E-01  5.62029E-01  1.70553E-01 -4.88923E-02  3.90916E-02
   5.75075E-02  3.30528E-02  9.99104E-02 -2.28567E-01 -5.72016E-02  7.17891E-02  2.00511E-01  3.62500E-01 -4.94459E-02  1.03637E-01
   5.08664E-02  3.31384E-02  2.79738E-01  4.68160E-02 -1.14898E-01  2.14861E-01  1.51639E-01  9.40124E-02  1.00807E-01 -6.97184E-02
   3.35181E-01  3.21278E-02 -2.95725E-02  3.69493E-01  1.70827E-01  1.52650E-01  1.87295E-01  3.02225E-01  1.71230E-01 -1.22405E-01
  -9.44498E-02 -9.90135E-02 -1.22932E-01 -8.65262E-02 -1.64615E-01 -2.83335E-01 -6.00149E-01 -6.17914E-01 -1.84447E-01 -3.65580E-01
  -4.57417E-01 -2.47378E-01 -1.89535E-01 -1.27587E-01 -2.87231E-01 -1.63500E-01  2.33635E-02 -3.42323E-02 -4.10817E-01 -5.06276E-01
  -3.52493E-01 -1.13601E-01  2.22817E-01 -2.63492E-02 -1.89784E-01 -1.48727E-01  2.52685E-02  1.73147E-01  3.92089E-01  2.94677E-02
  -9.04375E-02  2.89707E-01 -8.68355E-02 -5.54161E-02  3.47834E-02  2.16820E-01  2.00399E-01  1.70355E-01  2.45214E-01  3.54520E-02
   3.61305E-02  1.92830E-03  5.22974E-02  1.17696E-01  2.85134E-01 -1.66030E-01 -1.11855E-01  4.01633E-01  1.11561E-01  2.73179E-01
   3.35907E-01  1.24390E-01  8.81747E-02 -1.71739E-01 -2.11752E-01 -8.27148E-02 -1.57255E-03  1.59968E-01 -8.03185E-03 -3.99780E-02
  -9.17463E-02 -2.30121E-01  8.65149E-02  8.63708E-02 -5.35245E-02 -1.05135E-01  8.75065E-02 -8.28949E-02 -8.80204E-02  2.93323E-01
  -1.34524E-01  5.59955E-02  3.94425E-02 -9.03179E-02  2.27886E-01  2.17889E-01  1.13771E-02 -9.72170E-03  1.01057E-01 -2.78713E-01
  -1.72280E-01 -5.08036E-02  1.48758E-01  4.33932E-02  1.85033E-02  1.74770E-01  1.70730E-01  2.73446E-01 -3.98700E-02  8.01716E-02
   6.31266E-02  2.47357E-02  9.81235E-02  1.79648E-01 -1.29336E-01  1.53323E-01  2.86274E-01  6.63426E-02  8.68296E-02 -2.73665E-01
   8.52074E-02 -1.88059E-01 -7.00975E-03  3.11935E-01 -8.99045E-03 -6.54280E-02 -1.21060E-01 -7.12498E-02  1.94530E-01 -1.82302E-01
  -4.21062E-01  2.00028E-01 -1.04416E-01 -1.73103E-01  1.59541E-01  2.55740E-01 -5.79683E-02 -5.43877E-02  3.29288E-02 -7.80952E-02
   1.30864E-01  8.45405E-02 -4.81834E-02  1.64553E-01  2.93626E-01  2.04011E-01  8.25247E-02 -1.11715E-01  1.23357E-01 -1.55751E-01
  -1.54600E-02 -9.99400E-02  1.11684E-01  2.28252E-01
 NY points of the fit to the data follow
   6.48788E-02  5.46829E-02  4.01236E-02  2.66602E-02  2.00024E-02  2.00150E-02  1.68440E-02  1.22456E-02  6.76343E-02  4.74439E-02
   7.33681E-02  5.28575E-01  9.40120E-01  6.25563E-01  2.23616E-01  4.02713E-01  5.84841E-01  2.97013E-01  4.64547E-02 -3.61529E-02
  -2.52113E-02 -7.47736E-02 -6.83492E-02 -8.62520E-02 -1.03768E-01 -1.19484E-01 -1.36884E-01 -1.50252E-01 -1.61206E-01 -1.73703E-01
  -1.85154E-01 -1.95887E-01 -2.13258E-01 -2.43871E-01 -2.78641E-01 -3.11308E-01 -3.26776E-01 -3.71299E-01 -3.69643E-01 -1.61492E-01
   1.27946E-01  2.49083E-01  2.52037E-01  3.01615E-01  3.85507E-01  4.46028E-01  4.67617E-01  3.38994E-01  2.22722E-01  1.56606E-01
   1.14496E-01  5.98464E-02  2.83777E-02  5.56885E-03 -3.70951E-02 -8.56343E-02 -1.28230E-01 -1.55821E-01 -1.81256E-01 -2.26571E-01
  -2.49044E-01 -3.55331E-01 -4.59514E-01 -2.59414E-01 -2.17109E-01 -3.29545E-01 -2.35140E-02  2.44395E-01  2.82885E-01  3.73304E-01
   4.54877E-01  3.93749E-01  2.10195E-01  1.36362E-01  6.86034E-02 -1.68771E-02 -1.10704E-01 -1.61970E-01 -2.55917E-01 -6.30164E-01
  -7.56104E-01 -2.80520E-01  2.34850E-02  4.56919E-02  2.81665E-01  5.59934E-01  5.70263E-01  4.10752E-01  3.37599E-01  2.88741E-01
   2.42827E-01  2.27361E-01  2.02263E-01  1.73688E-01  1.26740E-01  8.06267E-02  5.56495E-03 -1.10684E-01 -2.71039E-01 -4.42763E-01
  -4.61774E-01 -3.04048E-01 -5.06770E-02  2.30752E-01  3.60612E-01  3.75830E-01  3.20477E-01  2.91648E-01  2.70396E-01  2.60138E-01
   2.60899E-01  2.60957E-01  2.56936E-01  2.53853E-01  2.52207E-01  2.53127E-01  2.54771E-01  2.56005E-01  2.51016E-01  2.27997E-01
   2.49816E-01  2.26823E-01  3.55245E-02  3.79107E-03  4.80412E-02 -1.74841E-01 -1.96803E-01 -1.35940E-01 -2.71453E-01 -4.50006E-01
  -6.56011E-01 -6.79878E-01 -5.11381E-01 -4.02205E-01 -2.57541E-01 -3.73202E-01 -8.12686E-01 -1.04816E+00 -5.99533E-01 -2.19378E-01
  -1.97458E-02 -2.16395E-02  6.53270E-02  5.17199E-02  6.81043E-02  9.09646E-02  1.11471E-01  1.31464E-01  1.48626E-01  1.62957E-01
   1.78850E-01  1.95638E-01  2.12044E-01  2.28904E-01  2.48845E-01  2.71795E-01  2.98089E-01  3.28922E-01  3.58202E-01  3.90923E-01
   4.41163E-01  5.18259E-01  6.28639E-01  7.19906E-01  7.45001E-01  1.05929E+00  1.35321E+00  4.61649E-01 -1.06093E+00 -1.59868E+00
  -1.16357E+00 -6.78286E-01 -5.05895E-01 -3.85058E-01 -3.57284E-01 -3.66761E-01 -3.09407E-01 -2.66846E-01 -2.87872E-01 -3.18077E-01
  -2.83276E-01 -2.25498E-01 -2.10575E-01 -2.08425E-01 -2.15345E-01 -2.29913E-01 -2.23394E-01 -2.05838E-01 -1.88553E-01 -1.96656E-01
  -1.83267E-01 -1.69542E-01 -1.52390E-01 -1.41122E-01 -1.27810E-01 -1.19860E-01 -1.11060E-01 -1.00342E-01 -9.10995E-02 -8.57629E-02
  -7.95161E-02 -6.63510E-02 -5.65294E-02 -5.81897E-02 -6.63693E-02 -6.96723E-02 -5.63901E-02 -4.24378E-02 -4.59826E-02 -5.99695E-02
  -6.60182E-02 -5.87415E-02 -5.08579E-02 -4.49481E-02 -3.93352E-02 -3.47748E-02 -2.49635E-02 -1.61098E-02 -2.32017E-02 -3.51954E-02
  -3.15837E-02 -4.64620E-03  1.06039E-02  9.50218E-03  7.03262E-02  2.20951E-01  3.35272E-01  2.39567E-01  7.57113E-02  2.07770E-01
   4.51405E-01  4.01564E-01  1.53046E-01 -1.33285E-02 -5.93953E-02 -7.50104E-02 -8.05594E-02 -7.05986E-02 -7.37795E-02 -8.21066E-02
  -9.44340E-02 -1.02061E-01 -1.03072E-01 -1.01947E-01 -9.87506E-02 -1.03480E-01 -1.05631E-01 -1.04508E-01 -1.06584E-01 -9.31598E-02
  -9.11811E-02 -9.56652E-02 -1.17277E-01 -1.27226E-01 -1.44270E-01 -1.78929E-01 -5.11242E-02  4.60987E-02 -2.76728E-03  1.99099E-02
   7.82671E-02  1.65997E-01  1.12753E-01  1.53662E-02  7.39916E-02  1.13115E-01  1.50724E-01  1.40701E-01  1.68094E-01  2.11796E-01
   1.75792E-01  1.51403E-01  7.44817E-02  3.44617E-02 -1.64470E-02 -4.98616E-02 -9.30860E-02 -1.42357E-01 -2.03508E-01 -2.52799E-01
  -3.30753E-01 -4.60742E-01 -4.88764E-01 -4.46679E-01 -2.69725E-01  8.21953E-02  3.37569E-01  5.20410E-01  6.03727E-01  5.33509E-01
   4.07874E-01  2.72832E-01  2.26929E-01  1.89637E-01  1.67379E-01  1.97983E-01  2.30090E-01  2.59062E-01  2.81087E-01  2.72620E-01
   2.65492E-01  2.41896E-01  2.33996E-01  2.24528E-01  2.19075E-01  2.08539E-01  1.97244E-01  1.83981E-01  1.57027E-01  1.34412E-01
   1.05812E-01  7.01428E-02  5.08176E-02  2.08072E-02 -1.73187E-02 -6.13385E-02 -1.31936E-01 -2.17606E-01 -2.99871E-01 -3.35735E-01
  -3.68408E-01 -3.83124E-01 -3.61092E-01 -3.21935E-01 -2.57560E-01 -1.88085E-01 -8.47701E-02  2.39941E-02  1.12053E-01  1.49856E-01
   1.05746E-01  5.93120E-02 -4.55223E-02 -1.29856E-01 -1.55036E-01 -2.19981E-01 -3.07675E-01 -2.91206E-01 -2.05358E-01 -2.99817E-01
  -2.66264E-02 -3.53152E-01 -2.18946E+00 -2.78696E+00 -1.44039E+00 -2.98320E-01  5.26253E-02 -3.12446E-02  1.34989E-01  1.84202E-02
   8.75118E-03  1.64905E-02  2.70752E-02  3.42928E-02  4.06066E-02  4.76587E-02  5.67937E-02  5.71247E-02  5.78565E-02  5.00052E-02
   2.75849E-02  1.02361E-02 -1.83285E-02 -4.19699E-02 -4.28346E-02 -4.02591E-02 -1.67399E-02 -3.18545E-03  1.77396E-02  2.83543E-02
   3.94666E-02  4.92670E-02  6.01828E-02  6.64458E-02  6.78276E-02  7.06656E-02  7.49994E-02  8.14616E-02  8.70886E-02  8.98857E-02
   9.06580E-02  9.31225E-02  9.82355E-02  1.02680E-01  1.06661E-01  1.08181E-01  1.06996E-01  1.07084E-01  1.12100E-01  1.16991E-01
   1.22046E-01  1.26442E-01  1.27469E-01  1.24637E-01  1.19657E-01  1.15902E-01  1.12017E-01  1.09502E-01  1.05869E-01  9.93576E-02
   9.08340E-02  8.41604E-02  7.65300E-02  6.55166E-02  5.53446E-02  4.99285E-02  4.48035E-02  3.68755E-02  2.94209E-02  2.38568E-02
   1.71996E-02  1.35573E-02  1.12031E-02  6.75001E-03  2.87339E-03 -9.97705E-04 -5.08233E-03 -9.13573E-03 -1.15127E-02 -1.21425E-02
  -1.34867E-02 -1.68442E-02 -1.65029E-02 -1.35448E-02 -1.14965E-02 -8.53962E-03 -4.08585E-03  2.69417E-04  6.78931E-03  1.52469E-02
   2.00398E-02  1.81562E-02  1.72856E-02  2.33890E-02  3.35875E-02  4.46616E-02  5.31746E-02  6.01553E-02  6.73341E-02  7.67962E-02
   9.07973E-02  1.04731E-01  1.18015E-01  1.31086E-01  1.43401E-01  1.56445E-01  1.70272E-01  1.81301E-01  1.88347E-01  1.90393E-01
   1.90080E-01  1.89419E-01  1.87193E-01  1.85558E-01  1.82090E-01  1.76925E-01  1.67709E-01  1.53252E-01  1.36624E-01  1.23846E-01
   1.13625E-01  1.03738E-01  9.28921E-02  8.06365E-02  6.82880E-02  6.09796E-02  5.41997E-02  4.64076E-02  3.83168E-02  3.33336E-02
   2.90171E-02  2.48003E-02  2.04958E-02  1.60274E-02  1.70431E-02  2.26616E-02  2.57756E-02  2.81466E-02  3.33715E-02  3.84166E-02
   4.41993E-02  5.21549E-02  6.00696E-02  6.47655E-02  6.76453E-02  7.06577E-02  7.11616E-02  7.11777E-02  7.41436E-02  7.97967E-02
   8.24999E-02  8.11320E-02  7.82644E-02  7.51088E-02  7.34651E-02  6.89795E-02  6.26287E-02  5.83510E-02  5.56618E-02  5.32515E-02
   4.84006E-02  4.46793E-02  4.06047E-02  3.58980E-02  3.22789E-02  2.72917E-02  2.06134E-02  1.74076E-02  1.73370E-02  1.47870E-02
   9.42775E-03  5.10504E-03  1.92306E-03 -5.67813E-03 -1.66479E-02 -2.67277E-02 -3.57490E-02 -4.39741E-02 -5.46242E-02 -7.11433E-02
  -9.28952E-02 -1.16055E-01 -1.35229E-01 -1.52588E-01 -1.71838E-01 -1.90873E-01 -2.06187E-01 -2.17090E-01 -2.29854E-01 -2.42681E-01
  -2.48095E-01 -2.44061E-01 -2.40885E-01 -2.41093E-01 -2.36026E-01 -2.24580E-01 -2.14096E-01 -2.05490E-01 -1.96916E-01 -1.90786E-01
  -1.85503E-01 -1.75599E-01 -1.63277E-01 -1.53575E-01 -1.42231E-01 -1.28003E-01 -1.14465E-01 -1.04092E-01 -9.14770E-02 -7.98346E-02
  -7.24017E-02 -6.16821E-02 -4.82172E-02 -3.93664E-02 -3.52282E-02 -3.04938E-02 -1.97101E-02 -8.79728E-03 -7.37537E-03 -6.71596E-03
   3.63470E-05  5.35760E-03  8.17433E-03  1.05886E-02  1.09535E-02  1.25292E-02  1.64646E-02  1.84045E-02  1.50399E-02  1.46389E-02
   1.98152E-02  2.25260E-02  2.45194E-02  2.89042E-02  3.21494E-02  3.08982E-02  2.94195E-02  3.08646E-02  2.98365E-02  2.86074E-02
   2.97273E-02  2.95200E-02  2.80661E-02  2.75767E-02  2.82500E-02  2.90638E-02  2.87943E-02  3.06928E-02  3.50219E-02  3.22220E-02
   2.21570E-02  1.93940E-02  2.50810E-02  2.79513E-02  2.46706E-02  2.29528E-02  2.59855E-02  2.55274E-02  2.04334E-02  1.80580E-02
   2.21034E-02  2.71670E-02  2.69523E-02  2.64736E-02  2.68136E-02  2.88080E-02  3.13374E-02  3.21653E-02  3.17042E-02  3.33029E-02
   3.58228E-02  3.38275E-02  2.89032E-02  2.79532E-02  2.99548E-02  3.11814E-02  3.31957E-02  3.56162E-02  3.78570E-02  3.59945E-02
   3.50258E-02  3.90963E-02  4.36560E-02  4.74254E-02  4.80843E-02  4.40834E-02  3.98407E-02  3.88110E-02  4.14836E-02  4.58554E-02
   4.64615E-02  4.37601E-02  4.20873E-02  4.19611E-02  4.34829E-02  4.63653E-02  4.51172E-02  4.21010E-02  4.47379E-02  5.03366E-02
   5.04741E-02  4.88884E-02  4.96588E-02  5.14918E-02  5.38331E-02  5.35850E-02  5.52485E-02  6.13422E-02  6.79175E-02  7.16336E-02
   7.18117E-02  7.41792E-02  7.57713E-02  7.59830E-02
 NY background values follow
     3.360E-03    3.785E-03    4.210E-03    4.636E-03    5.061E-03    5.486E-03    5.911E-03    6.336E-03    6.761E-03    7.185E-03
     7.610E-03    8.034E-03    8.459E-03    8.883E-03    9.307E-03    9.730E-03    1.015E-02    1.058E-02    1.100E-02    1.142E-02
     1.184E-02    1.227E-02    1.269E-02    1.311E-02    1.353E-02    1.395E-02    1.437E-02    1.479E-02    1.521E-02    1.563E-02
     1.605E-02    1.646E-02    1.688E-02    1.730E-02    1.771E-02    1.813E-02    1.854E-02    1.896E-02    1.937E-02    1.978E-02
     2.019E-02    2.060E-02    2.102E-02    2.142E-02    2.183E-02    2.224E-02    2.265E-02    2.306E-02    2.346E-02    2.387E-02
     2.427E-02    2.467E-02    2.507E-02    2.547E-02    2.587E-02    2.627E-02    2.667E-02    2.707E-02    2.746E-02    2.786E-02
     2.825E-02    2.864E-02    2.903E-02    2.942E-02    2.981E-02    3.019E-02    3.058E-02    3.096E-02    3.135E-02    3.173E-02
