 LCModel (Version 6.3-1N) Copyright: S.W. Provencher.          Ref.: Magn. Reson. Med. 30:672-679 (1993).                
 Slice_N1@24_21  02-Jun-2023 14:37:49
 27 lines in following concentration table = NCONC+1
    Conc.  %SD /Cr+PCr  Metabolite                                         
 2.16E-06  17% 2.8E-04 Mac                                                 
 6.17E-02  13%   8.000 Cr                                                  
    0.000 999%   0.000 PCr                                                 
 9.42E-02  12%  12.208 Ins                                                 
 9.56E-02  10%  12.389 NAA                                                 
 5.68E-02  21%   7.368 Tau                                                 
 2.03E-02  18%   2.628 PCho                                                
    0.000 999%   0.000 GPC                                                 
 8.61E-02  13%  11.160 Glu                                                 
 1.78E-02  45%   2.302 Gln                                                 
    0.000 999%   0.000 Ala                                                 
 3.81E-04 999% 4.9E-02 Asc                                                 
 7.57E-03  97%   0.982 Asp                                                 
 6.72E-03  62%   0.871 GABA                                                
 6.05E-03  78%   0.785 Glc                                                 
 6.09E-03  65%   0.790 GSH                                                 
    0.000 999%   0.000 Lac                                                 
    0.000 999%   0.000 NAAG                                                
    0.000 999%   0.000 PE                                                  
 2.03E-02  18%   2.628 GPC+PCho                                            
 9.56E-02  10%  12.389 NAA+NAAG                                            
    0.104  13%  13.463 Glu+Gln                                             
 6.17E-02  13%   8.000 Cr+PCr                                              
 9.56E-02  10%  12.389 NAA+NAAG                                            
 6.17E-02  13%   8.000 Cr+PCr                                              
    0.104  13%  13.463 Glu+Gln                                             
   6 lines in following misc. output table
  FWHM = 0.052 ppm    S/N =   2                                            
  Data shift = 0.064 ppm                                                   
  Ph:  34 deg      -5.3 deg/ppm                                            
  alphaB,S = 3.1E+01,   1.0E+02                                            
   18 spline knots.   Ns = 9(1)                                            
   2 inflections.     1 extrema                                            
  654 points on ppm-axis = NY
      4.000000     3.994181     3.988363     3.982544     3.976726     3.970907     3.965088     3.959270     3.953451     3.947633
      3.941814     3.935995     3.930177     3.924358     3.918540     3.912721     3.906902     3.901084     3.895265     3.889446
      3.883628     3.877809     3.871991     3.866172     3.860353     3.854535     3.848716     3.842898     3.837079     3.831260
      3.825442     3.819623     3.813805     3.807986     3.802167     3.796349     3.790530     3.784712     3.778893     3.773074
      3.767256     3.761437     3.755619     3.749800     3.743981     3.738163     3.732344     3.726526     3.720707     3.714888
      3.709070     3.703251     3.697433     3.691614     3.685795     3.679977     3.674158     3.668339     3.662521     3.656702
      3.650884     3.645065     3.639246     3.633428     3.627609     3.621791     3.615972     3.610153     3.604335     3.598516
      3.592698     3.586879     3.581060     3.575242     3.569423     3.563605     3.557786     3.551967     3.546149     3.540330
      3.534512     3.528693     3.522874     3.517056     3.511237     3.505419     3.499600     3.493781     3.487963     3.482144
      3.476326     3.470507     3.464688     3.458870     3.453051     3.447232     3.441414     3.435595     3.429777     3.423958
      3.418139     3.412321     3.406502     3.400684     3.394865     3.389046     3.383228     3.377409     3.371591     3.365772
      3.359953     3.354135     3.348316     3.342498     3.336679     3.330860     3.325042     3.319223     3.313405     3.307586
      3.301767     3.295949     3.290130     3.284312     3.278493     3.272674     3.266856     3.261037     3.255219     3.249400
      3.243581     3.237763     3.231944     3.226125     3.220307     3.214488     3.208670     3.202851     3.197032     3.191214
      3.185395     3.179577     3.173758     3.167939     3.162121     3.156302     3.150484     3.144665     3.138846     3.133028
      3.127209     3.121391     3.115572     3.109753     3.103935     3.098116     3.092298     3.086479     3.080660     3.074842
      3.069023     3.063205     3.057386     3.051567     3.045749     3.039930     3.034111     3.028293     3.022474     3.016656
      3.010837     3.005018     2.999200     2.993381     2.987563     2.981744     2.975925     2.970107     2.964288     2.958470
      2.952651     2.946832     2.941014     2.935195     2.929377     2.923558     2.917739     2.911921     2.906102     2.900284
      2.894465     2.888646     2.882828     2.877009     2.871191     2.865372     2.859553     2.853735     2.847916     2.842098
      2.836279     2.830460     2.824642     2.818823     2.813004     2.807186     2.801367     2.795549     2.789730     2.783911
      2.778093     2.772274     2.766456     2.760637     2.754818     2.749000     2.743181     2.737363     2.731544     2.725725
      2.719907     2.714088     2.708270     2.702451     2.696632     2.690814     2.684995     2.679177     2.673358     2.667539
      2.661721     2.655902     2.650084     2.644265     2.638446     2.632628     2.626809     2.620991     2.615172     2.609353
      2.603535     2.597716     2.591897     2.586079     2.580260     2.574442     2.568623     2.562804     2.556986     2.551167
      2.545349     2.539530     2.533711     2.527893     2.522074     2.516256     2.510437     2.504618     2.498800     2.492981
      2.487163     2.481344     2.475525     2.469707     2.463888     2.458070     2.452251     2.446432     2.440614     2.434795
      2.428977     2.423158     2.417339     2.411521     2.405702     2.399884     2.394065     2.388246     2.382428     2.376609
      2.370790     2.364972     2.359153     2.353335     2.347516     2.341697     2.335879     2.330060     2.324242     2.318423
      2.312604     2.306786     2.300967     2.295149     2.289330     2.283511     2.277693     2.271874     2.266056     2.260237
      2.254418     2.248600     2.242781     2.236963     2.231144     2.225325     2.219507     2.213688     2.207870     2.202051
      2.196232     2.190414     2.184595     2.178777     2.172958     2.167139     2.161321     2.155502     2.149683     2.143865
      2.138046     2.132228     2.126409     2.120590     2.114772     2.108953     2.103135     2.097316     2.091497     2.085679
      2.079860     2.074042     2.068223     2.062404     2.056586     2.050767     2.044949     2.039130     2.033311     2.027493
      2.021674     2.015856     2.010037     2.004218     1.998400     1.992581     1.986763     1.980944     1.975126     1.969307
      1.963489     1.957670     1.951852     1.946033     1.940215     1.934397     1.928578     1.922760     1.916941     1.911123
      1.905304     1.899486     1.893667     1.887849     1.882030     1.876212     1.870393     1.864575     1.858756     1.852938
      1.847119     1.841301     1.835482     1.829664     1.823845     1.818027     1.812208     1.806390     1.800571     1.794753
      1.788934     1.783116     1.777297     1.771479     1.765660     1.759842     1.754023     1.748205     1.742386     1.736568
      1.730749     1.724931     1.719113     1.713294     1.707476     1.701657     1.695839     1.690020     1.684202     1.678383
      1.672565     1.666746     1.660928     1.655109     1.649291     1.643472     1.637654     1.631835     1.626017     1.620198
      1.614380     1.608561     1.602743     1.596924     1.591106     1.585287     1.579469     1.573650     1.567832     1.562013
      1.556195     1.550376     1.544558     1.538739     1.532921     1.527102     1.521284     1.515465     1.509647     1.503829
      1.498010     1.492192     1.486373     1.480555     1.474736     1.468918     1.463099     1.457281     1.451462     1.445644
      1.439825     1.434007     1.428188     1.422370     1.416551     1.410733     1.404914     1.399096     1.393277     1.387459
      1.381640     1.375822     1.370003     1.364185     1.358366     1.352548     1.346729     1.340911     1.335092     1.329274
      1.323455     1.317637     1.311818     1.306000     1.300182     1.294363     1.288545     1.282726     1.276908     1.271089
      1.265271     1.259452     1.253634     1.247815     1.241997     1.236178     1.230360     1.224541     1.218723     1.212904
      1.207086     1.201267     1.195449     1.189630     1.183812     1.177993     1.172175     1.166356     1.160538     1.154719
      1.148901     1.143082     1.137264     1.131445     1.125627     1.119808     1.113990     1.108171     1.102353     1.096534
      1.090716     1.084898     1.079079     1.073261     1.067442     1.061624     1.055805     1.049987     1.044168     1.038350
      1.032531     1.026713     1.020894     1.015076     1.009257     1.003439     0.997620     0.991802     0.985983     0.980165
      0.974346     0.968528     0.962709     0.956891     0.951072     0.945254     0.939435     0.933617     0.927798     0.921980
      0.916161     0.910343     0.904524     0.898706     0.892887     0.887069     0.881251     0.875432     0.869614     0.863795
      0.857977     0.852158     0.846340     0.840521     0.834703     0.828884     0.823066     0.817247     0.811429     0.805610
      0.799792     0.793973     0.788155     0.782336     0.776518     0.770699     0.764881     0.759062     0.753244     0.747425
      0.741607     0.735788     0.729970     0.724151     0.718333     0.712514     0.706696     0.700877     0.695059     0.689240
      0.683422     0.677603     0.671785     0.665967     0.660148     0.654330     0.648511     0.642693     0.636874     0.631056
      0.625237     0.619419     0.613600     0.607782     0.601963     0.596145     0.590326     0.584508     0.578689     0.572871
      0.567052     0.561234     0.555415     0.549597     0.543778     0.537960     0.532141     0.526323     0.520504     0.514686
      0.508867     0.503049     0.497230     0.491412     0.485593     0.479775     0.473956     0.468138     0.462319     0.456501
      0.450682     0.444864     0.439045     0.433227     0.427408     0.421590     0.415771     0.409953     0.404134     0.398316
      0.392497     0.386679     0.380860     0.375042     0.369223     0.363405     0.357586     0.351767     0.345949     0.340130
      0.334312     0.328493     0.322675     0.316856     0.311038     0.305219     0.299401     0.293582     0.287764     0.281945
      0.276127     0.270308     0.264490     0.258671     0.252853     0.247034     0.241216     0.235397     0.229579     0.223760
      0.217942     0.212123     0.206305     0.200486
 NY phased data points follow
   6.28851E-02 -4.65635E-01  6.98802E-02  6.58256E-02 -1.00493E-01 -1.42472E-01 -2.33233E-01  1.84399E-01 -2.30017E-02  4.33234E-02
   1.48531E-01  2.71736E-01 -8.89585E-02  2.32441E-01  5.41066E-01  1.26145E-01  3.92124E-01  4.73881E-01  4.74955E-01  2.54480E-01
   2.30461E-01  8.63841E-02 -3.00823E-01 -1.44761E-02  2.39741E-01  1.15011E-01 -2.66055E-01  3.63131E-02 -2.35146E-02 -2.90367E-01
   6.92551E-02 -1.41723E-01 -1.38016E-01 -1.67023E-01  1.52363E-02  2.80515E-02 -2.75659E-01 -3.78865E-01 -2.89224E-01 -8.66349E-02
  -1.81826E-01 -1.43904E-01 -3.50696E-02  3.55827E-01 -6.07999E-03  1.38570E-01  5.08696E-01  2.16046E-01  2.88025E-01  1.81161E-01
   9.15134E-02 -7.15878E-03  1.23634E-01 -1.43384E-01 -5.57480E-02 -1.88529E-01 -4.83523E-01 -5.69200E-02 -3.33909E-01 -4.84828E-01
  -3.73334E-01 -2.38867E-01 -1.90162E-02  1.56868E-02 -9.10312E-03 -1.74191E-03 -1.81429E-01 -7.92579E-02  2.53948E-02  4.53134E-03
   2.61209E-01  1.03209E-02  3.29140E-01  4.85270E-01  6.12085E-03  7.77630E-02  1.97917E-01 -1.15230E-01 -1.86904E-01  2.72116E-02
  -3.79181E-01 -1.81354E-01  6.33065E-02 -1.40906E-02 -2.02148E-03  1.74657E-01  8.36334E-02 -6.80478E-02  4.43271E-01  1.83257E-01
   5.82636E-01  4.67108E-01 -9.53857E-02  1.69620E-01  2.29435E-01  2.80629E-01  1.13900E-02  7.63862E-02  4.85155E-02  6.94620E-02
  -1.98544E-02 -2.26797E-02  1.83250E-01  2.50544E-01  2.72879E-02 -4.15308E-02  3.98285E-01  1.58157E-01  1.21938E-01  3.10037E-01
   3.89918E-01  3.36932E-01  2.73096E-01  2.98473E-01  1.96130E-01  2.92282E-01  2.92769E-01  6.78982E-01  5.93899E-01  6.06724E-02
   6.06355E-01  4.79663E-01  9.20759E-02  7.58256E-02  7.90598E-02  1.70703E-01 -2.79120E-01 -2.85382E-01 -2.73688E-01 -5.47399E-02
  -4.18793E-01 -5.63988E-01 -5.14030E-01 -7.96588E-01 -5.08410E-01 -7.14089E-01 -5.19790E-01 -6.59579E-01 -7.95454E-01 -6.78507E-01
  -3.58962E-01  2.31675E-02 -9.90049E-02 -3.21065E-01 -6.26518E-02 -4.17722E-02 -3.39508E-01  1.44655E-01 -1.50873E-01 -1.50355E-01
   5.71729E-02 -6.82023E-02  1.21299E-01  4.56105E-01  1.79476E-01 -2.06435E-01  8.80870E-02  3.25784E-01  5.67498E-01  5.84655E-01
   7.22472E-01  4.84937E-01  2.11371E-01  2.12891E-01  3.25782E-01  2.98299E-01  6.71525E-01  3.75030E-01 -1.43655E-01  1.66639E-01
  -3.53715E-01 -5.34942E-01 -5.76848E-01 -5.13822E-01 -4.44138E-01 -3.70111E-01 -4.37652E-01 -5.60865E-01 -6.36174E-01 -7.38946E-01
  -3.97402E-01 -3.02355E-01 -2.17356E-01 -3.48397E-01 -2.02028E-01 -3.02277E-01 -9.23381E-02  1.16770E-01 -2.62635E-01 -1.99665E-01
  -2.95506E-01 -1.55696E-01 -2.03817E-01 -1.32226E-01  1.94764E-01 -9.64508E-03 -2.39045E-01 -2.59340E-01  1.09931E-01 -4.50124E-02
  -4.24016E-01 -8.94396E-02 -2.34181E-01 -2.98498E-02  3.24008E-01 -1.94114E-01 -8.68584E-02  1.43578E-01  6.70492E-03  3.15434E-01
   2.09580E-01 -5.96002E-02  1.56076E-01  8.99731E-02 -2.01816E-02 -2.13209E-01 -2.69216E-01 -8.92385E-02 -2.33854E-02  2.15642E-01
   1.16167E-01  5.66012E-02  3.51930E-01 -1.14419E-02 -1.68960E-01  1.49978E-01  2.98302E-01  1.35309E-01 -2.02544E-02  2.75504E-01
   5.74175E-01  6.05768E-01  9.98638E-02  1.61077E-01  2.70059E-01  9.15370E-02  1.64215E-02  9.31675E-03 -5.75513E-02 -2.47502E-01
   6.55363E-03 -1.17116E-01 -1.70757E-03 -3.10951E-01 -3.12389E-01  1.31981E-01 -2.23332E-01 -4.49411E-02  1.99113E-01 -2.56915E-02
  -1.65954E-01 -2.68469E-01  1.38436E-01  2.99653E-01 -1.57335E-01  6.30644E-02 -4.87114E-02  1.43872E-01  2.25565E-01 -1.59853E-01
   8.85135E-02  1.87605E-01 -1.11854E-01  9.72532E-02  2.55635E-01 -1.33188E-01  1.25105E-01  1.40647E-01  3.38263E-01  1.92131E-01
   8.08674E-02  2.48560E-01  3.02556E-01  3.59008E-01  2.17866E-01  2.11137E-01 -1.73875E-01 -1.98637E-01 -2.95114E-01 -4.30266E-01
  -6.89104E-01 -2.24820E-01 -2.61713E-01 -4.90690E-01  5.06317E-02 -3.18714E-01 -1.82123E-01  7.74145E-02  2.68398E-01  5.54379E-01
   5.05111E-01  4.76547E-01  4.66795E-01  3.85446E-02  1.74317E-01  8.38816E-02 -2.11826E-01  2.82779E-01  1.56238E-01  2.30935E-01
   3.65329E-01  9.39064E-02  2.16023E-01  1.22608E-01  1.56901E-01  5.90337E-01  1.75766E-01  3.17165E-01  4.84571E-01  2.16679E-01
   2.48381E-01  2.10952E-01  3.30392E-01  8.06308E-02  8.69794E-02  1.62691E-01  1.58659E-01  2.89089E-01  1.67801E-01 -3.72449E-01
  -1.07882E-01 -3.00543E-01 -5.83719E-01 -1.77058E-01 -4.32630E-01 -1.07366E-01 -1.99950E-01 -1.25086E-01  3.05459E-01  8.73611E-02
  -1.07148E-01  1.21740E-01  1.77099E-01 -1.29960E-01  1.63862E-01  2.35990E-01 -4.30397E-01 -4.85704E-01 -3.28460E-01 -5.41767E-01
  -7.65125E-01 -1.05237E+00 -7.44891E-01 -9.73080E-01 -8.93778E-01 -7.97776E-01 -9.09153E-01 -6.28143E-01 -4.92241E-01 -2.09173E-01
  -3.84351E-01  1.22502E-01  9.08897E-02  4.70707E-02  1.40863E-01 -6.16222E-02  3.08772E-01  1.67224E-01  1.60171E-01  2.76951E-02
   3.82737E-02  4.08682E-02  9.84824E-02  1.45403E-01 -7.24450E-02  1.66372E-01  8.92435E-02  1.76550E-01  1.74018E-01  1.83629E-01
   2.55203E-01 -6.18816E-02  4.46603E-01  2.16655E-01 -5.82791E-02  1.77575E-01 -2.72600E-01  1.25282E-01  2.99287E-01  1.04027E-01
   3.10500E-01  1.66806E-01 -9.63387E-02  2.33737E-03  1.20613E-01 -6.87764E-02  2.00006E-01  4.38524E-01  2.72914E-01  2.67882E-01
   7.48056E-02  3.00286E-01  6.07204E-01  2.00044E-01  1.53231E-03  1.87786E-01  4.43243E-01  2.98526E-03  1.17387E-01  1.38571E-01
  -4.16339E-01  2.55115E-01  2.79139E-01 -6.54447E-02 -1.91082E-01 -4.22097E-02  3.29048E-01  5.21562E-02 -1.27305E-01 -2.87962E-01
  -2.30753E-01 -1.96524E-01 -1.27287E-01  2.61613E-02 -1.10531E-01  9.49814E-02  2.24996E-01 -1.36090E-01 -3.95410E-03  2.27921E-01
   1.06283E-02  8.63315E-03 -1.51088E-01 -1.26788E-01 -4.80507E-02 -2.84655E-01 -2.76462E-01 -2.24740E-01 -2.78047E-02  4.94793E-02
  -4.73482E-02 -3.02602E-02 -1.38186E-01  6.22818E-02  6.49889E-02 -2.66081E-01 -1.59593E-03 -2.19861E-01 -2.51082E-01  1.33524E-01
   9.34974E-02 -8.01838E-02 -2.22090E-01  1.25044E-01  4.29581E-03 -1.34433E-01 -1.30407E-01  3.04538E-01  4.11864E-01 -2.80933E-02
   2.36750E-01  2.99130E-01  3.82464E-01 -2.92190E-01 -2.17597E-01  2.22012E-01 -1.50259E-01  1.49351E-01 -7.54232E-02 -2.95634E-01
  -1.20492E-01  7.24078E-02  2.53405E-02 -3.98322E-02  2.62421E-01 -1.14103E-02 -9.03773E-03 -7.25067E-02 -3.21731E-01 -1.84795E-01
  -2.01811E-01 -8.84665E-02 -3.68965E-01  2.78538E-02  2.91108E-02 -4.81467E-01 -1.38116E-01 -3.11121E-01 -3.64590E-01 -1.82525E-01
  -1.51037E-01 -1.78742E-01 -1.92802E-02 -1.84494E-01  8.40015E-02  3.15634E-02  1.52197E-02  4.21365E-01 -1.00126E-02  1.49078E-01
   4.58386E-02  2.54305E-01  2.21854E-01  1.19537E-01  1.00507E-01  1.24170E-01  2.73403E-01 -2.83883E-01  1.02196E-01  1.75124E-01
   6.98581E-02  7.74055E-02  3.91245E-01  4.23992E-01 -1.34979E-01  1.51105E-01  1.18097E-01 -2.44469E-02  1.57083E-01 -7.70953E-02
  -1.92965E-01  2.35915E-01  3.02280E-01  2.46003E-01  2.17213E-01 -9.28856E-02 -5.38441E-02 -1.31701E-01 -3.36593E-01 -2.08199E-01
  -2.70430E-01  2.74233E-03  4.81163E-02 -2.55174E-01 -2.59350E-01 -2.76206E-01 -1.26366E-01 -3.73363E-01 -4.24539E-01 -1.19530E-01
  -1.21239E-01 -3.99451E-01 -2.50858E-01 -2.32936E-01 -7.41193E-01 -4.11783E-01  5.07219E-02 -7.89624E-02 -5.70589E-01 -2.69419E-01
   1.41343E-01 -4.26144E-01 -1.74422E-02  1.06602E-02 -3.67926E-01 -2.46953E-01 -3.68724E-01 -1.75119E-01 -2.66739E-01  1.23243E-01
  -1.00109E-01  4.34559E-02  4.26436E-01  2.30349E-01  4.00399E-01  1.04107E-03  5.39055E-01  4.08890E-02  3.01786E-03  4.63752E-01
  -2.02619E-01  4.41463E-02  4.15383E-01  3.43987E-01 -6.15177E-02  1.24698E-01 -2.12297E-02 -1.58039E-01  2.21273E-01 -2.10486E-02
  -5.68917E-01 -8.96958E-02  1.69157E-01 -2.03668E-01 -1.73942E-01 -1.50069E-01  1.14915E-01 -1.36288E-01  9.17349E-02  7.28160E-02
  -5.96020E-02 -3.78663E-02 -3.45912E-01  3.71463E-01  1.81874E-02 -7.89682E-02  3.64055E-01 -1.43829E-01  2.79139E-01  1.02016E-01
  -2.26176E-01 -1.53150E-01 -3.31844E-02  2.87772E-01 -2.38331E-01 -2.01566E-01  1.77054E-01 -8.73467E-02 -4.88899E-01 -7.06049E-02
   1.56305E-01 -7.89347E-02  1.90123E-02  4.00573E-01  1.32967E-01 -3.05653E-01  1.20342E-01  1.64958E-03  2.84227E-01  1.82401E-01
   3.58045E-02 -8.79531E-02 -3.86111E-01 -4.78113E-02  1.93429E-01  1.92606E-01 -3.00191E-02  1.05773E-01 -1.05630E-01 -1.30863E-01
  -3.00778E-01 -3.07935E-01  2.07093E-01  1.66724E-01  5.64802E-02  3.20307E-01  6.40882E-02  2.93073E-01  2.68955E-01 -3.11041E-01
   2.61429E-01 -1.93688E-01 -1.85224E-01  2.01989E-01  7.55773E-02  1.61821E-01  3.27313E-01 -2.43792E-02 -3.08156E-01 -9.72497E-02
  -2.52716E-01 -6.78228E-03 -3.15652E-04  4.29956E-01  1.50927E-01 -9.73458E-02  2.59141E-02 -1.02920E-01  5.69342E-02  7.24309E-02
   1.39948E-01 -3.31531E-02  9.69338E-02 -1.89679E-01
 NY points of the fit to the data follow
   4.04528E-02  4.00564E-02  4.41958E-02  4.91251E-02  5.29740E-02  5.53207E-02  5.06138E-02  4.94899E-02  6.54195E-02  9.87945E-02
   1.41673E-01  1.87867E-01  2.35954E-01  2.85997E-01  3.35321E-01  3.76349E-01  4.00935E-01  4.03377E-01  3.79219E-01  3.28532E-01
   2.60171E-01  1.87510E-01  1.21659E-01  6.79819E-02  2.50952E-02 -8.11871E-03 -3.04360E-02 -4.65522E-02 -6.01232E-02 -7.24424E-02
  -8.45499E-02 -9.82760E-02 -1.12011E-01 -1.25802E-01 -1.37441E-01 -1.45805E-01 -1.46926E-01 -1.37646E-01 -1.15436E-01 -8.05667E-02
  -3.55361E-02  1.63332E-02  7.12628E-02  1.24067E-01  1.68968E-01  2.00800E-01  2.15836E-01  2.12661E-01  1.92523E-01  1.58911E-01
   1.17256E-01  7.12108E-02  2.35679E-02 -2.24684E-02 -6.51780E-02 -1.06363E-01 -1.45323E-01 -1.77664E-01 -2.13930E-01 -2.49077E-01
  -2.70933E-01 -2.81524E-01 -2.78301E-01 -2.56996E-01 -2.16998E-01 -1.60942E-01 -9.14666E-02 -1.36633E-02  6.74524E-02  1.47666E-01
   2.18183E-01  2.69781E-01  2.96028E-01  2.84172E-01  2.35489E-01  1.65983E-01  8.20338E-02 -6.73248E-03 -8.28747E-02 -1.40023E-01
  -1.72996E-01 -1.74611E-01 -1.45496E-01 -8.69957E-02 -2.63596E-03  9.64301E-02  1.94294E-01  2.77768E-01  3.38822E-01  3.72054E-01
   3.78375E-01  3.56132E-01  3.11193E-01  2.53698E-01  1.90311E-01  1.27293E-01  7.17963E-02  2.68957E-02 -5.09178E-03 -2.05818E-02
  -1.64807E-02  8.37047E-03  5.19200E-02  1.08092E-01  1.68240E-01  2.23618E-01  2.67749E-01  2.97817E-01  3.15000E-01  3.22252E-01
   3.22620E-01  3.19728E-01  3.15078E-01  3.10615E-01  3.07639E-01  3.05400E-01  3.00404E-01  2.94761E-01  2.84406E-01  2.67922E-01
   2.43343E-01  2.10346E-01  1.60939E-01  9.56110E-02  1.76540E-02 -6.61545E-02 -1.41490E-01 -1.98069E-01 -2.59597E-01 -3.36412E-01
  -4.17525E-01 -4.87736E-01 -5.41207E-01 -5.81492E-01 -6.16372E-01 -6.46947E-01 -6.67361E-01 -6.71909E-01 -6.50252E-01 -5.92206E-01
  -4.98943E-01 -3.86190E-01 -2.72153E-01 -1.72569E-01 -9.10487E-02 -2.42120E-02  2.58322E-02  5.91360E-02  8.54886E-02  1.07810E-01
   1.27574E-01  1.45711E-01  1.62805E-01  1.79380E-01  1.95976E-01  2.13166E-01  2.31427E-01  2.51048E-01  2.72782E-01  3.25993E-01
   3.93158E-01  4.42805E-01  4.59870E-01  4.49467E-01  4.17390E-01  3.62508E-01  2.77521E-01  1.57754E-01  1.16974E-02 -1.45974E-01
  -2.99210E-01 -4.25006E-01 -5.01829E-01 -5.25480E-01 -5.08258E-01 -4.69366E-01 -4.25502E-01 -3.78920E-01 -3.33283E-01 -3.00923E-01
  -2.76020E-01 -2.55460E-01 -2.37835E-01 -2.22436E-01 -2.08587E-01 -1.96205E-01 -1.84985E-01 -1.74544E-01 -1.64590E-01 -1.54964E-01
  -1.45659E-01 -1.36555E-01 -1.27592E-01 -1.18882E-01 -1.10229E-01 -1.01358E-01 -9.24423E-02 -8.38845E-02 -7.61027E-02 -6.88321E-02
  -6.15816E-02 -5.45040E-02 -4.82517E-02 -4.33296E-02 -3.98074E-02 -3.74627E-02 -3.61649E-02 -3.57345E-02 -3.59183E-02 -3.65304E-02
  -3.75164E-02 -3.88588E-02 -4.01836E-02 -4.09841E-02 -4.10354E-02 -4.06801E-02 -4.19144E-02 -4.18358E-02 -3.47577E-02 -1.99351E-02
  -1.35364E-03  1.75402E-02  3.94485E-02  7.07154E-02  1.10698E-01  1.52972E-01  1.90884E-01  2.20756E-01  2.40387E-01  2.48045E-01
   2.43459E-01  2.28108E-01  2.03815E-01  1.71140E-01  1.30171E-01  8.45146E-02  4.10333E-02  4.02508E-03 -2.56688E-02 -4.86554E-02
  -6.59766E-02 -7.79013E-02 -8.60417E-02 -9.25645E-02 -9.80017E-02 -1.02887E-01 -1.07734E-01 -1.13250E-01 -1.23007E-01 -1.32940E-01
  -1.40013E-01 -1.46226E-01 -1.51249E-01 -1.51908E-01 -1.44515E-01 -1.30696E-01 -1.10355E-01 -8.25985E-02 -4.88858E-02 -1.09867E-02
   2.56269E-02  5.77658E-02  8.42729E-02  1.04978E-01  1.18818E-01  1.25455E-01  1.25362E-01  1.20312E-01  1.12395E-01  9.99609E-02
   8.34778E-02  6.40042E-02  4.16730E-02  1.54007E-02 -1.73000E-02 -5.55147E-02 -1.01261E-01 -1.53121E-01 -2.03651E-01 -2.47441E-01
  -2.77004E-01 -2.87619E-01 -2.76939E-01 -2.43973E-01 -1.88890E-01 -1.12956E-01 -2.19891E-02  7.56619E-02  1.68664E-01  2.45706E-01
   2.99289E-01  3.27394E-01  3.32687E-01  3.22240E-01  3.03968E-01  2.83530E-01  2.65829E-01  2.52228E-01  2.41999E-01  2.34785E-01
   2.28630E-01  2.22569E-01  2.16214E-01  2.09476E-01  2.02469E-01  1.95004E-01  1.87024E-01  1.78251E-01  1.68218E-01  1.56722E-01
   1.42488E-01  1.24591E-01  1.02026E-01  7.46504E-02  4.18113E-02  4.38407E-03 -3.74612E-02 -8.16048E-02 -1.26282E-01 -1.68074E-01
  -2.03919E-01 -2.30186E-01 -2.43469E-01 -2.43663E-01 -2.30411E-01 -2.07616E-01 -1.78109E-01 -1.46491E-01 -1.16823E-01 -9.27254E-02
  -7.71344E-02 -7.06609E-02 -7.19639E-02 -6.22428E-02 -6.44736E-02 -1.12042E-01 -2.04473E-01 -3.18964E-01 -4.37624E-01 -5.57653E-01
  -6.81407E-01 -8.05069E-01 -9.11011E-01 -9.79026E-01 -9.94823E-01 -9.45077E-01 -8.28456E-01 -6.65769E-01 -4.92019E-01 -3.37170E-01
  -2.16212E-01 -1.25178E-01 -5.99514E-02 -2.39121E-02 -4.75262E-03  7.29971E-03  1.49773E-02  1.92988E-02  2.10155E-02  2.07515E-02
   1.91239E-02  1.66709E-02  1.39880E-02  1.16972E-02  1.03011E-02  1.02348E-02  1.17752E-02  1.48796E-02  1.92866E-02  2.45779E-02
   3.03512E-02  3.61717E-02  4.18686E-02  4.71596E-02  5.19610E-02  5.62903E-02  6.01432E-02  6.36916E-02  6.69876E-02  7.00883E-02
   7.29415E-02  7.56055E-02  7.80533E-02  8.03695E-02  8.26317E-02  8.48687E-02  8.70800E-02  8.92158E-02  9.11948E-02  9.30063E-02
   9.46475E-02  9.60803E-02  9.71758E-02  9.77600E-02  9.76488E-02  9.68066E-02  9.51668E-02  9.27140E-02  8.94821E-02  8.56116E-02
   8.11916E-02  7.62143E-02  7.07645E-02  6.49002E-02  5.87701E-02  5.25340E-02  4.63145E-02  4.02297E-02  3.44042E-02  2.88849E-02
   2.36910E-02  1.88179E-02  1.42916E-02  1.01622E-02  6.38444E-03  2.88267E-03 -3.27190E-04 -3.23528E-03 -5.81694E-03 -8.05866E-03
  -9.88145E-03 -1.12310E-02 -1.19814E-02 -1.19960E-02 -1.13003E-02 -9.98339E-03 -8.13238E-03 -5.79325E-03 -2.98319E-03  2.69432E-04
   3.85269E-03  7.66140E-03  1.16230E-02  1.57933E-02  2.02968E-02  2.52832E-02  3.08962E-02  3.71765E-02  4.41135E-02  5.16892E-02
   5.98855E-02  6.86965E-02  7.80316E-02  8.77174E-02  9.75082E-02  1.07171E-01  1.16424E-01  1.25015E-01  1.32705E-01  1.39279E-01
   1.44475E-01  1.48076E-01  1.49976E-01  1.50188E-01  1.48813E-01  1.45942E-01  1.41655E-01  1.35987E-01  1.29099E-01  1.21220E-01
   1.12618E-01  1.03543E-01  9.42650E-02  8.50312E-02  7.60375E-02  6.74048E-02  5.91924E-02  5.14637E-02  4.43662E-02  3.79612E-02
   3.22827E-02  2.73860E-02  2.33330E-02  2.01664E-02  1.79399E-02  1.67183E-02  1.65264E-02  1.73704E-02  1.91445E-02  2.16938E-02
   2.48007E-02  2.82633E-02  3.19779E-02  3.58369E-02  3.96730E-02  4.33253E-02  4.66094E-02  4.94766E-02  5.19067E-02  5.38601E-02
   5.52836E-02  5.61476E-02  5.64544E-02  5.61609E-02  5.52323E-02  5.36708E-02  5.15680E-02  4.90582E-02  4.62363E-02  4.31301E-02
   3.97981E-02  3.63540E-02  3.28676E-02  2.93573E-02  2.58013E-02  2.22353E-02  1.87258E-02  1.52419E-02  1.17271E-02  8.12994E-03
   4.42656E-03  5.79768E-04 -3.54668E-03 -8.10247E-03 -1.33366E-02 -1.94094E-02 -2.64217E-02 -3.44523E-02 -4.36034E-02 -5.39003E-02
  -6.53079E-02 -7.77462E-02 -9.11281E-02 -1.05281E-01 -1.19807E-01 -1.34195E-01 -1.48036E-01 -1.61017E-01 -1.72805E-01 -1.83044E-01
  -1.91434E-01 -1.97796E-01 -2.02074E-01 -2.04333E-01 -2.04668E-01 -2.03222E-01 -2.00267E-01 -1.96067E-01 -1.90841E-01 -1.84793E-01
  -1.78103E-01 -1.70939E-01 -1.63308E-01 -1.55238E-01 -1.46750E-01 -1.37844E-01 -1.28554E-01 -1.19017E-01 -1.09417E-01 -9.99172E-02
  -9.05321E-02 -8.13467E-02 -7.25472E-02 -6.41847E-02 -5.62867E-02 -4.88681E-02 -4.19325E-02 -3.55317E-02 -2.96895E-02 -2.43877E-02
  -1.95693E-02 -1.52650E-02 -1.15447E-02 -8.31717E-03 -5.50656E-03 -3.08742E-03 -1.01046E-03  8.17430E-04  2.49424E-03  4.05763E-03
   5.53427E-03  6.96520E-03  8.36305E-03  9.75014E-03  1.11001E-02  1.22993E-02  1.33015E-02  1.40777E-02  1.45967E-02  1.48741E-02
   1.49455E-02  1.49539E-02  1.50370E-02  1.51106E-02  1.50564E-02  1.49205E-02  1.47901E-02  1.46635E-02  1.44624E-02  1.41965E-02
   1.38690E-02  1.34542E-02  1.29187E-02  1.22641E-02  1.16528E-02  1.12037E-02  1.08957E-02  1.06431E-02  1.04056E-02  1.02391E-02
   1.02218E-02  1.03218E-02  1.05548E-02  1.09892E-02  1.16817E-02  1.24868E-02  1.32675E-02  1.39729E-02  1.46134E-02  1.51647E-02
   1.56110E-02  1.59551E-02  1.62484E-02  1.64770E-02  1.66145E-02  1.67739E-02  1.70803E-02  1.76662E-02  1.85346E-02  1.95426E-02
   2.05660E-02  2.15559E-02  2.25610E-02  2.35945E-02  2.45782E-02  2.54398E-02  2.60932E-02  2.65105E-02  2.67691E-02  2.69655E-02
   2.70996E-02  2.71978E-02  2.73370E-02  2.75645E-02  2.78426E-02  2.81657E-02  2.85641E-02  2.90761E-02  2.96994E-02  3.03665E-02
   3.10724E-02  3.19391E-02  3.30125E-02  3.42803E-02  3.57100E-02  3.73387E-02  3.91525E-02  4.12092E-02  4.35121E-02  4.60321E-02
   4.87765E-02  5.16784E-02  5.46239E-02  5.75507E-02
 NY background values follow
     1.049E-01    1.046E-01    1.043E-01    1.041E-01    1.038E-01    1.035E-01    1.032E-01    1.029E-01    1.026E-01    1.023E-01
     1.020E-01    1.017E-01    1.015E-01    1.012E-01    1.009E-01    1.006E-01    1.003E-01    1.000E-01    9.973E-02    9.944E-02
     9.916E-02    9.887E-02    9.858E-02    9.829E-02    9.800E-02    9.771E-02    9.742E-02    9.714E-02    9.685E-02    9.656E-02
     9.627E-02    9.598E-02    9.569E-02    9.540E-02    9.511E-02    9.483E-02    9.454E-02    9.425E-02    9.396E-02    9.367E-02
     9.338E-02    9.309E-02    9.280E-02    9.251E-02    9.222E-02    9.193E-02    9.164E-02    9.135E-02    9.107E-02    9.078E-02
     9.049E-02    9.020E-02    8.991E-02    8.962E-02    8.933E-02    8.904E-02    8.875E-02    8.846E-02    8.817E-02    8.788E-02
     8.759E-02    8.730E-02    8.701E-02    8.672E-02    8.643E-02    8.614E-02    8.585E-02    8.556E-02    8.527E-02    8.498E-02
