 
 $NMID
 ID=''
 FMTDAT='(2E13.5)'
 TRAMP=   1.00000E+0
 VOLUME=   1.00000E+0
 $END
   2.01106E+2   4.77367E+2
   1.28467E+3   1.43604E+3
   2.18858E+3  -3.64323E+3
   1.20295E+3  -4.41754E+3
   1.11253E+3  -4.44421E+3
  -3.17422E+3  -3.51240E+3
  -4.66612E+3   1.20356E+3
  -5.82537E+3   4.27618E+3
  -3.58147E+3   2.97177E+3
  -2.60053E+2  -2.18348E+3
   6.45379E+3  -3.75765E+3
   9.63659E+3   1.82464E+3
   2.73840E+3   3.73689E+3
  -3.32598E+3  -2.17864E+3
  -5.03398E+3  -7.89784E+3
  -7.68228E+2  -6.10434E+3
  -1.03608E+3   1.29838E+3
  -1.64668E+3   5.09903E+3
  -2.25493E+3   2.63979E+3
   1.95569E+3   2.66480E+3
   4.76785E+3  -1.75479E+2
   4.32415E+3   7.21331E+2
   1.97220E+3   2.96289E+3
  -4.28817E+3  -8.76440E+1
   2.35965E+3  -4.71265E+3
   3.75475E+3   1.74996E+3
  -9.88708E+2   3.66539E+3
  -5.50857E+3   1.62180E+3
  -3.26311E+3  -5.77488E+3
   4.14393E+3  -5.70922E+3
   8.57383E+2   2.86978E+3
  -9.47222E+2   8.11585E+3
  -7.61013E+3   1.73192E+3
  -1.73627E+3  -1.43300E+3
  -1.43168E+3   2.55621E+3
  -3.09604E+3   2.79094E+3
   8.61674E+2  -4.47371E+3
   4.79112E+3  -2.70623E+3
   4.01230E+3   5.66833E+2
   2.29275E+3  -7.76718E+2
   3.33049E+2   8.25108E+1
  -7.32448E+3   3.91650E+3
  -7.52635E+3  -4.77262E+3
  -1.97648E+3  -7.77914E+3
   3.30206E+3  -5.43437E+3
   1.11647E+3  -2.40041E+3
   2.02788E+3  -3.16585E+3
   3.83576E+3  -3.04970E+2
   3.92414E+3   1.69339E+3
   2.48158E+3   3.31448E+3
  -8.29947E+2   3.77199E+3
  -1.61062E+3  -8.30054E+1
   3.44785E+3  -3.03327E+3
   3.60172E+3   4.31811E+2
   6.15729E+2   3.27009E+3
   2.82978E+3   1.58489E+3
   9.76676E+2   4.54663E+3
  -4.02769E+3   5.57637E+3
  -6.61337E+3   2.30247E+3
  -3.65928E+3  -2.57803E+3
  -6.97399E+2  -1.57784E+3
   3.90143E+3  -8.07592E+2
   3.37474E+3   3.52315E+3
  -4.18450E+2   3.20908E+3
  -3.43028E+3  -1.73476E+3
   3.03147E+3  -4.40003E+3
   2.90906E+3  -1.08198E+1
   1.26020E+3   2.92607E+3
  -3.95860E+3   7.21333E+2
  -9.28054E+2  -1.88718E+3
   1.47419E+2  -1.69311E+2
  -3.36143E+3   9.34052E+1
  -1.80065E+3   5.33991E+2
  -1.16468E+3   4.76667E+2
  -1.23607E+3   3.69854E-1
   5.73030E+2  -9.75228E+2
   1.51685E+3   5.30111E+1
  -1.39628E+3  -1.08576E+3
  -9.66501E+2  -1.73149E+3
   1.88301E+3  -2.90575E+3
   1.51264E+3   1.73309E+2
   1.96182E+2   9.05092E+2
  -1.14493E+3  -7.58029E+1
   1.26442E+3  -3.01363E+3
   3.55281E+3   3.70408E+2
   1.03078E+3   1.98201E+3
  -4.85852E+3   1.87603E+3
  -2.24919E+3  -3.13062E+3
   5.54338E+2  -3.75463E+3
  -4.67135E+2  -2.17048E+3
   6.90121E+2  -1.48202E+3
  -5.13251E+2  -1.18967E+3
   2.73882E+3  -1.94928E+3
   5.36732E+3   2.28679E+3
  -5.37475E+2   4.59891E+3
  -3.05524E+3   4.33633E+3
  -3.09060E+3  -9.47935E+2
   2.75578E+2  -3.82135E+3
   3.97429E+3   8.06244E+2
   2.40254E+3   3.13555E+3
  -4.32401E+3   2.12018E+3
  -4.17627E+3  -2.31518E+3
  -1.89562E+3  -5.27093E+3
   2.14172E+3  -7.07955E+2
   2.00076E+3   5.95121E+2
  -4.66363E+2   6.13760E+2
   2.86924E+2  -4.97057E+1
   2.38775E+3   4.59288E+2
  -6.10925E+2   2.49686E+3
  -2.20521E+3   3.56377E+3
  -2.31623E+3   1.93099E+3
   3.60293E+2  -9.39843E+2
   1.85919E+1  -1.11830E+3
   1.80806E+3  -7.28658E+2
   2.96011E+3   2.47754E+3
   3.19783E+3   2.08664E+2
   2.54688E+3   2.27198E+3
   8.95750E+2   2.48675E+3
  -4.49633E+2   5.82745E+2
  -4.60417E+2   8.69317E+1
   1.38075E+3  -2.03059E+3
   8.99833E+2   1.66026E+3
   1.28811E+3   1.95903E+3
  -1.73155E+1   1.41773E+3
  -7.85157E+2  -1.35894E+3
   1.44263E+3  -8.31557E+2
   4.63365E+1   5.11174E+2
  -1.95988E+2   4.36501E+2
  -2.00919E+3  -3.91309E+2
   1.87976E+2  -2.17783E+3
   2.31124E+3   4.47506E+2
   1.34772E+3  -6.76689E+2
  -2.38984E+3  -5.45630E+2
  -7.72075E+2  -2.11847E+3
   1.21040E+3  -2.76594E+3
   2.86296E+3  -1.40324E+3
   3.80371E+3   2.99819E+3
  -1.02977E+3   1.43882E+3
  -1.33817E+3   3.29935E+2
  -5.70847E+2  -4.49688E+2
  -8.78131E+2   8.67030E+2
  -1.86516E+3   2.63731E+3
  -3.49339E+3  -1.48879E+3
  -5.81922E+2  -2.60903E+3
  -2.37323E+3   3.02023E+2
  -1.75261E+3   2.76566E+3
  -3.29985E+3   1.07999E+3
  -1.10151E+3  -8.11399E+2
  -3.51059E+3  -1.35808E+3
  -6.69352E+1  -1.14991E+3
   3.26641E+3  -3.56529E+3
   2.93146E+3   3.93197E+2
   7.13016E+1  -9.73484E+2
   3.95689E+2   1.93639E+3
  -1.21999E+3   6.00167E+2
  -1.61237E+3   1.04773E+3
  -9.23763E+2  -1.34494E+3
  -1.81633E+3  -1.80507E+3
  -1.29974E+3   8.65760E+1
  -1.82518E+3   1.79197E+3
  -5.54707E+2   1.29874E+3
  -4.94198E+2   3.56002E+2
  -2.62502E+3   2.01202E+3
  -7.53469E+2   3.80095E+3
  -1.67173E+2  -3.91742E+2
  -3.77036E+1  -2.11574E+3
   1.49056E+3   1.03789E+2
  -6.80551E+2   1.16064E+3
  -1.18414E+3   4.87955E+2
  -3.04180E+3  -2.45747E+3
  -1.06809E+3  -4.16422E+2
   9.57808E+2   2.01931E+2
   2.61965E+3   7.24992E+2
   2.55342E+2   1.97910E+3
   1.38068E+3  -4.34746E+1
   1.39933E+3   2.60654E+3
   1.23985E+3   2.57339E+3
  -2.57891E+3   9.44671E+2
  -3.17326E+3  -1.34210E+3
   4.71045E+2  -1.37425E+3
   2.06369E+3   3.83056E+2
   6.38876E+2  -2.49095E+3
  -1.41044E+2   6.89941E+2
   1.46705E+3   8.40893E+2
   1.80915E+3  -7.30466E+2
  -1.88042E+3  -6.52492E+2
  -3.55222E+2  -1.22920E+3
  -7.74857E+2  -2.67085E+3
   1.60930E+3  -3.23084E+3
   2.20364E+3  -1.70108E+3
  -1.72139E+3  -3.35084E+2
  -5.36190E+2  -7.21489E+2
   4.55061E+2  -1.75974E+3
   1.19557E+3  -4.44854E+2
   4.56615E+2   8.08568E+2
   1.30334E+3   8.45177E+2
   4.89333E+2   4.40634E+1
   1.19388E+3  -4.42299E-1
  -1.42076E+3  -1.41213E+3
  -7.60202E+2   8.01171E+1
   8.86196E+2  -3.10212E+3
   1.13984E+3   1.66010E+1
   1.58639E+3   2.48087E+2
   2.42677E+2  -5.66108E+2
  -1.41991E+3   7.95827E+2
   1.70047E+2   1.54597E+3
  -9.13189E+2  -9.65405E+2
   8.07867E+2  -9.35791E+2
  -4.38523E+1   5.02589E+2
   7.10918E+2  -2.51621E+3
   1.86045E+3  -8.94026E+2
  -1.16670E+1   4.65172E+2
  -9.04066E+2  -2.76251E+2
  -7.85927E+2   1.31120E+3
   9.14454E+2  -7.91730E+2
   7.02888E+2  -2.19553E+3
  -1.10955E+3  -2.01024E+3
   2.41297E+2   3.26557E+2
  -2.56075E+2   5.87431E+2
   1.42558E+3  -1.20103E+3
  -1.49351E+3   9.69126E+2
   6.10317E+2  -2.24580E+3
  -1.10451E+3  -7.65332E+2
  -3.07771E+2  -7.90389E+2
   1.30427E+2  -1.48119E+2
  -7.16310E+2  -1.19090E+3
   6.10283E+2   6.37099E+1
  -1.91444E+3  -1.51571E+2
  -5.59862E+2  -5.21195E+2
   1.16036E+2  -3.67846E+2
   1.09802E+3   7.75872E+2
   1.58653E+3   4.04194E+2
  -9.69375E+1   2.57235E+2
   1.65514E+3  -3.77245E+2
   2.00969E+3   2.44367E+3
   1.61614E+2  -8.59193E+2
  -2.56259E+2  -1.36145E+3
  -4.93074E+2   2.58280E+2
  -2.39881E+3   3.34408E+2
  -9.79391E+2  -2.55412E+2
   1.17938E+3  -6.35681E+2
  -9.18705E+2   1.81933E+3
  -9.97796E+2   1.65638E+2
   1.76005E+3   3.25717E+2
  -2.10031E+2  -6.78341E+2
  -1.57604E+3   9.62303E+2
   1.99641E+3   1.84221E+2
   1.61399E+3   1.23963E+3
  -1.42332E+3  -4.71680E+2
   1.58848E+2   6.71038E+2
   3.21201E+2  -8.82137E+2
  -1.00141E+2  -4.68199E+2
   9.25562E+2  -1.23814E+3
   1.24207E+3  -1.23441E+3
   2.55190E+2   6.41624E+2
   2.44247E+3  -1.53322E+3
  -1.09134E+3   1.46322E+3
   1.25459E+3   1.16214E+2
  -9.91078E+2   4.03409E+1
  -3.18463E+2  -3.37948E+2
  -8.72715E+1   4.65755E+2
  -3.08205E+1  -2.12980E+3
   2.62491E+2  -1.45687E+3
   1.95628E+3   2.38558E+3
  -2.26098E+2  -3.92221E+2
  -7.16471E+2  -1.71799E+3
   5.01799E+2   5.95054E+2
   1.84815E+3  -4.45922E+2
   1.34128E+3  -1.02836E+3
   6.36709E+2   1.68798E+3
   9.58852E+2   2.26039E+3
  -8.35437E+2   8.99090E+1
   4.42405E+2  -1.11515E+3
  -7.51519E+2  -4.93476E+2
   1.64017E+3   3.16279E+2
   6.02331E+2  -4.77452E+2
  -2.95242E+2   6.19710E+2
  -5.41150E+2   9.31745E+2
  -4.52224E+2  -9.23762E+2
   6.05047E+2   5.23690E+2
  -1.90311E+3  -1.64202E+2
  -1.07561E+3  -4.78879E+2
   4.35573E+2   1.84364E+3
  -1.17429E+3   1.41356E+3
  -1.23191E+3  -1.29143E+3
   8.33239E+2  -5.77308E+2
  -4.23039E+2   4.20613E+2
   1.42462E+3  -1.07069E+1
  -5.75565E+2  -2.27062E+2
   8.17880E+2   6.96981E+2
  -1.56671E+2   4.86754E+2
  -3.19576E+2   2.65719E+2
  -7.12080E+2   3.80963E+1
  -3.15884E+2  -9.16110E+1
  -1.08168E+3  -1.54415E+3
  -3.38595E+2  -8.22701E+2
  -9.98575E+2  -3.87737E+1
  -7.80252E+2  -4.41550E+2
   1.06555E+2  -1.98749E+3
   4.92552E+2   4.49915E+2
  -1.03636E+3   2.10432E+3
   5.00135E+1   9.19269E+2
  -1.88956E+1   1.92380E+3
  -2.52355E+2   2.41242E+2
   9.11612E+2   7.27738E+2
  -1.03895E+3  -1.64806E+2
  -1.05806E+3   5.30351E+1
   1.67250E+3   1.32806E+3
   1.33682E+3  -6.87869E+2
   2.17717E+1   1.26821E+3
  -5.00458E+1  -6.12935E+2
  -6.96761E+2  -8.98918E+2
   8.91840E+2   5.90118E+2
   7.93134E+2   2.46521E+2
   5.34041E+2   1.77100E+2
   1.48272E+3   1.52015E+3
   6.36976E+2  -9.57449E+1
  -1.24510E+2  -1.29984E+3
  -1.99358E+3  -4.39308E+2
   5.30993E+2  -2.48777E+3
   9.12297E+2  -4.60575E+2
   1.11733E+3   1.04089E+3
   1.09839E+3   2.57384E+3
   1.03324E+3   6.69324E+2
  -4.13068E+2   1.98681E+3
   7.38192E+2   7.52760E+2
   2.58764E+2   2.13726E+2
   1.28984E+3   5.06159E+2
  -1.22748E+3  -8.28664E+2
  -5.01555E+2  -1.04736E+2
   4.40492E+2   1.58321E+3
  -1.31415E+3   2.75082E+2
   9.76066E+2   1.11829E+3
   1.66492E+3  -1.13646E+3
  -1.30518E+3  -2.08748E+2
  -9.70283E+2  -1.37791E+3
  -5.47031E+2  -2.29681E+2
  -2.23716E+3   1.48742E+3
   1.21268E+3  -9.40850E+2
   1.12714E+3   8.95531E+2
  -7.70044E+1   1.26886E+3
   1.52035E+3   3.29786E+2
   4.55499E+2   2.54141E+3
   9.63954E+2  -1.13451E+3
   1.77247E+3   6.65071E+2
   4.10318E+2   3.26629E+2
   1.52213E+3  -9.52710E+2
  -1.60626E+3   1.08033E+3
   1.58846E+2   1.41234E+2
   5.77654E+1  -6.47362E+2
  -1.43124E+3  -1.45694E+3
   1.03344E+2   9.00966E+2
   1.58564E+2   1.22698E+3
  -2.85540E+2   9.34757E+2
  -9.33192E+2   1.93348E+3
   8.35605E+2  -1.40574E+3
  -5.65377E+2   1.83332E+3
   1.85075E+2   1.01355E+3
  -4.03433E+1  -3.47632E+2
  -2.62120E+2  -1.20769E+3
   6.37800E+2   9.04097E+2
   3.54875E+2   3.14912E+2
   2.17299E+3  -1.39269E+3
   1.82005E+3  -5.19226E+2
   6.18988E+2  -8.25835E+2
   1.06042E+2   6.75034E+1
   7.09641E+2  -1.42124E+3
