 
 $NMID
 ID=''
 FMTDAT='(2E13.5)'
 TRAMP=   1.00000E+0
 VOLUME=   1.00000E+0
 $END
  -6.43108E+2   8.89292E+2
  -2.34206E+3   6.38142E+2
   5.92622E+3   4.23139E+3
   3.90346E+3   2.51644E+2
   1.36736E+3  -1.31217E+3
   3.36475E+3   1.24257E+3
  -8.82003E+2   5.10833E+2
   1.93861E+3  -5.38422E+3
   3.67648E+3  -3.31860E+3
   2.08943E+3  -3.56371E+3
   5.34838E+3  -7.20743E+2
  -4.04174E+2   4.35750E+3
  -5.20011E+3   5.65110E+2
  -1.03754E+3  -5.11985E+3
   3.79956E+3  -9.10441E+2
  -5.47277E+2   1.09473E+3
   5.28453E+2  -4.74647E+2
  -2.46884E+3   1.66003E+3
  -1.97706E+2  -2.65754E+3
   3.40202E+3   3.68373E+2
  -4.32655E+2   3.60240E+3
  -3.93390E+3   2.51788E+3
  -5.19429E+2  -1.23809E+3
   5.64239E+2   3.74077E+3
  -1.86788E+3   3.05621E+3
  -2.13786E+3  -1.77234E+3
   2.33882E+3  -1.45776E+3
   1.94439E+3  -2.33536E+2
   2.13242E+3   2.54857E+3
  -4.23127E+2   3.85756E+3
  -3.45688E+3  -2.09114E+3
   2.61197E+3  -6.19183E+3
   3.81732E+3   2.32512E+3
  -2.69928E+3   2.42087E+3
  -2.97501E+3  -6.49309E+2
  -1.42531E+3   6.20814E+2
  -3.80937E+3  -1.02983E+3
  -1.97764E+3  -4.00620E+3
   2.10183E+3  -7.26451E+3
   3.74461E+3  -3.45586E+3
   4.22414E+3  -1.38785E+3
   5.54022E+3   5.32385E+3
   5.41922E+2   4.87680E+3
  -1.98785E+3   1.09881E+3
  -7.61366E+2   9.62877E+2
  -1.23266E+3   2.59275E+3
  -3.19960E+2   8.47440E+2
  -1.10236E+3  -2.29838E+3
   2.48705E+3  -5.92080E+2
   1.82163E+3   6.49492E+2
  -2.20668E+3   4.02084E+2
  -8.54114E+2  -2.72016E+3
   8.94118E+2  -3.97957E+3
   4.66498E+3  -1.77366E+2
   8.07473E+2   1.08969E+3
   4.97709E+3   2.85001E+3
  -8.96387E+2   5.22015E+3
  -2.48377E+3   7.80760E+2
  -3.56361E+3  -7.69292E+2
  -2.26737E+3  -5.83431E+3
   1.43105E+3  -3.65925E+3
   2.69134E+3   6.30250E+2
   2.35135E+3   5.80913E+2
  -1.37982E+2  -1.63499E+3
   8.84315E+2  -1.10768E+3
   1.87729E+3   1.99908E+3
  -1.25552E+3   2.27828E+3
  -3.45089E+3   1.61297E+3
  -1.28969E+3  -3.48995E+3
  -5.30265E+2   1.74977E+3
  -2.17156E+3  -2.78019E+2
  -3.58358E+2  -9.65026E+2
  -2.89999E+2   1.09415E+3
  -4.26424E+2  -1.93880E+3
  -7.99787E+1  -1.21953E+2
  -5.47593E+2   9.99077E+2
  -9.52852E+2   7.75799E+2
   1.17705E+3  -3.85951E+3
   2.41508E+3   8.09513E+2
  -3.17318E+3   2.18550E+3
  -1.73255E+3  -2.07495E+3
  -1.21188E+2  -1.93660E+3
   6.86690E+0   4.01874E+2
  -1.45650E+3   2.43937E+2
  -1.33565E+3  -1.43795E+3
   2.17592E+3  -1.68806E+3
   1.92038E+3  -3.66588E+2
   1.77704E+3   1.68306E+3
  -1.85701E+3   1.30009E+1
  -1.19016E+3  -4.76784E+1
   8.52399E+2  -3.52972E+1
  -5.15907E+2   6.61037E+2
  -1.32635E+3  -2.16801E+3
  -1.63968E+2  -2.26453E+3
   3.58056E+3  -2.33265E+3
   3.08509E+3   2.13417E+3
  -4.72167E+1   2.53905E+3
  -3.75894E+3  -1.09385E+3
  -1.96523E+2  -9.93777E+2
   3.23005E+3   1.59967E+3
   1.71959E+3   2.10556E+3
  -1.30719E+3   5.73992E+2
  -1.44646E+3  -1.02872E+2
   1.47268E+3  -6.72339E+2
   1.46990E+3   1.77967E+3
  -6.77201E+2   3.02574E+3
   2.92297E+3   8.93481E+2
   9.19100E+2   8.90397E+2
   8.53593E+2   1.94159E+3
  -1.67520E+3  -1.84182E+2
  -2.27611E+3  -1.26532E+3
  -2.29003E+3  -1.28907E+2
  -1.45928E+3  -1.50682E+3
   4.09014E+2   6.70029E+2
  -1.23920E+3  -2.29361E+3
  -4.61233E+2   1.22348E+3
   6.03089E+2   8.78373E+2
  -1.39903E+3   1.25187E+1
  -1.81364E+3  -6.11388E+2
  -1.72304E+3   5.30559E+2
  -2.17219E+2   5.78866E+2
  -2.16490E+2  -4.13298E+2
  -1.35287E+3   6.68378E+2
  -2.15532E+3  -1.09488E+3
  -1.27125E+3   1.75797E+1
  -8.77312E+2  -1.89509E+3
  -1.81250E+3  -1.91603E+2
  -9.88060E+2   1.40862E+3
  -8.50032E+2  -1.58515E+3
   5.99537E+2  -1.43166E+3
  -5.29167E+2  -1.22170E+3
  -5.72906E+1  -2.92725E+2
   2.84280E+2  -1.16148E+3
  -1.08860E+3  -1.05702E+3
  -1.52914E+3  -4.81575E+1
   2.61543E+2   2.17190E+3
  -8.25629E+2  -1.92694E+3
  -1.23566E+3  -7.56718E+2
  -2.46953E+2  -1.23736E+3
   4.57836E+2  -7.99133E+2
  -1.33234E+2  -7.72434E+2
   1.83870E+3   1.08099E+3
   5.24419E+2   1.70231E+3
  -6.35514E+2   2.36925E+3
  -1.28309E+3  -4.80475E+2
   7.87954E+2   1.95684E+3
  -7.71094E+2   6.79920E+1
  -9.20695E+2   1.59303E+3
  -1.91678E+3   6.36761E+2
  -3.55755E+2   1.62699E+3
  -1.27346E+3   8.27038E+2
  -2.63539E+2   1.49690E+3
  -1.23380E+3   6.08849E+2
  -6.60216E+2   3.03558E+3
  -1.50283E+3   1.39495E+3
  -4.84464E+2   1.24913E+3
   3.49881E+2   1.32942E+3
   8.11207E+2   8.90790E+2
  -5.27761E+2   5.58026E+2
  -5.31724E+2   1.81072E+3
   7.80696E+2   2.42116E+3
   4.95459E+1   1.22319E+3
  -1.44441E+3   7.49534E+2
  -1.28463E+3   5.91316E+2
  -1.54838E+2   4.86198E+2
  -8.26484E+2   1.28659E+3
  -3.44395E+1   1.42621E+3
  -8.87679E+2   2.44341E+3
  -6.93660E+2   2.98309E+3
  -1.68662E+2  -7.33767E+2
  -1.86757E+3   3.43596E+2
  -4.12412E+2  -3.94788E+2
   1.80427E+2   1.42702E+3
  -7.29895E+1   9.58529E+2
   7.00591E+2  -2.06725E+3
   1.98590E+2  -1.70102E+3
   6.47283E+2   2.78014E+3
  -3.44825E+2   1.87727E+3
  -8.49285E+2   1.72088E+3
   1.48334E+3  -2.81824E+2
   1.37727E+3  -1.61637E+3
  -7.39367E+2  -1.76015E+3
   1.05086E+3  -2.97138E+2
   1.32847E+3   1.76909E+2
   6.24966E+2   1.43565E+3
  -5.06586E+2   1.11125E+3
   4.58553E+2  -2.50346E+3
  -5.14949E+2   1.14955E+2
  -8.30699E+2   3.32967E+2
  -5.13886E+2   1.12621E+3
  -5.94319E+1   1.55540E+3
  -5.14157E+2   1.98296E+1
   1.70414E+2  -5.90929E+2
  -3.85982E+2  -9.25660E+2
   1.87865E+3  -3.98245E+2
   9.96467E+2  -4.13134E+2
   6.43278E+2  -8.46664E+2
   2.66482E+3  -3.53735E+2
   8.44459E+2   1.82629E+3
  -7.42612E+2  -5.36510E+2
   1.21678E+3  -5.14833E+2
   3.86651E+2  -1.97518E+3
   1.93285E+3   5.52918E+2
   6.42228E+2   1.10547E+3
   1.54127E+2   9.34017E+2
   6.40123E+2  -1.29005E+3
   8.50384E+2   3.17556E+2
   4.78343E+2   8.81795E+1
  -3.26066E+2  -1.07106E+3
  -1.40698E+3   6.95848E+2
   1.27994E+3   2.52901E+3
   8.72973E+2   1.25122E+3
   1.27575E+3  -1.36812E+2
   7.85465E+2  -1.03216E+3
  -1.59822E+3   1.31822E+3
   2.93825E+2  -2.21743E+3
   4.29335E+2  -7.30667E+2
   5.40841E+2  -1.23699E+2
   1.33473E+3  -1.05748E+3
   8.20745E+2   1.79620E+2
   5.35959E+2   8.01151E+0
   7.85850E+2  -7.27886E+2
   8.48367E+1  -5.60331E+2
   2.55999E+2   5.66606E+2
   5.50541E+2   1.28370E+2
  -1.18203E+3  -1.16906E+2
  -1.11946E+3  -1.46750E+2
  -1.21287E+3   6.37395E+1
  -1.48567E+3  -1.75468E+3
  -1.09440E+3   1.22565E+3
  -2.08007E+3   2.19827E+3
   2.03391E+3  -1.11608E+2
   3.51280E+1  -2.47180E+3
   1.51445E+3  -8.09083E+2
   2.66340E+2   1.04998E+3
   4.32758E+2  -9.90376E+2
  -1.52941E+3   1.15754E+2
   9.21260E+2  -2.65200E+1
   1.94915E+3  -7.06257E+2
  -1.57535E+3  -1.90225E+2
  -3.06818E+3   4.37212E+1
  -2.05989E+3  -7.08822E+1
   3.16232E+2  -1.78919E+3
  -1.19485E+3   5.50675E+2
  -6.45266E+2   1.03506E+3
   1.17434E+3  -1.79748E+3
   2.91848E+2  -5.24095E+2
  -1.52972E+2  -4.49628E+2
  -2.32883E+3  -1.11873E+3
  -3.20802E+2   1.55000E+2
   4.79654E+2  -1.50508E+3
  -2.27986E+3  -1.12893E+3
  -7.22769E+1  -6.35874E+2
   1.33713E+3  -1.80539E+2
  -1.09230E+3  -9.80348E+2
  -9.02599E+2   1.37356E+3
  -1.36841E+3   1.49907E+3
  -1.00854E+3   1.68009E+3
   2.76963E+3   4.36702E+2
  -2.92281E+2  -5.19573E+2
   5.02785E+2  -7.09536E+2
   3.94584E+1   3.19507E+1
   1.92466E+2  -5.06414E+2
  -1.44990E+3   9.37896E+2
  -1.42861E+3  -8.04688E+2
  -6.23377E+2   6.27571E+2
   1.37932E+3  -7.87268E+2
   8.33433E+2   6.95434E+2
  -3.83991E+2   7.95972E+2
  -3.77045E+2  -1.04198E+3
  -1.66174E+3   1.06658E+3
   3.59706E+3  -1.21470E+2
   7.13538E+2  -7.68818E+2
   1.04198E+3   3.90057E+1
  -1.89570E+3   3.26269E+2
   5.13049E+2   9.85206E+2
   2.40518E+2   1.88950E+2
   6.79038E+2   4.13022E+2
   1.26224E+3   1.96920E+2
  -7.48549E+2  -1.12941E+3
  -7.58082E+1  -1.17007E+3
   7.22315E+2  -1.14543E+2
  -2.34572E+2  -1.68839E+2
   4.45849E+2  -1.65779E+2
   6.60825E+2  -5.97548E+2
  -7.49750E+1   1.11423E+3
  -3.89005E+1  -1.13509E+3
   9.57942E+2   1.20655E+3
   2.84878E+2   3.88133E+2
   9.68771E+1  -1.78140E+3
  -2.06231E+3  -2.69112E+2
  -3.42658E+1  -4.85324E+2
  -8.63297E+2   1.83974E+2
  -9.33495E+2  -1.28021E+3
   3.65256E+2  -2.63213E+3
   4.62038E+2   4.06451E+2
   4.75785E+2  -6.82675E+2
   1.15295E+3  -7.56633E+2
  -1.91397E+3  -1.54708E+3
   1.31416E+3  -1.34989E+3
  -2.64667E+2   6.05807E+2
  -2.99534E+2   5.43713E+2
   6.86069E+2   4.18052E+1
  -2.92773E+2  -2.12329E+3
  -1.75566E+3  -9.91313E+2
   1.28675E+3   7.83302E+2
  -4.60240E+2   5.63985E+2
   1.11057E+3  -1.19904E+3
   2.41573E+2  -3.59629E+2
  -4.45984E+2   4.67119E+2
  -1.05241E+3   9.51789E+2
   1.61955E+3  -1.17196E+3
   1.96233E+2  -5.41845E+1
  -7.07882E+2   7.63905E+2
   1.34267E+3   7.14730E+2
  -3.25488E+2  -6.40800E+2
   5.63442E+2   1.32233E+2
  -1.73325E+3   1.84837E+2
   2.75460E+3  -6.90445E+2
   9.11455E+2   4.73648E+2
   2.08762E+2   5.14402E+2
   4.75145E+2   7.62509E+2
  -1.01734E+3  -7.99841E+2
   3.13032E+2   1.17880E+3
   4.79181E+2  -2.21599E+3
   2.00765E+3  -9.46208E+2
   6.61568E+2   2.83449E+2
   1.04885E+3   5.92208E+2
  -7.50937E+1   1.21527E+3
  -9.05587E+2  -9.56185E+2
   6.87423E+2  -1.31157E+3
   1.40822E+3   4.81383E+2
  -4.01031E+2  -7.71545E+2
  -1.75270E+2  -5.39000E+0
   1.31998E+3  -9.16182E+2
   1.98027E+2  -7.51701E+2
  -8.38327E+2   7.66632E+2
  -1.79674E+2  -8.93382E+2
   1.40986E+2  -1.67794E+3
   1.66413E+2  -4.51134E+2
   5.08436E+2  -7.61331E+2
  -1.17286E+3  -5.93985E+2
   3.21750E+1  -1.03351E+3
   1.96884E+2   7.46924E+0
   1.67298E+3   1.40760E+3
  -6.20572E+2  -2.31002E+2
  -5.09367E+2  -1.00493E+3
  -3.97487E+2   3.37262E+2
   1.27986E+3  -1.65833E+3
   2.92330E+2  -6.85190E+2
  -4.78772E+2   1.52972E+2
  -1.12605E+3  -1.45377E+3
  -1.35641E+1   5.64462E+1
  -1.75864E+2  -2.02115E+2
   8.05005E+2   8.97428E+1
  -2.10015E+3   1.07944E+2
   6.16844E+2  -1.05345E+3
  -1.69556E+1  -7.72766E+2
  -1.81533E+2  -6.40301E+2
  -1.87320E+3   1.13161E+3
   1.92482E+3   5.70642E+2
  -4.85900E+2   3.26933E+2
  -6.62841E+1  -1.80932E+2
   1.02309E+3   1.63543E+3
  -7.42177E+2   7.87909E+2
  -1.80482E+3   1.41422E+3
   6.44763E+2   4.81151E+2
