 
 $NMID
 ID=''
 FMTDAT='(2E13.5)'
 TRAMP=   1.00000E+0
 VOLUME=   1.00000E+0
 $END
   9.86996E+1  -3.19901E+2
   5.49836E+2   1.60540E+3
   3.64199E+3  -3.36573E+3
   1.21172E+3  -2.94234E+3
  -3.86505E+3  -4.15094E+3
  -3.15775E+3   1.06470E+3
  -9.35853E+2   4.51637E+3
   1.42125E+3   2.36182E+2
   8.27059E+2  -1.50557E+3
  -1.08576E+3   4.47857E+2
   9.25869E+2  -3.04799E+3
   2.85375E+3  -1.78787E+3
   1.59707E+3  -2.88690E+3
   3.08525E+2  -3.13645E+2
  -3.20268E+3   4.61263E+3
  -2.50923E+3   1.34717E+3
  -1.26970E+3  -2.22663E+3
   2.29430E+3   3.37449E+1
   2.38036E+3   2.49550E+3
   1.15735E+3   7.43524E+2
  -5.35718E+2  -2.48956E+3
   3.63649E+3  -1.90114E+3
   1.38987E+3   2.51799E+3
  -3.46677E+3   3.25726E+3
  -2.27604E+3  -1.41909E+3
   2.08257E+3  -2.19605E+3
   4.18370E+2   1.90641E+3
  -3.29592E+3   4.70238E+3
  -7.17210E+3  -8.54936E+2
  -3.98331E+3  -5.58928E+3
   4.17558E+3  -2.04821E+3
   1.94214E+3   4.16467E+3
  -2.76023E+3   6.13861E+3
  -3.21338E+3   4.21321E+3
  -1.01997E+3   3.04798E+3
  -4.28420E+3   2.90946E+3
  -4.41748E+3   4.66015E+2
  -2.43230E+3  -3.98898E+3
   8.00968E+2  -1.97917E+3
   6.26000E+2  -1.05283E+3
   3.35878E+3  -6.26173E+2
   1.38404E+3   3.09237E+3
  -2.57289E+3   9.46082E+2
  -4.31114E+3  -3.68634E+3
   1.32121E+3  -2.87094E+3
   1.47013E+3  -1.55399E+3
   7.51679E+2  -2.13249E+3
   5.53854E+3  -4.73435E+2
   3.12369E+3  -6.85227E+2
   1.59382E+3   2.91529E+1
  -7.34596E+2   8.29412E+2
  -3.11785E+3   1.85312E+2
  -2.84867E+3  -2.08366E+3
  -3.55376E+2  -4.59975E+3
  -2.05211E+3  -2.98945E+3
   2.72464E+3  -2.16697E+3
   6.13464E+3  -1.09943E+3
  -4.07603E+1   2.35390E+3
  -2.65461E+3   2.26450E+3
  -3.17869E+3  -6.35589E+2
  -2.54997E+3  -2.16592E+3
   2.50254E+2  -3.37034E+3
   1.09958E+1  -2.36605E+3
   6.26208E+2   4.78522E+2
  -3.80718E+2   9.45236E+2
  -3.78059E+3  -2.87251E+3
   2.35613E+3  -1.85682E+3
   2.97624E+3   1.56076E+3
   5.30042E+2   2.75206E+3
  -3.29128E+3   5.74862E+2
  -1.50355E+3  -7.34547E+2
  -4.39189E+2   1.13075E+3
  -2.02987E+3  -1.46541E+3
  -1.22595E+3  -8.23425E+2
  -7.90643E+2  -4.44228E+2
  -1.60015E+3   5.13078E+2
   1.41544E+3   2.35350E+3
  -1.63083E+3   1.83598E+3
   5.31116E+2   1.23178E+2
   3.34862E+2  -3.05973E+3
   1.08322E+3   1.28010E+2
   7.48739E+2  -9.67444E+2
   1.81263E+3  -1.91008E+3
   1.37705E+3  -1.18689E+3
   1.83493E+3  -4.40550E+2
   2.49595E+3   1.90985E+3
  -1.49953E+3   3.95337E+3
  -1.61840E+3  -3.96762E+2
  -5.47219E+2  -3.40534E+3
   1.47057E+2  -2.19966E+3
   1.80026E+3  -1.01909E+3
  -1.48150E+3  -1.81167E+3
   1.11353E+3  -2.82859E+3
   1.87422E+3  -1.88448E+3
   3.44724E+3  -2.80627E+2
  -1.11903E+3   1.39077E+3
  -2.79291E+3   1.75305E+3
   1.41674E+3  -1.93806E+3
   2.96155E+3  -1.40596E+3
   2.89157E+2   1.26676E+3
   6.19490E+2   2.78789E+3
  -2.10119E+3  -1.78509E+3
  -3.13809E+3  -2.96012E+3
   1.80897E+3  -2.14387E+3
   2.84231E+3  -2.07191E+3
   2.28392E+3   1.04476E+2
   1.70854E+3  -2.03270E+3
   3.89535E+3  -5.11860E+2
   1.97182E+3   2.30244E+3
   7.28509E+2   3.30175E+3
  -3.09568E+3   1.81163E+3
   5.99446E+2   2.56991E+2
  -7.74016E+2  -1.18597E+3
   9.36022E+2  -1.47307E+3
  -7.57563E+1  -2.76108E+3
   3.08793E+3  -1.36780E+3
   1.98346E+3  -9.90495E+2
  -4.46560E+2   9.77822E+2
  -1.36243E+3   3.39797E+2
  -1.23718E+3  -3.46873E+2
   7.04863E+1   1.87396E+2
   8.52371E+2  -1.08505E+3
   2.35451E+3   1.62132E+3
   1.66921E+3   1.25082E+3
  -1.45268E+3  -1.34041E+3
   2.75362E+2  -7.54348E+2
   9.57072E+2  -3.56538E+2
   1.68244E+2  -7.38500E+2
   3.59901E+2  -2.42947E+2
   1.55933E+3  -6.04264E+2
   2.25964E+3   5.44635E+2
  -9.90601E+2   2.58719E+3
  -1.36210E+3   8.04241E+2
  -7.83139E+2  -2.27217E+3
   4.46457E+2  -1.20070E+3
   2.70355E+3  -4.06213E+2
   2.13206E+3   2.13216E+3
   1.28983E+3   3.34229E+3
   2.64600E+2   9.11428E+2
   1.89351E+3   2.89994E+2
   8.33577E+2   2.95303E+3
  -1.86007E+2   1.92141E+3
  -6.51782E+2  -1.74330E+3
  -1.00010E+3  -1.46774E+3
   1.12914E+3  -6.91479E+1
   9.24660E+2   1.03312E+3
   3.00555E+1  -1.23484E+3
  -5.03502E+2   1.46098E+3
   1.41861E+2  -3.29131E+2
  -9.72810E+2   5.76952E+2
   1.55543E+3  -1.11969E+3
   2.08595E+3  -4.41704E+2
   1.65245E+2   3.38969E+2
   1.22757E+3   2.40546E+3
  -1.32982E+3   5.43130E+2
  -1.67447E+3   5.74585E+2
   7.41162E+1  -7.96571E+2
  -2.59440E+2  -3.44991E+2
  -1.32499E+3  -6.09652E+1
  -2.05143E+3  -1.03992E+3
  -1.68619E+3  -2.25045E+3
   1.79729E+2  -1.46596E+3
   9.42989E+2   8.55284E+2
  -8.27185E+2   1.86957E+2
   3.44774E+2  -1.78153E+3
   8.92719E+2  -3.16252E+2
   2.80433E+3  -3.41217E+2
  -2.85033E+2   2.32175E+3
  -1.63170E+3   4.09981E+0
  -6.37174E+2   8.75920E+2
  -6.72221E+2   5.39486E+1
  -1.90716E+3  -1.50932E+3
   3.57792E+2   9.81775E+2
  -9.97348E+2   8.63737E+2
   9.43422E+2   1.34217E+3
   1.58411E+3   1.72636E+3
  -2.24286E+2   2.16716E+3
  -3.93117E+3   8.71374E+2
  -1.59319E+3  -2.86164E+2
   9.26378E+2  -2.60218E+3
   5.96336E+2   1.44551E+3
   8.76752E+1   1.84353E+3
   1.67457E+3   2.23169E+3
   1.15416E+3   1.38917E+3
  -3.37138E+2   2.84713E+3
  -4.48390E+2   1.33833E+3
  -7.63024E+2   1.23668E+2
  -1.48113E+2  -1.40027E+3
   1.07167E+3  -1.70920E+2
   1.12487E+3   2.09138E+3
   6.20188E+2   1.15392E+3
   1.79662E+2   5.30940E+2
  -3.79492E+2   1.80592E+1
   4.95139E+2   1.06091E+3
  -1.79570E+2  -7.92404E+2
  -1.75140E+2  -1.33701E+3
  -1.24330E+2   1.02989E+3
   2.38334E+3   1.10231E+3
   2.73228E+3   8.93148E+2
  -5.90969E+2   2.61295E+3
  -1.87964E+3  -4.71842E+2
   1.42197E+3  -1.86206E+3
   2.87144E+3  -1.47520E+2
   2.88491E+3   1.02995E+3
  -3.61146E+2   2.18890E+3
  -5.13817E+2   9.82654E+2
   1.02018E+3   3.05180E+2
  -4.74311E+2   1.24971E+3
   7.02781E+2   6.17449E+2
  -1.28625E+3  -3.20593E+1
   1.68600E+3  -2.75280E+2
   1.88766E+3   1.06437E+3
   2.61059E+3   2.44776E+3
  -5.76209E+2   1.51425E+3
  -6.03267E+2   5.67533E+2
   1.46458E+3  -1.66485E+3
   5.19751E+2  -7.37278E+2
   2.17609E+3  -1.64322E+3
   5.27871E+2   3.34443E+2
  -1.61185E+2  -9.41719E+2
  -3.22121E+2  -1.76215E+3
  -8.54093E+2   4.71995E+2
   5.41648E+2  -9.90143E+2
   5.38662E+2  -5.01333E+2
   3.87032E+2   2.12383E+3
  -1.46938E+3   1.11315E+3
   2.21907E+1   1.85952E+3
  -2.17868E+2   6.82872E+2
  -5.77893E+2  -1.84584E+3
   4.18756E+2  -2.82184E+2
   1.67627E+3   4.77300E+2
   2.10607E+3   4.29612E+1
  -2.00881E+3   1.54031E+3
   1.64067E+3   3.04740E+2
  -8.35790E+1   2.57481E+2
   1.11375E+3   4.99388E+2
  -1.94823E+2  -1.44513E+3
  -8.39134E+2   3.27042E+2
   1.37660E+3  -8.87523E+2
   1.13557E+3   1.22762E+3
  -8.14622E+2  -6.31675E+2
  -3.50278E+2  -3.50441E+2
   1.29708E+3  -3.03128E+2
  -5.76755E+2  -4.36710E+2
   6.16613E+2  -6.25822E+2
  -8.17608E+2  -4.68409E+2
   1.17374E+2  -3.96528E+2
  -1.95603E+3  -3.45528E+2
  -4.22611E+2   1.95048E+3
   1.33152E+3   1.18659E+3
  -2.39539E+3   5.64821E+2
   1.02437E+3  -6.15702E+2
  -1.30879E+3  -2.60522E+2
  -3.31622E+2  -8.00891E+2
  -1.75712E+2  -7.17255E+2
  -6.09207E+2   4.49968E+2
   3.74097E+2   5.33961E+2
  -1.22954E+3   8.41142E+1
   1.17751E+3   1.48583E+3
  -1.31642E+3   1.08429E+1
   7.46170E+2   8.25245E+2
  -1.11581E+3  -1.24597E+3
  -3.51432E+2  -4.57993E+2
  -1.05147E+3   1.38340E+3
  -4.97691E+2  -3.13834E+2
   1.07587E+2  -1.64353E+3
  -6.34721E+2  -2.85233E+2
   1.17191E+2   2.89806E+2
   3.24267E+1  -9.41950E+2
  -1.79287E+2  -2.52951E+3
   9.60122E+2  -3.04839E+3
  -1.53114E+3   4.24864E+2
   4.48401E+1  -2.30195E+2
  -7.35533E+2   5.96171E+2
  -4.68094E+2   2.62311E+2
  -1.75170E+3   4.52394E+2
   1.89979E+3   2.39155E+3
  -1.34805E+2   1.20464E+3
  -1.57685E+3  -1.86322E+2
   1.14542E+3   9.43052E+2
   1.61387E+2  -1.20310E+3
  -9.60792E+2  -6.02752E+2
   2.97531E+2  -9.66850E+2
   7.95699E+2   1.23112E+3
   1.19501E+3   2.17002E+2
   6.83923E+2   7.78935E+2
   1.28610E+3   9.83044E+2
   4.59705E+2   6.26352E+0
   1.54007E+3   1.03816E+2
  -7.63185E+1   1.53530E+3
  -1.28570E+3   5.85384E+2
  -1.25921E+3   6.25552E+2
   1.38378E+2   1.32668E+3
   3.47185E+2  -1.10338E+3
  -1.19015E+3   1.10233E+3
  -2.81460E+3   3.26021E+2
  -1.40666E+3   5.02556E+2
  -2.26406E+2  -4.45505E+2
  -6.61485E+1  -9.99717E+2
  -2.01389E+3   1.75402E+2
  -6.35897E+2   2.02164E+1
   4.45192E+2   1.00166E+3
   2.72099E+2   1.06187E+3
  -3.39752E+3   1.63145E+3
  -1.07709E+3  -2.02174E+3
  -3.37051E+2   1.39315E+3
   2.80342E+3   1.42496E+3
   7.52137E+2   2.66235E+2
  -1.21619E+3   2.18041E+3
  -2.14954E+3   8.18621E+2
  -2.44898E+2  -4.20850E+2
  -2.34118E+2   2.22834E+2
  -9.76384E+2  -1.99827E+3
  -5.79569E+2  -1.64282E+3
   6.00243E+2  -2.44233E+2
   1.06013E+3   3.00927E+2
   2.97050E+3   9.77340E+2
  -4.71121E+2   2.38843E+2
   9.70091E+2   7.42652E+2
  -2.11224E+2  -1.20389E+3
  -3.14847E+2  -1.06281E+3
   2.51078E+1   2.70860E+2
  -1.03731E+2  -1.37604E+2
   8.61316E+2   5.46930E+2
  -2.96652E+2   3.94426E+2
  -9.62265E+2  -1.35693E+3
   4.60829E+2   2.94281E+2
  -1.27005E+3   3.47639E+2
   3.39950E+2  -2.69373E+2
   6.15573E+2   4.90102E+2
  -5.33372E+2  -3.49045E+2
  -1.26767E+3  -4.02800E+2
  -1.81296E+3  -9.06943E+2
   6.05337E+2  -5.24355E+2
   2.34653E+2   2.18369E+2
  -3.90616E+2   1.12806E+3
  -9.01162E+2  -4.02828E+2
   2.07613E+3  -1.30315E+3
   3.26765E+2   1.10678E+3
   2.31414E+2   1.08563E+3
   9.25963E+2  -4.69963E+2
   6.96085E+2   3.03783E+2
   2.41755E+3   4.13749E+2
   6.88006E+2   9.06841E+2
   3.93718E+2   9.68209E+1
   1.39766E+3  -5.88568E+2
  -1.30562E+3  -2.00976E+2
   3.82925E+3   5.17148E+2
   1.65113E+2  -6.29877E+2
  -4.45171E+2   7.38602E+2
  -1.24862E+3   1.10999E+3
  -6.06506E+2   2.85087E+2
  -1.29345E+3   1.54012E+3
  -1.53914E+2  -6.66646E+2
  -2.86738E+2   1.03247E+1
   3.62540E+2   9.60173E+2
   1.22196E+3  -1.32575E+2
  -3.91957E+2  -4.52633E+2
   7.98468E+2   1.76037E+3
  -1.91082E+3   4.18752E+2
   1.58837E+2   5.11376E+2
   7.16244E+1   1.15683E+3
   7.44988E+2   9.95724E+2
  -6.32462E+2   7.67242E+2
   1.47803E+2   8.18352E+2
  -6.26360E+0   1.81459E+3
   1.31192E+3  -1.87130E+3
