 LCModel (Version 6.3-1N) Copyright: S.W. Provencher.          Ref.: Magn. Reson. Med. 30:672-679 (1993).                
 Slice_N1@12_11  02-Jun-2023 14:36:31
 27 lines in following concentration table = NCONC+1
    Conc.  %SD /Cr+PCr  Metabolite                                         
 4.26E-06  13% 3.7E-04 Mac                                                 
 4.69E-02  40%   4.105 Cr                                                  
 4.45E-02  42%   3.895 PCr                                                 
    0.110  13%   9.640 Ins                                                 
    0.151   8%  13.178 NAA                                                 
 7.90E-02  16%   6.907 Tau                                                 
 1.79E-02  17%   1.564 PCho                                                
    0.000 999%   0.000 GPC                                                 
    0.116  14%  10.161 Glu                                                 
 4.48E-02  27%   3.915 Gln                                                 
 3.41E-03 356%   0.298 Ala                                                 
 2.07E-02 103%   1.808 Asc                                                 
 1.39E-02  82%   1.216 Asp                                                 
 1.18E-02  52%   1.033 GABA                                                
 1.21E-02  61%   1.061 Glc                                                 
 1.60E-02  44%   1.403 GSH                                                 
    0.000 999%   0.000 Lac                                                 
 8.06E-03 104%   0.705 NAAG                                                
    0.000 999%   0.000 PE                                                  
 1.79E-02  17%   1.564 GPC+PCho                                            
    0.159   8%  13.883 NAA+NAAG                                            
    0.161  12%  14.076 Glu+Gln                                             
 9.15E-02  10%   8.000 Cr+PCr                                              
    0.159   8%  13.883 NAA+NAAG                                            
 9.15E-02  10%   8.000 Cr+PCr                                              
    0.161  12%  14.076 Glu+Gln                                             
   6 lines in following misc. output table
  FWHM = 0.017 ppm    S/N =   5                                            
  Data shift = 0.017 ppm                                                   
  Ph: -75 deg      -9.5 deg/ppm                                            
  alphaB,S = 3.1E+01,   8.2E+00                                            
   18 spline knots.   Ns = 5(1)                                            
   2 inflections.     1 extrema                                            
  654 points on ppm-axis = NY
      4.000000     3.994181     3.988363     3.982544     3.976726     3.970907     3.965088     3.959270     3.953451     3.947633
      3.941814     3.935995     3.930177     3.924358     3.918540     3.912721     3.906902     3.901084     3.895265     3.889446
      3.883628     3.877809     3.871991     3.866172     3.860353     3.854535     3.848716     3.842898     3.837079     3.831260
      3.825442     3.819623     3.813805     3.807986     3.802167     3.796349     3.790530     3.784712     3.778893     3.773074
      3.767256     3.761437     3.755619     3.749800     3.743981     3.738163     3.732344     3.726526     3.720707     3.714888
      3.709070     3.703251     3.697433     3.691614     3.685795     3.679977     3.674158     3.668339     3.662521     3.656702
      3.650884     3.645065     3.639246     3.633428     3.627609     3.621791     3.615972     3.610153     3.604335     3.598516
      3.592698     3.586879     3.581060     3.575242     3.569423     3.563605     3.557786     3.551967     3.546149     3.540330
      3.534512     3.528693     3.522874     3.517056     3.511237     3.505419     3.499600     3.493781     3.487963     3.482144
      3.476326     3.470507     3.464688     3.458870     3.453051     3.447232     3.441414     3.435595     3.429777     3.423958
      3.418139     3.412321     3.406502     3.400684     3.394865     3.389046     3.383228     3.377409     3.371591     3.365772
      3.359953     3.354135     3.348316     3.342498     3.336679     3.330860     3.325042     3.319223     3.313405     3.307586
      3.301767     3.295949     3.290130     3.284312     3.278493     3.272674     3.266856     3.261037     3.255219     3.249400
      3.243581     3.237763     3.231944     3.226125     3.220307     3.214488     3.208670     3.202851     3.197032     3.191214
      3.185395     3.179577     3.173758     3.167939     3.162121     3.156302     3.150484     3.144665     3.138846     3.133028
      3.127209     3.121391     3.115572     3.109753     3.103935     3.098116     3.092298     3.086479     3.080660     3.074842
      3.069023     3.063205     3.057386     3.051567     3.045749     3.039930     3.034111     3.028293     3.022474     3.016656
      3.010837     3.005018     2.999200     2.993381     2.987563     2.981744     2.975925     2.970107     2.964288     2.958470
      2.952651     2.946832     2.941014     2.935195     2.929377     2.923558     2.917739     2.911921     2.906102     2.900284
      2.894465     2.888646     2.882828     2.877009     2.871191     2.865372     2.859553     2.853735     2.847916     2.842098
      2.836279     2.830460     2.824642     2.818823     2.813004     2.807186     2.801367     2.795549     2.789730     2.783911
      2.778093     2.772274     2.766456     2.760637     2.754818     2.749000     2.743181     2.737363     2.731544     2.725725
      2.719907     2.714088     2.708270     2.702451     2.696632     2.690814     2.684995     2.679177     2.673358     2.667539
      2.661721     2.655902     2.650084     2.644265     2.638446     2.632628     2.626809     2.620991     2.615172     2.609353
      2.603535     2.597716     2.591897     2.586079     2.580260     2.574442     2.568623     2.562804     2.556986     2.551167
      2.545349     2.539530     2.533711     2.527893     2.522074     2.516256     2.510437     2.504618     2.498800     2.492981
      2.487163     2.481344     2.475525     2.469707     2.463888     2.458070     2.452251     2.446432     2.440614     2.434795
      2.428977     2.423158     2.417339     2.411521     2.405702     2.399884     2.394065     2.388246     2.382428     2.376609
      2.370790     2.364972     2.359153     2.353335     2.347516     2.341697     2.335879     2.330060     2.324242     2.318423
      2.312604     2.306786     2.300967     2.295149     2.289330     2.283511     2.277693     2.271874     2.266056     2.260237
      2.254418     2.248600     2.242781     2.236963     2.231144     2.225325     2.219507     2.213688     2.207870     2.202051
      2.196232     2.190414     2.184595     2.178777     2.172958     2.167139     2.161321     2.155502     2.149683     2.143865
      2.138046     2.132228     2.126409     2.120590     2.114772     2.108953     2.103135     2.097316     2.091497     2.085679
      2.079860     2.074042     2.068223     2.062404     2.056586     2.050767     2.044949     2.039130     2.033311     2.027493
      2.021674     2.015856     2.010037     2.004218     1.998400     1.992581     1.986763     1.980944     1.975126     1.969307
      1.963489     1.957670     1.951852     1.946033     1.940215     1.934397     1.928578     1.922760     1.916941     1.911123
      1.905304     1.899486     1.893667     1.887849     1.882030     1.876212     1.870393     1.864575     1.858756     1.852938
      1.847119     1.841301     1.835482     1.829664     1.823845     1.818027     1.812208     1.806390     1.800571     1.794753
      1.788934     1.783116     1.777297     1.771479     1.765660     1.759842     1.754023     1.748205     1.742386     1.736568
      1.730749     1.724931     1.719113     1.713294     1.707476     1.701657     1.695839     1.690020     1.684202     1.678383
      1.672565     1.666746     1.660928     1.655109     1.649291     1.643472     1.637654     1.631835     1.626017     1.620198
      1.614380     1.608561     1.602743     1.596924     1.591106     1.585287     1.579469     1.573650     1.567832     1.562013
      1.556195     1.550376     1.544558     1.538739     1.532921     1.527102     1.521284     1.515465     1.509647     1.503829
      1.498010     1.492192     1.486373     1.480555     1.474736     1.468918     1.463099     1.457281     1.451462     1.445644
      1.439825     1.434007     1.428188     1.422370     1.416551     1.410733     1.404914     1.399096     1.393277     1.387459
      1.381640     1.375822     1.370003     1.364185     1.358366     1.352548     1.346729     1.340911     1.335092     1.329274
      1.323455     1.317637     1.311818     1.306000     1.300182     1.294363     1.288545     1.282726     1.276908     1.271089
      1.265271     1.259452     1.253634     1.247815     1.241997     1.236178     1.230360     1.224541     1.218723     1.212904
      1.207086     1.201267     1.195449     1.189630     1.183812     1.177993     1.172175     1.166356     1.160538     1.154719
      1.148901     1.143082     1.137264     1.131445     1.125627     1.119808     1.113990     1.108171     1.102353     1.096534
      1.090716     1.084898     1.079079     1.073261     1.067442     1.061624     1.055805     1.049987     1.044168     1.038350
      1.032531     1.026713     1.020894     1.015076     1.009257     1.003439     0.997620     0.991802     0.985983     0.980165
      0.974346     0.968528     0.962709     0.956891     0.951072     0.945254     0.939435     0.933617     0.927798     0.921980
      0.916161     0.910343     0.904524     0.898706     0.892887     0.887069     0.881251     0.875432     0.869614     0.863795
      0.857977     0.852158     0.846340     0.840521     0.834703     0.828884     0.823066     0.817247     0.811429     0.805610
      0.799792     0.793973     0.788155     0.782336     0.776518     0.770699     0.764881     0.759062     0.753244     0.747425
      0.741607     0.735788     0.729970     0.724151     0.718333     0.712514     0.706696     0.700877     0.695059     0.689240
      0.683422     0.677603     0.671785     0.665967     0.660148     0.654330     0.648511     0.642693     0.636874     0.631056
      0.625237     0.619419     0.613600     0.607782     0.601963     0.596145     0.590326     0.584508     0.578689     0.572871
      0.567052     0.561234     0.555415     0.549597     0.543778     0.537960     0.532141     0.526323     0.520504     0.514686
      0.508867     0.503049     0.497230     0.491412     0.485593     0.479775     0.473956     0.468138     0.462319     0.456501
      0.450682     0.444864     0.439045     0.433227     0.427408     0.421590     0.415771     0.409953     0.404134     0.398316
      0.392497     0.386679     0.380860     0.375042     0.369223     0.363405     0.357586     0.351767     0.345949     0.340130
      0.334312     0.328493     0.322675     0.316856     0.311038     0.305219     0.299401     0.293582     0.287764     0.281945
      0.276127     0.270308     0.264490     0.258671     0.252853     0.247034     0.241216     0.235397     0.229579     0.223760
      0.217942     0.212123     0.206305     0.200486
 NY phased data points follow
  -2.53103E-01  4.02677E-02 -5.66271E-01  1.81165E-01  1.17843E-01 -1.83079E-01  1.16765E-01 -1.33818E-01  1.67867E-02 -2.14456E-02
   2.76374E-01  5.81586E-01  7.98281E-01  2.65769E-01  5.57178E-01  6.75538E-01  3.21835E-01  4.73543E-01 -1.75231E-02  3.84512E-02
   2.12236E-02 -1.73312E-01 -2.28821E-01  2.37852E-01 -2.45702E-02  5.90272E-02  3.02575E-01 -2.66131E-01 -2.64500E-01  1.51000E-01
  -7.29029E-02 -5.29339E-01 -2.77182E-01 -4.23549E-01 -5.78691E-01 -6.58352E-01 -3.64795E-01 -5.05295E-01 -3.31590E-01 -1.50736E-01
  -6.01301E-02  2.01243E-01  4.56249E-01  9.34276E-01  7.43273E-01  5.53087E-01 -1.57818E-01  8.17941E-01  6.43451E-01  3.38960E-01
   5.48380E-01 -2.41581E-01  1.94062E-01 -2.59737E-01 -1.43295E-01 -2.36163E-01 -3.39152E-01 -3.00856E-01 -1.67159E-01 -1.24281E-01
  -9.09662E-01 -5.73590E-01 -1.02148E-01 -6.16032E-01 -4.48947E-01  2.85242E-01  2.55050E-01  9.78659E-01  1.39096E-01 -2.07112E-01
   3.96236E-01 -8.58576E-02 -4.24799E-03 -2.75560E-01 -1.59544E-01 -6.42653E-02  3.32956E-02 -3.38334E-01 -7.27860E-01 -6.60258E-01
  -3.65205E-01  6.03749E-02 -2.67568E-02 -3.39263E-01  6.20384E-02  1.24725E+00  3.56019E-01 -5.26840E-03  5.95076E-01  3.04222E-02
   2.34566E-01  3.91741E-01  1.27182E-01  4.54763E-01 -2.73225E-01 -3.73862E-01  5.72250E-01 -3.08443E-01 -4.62755E-01  1.44054E-01
   1.54043E-01 -2.82537E-01 -9.08137E-02  1.57382E-01  1.64009E-01  3.82515E-01  6.52207E-01  7.53367E-01 -7.49033E-02  9.06354E-01
   4.12408E-01  2.75371E-02  3.87327E-01  5.34301E-02  5.43431E-01  2.77402E-01  7.95088E-01  2.26969E-01  7.50253E-01  7.52304E-01
  -1.70112E-01  2.61150E-01 -2.66838E-01 -1.08234E-01 -2.89637E-01 -2.98599E-01  6.43662E-03 -1.32723E-01  2.62936E-03 -1.02594E+00
  -1.11817E+00 -4.58366E-01 -8.20229E-01 -2.52581E-01 -6.88789E-01 -4.32105E-01 -6.12064E-01 -1.49716E+00 -9.23653E-01 -1.13301E+00
  -2.76030E-01  2.14978E-01  7.29612E-02 -1.25614E-02  1.36926E-01  1.61557E-01 -5.70915E-02  2.96544E-01  6.99368E-01  3.68038E-01
   8.35139E-02  7.12497E-01  4.86043E-01  6.60942E-01  2.01195E-01 -3.80942E-02  2.59207E-01  2.96891E-01  8.20360E-01  6.62226E-01
   5.28232E-01  7.41418E-01  7.46196E-01  1.13560E+00  1.61857E+00  1.17662E+00  1.11058E+00  6.64048E-01 -2.82607E-01 -1.32085E+00
  -1.47772E+00 -6.82759E-01 -6.72433E-01 -8.54684E-01 -9.00992E-01 -7.44181E-01 -7.12054E-01 -6.71188E-01 -4.43091E-01 -5.24365E-01
  -3.58998E-01 -3.25864E-01 -2.96336E-01  3.81945E-01 -2.29548E-01 -4.70372E-01 -6.86108E-01 -2.45974E-01 -2.75406E-01 -5.76411E-01
   1.20210E-01 -7.25385E-01 -5.62298E-02 -6.55114E-01 -1.05922E-01  2.43576E-01 -7.72669E-01  3.78444E-02 -4.62423E-01 -5.86209E-02
   2.03544E-01 -9.72889E-02 -2.31910E-01  2.57706E-01  1.94273E-03 -4.09447E-01  5.41559E-02 -9.59934E-02  1.66731E-01 -1.62281E-01
  -7.70408E-01 -3.99679E-01 -8.21672E-02 -3.59009E-01 -2.30917E-01 -2.15469E-01 -2.33020E-01  1.42200E-01  4.05579E-01  4.70388E-02
  -5.21312E-01 -5.77996E-02  1.67905E-01 -1.63509E-01  4.18680E-01  6.65846E-01  4.30265E-01  1.95377E-01  5.27632E-01  6.02011E-01
   1.54878E-01  7.06700E-01  7.86369E-01  5.33245E-01 -8.12697E-02  2.06355E-01  4.21336E-01  8.15308E-02  9.08939E-02 -1.63724E-01
  -5.98142E-02  2.34726E-01 -1.87966E-01 -1.72507E-02  7.97982E-01 -4.51346E-01 -5.00142E-01  7.27788E-02  1.07574E-01  7.37374E-02
   1.17606E-01 -3.03169E-01 -7.40101E-02 -9.08238E-02 -5.03935E-01  2.39652E-01 -6.33384E-01  2.06955E-01 -2.72824E-01  1.46861E-02
   3.60305E-01  2.27432E-02  6.23953E-01 -2.13127E-01  4.65930E-01  3.57756E-01  4.60306E-01  4.10318E-01  1.88246E-02  3.32019E-02
   8.48903E-01  1.93670E-01 -2.08260E-01 -4.31723E-02 -3.21907E-01  4.54305E-01 -1.73880E-01 -1.59134E-01 -3.22887E-01  6.13420E-03
  -2.61492E-01 -5.59653E-01 -2.40358E-01 -6.95776E-02  4.02846E-01  8.99198E-01  6.85976E-01  9.25101E-01  1.45699E+00  1.87157E-01
   5.00121E-01  1.22051E-01  2.67500E-01  5.99262E-01 -1.86207E-01  4.06502E-01  3.98655E-01 -2.88125E-01 -1.31064E-01  1.55140E-03
   4.73688E-01  5.99899E-01  1.60807E-01  5.99662E-01  3.41062E-01  6.30856E-01  1.34043E-01  5.62197E-01  6.87082E-01  5.38962E-01
   1.00546E+00  1.74101E-01  3.80054E-01  6.85622E-02  3.46338E-01  2.57245E-01 -1.62768E-01 -5.56790E-01 -5.33814E-01  8.54179E-02
  -4.21799E-01 -6.35510E-01 -7.40994E-01 -8.53271E-01 -6.19056E-01 -3.95664E-01 -2.37655E-01  2.07746E-01  3.28577E-01  1.39309E-01
   2.09831E-01  1.43435E-01 -6.42454E-02 -1.01856E-01 -2.68032E-01 -3.44324E-01 -8.84581E-01 -7.37107E-01 -5.15675E-01 -8.34831E-01
  -1.29991E+00 -1.22430E+00 -1.49827E+00 -3.73112E+00 -2.48983E+00 -8.44268E-01 -6.11031E-01 -9.67918E-02 -4.18772E-01 -2.06543E-01
  -3.91077E-01  1.23545E-01  4.53327E-01  1.68935E-01  1.51071E-01 -1.05819E-01  2.06726E-01  6.53128E-01  5.26398E-01  1.92336E-01
  -4.14535E-01 -5.64480E-01 -1.70405E-01 -2.62662E-02  5.93811E-02  6.46452E-01  9.65417E-02  1.75409E-02  5.19255E-01 -2.08856E-01
   1.02169E-01  2.58154E-01  3.47931E-02  6.93944E-02  4.15368E-01  3.15679E-01  2.60560E-02 -2.79178E-03  6.25881E-01  4.06439E-01
  -6.73840E-02  6.06935E-01  2.01708E-01  5.33359E-01  3.36487E-01  3.18981E-01  3.95345E-01  1.76460E-01  3.99010E-01  3.11481E-01
   1.24140E-01  5.20151E-01  8.87421E-01  1.36325E-01  4.13963E-01  2.91982E-01  3.12789E-01  7.24611E-01  3.75555E-01  3.30293E-01
   9.09052E-01  6.65900E-01  5.82096E-01  4.25336E-01 -2.57053E-01 -6.42198E-02 -1.72882E-01 -7.24071E-02 -1.29820E-01 -3.19490E-01
  -2.02504E-01 -5.67325E-02 -1.79875E-01 -5.97735E-02 -5.16739E-01  3.31304E-02 -2.16833E-01 -6.39093E-01  1.43778E-01 -3.43328E-01
  -3.97866E-01 -5.62890E-01 -1.31446E-01 -2.85838E-01 -1.41127E-01 -6.15377E-01 -1.72331E-01 -4.90012E-02 -3.65083E-01  3.09702E-01
  -7.23493E-01 -3.58892E-01 -8.52222E-02  2.89498E-01 -3.12699E-02  2.81444E-01 -1.35639E-02  1.72787E-01  6.12308E-01 -1.70601E-01
   1.99162E-01 -2.99155E-01  1.31873E-01  2.23725E-01  4.90456E-01  4.84448E-02  1.39357E-01  6.43180E-01  5.89546E-01  1.92587E-01
  -7.59661E-01  4.29103E-01  7.68337E-01  1.83941E-01  2.87357E-01 -3.01210E-02 -4.04906E-01  1.29334E-01 -2.17098E-01 -1.03697E-01
   3.52442E-02  9.19016E-02  3.84492E-01 -4.66788E-01 -2.86080E-01 -4.35835E-01 -4.64865E-01 -2.74771E-01 -3.76674E-01 -1.98477E-01
  -4.79109E-01  1.65143E-01  1.25611E-01 -7.41275E-01 -1.93308E-02 -2.00710E-01 -6.69630E-01 -3.89876E-01 -5.68638E-01 -3.97171E-01
   1.23783E-01 -2.01255E-01 -4.00456E-01  2.71753E-01  1.25896E-01 -1.44526E-01 -1.95095E-01  1.85074E-01  4.94819E-01  5.22648E-01
  -5.01044E-02 -7.13498E-02 -4.51652E-02 -2.69876E-01  2.36516E-01 -2.54772E-01  4.99205E-02  3.12954E-01  2.49590E-01  1.59768E-01
   9.97277E-02  2.91787E-01  4.01077E-02  1.11869E-02  3.88802E-01  5.82973E-01  6.03180E-03  2.28387E-02  3.23631E-01  4.75670E-01
   4.81900E-01  7.98796E-02 -7.39315E-02  3.24621E-01  2.69025E-01  2.15877E-01  5.20556E-01  5.86055E-01 -2.09425E-02 -2.04673E-01
   2.74545E-01  1.25018E-01 -1.62856E-01 -4.35967E-01 -2.32000E-01 -7.09139E-01 -9.01268E-01 -1.16590E+00 -9.79909E-01 -3.73871E-01
  -6.84207E-01 -4.58322E-01 -6.95682E-01 -1.40152E-01 -3.91766E-01 -2.33038E-01  3.36483E-01 -5.53402E-01 -1.18757E-01 -7.45268E-01
  -7.69416E-01 -8.48441E-02 -3.35389E-01 -3.06528E-01 -5.99694E-01 -1.59198E-02 -1.01288E-01  2.62912E-01  1.90316E-01  5.03717E-02
   7.18664E-01 -5.27529E-02  8.48896E-04 -2.09252E-01 -4.77162E-02  1.83404E-01  1.93743E-01  4.04512E-02 -3.69112E-01 -1.07947E-01
   1.91108E-01  1.86192E-01  9.97121E-02  3.22293E-01 -3.76804E-01 -4.40663E-02 -1.10940E-01 -4.68536E-01  2.97309E-01  4.11312E-01
   1.17445E-01  3.69188E-01 -9.98354E-02 -1.82272E-01  5.29680E-01 -1.05502E-01 -2.29682E-01  4.36669E-02  2.70573E-01 -3.07354E-02
   4.31568E-01 -3.63330E-01 -4.93650E-01  3.26906E-01  3.49735E-02  4.52666E-01 -1.76717E-01  2.09541E-01  2.07812E-01  5.77990E-02
   3.01355E-02 -1.77950E-01 -2.72240E-01  3.49452E-01  2.20990E-01 -5.07472E-01  4.54345E-02 -2.03905E-01  2.55264E-01  3.06532E-01
   4.99032E-01 -1.17493E-01 -3.53882E-01  4.36546E-01  5.35196E-02  3.59584E-01  7.10879E-01 -1.75606E-01 -3.57340E-02  6.18520E-01
   4.23875E-03  9.32050E-03 -9.61761E-02 -2.58157E-01 -4.97753E-01 -1.52415E-01 -4.15988E-01 -4.70641E-01 -2.54109E-01  9.09911E-02
   5.90926E-01 -1.58165E-01  7.94745E-02  6.91332E-02  3.28015E-01  2.54842E-01  1.80274E-02 -3.42930E-01  1.47808E-01  5.08879E-01
   1.71667E-01  2.10979E-01 -4.36907E-01  1.48670E-01  1.67969E-01  5.00810E-01  3.23872E-01 -4.19673E-03  3.74712E-01 -1.83059E-01
  -1.46271E-01  1.78816E-01  2.63506E-01 -5.02675E-02 -2.54795E-01  1.19983E-01 -8.68805E-02 -9.29222E-02  1.37561E-01 -3.32412E-01
   4.96780E-01  1.14422E-01 -2.11917E-01  6.42292E-01
 NY points of the fit to the data follow
   1.79108E-01  1.65103E-01  1.49461E-01  1.35633E-01  1.27695E-01  1.26076E-01  1.33394E-01  1.53536E-01  1.78412E-01  2.42564E-01
   3.47257E-01  4.37032E-01  6.92602E-01  8.28378E-01  7.84160E-01  7.64381E-01  6.56054E-01  4.60404E-01  2.16732E-01  1.18538E-01
   9.80031E-02  3.80773E-02 -5.11671E-03 -4.28652E-02 -8.28321E-02 -1.13663E-01 -1.35454E-01 -1.52054E-01 -1.64961E-01 -1.78832E-01
  -1.94371E-01 -2.11791E-01 -2.31260E-01 -2.61569E-01 -3.02617E-01 -3.44834E-01 -3.53605E-01 -3.62054E-01 -2.73162E-01 -1.80981E-01
   3.71235E-02  3.22050E-01  5.26701E-01  6.16553E-01  5.94535E-01  5.84565E-01  5.07481E-01  4.14937E-01  3.17116E-01  2.56512E-01
   2.12832E-01  1.51606E-01  9.62230E-02  3.93136E-02 -1.67246E-02 -8.75199E-02 -1.63663E-01 -2.44493E-01 -3.20681E-01 -4.12626E-01
  -4.56556E-01 -5.02574E-01 -4.66443E-01 -2.51810E-01 -1.49967E-01  2.61674E-02  2.68213E-01  4.05677E-01  4.96262E-01  5.25843E-01
   5.27539E-01  3.98703E-01  2.44195E-01  1.56025E-01  4.12017E-02 -8.46913E-02 -2.47132E-01 -3.80894E-01 -4.83363E-01 -6.39954E-01
  -4.93656E-01 -7.99888E-02  1.80711E-01  3.12211E-01  4.84335E-01  6.58544E-01  6.37940E-01  5.08807E-01  4.57356E-01  4.22790E-01
   3.71613E-01  3.34272E-01  2.89556E-01  2.29474E-01  1.59424E-01  4.99028E-02 -4.07116E-02 -2.04526E-01 -3.11986E-01 -3.73654E-01
  -3.48752E-01 -1.62588E-01  4.28928E-02  2.52501E-01  3.49549E-01  3.81433E-01  3.82385E-01  3.70744E-01  3.76693E-01  3.73512E-01
   3.69582E-01  3.66141E-01  3.59797E-01  3.52055E-01  3.44236E-01  3.37171E-01  3.29277E-01  3.11537E-01  2.95826E-01  2.35273E-01
   1.91463E-01  1.07342E-01 -6.07412E-02 -1.09119E-01 -1.59349E-01 -3.10962E-01 -3.36621E-01 -4.39866E-01 -5.15356E-01 -6.49901E-01
  -7.51510E-01 -6.42318E-01 -5.72331E-01 -3.67707E-01 -4.33174E-01 -4.13824E-01 -6.17297E-01 -1.17485E+00 -1.20990E+00 -7.65406E-01
  -2.44623E-01 -1.29709E-01 -1.25884E-01 -1.08189E-02  5.23623E-02  9.91762E-02  1.38707E-01  1.71778E-01  2.00888E-01  2.25252E-01
   2.47653E-01  2.69364E-01  2.92057E-01  3.14461E-01  3.37723E-01  3.65530E-01  3.95777E-01  4.29779E-01  4.69761E-01  5.15912E-01
   5.75125E-01  6.64454E-01  7.95351E-01  8.60317E-01  1.02390E+00  8.11437E-01  8.05167E-01  5.05594E-01 -6.84106E-01 -1.51064E+00
  -1.45461E+00 -8.53021E-01 -6.81852E-01 -7.47011E-01 -6.55217E-01 -5.93387E-01 -5.40663E-01 -4.85918E-01 -4.51042E-01 -4.32653E-01
  -4.26135E-01 -3.95588E-01 -3.62276E-01 -3.44155E-01 -3.34483E-01 -3.31583E-01 -3.19873E-01 -3.07732E-01 -2.87502E-01 -2.71220E-01
  -2.60829E-01 -2.46413E-01 -2.27032E-01 -2.08616E-01 -1.92551E-01 -1.76642E-01 -1.61718E-01 -1.46236E-01 -1.31100E-01 -1.14065E-01
  -1.00948E-01 -8.88055E-02 -7.22004E-02 -6.60487E-02 -7.07143E-02 -7.80254E-02 -7.37566E-02 -5.49916E-02 -5.18917E-02 -7.32406E-02
  -9.55407E-02 -9.88073E-02 -8.54140E-02 -7.53152E-02 -6.93142E-02 -6.11027E-02 -5.40562E-02 -4.55976E-02 -4.06608E-02 -4.07400E-02
  -2.68497E-02 -8.82975E-04  6.42628E-02  1.21731E-01  1.93142E-01  3.36988E-01  4.41884E-01  4.50880E-01  3.71538E-01  3.51356E-01
   5.19688E-01  6.07469E-01  4.23613E-01  1.38349E-01 -2.03568E-02 -4.05816E-02 -6.76451E-02 -1.06123E-01 -1.26148E-01 -1.44577E-01
  -1.60485E-01 -1.75165E-01 -1.86021E-01 -1.92272E-01 -1.98874E-01 -2.01257E-01 -2.11659E-01 -2.13227E-01 -2.15392E-01 -2.19408E-01
  -2.19997E-01 -2.36763E-01 -2.43504E-01 -2.80757E-01 -2.60146E-01 -2.51490E-01 -2.24156E-01 -2.45190E-02  3.99679E-02  4.26178E-02
   9.25894E-02  1.85582E-01  2.56959E-01  1.49265E-01  1.60865E-01  2.13061E-01  2.29965E-01  2.40420E-01  2.17572E-01  2.51007E-01
   2.38606E-01  2.01223E-01  1.40108E-01  6.17177E-02 -2.48584E-04 -7.37758E-02 -1.46675E-01 -2.21769E-01 -3.25925E-01 -4.01543E-01
  -4.82621E-01 -5.35873E-01 -4.50459E-01 -3.06215E-01 -3.28369E-02  2.70274E-01  4.80162E-01  6.13491E-01  6.25349E-01  5.71217E-01
   4.80793E-01  3.94573E-01  3.62950E-01  3.28142E-01  3.06653E-01  3.18664E-01  3.30153E-01  3.43757E-01  3.41192E-01  3.33286E-01
   3.24622E-01  3.14384E-01  3.06659E-01  2.95665E-01  2.84978E-01  2.73859E-01  2.55893E-01  2.35707E-01  2.11184E-01  1.75858E-01
   1.44584E-01  1.04809E-01  6.18170E-02  2.40723E-02 -4.08461E-02 -9.75455E-02 -1.99372E-01 -2.97842E-01 -4.15753E-01 -4.98386E-01
  -5.54732E-01 -5.99518E-01 -5.76822E-01 -5.30223E-01 -4.26378E-01 -3.06427E-01 -1.57479E-01 -3.64483E-02  4.47835E-02  5.74347E-02
   8.29360E-03 -4.62468E-02 -1.41071E-01 -1.92002E-01 -2.60658E-01 -2.75668E-01 -3.01473E-01 -3.84008E-01 -4.41271E-01 -6.08856E-01
  -1.01457E+00 -1.34025E+00 -2.22130E+00 -3.10891E+00 -2.64543E+00 -1.37063E+00 -4.52203E-01 -3.91477E-01 -3.74052E-01 -1.80814E-01
  -1.03344E-01 -5.80744E-02 -2.52292E-02 -3.71376E-04  1.71396E-02  2.84305E-02  3.95395E-02  4.35934E-02  4.00930E-02  3.38882E-02
   1.68057E-02  4.34024E-03 -1.11068E-02 -2.21996E-02 -2.60463E-02 -2.48121E-02 -1.20706E-02  1.95373E-03  1.85987E-02  3.31640E-02
   4.70591E-02  6.05018E-02  7.28588E-02  8.59995E-02  9.49215E-02  1.01524E-01  1.07538E-01  1.15322E-01  1.23121E-01  1.30046E-01
   1.35357E-01  1.39569E-01  1.45220E-01  1.50763E-01  1.57022E-01  1.60836E-01  1.64412E-01  1.65958E-01  1.69747E-01  1.76471E-01
   1.82599E-01  1.88451E-01  1.91034E-01  1.91225E-01  1.87803E-01  1.82141E-01  1.76792E-01  1.71816E-01  1.66213E-01  1.58026E-01
   1.47451E-01  1.34718E-01  1.22670E-01  1.10197E-01  9.61184E-02  8.24903E-02  7.13029E-02  6.25385E-02  5.06176E-02  3.92133E-02
   3.00609E-02  2.18339E-02  1.50992E-02  8.64307E-03  2.49946E-03 -3.30070E-03 -8.92836E-03 -1.40276E-02 -1.85520E-02 -2.24818E-02
  -2.43519E-02 -2.59374E-02 -2.78417E-02 -2.63819E-02 -2.21122E-02 -1.66455E-02 -1.06106E-02 -2.22309E-03  7.65681E-03  1.79935E-02
   2.97283E-02  4.26181E-02  5.21002E-02  6.56548E-02  8.89954E-02  1.07738E-01  1.19208E-01  1.23025E-01  1.23037E-01  1.25962E-01
   1.37708E-01  1.59148E-01  1.79838E-01  2.00242E-01  2.21414E-01  2.41766E-01  2.62254E-01  2.80910E-01  2.95990E-01  3.05592E-01
   3.11224E-01  3.13249E-01  3.13309E-01  3.11285E-01  3.06571E-01  2.98670E-01  2.87102E-01  2.71424E-01  2.51143E-01  2.30251E-01
   2.11338E-01  1.94140E-01  1.75581E-01  1.57613E-01  1.38921E-01  1.21570E-01  1.08137E-01  9.59444E-02  8.35107E-02  7.10651E-02
   6.17550E-02  5.43391E-02  4.77091E-02  4.24482E-02  3.90273E-02  4.05139E-02  4.53179E-02  4.98833E-02  5.53708E-02  6.28621E-02
   7.20272E-02  8.08519E-02  9.08568E-02  1.01276E-01  1.08962E-01  1.14350E-01  1.18847E-01  1.23211E-01  1.26146E-01  1.30405E-01
   1.36429E-01  1.38276E-01  1.37043E-01  1.32970E-01  1.28608E-01  1.25247E-01  1.19040E-01  1.11824E-01  1.04641E-01  9.98344E-02
   9.48351E-02  8.74091E-02  8.01207E-02  7.31438E-02  6.63850E-02  5.92037E-02  5.15151E-02  4.37749E-02  3.79544E-02  3.41039E-02
   2.90023E-02  2.08372E-02  1.16588E-02  2.65184E-03 -8.85858E-03 -2.33893E-02 -3.89530E-02 -5.50103E-02 -7.21360E-02 -9.44876E-02
  -1.20917E-01 -1.51672E-01 -1.84825E-01 -2.16036E-01 -2.45643E-01 -2.74780E-01 -3.03320E-01 -3.28050E-01 -3.48669E-01 -3.66650E-01
  -3.82274E-01 -3.90955E-01 -3.90752E-01 -3.87231E-01 -3.83832E-01 -3.76720E-01 -3.63719E-01 -3.48605E-01 -3.35599E-01 -3.23708E-01
  -3.11027E-01 -2.98326E-01 -2.82145E-01 -2.63628E-01 -2.45225E-01 -2.25787E-01 -2.05717E-01 -1.84413E-01 -1.65573E-01 -1.46694E-01
  -1.27922E-01 -1.11551E-01 -9.42342E-02 -7.70243E-02 -6.23570E-02 -5.04066E-02 -3.93317E-02 -2.57117E-02 -1.21228E-02 -5.28602E-03
   3.89220E-04  8.58101E-03  1.65589E-02  2.25496E-02  2.58126E-02  2.93457E-02  3.23570E-02  3.53128E-02  3.86203E-02  3.92102E-02
   4.08902E-02  4.57208E-02  5.04375E-02  5.38694E-02  5.70504E-02  6.06414E-02  6.10605E-02  6.01322E-02  6.11509E-02  6.10067E-02
   6.03702E-02  6.07728E-02  6.01901E-02  5.93720E-02  5.98640E-02  6.06427E-02  6.10669E-02  6.11642E-02  6.19732E-02  6.30513E-02
   5.99431E-02  5.31091E-02  5.03742E-02  5.31985E-02  5.62776E-02  5.43620E-02  5.20704E-02  5.33258E-02  5.22971E-02  4.91961E-02
   4.75279E-02  5.03075E-02  5.40922E-02  5.52098E-02  5.57630E-02  5.69434E-02  5.91974E-02  6.20989E-02  6.29576E-02  6.34591E-02
   6.38834E-02  6.50957E-02  6.42884E-02  6.06463E-02  5.99971E-02  6.18457E-02  6.44262E-02  6.64141E-02  6.78876E-02  6.99277E-02
   7.13821E-02  7.15169E-02  7.47824E-02  7.97615E-02  8.31079E-02  8.36540E-02  8.04547E-02  7.77562E-02  7.67630E-02  7.85472E-02
   8.15257E-02  8.11169E-02  7.87076E-02  7.72749E-02  7.75996E-02  7.86540E-02  8.01113E-02  7.96498E-02  7.79582E-02  8.00403E-02
   8.44414E-02  8.53426E-02  8.40600E-02  8.43451E-02  8.68379E-02  8.94972E-02  9.13255E-02  9.45671E-02  1.01122E-01  1.08257E-01
   1.12972E-01  1.14244E-01  1.16883E-01  1.20161E-01
 NY background values follow
     1.366E-01    1.362E-01    1.359E-01    1.356E-01    1.352E-01    1.349E-01    1.346E-01    1.342E-01    1.339E-01    1.336E-01
     1.333E-01    1.329E-01    1.326E-01    1.323E-01    1.319E-01    1.316E-01    1.313E-01    1.309E-01    1.306E-01    1.303E-01
     1.300E-01    1.296E-01    1.293E-01    1.290E-01    1.286E-01    1.283E-01    1.280E-01    1.276E-01    1.273E-01    1.270E-01
     1.266E-01    1.263E-01    1.260E-01    1.257E-01    1.253E-01    1.250E-01    1.247E-01    1.243E-01    1.240E-01    1.237E-01
     1.233E-01    1.230E-01    1.227E-01    1.223E-01    1.220E-01    1.217E-01    1.213E-01    1.210E-01    1.207E-01    1.203E-01
     1.200E-01    1.197E-01    1.193E-01    1.190E-01    1.187E-01    1.184E-01    1.180E-01    1.177E-01    1.174E-01    1.170E-01
     1.167E-01    1.164E-01    1.160E-01    1.157E-01    1.154E-01    1.150E-01    1.147E-01    1.144E-01    1.140E-01    1.137E-01
