 
 $NMID
 ID=''
 FMTDAT='(2E13.5)'
 TRAMP=   1.00000E+0
 VOLUME=   1.00000E+0
 $END
  -7.04210E+3  -7.64012E+3
  -1.21820E+4  -2.43346E+4
  -1.66168E+4  -2.21884E+4
  -1.59336E+4  -2.06883E+4
  -1.61776E+4  -2.20488E+4
  -1.72488E+4  -2.15059E+4
  -1.65111E+4  -2.08368E+4
  -1.64672E+4  -2.12906E+4
  -1.70924E+4  -2.08963E+4
  -1.66583E+4  -2.04019E+4
  -1.63142E+4  -2.06619E+4
  -1.67561E+4  -2.00319E+4
  -1.66030E+4  -1.95573E+4
  -1.63458E+4  -1.98290E+4
  -1.64744E+4  -1.92777E+4
  -1.62700E+4  -1.88491E+4
  -1.61749E+4  -1.88719E+4
  -1.63392E+4  -1.84874E+4
  -1.62072E+4  -1.80353E+4
  -1.61283E+4  -1.80340E+4
  -1.62975E+4  -1.76041E+4
  -1.63144E+4  -1.71998E+4
  -1.63203E+4  -1.72423E+4
  -1.63734E+4  -1.71045E+4
  -1.62538E+4  -1.66729E+4
  -1.63468E+4  -1.65422E+4
  -1.64023E+4  -1.64247E+4
  -1.61607E+4  -1.63235E+4
  -1.60798E+4  -1.62303E+4
  -1.59116E+4  -1.61182E+4
  -1.58392E+4  -1.57803E+4
  -1.57133E+4  -1.57496E+4
  -1.56087E+4  -1.57079E+4
  -1.54188E+4  -1.54430E+4
  -1.53634E+4  -1.52655E+4
  -1.52557E+4  -1.50526E+4
  -1.51381E+4  -1.48116E+4
  -1.50350E+4  -1.45501E+4
  -1.50881E+4  -1.43673E+4
  -1.49787E+4  -1.41577E+4
  -1.49176E+4  -1.39686E+4
  -1.47986E+4  -1.38854E+4
  -1.46642E+4  -1.37158E+4
  -1.46451E+4  -1.34597E+4
  -1.45237E+4  -1.33123E+4
  -1.44455E+4  -1.31719E+4
  -1.43963E+4  -1.31046E+4
  -1.43315E+4  -1.29310E+4
  -1.42632E+4  -1.27493E+4
  -1.41441E+4  -1.26573E+4
  -1.39978E+4  -1.24887E+4
  -1.38746E+4  -1.23043E+4
  -1.37913E+4  -1.22006E+4
  -1.37242E+4  -1.20150E+4
  -1.35819E+4  -1.18775E+4
  -1.34008E+4  -1.16950E+4
  -1.33172E+4  -1.16378E+4
  -1.31849E+4  -1.13977E+4
  -1.29960E+4  -1.13025E+4
  -1.28215E+4  -1.10371E+4
  -1.27382E+4  -1.08737E+4
  -1.26744E+4  -1.07104E+4
  -1.26127E+4  -1.04507E+4
  -1.24731E+4  -1.03651E+4
  -1.23587E+4  -1.01868E+4
  -1.22392E+4  -9.98030E+3
  -1.21588E+4  -9.79916E+3
  -1.21710E+4  -9.70700E+3
  -1.19553E+4  -9.54195E+3
  -1.19772E+4  -9.32065E+3
  -1.18485E+4  -9.16237E+3
  -1.18217E+4  -9.09563E+3
  -1.16864E+4  -8.90963E+3
  -1.16365E+4  -8.69014E+3
  -1.15146E+4  -8.54652E+3
  -1.13492E+4  -8.43885E+3
  -1.14217E+4  -8.25940E+3
  -1.12382E+4  -8.13791E+3
  -1.12204E+4  -7.94105E+3
  -1.11150E+4  -7.76596E+3
  -1.10031E+4  -7.65341E+3
  -1.08819E+4  -7.54582E+3
  -1.06998E+4  -7.41156E+3
  -1.06840E+4  -7.23621E+3
  -1.05781E+4  -7.21230E+3
  -1.04603E+4  -7.05480E+3
  -1.02961E+4  -6.85607E+3
  -1.02291E+4  -6.73501E+3
  -1.01326E+4  -6.43897E+3
  -1.00082E+4  -6.35212E+3
  -9.99417E+3  -6.22185E+3
  -9.82370E+3  -5.98780E+3
  -9.82355E+3  -5.85793E+3
  -9.74908E+3  -5.69560E+3
  -9.59176E+3  -5.54513E+3
  -9.53421E+3  -5.33394E+3
  -9.50530E+3  -5.14565E+3
  -9.44385E+3  -4.96971E+3
  -9.35052E+3  -4.84857E+3
  -9.30590E+3  -4.71652E+3
  -9.22145E+3  -4.48353E+3
  -9.18805E+3  -4.27922E+3
  -9.11774E+3  -4.17336E+3
  -9.13639E+3  -4.06860E+3
  -9.07487E+3  -3.86033E+3
  -8.99324E+3  -3.74602E+3
  -8.83803E+3  -3.58560E+3
  -8.92279E+3  -3.44869E+3
  -8.86298E+3  -3.27394E+3
  -8.78482E+3  -3.18896E+3
  -8.85559E+3  -3.02634E+3
  -8.78974E+3  -2.92782E+3
  -8.77303E+3  -2.74294E+3
  -8.72623E+3  -2.63545E+3
  -8.78308E+3  -2.59438E+3
  -8.67352E+3  -2.46394E+3
  -8.70133E+3  -2.35884E+3
  -8.62282E+3  -2.28278E+3
  -8.61375E+3  -2.15649E+3
  -8.66677E+3  -2.11387E+3
  -8.61077E+3  -2.03728E+3
  -8.54701E+3  -1.92061E+3
  -8.59497E+3  -1.83051E+3
  -8.53258E+3  -1.79039E+3
  -8.52866E+3  -1.79588E+3
  -8.48382E+3  -1.69917E+3
  -8.44562E+3  -1.65417E+3
  -8.40592E+3  -1.56378E+3
  -8.39147E+3  -1.52550E+3
  -8.35204E+3  -1.46681E+3
  -8.32160E+3  -1.53915E+3
  -8.25072E+3  -1.46191E+3
  -8.24469E+3  -1.38936E+3
  -8.15013E+3  -1.33321E+3
  -8.14833E+3  -1.26897E+3
  -8.08163E+3  -1.25940E+3
  -8.01253E+3  -1.29083E+3
  -7.98244E+3  -1.18632E+3
  -7.92458E+3  -1.16511E+3
  -7.84520E+3  -1.17212E+3
  -7.81681E+3  -1.08425E+3
  -7.70652E+3  -1.06772E+3
  -7.72316E+3  -1.13194E+3
  -7.63903E+3  -1.03601E+3
  -7.59292E+3  -1.02580E+3
  -7.49268E+3  -9.91817E+2
  -7.42787E+3  -9.91675E+2
  -7.39681E+3  -9.77578E+2
  -7.29682E+3  -9.70882E+2
  -7.29759E+3  -8.64317E+2
  -7.23266E+3  -8.98048E+2
  -7.02963E+3  -8.41060E+2
  -6.98677E+3  -9.03107E+2
  -6.97070E+3  -7.66020E+2
  -6.89163E+3  -7.82363E+2
  -6.82673E+3  -7.55507E+2
  -6.73652E+3  -6.86939E+2
  -6.75114E+3  -6.92072E+2
  -6.57145E+3  -6.66461E+2
  -6.59991E+3  -5.73668E+2
  -6.51698E+3  -6.12917E+2
  -6.51582E+3  -5.26926E+2
  -6.38225E+3  -5.05228E+2
  -6.35985E+3  -5.21451E+2
  -6.26679E+3  -4.81641E+2
  -6.19365E+3  -4.54908E+2
  -6.14861E+3  -4.92504E+2
  -6.08523E+3  -3.54321E+2
  -5.96066E+3  -4.22162E+2
  -5.98597E+3  -3.53520E+2
  -5.96398E+3  -4.14390E+2
  -5.91847E+3  -3.19929E+2
  -5.81316E+3  -2.89874E+2
  -5.75718E+3  -3.16171E+2
  -5.63943E+3  -2.44332E+2
  -5.55005E+3  -2.64584E+2
  -5.59613E+3  -2.84496E+2
  -5.51234E+3  -2.07444E+2
  -5.49953E+3  -2.06459E+2
  -5.34263E+3  -3.03000E+2
  -5.35688E+3  -2.56940E+2
  -5.27042E+3  -2.63037E+2
  -5.24789E+3  -1.51318E+2
  -5.16929E+3  -1.92642E+2
  -5.12455E+3  -2.15545E+2
  -5.05383E+3  -1.68088E+2
  -5.04038E+3  -2.12676E+2
  -4.97300E+3  -2.04021E+2
  -4.83716E+3  -1.82999E+2
  -4.79286E+3  -1.62421E+2
  -4.82229E+3  -6.65063E+1
  -4.73760E+3  -8.59058E+1
  -4.66985E+3  -1.24338E+2
  -4.59450E+3  -1.41356E+2
  -4.59618E+3  -1.27633E+2
  -4.50866E+3  -1.26931E+2
  -4.45465E+3  -5.35341E+1
  -4.37191E+3  -1.51459E+2
  -4.37950E+3  -6.17783E+1
  -4.30529E+3  -5.87937E+1
  -4.27354E+3  -7.61688E+1
  -4.19659E+3  -9.13530E+1
  -4.13600E+3  -7.09453E+1
  -4.09384E+3  -2.01359E+1
  -3.98558E+3  -3.89657E+1
  -3.95036E+3  -2.08576E+1
  -3.90788E+3  -2.44006E+1
  -3.89928E+3  -9.19664E+1
  -3.75601E+3  -2.53694E+1
  -3.78595E+3  -8.22868E+1
  -3.77162E+3  -7.22177E+1
  -3.63590E+3  -3.29481E+1
  -3.56799E+3  -3.72705E+1
  -3.57527E+3   1.11284E+1
  -3.56670E+3  -1.16355E+2
  -3.52819E+3  -2.67088E+1
  -3.40656E+3  -3.16440E+1
  -3.40118E+3  -9.05544E+1
  -3.37419E+3  -6.26047E+1
  -3.28093E+3  -5.36601E+1
  -3.21305E+3  -3.71243E+0
  -3.23807E+3  -5.38947E+1
  -3.18455E+3  -1.67977E+1
  -3.08281E+3  -5.17245E+1
  -3.06363E+3  -2.61389E+1
  -3.04967E+3   1.78278E+1
  -2.98813E+3   5.34527E+1
  -2.95602E+3   2.70952E+1
  -2.97820E+3  -6.39407E+1
  -2.92122E+3  -3.48669E+1
  -2.91750E+3  -4.99195E+1
  -2.75142E+3  -5.27679E+1
  -2.74881E+3  -4.95351E+1
  -2.71832E+3  -3.13900E+1
  -2.70101E+3  -6.81946E+1
  -2.61317E+3  -7.46183E+1
  -2.59927E+3  -1.24262E+1
  -2.64317E+3   4.65321E+1
  -2.53848E+3   5.56960E+1
  -2.55405E+3  -1.51473E+1
  -2.47248E+3  -7.32659E+1
  -2.44937E+3   1.29936E+1
  -2.46261E+3   1.58229E+1
  -2.38658E+3  -4.93550E+1
  -2.30370E+3  -4.20792E+1
  -2.26288E+3   8.12727E-1
  -2.22220E+3  -9.09877E+1
  -2.17492E+3  -1.95313E+1
  -2.23340E+3  -5.40997E+1
  -2.20933E+3  -4.52999E+1
  -2.13185E+3  -3.66686E+1
  -2.20272E+3  -4.15958E+1
  -2.07125E+3  -1.64084E+1
  -2.10634E+3  -3.03062E+1
  -2.02681E+3  -5.39432E+1
  -2.00255E+3  -2.75246E+1
  -1.96464E+3   1.82450E+1
  -1.96673E+3  -3.55120E+1
  -1.94095E+3  -3.73758E+1
  -1.90835E+3  -3.61951E+0
  -1.91455E+3   3.41166E-1
  -1.78763E+3   3.42308E+1
  -1.82908E+3  -4.07805E+1
  -1.78781E+3  -7.22262E+0
  -1.78571E+3   3.27126E+1
  -1.80605E+3   2.99411E+1
  -1.71486E+3   3.91748E+1
  -1.70517E+3  -1.31618E+1
  -1.60362E+3  -1.53049E+1
  -1.61777E+3   2.33830E+1
  -1.56572E+3   3.30621E+0
  -1.55848E+3   3.24149E+1
  -1.54308E+3   1.93696E+1
  -1.54146E+3  -1.56831E+1
  -1.51988E+3   6.11710E+1
  -1.48133E+3  -2.01449E+1
  -1.46142E+3   2.59876E+1
  -1.44466E+3   6.84435E+1
  -1.38843E+3   4.26612E+1
  -1.36968E+3   7.61505E+1
  -1.36733E+3   3.63116E+1
  -1.36176E+3   8.57799E+1
  -1.30861E+3   8.93993E+1
  -1.25848E+3   6.15245E+1
  -1.24098E+3   4.72515E+1
  -1.26877E+3   4.99444E+1
  -1.27451E+3   9.07723E+1
  -1.17892E+3   3.24690E+1
  -1.26032E+3   7.25260E+1
  -1.18273E+3   4.35431E+1
  -1.11916E+3   1.08168E+2
  -1.09173E+3   8.28839E+1
  -1.10411E+3   9.44601E+1
  -1.02553E+3   9.73581E+1
  -1.08464E+3   1.09990E+2
  -1.05735E+3   9.11747E+1
  -1.04935E+3   1.41399E+2
  -1.03011E+3   1.30088E+2
  -1.02936E+3   8.42671E+1
  -9.95924E+2   9.61837E+1
  -9.48390E+2   9.39514E+1
  -9.28992E+2   1.43347E+2
  -8.86748E+2   1.28444E+2
  -8.73573E+2   1.11265E+2
  -8.62176E+2   1.44537E+2
  -8.95219E+2   9.40107E+1
  -8.85548E+2   1.23328E+2
  -8.26373E+2   1.54086E+2
  -8.40753E+2   9.30665E+1
  -8.21235E+2   5.58367E+1
  -7.06571E+2   1.21494E+2
  -7.50398E+2   1.45709E+2
  -7.72407E+2   1.30428E+2
  -7.32458E+2   6.81037E+1
  -7.37491E+2   1.26226E+2
  -6.90867E+2   1.54006E+2
  -6.80268E+2   1.04058E+2
  -6.77973E+2   1.73468E+2
  -5.86245E+2   1.56961E+2
  -6.65130E+2   1.30852E+2
  -6.48958E+2   1.35286E+2
  -6.42683E+2   7.55135E+1
  -6.37919E+2   1.42716E+2
  -5.62558E+2   8.68680E+1
  -5.74535E+2   1.31707E+2
  -5.34181E+2   1.37367E+2
  -5.40419E+2   8.44827E+1
  -5.82407E+2   1.68058E+2
  -5.98879E+2   1.20596E+2
  -5.37566E+2   5.40476E+1
  -4.84016E+2   9.56523E+1
  -4.73430E+2   1.31919E+2
  -4.90188E+2   1.66276E+2
  -4.21677E+2   1.79264E+2
  -4.35624E+2   1.79057E+2
  -4.04643E+2   1.79698E+2
  -4.40896E+2   2.01509E+2
  -3.96995E+2   1.82582E+2
  -4.08970E+2   2.03756E+2
  -3.65730E+2   1.92300E+2
  -3.57242E+2   2.21092E+2
  -3.77206E+2   1.31426E+2
  -2.99995E+2   2.07870E+2
  -3.26392E+2   1.68063E+2
  -2.98644E+2   2.69611E+2
  -3.46813E+2   1.80974E+2
  -3.65946E+2   1.72275E+2
  -3.15297E+2   2.14760E+2
  -2.85299E+2   2.21198E+2
  -2.80560E+2   1.77699E+2
  -2.62701E+2   1.98798E+2
  -2.59774E+2   1.87524E+2
  -2.28967E+2   2.69022E+2
  -2.98513E+2   2.57549E+2
  -3.05587E+2   2.60278E+2
  -2.57386E+2   2.33401E+2
  -2.25163E+2   2.62856E+2
  -2.20356E+2   2.10756E+2
  -1.98842E+2   1.92441E+2
  -2.29893E+2   2.54365E+2
  -1.31226E+2   1.65694E+2
  -2.12768E+2   2.45750E+2
  -1.50381E+2   1.68353E+2
  -1.90893E+2   2.03043E+2
  -1.33425E+2   2.48359E+2
  -1.05912E+2   2.20851E+2
  -1.86926E+2   1.58515E+2
