 LCModel (Version 6.3-1N) Copyright: S.W. Provencher.          Ref.: Magn. Reson. Med. 30:672-679 (1993).                
 Slice_N1@19_11  02-Jun-2023 14:36:42
 27 lines in following concentration table = NCONC+1
    Conc.  %SD /Cr+PCr  Metabolite                                         
 1.11E-06  29% 1.4E-04 Mac                                                 
 1.62E-02  64%   2.097 Cr                                                  
 4.56E-02  24%   5.903 PCr                                                 
 7.01E-02  11%   9.062 Ins                                                 
 7.51E-02   8%   9.715 NAA                                                 
 6.49E-02  11%   8.389 Tau                                                 
 9.80E-03  50%   1.267 PCho                                                
 4.80E-03  98%   0.621 GPC                                                 
 8.00E-02  11%  10.341 Glu                                                 
 2.17E-02  30%   2.808 Gln                                                 
    0.000 999%   0.000 Ala                                                 
 4.77E-03 234%   0.617 Asc                                                 
 1.57E-02  43%   2.031 Asp                                                 
 9.62E-03  38%   1.244 GABA                                                
 7.18E-03  61%   0.928 Glc                                                 
 1.51E-02  25%   1.957 GSH                                                 
 7.52E-03  87%   0.973 Lac                                                 
    0.000 999%   0.000 NAAG                                                
    0.000 999%   0.000 PE                                                  
 1.46E-02  13%   1.888 GPC+PCho                                            
 7.51E-02   8%   9.715 NAA+NAAG                                            
    0.102  11%  13.149 Glu+Gln                                             
 6.19E-02  10%   8.000 Cr+PCr                                              
 7.51E-02   8%   9.715 NAA+NAAG                                            
 6.19E-02  10%   8.000 Cr+PCr                                              
    0.102  11%  13.149 Glu+Gln                                             
   6 lines in following misc. output table
  FWHM = 0.035 ppm    S/N =   4                                            
  Data shift =-0.012 ppm                                                   
  Ph: -63 deg     -11.0 deg/ppm                                            
  alphaB,S = 5.2E-01,   1.7E+01                                            
   18 spline knots.   Ns = 7(1)                                            
  ( 5) 3 infls.   ( 3) 2 extrs.                                            
  654 points on ppm-axis = NY
      4.000000     3.994181     3.988363     3.982544     3.976726     3.970907     3.965088     3.959270     3.953451     3.947633
      3.941814     3.935995     3.930177     3.924358     3.918540     3.912721     3.906902     3.901084     3.895265     3.889446
      3.883628     3.877809     3.871991     3.866172     3.860353     3.854535     3.848716     3.842898     3.837079     3.831260
      3.825442     3.819623     3.813805     3.807986     3.802167     3.796349     3.790530     3.784712     3.778893     3.773074
      3.767256     3.761437     3.755619     3.749800     3.743981     3.738163     3.732344     3.726526     3.720707     3.714888
      3.709070     3.703251     3.697433     3.691614     3.685795     3.679977     3.674158     3.668339     3.662521     3.656702
      3.650884     3.645065     3.639246     3.633428     3.627609     3.621791     3.615972     3.610153     3.604335     3.598516
      3.592698     3.586879     3.581060     3.575242     3.569423     3.563605     3.557786     3.551967     3.546149     3.540330
      3.534512     3.528693     3.522874     3.517056     3.511237     3.505419     3.499600     3.493781     3.487963     3.482144
      3.476326     3.470507     3.464688     3.458870     3.453051     3.447232     3.441414     3.435595     3.429777     3.423958
      3.418139     3.412321     3.406502     3.400684     3.394865     3.389046     3.383228     3.377409     3.371591     3.365772
      3.359953     3.354135     3.348316     3.342498     3.336679     3.330860     3.325042     3.319223     3.313405     3.307586
      3.301767     3.295949     3.290130     3.284312     3.278493     3.272674     3.266856     3.261037     3.255219     3.249400
      3.243581     3.237763     3.231944     3.226125     3.220307     3.214488     3.208670     3.202851     3.197032     3.191214
      3.185395     3.179577     3.173758     3.167939     3.162121     3.156302     3.150484     3.144665     3.138846     3.133028
      3.127209     3.121391     3.115572     3.109753     3.103935     3.098116     3.092298     3.086479     3.080660     3.074842
      3.069023     3.063205     3.057386     3.051567     3.045749     3.039930     3.034111     3.028293     3.022474     3.016656
      3.010837     3.005018     2.999200     2.993381     2.987563     2.981744     2.975925     2.970107     2.964288     2.958470
      2.952651     2.946832     2.941014     2.935195     2.929377     2.923558     2.917739     2.911921     2.906102     2.900284
      2.894465     2.888646     2.882828     2.877009     2.871191     2.865372     2.859553     2.853735     2.847916     2.842098
      2.836279     2.830460     2.824642     2.818823     2.813004     2.807186     2.801367     2.795549     2.789730     2.783911
      2.778093     2.772274     2.766456     2.760637     2.754818     2.749000     2.743181     2.737363     2.731544     2.725725
      2.719907     2.714088     2.708270     2.702451     2.696632     2.690814     2.684995     2.679177     2.673358     2.667539
      2.661721     2.655902     2.650084     2.644265     2.638446     2.632628     2.626809     2.620991     2.615172     2.609353
      2.603535     2.597716     2.591897     2.586079     2.580260     2.574442     2.568623     2.562804     2.556986     2.551167
      2.545349     2.539530     2.533711     2.527893     2.522074     2.516256     2.510437     2.504618     2.498800     2.492981
      2.487163     2.481344     2.475525     2.469707     2.463888     2.458070     2.452251     2.446432     2.440614     2.434795
      2.428977     2.423158     2.417339     2.411521     2.405702     2.399884     2.394065     2.388246     2.382428     2.376609
      2.370790     2.364972     2.359153     2.353335     2.347516     2.341697     2.335879     2.330060     2.324242     2.318423
      2.312604     2.306786     2.300967     2.295149     2.289330     2.283511     2.277693     2.271874     2.266056     2.260237
      2.254418     2.248600     2.242781     2.236963     2.231144     2.225325     2.219507     2.213688     2.207870     2.202051
      2.196232     2.190414     2.184595     2.178777     2.172958     2.167139     2.161321     2.155502     2.149683     2.143865
      2.138046     2.132228     2.126409     2.120590     2.114772     2.108953     2.103135     2.097316     2.091497     2.085679
      2.079860     2.074042     2.068223     2.062404     2.056586     2.050767     2.044949     2.039130     2.033311     2.027493
      2.021674     2.015856     2.010037     2.004218     1.998400     1.992581     1.986763     1.980944     1.975126     1.969307
      1.963489     1.957670     1.951852     1.946033     1.940215     1.934397     1.928578     1.922760     1.916941     1.911123
      1.905304     1.899486     1.893667     1.887849     1.882030     1.876212     1.870393     1.864575     1.858756     1.852938
      1.847119     1.841301     1.835482     1.829664     1.823845     1.818027     1.812208     1.806390     1.800571     1.794753
      1.788934     1.783116     1.777297     1.771479     1.765660     1.759842     1.754023     1.748205     1.742386     1.736568
      1.730749     1.724931     1.719113     1.713294     1.707476     1.701657     1.695839     1.690020     1.684202     1.678383
      1.672565     1.666746     1.660928     1.655109     1.649291     1.643472     1.637654     1.631835     1.626017     1.620198
      1.614380     1.608561     1.602743     1.596924     1.591106     1.585287     1.579469     1.573650     1.567832     1.562013
      1.556195     1.550376     1.544558     1.538739     1.532921     1.527102     1.521284     1.515465     1.509647     1.503829
      1.498010     1.492192     1.486373     1.480555     1.474736     1.468918     1.463099     1.457281     1.451462     1.445644
      1.439825     1.434007     1.428188     1.422370     1.416551     1.410733     1.404914     1.399096     1.393277     1.387459
      1.381640     1.375822     1.370003     1.364185     1.358366     1.352548     1.346729     1.340911     1.335092     1.329274
      1.323455     1.317637     1.311818     1.306000     1.300182     1.294363     1.288545     1.282726     1.276908     1.271089
      1.265271     1.259452     1.253634     1.247815     1.241997     1.236178     1.230360     1.224541     1.218723     1.212904
      1.207086     1.201267     1.195449     1.189630     1.183812     1.177993     1.172175     1.166356     1.160538     1.154719
      1.148901     1.143082     1.137264     1.131445     1.125627     1.119808     1.113990     1.108171     1.102353     1.096534
      1.090716     1.084898     1.079079     1.073261     1.067442     1.061624     1.055805     1.049987     1.044168     1.038350
      1.032531     1.026713     1.020894     1.015076     1.009257     1.003439     0.997620     0.991802     0.985983     0.980165
      0.974346     0.968528     0.962709     0.956891     0.951072     0.945254     0.939435     0.933617     0.927798     0.921980
      0.916161     0.910343     0.904524     0.898706     0.892887     0.887069     0.881251     0.875432     0.869614     0.863795
      0.857977     0.852158     0.846340     0.840521     0.834703     0.828884     0.823066     0.817247     0.811429     0.805610
      0.799792     0.793973     0.788155     0.782336     0.776518     0.770699     0.764881     0.759062     0.753244     0.747425
      0.741607     0.735788     0.729970     0.724151     0.718333     0.712514     0.706696     0.700877     0.695059     0.689240
      0.683422     0.677603     0.671785     0.665967     0.660148     0.654330     0.648511     0.642693     0.636874     0.631056
      0.625237     0.619419     0.613600     0.607782     0.601963     0.596145     0.590326     0.584508     0.578689     0.572871
      0.567052     0.561234     0.555415     0.549597     0.543778     0.537960     0.532141     0.526323     0.520504     0.514686
      0.508867     0.503049     0.497230     0.491412     0.485593     0.479775     0.473956     0.468138     0.462319     0.456501
      0.450682     0.444864     0.439045     0.433227     0.427408     0.421590     0.415771     0.409953     0.404134     0.398316
      0.392497     0.386679     0.380860     0.375042     0.369223     0.363405     0.357586     0.351767     0.345949     0.340130
      0.334312     0.328493     0.322675     0.316856     0.311038     0.305219     0.299401     0.293582     0.287764     0.281945
      0.276127     0.270308     0.264490     0.258671     0.252853     0.247034     0.241216     0.235397     0.229579     0.223760
      0.217942     0.212123     0.206305     0.200486
 NY phased data points follow
   9.37385E-03 -2.63383E-01 -1.15283E-01 -8.88998E-02 -1.57948E-01 -2.15292E-01 -2.14662E-01 -3.08693E-02 -1.91508E-01 -2.92859E-01
   2.56852E-02 -6.49359E-03  2.92675E-01  4.36407E-01  3.84256E-01  2.77618E-01  1.35933E-01  1.17772E-01  4.68996E-02  1.18068E-01
   5.84668E-02  1.68985E-01 -7.81102E-02  4.06222E-03  2.20072E-01 -1.17739E-01 -2.04113E-01 -1.27137E-02  1.07794E-02 -1.44649E-01
   1.31574E-01 -5.83937E-02 -1.70797E-01  2.15637E-01 -2.81787E-01 -4.58003E-01 -3.79975E-01 -6.85750E-01 -4.77823E-01 -1.49022E-01
  -1.40614E-02  1.33018E-01  4.43600E-01  3.27597E-01  2.10457E-01  4.54258E-01  4.89517E-01  3.52322E-01  2.36630E-01  3.97006E-01
   2.69022E-01 -5.86850E-02  6.18269E-02  2.52086E-01  1.99129E-01  8.42310E-03 -2.74999E-01 -2.19298E-01 -6.84148E-02 -2.61198E-01
  -3.39465E-01 -8.69249E-02 -1.89249E-01 -1.71640E-01 -3.17625E-01 -4.37366E-01 -1.42578E-01 -2.98634E-01  1.12207E-01  2.50066E-01
   2.06372E-01  2.48498E-02  6.27800E-02  2.47671E-01 -7.55201E-02 -1.56297E-02  1.98728E-02 -1.10930E-01 -3.85654E-01 -2.19919E-01
  -4.75384E-01 -3.70933E-01 -4.45301E-01 -3.21958E-01  4.00696E-01  2.52796E-01  8.78815E-02  1.95568E-01  5.52240E-01  3.25921E-02
   1.37441E-01  3.60277E-01  1.22656E-01  1.65184E-01  7.50933E-03  5.33426E-02  8.86749E-02 -9.22458E-02 -3.29853E-02  4.99680E-02
  -3.77398E-01 -3.80890E-01 -3.31940E-01  2.25455E-02  2.44665E-01  3.38667E-01  4.85075E-01  3.15721E-01  5.49441E-02  4.55319E-01
   5.44107E-01  1.94257E-01  6.53667E-01  2.85598E-01  2.62767E-01  2.36428E-01  3.83587E-01  4.40151E-01  3.21359E-01  4.80275E-01
   1.70145E-01  3.95175E-01  4.94372E-01  5.48861E-01  2.91216E-01  1.95392E-01 -1.63900E-01 -1.97061E-01 -1.00468E-01 -5.20269E-01
  -4.32371E-01 -5.80993E-01 -3.80391E-01 -4.06879E-01 -5.91442E-01 -3.98633E-01 -4.14783E-01 -5.15918E-01 -8.43599E-01 -7.79147E-01
  -3.82037E-01 -4.67900E-01 -2.36332E-01 -2.32111E-02 -1.96567E-01 -2.95685E-01 -3.67356E-02  1.02547E-01 -9.12793E-02  3.55207E-01
   2.47587E-01 -1.24627E-01  2.11287E-01  3.90388E-01  3.39220E-01  2.13598E-01  2.50146E-02  1.19988E-01  2.49266E-01  4.93782E-01
   6.01806E-01  4.34984E-01  6.65032E-01  7.18569E-01  6.52032E-01  6.35880E-01  7.62146E-01  7.54893E-01  3.08544E-01 -2.82275E-02
  -4.85599E-01 -1.02357E+00 -7.44900E-01 -2.00625E-01 -2.38545E-01 -3.60671E-01 -5.06368E-01 -4.77281E-01 -3.57478E-01 -4.57205E-01
  -1.51203E-01 -1.30255E-01 -3.02906E-01 -7.32545E-02 -2.31465E-01 -1.56187E-01 -2.56886E-01 -2.71844E-01 -1.38318E-01 -1.64622E-01
  -3.27210E-01 -4.04499E-01  1.22242E-02 -1.19855E-01  1.71886E-01  2.45043E-01 -5.12365E-02 -1.33178E-01  6.14002E-02 -1.24828E-01
  -3.92161E-01  5.43261E-02 -1.41165E-01 -2.34991E-01 -3.55334E-02  3.29063E-01  1.12702E-01  2.18089E-02  2.32236E-01  3.44463E-02
  -1.85978E-01 -9.68273E-02  2.50213E-01  4.92720E-02  1.01251E-01  7.43853E-02 -2.44051E-01 -1.89924E-01  1.05737E-01 -1.14637E-01
   2.38122E-02 -1.23011E-01 -2.45660E-01  2.55260E-01  1.67892E-01  4.82206E-01  1.53139E-01  1.26983E-01  5.92534E-01  5.63739E-01
   5.94348E-01  3.04624E-01  1.93438E-01  3.19825E-01  2.48365E-01 -1.85805E-01 -1.38795E-01  6.43353E-02 -2.19240E-01 -1.33556E-01
  -1.41977E-01 -3.15269E-01 -3.57373E-03 -2.45778E-02 -2.55824E-01 -4.90582E-02 -7.60276E-02  8.38086E-02  1.54940E-01 -2.78667E-01
   1.24774E-01  3.37730E-03 -1.93831E-01 -2.74990E-01 -4.11192E-01  7.29269E-02 -2.51643E-01  2.34501E-02 -1.38249E-01  2.13760E-01
   5.10407E-01 -1.80812E-01  2.21890E-01 -7.79050E-02  3.16421E-01  8.38073E-02 -3.51418E-01  2.61315E-01 -1.55638E-01 -6.39790E-02
   1.19947E-01  1.59541E-01  1.30158E-01 -2.95634E-01 -3.38203E-01 -2.40274E-01 -1.50408E-01 -9.82249E-02 -1.86672E-01 -2.36837E-01
  -4.26068E-01 -4.13423E-01 -3.18693E-01 -4.49695E-01 -1.65098E-01 -1.93403E-01  9.34188E-02  1.58740E-01  1.13899E-01  7.00879E-01
   1.68724E-01  3.29373E-01  3.09483E-01 -1.18768E-01 -7.51803E-03  8.32490E-02  3.85874E-01 -1.33298E-01  1.64716E-02  1.65717E-01
   5.70579E-02  2.35344E-01  8.93879E-02  6.39329E-02  2.20551E-01  1.89332E-02 -1.00428E-01  5.55818E-01  2.88930E-01  2.37051E-01
   5.30291E-01  2.71802E-01  5.74149E-02 -1.69099E-02  1.89456E-01  1.70326E-01  1.88669E-01 -6.92542E-02 -1.73771E-01 -3.11108E-01
  -5.50112E-01 -3.19392E-01 -3.16573E-01 -1.88585E-01 -2.60323E-01 -3.04053E-01 -2.28730E-01 -2.82874E-01  1.96709E-01  1.88962E-01
   1.40151E-01  5.11983E-01  2.19891E-01  7.19864E-02  2.35507E-01  7.13199E-02  1.03897E-01 -9.10124E-02 -1.49068E-01 -2.06136E-01
  -7.15063E-01 -7.67338E-01 -7.38027E-01 -8.88220E-01 -1.48119E+00 -1.31721E+00 -7.63378E-01  7.85807E-02  4.26935E-01 -1.22417E-02
   5.54708E-02 -3.13523E-01  1.56757E-01  1.57008E-01  2.53658E-01  1.45480E-01  8.61906E-02  4.68383E-01  3.94844E-02  2.90422E-01
   2.14366E-01  3.44511E-01 -2.47619E-02  2.53337E-01  2.76102E-01  7.08136E-03  2.76613E-01 -2.67850E-02  2.40274E-01 -2.45894E-02
   1.62601E-01  1.61682E-01  5.27158E-02  5.22783E-02  3.18369E-01  3.01109E-01 -3.68341E-02  5.99720E-01  2.64594E-01  1.16581E-01
   2.29882E-01 -8.64709E-03  1.30009E-01  1.79281E-01 -1.13967E-02  1.49040E-01  4.86170E-01  4.67965E-02  2.47906E-03  4.64397E-01
   2.86978E-01  4.40797E-01  2.90721E-01  2.33068E-01  2.92818E-01 -1.65120E-01  5.13051E-01  4.24625E-01  8.31258E-02  1.66380E-01
   1.81312E-01  2.63251E-01 -1.73525E-01 -1.99321E-01 -1.09758E-01  1.67305E-02 -5.56552E-02 -1.99292E-01 -2.66764E-01 -1.84623E-01
  -2.22142E-01 -2.05707E-01 -1.16153E-01 -1.90744E-01 -8.51002E-02 -8.69079E-02 -2.51917E-02 -1.87756E-01 -2.06883E-01 -1.47596E-01
  -5.55561E-02 -2.25599E-01 -4.70246E-01 -3.26441E-01 -1.29725E-01 -7.79016E-02 -2.87178E-01 -1.04291E-01 -1.55020E-02 -5.45799E-02
   6.14007E-02  2.79422E-02 -2.55601E-01 -6.84846E-02  1.18575E-01 -2.03774E-01 -1.28065E-01 -1.78068E-01 -2.79314E-01 -3.29452E-02
  -1.25686E-01 -3.71966E-01 -2.12593E-02  3.46822E-02 -1.09986E-01  8.37447E-02  1.18084E-01  1.36249E-01 -6.68807E-02 -1.99905E-01
  -6.14667E-02 -4.92431E-02  2.84812E-01  3.05873E-01 -4.95620E-02 -6.99546E-02 -1.80311E-01 -1.66766E-03 -5.33907E-02 -1.50903E-01
   1.74640E-01  1.83345E-01 -1.76707E-01  1.25648E-01  3.64748E-01 -1.75856E-02  9.21650E-02  1.06857E-01  2.25836E-01 -2.77442E-01
  -2.68691E-01  1.71453E-01 -2.04364E-01 -1.18849E-01 -1.24300E-01 -1.54269E-01 -1.74701E-01 -6.42630E-02 -1.59991E-01 -3.40675E-01
  -1.99018E-01  7.39334E-02  1.44012E-01 -3.56244E-02  1.21682E-01  2.75484E-01  1.05265E-01 -8.20359E-02  1.24179E-01  1.23536E-02
  -2.63611E-03  1.04077E-01  2.16716E-02  1.28532E-01  9.76188E-02  7.78503E-02 -3.57784E-03  1.03840E-01  1.98540E-01  1.09628E-01
   2.59854E-01  1.99060E-01  2.85897E-02 -1.11751E-01  3.51795E-03  1.41250E-01  1.20280E-01  1.59325E-01 -1.28216E-01  2.61713E-01
   2.25775E-01 -8.99522E-02  3.45721E-02  9.40995E-02  1.81359E-01 -4.30928E-02 -8.74951E-02 -2.03155E-01  8.17172E-02 -1.01609E-01
  -4.37295E-02 -2.00959E-02 -1.83329E-01  1.08505E-02 -2.71784E-01 -2.03526E-01 -4.13245E-01 -3.71466E-01 -2.55093E-01  1.33353E-02
  -1.06171E-01 -3.06890E-01 -2.65832E-01 -3.09675E-01 -6.50560E-02  2.32898E-02  1.69783E-01 -7.62683E-02 -3.62814E-02 -9.03884E-02
   2.97444E-02  1.64736E-01  1.39228E-02  5.30605E-02  1.36618E-01  2.14547E-02  7.25176E-03 -2.38892E-02 -1.81592E-01  1.53228E-01
   9.38630E-02  2.89219E-01  8.19264E-02 -5.06960E-02  2.28250E-01  2.25725E-01  4.98833E-02  2.15472E-02  2.13910E-01  3.34081E-01
   3.56792E-01 -4.72913E-02  2.95931E-01 -1.80044E-01 -2.11527E-01  1.28865E-02 -5.09579E-02  3.37514E-01 -6.79708E-02  2.75898E-01
  -3.49451E-02  1.18579E-02  3.42401E-01 -5.23128E-02  8.73453E-02  6.20850E-02  3.13247E-01  1.22868E-01 -2.10141E-01  9.47520E-02
   6.78873E-02 -5.96001E-02  2.19003E-02  2.25784E-01  3.47765E-01  5.18470E-02 -9.18245E-02  9.69791E-02  1.04013E-01  8.44145E-02
  -1.52252E-02 -7.28737E-02  1.45433E-01  1.14429E-01  1.39562E-01 -1.09781E-01 -2.02954E-01  9.41539E-02 -3.00526E-02 -7.47201E-02
  -1.71615E-01 -2.52936E-01 -5.92165E-02  5.64060E-02 -1.09562E-01  3.14161E-02 -8.03959E-03  6.54193E-02 -1.18878E-01 -1.84271E-01
   3.49735E-01 -2.37714E-01  1.56708E-02  2.48884E-01 -1.86832E-01 -2.40842E-01 -3.01992E-01  4.47819E-02 -1.42994E-02 -1.92689E-01
   1.11599E-01  1.38523E-01 -9.70949E-02  1.66915E-01  1.53341E-01  1.39044E-01 -1.42157E-02  5.11657E-03  1.09625E-01 -2.08776E-01
   2.35969E-02 -1.21109E-01 -1.70491E-01 -6.02687E-02  9.33889E-02  4.49625E-01  1.92341E-01 -1.61504E-02  1.48540E-01  1.23332E-02
   1.49624E-01  2.17088E-01  7.35304E-02  2.10183E-01  1.02598E-02  9.97177E-02  5.64699E-02  3.25762E-02 -3.12891E-02 -2.88147E-02
  -1.82596E-02 -8.20838E-02  1.15994E-01  9.11161E-02
 NY points of the fit to the data follow
  -5.44869E-02 -5.51906E-02 -5.88293E-02 -6.51202E-02 -7.29775E-02 -9.31809E-02 -1.08766E-01 -9.70271E-02 -6.84608E-02 -1.34566E-02
   7.34212E-02  1.64274E-01  2.58020E-01  3.74068E-01  4.89925E-01  5.14993E-01  4.01732E-01  2.49692E-01  1.72433E-01  1.48889E-01
   1.08439E-01  6.91019E-02  5.38014E-02  3.39461E-02  2.19978E-03 -3.18831E-02 -6.02680E-02 -7.86297E-02 -9.15565E-02 -1.03352E-01
  -1.15347E-01 -1.29661E-01 -1.48633E-01 -1.83086E-01 -2.21463E-01 -2.58794E-01 -2.95270E-01 -3.08414E-01 -2.91352E-01 -2.43299E-01
  -1.56023E-01 -2.08954E-02  1.50311E-01  2.91994E-01  3.56057E-01  3.68745E-01  3.67926E-01  3.45045E-01  2.72115E-01  1.84266E-01
   1.16937E-01  7.89989E-02  5.59527E-02  2.83500E-02 -1.78885E-03 -3.24137E-02 -6.22804E-02 -1.03971E-01 -1.43356E-01 -1.80123E-01
  -2.25435E-01 -2.50335E-01 -2.71696E-01 -2.99087E-01 -2.93587E-01 -2.41983E-01 -1.55465E-01 -5.51335E-02  5.69357E-02  1.89065E-01
   2.96340E-01  3.37492E-01  3.28401E-01  3.04996E-01  2.29925E-01  1.09569E-01  1.64692E-02 -8.23808E-02 -1.98191E-01 -2.87092E-01
  -3.49544E-01 -3.93777E-01 -3.73729E-01 -2.28644E-01  4.60983E-03  1.90507E-01  2.79679E-01  3.40830E-01  3.90541E-01  3.65313E-01
   2.90283E-01  2.46337E-01  2.26462E-01  1.94924E-01  1.41906E-01  6.25069E-02 -3.82552E-02 -1.44168E-01 -2.41439E-01 -3.18753E-01
  -3.50675E-01 -3.12017E-01 -1.91853E-01 -1.47602E-02  1.60880E-01  2.77987E-01  3.16338E-01  3.05503E-01  2.84947E-01  2.79089E-01
   2.82101E-01  2.85517E-01  2.89146E-01  2.92830E-01  2.96231E-01  3.00694E-01  3.12035E-01  3.18817E-01  3.23165E-01  3.31597E-01
   3.22350E-01  3.12832E-01  2.91802E-01  2.58574E-01  1.85540E-01  8.38872E-02 -2.19167E-02 -1.35464E-01 -2.60044E-01 -3.53850E-01
  -4.21412E-01 -4.67633E-01 -4.89703E-01 -4.62951E-01 -4.17372E-01 -3.99933E-01 -4.38143E-01 -5.74528E-01 -7.35713E-01 -7.69860E-01
  -5.52219E-01 -2.45593E-01 -6.94108E-02 -4.08780E-02 -3.49573E-02 -1.12352E-02  1.20818E-02  3.37696E-02  5.39702E-02  7.28718E-02
   9.04599E-02  1.07143E-01  1.23646E-01  1.40657E-01  1.58423E-01  1.77283E-01  1.97605E-01  2.19945E-01  2.44237E-01  2.68867E-01
   3.04969E-01  4.22749E-01  5.48756E-01  6.51978E-01  7.36019E-01  7.31088E-01  6.25025E-01  4.86289E-01  2.93022E-01 -6.55431E-02
  -5.83426E-01 -9.07364E-01 -7.79308E-01 -4.36772E-01 -2.62474E-01 -2.74436E-01 -2.67143E-01 -2.52738E-01 -2.28549E-01 -2.04694E-01
  -1.93071E-01 -1.96198E-01 -1.92561E-01 -1.73960E-01 -1.56886E-01 -1.55778E-01 -1.63576E-01 -1.67886E-01 -1.65606E-01 -1.58989E-01
  -1.51289E-01 -1.44965E-01 -1.39802E-01 -1.31292E-01 -1.21313E-01 -1.12507E-01 -1.05737E-01 -9.80013E-02 -8.87246E-02 -7.86461E-02
  -6.85216E-02 -5.91985E-02 -5.03886E-02 -4.05058E-02 -2.99851E-02 -2.24170E-02 -2.29486E-02 -3.04417E-02 -3.46512E-02 -3.02980E-02
  -2.76823E-02 -3.98356E-02 -6.29631E-02 -7.93343E-02 -8.00920E-02 -7.33027E-02 -6.96463E-02 -7.04067E-02 -7.75220E-02 -8.34437E-02
  -7.60186E-02 -5.86496E-02 -3.02798E-02  8.71148E-03  5.09237E-02  1.02850E-01  1.71449E-01  2.50471E-01  2.95250E-01  2.68048E-01
   2.16463E-01  2.12492E-01  2.38646E-01  2.13396E-01  1.18084E-01  1.75989E-02 -3.50800E-02 -4.54080E-02 -5.00389E-02 -5.89949E-02
  -6.54432E-02 -7.24065E-02 -7.90329E-02 -8.43921E-02 -8.67263E-02 -8.67100E-02 -8.56153E-02 -8.39968E-02 -8.46427E-02 -8.64780E-02
  -9.82433E-02 -1.08268E-01 -1.17030E-01 -1.32173E-01 -1.38761E-01 -1.30865E-01 -1.12370E-01 -8.30676E-02 -2.89378E-02  4.10459E-02
   7.61344E-02  8.13112E-02  9.60171E-02  1.23017E-01  1.23876E-01  9.49501E-02  9.67809E-02  1.21668E-01  1.27104E-01  1.17999E-01
   1.17153E-01  1.21633E-01  1.05969E-01  7.23607E-02  3.20937E-02 -1.57751E-02 -6.24846E-02 -1.14356E-01 -1.78626E-01 -2.47056E-01
  -3.09393E-01 -3.58881E-01 -3.73720E-01 -3.42506E-01 -2.55527E-01 -1.14199E-01  5.50352E-02  2.24788E-01  3.56901E-01  4.22337E-01
   4.16340E-01  3.60304E-01  2.86158E-01  2.27175E-01  2.05005E-01  2.02539E-01  2.06616E-01  2.17664E-01  2.30877E-01  2.40235E-01
   2.40852E-01  2.33398E-01  2.22894E-01  2.11459E-01  2.02306E-01  1.96388E-01  1.90415E-01  1.84669E-01  1.77564E-01  1.69227E-01
   1.57902E-01  1.41272E-01  1.18349E-01  8.62260E-02  4.62022E-02 -4.37736E-03 -6.26581E-02 -1.24633E-01 -1.88300E-01 -2.46472E-01
  -2.91682E-01 -3.18275E-01 -3.22930E-01 -3.05402E-01 -2.62887E-01 -2.00596E-01 -1.21272E-01 -3.90635E-02  3.74533E-02  8.61519E-02
   9.54406E-02  6.98565E-02  2.21411E-02 -3.15673E-02 -7.25741E-02 -4.17428E-02 -2.69301E-02 -7.03339E-02 -1.46559E-01 -3.09860E-01
  -5.37827E-01 -7.37892E-01 -9.26953E-01 -1.16295E+00 -1.37904E+00 -1.23869E+00 -6.69004E-01 -9.92473E-02  7.92693E-02  6.95579E-04
  -2.15073E-02 -1.02971E-02  2.33698E-03  1.37727E-02  2.41660E-02  3.23394E-02  3.93701E-02  4.30959E-02  4.38416E-02  4.04389E-02
   3.19284E-02  1.96392E-02  5.42108E-03 -8.92449E-03 -1.95706E-02 -2.51851E-02 -2.36581E-02 -1.57686E-02 -3.36824E-03  9.87036E-03
   2.06371E-02  2.91377E-02  3.40284E-02  3.84807E-02  4.17813E-02  4.49349E-02  4.76243E-02  4.97328E-02  5.16480E-02  5.38714E-02
   5.61971E-02  5.82674E-02  5.99268E-02  6.13323E-02  6.26902E-02  6.41828E-02  6.56669E-02  6.69721E-02  6.80500E-02  6.91524E-02
   7.04783E-02  7.21692E-02  7.36676E-02  7.45952E-02  7.47711E-02  7.41219E-02  7.27639E-02  7.10354E-02  6.93166E-02  6.75269E-02
   6.54011E-02  6.26042E-02  5.91952E-02  5.55307E-02  5.19556E-02  4.83658E-02  4.46317E-02  4.10971E-02  3.80596E-02  3.52849E-02
   3.23464E-02  2.93497E-02  2.68219E-02  2.46796E-02  2.27004E-02  2.08253E-02  1.90157E-02  1.71649E-02  1.53833E-02  1.37110E-02
   1.21962E-02  1.10536E-02  1.03040E-02  9.74933E-03  9.57739E-03  1.01499E-02  1.13837E-02  1.29289E-02  1.44887E-02  1.60833E-02
   1.77469E-02  1.93753E-02  2.09469E-02  2.22963E-02  2.33860E-02  2.50102E-02  2.78072E-02  3.15505E-02  3.54183E-02  3.89900E-02
   4.25036E-02  4.65309E-02  5.13633E-02  5.67974E-02  6.23807E-02  6.77265E-02  7.26976E-02  7.72211E-02  8.11347E-02  8.42068E-02
   8.61321E-02  8.66789E-02  8.60104E-02  8.39442E-02  7.81819E-02  7.37448E-02  6.87838E-02  6.74843E-02  7.33386E-02  8.33922E-02
   9.65078E-02  1.13370E-01  1.33138E-01  1.52225E-01  1.56874E-01  1.40861E-01  1.09483E-01  7.62729E-02  5.37476E-02  4.45557E-02
   4.40437E-02  4.01140E-02  3.65881E-02  3.38941E-02  3.16891E-02  3.00542E-02  2.92564E-02  2.95212E-02  3.05198E-02  3.17966E-02
   3.32840E-02  3.51177E-02  3.71238E-02  3.90716E-02  4.10254E-02  4.28269E-02  4.40764E-02  4.49018E-02  4.54872E-02  4.60197E-02
   4.65370E-02  4.70503E-02  4.74264E-02  4.70235E-02  4.56359E-02  4.37972E-02  4.20474E-02  4.03425E-02  3.83694E-02  3.61975E-02
   3.42062E-02  3.25119E-02  3.07134E-02  2.84949E-02  2.62179E-02  2.41030E-02  2.20990E-02  2.00995E-02  1.80686E-02  1.61941E-02
   1.46064E-02  1.31019E-02  1.11213E-02  8.46262E-03  5.44242E-03  2.31745E-03 -1.36943E-03 -5.86903E-03 -1.09045E-02 -1.63748E-02
  -2.25877E-02 -2.98525E-02 -3.81865E-02 -4.71577E-02 -5.61602E-02 -6.46015E-02 -7.22762E-02 -7.93922E-02 -8.59341E-02 -9.13865E-02
  -9.55371E-02 -9.87189E-02 -1.00682E-01 -1.00843E-01 -9.92299E-02 -9.68874E-02 -9.45006E-02 -9.15843E-02 -8.78097E-02 -8.37981E-02
  -8.02041E-02 -7.69028E-02 -7.33585E-02 -6.92928E-02 -6.45254E-02 -5.93018E-02 -5.40333E-02 -4.87543E-02 -4.34127E-02 -3.81600E-02
  -3.32330E-02 -2.86878E-02 -2.42465E-02 -2.00315E-02 -1.59941E-02 -1.20761E-02 -8.70963E-03 -5.97661E-03 -3.26200E-03 -2.96339E-04
   2.24448E-03  3.90503E-03  5.17896E-03  6.74752E-03  8.34623E-03  9.46279E-03  1.00514E-02  1.05359E-02  1.11343E-02  1.18613E-02
   1.25865E-02  1.31402E-02  1.39163E-02  1.50877E-02  1.62272E-02  1.70861E-02  1.76899E-02  1.80246E-02  1.80292E-02  1.78219E-02
   1.77438E-02  1.77731E-02  1.77121E-02  1.77277E-02  1.79264E-02  1.81193E-02  1.83394E-02  1.86129E-02  1.86533E-02  1.86097E-02
   1.86973E-02  1.85954E-02  1.79018E-02  1.70150E-02  1.69415E-02  1.78018E-02  1.85091E-02  1.83830E-02  1.81111E-02  1.82619E-02
   1.83693E-02  1.83086E-02  1.87453E-02  1.98786E-02  2.11828E-02  2.20233E-02  2.26622E-02  2.34249E-02  2.43837E-02  2.52866E-02
   2.58066E-02  2.61362E-02  2.66038E-02  2.71155E-02  2.74397E-02  2.76200E-02  2.82250E-02  2.95117E-02  3.09110E-02  3.22056E-02
   3.35482E-02  3.49164E-02  3.61080E-02  3.72786E-02  3.87785E-02  4.05533E-02  4.19230E-02  4.25381E-02  4.27203E-02  4.31388E-02
   4.42697E-02  4.60480E-02  4.77519E-02  4.88509E-02  4.97199E-02  5.08780E-02  5.25866E-02  5.46864E-02  5.66591E-02  5.84388E-02
   6.03740E-02  6.28438E-02  6.56128E-02  6.80602E-02  7.02667E-02  7.31020E-02  7.66998E-02  8.05387E-02  8.44226E-02  8.87545E-02
   9.36548E-02  9.86211E-02  1.03245E-01  1.07722E-01
 NY background values follow
    -1.158E-02   -1.125E-02   -1.093E-02   -1.060E-02   -1.027E-02   -9.943E-03   -9.615E-03   -9.287E-03   -8.959E-03   -8.631E-03
    -8.303E-03   -7.976E-03   -7.648E-03   -7.320E-03   -6.992E-03   -6.665E-03   -6.337E-03   -6.010E-03   -5.682E-03   -5.355E-03
    -5.028E-03   -4.701E-03   -4.374E-03   -4.047E-03   -3.721E-03   -3.394E-03   -3.068E-03   -2.742E-03   -2.417E-03   -2.091E-03
    -1.766E-03   -1.441E-03   -1.116E-03   -7.922E-04   -4.682E-04   -1.445E-04    1.789E-04    5.019E-04    8.245E-04    1.147E-03
     1.469E-03    1.790E-03    2.111E-03    2.432E-03    2.752E-03    3.072E-03    3.391E-03    3.710E-03    4.028E-03    4.346E-03
     4.663E-03    4.980E-03    5.296E-03    5.612E-03    5.927E-03    6.242E-03    6.555E-03    6.869E-03    7.181E-03    7.493E-03
     7.804E-03    8.115E-03    8.425E-03    8.734E-03    9.042E-03    9.350E-03    9.657E-03    9.963E-03    1.027E-02    1.057E-02
