 LCModel (Version 6.3-1N) Copyright: S.W. Provencher.          Ref.: Magn. Reson. Med. 30:672-679 (1993).                
 Slice_N1@20_22  02-Jun-2023 14:37:46
 27 lines in following concentration table = NCONC+1
    Conc.  %SD /Cr+PCr  Metabolite                                         
 1.18E-07 309% 1.2E-05 Mac                                                 
 4.30E-02  37%   4.399 Cr                                                  
 3.52E-02  46%   3.601 PCr                                                 
 7.27E-02  13%   7.440 Ins                                                 
 7.58E-02  10%   7.759 NAA                                                 
 6.74E-02  13%   6.902 Tau                                                 
 1.27E-02  19%   1.299 PCho                                                
    0.000 999%   0.000 GPC                                                 
 8.90E-02  12%   9.109 Glu                                                 
 2.63E-02  30%   2.687 Gln                                                 
    0.000 999%   0.000 Ala                                                 
    0.000 999%   0.000 Asc                                                 
 8.90E-03  79%   0.911 Asp                                                 
 4.56E-03  86%   0.467 GABA                                                
 6.24E-03  72%   0.638 Glc                                                 
 8.80E-03  50%   0.901 GSH                                                 
    0.000 999%   0.000 Lac                                                 
 7.56E-03  81%   0.774 NAAG                                                
    0.000 999%   0.000 PE                                                  
 1.27E-02  19%   1.299 GPC+PCho                                            
 8.34E-02  10%   8.533 NAA+NAAG                                            
    0.115  11%  11.796 Glu+Gln                                             
 7.82E-02   9%   8.000 Cr+PCr                                              
 8.34E-02  10%   8.533 NAA+NAAG                                            
 7.82E-02   9%   8.000 Cr+PCr                                              
    0.115  11%  11.796 Glu+Gln                                             
   6 lines in following misc. output table
  FWHM = 0.035 ppm    S/N =   3                                            
  Data shift = 0.006 ppm                                                   
  Ph:  42 deg       8.3 deg/ppm                                            
  alphaB,S = 3.1E+01,   6.6E+01                                            
   18 spline knots.   Ns = 6(1)                                            
   4 inflections.     1 extrema                                            
  654 points on ppm-axis = NY
      4.000000     3.994181     3.988363     3.982544     3.976726     3.970907     3.965088     3.959270     3.953451     3.947633
      3.941814     3.935995     3.930177     3.924358     3.918540     3.912721     3.906902     3.901084     3.895265     3.889446
      3.883628     3.877809     3.871991     3.866172     3.860353     3.854535     3.848716     3.842898     3.837079     3.831260
      3.825442     3.819623     3.813805     3.807986     3.802167     3.796349     3.790530     3.784712     3.778893     3.773074
      3.767256     3.761437     3.755619     3.749800     3.743981     3.738163     3.732344     3.726526     3.720707     3.714888
      3.709070     3.703251     3.697433     3.691614     3.685795     3.679977     3.674158     3.668339     3.662521     3.656702
      3.650884     3.645065     3.639246     3.633428     3.627609     3.621791     3.615972     3.610153     3.604335     3.598516
      3.592698     3.586879     3.581060     3.575242     3.569423     3.563605     3.557786     3.551967     3.546149     3.540330
      3.534512     3.528693     3.522874     3.517056     3.511237     3.505419     3.499600     3.493781     3.487963     3.482144
      3.476326     3.470507     3.464688     3.458870     3.453051     3.447232     3.441414     3.435595     3.429777     3.423958
      3.418139     3.412321     3.406502     3.400684     3.394865     3.389046     3.383228     3.377409     3.371591     3.365772
      3.359953     3.354135     3.348316     3.342498     3.336679     3.330860     3.325042     3.319223     3.313405     3.307586
      3.301767     3.295949     3.290130     3.284312     3.278493     3.272674     3.266856     3.261037     3.255219     3.249400
      3.243581     3.237763     3.231944     3.226125     3.220307     3.214488     3.208670     3.202851     3.197032     3.191214
      3.185395     3.179577     3.173758     3.167939     3.162121     3.156302     3.150484     3.144665     3.138846     3.133028
      3.127209     3.121391     3.115572     3.109753     3.103935     3.098116     3.092298     3.086479     3.080660     3.074842
      3.069023     3.063205     3.057386     3.051567     3.045749     3.039930     3.034111     3.028293     3.022474     3.016656
      3.010837     3.005018     2.999200     2.993381     2.987563     2.981744     2.975925     2.970107     2.964288     2.958470
      2.952651     2.946832     2.941014     2.935195     2.929377     2.923558     2.917739     2.911921     2.906102     2.900284
      2.894465     2.888646     2.882828     2.877009     2.871191     2.865372     2.859553     2.853735     2.847916     2.842098
      2.836279     2.830460     2.824642     2.818823     2.813004     2.807186     2.801367     2.795549     2.789730     2.783911
      2.778093     2.772274     2.766456     2.760637     2.754818     2.749000     2.743181     2.737363     2.731544     2.725725
      2.719907     2.714088     2.708270     2.702451     2.696632     2.690814     2.684995     2.679177     2.673358     2.667539
      2.661721     2.655902     2.650084     2.644265     2.638446     2.632628     2.626809     2.620991     2.615172     2.609353
      2.603535     2.597716     2.591897     2.586079     2.580260     2.574442     2.568623     2.562804     2.556986     2.551167
      2.545349     2.539530     2.533711     2.527893     2.522074     2.516256     2.510437     2.504618     2.498800     2.492981
      2.487163     2.481344     2.475525     2.469707     2.463888     2.458070     2.452251     2.446432     2.440614     2.434795
      2.428977     2.423158     2.417339     2.411521     2.405702     2.399884     2.394065     2.388246     2.382428     2.376609
      2.370790     2.364972     2.359153     2.353335     2.347516     2.341697     2.335879     2.330060     2.324242     2.318423
      2.312604     2.306786     2.300967     2.295149     2.289330     2.283511     2.277693     2.271874     2.266056     2.260237
      2.254418     2.248600     2.242781     2.236963     2.231144     2.225325     2.219507     2.213688     2.207870     2.202051
      2.196232     2.190414     2.184595     2.178777     2.172958     2.167139     2.161321     2.155502     2.149683     2.143865
      2.138046     2.132228     2.126409     2.120590     2.114772     2.108953     2.103135     2.097316     2.091497     2.085679
      2.079860     2.074042     2.068223     2.062404     2.056586     2.050767     2.044949     2.039130     2.033311     2.027493
      2.021674     2.015856     2.010037     2.004218     1.998400     1.992581     1.986763     1.980944     1.975126     1.969307
      1.963489     1.957670     1.951852     1.946033     1.940215     1.934397     1.928578     1.922760     1.916941     1.911123
      1.905304     1.899486     1.893667     1.887849     1.882030     1.876212     1.870393     1.864575     1.858756     1.852938
      1.847119     1.841301     1.835482     1.829664     1.823845     1.818027     1.812208     1.806390     1.800571     1.794753
      1.788934     1.783116     1.777297     1.771479     1.765660     1.759842     1.754023     1.748205     1.742386     1.736568
      1.730749     1.724931     1.719113     1.713294     1.707476     1.701657     1.695839     1.690020     1.684202     1.678383
      1.672565     1.666746     1.660928     1.655109     1.649291     1.643472     1.637654     1.631835     1.626017     1.620198
      1.614380     1.608561     1.602743     1.596924     1.591106     1.585287     1.579469     1.573650     1.567832     1.562013
      1.556195     1.550376     1.544558     1.538739     1.532921     1.527102     1.521284     1.515465     1.509647     1.503829
      1.498010     1.492192     1.486373     1.480555     1.474736     1.468918     1.463099     1.457281     1.451462     1.445644
      1.439825     1.434007     1.428188     1.422370     1.416551     1.410733     1.404914     1.399096     1.393277     1.387459
      1.381640     1.375822     1.370003     1.364185     1.358366     1.352548     1.346729     1.340911     1.335092     1.329274
      1.323455     1.317637     1.311818     1.306000     1.300182     1.294363     1.288545     1.282726     1.276908     1.271089
      1.265271     1.259452     1.253634     1.247815     1.241997     1.236178     1.230360     1.224541     1.218723     1.212904
      1.207086     1.201267     1.195449     1.189630     1.183812     1.177993     1.172175     1.166356     1.160538     1.154719
      1.148901     1.143082     1.137264     1.131445     1.125627     1.119808     1.113990     1.108171     1.102353     1.096534
      1.090716     1.084898     1.079079     1.073261     1.067442     1.061624     1.055805     1.049987     1.044168     1.038350
      1.032531     1.026713     1.020894     1.015076     1.009257     1.003439     0.997620     0.991802     0.985983     0.980165
      0.974346     0.968528     0.962709     0.956891     0.951072     0.945254     0.939435     0.933617     0.927798     0.921980
      0.916161     0.910343     0.904524     0.898706     0.892887     0.887069     0.881251     0.875432     0.869614     0.863795
      0.857977     0.852158     0.846340     0.840521     0.834703     0.828884     0.823066     0.817247     0.811429     0.805610
      0.799792     0.793973     0.788155     0.782336     0.776518     0.770699     0.764881     0.759062     0.753244     0.747425
      0.741607     0.735788     0.729970     0.724151     0.718333     0.712514     0.706696     0.700877     0.695059     0.689240
      0.683422     0.677603     0.671785     0.665967     0.660148     0.654330     0.648511     0.642693     0.636874     0.631056
      0.625237     0.619419     0.613600     0.607782     0.601963     0.596145     0.590326     0.584508     0.578689     0.572871
      0.567052     0.561234     0.555415     0.549597     0.543778     0.537960     0.532141     0.526323     0.520504     0.514686
      0.508867     0.503049     0.497230     0.491412     0.485593     0.479775     0.473956     0.468138     0.462319     0.456501
      0.450682     0.444864     0.439045     0.433227     0.427408     0.421590     0.415771     0.409953     0.404134     0.398316
      0.392497     0.386679     0.380860     0.375042     0.369223     0.363405     0.357586     0.351767     0.345949     0.340130
      0.334312     0.328493     0.322675     0.316856     0.311038     0.305219     0.299401     0.293582     0.287764     0.281945
      0.276127     0.270308     0.264490     0.258671     0.252853     0.247034     0.241216     0.235397     0.229579     0.223760
      0.217942     0.212123     0.206305     0.200486
 NY phased data points follow
  -1.49506E-01 -4.06750E-01 -6.04187E-01 -5.99691E-01 -1.51420E-01 -2.71394E-01 -1.16100E-01 -3.08130E-01 -2.03775E-03  5.29311E-02
   1.68640E-01  6.13914E-01  3.90856E-01  5.60870E-01  4.23291E-01  5.35585E-01  5.20209E-01  2.59494E-01  2.51488E-01  3.55552E-01
  -1.99438E-01  1.19855E-01  2.55912E-01 -8.95211E-02  4.05879E-02 -2.69954E-01 -3.16824E-01 -3.93607E-01 -1.47534E-01 -1.48669E-01
  -1.40466E-01 -6.05057E-02 -4.44714E-03 -1.40124E-01 -9.96857E-02 -7.09780E-02 -1.86052E-01 -1.07865E-01 -3.69076E-01 -3.97895E-01
  -5.27028E-02  1.97865E-01  2.73350E-02  2.49328E-01  2.70626E-01  5.84952E-01  4.20328E-01  3.11038E-01  4.43528E-01  1.48474E-01
   8.59772E-02 -2.49547E-01  2.34575E-01  2.28193E-01  8.65439E-02 -1.12719E-02 -2.59431E-01 -3.17662E-01 -1.55889E-01 -3.42886E-01
  -3.92998E-01 -1.52161E-01 -4.13718E-01  1.58096E-02 -1.31586E-01 -1.72645E-01 -3.28022E-01 -7.19067E-02  2.95148E-02 -1.34231E-01
   4.56516E-01  4.83071E-02 -1.18066E-01  1.11478E-01  1.86457E-01 -1.91671E-01 -2.22910E-02  8.94185E-02 -2.53295E-01 -5.58524E-02
  -3.77119E-01 -3.65109E-01  1.03955E-01  2.69455E-01  4.63103E-01  7.86975E-02  3.21480E-01  6.23779E-01 -1.33020E-01  2.52944E-01
   1.32313E-01  7.17024E-02  3.63420E-01 -9.89982E-02 -6.43961E-03  2.06102E-01  2.28494E-02 -2.40529E-01  1.04092E-01 -1.39236E-01
  -1.56467E-01 -1.78452E-01 -3.18200E-01  2.07376E-01  3.85060E-01  4.64772E-01  3.11088E-02  2.13939E-01  5.47916E-01  2.06036E-01
   2.65048E-01  3.42531E-01  2.87353E-01  2.77727E-01  1.65725E-01  1.65157E-01  3.34910E-01  2.38143E-01  2.67515E-01  2.47363E-01
   1.38587E-01  2.64182E-01  1.79342E-01  1.24946E-02 -4.75600E-01 -2.95946E-01  2.50314E-01 -3.57599E-02 -5.14573E-02 -2.04702E-01
  -3.31396E-01 -7.29101E-01 -1.06284E+00 -4.43019E-01 -5.72375E-01 -4.83974E-01 -1.24902E-01 -4.79323E-01 -5.11196E-01 -4.57532E-01
  -3.13626E-01 -2.30284E-01  2.10115E-02  1.85011E-01 -2.71686E-01 -4.68129E-02  3.87825E-01  2.46642E-01  1.41826E-01  1.73806E-01
  -1.10538E-01  9.04584E-02  3.90262E-01  2.87804E-01 -1.24269E-01 -2.46440E-01  4.50064E-01  7.13076E-03  1.66851E-01  5.25528E-01
   2.60187E-01  4.75731E-01  4.17168E-01  2.05789E-01  5.16642E-01  9.94960E-01  4.69318E-01  4.19210E-01 -1.23488E-01 -6.09772E-01
  -8.71642E-01 -8.96895E-01 -4.31234E-01 -7.05031E-01  2.76528E-02 -9.08827E-02 -5.72911E-01 -3.29284E-01 -5.23156E-01 -3.39405E-01
  -1.83133E-01 -5.74894E-01 -2.60801E-01  2.93139E-02 -2.84127E-01 -2.30124E-01 -2.65733E-03  2.31220E-01 -6.59125E-02  1.34873E-03
  -7.02709E-02 -2.04308E-01 -1.04319E-01 -1.56759E-01 -2.27082E-01 -3.03845E-01  1.73540E-01 -7.62575E-02 -3.22990E-01  1.07551E-01
  -2.39739E-03 -1.70263E-01  2.14641E-02 -1.50166E-01 -1.98133E-01 -1.52348E-01 -4.86150E-01 -8.97839E-02  3.14730E-01  1.59283E-02
   5.75560E-02  1.32153E-01  3.87791E-02  1.00161E-01  3.58397E-02 -1.28993E-01 -9.75075E-02 -1.90368E-01 -2.14681E-01  6.16991E-03
  -1.56628E-01  1.80624E-01  3.03363E-01  1.51521E-01  5.84689E-02  8.56016E-02  5.16873E-01  3.42889E-01  1.71518E-01  1.10517E-01
   1.43646E-01  1.59062E-01  3.46396E-01  1.54908E-01 -5.78081E-02 -1.42630E-01 -9.37211E-02  1.81590E-01 -1.84750E-01  4.20832E-02
  -5.97156E-02 -2.43993E-01  3.96419E-02 -1.29506E-01 -4.75006E-02  2.19783E-01 -7.27978E-02 -3.04599E-01 -1.91482E-01  1.06435E-01
   4.61611E-02 -4.55289E-02  1.47143E-01 -2.15549E-01 -1.97473E-01  5.49952E-02  3.51683E-01  2.76646E-01  1.37172E-01 -4.76594E-02
   4.12569E-03 -2.34693E-03 -1.67196E-01  1.90025E-01 -5.47462E-02  1.20134E-01  5.08438E-02 -3.48698E-02  2.28929E-01  9.92453E-02
   2.06861E-02  1.70123E-01  1.28657E-01  1.56478E-01  3.86934E-02 -2.24597E-01 -7.73480E-02 -2.00112E-01 -4.95339E-02 -2.86709E-01
   2.28557E-04  1.00473E-01 -3.05483E-01 -2.78282E-01 -2.59040E-01  4.05001E-02  2.31473E-01  5.33572E-01  5.23676E-01  6.17036E-01
   2.73797E-01  3.54141E-03  3.54761E-01  2.94377E-01  2.67783E-01  3.37024E-01  4.03468E-01  3.63176E-01  1.88448E-03  1.93605E-03
   2.11437E-01  1.31392E-01 -4.61636E-03  1.13420E-01  2.51001E-01  2.35531E-01  3.67740E-01  3.04375E-01  4.08929E-01 -4.14178E-02
   2.31618E-01  3.37873E-01  1.17125E-01  3.74694E-01  1.52922E-03  6.30381E-01  2.73913E-02 -3.45675E-01 -3.36130E-02 -5.32522E-01
  -3.38006E-01 -3.88846E-01 -2.42452E-01 -1.83731E-01 -4.10690E-01 -6.69758E-02 -1.17506E-02  1.94240E-01  2.09447E-01 -3.29186E-02
   3.08977E-01 -8.11591E-02 -1.79097E-01 -1.92719E-01 -1.79959E-02  1.22899E-01 -4.43800E-01 -7.02267E-01 -6.33986E-01 -5.18989E-01
  -5.65151E-01 -5.71429E-01 -8.30551E-01 -1.11485E+00 -1.36929E+00 -7.87500E-01 -3.85837E-01 -2.46733E-02  8.84640E-02  1.62689E-01
   8.49198E-02 -1.20009E-01  2.22564E-01 -1.09373E-01  2.97222E-01  1.16064E-01  1.86741E-01  3.05185E-01  4.11025E-01  2.59785E-01
   2.34458E-01  4.06459E-01 -1.76821E-02  2.22164E-01 -3.45576E-01  2.71297E-01  3.26679E-02 -2.24149E-01  1.52614E-01  8.05134E-02
   8.97676E-02 -1.23339E-01  3.11247E-01  2.47483E-01  1.33793E-01 -4.05706E-02  3.74947E-01  1.71979E-01  3.23188E-01  2.61012E-01
  -8.68533E-02  3.11525E-01  2.44240E-01  3.93068E-01  1.31367E-01 -1.39918E-01 -2.61081E-01  1.07158E-01  5.90128E-02 -1.00887E-01
  -3.83028E-02  1.29513E-01  2.77590E-01  2.45723E-01  1.84583E-01  1.58366E-01  1.71283E-01 -2.77913E-01 -4.12037E-02 -1.62153E-02
  -1.09087E-01  1.95568E-01  4.33235E-01 -3.46797E-01 -2.94853E-01  3.54038E-01 -1.18208E-01 -1.33181E-01 -1.40056E-01  1.06417E-01
  -1.91880E-01 -2.37753E-01  1.23116E-01 -3.29021E-02 -1.91864E-01 -1.98220E-01 -1.98027E-01  3.82930E-02  2.48785E-01 -1.38636E-01
  -3.32653E-02 -7.21484E-02 -2.63004E-01 -1.68448E-01  2.54966E-01 -6.33844E-02 -9.19108E-02  4.03277E-01  6.55661E-02  2.15130E-01
  -1.78529E-01 -2.72449E-01  9.42544E-02 -7.36522E-02 -1.06668E-02  3.88154E-02  7.62606E-02  4.34545E-02 -5.28638E-02 -2.31089E-01
  -1.86968E-01  1.53586E-01  2.18242E-01  1.04930E-01  2.92729E-02  2.63571E-01  2.68044E-01 -2.15079E-01 -1.91967E-01 -1.13019E-01
   6.79126E-02  1.31716E-01 -1.62337E-01 -4.69109E-02 -1.16547E-02 -1.26441E-01 -2.96851E-01 -1.42871E-01  1.07547E-01 -8.60466E-02
   7.79210E-02  8.25258E-02  1.62821E-01  3.22132E-01 -1.63001E-01 -1.93905E-01 -1.03919E-01 -1.15309E-01 -2.49015E-01 -1.08697E-01
   5.25953E-02 -3.92518E-01 -2.59487E-01  2.47387E-02 -1.53058E-01 -2.30756E-01 -2.08022E-01 -1.36564E-01  3.81653E-01  2.21779E-01
   1.78683E-01  3.63626E-01  3.49677E-02  1.25718E-01  2.02789E-01  7.41104E-02  3.36362E-02  2.31107E-01  5.39286E-02  4.11370E-01
   4.28503E-01  5.47203E-02 -1.36102E-02 -1.38354E-01  8.36167E-02 -1.23120E-02 -1.13869E-01 -2.17543E-01 -4.84269E-02  2.08888E-01
   2.83144E-01 -2.25181E-01 -8.43340E-02  1.74938E-01  9.17626E-02  1.71327E-01 -5.38944E-02  1.51315E-01 -3.53609E-03 -4.44553E-03
  -1.43590E-01  1.54102E-01 -5.55358E-02 -1.09278E-01  3.93359E-01 -1.50565E-02 -1.49963E-01 -1.05703E-01 -2.23090E-02 -5.35870E-01
  -1.60790E-01 -1.10258E-02 -1.28808E-01  3.76574E-02 -6.61071E-03  1.58458E-02 -3.82953E-01 -2.90095E-02 -4.34836E-01 -5.99465E-01
  -1.17377E-01 -3.28427E-01 -1.94310E-01 -1.23721E-01  6.47728E-02  3.61532E-01  1.07370E-01  1.47450E-01  1.71834E-01 -7.73956E-02
  -3.19408E-03  1.50830E-01 -5.11248E-02  1.16817E-01  3.44905E-01 -2.57888E-01  2.07629E-01  1.14118E-01 -3.43154E-01  3.25906E-01
   4.55414E-03  4.11669E-02  5.85494E-01  2.97335E-01  1.88690E-01  2.90904E-01  3.56375E-01  2.03084E-01 -9.86225E-02  2.67681E-01
   3.20523E-01  6.63542E-02  4.51231E-02 -7.37736E-02  1.29620E-01  2.95339E-01 -5.54128E-03  1.73232E-01  1.54401E-01 -1.66149E-01
  -1.07435E-02  2.85236E-02  2.33563E-01  1.93642E-02  3.57017E-02  1.03663E-01 -4.78582E-02 -1.12908E-01 -3.29678E-01  1.50049E-01
   4.00415E-01 -4.92390E-02 -2.68037E-01 -2.94512E-01 -3.93281E-01 -2.76322E-01 -1.95921E-01  2.08562E-01  4.59079E-02 -1.62997E-01
   1.65192E-01 -8.89439E-02  8.71488E-02  2.21812E-01 -2.30514E-01  1.31859E-01  6.03979E-01  3.42614E-02  1.79647E-01  1.60283E-01
   1.23844E-01  4.48569E-01 -2.28087E-01 -3.45295E-01 -1.49548E-01 -2.89528E-02  1.91713E-01  1.68677E-01  1.05751E-02  3.20803E-02
  -2.91016E-02 -9.18656E-02  1.85242E-01 -1.61313E-01  3.76542E-02  4.28830E-01  1.58638E-02 -3.55803E-02 -1.61269E-01  9.35593E-02
   8.50576E-02 -4.92167E-02  1.59413E-01  1.97701E-02  1.75162E-01  2.95536E-01  8.03393E-02 -2.41091E-01  1.75038E-01 -2.32704E-02
  -1.92416E-01  1.87754E-01 -4.43097E-02 -1.07586E-01 -6.45791E-02  2.35959E-02 -2.14527E-01 -2.70565E-01 -1.47501E-01  1.41953E-01
  -1.25330E-02 -1.31050E-01 -1.70374E-02  7.10807E-02  8.04713E-02 -2.62333E-01  1.55252E-02 -1.53373E-01 -1.47092E-01 -3.84970E-02
  -2.23736E-02 -2.40541E-02  2.69827E-01  4.43097E-01
 NY points of the fit to the data follow
  -7.28932E-02 -7.03629E-02 -6.82217E-02 -6.61133E-02 -6.33460E-02 -5.74485E-02 -3.23225E-02 -6.80410E-04  3.08467E-02  8.95459E-02
   1.69287E-01  2.56755E-01  3.45477E-01  4.27978E-01  4.81456E-01  4.88303E-01  4.45582E-01  3.57270E-01  2.45161E-01  1.38745E-01
   5.27191E-02  2.42494E-03 -1.93833E-02 -3.73113E-02 -5.37205E-02 -6.85932E-02 -8.13227E-02 -9.16271E-02 -1.00214E-01 -1.08281E-01
  -1.17154E-01 -1.27927E-01 -1.41264E-01 -1.56319E-01 -1.70781E-01 -1.78805E-01 -1.80357E-01 -1.69736E-01 -1.43228E-01 -9.26842E-02
  -1.93614E-02  7.10113E-02  1.67656E-01  2.54701E-01  3.14833E-01  3.35773E-01  3.16069E-01  2.64717E-01  1.96937E-01  1.28797E-01
   7.26776E-02  3.02616E-02 -1.91010E-03 -3.19017E-02 -6.31496E-02 -9.67650E-02 -1.34565E-01 -1.68461E-01 -2.01471E-01 -2.42380E-01
  -2.65739E-01 -2.65407E-01 -2.50110E-01 -2.11577E-01 -1.47420E-01 -6.77240E-02  1.82794E-02  1.08692E-01  1.91426E-01  2.51803E-01
   2.82877E-01  2.75206E-01  2.34020E-01  1.69397E-01  8.30058E-02  4.10449E-03 -6.10225E-02 -1.27228E-01 -1.85626E-01 -2.20797E-01
  -2.20106E-01 -1.73363E-01 -7.91446E-02  4.36890E-02  1.65641E-01  2.62564E-01  3.18852E-01  3.34668E-01  3.19877E-01  2.82757E-01
   2.39061E-01  1.96704E-01  1.50682E-01  9.88657E-02  4.01528E-02 -2.10083E-02 -8.44900E-02 -1.48028E-01 -2.05868E-01 -2.42786E-01
  -2.38666E-01 -1.80845E-01 -7.58034E-02  5.07695E-02  1.66035E-01  2.46993E-01  2.88290E-01  3.00168E-01  2.98608E-01  2.93451E-01
   2.89562E-01  2.86421E-01  2.83657E-01  2.81207E-01  2.79143E-01  2.77145E-01  2.71608E-01  2.63316E-01  2.54854E-01  2.35642E-01
   2.09225E-01  1.78801E-01  1.28354E-01  6.56731E-02 -1.35245E-02 -9.04053E-02 -1.65829E-01 -2.36262E-01 -3.05388E-01 -3.72081E-01
  -4.49587E-01 -5.05254E-01 -5.03169E-01 -4.49348E-01 -4.01152E-01 -3.98223E-01 -4.37576E-01 -4.85742E-01 -4.81144E-01 -4.01934E-01
  -2.69113E-01 -1.32166E-01 -3.36843E-02  1.70201E-02  4.80601E-02  7.14085E-02  9.05725E-02  1.07302E-01  1.22619E-01  1.37213E-01
   1.51604E-01  1.66250E-01  1.81602E-01  1.98137E-01  2.16417E-01  2.37189E-01  2.61492E-01  2.90885E-01  3.27947E-01  3.77581E-01
   4.50282E-01  5.17731E-01  5.33148E-01  5.24724E-01  5.21281E-01  4.96746E-01  3.89032E-01  1.65108E-01 -1.52032E-01 -4.74805E-01
  -6.90170E-01 -7.40039E-01 -6.54523E-01 -5.16017E-01 -4.06367E-01 -3.42374E-01 -2.95781E-01 -2.59687E-01 -2.31312E-01 -2.10183E-01
  -1.94022E-01 -1.81042E-01 -1.69096E-01 -1.58510E-01 -1.50546E-01 -1.45721E-01 -1.42771E-01 -1.40124E-01 -1.36391E-01 -1.31642E-01
  -1.26501E-01 -1.20979E-01 -1.15346E-01 -1.09358E-01 -1.03273E-01 -9.72399E-02 -9.11547E-02 -8.51190E-02 -7.96914E-02 -7.46875E-02
  -6.93604E-02 -6.30244E-02 -5.67693E-02 -5.27258E-02 -5.15644E-02 -5.20383E-02 -5.24785E-02 -5.23813E-02 -5.26700E-02 -5.49001E-02
  -5.96565E-02 -6.50595E-02 -6.85985E-02 -6.93575E-02 -6.74290E-02 -6.33467E-02 -5.80132E-02 -5.22257E-02 -4.62666E-02 -3.46178E-02
  -1.73471E-02 -7.61533E-04  1.68021E-02  4.55892E-02  8.99232E-02  1.39606E-01  1.77798E-01  1.96418E-01  1.97530E-01  1.89905E-01
   1.79522E-01  1.64329E-01  1.36721E-01  9.10550E-02  3.55169E-02 -1.35729E-02 -4.66793E-02 -6.50613E-02 -7.58641E-02 -8.39134E-02
  -9.04390E-02 -9.64134E-02 -1.01680E-01 -1.06683E-01 -1.10913E-01 -1.14781E-01 -1.18581E-01 -1.22848E-01 -1.27493E-01 -1.32249E-01
  -1.36426E-01 -1.35145E-01 -1.33691E-01 -1.33703E-01 -1.29545E-01 -1.13983E-01 -8.84765E-02 -5.81436E-02 -2.15010E-02  1.61221E-02
   4.56217E-02  6.75000E-02  8.00496E-02  8.76673E-02  9.08006E-02  9.15633E-02  9.35408E-02  9.73604E-02  1.01786E-01  1.03481E-01
   1.00988E-01  9.17058E-02  6.96608E-02  3.52854E-02 -7.15145E-03 -5.76128E-02 -1.08847E-01 -1.59981E-01 -2.09830E-01 -2.51763E-01
  -2.83560E-01 -2.97977E-01 -2.84501E-01 -2.35350E-01 -1.47030E-01 -2.48543E-02  1.15153E-01  2.46753E-01  3.44315E-01  3.96109E-01
   4.01400E-01  3.75387E-01  3.37439E-01  3.00300E-01  2.72778E-01  2.54142E-01  2.40941E-01  2.31195E-01  2.22343E-01  2.13036E-01
   2.02391E-01  1.90411E-01  1.78090E-01  1.65222E-01  1.52413E-01  1.39452E-01  1.25354E-01  1.10928E-01  9.52488E-02  7.85131E-02
   6.12290E-02  4.26467E-02  2.34397E-02  2.34193E-03 -2.06845E-02 -4.98786E-02 -8.59431E-02 -1.30388E-01 -1.81003E-01 -2.31677E-01
  -2.73895E-01 -3.00593E-01 -3.06829E-01 -2.90667E-01 -2.53547E-01 -1.98309E-01 -1.31643E-01 -6.52057E-02 -8.13522E-03  2.62531E-02
   3.30431E-02  8.35360E-03 -3.24737E-02 -7.87943E-02 -1.22478E-01 -1.64736E-01 -2.62358E-01 -3.71468E-01 -4.43613E-01 -4.96819E-01
  -5.92239E-01 -7.50810E-01 -9.33796E-01 -1.05633E+00 -1.02997E+00 -8.35904E-01 -5.56696E-01 -2.97433E-01 -1.34398E-01 -6.94529E-02
  -3.60946E-02 -1.40869E-02  1.71605E-03  1.37964E-02  2.30647E-02  3.00657E-02  3.51302E-02  3.80059E-02  3.87122E-02  3.68714E-02
   3.25324E-02  2.60619E-02  1.84261E-02  1.08970E-02  4.66120E-03  8.07937E-04 -1.23467E-04  1.67673E-03  5.68376E-03  1.08919E-02
   1.63758E-02  2.15764E-02  2.60563E-02  2.98597E-02  3.29829E-02  3.55003E-02  3.74915E-02  3.90633E-02  4.03772E-02  4.15084E-02
   4.24934E-02  4.33527E-02  4.41030E-02  4.47746E-02  4.53825E-02  4.59373E-02  4.64368E-02  4.68811E-02  4.72788E-02  4.76437E-02
   4.79894E-02  4.83194E-02  4.86151E-02  4.88513E-02  4.90097E-02  4.90853E-02  4.90926E-02  4.90494E-02  4.89634E-02  4.88330E-02
   4.86576E-02  4.84396E-02  4.81773E-02  4.78792E-02  4.75609E-02  4.72331E-02  4.69053E-02  4.65869E-02  4.62788E-02  4.59785E-02
   4.56850E-02  4.54016E-02  4.51359E-02  4.48931E-02  4.46729E-02  4.44670E-02  4.42659E-02  4.40671E-02  4.38761E-02  4.36989E-02
   4.35420E-02  4.34104E-02  4.33099E-02  4.32413E-02  4.32169E-02  4.32385E-02  4.32958E-02  4.33808E-02  4.34908E-02  4.36262E-02
   4.37773E-02  4.39283E-02  4.40618E-02  4.41866E-02  4.43304E-02  4.45249E-02  4.47804E-02  4.50883E-02  4.54224E-02  4.57703E-02
   4.61436E-02  4.65596E-02  4.70258E-02  4.75271E-02  4.80441E-02  4.85518E-02  4.90380E-02  4.94931E-02  4.98977E-02  5.02316E-02
   5.04749E-02  5.06133E-02  5.06475E-02  5.05894E-02  5.04541E-02  5.02479E-02  4.99678E-02  4.96027E-02  4.91516E-02  4.86253E-02
   4.80573E-02  4.74748E-02  4.68963E-02  4.63244E-02  4.57633E-02  4.52195E-02  4.47008E-02  4.42141E-02  4.37605E-02  4.33411E-02
   4.29597E-02  4.26173E-02  4.23150E-02  4.20593E-02  4.18542E-02  4.17066E-02  4.16260E-02  4.16145E-02  4.16580E-02  4.17407E-02
   4.18528E-02  4.19917E-02  4.21499E-02  4.23211E-02  4.24931E-02  4.26443E-02  4.27572E-02  4.28299E-02  4.28723E-02  4.29039E-02
   4.29278E-02  4.29294E-02  4.28957E-02  4.28179E-02  4.26954E-02  4.25304E-02  4.23346E-02  4.21165E-02  4.18828E-02  4.16415E-02
   4.13981E-02  4.11530E-02  4.09040E-02  4.06516E-02  4.03953E-02  4.01320E-02  3.98618E-02  3.95943E-02  3.93361E-02  3.90870E-02
   3.88399E-02  3.85846E-02  3.83078E-02  3.79996E-02  3.76506E-02  3.72518E-02  3.67942E-02  3.62803E-02  3.57147E-02  3.50887E-02
   3.43843E-02  3.35907E-02  3.27156E-02  3.17859E-02  3.08336E-02  2.98916E-02  2.89926E-02  2.81521E-02  2.73707E-02  2.66607E-02
   2.60506E-02  2.55621E-02  2.52022E-02  2.49708E-02  2.48567E-02  2.48408E-02  2.49070E-02  2.50476E-02  2.52422E-02  2.54678E-02
   2.57042E-02  2.59506E-02  2.62187E-02  2.65182E-02  2.68591E-02  2.72338E-02  2.76355E-02  2.80567E-02  2.84859E-02  2.89069E-02
   2.93119E-02  2.96993E-02  3.00783E-02  3.04394E-02  3.07714E-02  3.10735E-02  3.13496E-02  3.16014E-02  3.18255E-02  3.20212E-02
   3.21817E-02  3.23084E-02  3.24110E-02  3.24907E-02  3.25427E-02  3.25721E-02  3.25802E-02  3.25708E-02  3.25532E-02  3.25305E-02
   3.25014E-02  3.24692E-02  3.24461E-02  3.24344E-02  3.24262E-02  3.24105E-02  3.23734E-02  3.23092E-02  3.22250E-02  3.21232E-02
   3.20085E-02  3.18895E-02  3.17682E-02  3.16477E-02  3.15286E-02  3.14035E-02  3.12734E-02  3.11554E-02  3.10494E-02  3.09339E-02
   3.07928E-02  3.06278E-02  3.04485E-02  3.02703E-02  3.01094E-02  2.99650E-02  2.98295E-02  2.96824E-02  2.95153E-02  2.93393E-02
   2.91710E-02  2.90208E-02  2.88929E-02  2.87821E-02  2.86793E-02  2.85740E-02  2.84636E-02  2.83440E-02  2.82186E-02  2.80927E-02
   2.79612E-02  2.78184E-02  2.76611E-02  2.74871E-02  2.73021E-02  2.71122E-02  2.69371E-02  2.67939E-02  2.66712E-02  2.65521E-02
   2.64213E-02  2.62781E-02  2.61355E-02  2.60059E-02  2.58887E-02  2.57584E-02  2.55904E-02  2.53801E-02  2.51493E-02  2.49296E-02
   2.47329E-02  2.45466E-02  2.43495E-02  2.41362E-02  2.39194E-02  2.37095E-02  2.35043E-02  2.33059E-02  2.31125E-02  2.29256E-02
   2.27488E-02  2.25790E-02  2.24162E-02  2.22623E-02  2.21139E-02  2.19765E-02  2.18602E-02  2.17749E-02  2.17212E-02  2.17013E-02
   2.17075E-02  2.17246E-02  2.17458E-02  2.17804E-02
 NY background values follow
     7.049E-03    7.021E-03    6.993E-03    6.965E-03    6.937E-03    6.909E-03    6.881E-03    6.853E-03    6.824E-03    6.796E-03
     6.768E-03    6.740E-03    6.712E-03    6.684E-03    6.656E-03    6.628E-03    6.599E-03    6.571E-03    6.543E-03    6.515E-03
     6.487E-03    6.459E-03    6.430E-03    6.402E-03    6.374E-03    6.346E-03    6.318E-03    6.289E-03    6.261E-03    6.233E-03
     6.205E-03    6.177E-03    6.148E-03    6.120E-03    6.092E-03    6.064E-03    6.035E-03    6.007E-03    5.979E-03    5.950E-03
     5.922E-03    5.894E-03    5.866E-03    5.837E-03    5.809E-03    5.781E-03    5.752E-03    5.724E-03    5.696E-03    5.667E-03
     5.639E-03    5.611E-03    5.582E-03    5.554E-03    5.526E-03    5.497E-03    5.469E-03    5.440E-03    5.412E-03    5.384E-03
     5.355E-03    5.327E-03    5.298E-03    5.270E-03    5.242E-03    5.213E-03    5.185E-03    5.156E-03    5.128E-03    5.099E-03
