 
 $NMID
 ID=''
 FMTDAT='(2E13.5)'
 TRAMP=   1.00000E+0
 VOLUME=   1.00000E+0
 $END
   4.36198E+2  -3.45541E+2
   1.81947E+3   1.33686E+3
  -6.85415E+2  -5.80274E+3
  -1.69593E+3  -2.01326E+3
  -1.36834E+3   1.16733E+3
  -4.56842E+2  -1.61955E+3
   1.98499E+3   1.70520E+3
  -2.08900E+3  -2.74078E+2
  -1.18567E+3  -1.43379E+3
  -2.60093E+3  -2.63518E+3
  -5.12322E+2  -2.34468E+3
   1.94640E+3  -3.54778E+3
   8.29995E+2   1.45111E+3
   3.07528E+1   1.34433E+3
  -1.74903E+3  -3.99248E+2
  -6.77887E+2  -6.51901E+2
   3.78385E+2   4.69417E+2
   8.54557E+2  -3.94517E+3
   3.64639E+2   5.80704E+2
  -1.32307E+3   2.23521E+2
   2.11522E+3  -1.64322E+3
   4.12567E+3  -4.46441E+2
  -8.64639E+2   4.58165E+3
   6.86431E+1   1.66534E+3
   8.67922E+2  -1.84083E+3
   2.19700E+3   1.26823E+3
   2.01862E+3   3.34607E+3
  -1.45297E+3   1.94547E+3
  -8.38309E+2  -1.50263E+3
   4.21755E+3  -3.81001E+3
   5.26209E+3   8.95018E+2
   2.36477E+3   4.34990E+3
  -1.82112E+3   2.10430E+3
  -6.87348E+1  -2.43997E+3
  -8.59874E+2  -3.40089E+2
  -4.88478E+3   2.30946E+2
   6.31685E+2  -2.36997E+3
   1.52154E+3   5.90945E+2
   1.96601E+3   2.02804E+3
  -1.65521E+3   1.14554E+3
  -1.30515E+3   2.72267E+3
  -5.04584E+3   2.54709E+3
  -5.28559E+3  -1.61380E+3
  -9.72429E+2  -4.21443E+3
   3.24239E+3  -1.55933E+3
   1.42919E+3   5.09978E+2
   1.23619E+3  -1.06534E+3
   1.65970E+3   3.54024E+2
   7.21313E+2   4.26684E+3
  -1.75316E+3   7.61082E+2
  -2.27842E+2   7.71437E+2
  -1.47352E+3  -1.75568E+3
   2.72457E+3   2.50378E+2
   3.27419E+3   2.57250E+3
   1.18664E+3   3.08196E+3
  -1.61533E+3   2.70472E+3
  -1.57649E+3   4.70405E+3
  -2.88655E+3   2.34288E+3
  -5.48544E+3  -1.36890E+3
  -1.46092E+3  -1.46333E+3
   1.43425E+3  -1.49307E+3
   1.76010E+3  -1.85739E+3
   3.01537E+1  -3.14600E+2
  -3.88008E+3   2.06535E+3
  -5.15373E+2  -1.69249E+3
   2.19093E+3  -8.10350E+2
  -2.49137E+1   1.10140E+3
  -6.75295E+2  -6.17950E+2
  -2.14730E+3  -1.67735E+3
   5.78152E+2  -2.22612E+3
   3.24400E+2  -8.47581E+2
  -7.70817E+1   3.01145E+2
  -2.41965E+3  -7.81322E+2
  -8.19576E+2  -2.09494E+3
   1.09659E+3  -3.63236E+2
   1.57752E+3  -1.88722E+3
  -1.52744E+3  -6.52501E+2
  -2.78439E+3  -1.72457E+3
   7.37440E+2  -2.58983E+3
   4.30209E+2   1.45450E+3
   1.20000E+3   5.74253E+2
   1.10227E+2  -1.71371E+3
   5.65942E+2  -6.20918E+1
   1.12881E+2   8.94810E+2
  -7.93119E+2   2.20757E+3
  -7.42370E+2  -9.99482E+2
  -7.01023E+2  -1.48820E+3
  -1.68325E+3  -1.69480E+3
   3.77539E+3  -9.47672E+2
   1.97964E+3   1.17450E+3
  -3.83715E+2  -1.75485E+3
   2.10075E+3  -8.41639E+2
   1.93675E+3   1.70573E+3
   5.72795E+2   7.22766E+2
  -8.46550E+2   2.31676E+3
   1.02222E+3  -3.59291E+2
  -1.22035E+3  -6.20759E+2
   3.07577E+3   2.91051E+2
   4.84344E+2   1.52456E+3
   2.59313E+2  -1.11900E+3
   7.53454E+2  -1.54578E+3
   3.32887E+3  -1.98774E+2
   1.69689E+3   8.83316E+2
   2.61395E+3   9.47586E+2
  -8.69259E+2   1.02160E+3
   1.11388E+3   1.25026E+3
  -1.00424E+3   8.43121E+2
  -2.86461E+3   1.02673E+3
  -2.31365E+3  -9.78322E+2
  -1.28574E+3  -5.94001E+2
   3.28746E+2   5.47557E+1
  -5.64974E+2   9.95746E-1
   5.07015E+2   5.80394E+2
  -1.80667E+2   7.47529E+2
  -5.42205E+2  -3.03819E+2
   1.33251E+3  -1.59054E+2
  -2.38490E+3  -1.54348E+3
  -9.86021E+2  -2.07130E+3
   1.36890E+3  -6.72172E+2
   4.11541E+2   9.75673E+2
  -4.66923E+2  -4.02932E+2
   8.84107E+2  -2.81733E+2
  -1.05372E+3  -1.35810E+3
  -9.20709E+2   2.04972E+2
   1.58545E+3   7.68657E+2
  -5.09116E+2  -5.25863E+2
   6.35854E+2   3.40326E+2
   1.16851E+2  -8.53157E+2
   6.02077E+2   1.32479E+3
   8.22724E+2   1.56506E+3
  -1.39571E+3   6.67794E+2
  -1.51077E+3  -1.21507E+3
   5.92014E+2   5.02029E+2
   5.59851E+2  -4.61163E+2
  -2.41144E+3   7.36846E+2
   1.74634E+2   9.45861E+2
   1.93030E+3  -1.33334E+3
   2.35889E+2  -1.22242E+3
   2.60483E+3  -9.25001E+2
   3.03967E+3   9.19146E+2
   1.46512E+3  -2.62362E+3
   1.18439E+3   5.97169E+2
   1.30944E+3  -3.85731E+2
   1.43720E+3   9.78290E+2
  -1.43044E+3  -5.95465E+2
   1.85778E+1   4.46225E+2
  -8.50978E+2   7.20683E+2
  -1.03365E+3  -1.69431E+3
  -1.90487E+2  -9.90967E+2
  -2.89111E+2   4.55566E+2
  -1.39468E+3   1.13352E+3
  -2.24802E+3   9.86327E+2
   7.82799E+2   2.91214E+2
   1.65830E+3  -1.63396E+3
   5.72527E+2   2.73376E+2
   9.60497E+2  -6.56214E+2
   5.23662E+2   3.40707E+2
   1.00032E+3  -1.27364E+3
  -1.09857E+3  -1.99310E+2
   2.49345E+2   3.59336E+2
  -6.53701E+2   1.61250E+3
  -1.17088E+3  -5.99183E+2
   9.16754E+2  -6.43713E+2
   1.27250E+3   2.72457E+2
   1.95268E+3  -1.02340E+2
  -1.02452E+3  -2.53572E+2
  -3.09605E+2  -1.58812E+3
  -6.73624E+2  -6.46555E+2
   6.28304E+2   5.51994E+2
  -7.91926E+2   1.62002E+3
  -7.11922E+2   4.00766E+2
  -1.74714E+2  -1.28865E+2
   4.11491E+2  -3.67183E+2
   3.96731E+2  -1.06119E+3
  -2.21351E+3  -8.85044E+2
   1.88561E+3  -3.56518E+2
   8.39736E+2  -1.45168E+2
  -3.90899E+1   4.73776E+2
   1.90226E+2   6.60025E+2
  -2.07002E+3  -1.00420E+3
  -5.12659E+2  -4.81444E+2
  -1.72246E+2   1.29959E+2
   5.05792E+2  -1.04200E+3
   1.11738E+3   3.80424E+2
  -5.88364E+2  -1.22323E+3
   6.69410E+1   1.29200E+3
  -8.77522E+1   1.29209E+3
  -1.64853E+3  -1.21280E+3
  -1.99597E+1   7.68041E+2
  -9.66379E+1  -4.58056E+2
  -9.07673E+2   1.38765E+3
   2.76823E+2  -4.22333E+2
  -2.09924E+3  -9.10070E+1
  -9.11193E+1   8.91398E+0
  -5.74366E+2  -1.32227E+3
   1.00393E+3   1.09849E+3
  -7.16190E+2  -1.06807E+3
  -1.13319E+3   1.11845E+3
   1.11014E+3   7.11151E+2
  -1.08918E+3   1.60835E+2
  -1.28411E+3  -5.14210E+1
  -2.24871E+3  -5.89996E+2
  -2.72402E+2   2.57094E+2
  -1.16814E+3  -1.31033E+3
   8.12056E+2  -4.33465E+2
   8.26921E+2  -1.37090E+3
  -4.78474E+1  -1.84953E+3
   1.78866E+2   1.28750E+3
  -7.04206E+1  -6.12385E+2
   1.91232E+2   1.29150E+3
  -7.24348E+2   1.54777E+3
  -1.60522E+3   1.57039E+3
   1.05173E+3  -2.76115E+2
  -8.87714E+0   1.60601E+3
  -1.50408E+3   1.53057E+3
   3.16488E+1   6.95608E+2
  -1.12419E+2   9.59649E+2
   1.23246E+3  -3.48093E+1
  -6.04231E+2   8.76817E+2
  -2.33783E+2   2.60637E+2
  -1.38964E+3   2.83666E+1
  -2.32937E+3   1.62248E+3
  -4.50645E+1  -7.20847E+2
  -5.05128E+2  -3.42803E+2
   1.37462E+3   1.50629E+3
   3.11920E+0  -2.18443E+3
   6.11353E+2  -7.91504E+2
   5.86603E+2  -1.37945E+3
   5.60409E+2   4.44215E+2
  -9.27098E+2   1.25629E+3
   9.74257E+2  -9.83523E+2
  -1.09969E+3   2.02317E+3
   3.18428E+2  -8.83815E+2
   1.28035E+3   2.68079E+2
  -4.25421E+1   2.92501E+3
   5.36032E+1   6.94221E+2
   1.86402E+2   1.96064E+3
   5.39002E+2   1.12251E+3
   6.40170E+1  -1.84486E+3
   1.06141E+3   7.87547E+2
   9.32281E+1  -5.20045E+2
   5.47360E+2   7.68384E+2
   4.74156E+2   1.49267E+3
   3.26160E+2  -4.91486E+2
   7.27876E+2  -1.00962E+3
   6.64699E+1   1.39882E+3
   9.96728E+2   7.47797E+2
   2.14333E+2   8.50311E+2
   2.09789E+2   1.86522E+3
   2.17889E+2   2.84518E+2
  -1.39421E+3   3.48598E+2
   1.10360E+2  -5.41829E+2
   6.14588E+2  -1.08334E+3
  -7.78634E+2  -6.82921E+2
  -1.08215E+3   6.13811E+2
  -3.64885E+3   9.30281E+2
   7.19836E+2  -7.19412E+2
   1.02764E+3  -1.91869E+2
   1.78294E+3   1.41578E+3
   6.95782E+2  -1.74704E+3
   1.07374E+3  -6.67016E+2
  -1.20953E+3  -1.27884E+3
   1.07068E+3   1.05703E+3
  -1.12023E+3  -5.53834E+2
   3.97682E+2  -8.40846E+2
  -2.57518E+2  -9.59310E+2
  -1.41830E+3   2.66954E+2
   4.73999E+2  -3.30898E+2
   3.83928E+2   5.10238E+2
  -4.84010E+2   5.64357E+2
   2.23113E+3   1.33076E+3
   4.81009E+2   2.27540E+3
   6.23040E+1  -1.19810E+3
  -2.75041E+2  -9.39651E+1
   1.85539E+1   5.46958E+2
   1.55273E+3   9.84964E+2
   1.39677E+2  -3.85082E+2
  -8.76441E+2  -2.12178E+2
   9.36279E+2  -4.12985E+2
  -8.46820E+2   1.17319E+3
   4.19038E+2  -5.65222E+2
   1.02635E+2   1.25093E+3
  -8.24012E+2  -1.11536E+3
  -1.95272E+2  -1.58184E+3
  -6.28320E+2   6.41422E+2
  -1.94760E+3   2.35505E+3
  -1.62834E+3  -1.64415E+3
  -1.69055E+3  -6.92874E+2
  -5.42536E+2   9.54853E+2
  -7.12492E+2   4.32466E+2
  -1.57136E+3   3.66180E+2
   1.08213E+3   8.37925E+2
  -1.96010E+3   9.29094E+2
   7.90804E+2  -4.21546E+2
   5.51097E+2  -1.21899E+3
  -1.48283E+3   5.85709E+2
  -1.41447E+2   1.15273E+3
   4.10019E+2  -2.71239E+2
  -7.98598E+1   2.31036E+3
   6.54318E+2  -5.82703E+2
  -1.85591E+3   6.64198E+2
  -1.80121E+3   2.08822E+3
  -5.93948E+2   4.02888E+2
  -5.79149E+2  -9.05552E+2
  -8.45148E+2   2.71312E+2
  -4.14066E+2   1.23249E+2
  -4.58202E+2   6.30666E+2
   1.00745E+3  -5.41540E+2
   1.61942E+2  -2.96319E+3
  -2.75763E+2   1.06667E+3
  -2.15955E+2  -1.37703E+3
   6.68794E+2   1.43382E+2
  -1.71137E+3   2.98917E+2
   5.95757E+2   3.69019E+2
  -3.36069E+3  -4.16895E+2
  -7.70159E+2   9.51313E+2
  -1.02633E+3  -1.33970E+3
  -6.99056E+2   2.45057E+2
   3.68885E+2  -1.62287E+3
   1.45523E+3  -3.04547E+2
   8.06704E+2  -2.60568E+3
  -5.41022E+2   1.57155E+2
  -1.46865E+3  -8.95140E+2
   9.85239E+2   1.14568E+3
  -3.62871E+2   1.92121E+1
   9.51826E+1  -1.95540E+3
  -6.09106E+2  -1.33153E+3
  -1.85632E+2  -3.15740E+2
   1.68696E+2  -1.10100E+3
  -7.49521E+2   1.53728E+3
  -2.09213E+2   2.73556E+2
   1.15169E+3   2.40835E+2
  -9.95755E+2   1.16850E+3
   2.98305E+1   1.27251E+3
   5.57912E+2  -1.61201E+3
  -1.25380E+3  -4.19988E+1
   1.18368E+3   3.74358E+2
   3.11157E+2   1.06733E+3
   6.35273E+2  -5.55438E+2
   1.89286E+3  -1.70999E+3
  -1.60667E+3  -5.98283E+2
  -1.44121E+3   9.97809E+2
   6.46335E+2  -1.20249E+3
   1.36497E+3  -2.67681E+0
   8.51522E+2   6.46580E+2
  -2.27588E+2  -1.25739E+3
  -1.66539E+3   5.80299E+1
  -8.51295E+1   1.14869E+3
  -7.48378E+1  -1.92504E+2
   2.27458E+2   3.37451E+1
   1.39373E+3  -4.13524E+2
  -1.91828E+2   3.19196E+1
   2.98256E+2  -4.81522E+1
  -1.38278E+3   1.23082E+3
  -5.33694E+2   1.15246E+2
   1.17376E+2  -2.68447E+3
  -2.74490E+2  -6.06894E+1
   9.33851E+2  -1.04203E+2
  -4.29790E+2  -1.73334E+3
   1.55225E+3   1.22224E+3
   1.90295E+3  -1.22932E+3
  -9.75482E+2   5.34954E+2
   1.87346E+2  -7.63475E+1
   5.12550E+2  -1.83719E+3
   1.31872E+3  -8.14579E+2
   7.35631E+2   8.61171E+2
   2.29790E+3   2.01215E+2
