 
 $NMID
 ID=''
 FMTDAT='(2E13.5)'
 TRAMP=   1.00000E+0
 VOLUME=   1.00000E+0
 $END
  -2.18423E+4   4.91227E+3
  -5.73596E+4  -4.11338E+3
  -5.68759E+4   5.57934E+3
  -5.24451E+4   4.55209E+3
  -5.48568E+4   2.58855E+3
  -5.48513E+4   4.74592E+3
  -5.30818E+4   3.70565E+3
  -5.41787E+4   2.58412E+3
  -5.42038E+4   4.02440E+3
  -5.31053E+4   3.44627E+3
  -5.33799E+4   2.63995E+3
  -5.31631E+4   3.77816E+3
  -5.21815E+4   3.54161E+3
  -5.24211E+4   2.69550E+3
  -5.20209E+4   3.25528E+3
  -5.10360E+4   2.89981E+3
  -5.11892E+4   2.32914E+3
  -5.09317E+4   2.63074E+3
  -5.02008E+4   2.45441E+3
  -5.02259E+4   1.80895E+3
  -4.99017E+4   2.07796E+3
  -4.92814E+4   2.06026E+3
  -4.94512E+4   1.75052E+3
  -4.93111E+4   1.76627E+3
  -4.87117E+4   1.61708E+3
  -4.87254E+4   1.37779E+3
  -4.86149E+4   1.53621E+3
  -4.81890E+4   1.25403E+3
  -4.80113E+4   8.58426E+2
  -4.79256E+4   8.78505E+2
  -4.75433E+4   8.24933E+2
  -4.75761E+4   7.30191E+2
  -4.74524E+4   6.06444E+2
  -4.71026E+4   4.63948E+2
  -4.70031E+4   3.79647E+2
  -4.68504E+4   4.60029E+2
  -4.65641E+4   3.30858E+2
  -4.64123E+4   3.65778E+2
  -4.63750E+4   4.63080E+2
  -4.59940E+4   4.19241E+2
  -4.59219E+4   3.81721E+2
  -4.57101E+4   2.30893E+2
  -4.53416E+4   3.91592E+1
  -4.50467E+4  -1.81950E+1
  -4.48515E+4   6.55890E+1
  -4.46253E+4  -9.25293E+1
  -4.43967E+4  -2.64060E+2
  -4.41530E+4  -2.45104E+2
  -4.39136E+4  -3.45379E+2
  -4.36194E+4  -4.42673E+2
  -4.33904E+4  -5.30967E+2
  -4.30968E+4  -6.85588E+2
  -4.26977E+4  -6.72294E+2
  -4.25560E+4  -6.90054E+2
  -4.23739E+4  -6.99481E+2
  -4.21248E+4  -8.16206E+2
  -4.18832E+4  -9.24489E+2
  -4.15330E+4  -9.69266E+2
  -4.12296E+4  -1.09632E+3
  -4.09542E+4  -1.13024E+3
  -4.06728E+4  -1.18433E+3
  -4.03598E+4  -1.25456E+3
  -4.00770E+4  -1.30318E+3
  -3.99259E+4  -1.35109E+3
  -3.96617E+4  -1.40073E+3
  -3.93814E+4  -1.37372E+3
  -3.92373E+4  -1.43251E+3
  -3.89319E+4  -1.46209E+3
  -3.86969E+4  -1.54860E+3
  -3.83768E+4  -1.54076E+3
  -3.81708E+4  -1.53918E+3
  -3.79959E+4  -1.54065E+3
  -3.76408E+4  -1.65531E+3
  -3.74235E+4  -1.73390E+3
  -3.71994E+4  -1.74313E+3
  -3.69526E+4  -1.68256E+3
  -3.67216E+4  -1.65543E+3
  -3.65096E+4  -1.72708E+3
  -3.62666E+4  -1.75487E+3
  -3.60266E+4  -1.68104E+3
  -3.57881E+4  -1.63531E+3
  -3.55480E+4  -1.69607E+3
  -3.53678E+4  -1.78000E+3
  -3.51079E+4  -1.72260E+3
  -3.49154E+4  -1.86067E+3
  -3.46952E+4  -1.92896E+3
  -3.43755E+4  -2.00097E+3
  -3.41457E+4  -2.02855E+3
  -3.39161E+4  -2.06531E+3
  -3.36796E+4  -2.13178E+3
  -3.34734E+4  -2.11546E+3
  -3.32163E+4  -2.15326E+3
  -3.29834E+4  -2.21518E+3
  -3.28136E+4  -2.30358E+3
  -3.26095E+4  -2.26042E+3
  -3.22245E+4  -2.36651E+3
  -3.19179E+4  -2.44630E+3
  -3.17009E+4  -2.44344E+3
  -3.15247E+4  -2.48975E+3
  -3.13163E+4  -2.62687E+3
  -3.09367E+4  -2.73922E+3
  -3.05966E+4  -2.79930E+3
  -3.04571E+4  -2.78086E+3
  -3.02107E+4  -2.79465E+3
  -2.99146E+4  -2.88073E+3
  -2.96139E+4  -3.00544E+3
  -2.94299E+4  -3.04053E+3
  -2.92317E+4  -3.14996E+3
  -2.89742E+4  -3.17219E+3
  -2.86425E+4  -3.26471E+3
  -2.84453E+4  -3.31990E+3
  -2.81133E+4  -3.31057E+3
  -2.79334E+4  -3.39338E+3
  -2.77250E+4  -3.47923E+3
  -2.74525E+4  -3.59401E+3
  -2.72168E+4  -3.72015E+3
  -2.69620E+4  -3.74081E+3
  -2.67068E+4  -3.83689E+3
  -2.64291E+4  -3.94764E+3
  -2.61975E+4  -3.98565E+3
  -2.59414E+4  -3.94840E+3
  -2.57352E+4  -4.01362E+3
  -2.54754E+4  -4.21584E+3
  -2.52017E+4  -4.29179E+3
  -2.49908E+4  -4.27404E+3
  -2.47363E+4  -4.36609E+3
  -2.45233E+4  -4.39728E+3
  -2.42732E+4  -4.47458E+3
  -2.40204E+4  -4.53547E+3
  -2.38136E+4  -4.65976E+3
  -2.37068E+4  -4.64205E+3
  -2.33988E+4  -4.65194E+3
  -2.31490E+4  -4.72595E+3
  -2.29400E+4  -4.81463E+3
  -2.27010E+4  -4.91469E+3
  -2.25351E+4  -4.91771E+3
  -2.22988E+4  -4.98541E+3
  -2.21516E+4  -4.98365E+3
  -2.19266E+4  -5.03900E+3
  -2.17035E+4  -5.13656E+3
  -2.14859E+4  -5.11783E+3
  -2.12528E+4  -5.30064E+3
  -2.11026E+4  -5.24782E+3
  -2.09204E+4  -5.23329E+3
  -2.08133E+4  -5.32895E+3
  -2.05143E+4  -5.39716E+3
  -2.03787E+4  -5.45862E+3
  -2.02248E+4  -5.52056E+3
  -1.99901E+4  -5.60820E+3
  -1.98803E+4  -5.57826E+3
  -1.97711E+4  -5.67383E+3
  -1.95566E+4  -5.71100E+3
  -1.92803E+4  -5.79315E+3
  -1.91669E+4  -5.86396E+3
  -1.90557E+4  -5.84473E+3
  -1.87906E+4  -5.88711E+3
  -1.86922E+4  -5.95536E+3
  -1.85986E+4  -5.93606E+3
  -1.83493E+4  -6.05535E+3
  -1.81984E+4  -6.07663E+3
  -1.80169E+4  -6.19287E+3
  -1.79076E+4  -6.21589E+3
  -1.77551E+4  -6.27501E+3
  -1.75846E+4  -6.28099E+3
  -1.74179E+4  -6.31175E+3
  -1.73583E+4  -6.42154E+3
  -1.72128E+4  -6.42321E+3
  -1.69723E+4  -6.47184E+3
  -1.69282E+4  -6.43383E+3
  -1.67890E+4  -6.50474E+3
  -1.67073E+4  -6.66009E+3
  -1.65540E+4  -6.62259E+3
  -1.63887E+4  -6.67767E+3
  -1.62820E+4  -6.63643E+3
  -1.61629E+4  -6.65976E+3
  -1.60175E+4  -6.73966E+3
  -1.59244E+4  -6.74899E+3
  -1.57867E+4  -6.75567E+3
  -1.56464E+4  -6.80072E+3
  -1.55730E+4  -6.82966E+3
  -1.54138E+4  -6.84022E+3
  -1.53687E+4  -6.86847E+3
  -1.52817E+4  -6.98362E+3
  -1.51217E+4  -6.96112E+3
  -1.49400E+4  -6.99721E+3
  -1.48729E+4  -7.01300E+3
  -1.47841E+4  -6.96775E+3
  -1.46853E+4  -7.12632E+3
  -1.45374E+4  -7.12376E+3
  -1.43735E+4  -7.07485E+3
  -1.43284E+4  -7.04308E+3
  -1.42182E+4  -7.05537E+3
  -1.41466E+4  -7.05808E+3
  -1.39834E+4  -7.09925E+3
  -1.39018E+4  -7.13220E+3
  -1.38347E+4  -7.10879E+3
  -1.37312E+4  -7.04638E+3
  -1.35834E+4  -7.07818E+3
  -1.34899E+4  -7.08141E+3
  -1.34212E+4  -7.12322E+3
  -1.33363E+4  -7.16491E+3
  -1.31645E+4  -7.16305E+3
  -1.30542E+4  -7.15066E+3
  -1.29651E+4  -7.05123E+3
  -1.28825E+4  -7.06956E+3
  -1.28336E+4  -7.05959E+3
  -1.27646E+4  -7.03839E+3
  -1.25813E+4  -7.04784E+3
  -1.25374E+4  -7.04678E+3
  -1.24202E+4  -6.99735E+3
  -1.23377E+4  -7.10132E+3
  -1.22681E+4  -7.01468E+3
  -1.20784E+4  -6.98122E+3
  -1.20129E+4  -6.91839E+3
  -1.19661E+4  -6.90901E+3
  -1.18850E+4  -6.89193E+3
  -1.17390E+4  -6.93232E+3
  -1.16418E+4  -6.85866E+3
  -1.15989E+4  -6.80682E+3
  -1.15069E+4  -6.79805E+3
  -1.13610E+4  -6.74821E+3
  -1.12616E+4  -6.76411E+3
  -1.12229E+4  -6.71321E+3
  -1.11380E+4  -6.67857E+3
  -1.09687E+4  -6.61292E+3
  -1.08749E+4  -6.60844E+3
  -1.07883E+4  -6.54122E+3
  -1.06787E+4  -6.55707E+3
  -1.06612E+4  -6.50289E+3
  -1.05691E+4  -6.52779E+3
  -1.04436E+4  -6.40293E+3
  -1.03058E+4  -6.35325E+3
  -1.02575E+4  -6.41355E+3
  -1.00727E+4  -6.28873E+3
  -1.00493E+4  -6.32162E+3
  -1.00204E+4  -6.15522E+3
  -9.83100E+3  -6.17383E+3
  -9.81378E+3  -6.14112E+3
  -9.67885E+3  -6.15410E+3
  -9.57330E+3  -6.07988E+3
  -9.50448E+3  -6.04718E+3
  -9.34772E+3  -6.03239E+3
  -9.32629E+3  -5.90541E+3
  -9.19567E+3  -5.93337E+3
  -9.18814E+3  -5.86568E+3
  -9.10109E+3  -5.81496E+3
  -9.02904E+3  -5.78212E+3
  -8.80807E+3  -5.73487E+3
  -8.79127E+3  -5.72366E+3
  -8.74658E+3  -5.66247E+3
  -8.62917E+3  -5.68714E+3
  -8.49575E+3  -5.63783E+3
  -8.37754E+3  -5.55457E+3
  -8.33673E+3  -5.54113E+3
  -8.25475E+3  -5.53619E+3
  -8.15265E+3  -5.48725E+3
  -7.99191E+3  -5.45801E+3
  -7.98666E+3  -5.35434E+3
  -7.91297E+3  -5.22291E+3
  -7.84221E+3  -5.35601E+3
  -7.70017E+3  -5.35761E+3
  -7.65741E+3  -5.30855E+3
  -7.55268E+3  -5.19040E+3
  -7.37661E+3  -5.12375E+3
  -7.37369E+3  -5.12334E+3
  -7.29269E+3  -5.17025E+3
  -7.16849E+3  -5.10728E+3
  -7.09155E+3  -5.05711E+3
  -6.96992E+3  -5.08264E+3
  -6.87422E+3  -5.04385E+3
  -6.84044E+3  -4.93194E+3
  -6.69483E+3  -4.93680E+3
  -6.69269E+3  -4.95539E+3
  -6.56642E+3  -4.90139E+3
  -6.51556E+3  -4.90734E+3
  -6.38978E+3  -4.84258E+3
  -6.29470E+3  -4.86737E+3
  -6.24732E+3  -4.75085E+3
  -6.13216E+3  -4.76301E+3
  -6.11459E+3  -4.76343E+3
  -5.99440E+3  -4.63431E+3
  -5.95721E+3  -4.63788E+3
  -5.80154E+3  -4.63665E+3
  -5.77618E+3  -4.69065E+3
  -5.64637E+3  -4.63338E+3
  -5.57967E+3  -4.56965E+3
  -5.51252E+3  -4.58916E+3
  -5.41409E+3  -4.56712E+3
  -5.32911E+3  -4.50434E+3
  -5.30361E+3  -4.51323E+3
  -5.18534E+3  -4.46946E+3
  -5.12329E+3  -4.46959E+3
  -5.06318E+3  -4.42675E+3
  -4.98175E+3  -4.48239E+3
  -4.96047E+3  -4.38121E+3
  -4.81977E+3  -4.36762E+3
  -4.76470E+3  -4.40996E+3
  -4.70828E+3  -4.39712E+3
  -4.63234E+3  -4.32297E+3
  -4.52397E+3  -4.35727E+3
  -4.49823E+3  -4.32236E+3
  -4.39687E+3  -4.27248E+3
  -4.35789E+3  -4.31338E+3
  -4.29647E+3  -4.25352E+3
  -4.26376E+3  -4.30613E+3
  -4.14274E+3  -4.31292E+3
  -4.05638E+3  -4.24830E+3
  -4.07493E+3  -4.20743E+3
  -3.97272E+3  -4.28191E+3
  -3.89526E+3  -4.25345E+3
  -3.82427E+3  -4.28544E+3
  -3.74847E+3  -4.26499E+3
  -3.73974E+3  -4.21099E+3
  -3.71008E+3  -4.18434E+3
  -3.57508E+3  -4.20848E+3
  -3.57910E+3  -4.20083E+3
  -3.60090E+3  -4.18896E+3
  -3.48186E+3  -4.15819E+3
  -3.41402E+3  -4.18953E+3
  -3.29426E+3  -4.18207E+3
  -3.29983E+3  -4.13860E+3
  -3.20737E+3  -4.16197E+3
  -3.14618E+3  -4.12686E+3
  -3.20837E+3  -4.14079E+3
  -3.12643E+3  -4.15392E+3
  -3.02143E+3  -4.15338E+3
  -3.02306E+3  -4.13084E+3
  -2.98657E+3  -4.14217E+3
  -2.93578E+3  -4.12406E+3
  -2.88997E+3  -4.07199E+3
  -2.82238E+3  -4.10930E+3
  -2.77725E+3  -4.08370E+3
  -2.74452E+3  -4.09140E+3
  -2.66872E+3  -4.13813E+3
  -2.70937E+3  -4.05394E+3
  -2.60244E+3  -4.07097E+3
  -2.62236E+3  -4.06350E+3
  -2.53791E+3  -4.03753E+3
  -2.56049E+3  -3.99232E+3
  -2.47931E+3  -3.96484E+3
  -2.38875E+3  -4.08294E+3
  -2.38998E+3  -4.02774E+3
  -2.31760E+3  -3.97141E+3
  -2.38073E+3  -3.96169E+3
  -2.29863E+3  -3.92318E+3
  -2.29696E+3  -3.93525E+3
  -2.29090E+3  -3.93584E+3
  -2.18192E+3  -3.96956E+3
  -2.17260E+3  -3.95554E+3
  -2.13870E+3  -3.86445E+3
  -2.14641E+3  -3.87615E+3
  -2.09287E+3  -3.93649E+3
  -2.06111E+3  -3.90368E+3
  -2.05349E+3  -3.92492E+3
  -2.00881E+3  -3.95682E+3
  -1.96993E+3  -3.85108E+3
  -1.93623E+3  -3.90359E+3
  -1.95170E+3  -3.80724E+3
  -1.90936E+3  -3.81639E+3
  -1.89637E+3  -3.87406E+3
  -1.84567E+3  -3.86326E+3
  -1.79326E+3  -3.78454E+3
  -1.75284E+3  -3.81926E+3
  -1.79142E+3  -3.82355E+3
  -1.86044E+3  -3.82411E+3
  -1.77637E+3  -3.79926E+3
  -1.63143E+3  -3.79194E+3
