 LCModel (Version 6.3-1N) Copyright: S.W. Provencher.          Ref.: Magn. Reson. Med. 30:672-679 (1993).                
 Slice_N1@24_15  02-Jun-2023 14:38:03
 27 lines in following concentration table = NCONC+1
    Conc.  %SD /Cr+PCr  Metabolite                                         
 1.33E-06  24% 2.0E-04 Mac                                                 
 3.42E-02  34%   5.096 Cr                                                  
 1.95E-02  55%   2.904 PCr                                                 
 7.88E-02  16%  11.757 Ins                                                 
 5.73E-02  18%   8.549 NAA                                                 
 4.94E-02  23%   7.366 Tau                                                 
 1.27E-02  24%   1.895 PCho                                                
    0.000 999%   0.000 GPC                                                 
 4.66E-02  24%   6.950 Glu                                                 
 3.82E-02  19%   5.695 Gln                                                 
    0.000 999%   0.000 Ala                                                 
    0.000 999%   0.000 Asc                                                 
 5.66E-03  30%   0.844 Asp                                                 
 3.35E-03  30%   0.500 GABA                                                
 3.54E-03  29%   0.528 Glc                                                 
 1.55E-02  21%   2.309 GSH                                                 
    0.000 999%   0.000 Lac                                                 
 4.23E-03 162%   0.630 NAAG                                                
    0.000 999%   0.000 PE                                                  
 1.27E-02  24%   1.895 GPC+PCho                                            
 6.15E-02  15%   9.179 NAA+NAAG                                            
 8.48E-02  16%  12.645 Glu+Gln                                             
 5.36E-02  16%   8.000 Cr+PCr                                              
 6.15E-02  15%   9.179 NAA+NAAG                                            
 5.36E-02  16%   8.000 Cr+PCr                                              
 8.48E-02  16%  12.645 Glu+Gln                                             
   6 lines in following misc. output table
  FWHM = 0.081 ppm    S/N =   1                                            
  Data shift =-0.012 ppm                                                   
  Ph:  31 deg       4.0 deg/ppm                                            
  alphaB,S = 3.1E+01,   3.3E+01                                            
   18 spline knots.   Ns = 7(2)                                            
   2 inflections.     2 extrema                                            
  654 points on ppm-axis = NY
      4.000000     3.994181     3.988363     3.982544     3.976726     3.970907     3.965088     3.959270     3.953451     3.947633
      3.941814     3.935995     3.930177     3.924358     3.918540     3.912721     3.906902     3.901084     3.895265     3.889446
      3.883628     3.877809     3.871991     3.866172     3.860353     3.854535     3.848716     3.842898     3.837079     3.831260
      3.825442     3.819623     3.813805     3.807986     3.802167     3.796349     3.790530     3.784712     3.778893     3.773074
      3.767256     3.761437     3.755619     3.749800     3.743981     3.738163     3.732344     3.726526     3.720707     3.714888
      3.709070     3.703251     3.697433     3.691614     3.685795     3.679977     3.674158     3.668339     3.662521     3.656702
      3.650884     3.645065     3.639246     3.633428     3.627609     3.621791     3.615972     3.610153     3.604335     3.598516
      3.592698     3.586879     3.581060     3.575242     3.569423     3.563605     3.557786     3.551967     3.546149     3.540330
      3.534512     3.528693     3.522874     3.517056     3.511237     3.505419     3.499600     3.493781     3.487963     3.482144
      3.476326     3.470507     3.464688     3.458870     3.453051     3.447232     3.441414     3.435595     3.429777     3.423958
      3.418139     3.412321     3.406502     3.400684     3.394865     3.389046     3.383228     3.377409     3.371591     3.365772
      3.359953     3.354135     3.348316     3.342498     3.336679     3.330860     3.325042     3.319223     3.313405     3.307586
      3.301767     3.295949     3.290130     3.284312     3.278493     3.272674     3.266856     3.261037     3.255219     3.249400
      3.243581     3.237763     3.231944     3.226125     3.220307     3.214488     3.208670     3.202851     3.197032     3.191214
      3.185395     3.179577     3.173758     3.167939     3.162121     3.156302     3.150484     3.144665     3.138846     3.133028
      3.127209     3.121391     3.115572     3.109753     3.103935     3.098116     3.092298     3.086479     3.080660     3.074842
      3.069023     3.063205     3.057386     3.051567     3.045749     3.039930     3.034111     3.028293     3.022474     3.016656
      3.010837     3.005018     2.999200     2.993381     2.987563     2.981744     2.975925     2.970107     2.964288     2.958470
      2.952651     2.946832     2.941014     2.935195     2.929377     2.923558     2.917739     2.911921     2.906102     2.900284
      2.894465     2.888646     2.882828     2.877009     2.871191     2.865372     2.859553     2.853735     2.847916     2.842098
      2.836279     2.830460     2.824642     2.818823     2.813004     2.807186     2.801367     2.795549     2.789730     2.783911
      2.778093     2.772274     2.766456     2.760637     2.754818     2.749000     2.743181     2.737363     2.731544     2.725725
      2.719907     2.714088     2.708270     2.702451     2.696632     2.690814     2.684995     2.679177     2.673358     2.667539
      2.661721     2.655902     2.650084     2.644265     2.638446     2.632628     2.626809     2.620991     2.615172     2.609353
      2.603535     2.597716     2.591897     2.586079     2.580260     2.574442     2.568623     2.562804     2.556986     2.551167
      2.545349     2.539530     2.533711     2.527893     2.522074     2.516256     2.510437     2.504618     2.498800     2.492981
      2.487163     2.481344     2.475525     2.469707     2.463888     2.458070     2.452251     2.446432     2.440614     2.434795
      2.428977     2.423158     2.417339     2.411521     2.405702     2.399884     2.394065     2.388246     2.382428     2.376609
      2.370790     2.364972     2.359153     2.353335     2.347516     2.341697     2.335879     2.330060     2.324242     2.318423
      2.312604     2.306786     2.300967     2.295149     2.289330     2.283511     2.277693     2.271874     2.266056     2.260237
      2.254418     2.248600     2.242781     2.236963     2.231144     2.225325     2.219507     2.213688     2.207870     2.202051
      2.196232     2.190414     2.184595     2.178777     2.172958     2.167139     2.161321     2.155502     2.149683     2.143865
      2.138046     2.132228     2.126409     2.120590     2.114772     2.108953     2.103135     2.097316     2.091497     2.085679
      2.079860     2.074042     2.068223     2.062404     2.056586     2.050767     2.044949     2.039130     2.033311     2.027493
      2.021674     2.015856     2.010037     2.004218     1.998400     1.992581     1.986763     1.980944     1.975126     1.969307
      1.963489     1.957670     1.951852     1.946033     1.940215     1.934397     1.928578     1.922760     1.916941     1.911123
      1.905304     1.899486     1.893667     1.887849     1.882030     1.876212     1.870393     1.864575     1.858756     1.852938
      1.847119     1.841301     1.835482     1.829664     1.823845     1.818027     1.812208     1.806390     1.800571     1.794753
      1.788934     1.783116     1.777297     1.771479     1.765660     1.759842     1.754023     1.748205     1.742386     1.736568
      1.730749     1.724931     1.719113     1.713294     1.707476     1.701657     1.695839     1.690020     1.684202     1.678383
      1.672565     1.666746     1.660928     1.655109     1.649291     1.643472     1.637654     1.631835     1.626017     1.620198
      1.614380     1.608561     1.602743     1.596924     1.591106     1.585287     1.579469     1.573650     1.567832     1.562013
      1.556195     1.550376     1.544558     1.538739     1.532921     1.527102     1.521284     1.515465     1.509647     1.503829
      1.498010     1.492192     1.486373     1.480555     1.474736     1.468918     1.463099     1.457281     1.451462     1.445644
      1.439825     1.434007     1.428188     1.422370     1.416551     1.410733     1.404914     1.399096     1.393277     1.387459
      1.381640     1.375822     1.370003     1.364185     1.358366     1.352548     1.346729     1.340911     1.335092     1.329274
      1.323455     1.317637     1.311818     1.306000     1.300182     1.294363     1.288545     1.282726     1.276908     1.271089
      1.265271     1.259452     1.253634     1.247815     1.241997     1.236178     1.230360     1.224541     1.218723     1.212904
      1.207086     1.201267     1.195449     1.189630     1.183812     1.177993     1.172175     1.166356     1.160538     1.154719
      1.148901     1.143082     1.137264     1.131445     1.125627     1.119808     1.113990     1.108171     1.102353     1.096534
      1.090716     1.084898     1.079079     1.073261     1.067442     1.061624     1.055805     1.049987     1.044168     1.038350
      1.032531     1.026713     1.020894     1.015076     1.009257     1.003439     0.997620     0.991802     0.985983     0.980165
      0.974346     0.968528     0.962709     0.956891     0.951072     0.945254     0.939435     0.933617     0.927798     0.921980
      0.916161     0.910343     0.904524     0.898706     0.892887     0.887069     0.881251     0.875432     0.869614     0.863795
      0.857977     0.852158     0.846340     0.840521     0.834703     0.828884     0.823066     0.817247     0.811429     0.805610
      0.799792     0.793973     0.788155     0.782336     0.776518     0.770699     0.764881     0.759062     0.753244     0.747425
      0.741607     0.735788     0.729970     0.724151     0.718333     0.712514     0.706696     0.700877     0.695059     0.689240
      0.683422     0.677603     0.671785     0.665967     0.660148     0.654330     0.648511     0.642693     0.636874     0.631056
      0.625237     0.619419     0.613600     0.607782     0.601963     0.596145     0.590326     0.584508     0.578689     0.572871
      0.567052     0.561234     0.555415     0.549597     0.543778     0.537960     0.532141     0.526323     0.520504     0.514686
      0.508867     0.503049     0.497230     0.491412     0.485593     0.479775     0.473956     0.468138     0.462319     0.456501
      0.450682     0.444864     0.439045     0.433227     0.427408     0.421590     0.415771     0.409953     0.404134     0.398316
      0.392497     0.386679     0.380860     0.375042     0.369223     0.363405     0.357586     0.351767     0.345949     0.340130
      0.334312     0.328493     0.322675     0.316856     0.311038     0.305219     0.299401     0.293582     0.287764     0.281945
      0.276127     0.270308     0.264490     0.258671     0.252853     0.247034     0.241216     0.235397     0.229579     0.223760
      0.217942     0.212123     0.206305     0.200486
 NY phased data points follow
  -3.51173E-02 -1.72402E-01 -2.33068E-01 -2.77375E-01 -1.02255E-01 -1.57323E-01 -1.91012E-01 -2.32824E-02 -3.16235E-01 -2.49803E-01
  -8.22908E-02  1.09770E-01 -3.67059E-02  3.12186E-01  3.31646E-01  8.78582E-02  1.76550E-01  2.52075E-01  1.14653E-01 -2.50821E-02
  -8.52798E-02  6.98797E-02  2.27446E-01 -2.57200E-02  4.24177E-01  2.28910E-01  8.99183E-02  8.01138E-02 -9.40671E-02  8.45955E-02
  -9.36075E-02 -3.22974E-01 -3.29272E-01 -1.74598E-01 -1.19198E-02 -1.83273E-01 -5.03810E-01 -8.19851E-02 -1.12177E-01 -2.49913E-01
  -1.09298E-01  4.42565E-02  3.47979E-03 -4.62774E-02  7.49857E-02  9.37837E-02  3.71585E-01  4.52348E-03  1.51561E-01  5.18553E-01
   3.36028E-01  4.65491E-01  4.13213E-01 -8.28411E-03 -1.74459E-01  3.32151E-02  8.39424E-02  1.87080E-01 -4.56369E-02 -2.22845E-01
   1.47057E-01  1.32974E-01  2.05920E-02 -3.93038E-01 -3.62891E-01 -3.79956E-02 -4.89197E-01 -3.47243E-01 -1.61877E-01 -7.76131E-02
   6.26350E-02  5.95427E-02  3.12370E-02 -1.52922E-01 -2.71209E-01 -1.85246E-01  7.71119E-02  6.88649E-02 -8.24314E-02 -8.70149E-02
   2.09770E-01 -4.89584E-03 -2.58194E-01 -9.20260E-02  1.29845E-01 -9.58161E-02 -2.62885E-01 -4.78354E-02 -1.14208E-01  5.80977E-02
   1.08609E-01  2.72684E-01  3.72199E-01  3.09147E-01  1.32691E-01  1.42587E-02  1.27687E-01  8.08033E-02  7.27037E-02  3.13525E-01
   1.31362E-01 -3.51319E-02 -1.88469E-02 -1.57639E-02  2.97272E-01 -2.96920E-01 -4.14703E-02  2.64952E-01 -4.54087E-02 -1.67537E-01
   4.60373E-02  2.38878E-01 -3.86345E-03  2.51906E-01  6.44957E-02  4.24220E-01  1.96895E-01  2.72023E-01  5.45282E-01  5.04877E-01
   5.96305E-01  1.04061E-01  1.78707E-01 -3.26569E-02  2.20115E-01  6.58945E-02  1.43227E-01  4.41906E-01  4.43246E-01  3.23484E-01
  -2.88985E-01 -1.23925E-01 -2.06602E-01 -2.01893E-01 -2.22680E-01 -5.96268E-01 -5.84600E-01 -4.69360E-01 -4.37388E-01 -3.08738E-01
  -4.25831E-01 -3.18282E-01 -2.97582E-01 -4.71335E-01 -2.94128E-01 -4.42156E-01 -3.09302E-01 -2.86829E-01 -2.49483E-01 -1.52462E-01
  -2.56038E-01  7.54400E-02  1.09831E-01  2.42481E-02  2.89020E-01  4.05271E-01  1.98702E-01 -7.19189E-02  1.12935E-01  1.41044E-01
   3.83571E-01  4.47578E-01  4.59002E-02  4.11028E-01  5.20952E-01  6.14685E-01  5.54182E-01  6.90468E-01  5.29944E-01  2.41815E-01
   3.87746E-01 -1.66340E-01 -2.11846E-02  4.14307E-02  3.76635E-02  2.36958E-01  9.94949E-02 -1.73907E-01 -3.20099E-01 -2.43081E-01
  -3.90828E-01 -4.24232E-01 -6.46449E-02 -3.03562E-01 -7.47000E-01 -2.17352E-01 -4.82315E-01 -3.55574E-01  8.15894E-02 -1.91724E-01
  -3.62127E-01 -2.87360E-01 -3.32131E-02  3.54223E-02 -1.87769E-01 -4.85678E-01  1.22856E-02 -1.96019E-01 -4.45563E-01 -5.84602E-01
  -7.01499E-03  1.08169E-01 -5.55137E-01  9.33467E-02 -2.27646E-01 -5.26857E-02  1.52001E-02 -2.30765E-01 -2.17343E-01 -1.32387E-01
  -3.94038E-02 -3.47630E-01  1.08776E-01  1.42914E-01  1.84821E-02 -2.29783E-01 -1.61365E-01 -3.78906E-01 -3.14151E-01  1.03165E-01
  -9.18630E-02  3.00337E-01  2.04060E-01  1.06420E-01 -5.64215E-02 -1.31378E-01  3.44772E-01  4.26915E-01  4.20345E-02 -1.68130E-01
   2.22803E-01  2.42023E-01  1.27429E-02  3.24906E-01  6.49360E-01  3.10025E-01 -3.47636E-02  8.63192E-02 -1.51768E-02 -4.49821E-02
   1.22083E-01  1.25108E-01  6.84507E-02 -2.43809E-01 -1.30306E-02  4.31996E-02 -1.42684E-02  9.21196E-02 -5.54093E-03 -1.21953E-02
  -5.24930E-01  3.49183E-03  1.73995E-01 -5.75488E-02  1.41912E-01 -6.95227E-02  1.93472E-01 -1.17095E-01 -2.14280E-01  2.64666E-02
  -6.00965E-02 -1.23792E-01 -1.90986E-01 -5.99240E-02 -7.30496E-02 -1.83493E-01 -5.01670E-02  4.66496E-02  1.85281E-01  3.47474E-01
   1.43232E-01  3.14133E-02 -6.68443E-03  2.04458E-01  1.83403E-01  1.36458E-01  1.66638E-01  1.42687E-01  2.80855E-01  4.05348E-03
  -4.48569E-02 -7.96095E-02  1.39665E-01 -4.63705E-02 -2.04473E-01  2.26931E-01  3.57130E-02 -1.08460E-01 -1.17342E-01  3.14886E-01
   3.05732E-01  1.19554E-01  2.62246E-01  3.03760E-01  3.30091E-01  1.81982E-01  2.27703E-01 -6.30166E-03  3.16011E-01  1.48219E-01
   2.10476E-01  4.32315E-01 -1.85694E-01  8.51278E-02 -5.42506E-02  1.61301E-01  1.78461E-01  4.66274E-02  1.35119E-01  8.74220E-02
   3.85403E-01 -9.08287E-02 -1.31773E-02  3.28316E-01  4.30567E-01  2.18762E-01 -3.03513E-02 -6.76113E-02  8.32255E-02  2.77336E-01
   2.30825E-02  6.27815E-02 -2.84680E-01 -3.90453E-01 -1.44057E-02 -1.17549E-01 -2.42686E-01 -7.89883E-02 -2.33600E-01 -3.01792E-01
  -4.79193E-02 -4.48834E-02 -1.46588E-01 -3.01794E-02  6.26653E-02 -1.31228E-01 -2.57293E-01 -3.04839E-01 -5.54755E-03  3.72525E-02
  -4.41185E-02 -4.26141E-01 -7.16807E-01 -7.14060E-01 -6.57219E-01 -2.62641E-01 -4.89118E-01 -5.31998E-01 -2.25005E-01 -1.97894E-03
  -5.43787E-01 -5.88623E-01 -1.21496E-01 -2.97016E-01 -1.24553E-01 -7.97658E-02 -9.01387E-02 -1.11901E-01 -1.52685E-01  9.34471E-02
   9.63123E-02 -7.16046E-02  4.27777E-01  1.26858E-01 -2.33840E-01  8.87744E-02  1.28358E-01  5.67456E-02 -4.23670E-02  1.21462E-01
   1.47690E-01  4.55324E-01 -3.30986E-02 -1.25098E-02  1.89283E-01  3.27790E-02  3.69078E-01  2.06324E-01  1.76036E-01 -6.31310E-02
   4.13525E-01  2.47176E-01  1.04770E-01  3.98869E-01  6.43277E-02  1.94971E-01  1.33552E-01  2.35876E-01  1.68810E-01  3.04948E-01
   1.28944E-01  4.95093E-02  2.11311E-01  7.99775E-03  2.81062E-01  8.33245E-02  3.09744E-01  1.25022E-01 -1.59470E-01  4.76565E-01
   1.09143E-02 -1.57165E-02 -1.13409E-02 -2.11904E-01  3.20504E-01  1.32697E-03 -1.55984E-02 -5.86388E-02 -1.46136E-01  1.22824E-01
  -6.23488E-02 -7.20156E-03 -2.72628E-01 -2.88643E-01 -2.33001E-01 -2.24581E-01  1.92960E-01 -5.66296E-02 -7.11108E-02 -1.05498E-01
  -4.01180E-01  3.98643E-02  1.77888E-02 -1.98045E-01 -6.80481E-02 -1.46290E-01 -9.19597E-02 -1.28874E-01 -7.63573E-02 -3.37052E-01
  -4.39090E-01 -2.03954E-01 -3.11341E-01 -5.06042E-02 -1.25661E-01 -1.25484E-01  8.76594E-03 -9.21005E-03 -1.05299E-01 -1.78961E-01
   1.48104E-01 -2.55901E-02  7.84251E-02  9.42973E-02  1.67920E-02  2.09607E-01 -4.92832E-03  2.07726E-01  2.20296E-01 -1.08274E-01
   2.31898E-02 -4.01918E-02  1.82280E-01  4.35112E-01  9.12878E-04  6.71209E-02  1.87576E-01  1.21693E-01  1.63926E-01  3.39825E-01
   3.91981E-01  2.04674E-01  2.19013E-01  1.54112E-01  1.98485E-01  6.97643E-02 -5.15013E-02 -3.62409E-02  2.17381E-02  7.60987E-03
  -2.44883E-01 -2.41658E-01 -2.62660E-02 -9.46285E-02 -1.08686E-01 -1.47603E-03 -4.83681E-02 -5.01273E-02 -2.18915E-01 -1.51321E-01
  -1.65781E-01 -1.90533E-01 -2.87183E-01 -2.70797E-01 -7.95205E-02 -1.77764E-01 -3.17360E-02 -2.55227E-02 -4.76225E-02  8.54196E-02
   3.82077E-01  1.17030E-01 -1.80866E-01  5.94308E-02  2.01246E-01  3.66795E-02 -1.71386E-01  9.15992E-02  2.06860E-01  2.24058E-01
  -1.61743E-01 -1.51135E-01  2.12034E-01  3.37769E-01  4.22439E-01 -1.02680E-01  1.37341E-01  2.44099E-01 -3.45117E-01 -4.34884E-02
  -4.55589E-02 -1.27694E-01  2.17499E-01  3.01920E-01  3.52468E-01  7.76298E-02  2.11191E-01  1.09854E-01 -1.20471E-01  6.99529E-02
  -5.33074E-02  1.17296E-01 -7.21634E-02 -1.96100E-01 -2.83102E-01 -3.01331E-01 -2.43374E-01 -4.40476E-01  3.77520E-02  1.21420E-02
  -1.66300E-01 -9.75041E-02 -2.34730E-01 -1.70482E-01 -2.60139E-02 -1.49683E-01 -4.10374E-01 -2.20824E-01 -1.53506E-01 -1.92690E-01
  -1.94871E-01 -1.15517E-01  1.62574E-01  2.44597E-01 -7.06613E-02 -2.04994E-01  1.45230E-01  3.95540E-01  2.13692E-01 -2.58639E-01
   1.74199E-02  2.64219E-01 -1.38365E-01 -6.18735E-02  4.17820E-01  1.90701E-01 -2.20682E-02 -1.18376E-02 -1.83323E-01  1.31721E-01
  -4.67606E-02  9.79081E-02  2.39568E-01  6.26495E-02  6.62639E-02 -6.16071E-02  5.81618E-02 -1.00248E-01 -8.39804E-02 -1.17079E-01
   6.26312E-03  2.50722E-01  1.38491E-01 -1.64431E-01 -1.56682E-01  1.74244E-01  2.41864E-01  1.99942E-01  9.29504E-02  1.51488E-01
   5.02698E-02  1.45310E-01 -3.18366E-02 -1.12347E-01  1.62533E-01 -1.58029E-01  2.53695E-02  2.14198E-02 -1.89615E-01 -8.85440E-02
  -7.10591E-02 -7.54624E-02 -2.38851E-01  1.18534E-01  5.72822E-02 -1.12040E-01  2.28398E-02 -1.42898E-03  1.83451E-01  7.91028E-02
   1.78766E-01  8.33196E-02 -2.82455E-01 -3.68688E-01 -3.10077E-02 -7.49939E-02 -8.59462E-02  3.21476E-01 -3.90494E-02 -3.40015E-01
  -3.42961E-01 -2.37048E-01 -2.81788E-01  9.03824E-02  1.28432E-01 -1.02230E-01 -7.09348E-02 -4.05688E-01 -2.29480E-01 -1.37041E-01
  -1.97206E-01 -1.63800E-01  1.90149E-01  2.47499E-01 -3.95575E-02  8.29382E-02  8.41675E-02  6.68230E-02  1.13796E-01  8.48366E-02
   5.81497E-02  1.32662E-01  1.13739E-01 -1.30418E-01 -4.69516E-02 -9.24796E-02 -3.87652E-01 -1.18454E-01  4.64712E-02  1.19024E-01
  -7.73237E-02 -1.32676E-02  1.96118E-01  9.40469E-02  1.27918E-01  2.01938E-01  3.63498E-01  2.32606E-01  5.54561E-02 -1.96890E-01
  -1.28177E-01  4.29450E-02  3.41023E-01  1.22660E-01
 NY points of the fit to the data follow
   1.09912E-01  7.94627E-02  3.57242E-02  1.28326E-02 -2.88064E-02 -2.79774E-02 -6.50984E-02 -3.23098E-02 -4.93717E-02 -3.80012E-03
   8.12522E-03  4.90067E-02  7.66835E-02  1.07290E-01  1.65376E-01  1.59665E-01  2.44832E-01  1.96896E-01  2.86938E-01  2.16562E-01
   2.98838E-01  2.20079E-01  2.93357E-01  1.99381E-01  2.71151E-01  1.59203E-01  1.96358E-01  9.23432E-02  8.85701E-02  6.86861E-03
  -2.40213E-02 -7.86226E-02 -1.16587E-01 -1.49635E-01 -1.59786E-01 -1.84994E-01 -1.75196E-01 -1.85305E-01 -1.48685E-01 -1.42258E-01
  -8.74614E-02 -6.60721E-02 -1.22689E-02  1.96469E-02  6.21165E-02  9.68539E-02  1.32239E-01  1.64648E-01  1.96085E-01  2.22980E-01
   2.26117E-01  2.49205E-01  2.14605E-01  2.14746E-01  1.54622E-01  1.20251E-01  5.68319E-02 -1.25725E-02 -5.21394E-02 -1.33512E-01
  -1.59529E-01 -2.17492E-01 -2.22974E-01 -2.58584E-01 -2.41066E-01 -2.33741E-01 -2.10888E-01 -1.53784E-01 -1.39062E-01 -5.38291E-02
  -4.79309E-02  2.51333E-02  8.13190E-03  6.99628E-02  1.60347E-02  7.95398E-02  8.11021E-03  4.67169E-02 -2.71359E-02 -1.43865E-02
  -6.46223E-02 -8.02037E-02 -7.78239E-02 -1.01201E-01 -6.44094E-02 -5.95356E-02 -2.26254E-02  7.30721E-03  4.28258E-02  8.11977E-02
   1.26472E-01  1.50758E-01  1.89389E-01  1.97744E-01  2.15565E-01  1.94181E-01  1.93928E-01  1.35911E-01  1.30829E-01  5.58719E-02
   8.06706E-02  9.08962E-04  5.44880E-02 -1.18214E-02  5.40255E-02 -2.65607E-03  6.90015E-02  2.67759E-02  1.03967E-01  9.09340E-02
   1.58565E-01  1.74242E-01  2.23504E-01  2.48480E-01  2.84641E-01  2.95464E-01  3.37675E-01  3.11587E-01  3.67763E-01  3.09629E-01
   3.59141E-01  2.79236E-01  3.12123E-01  2.45806E-01  2.23257E-01  2.11509E-01  1.10533E-01  1.68956E-01 -2.01359E-02  8.60764E-02
  -1.58457E-01 -3.15147E-02 -2.76106E-01 -1.32283E-01 -3.78563E-01 -2.52571E-01 -4.58815E-01 -3.64218E-01 -4.84783E-01 -4.11668E-01
  -4.39616E-01 -4.04321E-01 -3.58821E-01 -3.77150E-01 -2.90848E-01 -3.46791E-01 -2.26281E-01 -2.71463E-01 -1.56364E-01 -1.67899E-01
  -8.34150E-02 -6.99677E-02 -2.21458E-02 -5.64864E-03  2.17212E-02  4.29151E-02  7.67010E-02  1.17657E-01  1.62202E-01  2.32116E-01
   2.67125E-01  3.39363E-01  3.50579E-01  3.94756E-01  4.00523E-01  4.29425E-01  4.03856E-01  3.78138E-01  3.33394E-01  2.51416E-01
   2.19796E-01  1.19503E-01  1.06099E-01  7.53807E-03 -2.31833E-03 -1.08988E-01 -1.23905E-01 -2.51508E-01 -2.36998E-01 -3.34031E-01
  -2.93334E-01 -3.39636E-01 -2.90900E-01 -2.97865E-01 -2.51136E-01 -2.33880E-01 -2.12020E-01 -2.08265E-01 -1.94028E-01 -1.91284E-01
  -1.82066E-01 -1.77760E-01 -1.71467E-01 -1.66562E-01 -1.59602E-01 -1.54112E-01 -1.45846E-01 -1.41093E-01 -1.31515E-01 -1.25361E-01
  -1.15596E-01 -1.08764E-01 -1.00466E-01 -9.47156E-02 -8.83833E-02 -8.30349E-02 -7.84806E-02 -7.44694E-02 -7.14584E-02 -6.89652E-02
  -6.74986E-02 -6.98916E-02 -6.97775E-02 -7.43054E-02 -7.40895E-02 -7.95537E-02 -8.14669E-02 -8.39718E-02 -8.44526E-02 -8.04718E-02
  -7.81963E-02 -6.84658E-02 -5.98185E-02 -3.75455E-02 -2.41601E-02  5.00223E-03  1.43289E-02  4.28066E-02  5.07846E-02  7.82769E-02
   7.96262E-02  1.04879E-01  9.42136E-02  1.13034E-01  9.37067E-02  9.80838E-02  7.72125E-02  7.04082E-02  5.01634E-02  3.74960E-02
   1.10334E-02 -1.97724E-03 -3.02491E-02 -3.97340E-02 -6.25076E-02 -7.07887E-02 -8.97648E-02 -9.43488E-02 -1.08539E-01 -1.02686E-01
  -1.24194E-01 -1.06775E-01 -1.32152E-01 -1.10759E-01 -1.33993E-01 -1.06938E-01 -1.32417E-01 -1.00736E-01 -1.24861E-01 -9.00477E-02
  -1.12493E-01 -7.30086E-02 -9.29118E-02 -4.17337E-02 -6.47197E-02  5.98899E-03 -2.26282E-02  5.68990E-02  3.39942E-02  1.03306E-01
   8.78549E-02  1.31776E-01  1.17833E-01  1.36346E-01  1.15314E-01  1.16434E-01  9.12840E-02  7.31846E-02  5.70206E-02  2.17793E-02
   1.79860E-02 -2.72304E-02 -1.82591E-02 -5.37610E-02 -3.93183E-02 -5.04535E-02 -3.21799E-02 -2.54135E-02 -3.59842E-03  1.12054E-02
   3.30990E-02  5.71406E-02  7.48794E-02  1.09605E-01  1.21410E-01  1.55502E-01  1.59609E-01  1.81149E-01  1.75407E-01  1.83726E-01
   1.71509E-01  1.73016E-01  1.60361E-01  1.61692E-01  1.54628E-01  1.55858E-01  1.54423E-01  1.54517E-01  1.50251E-01  1.50618E-01
   1.34366E-01  1.33651E-01  9.96099E-02  9.26027E-02  4.24748E-02  2.40392E-02 -3.41241E-02 -6.29434E-02 -1.17567E-01 -1.50375E-01
  -1.92358E-01 -2.18522E-01 -2.45530E-01 -2.52328E-01 -2.68733E-01 -2.54233E-01 -2.59751E-01 -2.34265E-01 -1.97378E-01 -1.80566E-01
  -1.09962E-01 -1.11826E-01 -1.95245E-02 -4.51331E-02  1.89871E-02 -3.07208E-02 -1.62040E-02 -7.87977E-02 -8.89108E-02 -1.57791E-01
  -2.27971E-01 -2.83562E-01 -3.80012E-01 -3.99017E-01 -4.70491E-01 -4.48476E-01 -4.95764E-01 -4.40861E-01 -4.94818E-01 -4.15579E-01
  -4.75936E-01 -3.77869E-01 -3.82878E-01 -2.86159E-01 -2.46605E-01 -1.72452E-01 -1.18221E-01 -7.25706E-02 -2.69466E-02 -7.35530E-03
  -1.39792E-03  6.21241E-03  5.86791E-03  9.39287E-03  7.20934E-03  8.85564E-03  6.41067E-03  7.54559E-03  5.48950E-03  6.54140E-03
   5.87218E-03  6.99538E-03  8.24786E-03  9.86323E-03  1.28464E-02  1.51406E-02  1.92247E-02  2.19526E-02  2.62795E-02  2.89092E-02
   3.30414E-02  3.51104E-02  3.90024E-02  4.04945E-02  4.42099E-02  4.53581E-02  4.88302E-02  4.99947E-02  5.29957E-02  5.45498E-02
   5.70440E-02  5.90431E-02  6.07521E-02  6.28564E-02  6.36586E-02  6.55881E-02  6.54670E-02  6.71147E-02  6.59218E-02  6.70012E-02
   6.47953E-02  6.49171E-02  6.17410E-02  6.08064E-02  5.69383E-02  5.50552E-02  5.07939E-02  4.82397E-02  4.38064E-02  4.07119E-02
   3.64506E-02  3.29304E-02  2.90001E-02  2.52804E-02  2.17699E-02  1.79976E-02  1.49620E-02  1.12606E-02  8.93080E-03  5.41510E-03
   3.75602E-03  7.80705E-04 -4.45085E-04 -2.64724E-03 -3.45173E-03 -4.92153E-03 -5.33385E-03 -6.01797E-03 -5.94120E-03 -5.94857E-03
  -5.47059E-03 -4.92155E-03 -3.98075E-03 -2.88401E-03 -1.21442E-03  4.92046E-04  3.04211E-03  5.38455E-03  8.91573E-03  1.20175E-02
   1.65113E-02  2.06385E-02  2.61779E-02  3.12757E-02  3.77995E-02  4.37162E-02  5.07572E-02  5.73054E-02  6.42164E-02  7.08826E-02
   7.69147E-02  8.30294E-02  8.76892E-02  9.27581E-02  9.55893E-02  9.92117E-02  9.95702E-02  1.01422E-01  9.92815E-02  9.93325E-02
   9.51880E-02  9.35460E-02  8.78902E-02  8.48131E-02  7.82092E-02  7.39632E-02  6.69329E-02  6.19388E-02  5.50859E-02  4.98222E-02
   4.37012E-02  3.85541E-02  3.35398E-02  2.90670E-02  2.54732E-02  2.19898E-02  1.97840E-02  1.75442E-02  1.65767E-02  1.57235E-02
   1.58154E-02  1.62758E-02  1.73708E-02  1.88766E-02  2.09005E-02  2.29209E-02  2.54568E-02  2.78163E-02  3.04084E-02  3.28654E-02
   3.50965E-02  3.72683E-02  3.87874E-02  4.05155E-02  4.11127E-02  4.21971E-02  4.19716E-02  4.24429E-02  4.15033E-02  4.13480E-02
   3.98539E-02  3.91988E-02  3.72820E-02  3.62990E-02  3.41449E-02  3.28593E-02  3.09229E-02  2.94800E-02  2.80317E-02  2.64479E-02
   2.54676E-02  2.38103E-02  2.29159E-02  2.10163E-02  1.97004E-02  1.73133E-02  1.52787E-02  1.21154E-02  8.73354E-03  4.44692E-03
  -7.82062E-04 -6.40219E-03 -1.36785E-02 -2.06016E-02 -2.95534E-02 -3.74273E-02 -4.73684E-02 -5.56545E-02 -6.60132E-02 -7.39428E-02
  -8.36737E-02 -9.06277E-02 -9.88664E-02 -1.04416E-01 -1.10413E-01 -1.14267E-01 -1.17596E-01 -1.19635E-01 -1.20479E-01 -1.20698E-01
  -1.19236E-01 -1.17727E-01 -1.14426E-01 -1.11423E-01 -1.06669E-01 -1.02490E-01 -9.67975E-02 -9.18874E-02 -8.57382E-02 -8.03425E-02
  -7.37971E-02 -6.81256E-02 -6.15365E-02 -5.56966E-02 -4.93346E-02 -4.33744E-02 -3.75130E-02 -3.18990E-02 -2.65658E-02 -2.16359E-02
  -1.69654E-02 -1.26877E-02 -8.90112E-03 -5.29462E-03 -2.19558E-03  7.95225E-04  3.32637E-03  5.69059E-03  7.74227E-03  9.74375E-03
   1.13517E-02  1.31400E-02  1.44622E-02  1.59328E-02  1.70361E-02  1.82371E-02  1.91688E-02  2.00858E-02  2.08817E-02  2.17788E-02
   2.23507E-02  2.33130E-02  2.36590E-02  2.43731E-02  2.46731E-02  2.50166E-02  2.54205E-02  2.54300E-02  2.57527E-02  2.55992E-02
   2.57157E-02  2.55402E-02  2.55057E-02  2.54087E-02  2.52097E-02  2.53706E-02  2.48604E-02  2.51922E-02  2.44513E-02  2.50320E-02
   2.42988E-02  2.52238E-02  2.46110E-02  2.57348E-02  2.53203E-02  2.64804E-02  2.63465E-02  2.73103E-02  2.75809E-02  2.81544E-02
   2.89022E-02  2.90264E-02  3.01551E-02  2.99413E-02  3.13654E-02  3.11234E-02  3.26561E-02  3.25226E-02  3.40107E-02  3.40403E-02
   3.54177E-02  3.56377E-02  3.70263E-02  3.75920E-02  3.87768E-02  3.96586E-02  4.04425E-02  4.16407E-02  4.22169E-02  4.34956E-02
   4.39859E-02  4.51691E-02  4.55923E-02  4.66511E-02  4.70232E-02  4.78488E-02  4.83648E-02  4.90984E-02  4.97432E-02  5.04995E-02
   5.13331E-02  5.22083E-02  5.32969E-02  5.43702E-02  5.55693E-02  5.69492E-02  5.83136E-02  6.02069E-02  6.17300E-02  6.40095E-02
   6.55348E-02  6.81315E-02  6.94913E-02  7.24883E-02
 NY background values follow
     5.640E-02    5.621E-02    5.603E-02    5.585E-02    5.567E-02    5.548E-02    5.530E-02    5.512E-02    5.494E-02    5.475E-02
     5.457E-02    5.439E-02    5.420E-02    5.402E-02    5.384E-02    5.366E-02    5.347E-02    5.329E-02    5.311E-02    5.292E-02
     5.274E-02    5.256E-02    5.238E-02    5.219E-02    5.201E-02    5.183E-02    5.165E-02    5.146E-02    5.128E-02    5.110E-02
     5.091E-02    5.073E-02    5.055E-02    5.037E-02    5.018E-02    5.000E-02    4.982E-02    4.963E-02    4.945E-02    4.927E-02
     4.909E-02    4.890E-02    4.872E-02    4.854E-02    4.836E-02    4.817E-02    4.799E-02    4.781E-02    4.762E-02    4.744E-02
     4.726E-02    4.708E-02    4.689E-02    4.671E-02    4.653E-02    4.634E-02    4.616E-02    4.598E-02    4.580E-02    4.561E-02
     4.543E-02    4.525E-02    4.507E-02    4.488E-02    4.470E-02    4.452E-02    4.433E-02    4.415E-02    4.397E-02    4.379E-02
