 
 $NMID
 ID=''
 FMTDAT='(2E13.5)'
 TRAMP=   1.00000E+0
 VOLUME=   1.00000E+0
 $END
  -5.08323E+2  -6.93537E+0
  -7.45436E+1   3.40217E+2
  -3.89948E+3  -5.30424E+2
  -1.54875E+3   3.10255E+3
   1.58820E+3   3.58734E+3
   3.21471E+3   4.22776E+3
   5.17427E+3   4.87637E+3
   5.77707E+3   2.04416E+3
   3.17945E+3  -5.54430E+2
   7.13444E+2  -5.46600E+3
   2.03072E+3  -6.72920E+3
   4.32357E+3  -4.41112E+3
   1.99499E+3  -5.29378E+2
  -3.09863E+3   2.43535E+3
  -4.34072E+3   7.46067E+2
  -2.94570E+2  -1.12156E+3
  -1.56969E+3  -3.40709E+2
  -8.26323E+2  -4.07203E+2
  -4.43195E+2  -2.83697E+3
   1.32702E+3   1.58154E+3
  -4.78157E+2  -1.24834E+3
  -3.34834E+2  -1.05288E+3
  -7.88038E+2   3.62383E+0
  -4.45746E+3  -3.28804E+2
  -3.64205E+3  -4.69061E+2
   1.15319E+3   3.20224E+2
  -1.41555E+3  -5.92172E+2
  -3.50850E+3  -7.87939E+2
  -6.86228E+3  -2.84924E+3
   1.36187E+2  -7.46803E+3
   3.72714E+3  -1.31299E+2
   1.35076E+3   3.87241E+3
  -2.80757E+3   1.59294E+3
  -2.62413E+3  -2.05790E+3
  -3.76959E+2  -5.76494E+2
  -4.22034E+3  -3.11459E+2
  -1.74580E+3  -5.23147E+3
   2.39449E+3  -3.93911E+3
   1.76348E+3  -2.95633E+3
   2.14613E+3  -1.95630E+3
   4.71140E+3   3.37838E+3
  -6.07239E+2   3.02220E+3
  -6.81285E+3  -2.25952E+3
  -6.91848E+2  -6.15778E+3
  -5.04016E+2  -4.63194E+3
   6.71918E+2  -1.95042E+3
  -6.08173E+2  -1.45237E+3
   1.13295E+3  -5.39595E+1
   2.38953E+3   3.35456E+3
  -5.42081E+2   3.94116E+3
  -4.74409E+3   2.44885E+3
  -6.30666E+3  -1.44657E+3
  -1.80386E+2  -4.63540E+3
   2.66640E+3  -2.78187E+3
   9.41783E+2   8.14105E+2
   2.28150E+2   4.73940E+3
  -1.32281E+3   4.50634E+3
  -5.23886E+3   4.35000E+3
  -5.92576E+3  -3.63670E+2
  -2.26317E+3  -5.05005E+3
   2.15114E+3  -5.20923E+3
   4.09963E+3  -3.23274E+3
   4.17223E+3   3.65080E+3
  -2.16603E+3   1.39708E+3
   3.13475E+2  -1.08120E+3
   7.53636E+2  -6.13158E+3
   3.51919E+3   1.61352E+2
   1.32851E+3   2.53720E+3
   1.26635E+3   3.27813E+3
  -2.36993E+2   1.66475E+3
  -1.23624E+3   2.52933E+3
  -5.41695E+2   4.36139E+2
  -3.64064E+2  -1.54972E+3
   9.08243E+2   1.08914E+3
   3.50526E+3   1.86214E+3
   1.50025E+3   2.16079E+3
   1.45581E+3   4.58104E+3
  -4.71975E+2   1.18728E+3
  -1.50455E+3  -1.85306E+3
   2.98915E+3  -4.08530E+3
   1.53110E+3  -1.59042E+2
   1.62673E+3   1.26703E+3
   3.09336E+3   2.64546E+2
   3.00734E+3   2.86250E+3
  -8.35762E+2   4.36601E+3
  -4.88086E+3   4.26901E+2
  -4.80207E+3  -2.06748E+3
   6.41936E+2  -4.48923E+3
   2.65674E+3  -2.52116E+3
   3.75352E+3   6.33261E+2
   1.77083E+3   3.17372E+3
   2.66124E+3  -1.55146E+2
   1.11370E+3  -1.77922E+3
   2.18221E+3   9.82096E+1
   5.03698E+1   5.39447E+2
  -1.30874E+1  -1.15211E+3
   8.48764E+2   6.28243E+2
   2.78394E+3   7.76772E+2
   8.36676E+2   1.58973E+3
  -9.79088E+2   9.43778E+2
  -2.13238E+3  -1.38071E+3
   1.20857E+3  -3.90725E+3
   4.21260E+3  -3.39174E+3
   3.40268E+3   1.50617E+3
   2.58111E+3   1.06064E+3
   1.12024E+3   3.09497E+3
  -7.63482E+2   2.28445E+3
  -3.85017E+2   2.14421E+3
  -1.38969E+3   1.26295E+3
  -2.11387E+3  -1.37512E+3
   2.54512E+3  -3.23921E+3
   3.52967E+3  -4.63047E+3
   3.71830E+3  -2.63248E+2
   6.22177E+2   7.10561E+2
   1.46577E+3   2.83331E+3
  -7.61303E+2   2.21809E+3
  -2.22392E+3   3.52806E+2
  -2.28018E+3  -1.99337E+3
  -1.26069E+3  -1.16716E+3
   2.35150E+3  -1.08457E+3
   2.05666E+3   2.35364E+2
   1.67898E+3   1.24540E+3
  -2.31261E+3   3.06148E+3
  -1.18738E+3   9.52983E+2
  -1.88955E+3  -1.88720E+3
   1.08160E+3  -2.28241E+3
  -8.28925E+2  -3.31301E+3
   1.26077E+3  -3.56676E+3
   3.27733E+3  -7.60452E+2
   7.27770E+2   6.18045E+2
  -9.19382E+2   4.62930E+3
  -4.36429E+2   3.48172E+2
  -3.18370E+2  -3.03647E+3
   1.66426E+2  -1.37848E+3
   1.34683E+3  -7.73904E+2
   1.48596E+3   2.02732E+3
   7.25120E+2   1.24956E+1
   1.42025E+1   1.81455E+3
   8.42512E+2   1.89435E+3
   6.43469E+2   1.65917E+3
  -1.46658E+3  -1.30536E+3
  -2.25932E+3  -1.34727E+3
   1.50825E+1  -3.55482E+3
   2.18533E+3  -1.71862E+3
   9.12733E+2  -1.01958E+2
   1.38529E+3  -3.63111E+2
  -6.68538E+2   1.23829E+3
   9.33131E+2   1.42007E+3
  -2.18322E+3  -4.67883E+2
   7.98881E+2   6.60346E+2
  -1.91524E+3   2.33368E+3
  -9.32153E+2   1.03082E+3
  -2.36256E+2   6.60629E+2
  -1.37888E+3  -1.25960E+3
  -2.86990E+2  -1.76902E+3
   1.38790E+3   2.66298E+3
   6.88027E+1   8.86697E+2
   1.83527E+3   8.17949E+2
  -1.05674E+3   2.35429E+3
  -2.56943E+3   2.26464E+3
  -1.10757E+3  -2.04571E+2
  -3.28106E+2  -5.27445E+2
  -1.90535E+3  -6.28298E+2
   8.52862E+2  -7.86554E+2
   1.16349E+3  -4.82013E+2
   1.02487E+3   2.24145E+3
  -3.68407E+2   2.91058E+3
  -2.32272E+3   1.36335E+2
  -1.01243E+3   2.17846E+3
  -1.73049E+3  -8.21599E+2
  -9.25921E+2   8.63799E+2
  -5.50206E+2  -8.05627E+2
   1.36171E+1  -5.06352E+2
  -4.32714E+2   2.35939E+2
   1.09366E+3  -1.53763E+3
   5.80463E+2   1.91566E+3
  -4.23279E+2   3.07424E+3
  -9.37489E+2   2.33178E+3
  -8.39150E+2  -2.71201E+2
  -1.57863E+3   8.57876E+2
  -2.33764E+3  -1.64430E+3
  -1.10801E+3   4.11410E+2
  -1.84123E+3  -1.36963E+3
   3.32445E-1  -1.15855E+3
   2.36975E+3  -5.96097E+2
   2.24013E+2  -5.61551E+2
   1.35042E+3   1.26030E+3
   1.10214E+3   7.04961E+2
  -1.01532E+3   1.79060E+3
  -1.83377E+3  -1.02139E+2
  -5.39815E+2  -2.31886E+2
   9.72650E+2  -7.63984E+2
   1.98319E+3  -2.03497E+3
   1.77267E+3   2.58908E+2
  -1.86407E+3   9.34406E+2
   5.29537E+2   4.61425E+2
   2.44975E+2   2.35127E+3
   6.09656E+2   1.13583E+3
   1.21082E+3   1.15659E+3
  -1.57988E+3  -5.84870E+2
   2.19386E+2  -1.18320E+3
   7.24686E+2   1.93318E+3
  -1.03777E+3   1.11016E+3
  -1.18344E+3  -1.06321E+2
   5.06847E+2  -3.83007E+2
   2.75357E+3  -1.09586E+3
  -2.06073E+2   2.22584E+3
  -5.14013E+1   2.79474E+2
  -4.34411E+2   2.65126E+3
   2.12140E+1   1.15969E+3
   7.43550E+2   6.74760E+2
  -4.85798E+2   1.89396E+3
   6.01563E+2  -1.03205E+3
  -4.38978E+2  -2.20890E+3
   1.95512E+3  -5.75311E+2
   3.19003E+3  -3.54789E+2
  -1.28567E+2   1.88150E+3
   1.59932E+3  -9.70565E+2
  -6.65040E+2   1.60474E+3
  -2.31143E+3   2.00451E+2
  -1.08294E+3   1.08917E+3
  -1.90529E+2  -1.48698E+2
  -2.41977E+2   2.19698E+2
  -4.04889E+2   6.36966E+2
   4.18406E+2  -1.09243E+3
  -1.40449E+3  -4.25709E+2
   8.14837E+2   1.04219E+3
  -1.29682E+3  -4.00588E+2
   7.52516E+2   1.74396E+3
   4.50496E+2   1.18557E+3
   4.15028E+2   1.70221E+3
   4.67126E+2  -1.10816E+3
   6.27877E+0   1.63126E+3
  -8.98856E+2  -9.66334E+2
  -3.27773E+3   3.00870E+2
  -1.01337E+2  -1.24123E+3
   1.42423E+3   2.33492E+2
  -2.10083E+3  -9.93495E+2
  -1.09909E+3  -2.17044E+3
   4.50357E+2   6.86606E+2
  -1.19105E+3   2.32200E+3
  -1.93031E+3  -8.65409E+2
  -1.18867E+3   1.16891E+3
  -1.62398E+3  -1.03548E+3
  -2.50694E+3  -6.42020E+2
  -2.89613E+3  -6.73249E+2
   9.29252E+2   2.51224E+2
   2.21811E+2  -5.85994E+2
  -9.35231E+2  -2.98576E+2
  -1.47527E+2  -1.59651E+3
   2.35778E+3  -6.59471E+2
  -4.92183E+2   3.54452E+2
   1.70970E+2   2.09561E+3
   7.71450E+2   2.16934E+3
  -6.13730E+2   5.66672E+2
  -1.61310E+3   9.29624E+2
  -1.54818E+2  -9.78530E+2
  -7.57953E+2  -2.75270E+1
  -5.46485E+2  -9.99884E+2
  -1.09793E+2  -1.16555E+3
   1.65341E+3  -2.24617E+3
   1.77655E+2  -1.06503E+3
  -2.81606E+2  -4.72115E+2
   1.78672E+2  -3.58488E+2
   1.04117E+2  -1.21296E+3
   9.46553E+1   2.14699E+3
  -2.55298E+2   8.87977E+1
  -1.14074E+3   1.69284E+2
  -1.50054E+3  -7.59484E+2
   3.52170E+2   8.65327E+2
  -7.84274E+2  -6.25215E+2
  -1.02951E+3  -1.58789E+3
  -8.05097E+2  -1.03555E+3
   1.27714E+3  -1.74883E+3
   1.15064E+3   1.52986E+3
   4.40200E+1   1.96439E+2
  -2.92078E+2   1.49627E+3
   7.06212E+2  -3.49924E+1
   1.33066E+2   1.14938E+3
  -5.25262E+2  -6.02639E+1
  -2.15469E+1   2.17211E+2
   2.26480E+1  -1.15304E+3
   1.78273E+2   6.54437E+2
   3.16232E+2  -1.09111E+3
   5.62244E+1   1.99463E+3
   6.35918E+2   3.74811E+1
  -1.35181E+2  -2.77983E+3
   2.36460E+3   1.59206E+3
   8.47733E+2   2.08945E+3
   1.07338E+3  -2.16847E+1
   6.28432E+2  -2.84159E+1
  -8.78690E+2   1.23709E+3
  -8.17978E+2  -6.97468E+2
  -1.98853E+3  -1.04341E+3
  -1.60982E+3  -1.73003E+3
   3.76089E+2  -8.60276E+2
  -1.36808E+3   5.25076E+2
   1.40703E+3  -2.27421E+2
   1.03769E+3  -4.93327E+2
  -1.34033E+3  -1.98775E+3
   3.95806E+1  -9.00333E+2
  -2.66237E+0  -8.74678E+2
   6.29420E+2   3.36121E+2
  -7.17424E+2   1.11692E+3
   1.57930E+3   6.60027E+2
   1.40378E+2   3.28011E+2
  -1.81265E+3  -3.79356E+2
  -9.26830E+2  -1.86478E+3
  -2.49620E+2  -2.36015E+3
   5.74313E+2   1.53383E+3
  -1.53042E+2   1.04094E+3
   6.56111E+2   1.20883E+2
   9.43130E+1  -4.61722E+2
   3.29392E+2   5.38268E+2
   6.38798E+2  -1.29861E+3
  -5.51418E+2   3.64604E+2
   2.77148E+2   1.37166E+3
   7.73202E+2  -4.24934E+2
   6.29192E+2  -4.14381E+2
  -4.81821E+2  -8.43738E+2
  -8.77171E+2  -1.16359E+3
  -1.23158E+3  -7.40557E+1
  -1.67467E+3  -1.86743E+3
   1.28971E+3   3.28574E+2
  -7.91698E+2  -8.36382E+2
  -7.78088E+2   5.84862E+2
   1.60881E+3   9.07406E+2
   4.63678E+2   6.93420E+2
   7.49075E+2   1.38217E+3
  -6.47281E+1   1.15237E+3
   3.76514E+1   4.14599E+2
   2.11955E+3  -9.47208E+2
  -5.39003E+2   1.23710E+1
   1.45908E+3  -6.43082E+2
  -8.01618E+2   2.98173E+2
  -6.12527E+2  -1.54014E+3
   5.06864E+2  -1.02096E+3
   8.11337E+2  -1.22298E+3
  -1.33013E+2   4.38796E+2
   1.30856E+3   1.69635E+2
   6.49057E+2  -1.75972E+2
  -8.91004E+1   2.73453E+3
   4.10701E+2   2.91835E+2
   1.12716E+3  -1.11481E+3
  -1.65109E+3   1.57406E+3
   3.05581E+2  -1.43775E+1
   3.68527E+2  -1.90047E+3
  -3.62376E+2   9.76174E+1
   4.39114E+2  -7.58457E+2
   1.23220E+3  -1.18514E+3
  -1.08619E+3  -1.04873E+3
   7.48667E+2   3.78959E+2
   5.55006E+2  -1.13819E+3
   1.03092E+3  -8.81938E+2
  -1.38090E+3  -7.30075E+2
  -1.09203E+2  -2.00969E+2
   2.57456E+3  -1.26990E+2
  -7.15082E+2   1.20792E+2
   3.64043E+2  -9.71091E+2
  -6.62740E+2   1.60499E+3
  -6.19078E+2   1.55521E+2
   5.74935E+1   8.35196E+2
   1.68670E+3   2.23933E+2
  -2.02353E+3  -1.41043E+2
   4.62336E+2   8.18776E+2
   1.43866E+3   3.82486E+2
  -1.15801E+3  -1.83633E+2
