 LCModel (Version 6.3-1N) Copyright: S.W. Provencher.          Ref.: Magn. Reson. Med. 30:672-679 (1993).                
 Slice_N1@17_11  02-Jun-2023 14:36:49
 27 lines in following concentration table = NCONC+1
    Conc.  %SD /Cr+PCr  Metabolite                                         
 2.22E-06  14% 2.8E-04 Mac                                                 
 2.74E-02  25%   3.408 Cr                                                  
 3.69E-02  19%   4.592 PCr                                                 
 7.35E-02  10%   9.150 Ins                                                 
 8.34E-02   7%  10.386 NAA                                                 
 6.00E-02  11%   7.475 Tau                                                 
 1.18E-02  15%   1.464 PCho                                                
    0.000 999%   0.000 GPC                                                 
 7.74E-02  11%   9.644 Glu                                                 
 1.71E-02  35%   2.132 Gln                                                 
    0.000 999%   0.000 Ala                                                 
 2.87E-02  39%   3.569 Asc                                                 
 1.22E-02  54%   1.514 Asp                                                 
 1.07E-02  33%   1.333 GABA                                                
 8.04E-03  54%   1.002 Glc                                                 
 8.15E-03  42%   1.015 GSH                                                 
 4.26E-03 150%   0.530 Lac                                                 
    0.000 999%   0.000 NAAG                                                
    0.000 999%   0.000 PE                                                  
 1.18E-02  15%   1.464 GPC+PCho                                            
 8.34E-02   7%  10.386 NAA+NAAG                                            
 9.45E-02  11%  11.776 Glu+Gln                                             
 6.42E-02   9%   8.000 Cr+PCr                                              
 8.34E-02   7%  10.386 NAA+NAAG                                            
 6.42E-02   9%   8.000 Cr+PCr                                              
 9.45E-02  11%  11.776 Glu+Gln                                             
   6 lines in following misc. output table
  FWHM = 0.017 ppm    S/N =   5                                            
  Data shift =-0.006 ppm                                                   
  Ph: -55 deg      -6.2 deg/ppm                                            
  alphaB,S = 5.0E-01,   8.0E+00                                            
   18 spline knots.   Ns = 5(1)                                            
  ( 3) 2 infls.   ( 1) 1 extrs.                                            
  654 points on ppm-axis = NY
      4.000000     3.994181     3.988363     3.982544     3.976726     3.970907     3.965088     3.959270     3.953451     3.947633
      3.941814     3.935995     3.930177     3.924358     3.918540     3.912721     3.906902     3.901084     3.895265     3.889446
      3.883628     3.877809     3.871991     3.866172     3.860353     3.854535     3.848716     3.842898     3.837079     3.831260
      3.825442     3.819623     3.813805     3.807986     3.802167     3.796349     3.790530     3.784712     3.778893     3.773074
      3.767256     3.761437     3.755619     3.749800     3.743981     3.738163     3.732344     3.726526     3.720707     3.714888
      3.709070     3.703251     3.697433     3.691614     3.685795     3.679977     3.674158     3.668339     3.662521     3.656702
      3.650884     3.645065     3.639246     3.633428     3.627609     3.621791     3.615972     3.610153     3.604335     3.598516
      3.592698     3.586879     3.581060     3.575242     3.569423     3.563605     3.557786     3.551967     3.546149     3.540330
      3.534512     3.528693     3.522874     3.517056     3.511237     3.505419     3.499600     3.493781     3.487963     3.482144
      3.476326     3.470507     3.464688     3.458870     3.453051     3.447232     3.441414     3.435595     3.429777     3.423958
      3.418139     3.412321     3.406502     3.400684     3.394865     3.389046     3.383228     3.377409     3.371591     3.365772
      3.359953     3.354135     3.348316     3.342498     3.336679     3.330860     3.325042     3.319223     3.313405     3.307586
      3.301767     3.295949     3.290130     3.284312     3.278493     3.272674     3.266856     3.261037     3.255219     3.249400
      3.243581     3.237763     3.231944     3.226125     3.220307     3.214488     3.208670     3.202851     3.197032     3.191214
      3.185395     3.179577     3.173758     3.167939     3.162121     3.156302     3.150484     3.144665     3.138846     3.133028
      3.127209     3.121391     3.115572     3.109753     3.103935     3.098116     3.092298     3.086479     3.080660     3.074842
      3.069023     3.063205     3.057386     3.051567     3.045749     3.039930     3.034111     3.028293     3.022474     3.016656
      3.010837     3.005018     2.999200     2.993381     2.987563     2.981744     2.975925     2.970107     2.964288     2.958470
      2.952651     2.946832     2.941014     2.935195     2.929377     2.923558     2.917739     2.911921     2.906102     2.900284
      2.894465     2.888646     2.882828     2.877009     2.871191     2.865372     2.859553     2.853735     2.847916     2.842098
      2.836279     2.830460     2.824642     2.818823     2.813004     2.807186     2.801367     2.795549     2.789730     2.783911
      2.778093     2.772274     2.766456     2.760637     2.754818     2.749000     2.743181     2.737363     2.731544     2.725725
      2.719907     2.714088     2.708270     2.702451     2.696632     2.690814     2.684995     2.679177     2.673358     2.667539
      2.661721     2.655902     2.650084     2.644265     2.638446     2.632628     2.626809     2.620991     2.615172     2.609353
      2.603535     2.597716     2.591897     2.586079     2.580260     2.574442     2.568623     2.562804     2.556986     2.551167
      2.545349     2.539530     2.533711     2.527893     2.522074     2.516256     2.510437     2.504618     2.498800     2.492981
      2.487163     2.481344     2.475525     2.469707     2.463888     2.458070     2.452251     2.446432     2.440614     2.434795
      2.428977     2.423158     2.417339     2.411521     2.405702     2.399884     2.394065     2.388246     2.382428     2.376609
      2.370790     2.364972     2.359153     2.353335     2.347516     2.341697     2.335879     2.330060     2.324242     2.318423
      2.312604     2.306786     2.300967     2.295149     2.289330     2.283511     2.277693     2.271874     2.266056     2.260237
      2.254418     2.248600     2.242781     2.236963     2.231144     2.225325     2.219507     2.213688     2.207870     2.202051
      2.196232     2.190414     2.184595     2.178777     2.172958     2.167139     2.161321     2.155502     2.149683     2.143865
      2.138046     2.132228     2.126409     2.120590     2.114772     2.108953     2.103135     2.097316     2.091497     2.085679
      2.079860     2.074042     2.068223     2.062404     2.056586     2.050767     2.044949     2.039130     2.033311     2.027493
      2.021674     2.015856     2.010037     2.004218     1.998400     1.992581     1.986763     1.980944     1.975126     1.969307
      1.963489     1.957670     1.951852     1.946033     1.940215     1.934397     1.928578     1.922760     1.916941     1.911123
      1.905304     1.899486     1.893667     1.887849     1.882030     1.876212     1.870393     1.864575     1.858756     1.852938
      1.847119     1.841301     1.835482     1.829664     1.823845     1.818027     1.812208     1.806390     1.800571     1.794753
      1.788934     1.783116     1.777297     1.771479     1.765660     1.759842     1.754023     1.748205     1.742386     1.736568
      1.730749     1.724931     1.719113     1.713294     1.707476     1.701657     1.695839     1.690020     1.684202     1.678383
      1.672565     1.666746     1.660928     1.655109     1.649291     1.643472     1.637654     1.631835     1.626017     1.620198
      1.614380     1.608561     1.602743     1.596924     1.591106     1.585287     1.579469     1.573650     1.567832     1.562013
      1.556195     1.550376     1.544558     1.538739     1.532921     1.527102     1.521284     1.515465     1.509647     1.503829
      1.498010     1.492192     1.486373     1.480555     1.474736     1.468918     1.463099     1.457281     1.451462     1.445644
      1.439825     1.434007     1.428188     1.422370     1.416551     1.410733     1.404914     1.399096     1.393277     1.387459
      1.381640     1.375822     1.370003     1.364185     1.358366     1.352548     1.346729     1.340911     1.335092     1.329274
      1.323455     1.317637     1.311818     1.306000     1.300182     1.294363     1.288545     1.282726     1.276908     1.271089
      1.265271     1.259452     1.253634     1.247815     1.241997     1.236178     1.230360     1.224541     1.218723     1.212904
      1.207086     1.201267     1.195449     1.189630     1.183812     1.177993     1.172175     1.166356     1.160538     1.154719
      1.148901     1.143082     1.137264     1.131445     1.125627     1.119808     1.113990     1.108171     1.102353     1.096534
      1.090716     1.084898     1.079079     1.073261     1.067442     1.061624     1.055805     1.049987     1.044168     1.038350
      1.032531     1.026713     1.020894     1.015076     1.009257     1.003439     0.997620     0.991802     0.985983     0.980165
      0.974346     0.968528     0.962709     0.956891     0.951072     0.945254     0.939435     0.933617     0.927798     0.921980
      0.916161     0.910343     0.904524     0.898706     0.892887     0.887069     0.881251     0.875432     0.869614     0.863795
      0.857977     0.852158     0.846340     0.840521     0.834703     0.828884     0.823066     0.817247     0.811429     0.805610
      0.799792     0.793973     0.788155     0.782336     0.776518     0.770699     0.764881     0.759062     0.753244     0.747425
      0.741607     0.735788     0.729970     0.724151     0.718333     0.712514     0.706696     0.700877     0.695059     0.689240
      0.683422     0.677603     0.671785     0.665967     0.660148     0.654330     0.648511     0.642693     0.636874     0.631056
      0.625237     0.619419     0.613600     0.607782     0.601963     0.596145     0.590326     0.584508     0.578689     0.572871
      0.567052     0.561234     0.555415     0.549597     0.543778     0.537960     0.532141     0.526323     0.520504     0.514686
      0.508867     0.503049     0.497230     0.491412     0.485593     0.479775     0.473956     0.468138     0.462319     0.456501
      0.450682     0.444864     0.439045     0.433227     0.427408     0.421590     0.415771     0.409953     0.404134     0.398316
      0.392497     0.386679     0.380860     0.375042     0.369223     0.363405     0.357586     0.351767     0.345949     0.340130
      0.334312     0.328493     0.322675     0.316856     0.311038     0.305219     0.299401     0.293582     0.287764     0.281945
      0.276127     0.270308     0.264490     0.258671     0.252853     0.247034     0.241216     0.235397     0.229579     0.223760
      0.217942     0.212123     0.206305     0.200486
 NY phased data points follow
  -1.90517E-01 -5.21689E-02  4.53008E-02 -7.14448E-03  5.43217E-03 -4.74654E-02 -1.03586E-01  5.40720E-02 -4.02512E-02 -1.30290E-01
  -7.86757E-02  2.31160E-01  2.32016E-01  1.87788E-01  3.30843E-01  1.06883E-01  1.68248E-01  1.16725E-01  2.19725E-01  1.94613E-01
  -9.97642E-02 -4.51807E-02  7.42116E-02  2.61074E-01 -2.41510E-01  1.22401E-03  1.23428E-01 -2.71988E-01  1.27413E-01 -6.37341E-02
  -8.37337E-03 -1.05283E-01 -1.80190E-03  1.15482E-01 -3.46554E-01 -3.27698E-01 -2.59759E-01 -2.07885E-01 -4.86687E-01 -4.87680E-01
  -1.71442E-01  7.86625E-02  2.61612E-01  2.63665E-01  2.85205E-01  2.58331E-01  3.18739E-01  5.42086E-01  4.24065E-01  1.53459E-01
   2.20714E-01  3.10693E-01  2.26507E-01  1.56156E-01  2.46207E-01 -1.55916E-01 -2.13761E-01 -1.93335E-02 -2.65930E-01 -3.56475E-01
  -2.55491E-01 -3.18240E-01 -4.46662E-01 -2.02514E-01 -1.97280E-01 -4.01941E-01 -3.97256E-01 -7.98530E-02  1.64839E-01  3.80334E-01
   2.72702E-02  2.44012E-01  4.76196E-01 -3.68949E-01  6.75753E-02  1.61972E-01 -1.48406E-01 -1.63721E-01 -3.00838E-01 -3.35354E-01
  -4.95177E-01 -3.99441E-01 -1.62289E-02  3.98941E-01  1.07594E-01  7.55408E-02  4.83378E-01  2.90465E-01  1.54815E-01  3.49033E-01
   2.16794E-01  2.30909E-01  1.61977E-01  1.41976E-01  2.28961E-01 -3.03411E-02 -1.86767E-01 -5.75524E-02  1.41046E-01 -1.75851E-01
  -1.24357E-01 -2.12032E-01 -3.70028E-01 -1.40188E-02  8.87964E-02  1.91940E-01  2.27825E-01  3.97773E-01  5.12639E-01  3.96096E-01
   3.44694E-01  3.35460E-01  4.56093E-01  3.40290E-01  2.97904E-01  3.22901E-01  8.68238E-02  2.22811E-01  2.39714E-01  2.89503E-01
   1.22962E-01  2.80454E-01  6.32205E-01  5.81072E-02 -8.54441E-02  8.40015E-02  1.48152E-01 -1.16367E-02 -1.66028E-01 -1.75657E-01
  -5.85011E-01 -8.80405E-01 -4.07704E-01 -4.45227E-01 -5.20485E-01 -4.98126E-01 -7.23083E-01 -6.65886E-01 -8.44333E-01 -3.13080E-01
  -2.93192E-01 -2.24544E-02  1.71157E-01 -1.16300E-01 -1.28586E-01 -4.61593E-02  2.04986E-01 -1.02575E-01  3.70973E-01  1.88417E-01
   1.34213E-01  2.25481E-01  4.13808E-02  3.09234E-01  2.24036E-01  4.59532E-01  4.23180E-01  2.68454E-01  2.03706E-01  3.77990E-01
   3.05451E-01  2.99358E-01  6.66631E-01  7.54329E-01  6.42145E-01  7.15971E-01  9.19879E-01  6.63343E-01  9.11217E-02 -5.91664E-01
  -9.47622E-01 -6.64522E-01 -2.73140E-01 -5.03770E-01 -4.15329E-01 -4.18258E-01 -7.35455E-01 -5.80758E-01 -5.32994E-01 -4.06638E-01
  -4.60832E-01 -4.94455E-01 -4.33705E-01 -3.72026E-01 -5.28345E-02 -1.74884E-01 -3.00955E-01 -3.50635E-01 -3.13288E-01 -1.61104E-01
  -1.63204E-01 -2.39623E-01 -2.92630E-01  1.39466E-01 -2.74975E-01 -2.83919E-01  2.13772E-02 -1.22144E-01  1.01806E-01 -2.13837E-01
  -8.66998E-02 -5.28621E-02 -8.26289E-02  8.98795E-03  4.12211E-02 -2.51205E-01 -2.24652E-01  4.29662E-02 -1.06777E-01  1.93908E-01
  -1.89818E-01 -9.93781E-02  3.79855E-02 -1.56548E-01  1.11037E-02 -1.89440E-01 -6.61803E-02  1.24601E-02 -2.26195E-01 -8.57170E-02
   9.69934E-02  1.93438E-02  7.59756E-02  1.63713E-01  1.06537E-01  6.31627E-02  4.88546E-01  4.13430E-01  2.51490E-01  4.86536E-01
   6.07480E-01  5.37253E-01  2.78756E-01  4.17138E-01  1.51331E-01  2.19939E-03  1.04391E-02 -6.32334E-02  1.60119E-02 -1.16778E-01
   1.09925E-01  2.29037E-02 -4.40602E-02  3.08178E-02 -3.23735E-01 -1.73544E-01 -4.70803E-02  7.75194E-02  4.41634E-02  3.51816E-02
   1.65902E-01 -2.19929E-01 -1.97006E-02 -3.82433E-02 -2.67214E-02 -4.30923E-02 -2.30406E-01  5.95262E-02  7.73713E-03  2.52067E-01
   1.04905E-01 -1.11067E-01  9.72403E-02 -2.80094E-01 -1.02735E-01  2.82045E-01  1.24706E-01  1.53338E-01  2.75243E-01  1.99635E-01
  -1.35838E-01  5.02212E-02  8.03276E-02 -2.09340E-01 -2.51250E-01 -1.82028E-01 -1.41348E-01 -3.03395E-01 -1.37098E-01 -2.34098E-01
  -1.48593E-01 -2.14741E-01 -3.40018E-01 -2.93041E-01 -1.45739E-01  1.15405E-01  8.49245E-02  5.29994E-01  4.75065E-01  4.17751E-01
   4.44523E-01  1.61004E-02 -1.51836E-01  1.07384E-01  1.14035E-01  5.24705E-02  3.71858E-01  3.08533E-01  1.32104E-01 -9.69601E-02
   3.22849E-02  1.77712E-01  1.29069E-01  5.91900E-02  8.07760E-02  4.84706E-01  3.52195E-01  1.50041E-01  3.73783E-01  1.72899E-01
   1.10671E-01  5.99862E-01  5.21379E-01  1.37303E-01  2.94436E-02  4.82184E-02  2.30315E-01 -8.45665E-02 -2.92068E-01 -1.09378E-01
  -3.66845E-01 -2.47543E-01 -2.20335E-01 -4.14951E-01 -2.18490E-01 -3.46742E-02 -1.42562E-01  3.04620E-02  2.92544E-01  9.22276E-02
   4.24664E-01  2.76733E-01  1.37505E-02  2.43975E-02 -2.15028E-01 -1.44125E-01 -1.75346E-01 -2.71332E-01 -2.77524E-01 -2.07703E-01
  -4.70198E-01 -7.02346E-01 -9.37024E-01 -1.75511E+00 -1.81311E+00 -7.42727E-01 -1.41956E-01 -1.50895E-01 -1.93908E-01  7.34400E-03
   7.10273E-02  1.09933E-01  1.04926E-01  2.50044E-01  4.15972E-01  1.51769E-01  2.77340E-01 -1.93872E-01 -2.96608E-02  2.06950E-01
   4.61028E-02  3.14830E-01  2.67350E-01  2.19943E-01 -1.28781E-01  3.36514E-02 -1.42543E-01 -5.08072E-02  2.22247E-01  8.98108E-02
   3.29587E-01  2.78838E-01 -1.64653E-02 -4.35242E-02  3.15641E-01  6.63527E-02  7.69717E-02  3.78662E-01  2.43633E-01  2.49792E-01
   3.08732E-01  7.44295E-02  2.08710E-01  3.69384E-01  1.65602E-01  2.98946E-01  6.96108E-02 -6.69177E-02  1.25336E-01  3.46580E-01
   2.91736E-01  2.29424E-01  2.03048E-01 -7.13765E-02  3.95785E-01  2.20159E-01  1.06353E-01  3.80622E-01 -6.50004E-02  1.39149E-01
  -7.55795E-02 -1.04150E-01 -7.00263E-02 -2.87657E-01  7.53165E-02 -1.12261E-01  6.76181E-03  2.33598E-02 -1.66902E-01 -2.12655E-01
  -1.65500E-01 -1.13046E-01 -1.24419E-01  3.96709E-02 -1.59362E-01 -3.22530E-01 -2.79883E-01 -1.54220E-03  8.08379E-02 -1.52555E-01
  -2.61982E-01 -2.48978E-01 -2.66640E-01 -1.58295E-01 -2.02038E-01 -2.91393E-01 -2.70402E-01 -2.03879E-01 -1.82374E-01 -3.17385E-01
  -5.90475E-02 -3.18106E-01 -2.66923E-01  2.92933E-02  4.12283E-02  2.04639E-01 -5.15023E-02 -1.51298E-02  1.96108E-02  1.36716E-01
   1.22094E-01 -3.11500E-01 -2.72961E-01 -2.02285E-01  7.36556E-02  3.39201E-01  1.72493E-02  5.35348E-02  1.45169E-01  1.84605E-01
   3.00650E-01  4.23137E-01  3.33685E-01  1.19568E-01  2.88205E-01  1.19358E-01 -6.50863E-02 -1.45702E-01 -8.11384E-02  1.07465E-01
   1.30409E-01  7.23038E-02  2.03692E-01  2.85090E-01  1.48973E-01 -1.83205E-03  3.31300E-02  4.18707E-02 -2.53226E-01 -1.08245E-02
  -3.19050E-01 -1.65984E-01  2.58517E-01 -1.58004E-01 -1.30323E-01 -2.00497E-01 -2.11661E-01 -1.85953E-02 -1.23367E-01 -5.67240E-01
  -1.68356E-01 -7.10771E-02 -2.50011E-01  1.40907E-01  7.43719E-02  2.76627E-01  1.22711E-01  1.38543E-01  2.58869E-01 -2.04561E-02
   1.82234E-01 -9.43030E-02 -1.17045E-01  8.12753E-02 -8.20742E-02  2.19552E-01  1.15081E-01  8.55066E-02  2.66569E-01  1.08240E-01
  -1.31253E-01  7.77105E-02  1.89290E-01 -1.44018E-01  9.79913E-03 -4.89509E-02  1.27911E-01 -3.46629E-02  9.38901E-02  5.08126E-01
   1.71122E-01  2.64479E-01  9.51912E-02  1.54708E-03  1.71361E-01  1.95783E-01  2.22489E-01  2.16069E-01  1.13650E-02 -1.08755E-01
  -1.85650E-01 -2.13079E-01 -7.30846E-02  4.24220E-02  4.81348E-02 -3.39277E-01 -2.77803E-01 -2.09884E-01 -5.08972E-01 -3.92233E-01
  -1.40765E-01 -3.78473E-01 -4.07784E-01 -2.78603E-01 -1.03954E-01 -1.10154E-01 -9.39597E-02 -2.33774E-02 -4.03796E-01 -4.57633E-03
  -1.11160E-01 -7.29260E-02 -1.70826E-01 -4.69749E-01  7.04989E-02 -1.32921E-01 -9.58136E-02  1.88854E-01  2.16078E-01  2.88632E-01
   3.24468E-01  1.83410E-01  2.82916E-01 -5.28911E-02  1.13742E-01  3.93027E-01  4.67609E-02  3.50679E-01 -3.59868E-02  1.68180E-01
   3.62817E-01  1.59508E-01  9.43872E-02 -1.10819E-01  4.04465E-01  5.87823E-02 -6.17815E-02  1.08859E-01 -2.39864E-01  2.08313E-01
   2.54714E-01  1.41288E-01  1.00984E-01 -7.66247E-02  9.99657E-02 -3.41078E-02  1.46207E-01  8.34584E-02 -1.85441E-01 -3.82318E-02
   8.55378E-02 -2.18074E-02  9.49930E-02  3.43648E-01  1.20488E-01 -4.11015E-02 -3.13440E-02  1.02732E-01 -2.22465E-01 -1.07614E-01
   2.34892E-01  1.21808E-03 -2.27322E-02  5.66927E-02 -2.64697E-01 -1.04060E-01  1.13256E-01 -2.65268E-01  1.04184E-01 -2.26918E-02
  -2.23333E-01 -8.50176E-02  7.16064E-02 -1.54015E-01 -1.44438E-01  1.58964E-01 -1.94053E-01 -3.40246E-02 -7.02389E-02  3.53260E-02
  -1.49688E-01 -1.23961E-01  1.44492E-01  1.78207E-01  2.10157E-01 -3.90577E-02  2.50983E-01  1.48111E-01 -1.74976E-01 -1.24976E-01
   1.20559E-01  1.57717E-01 -2.95686E-02  1.61429E-02  2.94371E-01 -1.37818E-02 -7.42103E-02  2.76956E-01  2.68663E-02 -1.73347E-01
  -2.18702E-01 -3.97898E-02  4.87544E-02 -4.33380E-02 -1.53669E-01  2.71706E-02 -2.92248E-02  1.57169E-02  1.81806E-01  8.19449E-02
  -1.47255E-01 -6.29029E-02  2.28233E-01 -1.48097E-01  4.10262E-01  1.30540E-01 -1.68590E-01  3.05732E-01 -9.61754E-02  2.16082E-01
   1.09495E-02 -1.28577E-01  3.04493E-02 -2.12702E-01
 NY points of the fit to the data follow
   8.86753E-02  6.70486E-02  3.36985E-02  5.83330E-03 -1.26136E-02 -2.16004E-02 -2.04265E-02 -4.80744E-03  1.38402E-02  2.92074E-02
   8.60292E-02  1.82629E-01  3.28471E-01  4.64897E-01  4.51216E-01  3.06686E-01  2.76179E-01  3.82816E-01  3.47492E-01  1.65119E-01
   5.77819E-02  4.98874E-02  3.13315E-02 -1.22023E-02 -5.09123E-02 -7.68239E-02 -9.30327E-02 -1.07072E-01 -1.19093E-01 -1.30729E-01
  -1.43330E-01 -1.57441E-01 -1.72654E-01 -1.96268E-01 -2.29030E-01 -2.58906E-01 -2.85499E-01 -3.05765E-01 -3.01543E-01 -2.70316E-01
  -1.75697E-01 -5.21747E-02  7.71407E-02  1.73017E-01  2.66158E-01  3.34581E-01  3.41726E-01  3.13739E-01  2.57874E-01  2.24546E-01
   2.01503E-01  1.68845E-01  1.18595E-01  7.61030E-02  4.36832E-02 -9.35708E-03 -6.02263E-02 -1.08673E-01 -1.65996E-01 -2.06556E-01
  -2.69274E-01 -3.06050E-01 -2.89320E-01 -3.06670E-01 -2.44530E-01 -1.74797E-01 -1.47641E-01 -2.54615E-02  1.89561E-01  2.90246E-01
   2.54050E-01  3.09951E-01  3.03394E-01  1.76479E-01  1.08263E-01  4.45018E-02 -3.27500E-02 -1.10039E-01 -2.31059E-01 -3.36069E-01
  -4.34421E-01 -4.30463E-01 -2.11391E-01  3.72979E-02  1.36677E-01  2.15919E-01  3.88772E-01  4.24201E-01  3.20754E-01  2.80463E-01
   2.70010E-01  2.45066E-01  2.21733E-01  1.89103E-01  1.48359E-01  9.34391E-02  3.18102E-02 -5.72915E-02 -1.63738E-01 -2.70683E-01
  -3.38561E-01 -3.00590E-01 -1.64989E-01  1.91679E-02  1.68682E-01  2.46566E-01  2.63314E-01  2.54680E-01  2.60509E-01  2.67310E-01
   2.68878E-01  2.70963E-01  2.70279E-01  2.69088E-01  2.68414E-01  2.69190E-01  2.71165E-01  2.72869E-01  2.63512E-01  2.65593E-01
   2.50418E-01  2.11224E-01  1.84067E-01  9.82679E-02  1.77251E-02  2.30293E-04 -1.06167E-01 -1.79486E-01 -2.39232E-01 -3.00582E-01
  -4.70693E-01 -6.12845E-01 -5.42080E-01 -4.95671E-01 -4.05123E-01 -4.47897E-01 -6.74099E-01 -8.44632E-01 -6.97238E-01 -2.99324E-01
  -1.37291E-01 -1.40267E-01 -8.65320E-02 -3.19950E-02  4.34042E-03  3.38814E-02  6.03311E-02  8.33346E-02  1.03452E-01  1.21497E-01
   1.38567E-01  1.54879E-01  1.72105E-01  1.89596E-01  2.07138E-01  2.27455E-01  2.50497E-01  2.76062E-01  3.05099E-01  3.39328E-01
   3.83360E-01  4.48619E-01  5.41502E-01  5.87339E-01  6.60544E-01  7.30063E-01  7.39996E-01  6.03363E-01  1.11263E-01 -6.13678E-01
  -9.91866E-01 -7.67796E-01 -4.81004E-01 -4.55675E-01 -4.62989E-01 -4.16385E-01 -3.74013E-01 -3.26649E-01 -2.96585E-01 -2.86712E-01
  -2.77554E-01 -2.53523E-01 -2.28149E-01 -2.14055E-01 -2.09554E-01 -2.05329E-01 -1.96462E-01 -1.89087E-01 -1.76743E-01 -1.66720E-01
  -1.60746E-01 -1.52783E-01 -1.40856E-01 -1.29507E-01 -1.20453E-01 -1.10969E-01 -1.01799E-01 -9.18467E-02 -8.21498E-02 -7.21241E-02
  -6.25034E-02 -5.17909E-02 -3.85847E-02 -3.12075E-02 -3.46778E-02 -4.28004E-02 -4.06027E-02 -2.69097E-02 -1.85941E-02 -2.94376E-02
  -5.17104E-02 -6.30997E-02 -5.83014E-02 -5.16514E-02 -4.98424E-02 -4.92086E-02 -4.83129E-02 -4.82236E-02 -4.90607E-02 -4.69593E-02
  -3.40215E-02 -2.20814E-02 -1.50548E-03  3.06556E-02  8.37865E-02  1.80822E-01  2.62323E-01  2.70875E-01  2.28210E-01  2.20833E-01
   3.10066E-01  3.86935E-01  3.14388E-01  1.30815E-01  2.14287E-02  1.65957E-02  1.70342E-03 -2.19672E-02 -3.35285E-02 -4.59159E-02
  -5.58260E-02 -6.52603E-02 -7.17511E-02 -7.54676E-02 -7.89507E-02 -8.13641E-02 -8.71978E-02 -9.07556E-02 -9.45281E-02 -9.89359E-02
  -1.03794E-01 -1.18341E-01 -1.20368E-01 -1.45184E-01 -1.55231E-01 -1.41293E-01 -1.25479E-01 -4.00394E-02  1.93809E-02  3.18775E-02
   4.00810E-02  1.05578E-01  1.58456E-01  1.05638E-01  1.00353E-01  1.19415E-01  1.40673E-01  1.32060E-01  1.05437E-01  1.14937E-01
   1.06488E-01  8.50810E-02  4.76792E-02  1.01088E-02 -2.54708E-02 -6.36069E-02 -1.07270E-01 -1.50192E-01 -2.04692E-01 -2.60824E-01
  -3.05737E-01 -3.53828E-01 -3.44442E-01 -2.74717E-01 -1.53168E-01  1.44182E-02  1.92890E-01  3.26689E-01  3.77788E-01  3.72862E-01
   3.19644E-01  2.45627E-01  2.20688E-01  2.06298E-01  2.00277E-01  2.16469E-01  2.37097E-01  2.57815E-01  2.57011E-01  2.53800E-01
   2.47491E-01  2.37579E-01  2.34058E-01  2.28733E-01  2.23663E-01  2.19845E-01  2.14340E-01  2.07054E-01  1.99362E-01  1.88993E-01
   1.74212E-01  1.55337E-01  1.30616E-01  1.02152E-01  6.29761E-02  2.12433E-02 -3.49212E-02 -9.28280E-02 -1.54850E-01 -2.05705E-01
  -2.41451E-01 -2.68567E-01 -2.70523E-01 -2.56101E-01 -2.12427E-01 -1.50842E-01 -6.86712E-02  1.15844E-02  5.37809E-02  7.55687E-02
   4.73270E-02  1.90371E-02 -3.71804E-02 -7.61590E-02 -1.04434E-01 -1.06361E-01 -8.37232E-02 -1.11926E-01 -1.81921E-01 -2.02730E-01
  -3.88064E-01 -6.62234E-01 -1.15430E+00 -1.71022E+00 -1.65386E+00 -8.68328E-01 -1.76347E-01 -1.87013E-01 -2.39101E-01 -1.17727E-01
  -6.89402E-02 -4.00046E-02 -1.90082E-02 -3.00363E-03  9.76345E-03  1.70668E-02  2.48508E-02  2.75094E-02  2.40217E-02  1.77155E-02
   4.71430E-03 -6.14716E-03 -1.90726E-02 -2.64329E-02 -2.98855E-02 -2.54768E-02 -1.37305E-02 -2.75995E-03  1.08061E-02  1.98512E-02
   2.83824E-02  3.68174E-02  4.30114E-02  4.97548E-02  5.48632E-02  5.83286E-02  6.14429E-02  6.63833E-02  7.09679E-02  7.47047E-02
   7.76657E-02  7.98014E-02  8.28548E-02  8.65597E-02  9.01578E-02  9.22266E-02  9.40746E-02  9.50590E-02  9.70800E-02  1.00743E-01
   1.04685E-01  1.07731E-01  1.09334E-01  1.09635E-01  1.07655E-01  1.04766E-01  1.02127E-01  9.95771E-02  9.67493E-02  9.25106E-02
   8.70192E-02  8.05410E-02  7.40684E-02  6.73293E-02  5.98490E-02  5.26010E-02  4.66706E-02  4.19447E-02  3.56823E-02  2.93400E-02
   2.42923E-02  2.00276E-02  1.61386E-02  1.26677E-02  9.25055E-03  5.48191E-03  2.16875E-03 -8.23547E-04 -3.58531E-03 -5.63152E-03
  -7.02617E-03 -8.30602E-03 -9.41640E-03 -9.29310E-03 -7.37950E-03 -4.80894E-03 -2.48889E-03  9.05636E-04  5.54401E-03  1.00165E-02
   1.43953E-02  1.76183E-02  1.88783E-02  2.12443E-02  2.69655E-02  3.50016E-02  4.27171E-02  4.93766E-02  5.61306E-02  6.36765E-02
   7.30195E-02  8.40706E-02  9.53187E-02  1.06006E-01  1.16685E-01  1.27275E-01  1.37656E-01  1.47046E-01  1.54658E-01  1.58952E-01
   1.60839E-01  1.61255E-01  1.60383E-01  1.58357E-01  1.55049E-01  1.50098E-01  1.46020E-01  1.36405E-01  1.32149E-01  1.25714E-01
   1.29877E-01  1.43691E-01  1.51515E-01  1.45785E-01  1.24473E-01  1.01714E-01  7.75688E-02  6.65040E-02  6.09350E-02  5.07176E-02
   4.41989E-02  3.92079E-02  3.45287E-02  3.09044E-02  2.88234E-02  2.90304E-02  3.14002E-02  3.37611E-02  3.58721E-02  3.92468E-02
   4.40566E-02  4.86448E-02  5.34387E-02  5.85482E-02  6.20949E-02  6.45118E-02  6.63596E-02  6.80555E-02  6.95824E-02  7.15566E-02
   7.44501E-02  7.52436E-02  7.39346E-02  7.15182E-02  6.93021E-02  6.69461E-02  6.34449E-02  5.95653E-02  5.55884E-02  5.30316E-02
   5.02629E-02  4.62310E-02  4.22339E-02  3.85658E-02  3.48844E-02  3.08581E-02  2.67110E-02  2.26864E-02  1.95531E-02  1.73837E-02
   1.45151E-02  9.96468E-03  5.03060E-03  1.19543E-04 -6.51792E-03 -1.49327E-02 -2.34615E-02 -3.19461E-02 -4.11629E-02 -5.33085E-02
  -6.81396E-02 -8.51610E-02 -1.02349E-01 -1.18466E-01 -1.33968E-01 -1.49218E-01 -1.64051E-01 -1.76508E-01 -1.86919E-01 -1.96261E-01
  -2.03781E-01 -2.07338E-01 -2.06658E-01 -2.04401E-01 -2.02484E-01 -1.98442E-01 -1.91004E-01 -1.82807E-01 -1.76277E-01 -1.70184E-01
  -1.63541E-01 -1.56672E-01 -1.48169E-01 -1.38365E-01 -1.28520E-01 -1.18722E-01 -1.07988E-01 -9.67629E-02 -8.70656E-02 -7.76037E-02
  -6.80226E-02 -5.93539E-02 -5.05647E-02 -4.15639E-02 -3.42633E-02 -2.88661E-02 -2.29022E-02 -1.57163E-02 -9.21028E-03 -5.74438E-03
  -3.52839E-03  6.07818E-04  5.27201E-03  7.66457E-03  8.76049E-03  1.07497E-02  1.23185E-02  1.37268E-02  1.51351E-02  1.50427E-02
   1.58742E-02  1.85639E-02  2.13400E-02  2.30518E-02  2.44460E-02  2.61756E-02  2.62006E-02  2.53647E-02  2.56518E-02  2.58188E-02
   2.52539E-02  2.50511E-02  2.51148E-02  2.45755E-02  2.43951E-02  2.49440E-02  2.51500E-02  2.54534E-02  2.60901E-02  2.60886E-02
   2.40838E-02  2.05365E-02  1.92892E-02  2.11939E-02  2.27292E-02  2.11725E-02  2.00901E-02  2.07488E-02  2.04279E-02  1.88548E-02
   1.81261E-02  2.03605E-02  2.26651E-02  2.29954E-02  2.28864E-02  2.39377E-02  2.55374E-02  2.68684E-02  2.74528E-02  2.78973E-02
   2.82716E-02  2.88420E-02  2.82080E-02  2.64376E-02  2.63421E-02  2.77731E-02  2.95331E-02  3.07200E-02  3.20112E-02  3.32302E-02
   3.37542E-02  3.46024E-02  3.69112E-02  3.98445E-02  4.16461E-02  4.14541E-02  4.00196E-02  3.89236E-02  3.94136E-02  4.13916E-02
   4.31852E-02  4.34327E-02  4.24153E-02  4.20380E-02  4.33180E-02  4.48806E-02  4.57588E-02  4.63409E-02  4.65958E-02  4.83651E-02
   5.17679E-02  5.31165E-02  5.32289E-02  5.46653E-02  5.74726E-02  5.98358E-02  6.20794E-02  6.55224E-02  7.02218E-02  7.54545E-02
   7.93547E-02  8.15197E-02  8.45599E-02  8.83699E-02
 NY background values follow
     6.646E-03    6.951E-03    7.257E-03    7.562E-03    7.868E-03    8.173E-03    8.479E-03    8.784E-03    9.090E-03    9.395E-03
     9.700E-03    1.001E-02    1.031E-02    1.062E-02    1.092E-02    1.123E-02    1.153E-02    1.184E-02    1.214E-02    1.244E-02
     1.275E-02    1.305E-02    1.335E-02    1.366E-02    1.396E-02    1.426E-02    1.457E-02    1.487E-02    1.517E-02    1.547E-02
     1.577E-02    1.607E-02    1.637E-02    1.667E-02    1.697E-02    1.727E-02    1.757E-02    1.787E-02    1.817E-02    1.846E-02
     1.876E-02    1.906E-02    1.935E-02    1.965E-02    1.994E-02    2.024E-02    2.053E-02    2.082E-02    2.112E-02    2.141E-02
     2.170E-02    2.199E-02    2.228E-02    2.257E-02    2.286E-02    2.315E-02    2.343E-02    2.372E-02    2.400E-02    2.429E-02
     2.457E-02    2.486E-02    2.514E-02    2.542E-02    2.570E-02    2.598E-02    2.626E-02    2.654E-02    2.682E-02    2.709E-02
