 
 $NMID
 ID=''
 FMTDAT='(2E13.5)'
 TRAMP=   1.00000E+0
 VOLUME=   1.00000E+0
 $END
  -2.04848E+3   1.88163E+4
  -1.86563E+4   4.49294E+4
  -1.02849E+4   4.73941E+4
  -9.07349E+3   4.37167E+4
  -1.03900E+4   4.52566E+4
  -8.01655E+3   4.56956E+4
  -7.79144E+3   4.37150E+4
  -8.40552E+3   4.40402E+4
  -6.87050E+3   4.41367E+4
  -6.64861E+3   4.27874E+4
  -7.21000E+3   4.27716E+4
  -6.01789E+3   4.27082E+4
  -5.76709E+3   4.18986E+4
  -6.12161E+3   4.19888E+4
  -5.31587E+3   4.20353E+4
  -4.92922E+3   4.13517E+4
  -4.88386E+3   4.14503E+4
  -4.10721E+3   4.14679E+4
  -3.65184E+3   4.09869E+4
  -3.66245E+3   4.10557E+4
  -3.01130E+3   4.09244E+4
  -2.49783E+3   4.06268E+4
  -2.38592E+3   4.08289E+4
  -2.09920E+3   4.07819E+4
  -1.64310E+3   4.03359E+4
  -1.56133E+3   4.04207E+4
  -1.33044E+3   4.03613E+4
  -1.13147E+3   3.99225E+4
  -1.11108E+3   3.97380E+4
  -8.29462E+2   3.94871E+4
  -4.73812E+2   3.90198E+4
  -2.36754E+2   3.89410E+4
  -5.66925E+1   3.88218E+4
   9.61985E+1   3.83547E+4
   3.49591E+2   3.81368E+4
   7.22711E+2   3.79932E+4
   1.01888E+3   3.77044E+4
   1.30317E+3   3.73934E+4
   1.73470E+3   3.72475E+4
   1.96771E+3   3.70913E+4
   2.16124E+3   3.69068E+4
   2.32342E+3   3.68734E+4
   2.39928E+3   3.65440E+4
   2.61244E+3   3.63962E+4
   2.97037E+3   3.63332E+4
   3.11473E+3   3.61073E+4
   3.28990E+3   3.59816E+4
   3.47318E+3   3.58009E+4
   3.65199E+3   3.56236E+4
   3.80133E+3   3.54240E+4
   3.91761E+3   3.52229E+4
   4.03066E+3   3.49045E+4
   4.30060E+3   3.47147E+4
   4.50457E+3   3.45614E+4
   4.62327E+3   3.43939E+4
   4.68648E+3   3.41510E+4
   4.83875E+3   3.39414E+4
   4.95047E+3   3.36881E+4
   5.06575E+3   3.33137E+4
   5.22275E+3   3.31250E+4
   5.40654E+3   3.28640E+4
   5.54408E+3   3.24311E+4
   5.67348E+3   3.22397E+4
   5.85306E+3   3.19779E+4
   5.94717E+3   3.15457E+4
   6.12492E+3   3.12599E+4
   6.40671E+3   3.09732E+4
   6.54131E+3   3.06433E+4
   6.56087E+3   3.02410E+4
   6.76447E+3   2.99245E+4
   6.87848E+3   2.95346E+4
   7.14189E+3   2.92186E+4
   7.32096E+3   2.88036E+4
   7.49560E+3   2.84080E+4
   7.73690E+3   2.80539E+4
   7.98430E+3   2.76779E+4
   8.23020E+3   2.73995E+4
   8.38093E+3   2.70514E+4
   8.62427E+3   2.67143E+4
   8.92373E+3   2.63707E+4
   9.20120E+3   2.60326E+4
   9.43508E+3   2.56889E+4
   9.70829E+3   2.53575E+4
   9.90401E+3   2.50375E+4
   1.01439E+4   2.48570E+4
   1.04719E+4   2.45159E+4
   1.05779E+4   2.42797E+4
   1.08593E+4   2.38608E+4
   1.11437E+4   2.36936E+4
   1.14905E+4   2.34073E+4
   1.17594E+4   2.31887E+4
   1.20257E+4   2.29747E+4
   1.23345E+4   2.26578E+4
   1.25465E+4   2.24874E+4
   1.28620E+4   2.23255E+4
   1.30606E+4   2.20245E+4
   1.33301E+4   2.17865E+4
   1.36439E+4   2.16713E+4
   1.38662E+4   2.14695E+4
   1.40579E+4   2.12926E+4
   1.41955E+4   2.11765E+4
   1.44686E+4   2.09240E+4
   1.47800E+4   2.08498E+4
   1.49530E+4   2.06997E+4
   1.52078E+4   2.05503E+4
   1.54115E+4   2.03824E+4
   1.55474E+4   2.02298E+4
   1.57420E+4   2.01422E+4
   1.58872E+4   2.00465E+4
   1.60393E+4   1.98409E+4
   1.61860E+4   1.96880E+4
   1.64442E+4   1.95567E+4
   1.64651E+4   1.94466E+4
   1.66751E+4   1.93801E+4
   1.68093E+4   1.93544E+4
   1.68151E+4   1.92598E+4
   1.69194E+4   1.91515E+4
   1.69683E+4   1.90314E+4
   1.70369E+4   1.88829E+4
   1.70930E+4   1.87773E+4
   1.71785E+4   1.86822E+4
   1.71982E+4   1.86278E+4
   1.71593E+4   1.85124E+4
   1.72560E+4   1.83886E+4
   1.72187E+4   1.82875E+4
   1.72812E+4   1.82261E+4
   1.73002E+4   1.79742E+4
   1.72749E+4   1.78707E+4
   1.73294E+4   1.77957E+4
   1.72968E+4   1.76858E+4
   1.73101E+4   1.75801E+4
   1.73016E+4   1.75001E+4
   1.72157E+4   1.72031E+4
   1.73036E+4   1.71588E+4
   1.72888E+4   1.70815E+4
   1.71537E+4   1.69559E+4
   1.71542E+4   1.67831E+4
   1.71036E+4   1.66620E+4
   1.71009E+4   1.65017E+4
   1.69900E+4   1.63881E+4
   1.69518E+4   1.61963E+4
   1.69560E+4   1.60742E+4
   1.68538E+4   1.59628E+4
   1.68037E+4   1.58364E+4
   1.67607E+4   1.57740E+4
   1.67103E+4   1.55784E+4
   1.66578E+4   1.53436E+4
   1.66054E+4   1.52026E+4
   1.65758E+4   1.50767E+4
   1.64577E+4   1.49534E+4
   1.63560E+4   1.47508E+4
   1.63554E+4   1.46088E+4
   1.60964E+4   1.44466E+4
   1.61176E+4   1.42825E+4
   1.60176E+4   1.40643E+4
   1.59748E+4   1.39203E+4
   1.58614E+4   1.37864E+4
   1.57638E+4   1.36127E+4
   1.57271E+4   1.34467E+4
   1.55939E+4   1.33031E+4
   1.55242E+4   1.31606E+4
   1.54480E+4   1.29838E+4
   1.52705E+4   1.28023E+4
   1.52414E+4   1.25722E+4
   1.51529E+4   1.24409E+4
   1.49741E+4   1.22941E+4
   1.48649E+4   1.21209E+4
   1.47986E+4   1.18643E+4
   1.46968E+4   1.17005E+4
   1.46648E+4   1.15335E+4
   1.45052E+4   1.13824E+4
   1.44022E+4   1.12173E+4
   1.42829E+4   1.10291E+4
   1.41563E+4   1.08319E+4
   1.40004E+4   1.05933E+4
   1.39511E+4   1.04658E+4
   1.37917E+4   1.02763E+4
   1.37703E+4   1.00029E+4
   1.36971E+4   9.91285E+3
   1.36118E+4   9.74380E+3
   1.34890E+4   9.55551E+3
   1.34374E+4   9.30492E+3
   1.33675E+4   9.15800E+3
   1.31886E+4   8.94807E+3
   1.30881E+4   8.77130E+3
   1.30406E+4   8.56602E+3
   1.29279E+4   8.45412E+3
   1.28030E+4   8.36249E+3
   1.26614E+4   8.13624E+3
   1.26026E+4   7.88791E+3
   1.25202E+4   7.72444E+3
   1.24566E+4   7.55575E+3
   1.23233E+4   7.38399E+3
   1.22045E+4   7.27635E+3
   1.21453E+4   7.14538E+3
   1.20078E+4   6.91807E+3
   1.19301E+4   6.79866E+3
   1.18343E+4   6.70203E+3
   1.17392E+4   6.46391E+3
   1.16933E+4   6.37068E+3
   1.15505E+4   6.24413E+3
   1.14732E+4   6.05537E+3
   1.13059E+4   5.93751E+3
   1.12026E+4   5.79183E+3
   1.11417E+4   5.64350E+3
   1.11027E+4   5.39304E+3
   1.09455E+4   5.29253E+3
   1.08254E+4   5.18411E+3
   1.07632E+4   4.96353E+3
   1.06750E+4   4.90764E+3
   1.05003E+4   4.72637E+3
   1.04527E+4   4.55652E+3
   1.03443E+4   4.39158E+3
   1.02476E+4   4.26433E+3
   1.01463E+4   4.18331E+3
   1.01117E+4   4.06279E+3
   9.99184E+3   3.88111E+3
   9.85462E+3   3.69289E+3
   9.76620E+3   3.62381E+3
   9.65751E+3   3.48640E+3
   9.59587E+3   3.33436E+3
   9.46794E+3   3.20338E+3
   9.35350E+3   3.00558E+3
   9.36410E+3   2.98076E+3
   9.23562E+3   2.80791E+3
   9.05550E+3   2.67299E+3
   9.03661E+3   2.51506E+3
   9.02734E+3   2.50484E+3
   8.88910E+3   2.37549E+3
   8.78081E+3   2.21494E+3
   8.64835E+3   2.03294E+3
   8.62244E+3   1.96975E+3
   8.48059E+3   1.88016E+3
   8.39395E+3   1.81602E+3
   8.30412E+3   1.61422E+3
   8.22343E+3   1.53068E+3
   8.17113E+3   1.43190E+3
   8.09811E+3   1.29941E+3
   8.01612E+3   1.29245E+3
   7.88109E+3   1.10921E+3
   7.85123E+3   9.74823E+2
   7.75725E+3   8.74759E+2
   7.69208E+3   8.07721E+2
   7.63223E+3   7.14656E+2
   7.50501E+3   6.75170E+2
   7.35598E+3   4.88047E+2
   7.35709E+3   4.60615E+2
   7.27413E+3   3.68135E+2
   7.19303E+3   3.01230E+2
   7.10804E+3   1.41296E+2
   7.03287E+3   7.09752E+1
   6.93509E+3   2.99516E+0
   6.88186E+3  -8.88327E+1
   6.75768E+3  -1.42663E+2
   6.74263E+3  -2.88450E+2
   6.62469E+3  -3.17665E+2
   6.54807E+3  -4.19312E+2
   6.47400E+3  -4.60853E+2
   6.31343E+3  -6.11717E+2
   6.23575E+3  -6.15663E+2
   6.16892E+3  -7.46881E+2
   6.15446E+3  -7.53620E+2
   6.08092E+3  -7.79998E+2
   5.96315E+3  -8.86948E+2
   5.87204E+3  -9.45089E+2
   5.78262E+3  -1.05192E+3
   5.70915E+3  -1.11000E+3
   5.70816E+3  -1.15421E+3
   5.57165E+3  -1.17027E+3
   5.48241E+3  -1.25938E+3
   5.44536E+3  -1.32305E+3
   5.40554E+3  -1.44605E+3
   5.29050E+3  -1.38507E+3
   5.21285E+3  -1.45349E+3
   5.14162E+3  -1.58300E+3
   5.10788E+3  -1.55481E+3
   4.98650E+3  -1.57075E+3
   4.92211E+3  -1.67869E+3
   4.84023E+3  -1.74716E+3
   4.84438E+3  -1.76611E+3
   4.72626E+3  -1.88074E+3
   4.71751E+3  -1.85992E+3
   4.61918E+3  -1.87433E+3
   4.49186E+3  -1.94190E+3
   4.39273E+3  -1.94399E+3
   4.35442E+3  -1.99152E+3
   4.30454E+3  -2.03618E+3
   4.26993E+3  -2.07640E+3
   4.16336E+3  -2.05065E+3
   4.05381E+3  -2.16479E+3
   4.02856E+3  -2.13761E+3
   4.00287E+3  -2.12120E+3
   3.91807E+3  -2.19205E+3
   3.84632E+3  -2.18431E+3
   3.80997E+3  -2.27042E+3
   3.71664E+3  -2.29301E+3
   3.68293E+3  -2.30182E+3
   3.56204E+3  -2.31727E+3
   3.58904E+3  -2.26025E+3
   3.48901E+3  -2.37312E+3
   3.46029E+3  -2.37384E+3
   3.30484E+3  -2.38405E+3
   3.32958E+3  -2.38595E+3
   3.27263E+3  -2.42333E+3
   3.20803E+3  -2.36609E+3
   3.12620E+3  -2.36444E+3
   3.04206E+3  -2.45921E+3
   3.01087E+3  -2.48134E+3
   2.97391E+3  -2.45235E+3
   2.88429E+3  -2.49675E+3
   2.80115E+3  -2.54077E+3
   2.82207E+3  -2.56319E+3
   2.66561E+3  -2.51332E+3
   2.70363E+3  -2.45645E+3
   2.59350E+3  -2.45689E+3
   2.57613E+3  -2.51268E+3
   2.54285E+3  -2.53994E+3
   2.49236E+3  -2.52423E+3
   2.43752E+3  -2.54158E+3
   2.38058E+3  -2.44234E+3
   2.31448E+3  -2.52923E+3
   2.21127E+3  -2.46533E+3
   2.25009E+3  -2.52094E+3
   2.14561E+3  -2.49125E+3
   2.11887E+3  -2.48356E+3
   2.03121E+3  -2.52787E+3
   2.03708E+3  -2.53285E+3
   1.95743E+3  -2.48573E+3
   1.91940E+3  -2.40009E+3
   1.91973E+3  -2.48796E+3
   1.77534E+3  -2.47109E+3
   1.77755E+3  -2.47916E+3
   1.72886E+3  -2.45095E+3
   1.66784E+3  -2.36456E+3
   1.60584E+3  -2.42384E+3
   1.61210E+3  -2.37448E+3
   1.52919E+3  -2.33465E+3
   1.48344E+3  -2.34833E+3
   1.43459E+3  -2.38047E+3
   1.39194E+3  -2.38206E+3
   1.36201E+3  -2.31691E+3
   1.27432E+3  -2.28699E+3
   1.23783E+3  -2.24666E+3
   1.22939E+3  -2.31683E+3
   1.15957E+3  -2.25247E+3
   1.10774E+3  -2.19277E+3
   1.16190E+3  -2.20065E+3
   1.09864E+3  -2.19921E+3
   1.05078E+3  -2.19770E+3
   9.49823E+2  -2.17856E+3
   9.36855E+2  -2.16565E+3
   9.25761E+2  -2.09110E+3
   8.51367E+2  -2.15303E+3
   8.98011E+2  -2.06917E+3
   7.89949E+2  -2.06808E+3
   8.19500E+2  -2.05615E+3
   6.71549E+2  -2.03648E+3
   6.90782E+2  -2.07449E+3
   6.47669E+2  -2.02095E+3
   6.91167E+2  -1.98621E+3
   6.27698E+2  -1.98435E+3
   5.64204E+2  -1.95956E+3
   5.99235E+2  -1.91646E+3
   5.43618E+2  -1.95399E+3
   4.87797E+2  -1.83805E+3
   4.70834E+2  -1.86704E+3
   4.67715E+2  -1.88000E+3
