 LCModel (Version 6.3-1N) Copyright: S.W. Provencher.          Ref.: Magn. Reson. Med. 30:672-679 (1993).                
 Slice_N1@25_11  02-Jun-2023 14:37:56
 27 lines in following concentration table = NCONC+1
    Conc.  %SD /Cr+PCr  Metabolite                                         
 3.33E-06  10% 4.9E-04 Mac                                                 
 1.17E-02 196%   1.708 Cr                                                  
 4.32E-02  55%   6.292 PCr                                                 
 5.44E-02  18%   7.934 Ins                                                 
    0.112   7%  16.291 NAA                                                 
 5.40E-02  18%   7.870 Tau                                                 
    0.000 999%   0.000 PCho                                                
 1.64E-02  15%   2.389 GPC                                                 
 7.77E-02  13%  11.335 Glu                                                 
 2.07E-02  33%   3.025 Gln                                                 
    0.000 999%   0.000 Ala                                                 
 6.82E-02  21%   9.938 Asc                                                 
 5.71E-03 159%   0.833 Asp                                                 
 6.48E-03  74%   0.944 GABA                                                
 9.73E-03  62%   1.419 Glc                                                 
 8.29E-03  43%   1.209 GSH                                                 
    0.000 999%   0.000 Lac                                                 
    0.000 999%   0.000 NAAG                                                
    0.000 999%   0.000 PE                                                  
 1.64E-02  15%   2.389 GPC+PCho                                            
    0.112   7%  16.291 NAA+NAAG                                            
 9.85E-02  12%  14.360 Glu+Gln                                             
 5.49E-02  12%   8.000 Cr+PCr                                              
    0.112   7%  16.291 NAA+NAAG                                            
 5.49E-02  12%   8.000 Cr+PCr                                              
 9.85E-02  12%  14.360 Glu+Gln                                             
   6 lines in following misc. output table
  FWHM = 0.058 ppm    S/N =   3                                            
  Data shift = 0.140 ppm                                                   
  Ph: -41 deg      -4.6 deg/ppm                                            
  alphaB,S = 1.5E+00,   5.1E+01                                            
   18 spline knots.   Ns = 9(1)                                            
  ( 8) 4 infls.   ( 6) 2 extrs.                                            
  654 points on ppm-axis = NY
      4.000000     3.994181     3.988363     3.982544     3.976726     3.970907     3.965088     3.959270     3.953451     3.947633
      3.941814     3.935995     3.930177     3.924358     3.918540     3.912721     3.906902     3.901084     3.895265     3.889446
      3.883628     3.877809     3.871991     3.866172     3.860353     3.854535     3.848716     3.842898     3.837079     3.831260
      3.825442     3.819623     3.813805     3.807986     3.802167     3.796349     3.790530     3.784712     3.778893     3.773074
      3.767256     3.761437     3.755619     3.749800     3.743981     3.738163     3.732344     3.726526     3.720707     3.714888
      3.709070     3.703251     3.697433     3.691614     3.685795     3.679977     3.674158     3.668339     3.662521     3.656702
      3.650884     3.645065     3.639246     3.633428     3.627609     3.621791     3.615972     3.610153     3.604335     3.598516
      3.592698     3.586879     3.581060     3.575242     3.569423     3.563605     3.557786     3.551967     3.546149     3.540330
      3.534512     3.528693     3.522874     3.517056     3.511237     3.505419     3.499600     3.493781     3.487963     3.482144
      3.476326     3.470507     3.464688     3.458870     3.453051     3.447232     3.441414     3.435595     3.429777     3.423958
      3.418139     3.412321     3.406502     3.400684     3.394865     3.389046     3.383228     3.377409     3.371591     3.365772
      3.359953     3.354135     3.348316     3.342498     3.336679     3.330860     3.325042     3.319223     3.313405     3.307586
      3.301767     3.295949     3.290130     3.284312     3.278493     3.272674     3.266856     3.261037     3.255219     3.249400
      3.243581     3.237763     3.231944     3.226125     3.220307     3.214488     3.208670     3.202851     3.197032     3.191214
      3.185395     3.179577     3.173758     3.167939     3.162121     3.156302     3.150484     3.144665     3.138846     3.133028
      3.127209     3.121391     3.115572     3.109753     3.103935     3.098116     3.092298     3.086479     3.080660     3.074842
      3.069023     3.063205     3.057386     3.051567     3.045749     3.039930     3.034111     3.028293     3.022474     3.016656
      3.010837     3.005018     2.999200     2.993381     2.987563     2.981744     2.975925     2.970107     2.964288     2.958470
      2.952651     2.946832     2.941014     2.935195     2.929377     2.923558     2.917739     2.911921     2.906102     2.900284
      2.894465     2.888646     2.882828     2.877009     2.871191     2.865372     2.859553     2.853735     2.847916     2.842098
      2.836279     2.830460     2.824642     2.818823     2.813004     2.807186     2.801367     2.795549     2.789730     2.783911
      2.778093     2.772274     2.766456     2.760637     2.754818     2.749000     2.743181     2.737363     2.731544     2.725725
      2.719907     2.714088     2.708270     2.702451     2.696632     2.690814     2.684995     2.679177     2.673358     2.667539
      2.661721     2.655902     2.650084     2.644265     2.638446     2.632628     2.626809     2.620991     2.615172     2.609353
      2.603535     2.597716     2.591897     2.586079     2.580260     2.574442     2.568623     2.562804     2.556986     2.551167
      2.545349     2.539530     2.533711     2.527893     2.522074     2.516256     2.510437     2.504618     2.498800     2.492981
      2.487163     2.481344     2.475525     2.469707     2.463888     2.458070     2.452251     2.446432     2.440614     2.434795
      2.428977     2.423158     2.417339     2.411521     2.405702     2.399884     2.394065     2.388246     2.382428     2.376609
      2.370790     2.364972     2.359153     2.353335     2.347516     2.341697     2.335879     2.330060     2.324242     2.318423
      2.312604     2.306786     2.300967     2.295149     2.289330     2.283511     2.277693     2.271874     2.266056     2.260237
      2.254418     2.248600     2.242781     2.236963     2.231144     2.225325     2.219507     2.213688     2.207870     2.202051
      2.196232     2.190414     2.184595     2.178777     2.172958     2.167139     2.161321     2.155502     2.149683     2.143865
      2.138046     2.132228     2.126409     2.120590     2.114772     2.108953     2.103135     2.097316     2.091497     2.085679
      2.079860     2.074042     2.068223     2.062404     2.056586     2.050767     2.044949     2.039130     2.033311     2.027493
      2.021674     2.015856     2.010037     2.004218     1.998400     1.992581     1.986763     1.980944     1.975126     1.969307
      1.963489     1.957670     1.951852     1.946033     1.940215     1.934397     1.928578     1.922760     1.916941     1.911123
      1.905304     1.899486     1.893667     1.887849     1.882030     1.876212     1.870393     1.864575     1.858756     1.852938
      1.847119     1.841301     1.835482     1.829664     1.823845     1.818027     1.812208     1.806390     1.800571     1.794753
      1.788934     1.783116     1.777297     1.771479     1.765660     1.759842     1.754023     1.748205     1.742386     1.736568
      1.730749     1.724931     1.719113     1.713294     1.707476     1.701657     1.695839     1.690020     1.684202     1.678383
      1.672565     1.666746     1.660928     1.655109     1.649291     1.643472     1.637654     1.631835     1.626017     1.620198
      1.614380     1.608561     1.602743     1.596924     1.591106     1.585287     1.579469     1.573650     1.567832     1.562013
      1.556195     1.550376     1.544558     1.538739     1.532921     1.527102     1.521284     1.515465     1.509647     1.503829
      1.498010     1.492192     1.486373     1.480555     1.474736     1.468918     1.463099     1.457281     1.451462     1.445644
      1.439825     1.434007     1.428188     1.422370     1.416551     1.410733     1.404914     1.399096     1.393277     1.387459
      1.381640     1.375822     1.370003     1.364185     1.358366     1.352548     1.346729     1.340911     1.335092     1.329274
      1.323455     1.317637     1.311818     1.306000     1.300182     1.294363     1.288545     1.282726     1.276908     1.271089
      1.265271     1.259452     1.253634     1.247815     1.241997     1.236178     1.230360     1.224541     1.218723     1.212904
      1.207086     1.201267     1.195449     1.189630     1.183812     1.177993     1.172175     1.166356     1.160538     1.154719
      1.148901     1.143082     1.137264     1.131445     1.125627     1.119808     1.113990     1.108171     1.102353     1.096534
      1.090716     1.084898     1.079079     1.073261     1.067442     1.061624     1.055805     1.049987     1.044168     1.038350
      1.032531     1.026713     1.020894     1.015076     1.009257     1.003439     0.997620     0.991802     0.985983     0.980165
      0.974346     0.968528     0.962709     0.956891     0.951072     0.945254     0.939435     0.933617     0.927798     0.921980
      0.916161     0.910343     0.904524     0.898706     0.892887     0.887069     0.881251     0.875432     0.869614     0.863795
      0.857977     0.852158     0.846340     0.840521     0.834703     0.828884     0.823066     0.817247     0.811429     0.805610
      0.799792     0.793973     0.788155     0.782336     0.776518     0.770699     0.764881     0.759062     0.753244     0.747425
      0.741607     0.735788     0.729970     0.724151     0.718333     0.712514     0.706696     0.700877     0.695059     0.689240
      0.683422     0.677603     0.671785     0.665967     0.660148     0.654330     0.648511     0.642693     0.636874     0.631056
      0.625237     0.619419     0.613600     0.607782     0.601963     0.596145     0.590326     0.584508     0.578689     0.572871
      0.567052     0.561234     0.555415     0.549597     0.543778     0.537960     0.532141     0.526323     0.520504     0.514686
      0.508867     0.503049     0.497230     0.491412     0.485593     0.479775     0.473956     0.468138     0.462319     0.456501
      0.450682     0.444864     0.439045     0.433227     0.427408     0.421590     0.415771     0.409953     0.404134     0.398316
      0.392497     0.386679     0.380860     0.375042     0.369223     0.363405     0.357586     0.351767     0.345949     0.340130
      0.334312     0.328493     0.322675     0.316856     0.311038     0.305219     0.299401     0.293582     0.287764     0.281945
      0.276127     0.270308     0.264490     0.258671     0.252853     0.247034     0.241216     0.235397     0.229579     0.223760
      0.217942     0.212123     0.206305     0.200486
 NY phased data points follow
  -5.16363E-02  1.54827E-01  1.62536E-01 -1.53653E-01  1.59261E-01 -5.81974E-02  1.72366E-01  2.97580E-01  9.35523E-02 -9.31823E-02
   3.20380E-01  3.40815E-01  2.76026E-01  5.12697E-01  4.50247E-01  4.24399E-01  1.87365E-01  1.26009E-01  1.12805E-01  3.04887E-01
   3.47942E-01  3.35965E-01 -1.33847E-01 -2.12892E-01 -2.61436E-02 -2.30647E-01 -1.93072E-01 -2.10711E-02  1.75108E-01 -2.47567E-01
  -1.98255E-01 -2.46707E-01 -3.41960E-01 -3.38144E-01 -5.76110E-01 -5.51521E-01 -5.83849E-01 -2.00284E-01 -2.10231E-01 -4.57502E-01
  -2.43350E-01 -2.21941E-01 -2.70325E-01 -2.21127E-02  1.15211E-01  1.41245E-01  1.54644E-01  4.21195E-01  3.67022E-01  1.63694E-01
   5.97743E-01  2.02636E-01  1.21401E-01  2.59165E-01  9.63221E-02  1.57299E-01  4.95104E-02 -3.45230E-02 -3.72424E-02  3.10808E-01
  -1.12126E-01  7.41076E-03  1.46416E-01 -1.72382E-01  2.32366E-01  7.41040E-02  1.27663E-01  2.11940E-01  2.24616E-01  2.65259E-01
  -2.18164E-02  9.73671E-02  2.13830E-01  7.39061E-02  1.76072E-01  4.29928E-02  4.67237E-02 -7.32584E-02 -3.03205E-01 -6.06803E-02
  -1.86086E-01 -1.26245E-01  5.89527E-02  1.96235E-01  3.11795E-01  1.90950E-01  6.55646E-02  2.20148E-01  3.37744E-01  1.70642E-01
   9.15307E-02 -1.07840E-02  5.61244E-02  2.01397E-01  2.49865E-02  9.12858E-03  1.85437E-01 -1.71639E-01 -1.43378E-01  2.51581E-02
   4.29745E-02 -2.06778E-01 -1.99140E-01 -1.25932E-01 -1.81054E-01  1.61184E-01 -9.98965E-02  6.13697E-02  2.33279E-02  1.35630E-01
   2.37780E-01  2.69988E-01  3.28528E-01  9.16905E-02  4.94590E-01  2.01515E-01  1.35859E-01  2.13505E-01  6.99502E-02  1.58758E-01
   3.32283E-01  2.55327E-01  2.35049E-01  2.51609E-01  8.22148E-03  6.63651E-02 -4.58741E-02 -2.72127E-03 -9.10738E-02 -2.67240E-01
  -4.04148E-01 -3.83468E-01 -5.38904E-01 -7.71246E-01 -4.38154E-01 -6.02632E-01 -6.16265E-01 -7.03898E-01 -8.64161E-01 -4.51160E-01
  -6.32220E-01 -3.85102E-01 -1.95441E-01 -2.34882E-02  2.83665E-01 -2.79970E-01 -1.24533E-01 -3.27874E-01 -6.71245E-02  1.69718E-01
  -2.02346E-01  1.69696E-01  9.38482E-02  5.31384E-02 -8.03937E-02  6.04386E-02  2.45826E-01  1.46958E-01  2.67776E-01  3.68385E-01
   4.71435E-01  6.80493E-01  6.12458E-01  4.34543E-01  3.03937E-01  2.72561E-01  5.14995E-01  3.20670E-01  3.29123E-01  8.64513E-02
  -5.70209E-02 -3.13190E-01 -6.26361E-01 -2.18087E-01 -3.73399E-01 -4.27236E-01 -4.26835E-01 -6.44560E-01 -4.61726E-01 -2.48184E-01
  -2.52769E-01 -3.72118E-01 -5.09363E-01 -4.25575E-01 -5.46825E-01 -5.81960E-01 -3.39212E-01 -1.43423E-01 -1.64245E-01 -4.45686E-01
  -1.84197E-01 -2.37484E-01  4.00363E-02  5.65345E-03 -3.96269E-01 -1.10584E-02 -3.19354E-01 -3.87691E-01 -4.12589E-01 -2.83508E-01
   7.62101E-02 -1.51421E-01 -3.39018E-01 -3.47334E-02  1.20658E-01 -4.01805E-01 -1.23399E-01  8.24103E-02  1.15344E-01 -1.16476E-01
  -2.82378E-01 -1.38039E-01 -1.42426E-01  1.84193E-01 -2.98798E-01 -4.00227E-02  1.46568E-02 -3.32449E-01 -1.30565E-01 -1.67982E-01
   7.62709E-03  6.47700E-02  8.71660E-02  2.20068E-03  2.89758E-01  1.59264E-01  1.60308E-01  2.93064E-01  2.77704E-01  3.59011E-01
   2.28197E-01  5.08495E-01  3.04520E-01  2.34440E-01  2.48532E-01 -1.08376E-01 -3.24353E-02  1.96192E-01  1.13733E-01  3.46264E-01
   8.89997E-02 -3.09376E-01  2.21000E-01 -1.73584E-02 -4.23550E-01 -3.23709E-01  1.35138E-01  4.67933E-02 -2.56997E-01  1.92310E-02
  -5.81139E-02 -1.94553E-02 -2.74513E-01 -3.38894E-01  8.94780E-02  1.94667E-01  1.08865E-01  1.31750E-01  3.41832E-02 -1.20649E-01
   2.33038E-01 -3.64418E-02  2.08936E-02  2.31277E-01 -6.88846E-02  2.76064E-01  4.36072E-01  3.48467E-01  7.70276E-02  2.84870E-01
   2.84867E-01  1.77831E-01  3.40698E-01  1.66986E-01  4.90209E-01 -4.90618E-03 -2.04550E-01 -1.31256E-03 -4.15187E-01 -2.33263E-01
  -3.00035E-01 -3.42292E-01 -9.16359E-02 -1.73218E-01 -5.29186E-02 -6.63835E-02  2.74688E-02  2.18838E-01  2.12547E-01  6.06832E-01
   4.75177E-01  5.41483E-01  8.03511E-01  2.16792E-01  2.34578E-01  2.05926E-01  1.82842E-01  3.57916E-01  2.71712E-02  1.25681E-01
  -2.70270E-02 -3.74329E-02  2.06266E-01  3.69936E-01  4.07196E-01  1.97429E-01  3.24954E-01  2.99003E-01  6.53405E-01  3.11332E-01
   4.25114E-01  7.49327E-01  9.07800E-02  2.66748E-01  1.50174E-01  1.22681E-01  5.31366E-02  1.83023E-01  3.29342E-01 -1.25755E-01
  -9.18043E-02 -3.30394E-01 -3.66013E-01 -2.98182E-01 -2.69086E-01 -9.45005E-03 -8.52644E-02 -5.99701E-02 -2.67291E-01 -2.43816E-01
  -1.99567E-01 -1.79268E-01  3.39473E-01  9.12528E-02  7.41219E-02  6.04651E-02 -1.45794E-01 -2.15336E-01 -5.00647E-01 -9.06392E-01
  -9.41819E-01 -7.10300E-01 -1.08362E+00 -9.39330E-01 -1.01944E+00 -9.20576E-01 -9.03962E-01 -8.74015E-01 -7.10141E-01 -7.85393E-01
  -1.65387E-01 -1.97549E-01 -2.09406E-01 -9.76006E-02  2.32247E-01  3.30933E-01  2.53802E-02  6.68950E-02  2.93925E-01 -6.76947E-02
  -1.57805E-01  5.09417E-01  1.88338E-01  2.55215E-02  1.14885E-02  1.19465E-01 -1.42629E-01 -8.25844E-02  3.15937E-01 -5.55908E-02
   1.58354E-01  2.08035E-01  2.54695E-01  6.24564E-02 -1.87252E-01  1.84318E-01 -4.69022E-02 -2.32611E-01  2.27577E-01  3.38527E-01
   3.43624E-01  1.34104E-01 -3.88014E-02  7.81325E-02  3.10422E-01  3.85844E-01  1.62321E-01  2.47723E-01 -2.56082E-03  4.23395E-02
   2.21263E-02 -9.95508E-02 -7.96588E-02 -1.16884E-01  2.19117E-01  5.41308E-02  2.09061E-01  5.53323E-01  2.71238E-01  1.40728E-01
   1.80646E-01  1.20524E-02  2.60313E-01  1.35959E-01 -3.02687E-02  2.31329E-01 -6.41786E-02 -2.41528E-02  4.79794E-03 -1.14603E-01
  -5.93667E-02 -3.72758E-02 -1.65195E-01 -2.27759E-01  1.37036E-01 -8.68899E-02 -3.21790E-01 -1.63846E-01 -2.63468E-01  4.03014E-02
  -4.83295E-02 -1.49663E-01 -8.86832E-03 -2.59407E-01  1.01776E-02  1.26459E-01  3.09068E-02 -2.21982E-01 -1.63019E-01 -7.46471E-02
  -3.00257E-01 -9.59137E-03  7.18409E-02 -1.37886E-01 -1.96520E-02  4.46427E-02 -4.48818E-02  1.45756E-01 -8.64314E-02  9.45644E-02
  -3.15963E-02 -2.65701E-01  1.45811E-01  3.17779E-02 -9.24030E-02 -1.84755E-01  2.31027E-01  1.45561E-01  2.45723E-01  4.93524E-01
  -1.28851E-02  1.84134E-01  5.12768E-01  3.06783E-01  2.28904E-01  9.12515E-02 -1.86725E-01 -1.27252E-02  1.77198E-02  1.23392E-01
   3.67205E-02  3.88277E-02  7.30953E-02  3.50173E-02 -7.10188E-03 -1.19673E-01  7.81865E-03 -2.01267E-01 -1.40810E-01 -3.31654E-01
  -1.18503E-01 -1.59242E-01 -5.79811E-01 -4.11305E-01 -3.62709E-01 -9.64583E-02 -2.96705E-01 -3.36879E-01 -1.40725E-02 -2.64629E-01
  -2.18826E-01  4.48530E-03 -7.71042E-02  1.66218E-01  1.61808E-02 -7.07953E-02  1.38361E-01  1.65916E-01  7.02714E-02 -4.00177E-03
   1.47607E-01  5.75117E-02  2.89978E-01  3.85400E-01  3.93872E-01  1.95928E-01  9.87093E-02  1.50441E-01 -1.00882E-02  2.03767E-01
   1.75497E-01  8.45437E-02  1.31710E-01  1.46717E-01  8.66896E-02  2.30773E-01 -9.31148E-03 -1.34310E-02  1.29977E-01 -3.24143E-01
   9.86645E-02  2.50459E-01 -6.73571E-02  2.66466E-01  2.03165E-01 -1.09291E-01  1.39649E-01 -8.27841E-02 -3.05729E-01  1.35540E-02
  -5.12033E-02  9.56351E-02 -1.38832E-01 -2.85585E-01 -5.74165E-02 -4.09597E-01 -3.49693E-01 -5.12934E-01 -4.94905E-01 -4.09340E-01
  -5.68382E-01 -4.95506E-01 -5.76911E-01 -4.03593E-01 -5.66525E-01 -2.56864E-01 -1.26249E-01 -2.74388E-01 -3.04961E-01 -5.66630E-01
  -3.70553E-01 -4.26944E-01 -2.63673E-01 -6.37133E-02 -3.46558E-02 -2.06892E-01 -3.17377E-01 -1.95329E-01 -6.56292E-02 -2.74873E-02
  -2.00970E-01 -1.73867E-01 -1.49075E-01  1.29511E-01  1.06182E-01 -1.10354E-01 -9.03874E-03  1.40148E-01  2.91965E-01  3.53251E-01
  -8.04369E-02 -3.64990E-01 -1.18250E-01  2.71341E-03  3.39570E-02 -1.84832E-01  1.68773E-01 -8.99492E-02 -3.06075E-01  2.88133E-01
   1.55010E-01  1.33601E-01  2.30584E-01  4.27612E-01 -2.02965E-02 -1.08361E-01  7.24108E-02 -7.93295E-02  8.96087E-02 -1.76996E-01
   9.99811E-02 -4.30729E-02 -1.05702E-01 -6.29103E-02 -1.30496E-01  2.06755E-01 -2.43591E-01 -1.19789E-01  2.95906E-02 -1.70824E-01
  -4.35771E-02 -2.46167E-01 -2.46916E-01  2.36362E-02 -6.56751E-02 -1.44257E-01 -6.24147E-02 -4.98505E-02 -7.48977E-02 -1.25216E-01
  -3.36680E-01 -7.27440E-02  4.34359E-01  1.13884E-02 -2.83549E-01  4.88983E-02  2.03880E-01 -4.52460E-01 -2.40111E-01  1.13078E-01
  -1.69392E-01  9.13320E-02 -2.79385E-01 -1.30430E-01  2.70986E-01  2.03300E-01  6.83626E-02  1.58023E-01  4.77743E-02 -2.73178E-01
  -1.09304E-01  1.72611E-02  1.38237E-01  1.04099E-01  2.70440E-01 -1.09472E-01 -2.40910E-01  4.52061E-02 -1.43656E-01 -1.18714E-02
   1.73477E-01  9.96934E-02 -1.53308E-02  1.90439E-01  1.39903E-01  1.51261E-01  1.96258E-01 -5.53332E-02 -9.62689E-02 -6.19511E-03
   2.27229E-01  1.23984E-02 -2.93621E-01 -2.82108E-03  2.05954E-01  4.95373E-02  6.54453E-02 -1.41012E-02 -2.33251E-01 -3.98771E-02
  -1.48603E-01 -1.54152E-02  1.56129E-01 -3.39933E-02
 NY points of the fit to the data follow
   2.04908E-01  2.03888E-01  1.93277E-01  1.62967E-01  1.24175E-01  1.07894E-01  1.14759E-01  1.44294E-01  1.87232E-01  2.30625E-01
   2.67656E-01  2.98296E-01  3.28007E-01  3.54589E-01  3.71304E-01  3.73207E-01  3.56689E-01  3.23694E-01  2.79811E-01  2.26681E-01
   1.69591E-01  1.17344E-01  7.14058E-02  3.09324E-02 -3.83536E-03 -3.42099E-02 -6.08409E-02 -8.53147E-02 -1.08267E-01 -1.30753E-01
  -1.54676E-01 -1.85726E-01 -2.19877E-01 -2.54321E-01 -2.83060E-01 -3.05244E-01 -3.20299E-01 -3.23594E-01 -3.18088E-01 -2.87624E-01
  -2.35889E-01 -1.66249E-01 -8.06150E-02  1.15768E-02  1.01853E-01  1.85653E-01  2.59354E-01  3.19547E-01  3.60201E-01  3.76720E-01
   3.65313E-01  3.31889E-01  2.90375E-01  2.51827E-01  2.10667E-01  1.71000E-01  1.38036E-01  8.75875E-02  3.28749E-02 -4.64220E-03
  -3.01727E-02 -4.14652E-02 -3.65503E-02 -1.77281E-02  8.63232E-03  3.90221E-02  7.44478E-02  1.11273E-01  1.48938E-01  1.88494E-01
   2.24841E-01  2.51829E-01  2.50906E-01  2.17123E-01  1.64138E-01  1.01366E-01  3.95917E-02 -8.55814E-03 -3.75681E-02 -4.97720E-02
  -4.74473E-02 -3.06953E-02 -3.19179E-03  3.33031E-02  7.82040E-02  1.25941E-01  1.72343E-01  2.12818E-01  2.39782E-01  2.55605E-01
   2.54719E-01  2.46317E-01  2.10610E-01  1.56930E-01  8.77481E-02  1.61841E-02 -4.37364E-02 -8.54531E-02 -1.09905E-01 -1.21538E-01
  -1.24055E-01 -1.15246E-01 -9.34193E-02 -5.69280E-02 -7.59384E-03  4.81900E-02  1.02666E-01  1.51257E-01  1.87938E-01  2.11549E-01
   2.24677E-01  2.28972E-01  2.29703E-01  2.31225E-01  2.33112E-01  2.30816E-01  2.31045E-01  2.25082E-01  2.08445E-01  1.92926E-01
   1.77440E-01  1.63790E-01  1.41426E-01  1.03543E-01  4.65218E-02 -2.47516E-02 -5.59742E-02 -7.19920E-02 -1.22190E-01 -2.18002E-01
  -3.44279E-01 -4.71337E-01 -5.68500E-01 -6.23714E-01 -6.49949E-01 -6.66810E-01 -6.75921E-01 -6.66613E-01 -6.30796E-01 -5.66635E-01
  -4.83842E-01 -3.95123E-01 -2.98651E-01 -2.02022E-01 -1.21971E-01 -6.24673E-02 -2.03190E-02  1.20300E-02  3.89929E-02  6.22229E-02
   8.30604E-02  1.02526E-01  1.20707E-01  1.37586E-01  1.53339E-01  1.68225E-01  1.81669E-01  1.91287E-01  2.04552E-01  2.95113E-01
   4.13167E-01  4.96674E-01  5.14034E-01  4.68874E-01  3.85695E-01  2.95840E-01  2.18819E-01  1.41912E-01  4.00678E-02 -8.42561E-02
  -2.12798E-01 -3.25160E-01 -4.04849E-01 -4.54227E-01 -4.78925E-01 -4.68731E-01 -4.33001E-01 -3.94542E-01 -3.62610E-01 -3.40584E-01
  -3.23175E-01 -3.07994E-01 -2.93900E-01 -2.80860E-01 -2.68829E-01 -2.57733E-01 -2.47077E-01 -2.36380E-01 -2.25906E-01 -2.15631E-01
  -2.05419E-01 -1.95101E-01 -1.84668E-01 -1.74507E-01 -1.64290E-01 -1.53618E-01 -1.42572E-01 -1.31743E-01 -1.22317E-01 -1.14138E-01
  -1.06105E-01 -9.79193E-02 -9.01187E-02 -8.36256E-02 -7.91150E-02 -7.62974E-02 -7.47121E-02 -7.33148E-02 -7.16406E-02 -7.01453E-02
  -6.91082E-02 -6.85665E-02 -6.80980E-02 -6.76402E-02 -6.72839E-02 -6.79502E-02 -7.70046E-02 -8.72065E-02 -8.27231E-02 -5.93742E-02
  -2.72640E-02 -3.64534E-03  1.13121E-02  3.75228E-02  8.23941E-02  1.42130E-01  2.02672E-01  2.47985E-01  2.70532E-01  2.74009E-01
   2.68494E-01  2.58375E-01  2.38556E-01  2.06171E-01  1.64501E-01  1.19006E-01  7.38676E-02  2.95055E-02 -1.27814E-02 -4.65379E-02
  -7.04156E-02 -8.64395E-02 -9.73943E-02 -1.05641E-01 -1.11615E-01 -1.16298E-01 -1.20622E-01 -1.25467E-01 -1.45212E-01 -1.65748E-01
  -1.76931E-01 -1.87809E-01 -1.94918E-01 -1.94745E-01 -1.81751E-01 -1.64496E-01 -1.43326E-01 -1.11090E-01 -7.50204E-02 -3.51474E-02
   4.96242E-03  4.34302E-02  7.85231E-02  1.08564E-01  1.30451E-01  1.44730E-01  1.53986E-01  1.55526E-01  1.49321E-01  1.37836E-01
   1.24478E-01  1.08124E-01  8.80491E-02  6.58987E-02  3.61850E-02 -1.83687E-03 -5.55478E-02 -1.25012E-01 -1.93633E-01 -2.51635E-01
  -2.83704E-01 -2.84320E-01 -2.59252E-01 -2.16256E-01 -1.63481E-01 -1.02150E-01 -3.34560E-02  3.95067E-02  1.13553E-01  1.80920E-01
   2.34347E-01  2.70672E-01  2.87807E-01  2.87716E-01  2.76966E-01  2.60794E-01  2.44762E-01  2.33131E-01  2.26019E-01  2.22764E-01
   2.21670E-01  2.21620E-01  2.21789E-01  2.21387E-01  2.20399E-01  2.18539E-01  2.14913E-01  2.10226E-01  2.03157E-01  1.94429E-01
   1.81895E-01  1.63941E-01  1.39551E-01  1.08525E-01  6.98447E-02  2.61831E-02 -2.32362E-02 -7.41000E-02 -1.25621E-01 -1.72490E-01
  -2.11611E-01 -2.38854E-01 -2.49666E-01 -2.46698E-01 -2.28415E-01 -2.02884E-01 -1.72827E-01 -1.44040E-01 -1.19146E-01 -9.82962E-02
  -8.36149E-02 -7.31037E-02 -6.34080E-02  7.90419E-03  9.32363E-02  7.26274E-02 -7.68269E-02 -3.06185E-01 -5.42662E-01 -7.29382E-01
  -8.46284E-01 -9.20727E-01 -9.96402E-01 -1.07387E+00 -1.12013E+00 -1.10649E+00 -1.02282E+00 -8.87148E-01 -7.29182E-01 -5.55317E-01
  -3.81566E-01 -2.44542E-01 -1.55468E-01 -1.04660E-01 -7.44162E-02 -5.40958E-02 -3.98720E-02 -3.06329E-02 -2.52041E-02 -2.24498E-02
  -2.12914E-02 -2.09492E-02 -2.07562E-02 -2.05562E-02 -2.01460E-02 -1.89312E-02 -1.63412E-02 -1.22847E-02 -6.79312E-03 -4.55781E-04
   6.59342E-03  1.40004E-02  2.16840E-02  2.92519E-02  3.63792E-02  4.28946E-02  4.88426E-02  5.45085E-02  6.00615E-02  6.55650E-02
   7.04971E-02  7.49907E-02  7.89703E-02  8.27571E-02  8.66773E-02  9.09340E-02  9.54865E-02  1.00054E-01  1.04256E-01  1.07954E-01
   1.11153E-01  1.14013E-01  1.16515E-01  1.18455E-01  1.19475E-01  1.19533E-01  1.18272E-01  1.15567E-01  1.11387E-01  1.06100E-01
   9.99314E-02  9.28712E-02  8.52114E-02  7.68579E-02  6.78598E-02  5.85005E-02  4.90623E-02  3.98101E-02  3.09747E-02  2.25278E-02
   1.44865E-02  6.83459E-03 -3.26422E-04 -6.88192E-03 -1.30422E-02 -1.88942E-02 -2.42840E-02 -2.93004E-02 -3.38591E-02 -3.78975E-02
  -4.12694E-02 -4.39952E-02 -4.57291E-02 -4.60210E-02 -4.49880E-02 -4.30570E-02 -4.06749E-02 -3.79883E-02 -3.47967E-02 -3.06800E-02
  -2.55848E-02 -1.98530E-02 -1.39293E-02 -7.79924E-03 -1.33031E-03  5.85329E-03  1.41884E-02  2.35709E-02  3.39636E-02  4.55498E-02
   5.84073E-02  7.25581E-02  8.77881E-02  1.03707E-01  1.19750E-01  1.35577E-01  1.50734E-01  1.64992E-01  1.78096E-01  1.89935E-01
   1.99985E-01  2.07614E-01  2.12425E-01  2.14329E-01  2.13480E-01  2.10256E-01  2.05014E-01  1.97533E-01  1.88053E-01  1.76896E-01
   1.64480E-01  1.51187E-01  1.37413E-01  1.23491E-01  1.09758E-01  9.64942E-02  8.37565E-02  7.14912E-02  6.00147E-02  4.94851E-02
   4.00756E-02  3.20246E-02  2.54164E-02  2.00773E-02  1.59844E-02  1.35078E-02  1.27869E-02  1.38064E-02  1.64216E-02  2.03741E-02
   2.51319E-02  3.02295E-02  3.56877E-02  4.15162E-02  4.76087E-02  5.38444E-02  5.96006E-02  6.47658E-02  6.92588E-02  7.28984E-02
   7.56016E-02  7.73413E-02  7.82502E-02  7.82669E-02  7.74128E-02  7.57556E-02  7.32806E-02  7.00514E-02  6.62853E-02  6.20188E-02
   5.72197E-02  5.21148E-02  4.69094E-02  4.17368E-02  3.66707E-02  3.17822E-02  2.70516E-02  2.23121E-02  1.74442E-02  1.23369E-02
   6.97346E-03  1.46127E-03 -4.25599E-03 -1.02003E-02 -1.70876E-02 -2.54598E-02 -3.56627E-02 -4.77584E-02 -6.18009E-02 -7.77071E-02
  -9.53750E-02 -1.14595E-01 -1.35383E-01 -1.57722E-01 -1.80989E-01 -2.04270E-01 -2.26905E-01 -2.48358E-01 -2.68027E-01 -2.85324E-01
  -2.99797E-01 -3.11096E-01 -3.18959E-01 -3.23698E-01 -3.25797E-01 -3.25369E-01 -3.22702E-01 -3.17951E-01 -3.11346E-01 -3.03282E-01
  -2.94013E-01 -2.83781E-01 -2.72496E-01 -2.60554E-01 -2.48130E-01 -2.35040E-01 -2.21186E-01 -2.06773E-01 -1.92176E-01 -1.77802E-01
  -1.63450E-01 -1.49205E-01 -1.35490E-01 -1.22317E-01 -1.09896E-01 -9.82795E-02 -8.73569E-02 -7.71576E-02 -6.77018E-02 -5.91479E-02
  -5.13880E-02 -4.43756E-02 -3.83129E-02 -3.30244E-02 -2.84934E-02 -2.47763E-02 -2.15255E-02 -1.83508E-02 -1.52605E-02 -1.24456E-02
  -9.78492E-03 -7.27108E-03 -5.00798E-03 -2.80076E-03 -6.40266E-04  1.22899E-03  2.87144E-03  4.25366E-03  5.19246E-03  5.65887E-03
   5.72043E-03  5.80266E-03  6.30133E-03  6.88051E-03  7.04773E-03  6.74858E-03  6.21394E-03  5.66381E-03  5.03413E-03  4.64889E-03
   4.48271E-03  4.07585E-03  3.26314E-03  2.07329E-03  8.27360E-04 -2.79059E-04 -1.15436E-03 -1.78075E-03 -2.19277E-03 -2.46197E-03
  -2.61550E-03 -2.73533E-03 -2.60173E-03 -2.14308E-03 -1.19145E-03 -1.03088E-04  9.60578E-04  1.83730E-03  2.37849E-03  2.61525E-03
   2.78477E-03  3.04120E-03  3.49007E-03  3.76775E-03  3.59643E-03  3.29061E-03  3.14189E-03  3.61707E-03  4.81710E-03  6.34793E-03
   7.79606E-03  8.77366E-03  9.51250E-03  1.03863E-02  1.13962E-02  1.23880E-02  1.30172E-02  1.30758E-02  1.28936E-02  1.27629E-02
   1.23837E-02  1.16959E-02  1.09868E-02  1.04472E-02  1.00846E-02  9.91091E-03  9.77927E-03  9.65144E-03  9.49303E-03  9.24472E-03
   8.92313E-03  8.81567E-03  9.07403E-03  9.77588E-03  1.08605E-02  1.23954E-02  1.38056E-02  1.50932E-02  1.65719E-02  1.83808E-02
   2.06026E-02  2.31235E-02  2.56740E-02  2.79867E-02
 NY background values follow
     5.467E-02    5.461E-02    5.455E-02    5.449E-02    5.443E-02    5.437E-02    5.431E-02    5.425E-02    5.419E-02    5.414E-02
     5.408E-02    5.402E-02    5.396E-02    5.390E-02    5.384E-02    5.378E-02    5.372E-02    5.366E-02    5.360E-02    5.354E-02
     5.348E-02    5.343E-02    5.337E-02    5.331E-02    5.325E-02    5.319E-02    5.313E-02    5.307E-02    5.301E-02    5.295E-02
     5.289E-02    5.283E-02    5.277E-02    5.271E-02    5.265E-02    5.259E-02    5.253E-02    5.247E-02    5.241E-02    5.235E-02
     5.229E-02    5.223E-02    5.217E-02    5.211E-02    5.205E-02    5.199E-02    5.193E-02    5.187E-02    5.181E-02    5.175E-02
     5.169E-02    5.162E-02    5.156E-02    5.150E-02    5.144E-02    5.138E-02    5.132E-02    5.126E-02    5.120E-02    5.113E-02
     5.107E-02    5.101E-02    5.095E-02    5.089E-02    5.082E-02    5.076E-02    5.070E-02    5.064E-02    5.057E-02    5.051E-02
