 
 $NMID
 ID=''
 FMTDAT='(2E13.5)'
 TRAMP=   1.00000E+0
 VOLUME=   1.00000E+0
 $END
   3.67151E+2   7.19109E+2
  -3.00116E+3   9.40315E+2
   4.32818E+3   2.71103E+3
   3.82186E+2   8.55681E+2
   2.47677E+3  -3.27311E+2
   3.37386E+3   4.18500E+2
   1.83410E+2  -1.87508E+2
   2.73942E+3  -1.05650E+3
   2.45700E+3  -2.98520E+3
   5.17770E+2  -1.76528E+3
   1.95636E+3  -3.11725E+3
   1.96670E+3   8.56945E+2
  -3.29283E+3   5.13056E+2
  -4.45504E+3  -2.55052E+3
  -2.16720E+3  -4.00310E+3
   5.10745E+2  -1.00039E+3
   8.21067E+2   3.29955E+3
  -3.02264E+3   3.50109E+3
  -5.81344E+3   5.48150E+2
  -1.05462E+3  -5.57923E+2
   2.22130E+3   2.26358E+3
  -2.81243E+3   5.54322E+3
  -4.06421E+3   3.96321E+2
   4.40355E+2  -1.80466E+3
   2.76747E+3   1.33515E+3
  -2.64471E+3   3.86126E+3
  -1.97048E+3   9.75848E+2
  -2.34107E+3  -1.86265E+3
   4.52241E+3  -2.75245E+3
   5.89716E+3   1.16426E+3
   2.84137E+2   6.03109E+3
  -5.63268E+3  -4.97427E+2
  -2.52736E+3  -6.33243E+3
   1.42336E+3  -2.13072E+3
  -6.38146E+2  -2.28326E+3
   8.67553E+0  -6.56446E+3
   3.83440E+3  -1.50794E+3
   1.41166E+3   1.24484E+3
  -1.81742E+3   1.64003E+3
  -1.00291E+3  -1.50772E+3
  -9.61742E+2   1.83573E+3
  -3.10337E+3  -2.90528E+3
   2.81380E+3  -4.91764E+3
   5.06093E+3  -2.10289E+3
   2.59991E+3   1.97352E+3
   1.41665E+3  -3.03294E+2
   8.22334E+2   1.00554E+3
   2.45480E+2   3.04310E+3
  -3.27166E+3   1.22305E+3
  -2.53162E+3   9.27576E+2
  -1.09681E+3  -2.82062E+3
   1.42514E+3  -1.60072E+3
   2.35765E+3   4.28647E+3
  -5.48544E+2   3.65441E+3
  -3.07292E+3   4.55438E+2
  -1.97751E+3  -7.30009E+2
  -4.21343E+3  -4.76623E+2
  -2.53585E+3  -3.29297E+3
   2.80531E+3  -3.43194E+3
   4.56906E+3  -1.30537E+3
   4.00235E+3   2.53195E+3
   6.85481E+2   2.09596E+3
  -1.89938E+3   2.94794E+3
   7.62692E+1   1.86075E+2
   6.32594E+2  -7.47241E+2
  -1.06944E+3   2.57205E+3
  -4.45208E+3   3.94114E+3
  -3.79175E+3   1.85144E+3
   5.07650E+2   5.35812E+2
   5.51497E+2   2.75351E+3
  -2.57129E+3  -5.58931E+2
  -1.10167E+3  -2.17589E+1
  -1.07785E+3   9.57175E+2
   7.32809E+2  -4.09940E+2
   2.38206E+3  -3.57296E+1
   4.93313E+1   7.53584E+2
   8.04918E+1  -7.50005E+2
   2.99360E+3  -7.07222E+2
  -9.54642E+1   7.70977E+2
  -4.92542E+2   3.35321E+3
   8.94928E+2  -8.18998E+2
  -7.84347E+2  -1.35760E+3
   1.13256E+3   1.13490E+3
  -1.57854E+3   2.10414E+3
  -1.53147E+3  -1.14540E+3
  -1.11724E+3  -4.36874E+3
   2.34853E+3  -1.48315E+3
   3.75293E+3  -1.11191E+2
   7.89561E+2   4.80350E+3
  -7.04659E+2   1.90990E+3
   6.87761E+2  -3.66918E+2
   4.07339E+3   4.76632E+2
  -1.74531E+3   2.27533E+3
  -2.68837E+3  -3.37168E+2
  -1.65305E+3  -4.04666E+3
   2.60897E+3  -2.60091E+3
   3.49885E+3   9.08907E+2
   6.63195E+2   2.47428E+3
  -1.78188E+3  -1.00560E+3
   3.16634E+2  -5.23588E+3
   2.43798E+3  -3.00303E+3
   2.49548E+3   1.71225E+3
  -9.23604E+2   4.16104E+3
  -2.39057E+3   1.47667E+3
  -2.71644E+3  -3.36967E+2
  -2.37792E+3   8.25430E+1
  -1.44345E+3  -3.73143E+2
  -1.87685E+3  -2.55587E+3
   5.59288E+2  -1.96451E+3
   1.25769E+3  -1.87064E+3
   1.49993E+3   9.31820E+2
   9.65570E+2   3.44171E+3
  -2.07490E+3   1.52858E+3
   6.61082E+2   9.44967E+2
   1.31063E+3  -1.17403E+3
  -5.09197E+2  -2.53049E+3
   4.29012E+2  -1.53376E+3
   1.86897E+3   4.25009E+2
   4.27903E+2  -2.10044E+3
   9.94084E+2   8.83568E+2
  -7.09993E+2  -1.96417E+2
  -6.17452E+2  -2.80713E+3
   2.05373E+3  -4.05542E+3
   3.62214E+3   2.48514E+3
   8.99919E+2   1.52527E+3
   1.10944E+3   1.41761E+2
   1.37298E+3   3.93644E+2
   1.27076E+2   2.89632E+2
  -4.75213E+2   1.75540E+3
   1.72875E+3   2.34772E+2
   4.72049E+2  -5.54291E+2
   3.63324E+3   6.08306E+2
   2.87692E+2   3.41720E+2
  -7.19178E+2   2.16947E+3
  -3.86796E+3  -1.40191E+2
  -2.33972E+2  -2.28379E+3
  -3.84338E+2  -2.46020E+3
  -1.95375E+3  -3.05885E+2
   1.32303E+2  -2.15566E+3
   1.76500E+3  -4.70837E+2
  -4.49416E+2  -7.36468E+2
   5.44763E+2  -9.72120E+2
  -5.72343E+2  -4.88024E+2
  -1.79878E+3   3.42764E+2
  -5.32341E+2  -1.76274E+3
   3.14393E+2  -1.20393E+3
   3.80313E+2  -1.84801E+3
  -1.48575E+3  -1.38255E+3
  -8.72599E+2  -2.67260E+2
  -2.53435E+3  -1.95793E+3
  -3.25332E+3  -4.55860E+2
  -8.96326E+1  -2.69722E+3
  -4.64301E+2  -1.10402E+3
   1.68062E+3  -4.73239E+2
  -2.38837E+2  -6.97284E+2
  -3.59099E+2   8.71553E+2
  -2.77317E+2  -1.44990E+3
   1.77483E+2  -1.20060E+3
   5.12083E+2  -9.30626E+2
  -1.22622E+3   1.39399E+2
  -9.45070E+1  -1.09287E+3
   1.72685E+2  -7.17338E+2
  -1.03529E+3  -6.49209E+1
   1.66814E+3  -1.64600E+3
  -5.45248E+2  -8.31877E+2
  -7.88257E+2  -2.65173E+3
   1.91196E+2  -3.16937E+3
   1.92765E+3   1.31841E+3
  -3.65126E+2   5.09473E+2
  -3.13716E+3   2.80993E+2
   6.62723E+2   1.51778E+3
   7.99068E+2  -9.27336E+2
  -1.51919E+3  -9.16631E+2
   1.78108E+3   2.15562E+2
  -5.25211E+2  -4.53020E+2
   9.33450E+2   6.64569E+2
  -4.94310E+2   3.92835E+2
   1.06490E+3  -1.05011E+3
  -1.78398E+3  -3.90756E+2
  -8.22990E+2  -2.03283E+2
  -8.47158E+2  -6.80149E+2
   4.19881E+2  -1.72762E+3
   5.85970E+2   5.01334E+2
   2.65248E+2  -2.80656E+2
   1.62166E+3   1.26436E+3
   2.58171E+2  -1.04505E+3
  -8.98365E+1   2.64344E+2
  -1.19522E+3  -8.13732E+2
   1.65892E+2  -1.11185E+3
   1.91014E+3  -4.82757E+2
   9.57004E+2   5.78621E+2
   1.31701E+3   1.67918E+3
  -3.91166E+2  -1.85524E+3
  -1.20298E+3   1.25543E+3
   1.65105E+2   3.06216E+2
  -2.05526E+1   1.17367E+3
  -2.56818E+3  -3.65490E+2
   4.05189E+2   2.39400E+2
   2.01358E+2   1.47696E+2
   2.91912E+2   2.47883E+3
  -4.65034E+2   3.80798E+2
  -6.07636E+2   5.13253E+2
   2.04054E+3  -2.32031E+3
   6.30089E+2   6.43390E+2
   1.86491E+3   1.07133E+3
  -2.51933E+3   1.05516E+3
  -2.90581E+2   2.84727E+2
  -1.24732E+3   5.81732E+2
  -1.71973E+3   1.90235E+2
  -1.30103E+3   4.49759E+2
  -1.42128E+3   1.12094E+3
   1.20883E+3  -1.66756E+3
  -2.76716E+2   8.92155E+2
   9.55032E+2   2.90249E+3
  -6.49512E+2   1.20426E+3
  -1.94827E+2  -1.06097E+2
  -1.02985E+2  -1.92918E+3
  -5.27321E+2   5.50126E+2
  -1.33176E+3  -6.88398E+1
   3.32290E+2   9.26955E+1
   2.58143E+2  -6.29053E+1
   1.18926E+3   2.22721E+2
  -2.02410E+3   2.89564E+3
   1.13696E+3   1.20700E+3
   4.73732E+2  -6.95897E+2
  -2.81177E+2   2.02169E-1
  -3.03371E+2   1.30319E+2
  -8.52254E+2   2.27520E+3
  -2.21695E+3   7.21527E+1
   8.00211E+2  -5.81564E+2
   7.12916E+2   7.58428E+2
  -3.03584E+2   6.37828E+2
  -2.58631E+3  -3.64651E+2
   8.73391E+2  -3.52291E+3
   2.45089E+3  -3.55837E+2
  -1.76301E+3   1.83500E+3
  -5.01371E+2   1.85493E+3
   3.34179E+2  -4.97133E+2
   1.41704E+3  -1.01778E+3
  -1.77792E+2   6.86800E+2
  -1.86850E+2   1.01338E+3
  -2.41091E+3   8.95856E+2
  -1.55052E+3   1.80419E+3
   1.08421E+2  -3.23321E+2
  -2.77554E+2  -1.86835E+3
   1.36023E+3   8.24715E+2
   4.19814E+2  -1.08052E+3
  -1.23425E+2   2.56147E+3
   1.64164E+3   1.54427E+3
  -1.77696E+3   4.58926E+2
  -2.55811E+3  -2.61358E+2
  -6.76882E+2  -5.61429E+2
  -1.08693E+3   1.09225E+2
   1.33771E+3  -5.75401E+2
   2.36002E+3  -8.86406E+2
   6.15375E+1  -7.73686E+2
   1.37268E+3   1.46795E+3
   5.92511E+2   1.10809E+2
  -5.51645E+2  -9.28090E+1
   1.08398E+3  -2.00130E+3
   1.26782E+3  -4.90922E+2
   4.64593E+2  -1.29523E+3
  -7.44864E+2   1.13850E+3
  -1.02051E+2  -4.63465E+2
  -1.14471E+3   1.28843E+3
  -6.12083E+2   3.61159E+2
  -8.11538E+2   1.43263E+3
  -4.91121E+2   6.83387E+2
   9.13424E+2  -2.09762E+2
   2.29163E+3  -8.80802E+2
   2.41622E+3   1.73509E+3
   1.27953E+3   1.30562E+3
  -9.37811E+2   8.18480E+2
   4.13407E+2   2.97026E+2
   1.85256E+2  -7.94547E+2
   8.53544E+2  -1.95318E+1
   6.82117E+2   1.06669E+3
   6.95053E+2  -1.53089E+3
   6.30179E+1   1.06900E+3
  -7.32225E+2   2.69436E+3
   7.86765E+2   7.28045E+1
   2.19143E+2   1.23749E+3
  -1.64964E+3  -5.83037E+1
   7.66012E+2   1.80981E+3
   1.04267E+3  -4.96547E+2
   1.03380E+3   2.38147E+3
   4.76185E+2   5.03331E+1
   1.04214E+3   8.51549E+2
   1.39729E+2  -1.04804E+3
  -5.63243E+2   5.67247E+2
   2.89713E+2   8.42915E+2
  -5.30050E+2   1.33345E+3
   1.46713E+3   5.34191E+2
   1.19191E+3   2.19895E+3
   4.76837E+2  -9.46157E+2
   1.90988E+3  -1.48581E+1
  -4.31818E+2   6.79667E+2
  -1.04138E+3   1.29561E+3
   3.62264E+2   2.73097E+3
  -3.32852E+2   1.35211E+3
  -1.04093E+3   8.04788E+2
  -1.31879E+3  -9.08239E+1
   1.30967E+3   2.07723E+3
  -1.29845E+3   7.94010E+2
  -6.10476E+2   2.61249E+2
   7.06748E+2  -7.56159E+2
  -2.03539E+2   2.03823E+3
  -1.35096E+3   4.29312E+2
  -1.34518E+3   6.80188E+1
  -2.01169E+3   3.76120E+2
   4.85511E+2  -6.58225E+1
   4.12481E+2   5.25457E+2
  -6.91151E+2   5.04976E+2
   7.92526E+2  -7.00051E+1
  -4.21665E+2  -9.89583E+2
   9.92294E+2   1.40788E+3
  -2.18598E+3   4.33417E+2
  -8.06607E+2  -3.25594E+2
   8.20923E+2  -1.41654E+3
   8.06514E+2  -1.42342E+3
   6.74818E+2   1.14062E+3
   4.91304E+2   5.70766E+2
  -1.36007E+3   2.01217E+3
   3.61771E+2  -2.59887E+3
   1.23409E+3   1.75277E+3
  -9.85409E+2   1.74582E+3
  -3.93119E+2   3.94514E+2
  -8.88231E+1  -6.84339E+2
   1.14606E+2  -1.42115E+2
  -1.74340E+3   2.67995E+3
   4.78470E+2   5.89145E+2
  -2.24863E+3   6.11134E+2
  -7.75226E+2  -1.67461E+2
   3.08770E+3   9.13739E+2
  -8.06812E+2  -1.37643E+3
   1.34017E+3  -6.67476E+2
   5.60773E+2  -6.96546E+2
   5.57789E+2   1.14296E+3
  -1.47829E+1   2.75097E+3
  -3.78227E+2   7.18153E+2
  -1.00682E+3  -1.53790E+2
   4.83288E+2  -2.02862E+3
   1.40470E+3   1.13181E+3
   6.70771E+2   6.85683E+2
  -1.99751E+2  -1.12787E+2
  -1.24555E+3   9.78520E+2
  -1.40467E+3  -8.77973E+2
  -1.36757E+2   1.83179E+3
  -1.93963E+3  -2.89492E+2
   8.42513E+2  -1.09516E+2
   2.87210E+1   2.00007E+3
  -2.91353E+2   7.84494E+2
  -8.09110E+1   9.35337E+2
  -2.24786E+3  -2.51500E+3
  -4.37681E+2  -6.22104E+2
  -1.44435E+3   5.27671E+1
   7.16278E+2   1.76482E+3
  -3.23744E+2  -1.35890E+3
  -3.54835E+2   2.13779E+2
  -3.89865E+2  -2.69791E+3
   5.71262E+1   2.16250E+3
   7.12804E+2  -7.40111E+2
  -5.97866E+2  -4.15226E+1
   1.34509E+3  -2.30359E+2
   9.63640E+2   1.46628E+3
   8.02739E+2  -1.55502E+2
  -1.75937E+2   4.20394E+2
