 
 $NMID
 ID=''
 FMTDAT='(2E13.5)'
 TRAMP=   1.00000E+0
 VOLUME=   1.00000E+0
 $END
  -2.33403E+4   2.94035E+3
  -6.00874E+4  -9.62135E+3
  -6.09177E+4   1.16144E+3
  -5.62897E+4   1.36714E+3
  -5.84088E+4  -1.46822E+1
  -5.82266E+4   2.69237E+3
  -5.58405E+4   2.04858E+3
  -5.64147E+4   6.56619E+2
  -5.62116E+4   2.01863E+3
  -5.46971E+4   1.31884E+3
  -5.50919E+4   3.09103E+2
  -5.49141E+4   1.24883E+3
  -5.39226E+4   9.73596E+2
  -5.44160E+4  -1.40815E+1
  -5.43289E+4   5.34395E+2
  -5.35461E+4   3.71948E+2
  -5.38102E+4  -1.29831E+2
  -5.36074E+4   3.74594E+2
  -5.29620E+4   5.44869E+2
  -5.30048E+4   1.75907E+2
  -5.28189E+4   6.52298E+2
  -5.22913E+4   9.28049E+2
  -5.23276E+4   7.29736E+2
  -5.20659E+4   9.96285E+2
  -5.13610E+4   1.15839E+3
  -5.12715E+4   1.10223E+3
  -5.11261E+4   1.23644E+3
  -5.05509E+4   1.09506E+3
  -5.03936E+4   8.84718E+2
  -5.01358E+4   1.01297E+3
  -4.97040E+4   1.16774E+3
  -4.96440E+4   1.00956E+3
  -4.94208E+4   9.79207E+2
  -4.88032E+4   8.99673E+2
  -4.86124E+4   9.26409E+2
  -4.84732E+4   9.50771E+2
  -4.79614E+4   9.42153E+2
  -4.77095E+4   9.00719E+2
  -4.73938E+4   9.77236E+2
  -4.71241E+4   1.02895E+3
  -4.68835E+4   7.97020E+2
  -4.67546E+4   6.67017E+2
  -4.62972E+4   4.85199E+2
  -4.60618E+4   4.59599E+2
  -4.57958E+4   5.08502E+2
  -4.55944E+4   3.73146E+2
  -4.54430E+4   2.31574E+2
  -4.52187E+4   3.07473E+2
  -4.49395E+4   3.52994E+2
  -4.47691E+4   2.87845E+2
  -4.44916E+4   2.02334E+2
  -4.42587E+4   1.72376E+2
  -4.39774E+4   2.59550E+2
  -4.38159E+4   3.13565E+2
  -4.35663E+4   2.90038E+2
  -4.34945E+4   1.07653E+2
  -4.32628E+4   9.87919E+1
  -4.31848E+4  -9.00039E+1
  -4.28922E+4  -1.81140E+2
  -4.26437E+4  -2.07866E+2
  -4.23609E+4  -2.16015E+2
  -4.22290E+4  -2.55401E+2
  -4.20587E+4  -1.50692E+2
  -4.18466E+4  -3.38731E+2
  -4.16143E+4  -3.57953E+2
  -4.14024E+4  -4.55385E+2
  -4.12907E+4  -4.16783E+2
  -4.10717E+4  -4.91580E+2
  -4.09190E+4  -6.07587E+2
  -4.07268E+4  -6.41146E+2
  -4.05743E+4  -7.48490E+2
  -4.03909E+4  -7.40826E+2
  -4.01606E+4  -8.42407E+2
  -3.99421E+4  -9.20843E+2
  -3.97678E+4  -9.29068E+2
  -3.95819E+4  -9.70588E+2
  -3.94415E+4  -1.05523E+3
  -3.91681E+4  -1.17787E+3
  -3.89309E+4  -1.23938E+3
  -3.87527E+4  -1.32385E+3
  -3.86678E+4  -1.31976E+3
  -3.84343E+4  -1.45567E+3
  -3.82055E+4  -1.54027E+3
  -3.80170E+4  -1.65765E+3
  -3.78378E+4  -1.74178E+3
  -3.77211E+4  -1.90181E+3
  -3.74286E+4  -1.98979E+3
  -3.71569E+4  -2.05127E+3
  -3.69810E+4  -2.00371E+3
  -3.68013E+4  -2.07453E+3
  -3.66313E+4  -2.19354E+3
  -3.63989E+4  -2.26392E+3
  -3.62662E+4  -2.24354E+3
  -3.60873E+4  -2.23310E+3
  -3.58891E+4  -2.34324E+3
  -3.56396E+4  -2.39008E+3
  -3.54272E+4  -2.32408E+3
  -3.52320E+4  -2.34263E+3
  -3.50951E+4  -2.44479E+3
  -3.49171E+4  -2.48572E+3
  -3.47018E+4  -2.49368E+3
  -3.44637E+4  -2.48410E+3
  -3.43715E+4  -2.40199E+3
  -3.42105E+4  -2.51652E+3
  -3.40582E+4  -2.47874E+3
  -3.39124E+4  -2.50533E+3
  -3.36557E+4  -2.45575E+3
  -3.35496E+4  -2.53118E+3
  -3.34120E+4  -2.48150E+3
  -3.31395E+4  -2.42438E+3
  -3.30085E+4  -2.41918E+3
  -3.28504E+4  -2.29950E+3
  -3.26914E+4  -2.31079E+3
  -3.25257E+4  -2.30984E+3
  -3.23921E+4  -2.29801E+3
  -3.22361E+4  -2.27082E+3
  -3.20389E+4  -2.33206E+3
  -3.18629E+4  -2.26568E+3
  -3.17054E+4  -2.31625E+3
  -3.15082E+4  -2.14845E+3
  -3.13800E+4  -2.10421E+3
  -3.12558E+4  -2.14669E+3
  -3.11041E+4  -2.16534E+3
  -3.09193E+4  -2.07452E+3
  -3.07983E+4  -2.05008E+3
  -3.06657E+4  -2.06183E+3
  -3.05429E+4  -2.10539E+3
  -3.03782E+4  -1.98091E+3
  -3.02434E+4  -2.12217E+3
  -3.00991E+4  -2.04861E+3
  -2.99595E+4  -2.12359E+3
  -2.97378E+4  -2.09925E+3
  -2.96124E+4  -2.04512E+3
  -2.94157E+4  -2.00364E+3
  -2.93788E+4  -1.95447E+3
  -2.92150E+4  -2.03136E+3
  -2.90184E+4  -2.07297E+3
  -2.88100E+4  -1.99461E+3
  -2.85706E+4  -2.01895E+3
  -2.84357E+4  -1.97868E+3
  -2.83393E+4  -2.01051E+3
  -2.80652E+4  -2.00853E+3
  -2.79484E+4  -1.99115E+3
  -2.78944E+4  -1.91828E+3
  -2.76459E+4  -1.94877E+3
  -2.74424E+4  -1.93388E+3
  -2.72770E+4  -1.88274E+3
  -2.71429E+4  -1.90900E+3
  -2.69562E+4  -1.86730E+3
  -2.68521E+4  -1.82935E+3
  -2.65724E+4  -1.81437E+3
  -2.64468E+4  -1.82439E+3
  -2.62282E+4  -1.78205E+3
  -2.60137E+4  -1.79777E+3
  -2.58450E+4  -1.71799E+3
  -2.56698E+4  -1.68560E+3
  -2.55243E+4  -1.67190E+3
  -2.53209E+4  -1.70604E+3
  -2.51361E+4  -1.75117E+3
  -2.49488E+4  -1.62577E+3
  -2.47348E+4  -1.67221E+3
  -2.45859E+4  -1.60611E+3
  -2.44430E+4  -1.60617E+3
  -2.42167E+4  -1.60308E+3
  -2.40005E+4  -1.52891E+3
  -2.38118E+4  -1.51841E+3
  -2.36801E+4  -1.58239E+3
  -2.34406E+4  -1.46013E+3
  -2.32544E+4  -1.48187E+3
  -2.31156E+4  -1.39490E+3
  -2.29177E+4  -1.44806E+3
  -2.27207E+4  -1.49706E+3
  -2.25363E+4  -1.38854E+3
  -2.23681E+4  -1.41792E+3
  -2.21463E+4  -1.37581E+3
  -2.19746E+4  -1.36331E+3
  -2.18018E+4  -1.37312E+3
  -2.15925E+4  -1.32298E+3
  -2.14017E+4  -1.31043E+3
  -2.13172E+4  -1.28684E+3
  -2.11158E+4  -1.21914E+3
  -2.08773E+4  -1.28934E+3
  -2.06121E+4  -1.30986E+3
  -2.05037E+4  -1.23951E+3
  -2.03789E+4  -1.25891E+3
  -2.01811E+4  -1.30287E+3
  -2.00372E+4  -1.24401E+3
  -1.98488E+4  -1.24564E+3
  -1.96708E+4  -1.34488E+3
  -1.94927E+4  -1.31543E+3
  -1.93065E+4  -1.33658E+3
  -1.91190E+4  -1.25377E+3
  -1.89010E+4  -1.27962E+3
  -1.88715E+4  -1.31832E+3
  -1.85903E+4  -1.27365E+3
  -1.84440E+4  -1.28330E+3
  -1.83443E+4  -1.28299E+3
  -1.81633E+4  -1.30562E+3
  -1.79472E+4  -1.33986E+3
  -1.78096E+4  -1.26641E+3
  -1.77610E+4  -1.40470E+3
  -1.75448E+4  -1.42355E+3
  -1.73693E+4  -1.40075E+3
  -1.71560E+4  -1.40880E+3
  -1.69979E+4  -1.40061E+3
  -1.69079E+4  -1.46812E+3
  -1.68335E+4  -1.41677E+3
  -1.66076E+4  -1.46571E+3
  -1.64760E+4  -1.46933E+3
  -1.62953E+4  -1.51605E+3
  -1.62005E+4  -1.54518E+3
  -1.59878E+4  -1.50117E+3
  -1.58823E+4  -1.55581E+3
  -1.58255E+4  -1.58806E+3
  -1.55749E+4  -1.55748E+3
  -1.55126E+4  -1.59563E+3
  -1.53544E+4  -1.62076E+3
  -1.51779E+4  -1.65120E+3
  -1.50559E+4  -1.67559E+3
  -1.49514E+4  -1.70721E+3
  -1.48096E+4  -1.69898E+3
  -1.46790E+4  -1.79363E+3
  -1.45727E+4  -1.74889E+3
  -1.43994E+4  -1.82831E+3
  -1.42998E+4  -1.86058E+3
  -1.42092E+4  -1.88332E+3
  -1.40879E+4  -1.89048E+3
  -1.39701E+4  -1.91183E+3
  -1.38782E+4  -2.01461E+3
  -1.37618E+4  -1.96421E+3
  -1.35854E+4  -2.04618E+3
  -1.34760E+4  -2.08276E+3
  -1.33877E+4  -2.16181E+3
  -1.33414E+4  -2.14993E+3
  -1.31421E+4  -2.20908E+3
  -1.30622E+4  -2.14786E+3
  -1.30030E+4  -2.26487E+3
  -1.28580E+4  -2.24861E+3
  -1.27607E+4  -2.35999E+3
  -1.26082E+4  -2.32746E+3
  -1.25066E+4  -2.36254E+3
  -1.25203E+4  -2.36617E+3
  -1.24201E+4  -2.43378E+3
  -1.22465E+4  -2.48606E+3
  -1.21817E+4  -2.53390E+3
  -1.21022E+4  -2.54757E+3
  -1.20176E+4  -2.56455E+3
  -1.18504E+4  -2.61233E+3
  -1.17670E+4  -2.58563E+3
  -1.17120E+4  -2.56924E+3
  -1.16459E+4  -2.70724E+3
  -1.16166E+4  -2.71451E+3
  -1.14578E+4  -2.75529E+3
  -1.13376E+4  -2.77184E+3
  -1.12569E+4  -2.76567E+3
  -1.12121E+4  -2.77716E+3
  -1.10945E+4  -2.85166E+3
  -1.10163E+4  -2.87349E+3
  -1.09879E+4  -2.92766E+3
  -1.09105E+4  -2.95477E+3
  -1.07935E+4  -2.96065E+3
  -1.07119E+4  -2.96668E+3
  -1.06621E+4  -2.98159E+3
  -1.05738E+4  -2.96514E+3
  -1.04436E+4  -3.04863E+3
  -1.04674E+4  -3.02786E+3
  -1.03374E+4  -3.04829E+3
  -1.03654E+4  -3.05965E+3
  -1.02416E+4  -3.15873E+3
  -1.00862E+4  -3.08829E+3
  -1.00417E+4  -3.15732E+3
  -1.00289E+4  -3.13774E+3
  -1.00241E+4  -3.12220E+3
  -9.89733E+3  -3.24802E+3
  -9.81897E+3  -3.18408E+3
  -9.80933E+3  -3.16828E+3
  -9.74391E+3  -3.22078E+3
  -9.70522E+3  -3.21887E+3
  -9.66016E+3  -3.23559E+3
  -9.56845E+3  -3.19789E+3
  -9.54005E+3  -3.20322E+3
  -9.50544E+3  -3.30572E+3
  -9.41426E+3  -3.33416E+3
  -9.34051E+3  -3.27644E+3
  -9.30308E+3  -3.29850E+3
  -9.30452E+3  -3.33173E+3
  -9.18050E+3  -3.24216E+3
  -9.13335E+3  -3.32312E+3
  -9.06188E+3  -3.27366E+3
  -9.04877E+3  -3.23822E+3
  -8.97610E+3  -3.30987E+3
  -8.93547E+3  -3.22841E+3
  -8.89239E+3  -3.35697E+3
  -8.77741E+3  -3.39364E+3
  -8.82213E+3  -3.31656E+3
  -8.72293E+3  -3.31515E+3
  -8.67336E+3  -3.39051E+3
  -8.65357E+3  -3.29835E+3
  -8.55897E+3  -3.29179E+3
  -8.56389E+3  -3.32057E+3
  -8.50307E+3  -3.28887E+3
  -8.44916E+3  -3.31592E+3
  -8.39771E+3  -3.29990E+3
  -8.37100E+3  -3.30552E+3
  -8.23013E+3  -3.43105E+3
  -8.17811E+3  -3.37045E+3
  -8.22134E+3  -3.26792E+3
  -8.13363E+3  -3.33288E+3
  -8.14186E+3  -3.31902E+3
  -8.03909E+3  -3.29489E+3
  -8.02444E+3  -3.27615E+3
  -7.96860E+3  -3.27900E+3
  -7.96596E+3  -3.26306E+3
  -7.80011E+3  -3.27939E+3
  -7.81337E+3  -3.26720E+3
  -7.77720E+3  -3.28739E+3
  -7.80122E+3  -3.23925E+3
  -7.72951E+3  -3.25328E+3
  -7.62872E+3  -3.28552E+3
  -7.61950E+3  -3.26864E+3
  -7.55308E+3  -3.21062E+3
  -7.52433E+3  -3.16957E+3
  -7.37754E+3  -3.21696E+3
  -7.38208E+3  -3.21273E+3
  -7.36594E+3  -3.16345E+3
  -7.26347E+3  -3.16632E+3
  -7.26320E+3  -3.16235E+3
  -7.17380E+3  -3.11584E+3
  -7.23220E+3  -3.12557E+3
  -7.13700E+3  -3.04576E+3
  -7.10730E+3  -3.13901E+3
  -6.97776E+3  -3.07872E+3
  -7.02208E+3  -3.12838E+3
  -6.93117E+3  -3.10611E+3
  -6.89689E+3  -3.07853E+3
  -6.86493E+3  -3.05930E+3
  -6.78712E+3  -3.06890E+3
  -6.84220E+3  -2.95824E+3
  -6.68328E+3  -2.98196E+3
  -6.71931E+3  -2.97749E+3
  -6.65294E+3  -3.00568E+3
  -6.54643E+3  -2.94454E+3
  -6.53046E+3  -2.95440E+3
  -6.50178E+3  -2.90711E+3
  -6.45915E+3  -2.89345E+3
  -6.41479E+3  -2.95154E+3
  -6.34451E+3  -2.85688E+3
  -6.35283E+3  -2.86636E+3
  -6.25814E+3  -2.83593E+3
  -6.26128E+3  -2.87050E+3
  -6.20594E+3  -2.81392E+3
  -6.08537E+3  -2.73942E+3
  -6.06245E+3  -2.81739E+3
  -6.04620E+3  -2.79540E+3
  -6.04399E+3  -2.81222E+3
  -5.92877E+3  -2.73934E+3
  -5.92764E+3  -2.74325E+3
  -5.90012E+3  -2.66251E+3
  -5.84654E+3  -2.71863E+3
  -5.86253E+3  -2.72737E+3
  -5.78455E+3  -2.64770E+3
  -5.79760E+3  -2.71355E+3
  -5.61350E+3  -2.64866E+3
  -5.59537E+3  -2.60411E+3
  -5.52973E+3  -2.63083E+3
  -5.52193E+3  -2.56892E+3
  -5.51623E+3  -2.60192E+3
