 LCModel (Version 6.3-1N) Copyright: S.W. Provencher.          Ref.: Magn. Reson. Med. 30:672-679 (1993).                
 Slice_N1@27_11  02-Jun-2023 14:38:11
 27 lines in following concentration table = NCONC+1
    Conc.  %SD /Cr+PCr  Metabolite                                         
 1.71E-06  35% 1.8E-04 Mac                                                 
 7.65E-02  19%   8.000 Cr                                                  
    0.000 999%   0.000 PCr                                                 
 6.43E-02  35%   6.720 Ins                                                 
 7.47E-02  20%   7.811 NAA                                                 
    0.171  14%  17.832 Tau                                                 
 1.35E-02  45%   1.413 PCho                                                
    0.000 999%   0.000 GPC                                                 
 5.53E-02  38%   5.784 Glu                                                 
 1.44E-02 105%   1.511 Gln                                                 
 2.52E-02  71%   2.640 Ala                                                 
    0.265  13%  27.748 Asc                                                 
 7.36E-03 121%   0.770 Asp                                                 
 4.86E-03 107%   0.508 GABA                                                
 5.94E-03  92%   0.621 Glc                                                 
 6.86E-03 119%   0.718 GSH                                                 
    0.000 999%   0.000 Lac                                                 
    0.000 999%   0.000 NAAG                                                
    0.000 999%   0.000 PE                                                  
 1.35E-02  45%   1.413 GPC+PCho                                            
 7.47E-02  20%   7.811 NAA+NAAG                                            
 6.98E-02  38%   7.295 Glu+Gln                                             
 7.65E-02  19%   8.000 Cr+PCr                                              
 7.47E-02  20%   7.811 NAA+NAAG                                            
 7.65E-02  19%   8.000 Cr+PCr                                              
 6.98E-02  38%   7.295 Glu+Gln                                             
   6 lines in following misc. output table
  FWHM = 0.076 ppm    S/N =   1                                            
  Data shift = 0.192 ppm                                                   
  Ph: -56 deg      -6.9 deg/ppm                                            
  alphaB,S = 3.1E+01,   2.0E+02                                            
   18 spline knots.   Ns =11(1)                                            
   2 inflections.     1 extrema                                            
  654 points on ppm-axis = NY
      4.000000     3.994181     3.988363     3.982544     3.976726     3.970907     3.965088     3.959270     3.953451     3.947633
      3.941814     3.935995     3.930177     3.924358     3.918540     3.912721     3.906902     3.901084     3.895265     3.889446
      3.883628     3.877809     3.871991     3.866172     3.860353     3.854535     3.848716     3.842898     3.837079     3.831260
      3.825442     3.819623     3.813805     3.807986     3.802167     3.796349     3.790530     3.784712     3.778893     3.773074
      3.767256     3.761437     3.755619     3.749800     3.743981     3.738163     3.732344     3.726526     3.720707     3.714888
      3.709070     3.703251     3.697433     3.691614     3.685795     3.679977     3.674158     3.668339     3.662521     3.656702
      3.650884     3.645065     3.639246     3.633428     3.627609     3.621791     3.615972     3.610153     3.604335     3.598516
      3.592698     3.586879     3.581060     3.575242     3.569423     3.563605     3.557786     3.551967     3.546149     3.540330
      3.534512     3.528693     3.522874     3.517056     3.511237     3.505419     3.499600     3.493781     3.487963     3.482144
      3.476326     3.470507     3.464688     3.458870     3.453051     3.447232     3.441414     3.435595     3.429777     3.423958
      3.418139     3.412321     3.406502     3.400684     3.394865     3.389046     3.383228     3.377409     3.371591     3.365772
      3.359953     3.354135     3.348316     3.342498     3.336679     3.330860     3.325042     3.319223     3.313405     3.307586
      3.301767     3.295949     3.290130     3.284312     3.278493     3.272674     3.266856     3.261037     3.255219     3.249400
      3.243581     3.237763     3.231944     3.226125     3.220307     3.214488     3.208670     3.202851     3.197032     3.191214
      3.185395     3.179577     3.173758     3.167939     3.162121     3.156302     3.150484     3.144665     3.138846     3.133028
      3.127209     3.121391     3.115572     3.109753     3.103935     3.098116     3.092298     3.086479     3.080660     3.074842
      3.069023     3.063205     3.057386     3.051567     3.045749     3.039930     3.034111     3.028293     3.022474     3.016656
      3.010837     3.005018     2.999200     2.993381     2.987563     2.981744     2.975925     2.970107     2.964288     2.958470
      2.952651     2.946832     2.941014     2.935195     2.929377     2.923558     2.917739     2.911921     2.906102     2.900284
      2.894465     2.888646     2.882828     2.877009     2.871191     2.865372     2.859553     2.853735     2.847916     2.842098
      2.836279     2.830460     2.824642     2.818823     2.813004     2.807186     2.801367     2.795549     2.789730     2.783911
      2.778093     2.772274     2.766456     2.760637     2.754818     2.749000     2.743181     2.737363     2.731544     2.725725
      2.719907     2.714088     2.708270     2.702451     2.696632     2.690814     2.684995     2.679177     2.673358     2.667539
      2.661721     2.655902     2.650084     2.644265     2.638446     2.632628     2.626809     2.620991     2.615172     2.609353
      2.603535     2.597716     2.591897     2.586079     2.580260     2.574442     2.568623     2.562804     2.556986     2.551167
      2.545349     2.539530     2.533711     2.527893     2.522074     2.516256     2.510437     2.504618     2.498800     2.492981
      2.487163     2.481344     2.475525     2.469707     2.463888     2.458070     2.452251     2.446432     2.440614     2.434795
      2.428977     2.423158     2.417339     2.411521     2.405702     2.399884     2.394065     2.388246     2.382428     2.376609
      2.370790     2.364972     2.359153     2.353335     2.347516     2.341697     2.335879     2.330060     2.324242     2.318423
      2.312604     2.306786     2.300967     2.295149     2.289330     2.283511     2.277693     2.271874     2.266056     2.260237
      2.254418     2.248600     2.242781     2.236963     2.231144     2.225325     2.219507     2.213688     2.207870     2.202051
      2.196232     2.190414     2.184595     2.178777     2.172958     2.167139     2.161321     2.155502     2.149683     2.143865
      2.138046     2.132228     2.126409     2.120590     2.114772     2.108953     2.103135     2.097316     2.091497     2.085679
      2.079860     2.074042     2.068223     2.062404     2.056586     2.050767     2.044949     2.039130     2.033311     2.027493
      2.021674     2.015856     2.010037     2.004218     1.998400     1.992581     1.986763     1.980944     1.975126     1.969307
      1.963489     1.957670     1.951852     1.946033     1.940215     1.934397     1.928578     1.922760     1.916941     1.911123
      1.905304     1.899486     1.893667     1.887849     1.882030     1.876212     1.870393     1.864575     1.858756     1.852938
      1.847119     1.841301     1.835482     1.829664     1.823845     1.818027     1.812208     1.806390     1.800571     1.794753
      1.788934     1.783116     1.777297     1.771479     1.765660     1.759842     1.754023     1.748205     1.742386     1.736568
      1.730749     1.724931     1.719113     1.713294     1.707476     1.701657     1.695839     1.690020     1.684202     1.678383
      1.672565     1.666746     1.660928     1.655109     1.649291     1.643472     1.637654     1.631835     1.626017     1.620198
      1.614380     1.608561     1.602743     1.596924     1.591106     1.585287     1.579469     1.573650     1.567832     1.562013
      1.556195     1.550376     1.544558     1.538739     1.532921     1.527102     1.521284     1.515465     1.509647     1.503829
      1.498010     1.492192     1.486373     1.480555     1.474736     1.468918     1.463099     1.457281     1.451462     1.445644
      1.439825     1.434007     1.428188     1.422370     1.416551     1.410733     1.404914     1.399096     1.393277     1.387459
      1.381640     1.375822     1.370003     1.364185     1.358366     1.352548     1.346729     1.340911     1.335092     1.329274
      1.323455     1.317637     1.311818     1.306000     1.300182     1.294363     1.288545     1.282726     1.276908     1.271089
      1.265271     1.259452     1.253634     1.247815     1.241997     1.236178     1.230360     1.224541     1.218723     1.212904
      1.207086     1.201267     1.195449     1.189630     1.183812     1.177993     1.172175     1.166356     1.160538     1.154719
      1.148901     1.143082     1.137264     1.131445     1.125627     1.119808     1.113990     1.108171     1.102353     1.096534
      1.090716     1.084898     1.079079     1.073261     1.067442     1.061624     1.055805     1.049987     1.044168     1.038350
      1.032531     1.026713     1.020894     1.015076     1.009257     1.003439     0.997620     0.991802     0.985983     0.980165
      0.974346     0.968528     0.962709     0.956891     0.951072     0.945254     0.939435     0.933617     0.927798     0.921980
      0.916161     0.910343     0.904524     0.898706     0.892887     0.887069     0.881251     0.875432     0.869614     0.863795
      0.857977     0.852158     0.846340     0.840521     0.834703     0.828884     0.823066     0.817247     0.811429     0.805610
      0.799792     0.793973     0.788155     0.782336     0.776518     0.770699     0.764881     0.759062     0.753244     0.747425
      0.741607     0.735788     0.729970     0.724151     0.718333     0.712514     0.706696     0.700877     0.695059     0.689240
      0.683422     0.677603     0.671785     0.665967     0.660148     0.654330     0.648511     0.642693     0.636874     0.631056
      0.625237     0.619419     0.613600     0.607782     0.601963     0.596145     0.590326     0.584508     0.578689     0.572871
      0.567052     0.561234     0.555415     0.549597     0.543778     0.537960     0.532141     0.526323     0.520504     0.514686
      0.508867     0.503049     0.497230     0.491412     0.485593     0.479775     0.473956     0.468138     0.462319     0.456501
      0.450682     0.444864     0.439045     0.433227     0.427408     0.421590     0.415771     0.409953     0.404134     0.398316
      0.392497     0.386679     0.380860     0.375042     0.369223     0.363405     0.357586     0.351767     0.345949     0.340130
      0.334312     0.328493     0.322675     0.316856     0.311038     0.305219     0.299401     0.293582     0.287764     0.281945
      0.276127     0.270308     0.264490     0.258671     0.252853     0.247034     0.241216     0.235397     0.229579     0.223760
      0.217942     0.212123     0.206305     0.200486
 NY phased data points follow
   1.70432E-01  6.86747E-02  2.20442E-01  4.89401E-01  6.03433E-01  5.53888E-04  3.17598E-01 -1.74591E-01 -4.43394E-02  2.64359E-01
   1.63324E-01 -9.91561E-02  1.29569E-01 -1.76324E-01 -3.63569E-01 -1.07907E-01  2.37283E-01  4.60657E-01 -8.22691E-03  2.74403E-01
   6.32634E-02  6.23098E-01  3.81336E-01 -7.81008E-02  1.02045E-01 -3.62769E-02 -2.69693E-01 -1.81753E-01 -3.03943E-02 -6.78264E-01
  -5.19493E-01 -7.42159E-01 -4.69559E-01 -6.20050E-01 -7.50070E-01 -9.36088E-01 -5.87200E-01 -1.55436E-02 -9.57223E-01 -3.16897E-01
  -6.69459E-01 -7.12156E-01  1.70308E-02  3.58536E-01  2.37035E-01 -2.36598E-01  6.71463E-01  2.55874E-01  9.61696E-02  5.65559E-01
   6.66952E-01  7.61599E-01  3.57795E-01  9.01278E-01  1.28632E+00  8.97236E-01  8.42763E-01  6.69467E-01  8.54962E-01  8.01182E-01
   4.14095E-01  4.28757E-01  3.23181E-01  1.04237E+00  5.81057E-01  2.37873E-01  4.46547E-01 -2.48278E-01 -3.78982E-01 -2.06438E-01
   6.44594E-01 -1.67586E-01 -2.69227E-01  7.06651E-01  3.04521E-01  2.16376E-01  2.85944E-01  2.24315E-01  1.31995E-01  9.17279E-02
  -1.93741E-01 -2.17150E-01 -5.54379E-01 -2.18220E-01  3.35117E-02 -2.63974E-01 -1.84803E-01  1.37989E-01  2.48625E-01 -8.71261E-02
  -4.33158E-02 -3.10829E-01  1.07027E-01 -3.20810E-02 -2.77824E-01 -2.23750E-01 -1.73039E-01 -1.62935E-01 -5.05182E-01 -2.81837E-02
  -1.22901E-01 -3.05645E-01 -9.48273E-03 -1.58378E-01 -7.78784E-01 -2.03050E-01 -1.17190E-01 -3.34558E-01  4.07765E-01 -3.53724E-01
  -1.41801E-01  8.76446E-01  4.13668E-01  3.99801E-01  2.77828E-01  3.53189E-01  2.58609E-01 -3.55138E-02  5.70154E-01  6.56423E-01
   6.94110E-01 -2.27634E-01  2.48763E-01  4.73715E-01 -1.48480E-02  4.60550E-01 -3.16053E-01 -2.03437E-01 -7.34912E-01 -7.98109E-01
  -5.64363E-01 -7.73480E-01 -2.81462E-01 -7.53047E-01 -1.18364E+00 -6.54476E-01 -7.41855E-01 -1.20422E+00 -1.04144E+00 -4.50904E-01
  -4.00340E-01 -7.83457E-01  2.88376E-02 -2.34141E-01 -9.42320E-02 -5.27237E-01 -4.92990E-01 -2.71875E-01 -1.02903E+00  5.21260E-01
  -1.42331E-01 -5.85695E-03  3.38059E-01 -4.28782E-01  5.02198E-01  1.85530E-01 -3.38554E-02  3.52550E-01 -6.44332E-02 -4.09754E-02
   1.85515E-01 -4.05694E-03  7.12120E-01  1.42951E-01 -1.88400E-02  8.57292E-01  2.46265E-01  3.65497E-01  1.54999E-01 -1.36020E-01
   7.99852E-02 -3.27416E-01  1.96322E-01 -2.94939E-01 -5.90102E-01 -2.55906E-01 -1.00728E+00 -8.47253E-02 -4.36168E-01 -1.02672E+00
  -7.21675E-01 -7.49587E-01 -2.05511E-02 -6.15333E-01 -3.73229E-01 -1.29787E-01 -4.24872E-01  3.91274E-02 -4.62321E-01 -1.29676E-01
   1.08369E-01 -4.95349E-01 -5.34758E-02 -2.49806E-01 -4.16651E-01 -1.52244E-01 -7.67307E-01 -4.92855E-01 -1.72276E-01 -2.25917E-01
  -1.26061E-01 -1.84740E-01  1.92670E-01 -1.02266E-01 -3.35939E-01 -1.97643E-01 -4.32636E-01  1.36984E-01  7.37202E-02 -6.67826E-01
  -1.27316E-01 -3.84354E-02 -2.93120E-01 -5.93386E-02 -2.09758E-02  1.95375E-01 -3.77979E-01 -4.10479E-01 -6.31250E-04 -2.89976E-01
   1.15617E-01 -1.06617E-01 -6.01037E-02  3.90245E-01  1.53625E-02  2.54804E-01  2.41898E-01  1.13843E-02  3.45290E-01  3.59108E-01
  -9.53562E-02  2.41110E-01  6.84025E-01  1.95042E-01 -4.38541E-02 -1.71449E-01  2.58303E-01  6.38132E-01  3.18223E-01  2.43231E-01
  -4.61290E-03 -3.70115E-01 -9.44680E-02  1.34715E-01 -8.22048E-02 -3.44649E-01 -3.80001E-01  1.22329E-01  2.54469E-01  9.06511E-01
   4.67479E-01 -7.45217E-02  6.80820E-01 -8.72762E-02 -4.64331E-01 -2.66740E-01  3.09172E-02  4.55727E-01  3.09742E-01 -3.48469E-01
  -3.45485E-01  1.18172E-01  3.02769E-01  2.88557E-01 -1.12644E-01  1.22125E-01  2.48228E-01  1.30164E-01  3.91434E-02  7.01526E-02
   1.34012E-02  4.17372E-01 -2.03213E-02 -2.91455E-01  4.58004E-01 -1.38249E-01 -8.42518E-02  3.66975E-01 -8.45468E-02 -2.01856E-01
   1.70898E-01 -2.87447E-01 -3.32981E-01 -1.02268E-01  3.93882E-02 -6.05486E-02 -2.41731E-01  6.50206E-02 -2.14280E-01  6.29779E-01
   8.90279E-01  1.20830E-01  2.07639E-01  3.93793E-01  3.49890E-01 -2.81950E-03  3.71635E-01  8.16101E-01  7.00386E-04  5.64649E-01
   2.79813E-01 -6.82288E-02  6.57862E-01 -1.93080E-03  2.40107E-01 -1.58212E-01  3.14365E-01  4.68822E-01  2.95124E-01  8.42777E-01
   5.49524E-01  2.26832E-01  1.38081E-02  4.18151E-02 -4.31143E-02  4.19678E-01  1.47268E-01  3.24803E-01 -1.15195E-01 -1.25140E-02
  -2.03971E-01 -4.57767E-01 -1.35235E-01 -5.54442E-01  2.35230E-01 -4.97112E-01 -1.73920E-01  1.00373E-01 -6.36268E-02  1.66538E-01
  -1.89030E-02  1.98057E-01 -3.31863E-02  1.21193E-01  3.63745E-01 -2.04313E-01 -5.42343E-01  6.95114E-03 -4.29286E-01 -1.41638E-01
  -2.67538E-01 -2.98103E-01 -2.23380E-01 -2.35849E-01 -4.44499E-01 -1.24737E+00 -2.96700E-01 -6.80731E-01 -3.72056E-01  2.01307E-01
  -2.39312E-01 -4.90772E-01 -6.06316E-01  2.74691E-01  6.26428E-02  5.47494E-02  1.40949E-01 -2.93489E-01  2.62911E-01  1.62100E-02
  -7.45319E-02 -6.01304E-02 -3.62829E-01  2.94238E-02 -6.45487E-01 -2.48898E-01 -2.34392E-02 -5.64012E-01 -3.83174E-02  3.01318E-01
   3.19420E-01  1.50758E-01  4.74804E-03  1.15343E-01  2.32346E-01 -3.50517E-01  4.43002E-01  3.52651E-01 -2.75681E-01 -1.33737E-01
  -5.27984E-01  1.24647E-01 -7.76777E-02 -4.03401E-01 -3.02145E-01 -7.16847E-02 -6.37435E-02 -1.30637E-01 -1.54013E-02  1.63326E-02
   4.95026E-01  1.96449E-01  2.03686E-01  2.64624E-01 -2.24109E-01  1.12280E-01  1.63451E-01 -5.12969E-01 -1.09001E-01 -1.17732E-02
  -6.60056E-02  3.41454E-01 -1.93751E-01 -2.79636E-01  2.76630E-01  1.61637E-01 -2.07403E-01  7.79392E-02  4.86302E-02 -2.02042E-01
  -2.60898E-01 -9.84679E-02 -4.05714E-01 -1.00472E-01 -2.66606E-01 -4.83797E-01  2.39571E-01 -4.16578E-01  2.74847E-01 -8.35588E-02
  -2.47515E-01  2.46665E-02 -5.00470E-01 -5.70328E-01 -8.88139E-01  1.41496E-01 -1.19635E-01  1.12935E-01  5.39475E-01  2.73284E-01
  -1.25951E-01 -1.60654E-01  3.73211E-01 -1.57355E-01 -5.43905E-01 -3.05626E-01  1.81007E-01  4.51070E-01  7.41107E-01 -2.23747E-02
  -9.19949E-02  5.36527E-02  9.29345E-02  1.04361E-01  2.13812E-01  8.20308E-01  1.52825E-01  1.69281E-01  6.03268E-01  5.75088E-01
   5.30290E-01  6.10408E-01  5.26230E-01  8.07884E-01  6.22514E-01  5.45659E-01  1.65648E-01 -7.15731E-02  1.36546E-01 -1.50790E-01
   4.21639E-01 -5.92461E-01 -7.97362E-01 -1.21977E-01 -1.79385E-01 -2.42996E-01 -4.92925E-01 -7.41194E-01 -8.38781E-01 -3.11598E-01
  -1.66135E-01 -2.00320E-01 -4.08763E-01 -2.55571E-01  2.98516E-02  9.57262E-02 -1.05684E-01  1.70720E-02  1.29535E-02 -1.06982E-01
   7.04828E-02  3.75908E-02  4.02409E-01  1.60589E-01 -1.33540E-01  7.20120E-02 -1.15137E-01 -2.08587E-01 -4.67779E-02 -9.12594E-02
   1.08883E-01  9.40553E-02 -2.28258E-01  2.14857E-01  3.67657E-01 -2.68519E-01  9.12768E-02  5.01543E-01  5.68437E-01  2.39808E-01
  -2.51505E-01  2.31003E-01  3.33791E-01  6.47845E-02  1.25191E-01  3.43942E-01 -1.94697E-02  1.15214E-01  1.72651E-01  2.08377E-01
   5.38370E-02 -2.82571E-01  9.06297E-02  1.74771E-01 -2.57890E-01 -2.02544E-01  1.96813E-01 -4.45344E-01  1.17853E-01 -6.97484E-02
  -6.96661E-02 -1.89140E-01 -5.75393E-02  7.50173E-01  1.44909E-01  1.72898E-01 -4.96624E-01 -3.04961E-01 -2.99565E-01 -3.86034E-01
  -4.30048E-01  8.65092E-03  4.01219E-02 -1.40768E-01 -4.17075E-02 -9.12830E-01 -1.07965E-01 -6.54169E-02 -4.05299E-01 -2.81504E-02
   2.39021E-01 -2.15611E-01 -3.88682E-02 -2.73224E-02 -1.25332E-01 -5.72098E-02 -1.96247E-01  1.60862E-01  4.55120E-02  1.55249E-01
  -1.76374E-01 -3.66819E-01 -2.78517E-01  3.19843E-01 -2.42857E-01 -4.71640E-02  1.62739E-01 -9.89990E-02  1.13139E-01 -9.59784E-02
   3.73661E-02 -5.83150E-01  3.72628E-01  4.03680E-01  3.31663E-01  3.93761E-01 -1.07932E-01 -2.23592E-01 -4.39024E-01  6.87117E-02
   2.71224E-02 -1.38265E-02  1.24531E-01 -1.45515E-01  4.11875E-02  3.75904E-01 -1.94776E-01  3.52935E-01 -5.64732E-01 -6.33105E-01
   4.66779E-01 -1.41376E-01 -1.80732E-01 -3.25563E-01  8.42905E-02 -2.83488E-02 -1.33862E-01 -3.68761E-02  1.94893E-01 -2.81273E-02
  -5.97647E-02 -1.34354E-01 -3.35343E-01  1.98656E-01 -9.06555E-01 -9.38990E-01 -1.31232E-02  8.38013E-02 -2.45899E-01 -3.99535E-01
  -4.66077E-01 -3.06129E-01 -4.53829E-01 -4.73738E-01 -1.03653E-01 -5.66096E-01  1.81664E-01 -5.01308E-01 -4.32445E-01  1.37017E-01
  -6.43920E-01 -1.74866E-02 -4.48933E-01  5.76391E-02 -6.65722E-02 -1.70866E-01  2.15876E-01 -4.76697E-01 -3.01161E-01 -3.91241E-01
   6.61097E-02 -3.57560E-01 -5.55278E-01  5.84236E-02  2.36117E-01  4.43901E-01  5.68164E-01  3.15397E-02  6.71184E-02  1.84056E-01
  -4.55959E-01 -1.00901E-01 -6.09338E-01  1.37539E-01  9.20654E-02 -8.59639E-02  8.99445E-01  5.00088E-01  4.18023E-01 -3.16561E-02
   5.00247E-01  1.00062E-01 -2.70913E-01  1.78648E-01  5.16385E-01  7.42734E-01 -3.49441E-01 -2.07493E-01 -1.93270E-02  1.47556E-01
   1.01026E-01 -8.69036E-02  3.28809E-02 -6.07585E-01
 NY points of the fit to the data follow
   4.37126E-01  4.29863E-01  4.14693E-01  3.92518E-01  3.63548E-01  3.27991E-01  2.83826E-01  2.31960E-01  1.75725E-01  1.20379E-01
   7.39041E-02  4.30974E-02  3.09668E-02  3.73910E-02  5.45673E-02  7.82733E-02  1.00830E-01  1.19582E-01  1.32276E-01  1.37452E-01
   1.33659E-01  1.18772E-01  9.12345E-02  5.05134E-02 -3.14368E-03 -6.80989E-02 -1.40193E-01 -2.11414E-01 -2.71408E-01 -3.12389E-01
  -3.48736E-01 -3.82912E-01 -4.15630E-01 -4.47369E-01 -4.75563E-01 -4.99297E-01 -5.13112E-01 -5.14589E-01 -5.01472E-01 -4.71411E-01
  -4.24219E-01 -3.59862E-01 -2.78829E-01 -1.81975E-01 -7.11635E-02  5.12823E-02  1.81874E-01  3.15849E-01  4.48153E-01  5.72847E-01
   6.83731E-01  7.75787E-01  8.42773E-01  8.81545E-01  8.87869E-01  8.60321E-01  7.99556E-01  7.12998E-01  6.15958E-01  5.15677E-01
   4.31563E-01  3.57328E-01  2.99065E-01  2.56081E-01  2.25327E-01  2.05806E-01  1.97742E-01  1.98179E-01  2.05017E-01  2.15729E-01
   2.26868E-01  2.36326E-01  2.42688E-01  2.43991E-01  2.40129E-01  2.30923E-01  2.15886E-01  1.95614E-01  1.70658E-01  1.41112E-01
   1.12687E-01  8.75588E-02  6.62759E-02  5.40402E-02  5.01280E-02  5.29909E-02  6.07100E-02  6.98925E-02  7.67904E-02  7.70528E-02
   6.85722E-02  4.92662E-02  1.77922E-02 -2.66342E-02 -8.30020E-02 -1.44000E-01 -2.05203E-01 -2.64763E-01 -3.16055E-01 -3.54457E-01
  -3.77942E-01 -3.84503E-01 -3.72119E-01 -3.39448E-01 -2.85694E-01 -2.11306E-01 -1.18416E-01 -1.12358E-02  1.02970E-01  2.13937E-01
   3.09301E-01  3.79090E-01  4.21013E-01  4.36532E-01  4.38458E-01  4.32885E-01  4.26416E-01  4.16444E-01  4.01181E-01  3.74868E-01
   3.36260E-01  2.84236E-01  2.19587E-01  1.44864E-01  6.19404E-02 -2.84009E-02 -1.27642E-01 -2.34387E-01 -3.46167E-01 -4.59230E-01
  -5.68758E-01 -6.70166E-01 -7.58175E-01 -8.27889E-01 -8.74869E-01 -8.95321E-01 -8.87020E-01 -8.49391E-01 -7.82406E-01 -6.92799E-01
  -5.91422E-01 -4.93743E-01 -4.04295E-01 -3.35518E-01 -2.72460E-01 -2.15060E-01 -1.54087E-01 -8.97676E-02 -2.79681E-02  2.16926E-02
   5.58834E-02  8.42851E-02  1.09936E-01  1.34471E-01  1.59229E-01  1.85800E-01  2.16707E-01  2.50057E-01  2.80637E-01  3.05424E-01
   3.22555E-01  3.31210E-01  3.31330E-01  3.22667E-01  3.04796E-01  2.77414E-01  2.40201E-01  1.92770E-01  1.35159E-01  6.79548E-02
  -7.01653E-03 -8.72069E-02 -1.70368E-01 -2.53112E-01 -3.30275E-01 -3.96183E-01 -4.45039E-01 -4.70769E-01 -4.68308E-01 -4.37327E-01
  -3.86462E-01 -3.40249E-01 -3.08965E-01 -2.85215E-01 -2.65826E-01 -2.49529E-01 -2.35301E-01 -2.22856E-01 -2.11653E-01 -2.01201E-01
  -1.91308E-01 -1.81960E-01 -1.73187E-01 -1.64709E-01 -1.56350E-01 -1.48125E-01 -1.40098E-01 -1.32222E-01 -1.24667E-01 -1.17465E-01
  -1.10703E-01 -1.04431E-01 -9.87592E-02 -9.37143E-02 -8.93039E-02 -8.55279E-02 -8.23960E-02 -7.99085E-02 -7.80618E-02 -7.68502E-02
  -7.61984E-02 -7.59978E-02 -7.61093E-02 -7.63107E-02 -7.58571E-02 -7.40518E-02 -7.08067E-02 -6.63044E-02 -6.05309E-02 -5.26374E-02
  -4.18001E-02 -2.84474E-02 -1.33191E-02  2.95635E-03  1.98166E-02  3.67840E-02  5.33445E-02  6.88468E-02  8.26913E-02  9.42369E-02
   1.02692E-01  1.07217E-01  1.07017E-01  1.01590E-01  9.08338E-02  7.49780E-02  5.48905E-02  3.23715E-02  9.80712E-03 -1.27393E-02
  -3.56841E-02 -5.80747E-02 -7.72775E-02 -9.03524E-02 -9.86370E-02 -1.05550E-01 -1.11256E-01 -1.16047E-01 -1.20203E-01 -1.23185E-01
  -1.24845E-01 -1.24867E-01 -1.23303E-01 -1.20115E-01 -1.15090E-01 -1.08205E-01 -9.92853E-02 -8.84768E-02 -7.56659E-02 -6.11450E-02
  -4.50073E-02 -2.76466E-02 -9.75889E-03  7.73740E-03  2.38603E-02  3.75299E-02  4.74855E-02  5.28122E-02  5.33167E-02  4.94579E-02
   4.30075E-02  3.19602E-02  1.67138E-02 -3.35606E-04 -1.96296E-02 -3.97695E-02 -6.06184E-02 -7.97811E-02 -9.60810E-02 -1.09453E-01
  -1.18958E-01 -1.24396E-01 -1.24548E-01 -1.19687E-01 -1.09312E-01 -9.36651E-02 -7.29251E-02 -4.75005E-02 -1.82045E-02  1.38985E-02
   4.72841E-02  8.01187E-02  1.10141E-01  1.34976E-01  1.52237E-01  1.60503E-01  1.60517E-01  1.53890E-01  1.44453E-01  1.35225E-01
   1.27287E-01  1.21954E-01  1.18005E-01  1.14436E-01  1.10664E-01  1.05959E-01  1.00194E-01  9.28547E-02  8.41936E-02  7.38518E-02
   6.18525E-02  4.80024E-02  3.22699E-02  1.47128E-02 -4.37974E-03 -2.46794E-02 -4.56256E-02 -6.65573E-02 -8.67248E-02 -1.05371E-01
  -1.21890E-01 -1.35648E-01 -1.46361E-01 -1.53624E-01 -1.57242E-01 -1.57134E-01 -1.53310E-01 -1.46109E-01 -1.35924E-01 -1.23768E-01
  -1.10781E-01 -1.01278E-01 -1.01430E-01 -1.12663E-01 -1.34325E-01 -1.65299E-01 -2.03284E-01 -2.46862E-01 -2.93935E-01 -3.42850E-01
  -3.91200E-01 -4.37421E-01 -4.79433E-01 -5.15623E-01 -5.44354E-01 -5.63382E-01 -5.72141E-01 -5.68322E-01 -5.49736E-01 -5.14454E-01
  -4.62191E-01 -3.94202E-01 -3.13814E-01 -2.29431E-01 -1.54159E-01 -1.04653E-01 -8.31173E-02 -7.02636E-02 -6.17583E-02 -5.59205E-02
  -5.19107E-02 -4.91471E-02 -4.72133E-02 -4.58059E-02 -4.46731E-02 -4.35823E-02 -4.23564E-02 -4.08549E-02 -3.89135E-02 -3.64488E-02
  -3.34400E-02 -2.99683E-02 -2.61008E-02 -2.20693E-02 -1.79418E-02 -1.39297E-02 -1.01569E-02 -6.64060E-03 -3.45099E-03 -4.75804E-04
   2.28574E-03  4.88332E-03  7.32717E-03  9.65148E-03  1.18508E-02  1.39431E-02  1.59388E-02  1.77994E-02  1.94922E-02  2.10099E-02
   2.23208E-02  2.34143E-02  2.42503E-02  2.47776E-02  2.49403E-02  2.47281E-02  2.41100E-02  2.30792E-02  2.15932E-02  1.96176E-02
   1.71488E-02  1.42102E-02  1.08940E-02  7.25748E-03  3.40935E-03 -5.93265E-04 -4.69246E-03 -8.85033E-03 -1.30207E-02 -1.71265E-02
  -2.10872E-02 -2.48524E-02 -2.83789E-02 -3.16349E-02 -3.45970E-02 -3.72366E-02 -3.95360E-02 -4.14968E-02 -4.30657E-02 -4.41822E-02
  -4.47874E-02 -4.48369E-02 -4.41577E-02 -4.20929E-02 -3.80218E-02 -3.16233E-02 -2.25124E-02 -1.11466E-02  1.89992E-03  1.61470E-02
   3.11255E-02  4.64964E-02  6.19252E-02  7.70635E-02  9.14387E-02  1.04545E-01  1.15790E-01  1.24582E-01  1.30408E-01  1.32745E-01
   1.31222E-01  1.25691E-01  1.16198E-01  1.03245E-01  8.79049E-02  7.20237E-02  5.82009E-02  4.93183E-02  4.56542E-02  4.61926E-02
   4.98459E-02  5.32590E-02  5.58801E-02  5.75243E-02  5.81152E-02  5.76211E-02  5.60707E-02  5.35097E-02  5.00228E-02  4.57514E-02
   4.08257E-02  3.53757E-02  2.95215E-02  2.33791E-02  1.70712E-02  1.07486E-02  4.56130E-03 -1.36008E-03 -6.87598E-03 -1.19148E-02
  -1.64292E-02 -2.03955E-02 -2.37707E-02 -2.65147E-02 -2.86038E-02 -3.00396E-02 -3.08482E-02 -3.10650E-02 -3.07313E-02 -2.98376E-02
  -2.84616E-02 -2.66694E-02 -2.45397E-02 -2.21599E-02 -1.96309E-02 -1.70694E-02 -1.45947E-02 -1.22950E-02 -1.02285E-02 -8.44858E-03
  -7.02119E-03 -5.97533E-03 -5.33708E-03 -5.11243E-03 -5.28613E-03 -5.82213E-03 -6.69819E-03 -7.91373E-03 -9.44292E-03 -1.12684E-02
  -1.33655E-02 -1.56923E-02 -1.81621E-02 -2.07124E-02 -2.33373E-02 -2.60289E-02 -2.87837E-02 -3.16103E-02 -3.45022E-02 -3.75205E-02
  -4.07112E-02 -4.41132E-02 -4.77794E-02 -5.17709E-02 -5.61649E-02 -6.10179E-02 -6.63834E-02 -7.23082E-02 -7.88379E-02 -8.60014E-02
  -9.37850E-02 -1.02110E-01 -1.10866E-01 -1.19957E-01 -1.29252E-01 -1.38576E-01 -1.47743E-01 -1.56577E-01 -1.64889E-01 -1.72478E-01
  -1.79145E-01 -1.84721E-01 -1.89086E-01 -1.92191E-01 -1.94024E-01 -1.94614E-01 -1.93966E-01 -1.92152E-01 -1.89274E-01 -1.85440E-01
  -1.80773E-01 -1.75420E-01 -1.69529E-01 -1.63237E-01 -1.56621E-01 -1.49741E-01 -1.42690E-01 -1.35534E-01 -1.28298E-01 -1.21003E-01
  -1.13687E-01 -1.06423E-01 -9.92868E-02 -9.23574E-02 -8.57080E-02 -7.93776E-02 -7.33906E-02 -6.77896E-02 -6.25723E-02 -5.77492E-02
  -5.33135E-02 -4.92583E-02 -4.55774E-02 -4.22378E-02 -3.92316E-02 -3.65003E-02 -3.40234E-02 -3.17933E-02 -2.97952E-02 -2.79820E-02
  -2.63053E-02 -2.47395E-02 -2.33153E-02 -2.19993E-02 -2.07492E-02 -1.95713E-02 -1.84528E-02 -1.73982E-02 -1.64054E-02 -1.54725E-02
  -1.46199E-02 -1.38718E-02 -1.32496E-02 -1.27376E-02 -1.22977E-02 -1.19193E-02 -1.15698E-02 -1.12156E-02 -1.08627E-02 -1.05275E-02
  -1.02081E-02 -9.88461E-03 -9.56758E-03 -9.24331E-03 -8.90122E-03 -8.55523E-03 -8.18304E-03 -7.75811E-03 -7.28599E-03 -6.73384E-03
  -6.06158E-03 -5.25013E-03 -4.31823E-03 -3.33253E-03 -2.33543E-03 -1.28440E-03 -1.42806E-04  1.07460E-03  2.36011E-03  3.71205E-03
   5.11692E-03  6.51926E-03  7.90239E-03  9.29298E-03  1.07191E-02  1.22012E-02  1.37146E-02  1.52627E-02  1.68573E-02  1.85248E-02
   2.02761E-02  2.21069E-02  2.40183E-02  2.60228E-02  2.80922E-02  3.01938E-02  3.22764E-02  3.43529E-02  3.64273E-02  3.85143E-02
   4.06253E-02  4.27668E-02  4.49379E-02  4.71450E-02  4.94004E-02  5.17799E-02  5.43384E-02  5.70840E-02  6.00371E-02  6.31677E-02
   6.64824E-02  7.00249E-02  7.38282E-02  7.79177E-02  8.22837E-02  8.69285E-02  9.18755E-02  9.71568E-02  1.02793E-01  1.08797E-01
   1.15160E-01  1.21908E-01  1.29122E-01  1.36833E-01
 NY background values follow
     1.273E-02    1.242E-02    1.210E-02    1.179E-02    1.147E-02    1.116E-02    1.085E-02    1.053E-02    1.022E-02    9.905E-03
     9.591E-03    9.277E-03    8.963E-03    8.649E-03    8.335E-03    8.021E-03    7.707E-03    7.393E-03    7.079E-03    6.766E-03
     6.452E-03    6.138E-03    5.824E-03    5.510E-03    5.196E-03    4.882E-03    4.568E-03    4.254E-03    3.940E-03    3.626E-03
     3.312E-03    2.998E-03    2.684E-03    2.371E-03    2.057E-03    1.743E-03    1.429E-03    1.115E-03    8.009E-04    4.870E-04
     1.731E-04   -1.409E-04   -4.548E-04   -7.687E-04   -1.083E-03   -1.397E-03   -1.711E-03   -2.024E-03   -2.338E-03   -2.652E-03
    -2.966E-03   -3.280E-03   -3.594E-03   -3.908E-03   -4.222E-03   -4.536E-03   -4.850E-03   -5.164E-03   -5.478E-03   -5.792E-03
    -6.106E-03   -6.419E-03   -6.733E-03   -7.047E-03   -7.361E-03   -7.675E-03   -7.989E-03   -8.303E-03   -8.617E-03   -8.931E-03
