 LCModel (Version 6.3-1N) Copyright: S.W. Provencher.          Ref.: Magn. Reson. Med. 30:672-679 (1993).                
 Slice_N1@16_22  02-Jun-2023 14:37:18
 27 lines in following concentration table = NCONC+1
    Conc.  %SD /Cr+PCr  Metabolite                                         
 1.71E-06  22% 2.2E-04 Mac                                                 
 4.34E-02  34%   5.669 Cr                                                  
 1.78E-02  87%   2.331 PCr                                                 
 9.12E-02  11%  11.917 Ins                                                 
 8.07E-02   9%  10.540 NAA                                                 
 7.12E-02  13%   9.304 Tau                                                 
 1.21E-02  20%   1.579 PCho                                                
    0.000 999%   0.000 GPC                                                 
 8.50E-02  13%  11.109 Glu                                                 
 2.52E-02  33%   3.293 Gln                                                 
 1.32E-03 650%   0.172 Ala                                                 
    0.000 999%   0.000 Asc                                                 
    0.000 999%   0.000 Asp                                                 
 5.80E-03  65%   0.758 GABA                                                
 5.35E-03  80%   0.699 Glc                                                 
 1.34E-02  36%   1.749 GSH                                                 
    0.000 999%   0.000 Lac                                                 
    0.000 999%   0.000 NAAG                                                
    0.000 999%   0.000 PE                                                  
 1.21E-02  20%   1.579 GPC+PCho                                            
 8.07E-02   9%  10.540 NAA+NAAG                                            
    0.110  12%  14.403 Glu+Gln                                             
 6.12E-02  12%   8.000 Cr+PCr                                              
 8.07E-02   9%  10.540 NAA+NAAG                                            
 6.12E-02  12%   8.000 Cr+PCr                                              
    0.110  12%  14.403 Glu+Gln                                             
   6 lines in following misc. output table
  FWHM = 0.029 ppm    S/N =   3                                            
  Data shift =-0.012 ppm                                                   
  Ph:  10 deg      -7.2 deg/ppm                                            
  alphaB,S = 3.1E+01,   3.5E+01                                            
   18 spline knots.   Ns = 7(1)                                            
   2 inflections.     1 extrema                                            
  654 points on ppm-axis = NY
      4.000000     3.994181     3.988363     3.982544     3.976726     3.970907     3.965088     3.959270     3.953451     3.947633
      3.941814     3.935995     3.930177     3.924358     3.918540     3.912721     3.906902     3.901084     3.895265     3.889446
      3.883628     3.877809     3.871991     3.866172     3.860353     3.854535     3.848716     3.842898     3.837079     3.831260
      3.825442     3.819623     3.813805     3.807986     3.802167     3.796349     3.790530     3.784712     3.778893     3.773074
      3.767256     3.761437     3.755619     3.749800     3.743981     3.738163     3.732344     3.726526     3.720707     3.714888
      3.709070     3.703251     3.697433     3.691614     3.685795     3.679977     3.674158     3.668339     3.662521     3.656702
      3.650884     3.645065     3.639246     3.633428     3.627609     3.621791     3.615972     3.610153     3.604335     3.598516
      3.592698     3.586879     3.581060     3.575242     3.569423     3.563605     3.557786     3.551967     3.546149     3.540330
      3.534512     3.528693     3.522874     3.517056     3.511237     3.505419     3.499600     3.493781     3.487963     3.482144
      3.476326     3.470507     3.464688     3.458870     3.453051     3.447232     3.441414     3.435595     3.429777     3.423958
      3.418139     3.412321     3.406502     3.400684     3.394865     3.389046     3.383228     3.377409     3.371591     3.365772
      3.359953     3.354135     3.348316     3.342498     3.336679     3.330860     3.325042     3.319223     3.313405     3.307586
      3.301767     3.295949     3.290130     3.284312     3.278493     3.272674     3.266856     3.261037     3.255219     3.249400
      3.243581     3.237763     3.231944     3.226125     3.220307     3.214488     3.208670     3.202851     3.197032     3.191214
      3.185395     3.179577     3.173758     3.167939     3.162121     3.156302     3.150484     3.144665     3.138846     3.133028
      3.127209     3.121391     3.115572     3.109753     3.103935     3.098116     3.092298     3.086479     3.080660     3.074842
      3.069023     3.063205     3.057386     3.051567     3.045749     3.039930     3.034111     3.028293     3.022474     3.016656
      3.010837     3.005018     2.999200     2.993381     2.987563     2.981744     2.975925     2.970107     2.964288     2.958470
      2.952651     2.946832     2.941014     2.935195     2.929377     2.923558     2.917739     2.911921     2.906102     2.900284
      2.894465     2.888646     2.882828     2.877009     2.871191     2.865372     2.859553     2.853735     2.847916     2.842098
      2.836279     2.830460     2.824642     2.818823     2.813004     2.807186     2.801367     2.795549     2.789730     2.783911
      2.778093     2.772274     2.766456     2.760637     2.754818     2.749000     2.743181     2.737363     2.731544     2.725725
      2.719907     2.714088     2.708270     2.702451     2.696632     2.690814     2.684995     2.679177     2.673358     2.667539
      2.661721     2.655902     2.650084     2.644265     2.638446     2.632628     2.626809     2.620991     2.615172     2.609353
      2.603535     2.597716     2.591897     2.586079     2.580260     2.574442     2.568623     2.562804     2.556986     2.551167
      2.545349     2.539530     2.533711     2.527893     2.522074     2.516256     2.510437     2.504618     2.498800     2.492981
      2.487163     2.481344     2.475525     2.469707     2.463888     2.458070     2.452251     2.446432     2.440614     2.434795
      2.428977     2.423158     2.417339     2.411521     2.405702     2.399884     2.394065     2.388246     2.382428     2.376609
      2.370790     2.364972     2.359153     2.353335     2.347516     2.341697     2.335879     2.330060     2.324242     2.318423
      2.312604     2.306786     2.300967     2.295149     2.289330     2.283511     2.277693     2.271874     2.266056     2.260237
      2.254418     2.248600     2.242781     2.236963     2.231144     2.225325     2.219507     2.213688     2.207870     2.202051
      2.196232     2.190414     2.184595     2.178777     2.172958     2.167139     2.161321     2.155502     2.149683     2.143865
      2.138046     2.132228     2.126409     2.120590     2.114772     2.108953     2.103135     2.097316     2.091497     2.085679
      2.079860     2.074042     2.068223     2.062404     2.056586     2.050767     2.044949     2.039130     2.033311     2.027493
      2.021674     2.015856     2.010037     2.004218     1.998400     1.992581     1.986763     1.980944     1.975126     1.969307
      1.963489     1.957670     1.951852     1.946033     1.940215     1.934397     1.928578     1.922760     1.916941     1.911123
      1.905304     1.899486     1.893667     1.887849     1.882030     1.876212     1.870393     1.864575     1.858756     1.852938
      1.847119     1.841301     1.835482     1.829664     1.823845     1.818027     1.812208     1.806390     1.800571     1.794753
      1.788934     1.783116     1.777297     1.771479     1.765660     1.759842     1.754023     1.748205     1.742386     1.736568
      1.730749     1.724931     1.719113     1.713294     1.707476     1.701657     1.695839     1.690020     1.684202     1.678383
      1.672565     1.666746     1.660928     1.655109     1.649291     1.643472     1.637654     1.631835     1.626017     1.620198
      1.614380     1.608561     1.602743     1.596924     1.591106     1.585287     1.579469     1.573650     1.567832     1.562013
      1.556195     1.550376     1.544558     1.538739     1.532921     1.527102     1.521284     1.515465     1.509647     1.503829
      1.498010     1.492192     1.486373     1.480555     1.474736     1.468918     1.463099     1.457281     1.451462     1.445644
      1.439825     1.434007     1.428188     1.422370     1.416551     1.410733     1.404914     1.399096     1.393277     1.387459
      1.381640     1.375822     1.370003     1.364185     1.358366     1.352548     1.346729     1.340911     1.335092     1.329274
      1.323455     1.317637     1.311818     1.306000     1.300182     1.294363     1.288545     1.282726     1.276908     1.271089
      1.265271     1.259452     1.253634     1.247815     1.241997     1.236178     1.230360     1.224541     1.218723     1.212904
      1.207086     1.201267     1.195449     1.189630     1.183812     1.177993     1.172175     1.166356     1.160538     1.154719
      1.148901     1.143082     1.137264     1.131445     1.125627     1.119808     1.113990     1.108171     1.102353     1.096534
      1.090716     1.084898     1.079079     1.073261     1.067442     1.061624     1.055805     1.049987     1.044168     1.038350
      1.032531     1.026713     1.020894     1.015076     1.009257     1.003439     0.997620     0.991802     0.985983     0.980165
      0.974346     0.968528     0.962709     0.956891     0.951072     0.945254     0.939435     0.933617     0.927798     0.921980
      0.916161     0.910343     0.904524     0.898706     0.892887     0.887069     0.881251     0.875432     0.869614     0.863795
      0.857977     0.852158     0.846340     0.840521     0.834703     0.828884     0.823066     0.817247     0.811429     0.805610
      0.799792     0.793973     0.788155     0.782336     0.776518     0.770699     0.764881     0.759062     0.753244     0.747425
      0.741607     0.735788     0.729970     0.724151     0.718333     0.712514     0.706696     0.700877     0.695059     0.689240
      0.683422     0.677603     0.671785     0.665967     0.660148     0.654330     0.648511     0.642693     0.636874     0.631056
      0.625237     0.619419     0.613600     0.607782     0.601963     0.596145     0.590326     0.584508     0.578689     0.572871
      0.567052     0.561234     0.555415     0.549597     0.543778     0.537960     0.532141     0.526323     0.520504     0.514686
      0.508867     0.503049     0.497230     0.491412     0.485593     0.479775     0.473956     0.468138     0.462319     0.456501
      0.450682     0.444864     0.439045     0.433227     0.427408     0.421590     0.415771     0.409953     0.404134     0.398316
      0.392497     0.386679     0.380860     0.375042     0.369223     0.363405     0.357586     0.351767     0.345949     0.340130
      0.334312     0.328493     0.322675     0.316856     0.311038     0.305219     0.299401     0.293582     0.287764     0.281945
      0.276127     0.270308     0.264490     0.258671     0.252853     0.247034     0.241216     0.235397     0.229579     0.223760
      0.217942     0.212123     0.206305     0.200486
 NY phased data points follow
   2.79866E-02  1.28011E-02 -4.27674E-01 -5.12577E-01  1.03755E-02 -2.28529E-01  6.75003E-02 -1.87865E-01  2.19534E-01  7.08643E-02
  -6.49652E-02  3.17527E-01 -1.09364E-01  2.26657E-01  1.95693E-01  2.77225E-01 -4.79031E-02  3.40562E-01  9.09864E-02 -7.10740E-03
   2.66123E-01 -2.71367E-01 -7.37199E-02 -4.37364E-01 -7.71854E-02  1.05077E-01 -9.66341E-02 -9.24746E-02 -1.16530E-01  6.85308E-02
  -1.81629E-01 -2.07643E-01 -6.75955E-02 -7.64245E-02  2.69283E-01 -1.39371E-01 -4.52526E-01 -3.17488E-02 -4.07299E-02  2.61523E-01
   1.34756E-01  2.16787E-01  3.93748E-01  5.86910E-01  3.79513E-01 -2.85531E-02  1.40554E-01 -6.89794E-02  3.05018E-01  2.30648E-01
   6.33948E-02  1.04429E-01 -2.96850E-02 -4.41469E-02 -8.67122E-02 -2.36629E-02  1.35634E-01  5.55335E-02 -4.63272E-01 -3.11135E-01
  -3.64903E-01 -1.68290E-01 -4.56875E-02 -4.30747E-01 -1.84618E-01 -1.37070E-01 -1.84298E-01 -3.62709E-01 -8.83151E-02  2.21666E-01
   4.61532E-02  1.68889E-01  7.18249E-02  2.12770E-02  1.46932E-01 -2.03490E-01 -4.15719E-01 -1.59503E-01 -4.12953E-01 -3.60117E-01
  -2.18250E-01 -5.83821E-01 -1.55189E-01  2.91618E-01  5.42275E-01  4.52758E-01  2.03585E-01  2.15294E-01  1.98543E-01  4.06180E-01
  -7.06098E-02  1.04324E-01  5.22007E-01  2.58666E-01  6.22959E-01  3.95922E-01  6.93024E-02  1.53055E-01 -9.33169E-02 -1.73415E-01
  -1.35939E-01 -4.46311E-01 -4.03413E-01 -5.81675E-03  9.13113E-02  4.17121E-01  5.26909E-01  4.10630E-01  6.85162E-01  9.38184E-01
   5.52064E-01  1.13683E-01  3.03701E-01  3.35445E-01  4.05481E-02  2.23365E-01  3.16599E-01  6.55639E-02  4.92056E-01  6.77008E-01
   2.86814E-01  2.58327E-01  2.62464E-01  4.43940E-01  3.54015E-01 -2.62353E-01 -1.76886E-01 -2.36434E-01 -6.14558E-01 -6.37070E-01
  -5.32356E-01 -6.92937E-01 -5.04801E-01 -3.70464E-01 -6.99132E-01 -1.18457E-01 -4.61866E-01 -7.39348E-01 -5.70782E-01 -3.82714E-01
  -8.00172E-02 -3.15235E-01 -1.80560E-01 -8.48603E-02 -1.14959E-01 -3.27843E-01  2.09045E-02  4.17803E-03  3.14364E-01 -2.73935E-02
  -2.26330E-01  1.20095E-01 -5.07552E-02  3.56492E-01  3.14332E-01  5.30112E-01  8.67996E-02  5.60268E-01  1.46452E-01  2.45638E-01
   8.06091E-01  9.62053E-02  6.34971E-01  4.01486E-01  5.81251E-01  3.89984E-01  3.78137E-01  6.21244E-01  2.62740E-01 -5.46919E-01
  -9.31086E-01 -8.89984E-01 -6.43374E-01 -2.47003E-01 -5.95568E-01 -4.80294E-01 -5.96763E-01 -2.15290E-01 -1.00275E-01 -1.47090E-02
  -3.54178E-01 -3.75240E-01 -2.47928E-01 -3.12994E-01  1.79505E-02 -1.73140E-01  1.65267E-01 -3.92908E-01 -3.12834E-01 -2.72082E-01
  -1.20726E-01  3.07485E-02 -3.43176E-01  5.43282E-02 -3.47844E-01 -3.84951E-01 -1.65757E-02 -1.34462E-01 -2.23666E-01 -9.75073E-02
  -5.98243E-02 -1.38181E-01 -3.56164E-01  3.40075E-02  5.04485E-02 -1.38797E-01  4.71026E-01 -1.99909E-01 -4.43029E-01  4.65427E-01
   8.11715E-02 -2.28491E-02  2.19828E-01  1.56839E-01  2.40313E-01  2.79506E-01  4.06047E-01  5.82857E-02  3.07256E-01 -5.61984E-02
  -1.13374E-01  5.81336E-02 -2.58664E-01  1.20045E-02 -6.81942E-02  1.30271E-01 -1.23943E-01  1.06073E-01  2.24053E-01  6.20712E-02
  -3.90983E-02 -1.27481E-01  3.24169E-01 -3.66459E-02 -2.48562E-01 -1.66269E-01 -2.18320E-01 -3.60790E-02 -3.31001E-02 -6.11239E-02
   4.05519E-02 -4.90470E-01 -4.81060E-01 -7.59270E-02 -9.33327E-02 -1.30366E-01 -2.03305E-01 -1.23985E-02 -1.03244E-01 -2.54244E-02
   1.46094E-01 -8.97985E-02 -1.26219E-01 -2.61326E-01 -1.04241E-01  3.53859E-01  7.93142E-02 -5.02275E-02  3.73532E-02 -4.44548E-02
   7.89727E-02  2.44120E-01 -3.83064E-02 -2.43241E-02  1.05809E-01 -2.82445E-03  3.21836E-02  1.09102E-01  4.11017E-01  1.05171E-01
   2.94551E-01  1.40027E-01 -2.20159E-02 -1.12672E-02 -1.29557E-01  1.51168E-01 -3.87336E-01 -1.40398E-01 -4.18640E-01 -6.33006E-01
  -2.48103E-02 -1.56287E-01 -3.79529E-01 -3.97348E-01 -5.78663E-02  2.03876E-01  2.70613E-01  3.59816E-01  6.41723E-01  7.01080E-01
   4.42550E-01  2.65665E-01 -6.27209E-02  1.24674E-01  5.47253E-01  2.07577E-01  2.69968E-01  2.44623E-01  1.47251E-01  3.26945E-01
   2.94056E-01  3.18205E-01  3.12375E-01  2.02520E-01  2.03870E-01  4.58169E-01  1.49559E-01 -3.92037E-02  1.11257E-01  4.03498E-01
   4.13161E-01  1.97675E-03  1.78235E-01  5.60877E-01  1.57748E-01 -8.86845E-02 -1.65470E-01 -4.01458E-01 -1.76454E-01 -1.93280E-01
   6.87081E-03 -1.57919E-01 -3.07783E-01 -6.12702E-01 -4.87413E-01  1.84070E-01 -1.49853E-02 -1.97720E-02  2.66872E-01  1.32649E-01
   2.82867E-02  2.27005E-01 -2.24547E-01 -2.60843E-02  9.71245E-04 -9.36208E-02 -1.79392E-01 -2.89335E-01 -3.93739E-01 -7.31893E-01
  -2.79053E-01 -6.82469E-01 -7.96208E-01 -1.33699E+00 -1.72135E+00 -8.89754E-01 -2.70036E-01 -2.49357E-01 -2.03184E-01  1.45252E-01
  -1.54514E-01  2.11698E-01  4.35901E-01 -1.63851E-01 -2.12602E-01  2.74662E-01  3.86604E-01  3.45638E-01  1.89151E-01  8.34594E-03
   3.05962E-02  2.17626E-01 -1.27963E-01 -9.30186E-03  4.46064E-01  1.57958E-01  3.82370E-01 -2.39438E-01 -1.01910E-01  3.50017E-01
   3.60221E-02  2.09197E-01  3.50261E-01  7.51174E-02 -2.41707E-01  1.45603E-01  6.66717E-02  1.36961E-01  2.28009E-01  2.35321E-01
   2.60778E-01  2.23593E-01  3.40075E-01  2.90983E-01  1.73843E-01 -2.58323E-02  1.58240E-02  1.71342E-01  3.18707E-01  1.38639E-01
  -3.59265E-03  5.25408E-02  5.20829E-01  4.65441E-01  1.80688E-01  2.77261E-01 -2.25193E-02  8.44929E-02  2.66191E-01  2.81123E-01
   2.12467E-01  1.24280E-01  8.86235E-02 -1.38901E-02 -2.81902E-01 -2.46980E-01  2.94770E-03 -7.78841E-04  1.15239E-02 -2.71409E-01
  -2.94929E-01  8.29728E-02  5.24156E-02 -8.34900E-02 -1.22397E-01 -2.53559E-01 -1.97403E-02 -1.05245E-02 -2.19230E-01 -1.77018E-01
   3.38236E-02 -1.93276E-02  7.36312E-02  2.43779E-01 -4.29349E-01 -2.05245E-01  7.12843E-02 -4.28791E-01 -3.98538E-01  2.49060E-01
   1.88899E-01 -2.63426E-01  1.86977E-01  2.98072E-01  1.27615E-01 -6.52104E-02  6.25135E-02  7.77580E-02 -3.13559E-01 -2.18972E-01
   2.02708E-01 -1.57394E-01 -1.59485E-01  1.63032E-01 -3.56530E-01 -2.01501E-01 -8.45514E-02  1.38832E-01 -1.17290E-01 -2.62125E-01
   1.54845E-01  2.27883E-01  3.56142E-01  3.39544E-01  2.46684E-01 -1.59261E-01 -1.17951E-02 -6.92537E-02 -4.80123E-01 -5.43575E-01
   1.04891E-01  1.64536E-01 -8.25369E-02 -2.66921E-01 -3.02016E-01  4.01529E-01 -1.49784E-01 -3.33881E-01 -7.39890E-03 -6.17502E-02
  -3.18187E-01 -1.23271E-01 -2.02930E-01 -1.76355E-01  1.35897E-01 -2.32029E-01 -1.62087E-01 -3.00540E-01 -2.50730E-01 -2.86354E-02
   1.22515E-01 -2.35737E-03  1.01680E-01 -1.55716E-01 -1.04853E-01 -6.51167E-02  1.38820E-01  3.75204E-01 -1.05909E-01  3.59521E-01
  -1.29619E-01 -9.17557E-04 -5.96862E-02  1.20595E-02  3.68698E-01  1.42230E-01  2.90309E-01 -4.98835E-03  2.86985E-01  2.01628E-01
   9.12603E-02  1.79270E-01  1.36441E-01  6.74114E-02  3.63340E-01  1.47663E-01  2.55759E-01  1.30908E-01 -2.95039E-01  3.99992E-01
   1.15780E-01 -6.63138E-02  1.79470E-02  9.77353E-02  1.90987E-01  2.79976E-01 -7.67953E-02 -7.40247E-02  3.33244E-01  4.89087E-02
  -5.29079E-02 -1.70644E-02 -8.06002E-03 -1.27837E-02  9.86944E-02 -3.13022E-01 -4.14075E-01 -4.98225E-01 -5.67552E-01 -6.06845E-01
  -5.36972E-01 -1.64099E-01 -1.63813E-01 -1.39715E-01 -4.08855E-01 -1.95339E-01 -5.29125E-02 -3.07930E-01 -4.69372E-01 -2.48049E-01
   2.57254E-02 -2.71425E-01 -4.84991E-01 -1.03309E-01  1.43490E-01 -3.04492E-01 -1.68313E-01  1.66671E-01  8.27451E-02  5.75940E-03
  -2.18773E-02 -2.50150E-03  1.86646E-01  2.75687E-01  2.86060E-02  2.84682E-01  4.13151E-01  8.30610E-02  2.35058E-01  2.65509E-01
   8.39809E-02  2.03015E-01  4.10855E-01  2.64430E-01  2.04450E-01  1.70108E-01 -1.80448E-02  2.05298E-02  5.66162E-02 -7.52018E-02
  -1.06398E-01  1.55380E-01 -9.85123E-02  1.19776E-01  2.64088E-01 -8.47442E-02  1.09673E-02  1.57258E-01  3.59856E-02  4.00655E-02
   2.74987E-01 -1.72722E-02  2.54929E-01  3.54308E-01  3.40187E-01 -3.38169E-02 -1.72412E-01  1.12985E-01 -1.00205E-01  7.50763E-02
  -1.74956E-01  7.47994E-03  3.14450E-01  2.44116E-01 -7.94662E-02 -4.50945E-02  1.16880E-01 -2.03901E-01 -1.40038E-01  1.03728E-01
  -2.35773E-01  1.49445E-02  5.98747E-02 -4.99391E-01  2.90304E-01 -5.82702E-02 -1.34365E-02  3.98215E-01  4.26363E-02  8.39537E-02
   2.16505E-01  3.57912E-01 -7.12691E-02  4.82318E-02 -8.83718E-02 -1.33061E-01  2.05818E-01  8.26281E-02  6.99566E-02  1.76864E-01
  -8.75275E-02 -5.30969E-02 -2.10491E-02 -1.00500E-01  7.46175E-02  1.29733E-01  1.47778E-01 -1.37693E-01 -7.99302E-02 -1.11333E-01
   3.74187E-02 -4.53181E-03 -1.50407E-01  2.75135E-02  9.68161E-02  4.82117E-03 -9.01317E-03  1.64770E-01  1.25132E-01  2.70216E-01
  -6.02080E-02  1.43982E-02  1.37112E-01  1.06961E-01  4.17213E-01  2.54206E-01 -3.71343E-02 -1.66486E-01 -3.13941E-02 -2.75921E-02
  -1.10814E-01  6.86298E-02  6.00310E-02  4.65541E-02
 NY points of the fit to the data follow
   5.68437E-03  9.62104E-03  1.31396E-02  1.67550E-02  2.06846E-02  2.76836E-02  3.60322E-02  4.78917E-02  6.84318E-02  9.64726E-02
   1.33723E-01  1.84552E-01  2.47936E-01  3.12208E-01  3.60658E-01  3.91783E-01  4.06791E-01  3.78714E-01  2.83374E-01  1.53883E-01
   5.01953E-02 -4.38935E-03 -2.93271E-02 -4.66593E-02 -6.22976E-02 -7.68984E-02 -9.07245E-02 -1.02969E-01 -1.13885E-01 -1.24758E-01
  -1.36868E-01 -1.49977E-01 -1.65081E-01 -1.76586E-01 -1.87081E-01 -1.90982E-01 -1.84616E-01 -1.64492E-01 -1.22990E-01 -5.36187E-02
   5.13572E-02  1.78765E-01  2.92553E-01  3.58290E-01  3.73847E-01  3.51932E-01  3.02445E-01  2.33695E-01  1.58939E-01  9.52465E-02
   4.75151E-02  1.12244E-02 -2.05467E-02 -5.17541E-02 -8.43404E-02 -1.20099E-01 -1.59910E-01 -1.98921E-01 -2.41620E-01 -2.82340E-01
  -3.10830E-01 -3.29832E-01 -3.30370E-01 -3.12292E-01 -2.68742E-01 -2.01419E-01 -1.17603E-01 -1.21882E-02  1.18071E-01  2.37988E-01
   3.09375E-01  3.29326E-01  3.01229E-01  2.27152E-01  1.26775E-01  2.65685E-02 -6.60573E-02 -1.49903E-01 -2.28622E-01 -3.02567E-01
  -3.58754E-01 -3.57788E-01 -2.57547E-01 -7.59265E-02  1.12433E-01  2.61565E-01  3.74666E-01  4.41924E-01  4.44780E-01  3.96596E-01
   3.35686E-01  2.81870E-01  2.33471E-01  1.75548E-01  1.17413E-01  4.71433E-02 -2.36804E-02 -1.03168E-01 -1.83147E-01 -2.53430E-01
  -2.86505E-01 -2.56159E-01 -1.50540E-01  7.18215E-03  1.65533E-01  2.82871E-01  3.40043E-01  3.51165E-01  3.42219E-01  3.30362E-01
   3.22263E-01  3.15153E-01  3.09066E-01  3.03521E-01  2.98214E-01  2.92905E-01  2.84590E-01  2.76280E-01  2.63730E-01  2.43123E-01
   2.18284E-01  1.80486E-01  1.26025E-01  5.13968E-02 -3.62676E-02 -1.21054E-01 -2.03111E-01 -2.83249E-01 -3.56886E-01 -4.36052E-01
  -5.16401E-01 -5.88289E-01 -6.10275E-01 -5.74109E-01 -5.11915E-01 -4.90062E-01 -5.40735E-01 -6.10269E-01 -5.82616E-01 -4.24214E-01
  -2.33182E-01 -1.01216E-01 -3.55302E-02  4.03467E-03  3.77940E-02  6.41301E-02  8.62911E-02  1.05748E-01  1.23227E-01  1.39053E-01
   1.53704E-01  1.67731E-01  1.81748E-01  1.96217E-01  2.11646E-01  2.28670E-01  2.48179E-01  2.71218E-01  2.99492E-01  3.36240E-01
   3.84392E-01  4.17615E-01  4.51078E-01  4.65424E-01  4.67069E-01  4.49860E-01  4.06427E-01  2.82690E-01  1.28187E-02 -3.70368E-01
  -6.74030E-01 -7.34415E-01 -6.11066E-01 -4.64930E-01 -3.79893E-01 -3.35656E-01 -2.99920E-01 -2.69878E-01 -2.46331E-01 -2.31598E-01
  -2.23785E-01 -2.14668E-01 -2.00738E-01 -1.86750E-01 -1.78630E-01 -1.75735E-01 -1.73763E-01 -1.69705E-01 -1.63279E-01 -1.55934E-01
  -1.48748E-01 -1.41592E-01 -1.33536E-01 -1.24657E-01 -1.15951E-01 -1.08022E-01 -1.00910E-01 -9.44536E-02 -8.86524E-02 -8.34220E-02
  -7.88427E-02 -7.49939E-02 -7.17667E-02 -6.88824E-02 -6.62683E-02 -6.40650E-02 -6.23161E-02 -6.08218E-02 -5.91331E-02 -5.72358E-02
  -5.52864E-02 -5.33824E-02 -5.14147E-02 -4.92820E-02 -4.72444E-02 -4.55141E-02 -4.41396E-02 -4.24765E-02 -3.77295E-02 -2.96224E-02
  -1.81254E-02 -2.50803E-03  1.84041E-02  4.67671E-02  8.68216E-02  1.38921E-01  1.90774E-01  2.15333E-01  2.02637E-01  1.79180E-01
   1.75289E-01  1.80782E-01  1.59310E-01  9.89214E-02  2.70952E-02 -2.51684E-02 -5.24479E-02 -6.60648E-02 -7.54861E-02 -8.38245E-02
  -9.08152E-02 -9.73414E-02 -1.02449E-01 -1.06035E-01 -1.07962E-01 -1.08960E-01 -1.10070E-01 -1.11903E-01 -1.14464E-01 -1.18011E-01
  -1.20225E-01 -1.25293E-01 -1.30089E-01 -1.34349E-01 -1.33814E-01 -1.25948E-01 -1.04425E-01 -6.39527E-02 -1.71587E-02  2.14680E-02
   4.77727E-02  7.28570E-02  9.50792E-02  1.01476E-01  9.83963E-02  1.00347E-01  1.08755E-01  1.09429E-01  1.03100E-01  9.65154E-02
   9.06339E-02  7.61266E-02  4.75591E-02  8.17760E-03 -3.85317E-02 -8.69118E-02 -1.37472E-01 -1.86212E-01 -2.31024E-01 -2.71116E-01
  -3.00326E-01 -3.14816E-01 -2.99492E-01 -2.37205E-01 -1.19305E-01  4.15888E-02  2.11125E-01  3.44842E-01  4.17515E-01  4.27521E-01
   3.93025E-01  3.41721E-01  2.95445E-01  2.62482E-01  2.41376E-01  2.28457E-01  2.23028E-01  2.21788E-01  2.20032E-01  2.15463E-01
   2.07982E-01  1.99330E-01  1.90926E-01  1.82987E-01  1.75339E-01  1.67433E-01  1.58888E-01  1.48911E-01  1.36951E-01  1.21671E-01
   1.02124E-01  7.71040E-02  4.58257E-02  7.67029E-03 -3.83415E-02 -9.04561E-02 -1.49068E-01 -2.08971E-01 -2.66621E-01 -3.11372E-01
  -3.39084E-01 -3.46151E-01 -3.34424E-01 -3.04748E-01 -2.58693E-01 -2.01935E-01 -1.37740E-01 -7.62305E-02 -2.65774E-02  8.66972E-04
   5.72170E-04 -2.21725E-02 -5.84031E-02 -9.33771E-02 -1.21995E-01 -1.67507E-01 -2.09581E-01 -2.70474E-01 -3.42602E-01 -4.35085E-01
  -5.57022E-01 -7.48014E-01 -1.01672E+00 -1.24799E+00 -1.22908E+00 -9.07269E-01 -4.99514E-01 -2.22895E-01 -1.06694E-01 -6.04254E-02
  -2.64149E-02 -3.67451E-03  1.19322E-02  2.29786E-02  3.10085E-02  3.63721E-02  3.97603E-02  4.13699E-02  4.09773E-02  3.86629E-02
   3.46039E-02  2.98098E-02  2.52318E-02  2.19520E-02  2.04643E-02  2.13553E-02  2.46402E-02  2.98634E-02  3.60838E-02  4.21515E-02
   4.75515E-02  5.22646E-02  5.65136E-02  6.04760E-02  6.40500E-02  6.71248E-02  6.95980E-02  7.18563E-02  7.41974E-02  7.66721E-02
   7.90371E-02  8.10477E-02  8.28201E-02  8.45274E-02  8.64112E-02  8.83059E-02  9.00038E-02  9.13071E-02  9.24013E-02  9.36333E-02
   9.51941E-02  9.68886E-02  9.82667E-02  9.89000E-02  9.84826E-02  9.70262E-02  9.48300E-02  9.22688E-02  8.95574E-02  8.64726E-02
   8.27945E-02  7.84271E-02  7.35948E-02  6.85153E-02  6.32611E-02  5.79340E-02  5.27979E-02  4.81084E-02  4.37538E-02  3.94711E-02
   3.52694E-02  3.14299E-02  2.80512E-02  2.50816E-02  2.24357E-02  1.99914E-02  1.76880E-02  1.54930E-02  1.34539E-02  1.17162E-02
   1.03871E-02  9.52155E-03  9.07640E-03  9.18034E-03  9.98237E-03  1.15753E-02  1.37960E-02  1.66660E-02  2.00625E-02  2.41604E-02
   2.86889E-02  3.34028E-02  3.80408E-02  4.27700E-02  4.82191E-02  5.43650E-02  6.01189E-02  6.42548E-02  6.67305E-02  6.86737E-02
   7.17693E-02  7.70732E-02  8.43126E-02  9.25103E-02  1.00777E-01  1.08821E-01  1.16503E-01  1.23666E-01  1.30050E-01  1.35162E-01
   1.38697E-01  1.40556E-01  1.40950E-01  1.40155E-01  1.38371E-01  1.35620E-01  1.31785E-01  1.26716E-01  1.20276E-01  1.12823E-01
   1.04881E-01  9.70943E-02  8.96174E-02  8.23625E-02  7.52072E-02  6.82725E-02  6.18402E-02  5.61142E-02  5.09930E-02  4.62728E-02
   4.20200E-02  3.84600E-02  3.56266E-02  3.34223E-02  3.18549E-02  3.12166E-02  3.17029E-02  3.31942E-02  3.53570E-02  3.79252E-02
   4.08382E-02  4.40300E-02  4.74972E-02  5.11429E-02  5.46824E-02  5.77305E-02  6.00915E-02  6.18519E-02  6.32552E-02  6.44892E-02
   6.57218E-02  6.67783E-02  6.71538E-02  6.65690E-02  6.52072E-02  6.34431E-02  6.14015E-02  5.90070E-02  5.63045E-02  5.36159E-02
   5.10758E-02  4.85208E-02  4.57885E-02  4.29210E-02  4.00850E-02  3.72541E-02  3.43338E-02  3.13346E-02  2.84445E-02  2.58283E-02
   2.33763E-02  2.06818E-02  1.74376E-02  1.36381E-02  9.29772E-03  4.17723E-03 -1.83654E-03 -8.64614E-03 -1.60461E-02 -2.41935E-02
  -3.34588E-02 -4.41302E-02 -5.60485E-02 -6.86325E-02 -8.10728E-02 -9.28776E-02 -1.03966E-01 -1.14206E-01 -1.23294E-01 -1.31030E-01
  -1.37343E-01 -1.41984E-01 -1.44486E-01 -1.44788E-01 -1.43488E-01 -1.41145E-01 -1.37701E-01 -1.33064E-01 -1.27589E-01 -1.22000E-01
  -1.16565E-01 -1.11099E-01 -1.05255E-01 -9.87481E-02 -9.16319E-02 -8.40732E-02 -7.62867E-02 -6.83209E-02 -6.03640E-02 -5.26069E-02
  -4.51951E-02 -3.80644E-02 -3.12300E-02 -2.46386E-02 -1.83671E-02 -1.26792E-02 -7.58992E-03 -2.82665E-03  1.81330E-03  6.05800E-03
   9.53526E-03  1.23867E-02  1.50597E-02  1.76309E-02  1.98348E-02  2.15211E-02  2.28551E-02  2.40990E-02  2.53185E-02  2.64119E-02
   2.73214E-02  2.82634E-02  2.94733E-02  3.09143E-02  3.23373E-02  3.35670E-02  3.44812E-02  3.49719E-02  3.51005E-02  3.51224E-02
   3.51383E-02  3.51277E-02  3.51247E-02  3.51108E-02  3.50769E-02  3.50711E-02  3.50775E-02  3.51183E-02  3.52933E-02  3.54975E-02
   3.53810E-02  3.45834E-02  3.33836E-02  3.26113E-02  3.26470E-02  3.30493E-02  3.31706E-02  3.30092E-02  3.27584E-02  3.24194E-02
   3.20107E-02  3.19385E-02  3.25044E-02  3.35044E-02  3.44439E-02  3.51517E-02  3.57681E-02  3.65073E-02  3.72432E-02  3.78445E-02
   3.83060E-02  3.87478E-02  3.90586E-02  3.90533E-02  3.87708E-02  3.87220E-02  3.92359E-02  4.01601E-02  4.12575E-02  4.23023E-02
   4.31993E-02  4.39209E-02  4.46613E-02  4.58252E-02  4.73646E-02  4.86837E-02  4.91985E-02  4.89271E-02  4.84109E-02  4.83550E-02
   4.89185E-02  4.96917E-02  5.01977E-02  5.03095E-02  5.04189E-02  5.08405E-02  5.15598E-02  5.22852E-02  5.28841E-02  5.35557E-02
   5.46210E-02  5.59937E-02  5.72401E-02  5.82806E-02  5.94700E-02  6.09945E-02  6.27996E-02  6.48027E-02  6.72768E-02  7.02799E-02
   7.35126E-02  7.64416E-02  7.89455E-02  8.13020E-02
 NY background values follow
     7.040E-02    7.021E-02    7.002E-02    6.982E-02    6.963E-02    6.944E-02    6.925E-02    6.906E-02    6.887E-02    6.868E-02
     6.849E-02    6.829E-02    6.810E-02    6.791E-02    6.772E-02    6.753E-02    6.734E-02    6.715E-02    6.695E-02    6.676E-02
     6.657E-02    6.638E-02    6.619E-02    6.600E-02    6.580E-02    6.561E-02    6.542E-02    6.523E-02    6.504E-02    6.485E-02
     6.465E-02    6.446E-02    6.427E-02    6.408E-02    6.389E-02    6.369E-02    6.350E-02    6.331E-02    6.312E-02    6.293E-02
     6.273E-02    6.254E-02    6.235E-02    6.216E-02    6.196E-02    6.177E-02    6.158E-02    6.139E-02    6.120E-02    6.100E-02
     6.081E-02    6.062E-02    6.043E-02    6.023E-02    6.004E-02    5.985E-02    5.966E-02    5.946E-02    5.927E-02    5.908E-02
     5.889E-02    5.869E-02    5.850E-02    5.831E-02    5.812E-02    5.792E-02    5.773E-02    5.754E-02    5.735E-02    5.715E-02
