 LCModel (Version 6.3-1N) Copyright: S.W. Provencher.          Ref.: Magn. Reson. Med. 30:672-679 (1993).                
 Slice_N1@23_23  02-Jun-2023 14:37:36
 27 lines in following concentration table = NCONC+1
    Conc.  %SD /Cr+PCr  Metabolite                                         
 3.01E-06  14% 3.7E-04 Mac                                                 
    0.000 999%   0.000 Cr                                                  
 6.59E-02  14%   8.000 PCr                                                 
 3.94E-02  32%   4.782 Ins                                                 
    0.130   8%  15.784 NAA                                                 
 6.05E-02  20%   7.351 Tau                                                 
    0.000 999%   0.000 PCho                                                
 1.04E-02  31%   1.263 GPC                                                 
 8.66E-02  15%  10.516 Glu                                                 
 1.96E-02  50%   2.375 Gln                                                 
    0.000 999%   0.000 Ala                                                 
 1.01E-02 176%   1.226 Asc                                                 
 1.59E-02  64%   1.934 Asp                                                 
 1.33E-02  43%   1.616 GABA                                                
 1.11E-02  60%   1.353 Glc                                                 
 1.24E-02  45%   1.502 GSH                                                 
    0.000 999%   0.000 Lac                                                 
    0.000 999%   0.000 NAAG                                                
    0.000 999%   0.000 PE                                                  
 1.04E-02  31%   1.263 GPC+PCho                                            
    0.130   8%  15.784 NAA+NAAG                                            
    0.106  16%  12.891 Glu+Gln                                             
 6.59E-02  14%   8.000 Cr+PCr                                              
    0.130   8%  15.784 NAA+NAAG                                            
 6.59E-02  14%   8.000 Cr+PCr                                              
    0.106  16%  12.891 Glu+Gln                                             
   6 lines in following misc. output table
  FWHM = 0.052 ppm    S/N =   3                                            
  Data shift = 0.081 ppm                                                   
  Ph:  39 deg      -5.5 deg/ppm                                            
  alphaB,S = 1.2E+00,   6.1E+01                                            
   18 spline knots.   Ns =10(1)                                            
  ( 8) 4 infls.   ( 8) 1 extrs.                                            
  654 points on ppm-axis = NY
      4.000000     3.994181     3.988363     3.982544     3.976726     3.970907     3.965088     3.959270     3.953451     3.947633
      3.941814     3.935995     3.930177     3.924358     3.918540     3.912721     3.906902     3.901084     3.895265     3.889446
      3.883628     3.877809     3.871991     3.866172     3.860353     3.854535     3.848716     3.842898     3.837079     3.831260
      3.825442     3.819623     3.813805     3.807986     3.802167     3.796349     3.790530     3.784712     3.778893     3.773074
      3.767256     3.761437     3.755619     3.749800     3.743981     3.738163     3.732344     3.726526     3.720707     3.714888
      3.709070     3.703251     3.697433     3.691614     3.685795     3.679977     3.674158     3.668339     3.662521     3.656702
      3.650884     3.645065     3.639246     3.633428     3.627609     3.621791     3.615972     3.610153     3.604335     3.598516
      3.592698     3.586879     3.581060     3.575242     3.569423     3.563605     3.557786     3.551967     3.546149     3.540330
      3.534512     3.528693     3.522874     3.517056     3.511237     3.505419     3.499600     3.493781     3.487963     3.482144
      3.476326     3.470507     3.464688     3.458870     3.453051     3.447232     3.441414     3.435595     3.429777     3.423958
      3.418139     3.412321     3.406502     3.400684     3.394865     3.389046     3.383228     3.377409     3.371591     3.365772
      3.359953     3.354135     3.348316     3.342498     3.336679     3.330860     3.325042     3.319223     3.313405     3.307586
      3.301767     3.295949     3.290130     3.284312     3.278493     3.272674     3.266856     3.261037     3.255219     3.249400
      3.243581     3.237763     3.231944     3.226125     3.220307     3.214488     3.208670     3.202851     3.197032     3.191214
      3.185395     3.179577     3.173758     3.167939     3.162121     3.156302     3.150484     3.144665     3.138846     3.133028
      3.127209     3.121391     3.115572     3.109753     3.103935     3.098116     3.092298     3.086479     3.080660     3.074842
      3.069023     3.063205     3.057386     3.051567     3.045749     3.039930     3.034111     3.028293     3.022474     3.016656
      3.010837     3.005018     2.999200     2.993381     2.987563     2.981744     2.975925     2.970107     2.964288     2.958470
      2.952651     2.946832     2.941014     2.935195     2.929377     2.923558     2.917739     2.911921     2.906102     2.900284
      2.894465     2.888646     2.882828     2.877009     2.871191     2.865372     2.859553     2.853735     2.847916     2.842098
      2.836279     2.830460     2.824642     2.818823     2.813004     2.807186     2.801367     2.795549     2.789730     2.783911
      2.778093     2.772274     2.766456     2.760637     2.754818     2.749000     2.743181     2.737363     2.731544     2.725725
      2.719907     2.714088     2.708270     2.702451     2.696632     2.690814     2.684995     2.679177     2.673358     2.667539
      2.661721     2.655902     2.650084     2.644265     2.638446     2.632628     2.626809     2.620991     2.615172     2.609353
      2.603535     2.597716     2.591897     2.586079     2.580260     2.574442     2.568623     2.562804     2.556986     2.551167
      2.545349     2.539530     2.533711     2.527893     2.522074     2.516256     2.510437     2.504618     2.498800     2.492981
      2.487163     2.481344     2.475525     2.469707     2.463888     2.458070     2.452251     2.446432     2.440614     2.434795
      2.428977     2.423158     2.417339     2.411521     2.405702     2.399884     2.394065     2.388246     2.382428     2.376609
      2.370790     2.364972     2.359153     2.353335     2.347516     2.341697     2.335879     2.330060     2.324242     2.318423
      2.312604     2.306786     2.300967     2.295149     2.289330     2.283511     2.277693     2.271874     2.266056     2.260237
      2.254418     2.248600     2.242781     2.236963     2.231144     2.225325     2.219507     2.213688     2.207870     2.202051
      2.196232     2.190414     2.184595     2.178777     2.172958     2.167139     2.161321     2.155502     2.149683     2.143865
      2.138046     2.132228     2.126409     2.120590     2.114772     2.108953     2.103135     2.097316     2.091497     2.085679
      2.079860     2.074042     2.068223     2.062404     2.056586     2.050767     2.044949     2.039130     2.033311     2.027493
      2.021674     2.015856     2.010037     2.004218     1.998400     1.992581     1.986763     1.980944     1.975126     1.969307
      1.963489     1.957670     1.951852     1.946033     1.940215     1.934397     1.928578     1.922760     1.916941     1.911123
      1.905304     1.899486     1.893667     1.887849     1.882030     1.876212     1.870393     1.864575     1.858756     1.852938
      1.847119     1.841301     1.835482     1.829664     1.823845     1.818027     1.812208     1.806390     1.800571     1.794753
      1.788934     1.783116     1.777297     1.771479     1.765660     1.759842     1.754023     1.748205     1.742386     1.736568
      1.730749     1.724931     1.719113     1.713294     1.707476     1.701657     1.695839     1.690020     1.684202     1.678383
      1.672565     1.666746     1.660928     1.655109     1.649291     1.643472     1.637654     1.631835     1.626017     1.620198
      1.614380     1.608561     1.602743     1.596924     1.591106     1.585287     1.579469     1.573650     1.567832     1.562013
      1.556195     1.550376     1.544558     1.538739     1.532921     1.527102     1.521284     1.515465     1.509647     1.503829
      1.498010     1.492192     1.486373     1.480555     1.474736     1.468918     1.463099     1.457281     1.451462     1.445644
      1.439825     1.434007     1.428188     1.422370     1.416551     1.410733     1.404914     1.399096     1.393277     1.387459
      1.381640     1.375822     1.370003     1.364185     1.358366     1.352548     1.346729     1.340911     1.335092     1.329274
      1.323455     1.317637     1.311818     1.306000     1.300182     1.294363     1.288545     1.282726     1.276908     1.271089
      1.265271     1.259452     1.253634     1.247815     1.241997     1.236178     1.230360     1.224541     1.218723     1.212904
      1.207086     1.201267     1.195449     1.189630     1.183812     1.177993     1.172175     1.166356     1.160538     1.154719
      1.148901     1.143082     1.137264     1.131445     1.125627     1.119808     1.113990     1.108171     1.102353     1.096534
      1.090716     1.084898     1.079079     1.073261     1.067442     1.061624     1.055805     1.049987     1.044168     1.038350
      1.032531     1.026713     1.020894     1.015076     1.009257     1.003439     0.997620     0.991802     0.985983     0.980165
      0.974346     0.968528     0.962709     0.956891     0.951072     0.945254     0.939435     0.933617     0.927798     0.921980
      0.916161     0.910343     0.904524     0.898706     0.892887     0.887069     0.881251     0.875432     0.869614     0.863795
      0.857977     0.852158     0.846340     0.840521     0.834703     0.828884     0.823066     0.817247     0.811429     0.805610
      0.799792     0.793973     0.788155     0.782336     0.776518     0.770699     0.764881     0.759062     0.753244     0.747425
      0.741607     0.735788     0.729970     0.724151     0.718333     0.712514     0.706696     0.700877     0.695059     0.689240
      0.683422     0.677603     0.671785     0.665967     0.660148     0.654330     0.648511     0.642693     0.636874     0.631056
      0.625237     0.619419     0.613600     0.607782     0.601963     0.596145     0.590326     0.584508     0.578689     0.572871
      0.567052     0.561234     0.555415     0.549597     0.543778     0.537960     0.532141     0.526323     0.520504     0.514686
      0.508867     0.503049     0.497230     0.491412     0.485593     0.479775     0.473956     0.468138     0.462319     0.456501
      0.450682     0.444864     0.439045     0.433227     0.427408     0.421590     0.415771     0.409953     0.404134     0.398316
      0.392497     0.386679     0.380860     0.375042     0.369223     0.363405     0.357586     0.351767     0.345949     0.340130
      0.334312     0.328493     0.322675     0.316856     0.311038     0.305219     0.299401     0.293582     0.287764     0.281945
      0.276127     0.270308     0.264490     0.258671     0.252853     0.247034     0.241216     0.235397     0.229579     0.223760
      0.217942     0.212123     0.206305     0.200486
 NY phased data points follow
  -4.20829E-01 -2.21415E-01 -1.69093E-01 -1.13657E-01 -9.38529E-02 -3.07227E-01 -1.60773E-01 -6.29407E-02 -2.13259E-01 -9.22395E-02
   3.19604E-01  2.90765E-01  2.76851E-01  5.49635E-01  2.89256E-01  4.64936E-01  3.11721E-01  8.94609E-02  5.04228E-01  4.58638E-01
   5.36219E-01  2.72751E-01  6.59213E-03  1.80688E-01  8.77521E-02 -1.81621E-01 -3.95035E-01 -9.12579E-02 -2.37615E-01 -3.83832E-01
  -2.47586E-02 -1.46044E-01 -3.12679E-01 -4.69354E-01 -4.47477E-01 -3.27136E-03 -1.47353E-02 -5.25272E-01 -3.58089E-01 -2.60266E-01
  -6.05681E-01 -8.28660E-02  5.31056E-02 -1.14366E-01  4.22084E-01  3.26525E-01 -8.74167E-02  9.47031E-02  5.16010E-01  2.51054E-01
   1.64433E-01  2.43998E-01  1.54286E-01  1.21561E-01 -1.05467E-01  2.11703E-01  1.24536E-01 -1.60440E-02 -3.08557E-02  1.06275E-01
   1.05007E-02  5.16236E-02 -1.78321E-02 -1.50568E-01  1.27270E-01 -1.23269E-01  1.86963E-01 -2.19702E-02  2.25202E-01 -3.73108E-04
   2.07782E-01  2.03948E-01 -5.30095E-01  8.08379E-03 -1.09355E-01  2.47589E-01  2.47305E-01  3.45485E-01  2.74063E-02  1.47285E-01
  -1.67244E-01 -2.69532E-01 -9.40892E-03 -4.77348E-01  5.89652E-01 -1.12165E-01  8.50349E-02  4.83687E-01  7.08367E-03 -2.06830E-01
  -3.27722E-01  2.49124E-01 -1.66926E-01 -1.02990E-01 -1.93201E-01 -4.31527E-02  5.78209E-02 -2.81469E-01  1.44883E-01 -3.16407E-01
  -3.40137E-01  2.39768E-01 -1.63519E-01 -2.40419E-01 -2.21533E-01  5.52578E-02 -1.15544E-01 -1.16756E-01 -1.83082E-02  2.90094E-01
   6.24644E-01 -3.30781E-01  1.23941E-01  1.49620E-01  3.33842E-01  4.82805E-01  4.01835E-01  5.53459E-01  1.72027E-02  3.49342E-01
   8.67869E-02  7.92738E-02  1.27018E-01  1.32834E-01  9.29516E-02  1.91087E-01  2.29506E-01 -6.81075E-02 -1.84973E-01 -4.34720E-01
  -1.47699E-01 -1.98591E-01 -3.20138E-02 -5.15422E-01 -7.13760E-01 -3.70088E-01 -7.55664E-01 -8.05759E-01 -5.94335E-01  7.26906E-02
  -5.36148E-01 -5.58465E-01 -6.62594E-02 -3.56344E-01  2.06465E-01 -3.63351E-01 -2.55977E-01 -2.90078E-02 -3.99823E-01 -6.53708E-02
  -6.88401E-02 -3.84350E-02 -1.56519E-02  4.58562E-01 -8.54695E-02  2.92315E-01  8.27001E-01  2.37920E-01  5.46412E-01 -7.38851E-02
   1.74739E-01  4.95306E-01  2.36661E-01  6.35701E-01  8.95230E-01  9.50909E-01  5.31112E-01  7.27370E-01  2.98311E-01 -6.83762E-02
   6.00496E-02 -3.36998E-01  1.56996E-01  9.21331E-02 -1.20925E-01 -5.06989E-02 -4.68687E-01 -4.77172E-01 -4.39215E-01 -7.39558E-01
  -4.49481E-01 -2.90322E-01 -6.66189E-01 -2.48564E-01 -4.05573E-01 -5.26450E-01 -1.09329E-01 -1.17209E-01 -4.32225E-01 -4.74332E-01
  -2.38026E-01 -1.45838E-01 -3.07217E-01 -4.23878E-01 -2.06555E-01 -2.92070E-01 -6.03714E-02 -8.41675E-02  1.36163E-01 -1.64773E-01
  -2.40449E-01 -6.23892E-02 -1.86547E-01  1.66790E-01 -9.02186E-02  8.27689E-02 -2.01853E-01 -2.30169E-01 -3.94537E-02  1.31660E-01
  -2.09002E-01  7.96610E-02  2.30397E-01 -3.86476E-01 -8.01704E-02 -5.27738E-01 -1.40974E-01 -4.52415E-02  1.68876E-01 -3.69764E-02
  -2.80875E-01  1.00246E-02 -3.95974E-01  9.84469E-02  3.04356E-01 -2.57942E-02  5.61097E-02  3.71835E-01  1.44347E-01  3.26246E-01
   4.33365E-01  3.11527E-01  9.74160E-02  5.42632E-01  7.27051E-01  2.96921E-01  3.35029E-01  5.26301E-02  2.25898E-01 -4.16380E-02
   1.39666E-01  1.11554E-01  7.03892E-02  1.36675E-01 -2.30139E-01  1.84495E-01 -3.58329E-02 -1.14413E-01  8.02760E-02 -3.37959E-01
  -3.59016E-01 -6.19243E-02 -6.69699E-02 -3.38827E-01 -4.08478E-01  1.12294E-01 -1.83985E-01 -4.91409E-01 -2.10774E-01  1.59475E-01
   8.12766E-02 -2.00446E-01  4.23882E-01  3.48531E-01  3.35759E-01 -1.00778E-02 -1.27825E-01  1.98105E-01  1.18797E-01  5.89399E-01
   2.10025E-01  3.87742E-01  4.76074E-01  7.29835E-02 -1.96087E-02 -1.83545E-01  4.81211E-01  1.46954E-01 -7.28844E-02  4.33728E-02
  -2.37346E-01 -2.41414E-02 -3.09791E-01 -5.65844E-01 -3.87458E-01 -2.61844E-01 -1.94973E-01  1.75304E-01  3.36848E-02  3.98662E-02
   2.68870E-01  1.81531E-01  2.90891E-01  1.19200E-01  2.93923E-01  2.96703E-01  2.35510E-01  5.16840E-01  1.19062E-01 -2.09803E-01
   3.78918E-01  5.26366E-01  3.21197E-01  4.97209E-01  2.39892E-01  2.48653E-01  6.49006E-01  4.43623E-01  5.66233E-01  7.03453E-01
   4.92078E-01  5.31147E-01  3.15301E-01  2.47758E-01  1.66362E-01  2.28706E-01 -1.43539E-02  1.84797E-01  5.27292E-01 -8.26293E-02
  -2.01195E-01 -2.31922E-01 -6.44868E-02 -3.86816E-02 -2.45012E-01 -1.15778E-01 -1.86677E-01  7.28824E-02  5.79003E-01  1.62955E-01
  -7.71124E-02 -1.51027E-01 -2.14115E-01  7.56453E-02  3.54937E-02 -4.11105E-02 -2.44221E-01  6.15785E-02  2.90977E-02 -3.33834E-01
  -5.33631E-01 -6.75656E-01 -8.68378E-01 -1.07860E+00 -9.65978E-01 -1.12161E+00 -1.42018E+00 -1.19481E+00 -6.65748E-01 -6.81623E-01
  -4.61924E-01 -6.83899E-01 -5.00853E-01 -3.47940E-03 -2.92497E-01 -1.27416E-01 -1.43353E-02  1.76790E-01  2.13246E-01  1.17346E-01
   1.53367E-01 -1.50713E-01 -2.87515E-01 -2.75530E-01  1.15356E-01  2.22813E-01 -1.82156E-01 -1.19729E-01 -1.06973E-01  2.10937E-01
  -2.47943E-01  5.13493E-02  3.41794E-01 -2.71764E-01  2.06330E-01  1.20383E-01  4.53073E-01  4.83659E-03  2.34967E-01  6.50259E-01
  -6.42281E-02  1.64677E-01  2.66262E-01  2.40758E-01 -5.59017E-02  2.53483E-01  1.99720E-01 -2.44589E-02  1.48596E-01  6.75632E-02
   1.49408E-01  1.67002E-01  3.57238E-01  1.03445E-01 -8.26032E-02  4.01340E-01  1.83614E-01  1.03608E-01  2.18710E-01  1.26688E-01
   3.17402E-01  1.20631E-01  6.17148E-02 -1.12999E-01  1.99577E-02  3.21795E-01  2.96109E-01 -2.11608E-01 -1.09365E-01  2.32791E-01
  -8.70939E-02 -9.19825E-03  2.06348E-01  7.23429E-02 -2.09917E-01  3.95018E-01 -1.31946E-01 -6.04969E-02  2.55176E-01  8.91815E-03
   3.31770E-02 -7.02491E-01 -9.68277E-02  2.96179E-01  2.21914E-02 -4.51581E-01 -2.60795E-01  1.18832E-01 -2.82312E-02 -1.36832E-01
   3.76407E-02  1.70863E-01 -3.41492E-01 -4.60483E-02 -1.78757E-01 -9.34285E-02  1.61325E-01 -1.90665E-02  2.41397E-01 -1.33488E-01
  -2.83386E-01 -3.70878E-02 -8.21921E-02  3.29428E-03 -3.21384E-02  1.60084E-01  4.78866E-02 -7.08450E-02  3.65763E-01  1.44183E-01
   2.62311E-01  4.68739E-01  2.36981E-01  2.27724E-01  5.93765E-02  2.81888E-01  3.16236E-01 -3.26421E-03  3.25619E-01 -2.03119E-02
  -6.37540E-03  1.57816E-01 -2.14498E-01 -3.16002E-02 -3.25368E-01 -2.60657E-02 -1.28826E-01 -5.78525E-01 -4.82825E-02  1.98699E-01
  -2.30715E-01 -3.31294E-01 -1.05476E-02 -7.82664E-02 -7.39583E-02 -2.27784E-01 -4.05566E-01 -5.15615E-01 -4.10315E-01 -3.86543E-01
  -1.45721E-01 -1.35859E-01 -2.84549E-01 -2.09396E-01 -5.28140E-01  1.24245E-01  2.58668E-01  1.43883E-01  2.04281E-01  2.16281E-01
   5.52610E-01 -2.61627E-01 -4.76027E-02  3.85332E-01  6.89660E-02  1.72335E-01 -1.18787E-01  1.84672E-01  3.96665E-01  1.54565E-01
   6.54902E-02  3.31379E-01  3.28292E-01 -2.90699E-01 -4.66536E-03  6.39678E-02  1.94076E-01  2.92652E-01  7.48070E-02  5.10720E-01
   1.22447E-01 -2.29117E-01  9.92432E-02  3.80026E-01  1.70129E-01  6.53414E-03 -2.41654E-02  5.75997E-02  3.04474E-01 -2.40567E-01
   8.75596E-02 -1.60633E-01 -5.79313E-01  1.81074E-01  1.37629E-01 -3.69066E-01 -3.32903E-01 -3.54651E-01 -9.29417E-01 -2.25917E-01
  -4.37115E-01 -7.55057E-01 -2.76494E-01 -5.50239E-01 -5.69711E-01 -6.50417E-01 -4.38712E-01 -1.56492E-01 -1.36331E-02 -5.07533E-01
  -1.39773E-01 -2.89785E-02 -3.83585E-01  6.39519E-02 -2.52903E-01 -5.23644E-01 -1.50305E-01 -2.41859E-01 -4.54139E-01 -1.29272E-01
  -2.24978E-01  2.43457E-01  2.70745E-02 -1.07287E-02  6.21485E-01  3.28164E-01 -1.35386E-01  1.46956E-03  1.68739E-01 -2.78718E-02
   1.08166E-01 -1.93905E-01  2.81329E-01  1.49092E-01  1.42688E-01  1.54936E-01 -1.50827E-02  3.60698E-01  3.52333E-02  3.10414E-01
   9.12188E-02 -1.63533E-01 -1.14513E-02  1.33264E-01 -1.00477E-01 -1.55205E-02 -4.49767E-01 -4.78041E-01  3.00509E-01 -3.79554E-02
   2.14649E-01 -9.37061E-02 -1.14270E-01  1.28040E-01  1.36397E-01  3.88674E-01 -1.10703E-01  3.28593E-01  5.68539E-01  1.79332E-01
   3.42678E-01  4.08387E-02  1.53299E-02  1.25682E-01  5.20614E-03  3.18198E-01  5.74434E-01  2.86106E-01 -3.71586E-01 -4.04388E-01
   1.37924E-01 -1.13811E-01 -3.76907E-01 -6.18712E-02 -4.68126E-02  2.10579E-01  2.78636E-01  1.99708E-01 -1.29986E-02  2.14917E-01
   4.45881E-02 -1.98193E-01  6.18244E-02 -3.50811E-01 -9.43454E-02 -1.51968E-01  1.16851E-01  2.44203E-01  3.02951E-02  4.51232E-02
   8.73646E-02  7.68375E-02 -1.50271E-02  4.23994E-01  1.16152E-01  4.12248E-02  3.88282E-01  1.32521E-01 -1.30869E-01  1.77920E-01
   6.71596E-02  5.58218E-02 -7.22231E-02  2.85954E-01  2.65114E-01 -2.20530E-01  1.35114E-01  4.85702E-02  3.03930E-01 -9.34061E-02
  -6.52764E-02  3.04192E-02  1.09626E-02 -8.73586E-02 -2.03213E-01  9.14822E-02  8.88089E-02  8.40366E-02 -8.38353E-03  1.65570E-01
  -1.07814E-02 -1.64932E-02 -2.47631E-01  1.14869E-01
 NY points of the fit to the data follow
   4.80138E-02  3.64383E-02  2.86919E-02  2.73725E-02  2.65232E-02  2.08060E-02  1.36115E-02  1.40888E-02  3.96922E-02  1.01104E-01
   1.87135E-01  2.73668E-01  3.42443E-01  3.87754E-01  4.09082E-01  4.09209E-01  3.91799E-01  3.64457E-01  3.38093E-01  3.15684E-01
   2.91223E-01  2.53603E-01  1.99046E-01  1.39042E-01  9.25048E-02  6.11758E-02  3.33373E-02  7.10044E-03 -1.76320E-02 -4.02903E-02
  -6.14996E-02 -8.17852E-02 -1.03695E-01 -1.28615E-01 -1.57766E-01 -1.88370E-01 -2.13364E-01 -2.26501E-01 -2.23176E-01 -2.01836E-01
  -1.60575E-01 -1.01870E-01 -3.22211E-02  3.98293E-02  1.04849E-01  1.58519E-01  1.99357E-01  2.27809E-01  2.43885E-01  2.47075E-01
   2.39223E-01  2.22138E-01  1.99383E-01  1.67685E-01  1.31101E-01  9.62894E-02  6.95927E-02  5.16987E-02  3.96957E-02  2.68952E-02
   1.05507E-02 -9.04802E-03 -3.27509E-02 -5.50440E-02 -6.81440E-02 -6.82078E-02 -5.45134E-02 -2.77114E-02  5.81045E-03  3.87802E-02
   6.90177E-02  9.39416E-02  1.13169E-01  1.27351E-01  1.33479E-01  1.29565E-01  1.12398E-01  7.81522E-02  3.36880E-02 -6.82832E-03
  -4.08431E-02 -6.39344E-02 -6.72070E-02 -5.26585E-02 -2.60303E-02  6.05882E-03  3.65762E-02  6.24541E-02  8.39307E-02  1.02704E-01
   1.18475E-01  1.29854E-01  1.30326E-01  1.16336E-01  8.53203E-02  3.20636E-02 -3.75962E-02 -1.08774E-01 -1.66574E-01 -2.01476E-01
  -2.09576E-01 -1.93601E-01 -1.60846E-01 -1.17836E-01 -7.29421E-02 -3.00620E-02  1.01909E-02  4.92393E-02  8.90648E-02  1.26667E-01
   1.59135E-01  1.80015E-01  1.92701E-01  1.97386E-01  1.99961E-01  2.02343E-01  2.05079E-01  2.07736E-01  2.10477E-01  2.11438E-01
   2.10978E-01  2.08154E-01  2.03346E-01  1.91985E-01  1.68455E-01  1.26164E-01  5.87140E-02 -2.50924E-02 -1.10952E-01 -1.85633E-01
  -2.44689E-01 -2.98670E-01 -3.58991E-01 -4.25039E-01 -4.83567E-01 -5.26512E-01 -5.48861E-01 -5.46974E-01 -5.21461E-01 -4.69827E-01
  -4.04397E-01 -3.39428E-01 -2.87793E-01 -2.43063E-01 -1.96851E-01 -1.40502E-01 -8.00366E-02 -3.22445E-02  2.10458E-03  3.06699E-02
   5.57203E-02  7.84932E-02  9.99132E-02  1.20791E-01  1.41699E-01  1.62925E-01  1.84820E-01  2.08147E-01  2.32848E-01  2.55020E-01
   2.90628E-01  3.49158E-01  4.39313E-01  5.47347E-01  6.21887E-01  6.19636E-01  5.38091E-01  4.07759E-01  2.53375E-01  9.58663E-02
  -4.91570E-02 -1.71217E-01 -2.55885E-01 -3.12113E-01 -3.59734E-01 -4.13581E-01 -4.68001E-01 -4.93270E-01 -4.72281E-01 -4.22775E-01
  -3.92404E-01 -3.70717E-01 -3.53199E-01 -3.36931E-01 -3.22159E-01 -3.08521E-01 -2.97453E-01 -2.87969E-01 -2.78371E-01 -2.68050E-01
  -2.57580E-01 -2.47805E-01 -2.38193E-01 -2.28096E-01 -2.17629E-01 -2.07006E-01 -1.96114E-01 -1.84817E-01 -1.72212E-01 -1.58590E-01
  -1.45266E-01 -1.33713E-01 -1.23825E-01 -1.14263E-01 -1.04469E-01 -9.55607E-02 -8.93398E-02 -8.63923E-02 -8.59948E-02 -8.73942E-02
  -9.02271E-02 -9.43930E-02 -9.89602E-02 -1.02375E-01 -1.03881E-01 -1.04616E-01 -1.05830E-01 -1.09221E-01 -1.14278E-01 -1.18472E-01
  -1.17446E-01 -1.03166E-01 -7.25475E-02 -3.13466E-02  1.17923E-02  5.36467E-02  1.01471E-01  1.61174E-01  2.25730E-01  2.79797E-01
   3.14419E-01  3.29453E-01  3.26612E-01  3.06601E-01  2.67814E-01  2.14575E-01  1.60005E-01  1.16335E-01  8.12825E-02  4.44820E-02
   9.38891E-04 -4.24523E-02 -7.35455E-02 -9.20683E-02 -1.05549E-01 -1.15434E-01 -1.23217E-01 -1.29924E-01 -1.35486E-01 -1.43860E-01
  -1.56345E-01 -1.72774E-01 -1.92512E-01 -2.07215E-01 -2.13169E-01 -2.09413E-01 -1.95274E-01 -1.68241E-01 -1.29270E-01 -8.56921E-02
  -4.06285E-02  2.24584E-03  4.32914E-02  8.21619E-02  1.15824E-01  1.43870E-01  1.63004E-01  1.74292E-01  1.79110E-01  1.80519E-01
   1.71694E-01  1.53191E-01  1.33199E-01  1.09153E-01  8.12595E-02  4.71592E-02  1.04648E-02 -3.10348E-02 -8.26207E-02 -1.43186E-01
  -2.10121E-01 -2.70063E-01 -3.09274E-01 -3.15660E-01 -2.85287E-01 -2.23318E-01 -1.41047E-01 -5.42793E-02  2.55572E-02  9.03751E-02
   1.38543E-01  1.74634E-01  2.03988E-01  2.30625E-01  2.54129E-01  2.71279E-01  2.78979E-01  2.79679E-01  2.76559E-01  2.72239E-01
   2.71019E-01  2.71570E-01  2.73214E-01  2.75435E-01  2.76643E-01  2.76582E-01  2.73840E-01  2.69785E-01  2.63775E-01  2.55937E-01
   2.45832E-01  2.32461E-01  2.14665E-01  1.91331E-01  1.61315E-01  1.24324E-01  8.13168E-02  3.34385E-02 -1.71347E-02 -6.80558E-02
  -1.15772E-01 -1.56559E-01 -1.86568E-01 -2.02118E-01 -2.02516E-01 -1.86863E-01 -1.58887E-01 -1.22677E-01 -8.54407E-02 -5.33373E-02
  -3.05157E-02 -1.80282E-02 -1.35261E-02 -1.73030E-02 -1.84823E-02 -3.69581E-05  3.04910E-02  4.92023E-02 -4.80183E-03 -1.80751E-01
  -4.56608E-01 -7.52486E-01 -9.97952E-01 -1.16411E+00 -1.24064E+00 -1.23630E+00 -1.16138E+00 -1.04267E+00 -9.22284E-01 -8.25282E-01
  -7.41823E-01 -6.36658E-01 -4.86126E-01 -3.18572E-01 -1.97732E-01 -1.40357E-01 -1.04257E-01 -7.97269E-02 -6.36999E-02 -5.47031E-02
  -5.13826E-02 -5.22760E-02 -5.54548E-02 -5.92181E-02 -6.19461E-02 -6.29748E-02 -6.19235E-02 -5.86012E-02 -5.33376E-02 -4.62012E-02
  -3.78519E-02 -2.84246E-02 -1.85418E-02 -8.14383E-03  2.24602E-03  1.20883E-02  2.13641E-02  2.95298E-02  3.70748E-02  4.40177E-02
   5.06011E-02  5.68491E-02  6.27069E-02  6.80818E-02  7.30829E-02  7.78823E-02  8.25177E-02  8.71330E-02  9.18544E-02  9.66963E-02
   1.01556E-01  1.06094E-01  1.10012E-01  1.13075E-01  1.15313E-01  1.16739E-01  1.17436E-01  1.17335E-01  1.16312E-01  1.14184E-01
   1.10828E-01  1.06277E-01  1.00669E-01  9.43914E-02  8.75933E-02  8.04017E-02  7.28735E-02  6.51175E-02  5.73148E-02  4.96791E-02
   4.23199E-02  3.52983E-02  2.86328E-02  2.23762E-02  1.65179E-02  1.09959E-02  5.72981E-03  8.12823E-04 -3.72272E-03 -7.83777E-03
  -1.14480E-02 -1.44937E-02 -1.69446E-02 -1.87289E-02 -1.96056E-02 -1.94339E-02 -1.81259E-02 -1.58397E-02 -1.29986E-02 -9.89714E-03
  -6.52902E-03 -2.71850E-03  1.72101E-03  6.76206E-03  1.23888E-02  1.86662E-02  2.56517E-02  3.33883E-02  4.19106E-02  5.12079E-02
   6.14118E-02  7.27610E-02  8.53443E-02  9.89879E-02  1.13338E-01  1.28027E-01  1.42681E-01  1.56891E-01  1.70283E-01  1.82449E-01
   1.93162E-01  2.02256E-01  2.09691E-01  2.15292E-01  2.18767E-01  2.19812E-01  2.18351E-01  2.14538E-01  2.08679E-01  2.01151E-01
   1.92216E-01  1.82210E-01  1.71399E-01  1.60079E-01  1.48404E-01  1.36580E-01  1.24953E-01  1.13837E-01  1.03374E-01  9.35772E-02
   8.43249E-02  7.58118E-02  6.83409E-02  6.21504E-02  5.72628E-02  5.37168E-02  5.14662E-02  5.06023E-02  5.11834E-02  5.31209E-02
   5.62308E-02  6.03257E-02  6.51518E-02  7.03538E-02  7.56242E-02  8.07448E-02  8.57512E-02  9.06736E-02  9.54323E-02  9.97975E-02
   1.03618E-01  1.06740E-01  1.08924E-01  1.10122E-01  1.10341E-01  1.09762E-01  1.08556E-01  1.06811E-01  1.04555E-01  1.01750E-01
   9.84937E-02  9.48972E-02  9.10170E-02  8.68178E-02  8.23868E-02  7.79426E-02  7.36161E-02  6.94892E-02  6.54580E-02  6.15062E-02
   5.74802E-02  5.31418E-02  4.82951E-02  4.28638E-02  3.69287E-02  3.04073E-02  2.30460E-02  1.44120E-02  4.09930E-03 -8.06599E-03
  -2.20653E-02 -3.78687E-02 -5.53433E-02 -7.41011E-02 -9.36706E-02 -1.13719E-01 -1.34009E-01 -1.54149E-01 -1.73485E-01 -1.91365E-01
  -2.07270E-01 -2.20812E-01 -2.31698E-01 -2.39704E-01 -2.44866E-01 -2.47347E-01 -2.47577E-01 -2.45919E-01 -2.42566E-01 -2.37653E-01
  -2.31453E-01 -2.24220E-01 -2.15972E-01 -2.06574E-01 -1.96149E-01 -1.85009E-01 -1.73399E-01 -1.61415E-01 -1.49047E-01 -1.36358E-01
  -1.23497E-01 -1.10741E-01 -9.82610E-02 -8.60948E-02 -7.41924E-02 -6.28143E-02 -5.21846E-02 -4.22384E-02 -3.29070E-02 -2.42188E-02
  -1.62298E-02 -8.98207E-03 -2.52444E-03  3.27018E-03  8.56685E-03  1.31898E-02  1.70173E-02  2.02002E-02  2.30366E-02  2.58262E-02
   2.85932E-02  3.12930E-02  3.39654E-02  3.66031E-02  3.90655E-02  4.12650E-02  4.31194E-02  4.46413E-02  4.59686E-02  4.70901E-02
   4.79291E-02  4.84437E-02  4.87448E-02  4.89939E-02  4.92681E-02  4.96971E-02  5.01585E-02  5.03370E-02  5.01476E-02  4.97445E-02
   4.92665E-02  4.86991E-02  4.81455E-02  4.76815E-02  4.72386E-02  4.67236E-02  4.59962E-02  4.51205E-02  4.42858E-02  4.36869E-02
   4.34810E-02  4.36133E-02  4.38723E-02  4.42186E-02  4.47854E-02  4.55355E-02  4.63792E-02  4.73624E-02  4.84325E-02  4.93957E-02
   4.99648E-02  5.01305E-02  5.01052E-02  5.01402E-02  5.02722E-02  5.04807E-02  5.07100E-02  5.09567E-02  5.13391E-02  5.19717E-02
   5.29039E-02  5.40930E-02  5.54073E-02  5.65685E-02  5.74516E-02  5.80587E-02  5.85237E-02  5.88412E-02  5.89874E-02  5.90513E-02
   5.90909E-02  5.90494E-02  5.87722E-02  5.82452E-02  5.75652E-02  5.69714E-02  5.67129E-02  5.66636E-02  5.66078E-02  5.64809E-02
   5.63173E-02  5.62351E-02  5.62196E-02  5.62286E-02  5.63525E-02  5.68432E-02  5.77946E-02  5.91269E-02  6.06429E-02  6.20739E-02
   6.34160E-02  6.48169E-02  6.63329E-02  6.79369E-02
 NY background values follow
     7.047E-03    7.258E-03    7.468E-03    7.679E-03    7.890E-03    8.101E-03    8.312E-03    8.522E-03    8.733E-03    8.944E-03
     9.155E-03    9.366E-03    9.576E-03    9.787E-03    9.998E-03    1.021E-02    1.042E-02    1.063E-02    1.084E-02    1.105E-02
     1.126E-02    1.147E-02    1.168E-02    1.189E-02    1.210E-02    1.231E-02    1.252E-02    1.273E-02    1.294E-02    1.315E-02
     1.336E-02    1.357E-02    1.378E-02    1.399E-02    1.420E-02    1.441E-02    1.462E-02    1.483E-02    1.504E-02    1.524E-02
     1.545E-02    1.566E-02    1.587E-02    1.608E-02    1.628E-02    1.649E-02    1.670E-02    1.691E-02    1.711E-02    1.732E-02
     1.753E-02    1.774E-02    1.794E-02    1.815E-02    1.835E-02    1.856E-02    1.877E-02    1.897E-02    1.918E-02    1.938E-02
     1.958E-02    1.979E-02    1.999E-02    2.020E-02    2.040E-02    2.060E-02    2.081E-02    2.101E-02    2.121E-02    2.141E-02
