 
 $NMID
 ID=''
 FMTDAT='(2E13.5)'
 TRAMP=   1.00000E+0
 VOLUME=   1.00000E+0
 $END
   6.49747E+2   3.47161E+2
  -1.76734E+3   1.75528E+3
   5.11356E+3  -1.06752E+3
   1.13510E+3   3.54598E+2
   1.06583E+3   4.82170E+1
   3.64368E+3  -3.87798E+2
  -5.69090E+2  -9.17628E+2
  -1.92885E+3  -2.30350E+3
   1.10868E+2  -3.57145E+3
   2.41531E+3  -1.96727E+3
   2.41229E+3  -1.39932E+3
   3.61055E+3   2.92648E+3
  -2.49268E+3   3.83849E+3
  -5.58839E+3  -1.55807E+1
  -7.21278E+2  -3.10121E+3
   4.31122E+3  -1.37013E+3
   2.18693E+3   8.49485E+2
   2.32023E+2   9.68992E+2
  -1.98738E+3  -9.06173E+2
   7.78860E+2  -4.49498E+3
   4.85214E+3   8.75818E+2
  -3.03030E+3   4.02069E+3
  -8.51804E+3  -1.58961E+3
  -2.13391E+2  -6.31267E+3
   2.14095E+3   9.79404E+2
  -3.21548E+3   4.21315E+3
  -6.92054E+3   5.74907E+1
  -4.87301E+3  -6.61470E+3
   7.17854E+2  -3.55493E+3
   4.20918E+3   4.35301E+3
  -1.10251E+3   9.51464E+3
  -7.01721E+3   5.81946E+3
  -4.69547E+3  -2.21832E+3
   3.75461E+3  -2.35577E+2
   5.63185E+2   3.34727E+3
   1.23098E+2  -3.52362E+3
   4.09770E+3  -2.71794E+3
   3.15738E+3   6.51459E+3
   7.84672E+2   6.13242E+3
   6.18951E+2   1.99300E+3
  -4.08275E+3  -3.27947E+1
   9.39198E+2  -6.68117E+3
   7.46328E+3  -4.06963E+3
   7.61198E+3   1.42040E+3
   5.54762E+3   3.03853E+3
   1.65558E+3   2.62879E+3
   1.80107E+3   5.32083E+3
  -3.11993E+3   2.92271E+3
  -4.26533E+3  -6.10490E+2
  -1.29806E+3  -9.60167E+2
  -2.05854E+3  -2.70996E+3
   1.19115E+3  -7.09255E+2
  -5.10186E+2   4.79774E+3
  -4.50361E+3   3.48894E+3
  -4.08260E+3  -1.95344E+2
  -2.18752E+3  -7.91750E+2
  -2.85866E+3  -2.33703E+3
   8.58069E+2  -6.98034E+3
   7.53032E+3  -4.09195E+3
   8.36119E+3   1.63871E+3
   2.11851E+3   7.02365E+3
   2.33175E+2   3.22059E+3
  -4.39263E+3  -1.54606E+3
  -8.30124E+2  -3.60396E+3
   2.91456E+3   3.49424E+2
  -2.96233E+2   5.22531E+3
  -4.66661E+3  -9.56703E+2
   3.03765E+1  -7.54128E+3
   3.99269E+3  -3.11564E+3
   3.61635E+3   2.29481E+3
   5.62973E+2   1.19034E+3
   1.44681E+3  -2.53200E+3
   3.04081E+3   7.59784E+2
   3.93401E+3   1.18053E+3
  -2.80344E+2   4.29428E+2
  -2.04478E+3   1.82022E+3
   4.77150E+2  -5.56616E+2
   9.88741E+2   2.50206E+3
   1.02368E+3   5.09639E+3
  -4.17388E+3  -1.56780E+3
  -3.03320E+3  -3.85402E+3
   1.35648E+3  -3.86744E+2
  -1.39696E+3   6.60524E+2
  -3.83833E+3   2.13203E+2
  -3.94903E+3  -3.08409E+3
   4.08208E+2  -2.06966E+3
   5.25574E+3  -2.19152E+3
   3.19366E+3   3.48028E+3
  -5.70517E+2   3.02607E+3
  -1.03863E+3  -4.21253E+2
   1.47505E+3  -2.27489E+3
  -1.19101E+3   1.66609E+3
  -2.24824E+3  -3.09664E+3
  -8.28187E+2  -6.61660E+3
   3.86937E+3  -5.80663E+3
   3.89779E+3   1.40756E+3
  -2.66492E+3   3.86635E+3
  -4.00683E+3  -1.55942E+3
  -3.41301E+3  -6.37597E+3
   4.54406E+3  -2.35676E+3
   3.72987E+3   2.08296E+3
  -1.50810E+2   2.58452E+3
  -6.79760E+3   1.38748E+2
  -2.15294E+3  -3.73825E+3
   2.06687E+3  -3.23935E+3
   1.39016E+3  -4.35701E+2
  -1.49227E+3  -8.57439E+2
   5.67498E+2  -3.75434E+3
   3.01741E+3   3.42155E+2
   1.86593E+3   4.93042E+3
  -4.78369E+2   4.70462E+3
  -4.79890E+3   4.32510E+2
  -2.14843E+3   7.57409E+2
  -2.04836E+3  -2.86548E+3
  -1.28760E+3  -3.29427E+3
  -1.76895E+2  -3.27851E+3
   1.63250E+3  -1.19177E+3
   5.56478E+2  -6.76796E+2
  -2.92490E+2   3.16665E+2
  -5.18884E+2   1.53654E+3
  -2.23108E+2  -2.08566E+3
   1.80740E+3  -1.40180E+3
   1.31359E+3   4.61989E+2
  -2.33799E+3   2.31164E+3
  -2.61013E+3  -6.52928E+2
   2.25731E+2   1.08101E+3
  -8.26754E+2   3.34942E+3
   7.27634E+1   8.39299E+2
  -1.70106E+3  -1.40291E+3
  -1.50114E+3   3.83810E+2
   1.29066E+3   1.05355E+3
  -9.44565E+2   1.42660E+3
  -3.25380E+3   5.93011E+2
  -2.71076E+3  -3.70255E+3
   1.90786E+3  -2.79123E+3
   2.74056E+3   1.13765E+3
   3.82916E+2   1.02340E+3
   1.28967E+2   2.21637E+3
   2.21673E+3   1.73655E+2
   4.67100E+2  -2.74461E+2
   5.46225E+2   1.87799E+2
  -1.78210E+3   5.23448E+2
  -5.07405E+2  -4.23823E+2
   7.68634E+1  -1.60192E+3
   1.23821E+3  -4.10961E+2
  -1.89135E+3   2.14980E+3
  -2.75085E+3  -1.25797E+3
   4.37973E+2  -8.22671E+2
  -4.07520E+2  -6.62313E+2
   1.53534E+3  -3.97667E+2
   1.00647E+3   1.86249E+1
   2.18062E+3   2.25304E+3
   9.44144E+2   1.27715E+3
  -3.20247E+2   1.98805E+3
  -3.89879E+3   4.21027E+2
  -1.87591E+3  -2.59437E+3
   1.65904E+3  -4.92106E+2
   9.21991E+2   3.16463E+3
   4.29110E+2  -3.40184E+2
   6.82798E+2  -1.11500E+3
   4.15092E+2  -3.45011E+2
   4.05968E+2  -3.24461E+2
  -1.49281E+3   7.01858E+2
  -6.82607E+2   1.28202E+3
   3.05717E+2   4.25521E+2
   2.64747E+3   5.74661E+2
   2.04891E+3   2.21113E+3
  -1.02671E+3   1.48856E+3
  -6.91656E+2  -9.59650E+2
  -1.10019E+3   4.34081E+2
   7.10419E+2   1.23208E+3
   1.73495E+3   1.17366E+3
  -1.52294E+3   7.83332E+2
  -4.43337E+2   1.16630E+3
   5.30384E+2  -4.02724E+2
   1.64838E+3   3.75379E+2
  -1.60796E+3   7.41295E+2
   1.80974E+3   6.97461E+1
   1.96436E+3  -4.34676E+2
   1.15871E+3   2.21658E+2
  -3.14008E+2   1.19399E+3
  -1.17993E+3   5.92790E+2
  -1.35113E+3   7.02714E+2
  -8.24651E+2  -4.42543E+2
  -7.76142E+2   2.40224E+3
  -3.14100E+3  -8.19775E+2
   1.33330E+3  -8.11031E+2
   1.58043E+3   4.13827E+2
   3.45266E+2   1.34172E+3
  -1.27031E+3   5.19612E+2
   9.39683E+2   1.61355E+3
  -9.76201E+1  -1.01545E+2
  -6.20652E+2   4.38882E+2
   1.42074E+3   2.46262E+2
   6.83517E+2  -1.02218E+3
  -1.50263E+3   3.35711E+2
  -1.01250E+3  -3.02808E+2
   2.44432E+2   8.50171E+2
  -5.20715E+2   7.08801E+2
  -2.22264E+2  -1.38384E+3
   5.39728E+2  -5.14582E+2
   9.74768E+2   9.92592E+2
   1.86023E+1   2.04124E+3
  -1.87551E+3  -9.77000E+2
   2.04674E+3  -7.14438E+2
   9.24358E+0  -3.60496E+2
  -3.50332E+2   2.68582E+2
  -2.22803E+3   1.05228E+3
  -6.31947E+2  -5.82273E+1
   1.90579E+2  -1.57908E+3
  -9.24245E+1  -4.51444E+2
   2.82949E+2  -2.17780E+3
  -7.72197E+2   6.00860E+2
  -1.06464E+2  -6.14477E+1
   7.77702E+1  -1.02542E+3
   1.13893E+3   1.63971E+3
  -5.29118E+2   2.18886E+3
  -2.89105E+2  -3.86941E+2
   6.89915E+2   5.86628E+2
  -2.27968E+3   4.86398E+2
   2.95422E+1   1.77847E+3
   5.90645E+2   5.00806E+2
   1.70289E+3   1.29491E+3
   1.93949E+3  -2.36949E+2
   3.50983E+2  -4.90677E+2
   4.91663E+2   8.71276E+2
  -2.20923E+3  -1.49507E+3
   8.77477E+1   1.34561E+3
  -1.67002E+3   2.53096E+3
  -6.09223E+2   9.31533E+2
   2.25671E+3   3.30262E+3
   4.00326E+2  -4.95517E+2
  -1.46621E+3  -9.40783E+2
   9.18824E+2  -6.63086E+2
  -1.25826E+3   6.74716E+2
   2.53190E+2   7.82912E+2
   1.08789E+3  -2.38987E+2
   1.48949E+3   1.83796E+3
  -2.39198E+3   1.58240E+2
  -1.73425E+3  -1.02839E+3
   1.09807E+3  -1.10837E+3
  -1.64681E+2  -1.27818E+2
   2.86443E+2  -2.00440E+2
   2.38576E+2  -1.40164E+3
   1.65702E+3  -3.01918E+3
   1.85737E+3  -1.95557E+2
  -5.41978E+2   2.16877E+3
  -2.53502E+2   1.92921E+2
   5.86278E+2  -7.44446E+2
   9.29316E+1   9.16179E+2
  -1.39225E+3  -5.60747E+2
   2.66587E+2  -6.88892E+2
   1.17059E+3  -4.86373E+2
  -4.29682E+2  -1.71860E+2
   9.19097E+2  -6.33147E+1
  -1.42890E+3   1.68313E+3
   8.97732E+2   4.17495E+2
  -2.77712E+2   9.67737E+2
   9.86099E+2   7.94834E+2
  -9.07233E+2  -2.29934E+2
  -2.10377E+3  -4.88294E+2
  -1.23486E+3   7.92212E+2
   3.38751E+2  -1.34948E+3
   1.39551E+3  -1.00054E+3
  -9.37054E+2   8.94134E+1
  -1.88247E+2   4.35677E+2
   2.68750E+2  -6.82732E+2
  -1.58740E+3   4.42903E+2
  -6.72840E+2  -6.61366E+2
  -6.62195E+2  -6.85758E+2
   3.30719E+3  -7.66739E+2
   6.22642E+2  -2.72086E+2
   1.05085E+2  -1.07268E+3
  -1.02763E+3  -3.20595E+2
   2.89380E+2   4.07005E+2
   6.93363E+2   3.81768E+2
   2.26757E+3  -4.00094E+2
  -8.24790E+2  -1.84399E+2
  -6.97993E+2  -6.46744E+2
  -2.91826E+2  -1.15360E+3
   6.85083E+2   1.08746E+3
  -1.07375E+3   9.22452E+2
   1.97317E+3  -8.77938E+2
  -5.72966E+2   2.69242E+2
   1.11766E+3  -7.25718E+2
   6.61657E+2  -6.37946E+1
  -3.95196E+2   8.23958E+2
  -5.73164E+2   5.63323E+2
   9.89465E+1   1.93800E+2
   2.35175E+3  -5.32152E+2
   3.48729E+2   2.91636E+1
  -1.46167E+2  -7.33575E+0
   4.35548E+2  -1.11462E+3
   5.69397E+2  -1.21851E+3
   1.12794E+3  -1.27023E+2
  -6.59438E+2   9.79755E+2
  -4.45879E+2   5.12044E+2
  -1.33378E+2  -6.31321E+2
   6.95585E+2   1.16937E+3
   1.15448E+3   2.76856E+3
   1.22721E+2  -4.48703E+2
   6.10438E+2   8.64253E+2
   1.94623E+3   6.90491E+2
   1.43332E+2   6.89457E+2
   1.84429E+3  -3.47751E+2
  -1.08701E+3   7.48552E+2
   1.18451E+3   8.07039E+2
   1.07318E+3   1.77396E+2
  -1.10405E+3  -1.21291E+3
  -1.56247E+3   1.93097E+3
  -1.66536E+3  -8.41704E+2
   8.34094E+2  -3.22371E+1
   1.50034E+2  -1.07128E+2
  -1.10516E+3  -1.12561E+2
  -1.46668E+3   6.78397E+2
   1.89480E+3   3.61762E+2
  -1.24876E+3  -9.93613E+2
  -8.02819E+2   4.51342E+2
   1.79767E+2  -1.56625E+3
   5.32432E+2   1.49966E+3
   9.18981E+2  -1.07250E+3
   8.95286E+2   1.21612E+2
   1.38390E+3  -7.94684E+2
  -8.26552E+1   3.32116E+2
   1.09052E+3   3.36427E+2
   1.05526E+3   1.61304E+2
  -1.25644E+3  -5.85759E+1
   4.40129E+2  -7.29091E+2
   1.77876E+3  -4.28628E+2
   2.54699E+3  -6.68394E+2
  -4.13779E+2   1.50126E+3
   2.57830E+2   1.20542E+3
  -7.97768E+2  -2.36967E+2
  -4.44863E+2   1.36892E+3
   2.59191E+2   8.78413E+2
   1.96892E+2   1.33794E+3
  -1.34779E+3  -8.23748E+2
   5.56889E+2  -3.57347E+2
   4.87001E+1   1.09340E+3
  -2.98699E+2  -7.69628E+2
   1.16338E+3   1.21138E+3
  -1.59473E+3  -8.50292E+2
   1.50873E+3  -1.32634E+3
   7.71695E+2   5.67993E+2
   1.22785E+3  -2.43308E+2
  -5.15645E+2   9.89130E+2
  -1.14277E+3  -3.34518E+2
  -1.29075E+3  -3.66100E+2
   6.35353E+2  -4.25828E+2
  -9.42769E+2   1.72805E+3
   1.06867E+3   8.72391E+2
   1.44090E+3  -6.84404E+2
  -6.42013E+2   2.25410E+2
  -3.99471E+2   7.61619E+2
  -2.53572E+2  -1.01891E+3
  -8.78731E+2   2.01021E+3
   1.39731E+3   7.51418E+1
   5.59629E+2  -5.47072E+2
  -4.66031E+2   6.75325E+2
   1.00832E+3   1.57359E+2
   7.03077E+2   3.52740E+3
   9.78975E+2   1.78300E+2
  -3.14782E+2  -9.80844E+2
  -2.58548E+2   1.81650E+2
  -7.80105E+2  -1.81851E+3
  -7.43295E+1   3.69643E+2
  -2.01058E+3  -3.48792E+2
