 
 $NMID
 ID=''
 FMTDAT='(2E13.5)'
 TRAMP=   1.00000E+0
 VOLUME=   1.00000E+0
 $END
   1.16967E+2   8.79629E+1
   2.22922E+1   8.92172E+2
   5.01472E+2   1.49523E+3
   1.65388E+3  -6.46661E+2
  -7.06807E+2  -3.00653E+2
  -1.28019E+2  -1.20200E+3
   1.02860E+3   7.83718E+2
  -9.51010E+1   1.59033E+3
   2.04434E+3   1.90383E+3
   1.23769E+3   1.31027E+3
  -6.69176E+2  -1.08095E+3
   1.25018E+3  -2.72012E+3
   4.04933E+3  -4.85812E+2
  -3.19176E+2   2.10491E+3
  -1.86741E+3  -4.66245E+2
  -8.97757E+2  -2.10654E+3
   5.44589E+2   2.87804E+2
   4.72438E+2   1.26094E+3
  -2.08486E+3   2.73172E+3
  -2.37258E+3  -1.74540E+3
   1.56616E+3  -1.63510E+3
   6.29494E+2   2.88098E+3
  -2.93401E+3   3.34821E+3
  -1.78215E+3  -5.68085E+2
   2.03977E+3  -7.42441E+2
   1.43924E+3   1.85880E+3
  -7.28808E+2   2.02749E+3
  -5.20110E+2   3.52005E+2
  -2.60051E+3  -2.96723E+3
   2.69725E+3  -5.36043E+3
   4.71304E+3  -6.13338E+2
  -6.16373E+2   2.92174E+3
  -3.67913E+3  -1.01258E+3
   5.54443E+1  -2.76188E+2
   4.89966E+2  -2.53086E+2
  -2.68902E+3  -1.55153E+3
  -6.21392E+2  -4.46702E+3
   2.31309E+3  -1.66262E+3
   9.31475E+2   1.84169E+3
   3.91965E+2  -8.06084E+2
   1.36879E+3   2.30807E+3
  -2.15356E+3   9.83873E+1
   2.46218E+2  -3.29665E+3
   1.11640E+2  -1.70648E+3
   3.21698E+3   7.99454E+1
   5.54986E+2   7.14854E+2
   1.09354E+3   3.88956E+2
  -4.94796E+0   2.99117E+3
   4.53630E+2   1.88537E+3
  -1.79905E+2   1.06971E+3
  -8.87304E+2   1.19701E+3
  -1.97482E+3  -1.39337E+3
   1.27470E+3  -9.40632E+2
   7.17825E+2   1.35400E+3
   1.05038E+3   1.96392E+3
  -7.70004E+2  -2.04137E+2
  -1.70024E+3   1.41491E+3
  -3.36255E+3   4.14905E+2
  -2.81534E+3  -4.77373E+3
  -1.23603E+3  -3.49460E+3
   2.64982E+3  -4.86388E+2
   2.42539E+3  -1.55043E+3
   1.93158E+3  -8.16190E+2
  -3.32521E+2  -2.50582E+3
   1.78172E+3  -2.91778E+2
   3.11855E+3   1.85705E+3
  -5.90725E+2   1.23714E+3
  -8.23629E+1  -4.72835E+2
  -8.06285E+2   2.19096E+3
   1.23959E+3  -9.36982E+2
   5.63950E+2   1.12708E+3
  -1.23205E+2   3.54875E+2
  -6.36614E+2  -5.27284E+2
   3.37336E+1  -2.15949E+3
  -9.63244E+1  -9.91893E+1
  -4.30374E+0   6.66385E+2
   3.26777E+2   4.95997E+2
  -5.46840E+2  -8.08890E+2
   1.50246E+3   1.60503E+3
  -2.12090E+1   4.35360E+2
   5.60187E+1   2.92454E+2
  -1.52492E+3  -1.29646E+3
  -7.83193E+2   3.86613E+2
  -1.34345E+3  -2.19493E+3
  -2.90213E+3   1.79076E+2
   3.14359E+2  -9.85087E+2
   2.46660E+2  -1.78940E+3
   1.37074E+3  -4.49330E+2
  -9.88825E+2   1.22792E+3
   1.45989E+3  -8.06727E+2
  -3.50794E+2   2.74323E+2
  -1.55896E+3   2.49819E+3
  -1.98228E+3  -1.03650E+3
  -1.53555E+3  -1.24327E+3
  -3.15305E+2  -6.25171E+2
  -2.19536E+3  -8.78836E+2
  -5.30199E+2  -5.56396E+1
  -2.86580E+3   9.40918E+2
  -1.43023E+3  -2.11155E+3
   1.10536E+3   1.78973E+2
   1.40596E+3  -4.64818E+2
  -1.90105E+2  -9.12291E+1
  -5.39186E+2  -5.41552E+2
  -1.87135E+3   1.08627E+2
  -6.71693E+2  -1.25467E+3
  -8.47786E+2  -1.71132E+3
  -3.39678E+3   3.63115E+2
   7.99784E+1  -2.86614E+3
   6.49045E+2  -1.83636E+3
  -3.08057E+2  -6.59194E+2
  -1.45995E+3   5.07814E+2
  -4.15263E+2   1.25137E+3
  -5.79258E+2   2.43029E+2
  -1.02153E+3   3.82208E+2
   5.53915E+2   2.15640E+2
   2.00997E+3   6.99287E+2
   8.49283E+2  -3.29408E+2
   5.43860E+2   1.97027E+2
  -1.51665E+3  -4.05610E+2
   1.03040E+3   2.13932E+2
   1.28576E+3  -2.52127E+2
   6.23512E+2  -1.81375E+1
   2.59686E+3  -3.13789E+2
  -1.20410E+3  -2.77658E+2
  -3.14784E+2  -7.53487E+2
  -5.80159E+2  -1.29138E+3
   2.96786E+2   1.04479E+3
  -1.69098E+3   2.22638E+3
   7.13634E+2   1.88094E+3
   7.42193E+2   4.01591E+2
  -1.33907E+3   2.73697E+3
  -1.46941E+3  -3.93481E+2
   4.62733E+2   4.98553E+2
   8.79967E+2   1.00102E+3
   3.11123E+2   9.30539E+2
   1.32105E+2   8.17395E+1
  -2.75430E+2  -6.71203E+1
  -6.20110E+2   1.24134E+3
   4.63879E+2  -3.57504E+2
   1.52227E+3   5.94947E+2
  -2.00024E+3   1.04037E+3
  -1.10085E+3   1.50933E+2
  -1.95229E+3   2.75894E+3
   1.32117E+1  -2.22285E+2
   9.76872E+2   7.29441E+2
  -1.72423E+3   3.07163E+2
  -8.58373E+2  -1.14907E+2
  -2.78523E+3   1.07050E+3
  -1.22433E+3   5.99573E+2
   1.75260E+3  -7.37176E+2
   3.53443E+1   7.89068E+2
  -1.28812E+3   1.66153E+3
   6.94935E+2  -1.06160E+3
   3.05140E+2  -2.51773E+1
   5.04019E+2  -5.05240E+2
   6.42007E+2   4.35685E+2
  -5.46750E+2   1.71262E+3
  -7.62284E+1  -5.63217E+2
  -3.72461E+2   6.23911E+2
   5.34974E+2   1.14838E+3
  -8.96530E+2   1.76499E+3
  -1.76090E+3  -1.88143E+3
   1.35319E+3   7.84257E+2
   8.35863E+2   1.59927E+3
  -1.87365E+2   8.38289E+2
  -2.13375E+1   3.76104E+2
   7.12332E+2   2.07121E+3
   1.54563E+2   9.07515E+2
   9.18712E+1  -3.59316E+2
  -1.36275E+3  -3.25566E+2
   1.53873E+2  -3.62964E+2
  -1.71533E+3   1.50762E+3
   4.47107E+2  -1.18026E+3
  -7.00675E+2  -1.93086E+3
   8.19232E+2   5.47239E+2
  -1.06640E+2  -9.74752E+2
  -1.67777E+3   1.94442E+3
   6.30497E+2  -5.25217E+2
  -1.32392E+3   3.16711E+2
   1.16689E+3   3.55600E+1
   8.64210E+2   1.47068E+2
  -4.72094E+2   2.14819E+3
   4.47098E+2   8.97808E+2
   7.44086E+2  -4.31824E+2
   1.54218E+3   1.04804E+3
  -9.10426E+2   1.51709E+3
   8.60677E+2  -2.01779E+2
   1.20724E+2  -5.69525E+2
  -4.85048E+2   6.08898E+2
  -1.12929E+3  -2.91618E+2
  -6.63514E+2  -3.69323E+2
   3.06777E+2  -1.95218E+3
  -1.20301E+2   3.54490E+2
   9.46633E+2   2.19310E+2
   2.68740E+2  -3.23292E+2
  -1.51544E+2   2.45866E+3
  -7.23793E+2   4.70731E+2
   6.28743E+2  -1.07148E+3
  -7.18739E+2   8.37645E+2
  -2.04062E+2  -1.50743E+2
  -2.27631E+2  -1.73535E+3
   2.75783E+3  -1.64024E+3
   1.81691E+3  -8.52662E+2
  -1.44601E+3   4.92149E+2
   9.48481E+2   5.85366E+2
   1.27796E+3  -1.84621E+3
   8.67229E+1   3.87319E+2
   9.55537E+2  -1.97440E+3
  -8.02375E+2   5.68905E+2
   1.59928E+3   2.03429E+3
   1.70606E+3   1.78457E+3
   1.92153E+2  -1.08250E+2
   1.16264E+3   1.50410E+3
  -3.45037E+2   7.04451E+2
   1.02424E+3   1.29358E+2
   1.35875E+3  -1.15604E+3
   8.58818E+2   7.33374E+2
  -1.57453E+3   1.06092E+2
  -4.72010E+2   1.79743E+3
  -8.55943E+2   5.36660E+0
  -2.07026E+2  -8.61859E+2
  -5.20149E+2   1.18866E+3
  -2.13244E+2   4.80406E+2
   5.34275E+2  -6.12532E+2
   2.73172E+2   1.56882E+3
   8.31917E+2  -1.01449E+3
   6.30149E+2  -3.71120E+2
   9.95092E+2   1.32097E+3
  -2.25298E+3   7.03243E+2
  -6.46113E+2  -2.71719E+2
  -1.32150E+3   7.67555E+2
  -4.45908E+2  -5.53413E+2
   8.77108E+1   5.68664E+2
   1.80701E+3   3.45176E+2
  -9.17217E+2   6.30727E+2
  -3.62639E+2   2.26884E+3
  -4.87761E+2   9.76362E+2
  -1.05571E+3   3.46642E+2
  -2.08381E+3  -5.89771E+1
  -2.34901E+3   4.30009E+2
   5.98389E+2  -7.04079E+1
  -3.63634E+2   4.90328E+2
  -1.51617E+3   6.19332E+2
  -6.93406E+2   2.31404E+3
   7.49501E+2  -1.75653E+2
  -1.88823E+3  -3.31084E+3
  -3.56488E+1   3.22047E+2
  -1.91522E+3  -7.72935E+2
   1.17729E+3  -2.74063E+3
   7.31725E+2   2.58680E+2
  -5.76522E+2   2.33018E+3
  -3.52649E+2   4.90754E+2
  -4.92561E+2   1.45762E+2
   1.03191E+3   1.95283E+3
   3.99511E+2   1.77543E+3
   1.14090E+3  -1.47994E+3
  -1.64646E+2   1.18116E+3
   7.16966E+2   3.31474E+2
   1.03937E+3  -7.44431E+2
  -9.57781E+2  -3.15700E+2
   1.85212E+3   5.29324E+2
  -2.43014E+2  -1.41858E+3
  -5.98323E+2  -2.34280E+2
   4.35408E+2   1.77974E+3
   3.91457E+2  -1.05234E+3
   6.99243E+2  -2.69333E+1
   1.09634E+3  -6.88644E+2
   7.98026E+1   1.48950E+3
  -1.74111E+3   3.13648E+2
  -1.23073E+3  -7.13397E+2
  -1.39038E+3   1.38073E+2
  -8.35624E+2  -1.15050E+3
   1.79698E+3   8.31780E+2
   4.30154E+2   1.87905E+3
   1.06911E+3   5.77527E+2
   6.12920E+2   4.35335E+2
  -1.19035E+3   6.61622E+2
   4.65342E+2   4.93193E+2
  -9.94220E+2   1.12418E+3
   6.86175E+2  -7.51617E+2
   5.04038E+2   3.39182E+2
   8.58483E+2  -1.69125E+1
  -4.02315E+2   1.44425E+3
  -3.37709E+2  -8.34246E+2
  -1.58181E+2  -1.59896E+3
   6.27072E+2  -4.65681E+2
  -2.68270E+1   1.42078E+3
  -2.92658E+3   2.29537E+2
  -3.35912E+2   4.01148E+2
   6.28413E+2  -1.70165E+3
   6.47700E+2  -4.78363E+2
   6.37518E+2   5.87995E+2
   2.81836E+2   5.59261E+2
   2.31953E+3   7.19551E+2
   6.04022E+2   2.78308E+2
   4.57683E+1  -1.37183E+3
  -9.85601E+2  -6.53834E+2
   2.90607E+3  -8.57122E+2
   1.51373E+3   5.41661E+2
  -3.24456E+2  -1.25226E+3
  -1.73740E+3   1.97883E+2
  -1.01710E+3  -1.10929E+3
  -3.89238E+2  -9.24868E+2
  -1.75678E+3   1.72378E+3
   6.73576E+2   3.51206E+2
  -6.77621E+2   7.32555E+1
   7.05852E+2  -6.04001E+2
   4.81133E+2  -9.68552E+2
   2.50296E+2  -7.03077E+2
  -2.40346E+3   8.78862E+2
   3.59337E+2  -5.07968E+2
  -4.29533E+2   1.51860E+2
  -2.41337E+2   1.72546E+3
   8.65301E+2   3.06375E+2
   7.54929E+2   3.25805E+2
   6.76442E+2  -1.82610E+3
   2.31170E+3   2.29127E+2
  -6.86905E+2  -1.11130E+2
   5.51420E+2  -1.90022E+3
   7.86856E+2  -5.57533E+2
   1.45903E+2   1.66153E+3
   4.13832E+2  -1.51912E+3
  -7.11033E+2  -7.26715E+2
   2.01863E+3   2.02526E+3
   3.45050E+2   1.63319E+3
  -3.34424E+2   1.30892E+3
  -2.90501E+2  -6.00034E+2
   1.59316E+3  -9.59403E+2
   1.14276E+3   8.95723E+2
  -6.59751E+2  -3.64905E+1
   9.65098E+2  -2.03297E+3
   1.32546E+3   4.33957E+2
   6.29433E+2  -1.13586E+3
   1.24164E+3   1.92764E+2
  -1.13450E+2  -1.02732E+3
  -1.16240E+3  -5.95345E+1
   1.27212E+3   1.19882E+2
   2.88814E+2  -9.03275E+2
   1.03348E+3   6.07063E+2
  -4.69397E+2  -2.17321E+3
  -1.25734E+3  -6.41961E+2
  -3.19872E+2  -2.21900E+3
   8.77961E+2  -1.77254E+3
   4.44342E+2  -6.35269E+2
   9.23204E+2   3.33306E+1
  -3.08391E+2  -6.66200E+2
  -2.82941E+3  -3.22033E+2
   2.10228E+1  -1.30943E+2
   5.39710E+2  -6.03654E+2
  -5.88137E+2   8.27520E+2
  -1.00269E+3  -6.86434E+2
  -5.68121E+2   8.51818E+2
   8.65592E+0   1.36308E+3
   1.01402E+3  -7.43697E+2
  -3.21893E+2  -2.02362E+2
   2.50580E+2   1.94240E+3
  -1.92964E+1  -3.18508E+2
  -9.74723E+2   5.20998E+2
  -4.49679E+2  -1.34519E+3
   2.37799E+2  -1.54010E+2
   1.24106E+3  -9.97104E+2
   4.93286E+2   7.99602E+2
  -4.38010E+2  -1.30238E+1
  -1.17404E+2   4.51978E+1
   1.05156E+3   6.66275E+2
   2.11463E+3  -1.17761E+3
  -3.98427E+2  -1.76554E+2
