 
 $NMID
 ID=''
 FMTDAT='(2E13.5)'
 TRAMP=   1.00000E+0
 VOLUME=   1.00000E+0
 $END
  -9.03821E+3  -7.60807E+3
  -1.71996E+4  -2.54618E+4
  -2.20099E+4  -2.20963E+4
  -2.07897E+4  -2.04001E+4
  -2.12059E+4  -2.16057E+4
  -2.24150E+4  -2.05500E+4
  -2.17765E+4  -1.98017E+4
  -2.18298E+4  -2.03344E+4
  -2.25880E+4  -1.96563E+4
  -2.21371E+4  -1.90781E+4
  -2.20909E+4  -1.92908E+4
  -2.26178E+4  -1.86355E+4
  -2.23873E+4  -1.80271E+4
  -2.23805E+4  -1.82881E+4
  -2.25616E+4  -1.77648E+4
  -2.23166E+4  -1.71810E+4
  -2.23960E+4  -1.71210E+4
  -2.25459E+4  -1.66120E+4
  -2.24232E+4  -1.60752E+4
  -2.23998E+4  -1.60485E+4
  -2.25822E+4  -1.54500E+4
  -2.26013E+4  -1.47889E+4
  -2.26827E+4  -1.46307E+4
  -2.28794E+4  -1.42835E+4
  -2.27394E+4  -1.37624E+4
  -2.28042E+4  -1.34925E+4
  -2.29834E+4  -1.32312E+4
  -2.27859E+4  -1.29240E+4
  -2.27545E+4  -1.27842E+4
  -2.28225E+4  -1.24866E+4
  -2.28594E+4  -1.20866E+4
  -2.28343E+4  -1.20186E+4
  -2.28160E+4  -1.18422E+4
  -2.26616E+4  -1.14913E+4
  -2.26507E+4  -1.12757E+4
  -2.26109E+4  -1.11048E+4
  -2.24393E+4  -1.07368E+4
  -2.23667E+4  -1.04365E+4
  -2.23213E+4  -1.01796E+4
  -2.21912E+4  -1.00196E+4
  -2.21088E+4  -9.81234E+3
  -2.19907E+4  -9.53710E+3
  -2.17447E+4  -9.41815E+3
  -2.16424E+4  -9.12091E+3
  -2.15367E+4  -8.82705E+3
  -2.14547E+4  -8.61014E+3
  -2.13629E+4  -8.40178E+3
  -2.12605E+4  -8.20309E+3
  -2.11723E+4  -7.87960E+3
  -2.10540E+4  -7.76969E+3
  -2.08892E+4  -7.48859E+3
  -2.07666E+4  -7.28852E+3
  -2.05706E+4  -7.02956E+3
  -2.06097E+4  -6.80813E+3
  -2.04297E+4  -6.70601E+3
  -2.02888E+4  -6.52081E+3
  -2.02512E+4  -6.33480E+3
  -2.00314E+4  -6.21246E+3
  -1.99362E+4  -6.06596E+3
  -1.97505E+4  -5.93318E+3
  -1.95933E+4  -5.71270E+3
  -1.94491E+4  -5.53533E+3
  -1.93060E+4  -5.40787E+3
  -1.92103E+4  -5.27296E+3
  -1.90403E+4  -5.11435E+3
  -1.89129E+4  -4.96205E+3
  -1.88835E+4  -4.82927E+3
  -1.86199E+4  -4.75331E+3
  -1.84415E+4  -4.63832E+3
  -1.84029E+4  -4.43793E+3
  -1.81995E+4  -4.25869E+3
  -1.79789E+4  -4.12783E+3
  -1.78815E+4  -4.06398E+3
  -1.76976E+4  -3.90740E+3
  -1.75649E+4  -3.78596E+3
  -1.75260E+4  -3.60773E+3
  -1.73699E+4  -3.49881E+3
  -1.72302E+4  -3.31866E+3
  -1.70818E+4  -3.16869E+3
  -1.70108E+4  -3.13907E+3
  -1.68498E+4  -3.04541E+3
  -1.67242E+4  -2.95365E+3
  -1.65581E+4  -2.85292E+3
  -1.64156E+4  -2.81192E+3
  -1.63227E+4  -2.69011E+3
  -1.61837E+4  -2.65239E+3
  -1.59428E+4  -2.64261E+3
  -1.58051E+4  -2.51703E+3
  -1.57018E+4  -2.48311E+3
  -1.55591E+4  -2.43074E+3
  -1.54076E+4  -2.32331E+3
  -1.52641E+4  -2.28320E+3
  -1.51701E+4  -2.17445E+3
  -1.50895E+4  -2.14922E+3
  -1.48572E+4  -2.09191E+3
  -1.47265E+4  -2.05243E+3
  -1.44850E+4  -1.92085E+3
  -1.44158E+4  -1.88399E+3
  -1.43147E+4  -1.85648E+3
  -1.40815E+4  -1.90837E+3
  -1.38865E+4  -1.90451E+3
  -1.37176E+4  -1.74260E+3
  -1.35821E+4  -1.70852E+3
  -1.34525E+4  -1.66887E+3
  -1.32423E+4  -1.69054E+3
  -1.30815E+4  -1.54947E+3
  -1.29297E+4  -1.59051E+3
  -1.27863E+4  -1.52319E+3
  -1.25980E+4  -1.48441E+3
  -1.24194E+4  -1.35044E+3
  -1.21761E+4  -1.26017E+3
  -1.20539E+4  -1.19248E+3
  -1.19079E+4  -1.12161E+3
  -1.17591E+4  -1.10019E+3
  -1.16992E+4  -1.01843E+3
  -1.15481E+4  -1.02515E+3
  -1.12760E+4  -9.15176E+2
  -1.11659E+4  -9.23661E+2
  -1.11133E+4  -7.91413E+2
  -1.09208E+4  -7.47870E+2
  -1.08774E+4  -7.27883E+2
  -1.07337E+4  -6.83158E+2
  -1.06651E+4  -6.21995E+2
  -1.04624E+4  -5.76129E+2
  -1.03336E+4  -5.16286E+2
  -1.02435E+4  -4.91866E+2
  -1.01336E+4  -4.34737E+2
  -1.00465E+4  -3.37170E+2
  -9.94786E+3  -3.11020E+2
  -9.85945E+3  -2.92548E+2
  -9.76949E+3  -2.48407E+2
  -9.67331E+3  -1.93467E+2
  -9.54222E+3  -9.16763E+1
  -9.47745E+3  -1.02103E+2
  -9.40982E+3  -1.03870E+2
  -9.30663E+3  -8.99359E+1
  -9.27553E+3  -4.82321E+1
  -9.06560E+3  -4.59724E+1
  -9.05205E+3   1.97177E+1
  -8.96404E+3   1.09333E+2
  -8.97733E+3   5.62579E+1
  -8.84539E+3   1.04466E+2
  -8.76260E+3   1.54372E+2
  -8.65965E+3   1.07684E+2
  -8.62203E+3   1.05617E+2
  -8.48466E+3   1.54479E+2
  -8.45291E+3   1.53381E+2
  -8.38616E+3   1.89185E+2
  -8.30306E+3   1.51564E+2
  -8.24923E+3   1.98278E+2
  -8.19692E+3   2.05089E+2
  -8.11078E+3   1.70211E+2
  -8.02434E+3   1.92357E+2
  -7.94065E+3   2.41376E+2
  -7.87556E+3   2.27085E+2
  -7.88024E+3   2.59573E+2
  -7.84032E+3   2.60625E+2
  -7.77480E+3   2.40179E+2
  -7.77624E+3   2.57881E+2
  -7.67644E+3   2.82404E+2
  -7.56944E+3   2.41558E+2
  -7.51649E+3   1.74078E+2
  -7.47075E+3   2.55774E+2
  -7.40012E+3   2.13331E+2
  -7.35075E+3   2.48124E+2
  -7.32280E+3   2.87814E+2
  -7.29279E+3   1.76826E+2
  -7.17392E+3   2.17136E+2
  -7.16508E+3   1.83989E+2
  -7.11216E+3   2.09372E+2
  -7.09784E+3   1.54578E+2
  -7.08245E+3   2.17231E+2
  -6.98725E+3   1.51769E+2
  -6.93404E+3   2.23564E+2
  -6.93851E+3   2.05758E+2
  -6.87424E+3   1.81833E+2
  -6.84679E+3   2.63481E+2
  -6.74059E+3   2.55066E+2
  -6.80252E+3   2.13483E+2
  -6.73089E+3   2.51346E+2
  -6.70634E+3   2.76945E+2
  -6.78366E+3   2.16236E+2
  -6.63734E+3   1.24685E+2
  -6.62852E+3   2.63461E+2
  -6.53452E+3   2.01498E+2
  -6.45894E+3   1.75505E+2
  -6.53001E+3   1.54951E+2
  -6.52205E+3   2.51254E+2
  -6.42201E+3   1.56092E+2
  -6.47543E+3   1.76846E+2
  -6.38339E+3   2.05158E+2
  -6.39330E+3   1.93209E+2
  -6.43418E+3   1.36815E+2
  -6.32923E+3   1.10901E+2
  -6.30834E+3   1.85176E+2
  -6.28126E+3   1.12054E+2
  -6.28163E+3   1.17282E+2
  -6.25527E+3   1.13803E+2
  -6.20177E+3   1.22350E+2
  -6.22105E+3   5.35563E+1
  -6.16688E+3   8.79648E+1
  -6.17513E+3   2.30644E+1
  -6.11071E+3   9.56619E+0
  -6.10072E+3   4.61780E+1
  -6.06431E+3   7.91906E+1
  -6.06960E+3   5.85461E+1
  -6.02748E+3   3.08616E+1
  -5.99621E+3   2.22687E+1
  -5.90550E+3   5.02747E+1
  -5.91458E+3   5.80173E+1
  -5.83816E+3  -4.98523E+1
  -5.88700E+3  -1.04548E+1
  -5.76799E+3  -4.72116E+0
  -5.81116E+3   8.43570E+1
  -5.72781E+3   2.41856E+1
  -5.69820E+3   4.90314E+1
  -5.72709E+3   7.54141E+0
  -5.65450E+3   6.27966E+1
  -5.60306E+3   5.97597E+1
  -5.62429E+3   3.03824E+1
  -5.51148E+3   2.23751E+1
  -5.46469E+3   3.88712E+1
  -5.52297E+3   1.91487E+1
  -5.50371E+3   4.25867E+1
  -5.38295E+3   5.22594E+1
  -5.42463E+3  -2.06955E+1
  -5.37761E+3   2.42033E+1
  -5.34158E+3  -5.94494E+0
  -5.33729E+3   4.08461E+1
  -5.35797E+3   3.74736E+1
  -5.36496E+3   1.12418E+2
  -5.30653E+3   3.37534E+1
  -5.24358E+3   7.47204E+1
  -5.17658E+3   2.95627E+1
  -5.18640E+3   5.75432E+1
  -5.15275E+3   2.88667E+1
  -5.23871E+3   8.69178E+1
  -5.18391E+3   1.13572E+2
  -5.11029E+3   4.29999E+1
  -5.13139E+3   1.16784E+2
  -5.05046E+3   9.15185E+1
  -5.08796E+3   1.55934E+2
  -4.98895E+3   8.71708E+1
  -5.01202E+3   1.24068E+2
  -4.95832E+3   1.06212E+2
  -4.99486E+3   1.34958E+2
  -4.94521E+3   1.16807E+2
  -4.90422E+3   1.70125E+2
  -4.84488E+3   1.12417E+2
  -4.85649E+3   1.64567E+2
  -4.85427E+3   1.73207E+2
  -4.80825E+3   1.40598E+2
  -4.75374E+3   1.32556E+2
  -4.83757E+3   1.70934E+2
  -4.70849E+3   1.10390E+2
  -4.67045E+3   1.75100E+2
  -4.63484E+3   1.17015E+2
  -4.69308E+3   1.72865E+2
  -4.62713E+3   2.42152E+2
  -4.59349E+3   1.80955E+2
  -4.58316E+3   2.14749E+2
  -4.49508E+3   2.42656E+2
  -4.51838E+3   2.87150E+2
  -4.48246E+3   2.49168E+2
  -4.48789E+3   1.94572E+2
  -4.44453E+3   2.32010E+2
  -4.42312E+3   2.13175E+2
  -4.35077E+3   2.57681E+2
  -4.35885E+3   2.11113E+2
  -4.39454E+3   2.40752E+2
  -4.30147E+3   2.77307E+2
  -4.28855E+3   2.39348E+2
  -4.24372E+3   2.80738E+2
  -4.28127E+3   2.40354E+2
  -4.20610E+3   3.05722E+2
  -4.18201E+3   3.73079E+2
  -4.20772E+3   3.00705E+2
  -4.12854E+3   3.30167E+2
  -4.12178E+3   3.29436E+2
  -4.02176E+3   3.65472E+2
  -4.05668E+3   3.87658E+2
  -4.05771E+3   4.02831E+2
  -4.01479E+3   3.24430E+2
  -4.02712E+3   3.23319E+2
  -3.99705E+3   3.43628E+2
  -3.99659E+3   3.65840E+2
  -3.94545E+3   3.96689E+2
  -3.93637E+3   3.29386E+2
  -3.88556E+3   3.86424E+2
  -3.88512E+3   3.92643E+2
  -3.83746E+3   3.62287E+2
  -3.88358E+3   3.73620E+2
  -3.81952E+3   3.72662E+2
  -3.77627E+3   3.48576E+2
  -3.85114E+3   3.99387E+2
  -3.76238E+3   4.55965E+2
  -3.79303E+3   3.58555E+2
  -3.70461E+3   4.36297E+2
  -3.72128E+3   4.42235E+2
  -3.64401E+3   4.06635E+2
  -3.68475E+3   3.94332E+2
  -3.59918E+3   4.36276E+2
  -3.62390E+3   4.22467E+2
  -3.68548E+3   3.89377E+2
  -3.62571E+3   4.00610E+2
  -3.51465E+3   4.67221E+2
  -3.52274E+3   4.44140E+2
  -3.55504E+3   5.21748E+2
  -3.52287E+3   4.31403E+2
  -3.52212E+3   4.37720E+2
  -3.48023E+3   4.59193E+2
  -3.49041E+3   5.05889E+2
  -3.44837E+3   4.79880E+2
  -3.41030E+3   4.35762E+2
  -3.35649E+3   4.55016E+2
  -3.35430E+3   5.09366E+2
  -3.37409E+3   4.96802E+2
  -3.38221E+3   5.85171E+2
  -3.32821E+3   5.10500E+2
  -3.31299E+3   4.95488E+2
  -3.29261E+3   5.75343E+2
  -3.26611E+3   5.53619E+2
  -3.35233E+3   5.77281E+2
  -3.29742E+3   5.50803E+2
  -3.21606E+3   6.33275E+2
  -3.25335E+3   5.77628E+2
  -3.19590E+3   5.64330E+2
  -3.17430E+3   5.60118E+2
  -3.12244E+3   5.91789E+2
  -3.10602E+3   5.62700E+2
  -3.09658E+3   5.84429E+2
  -3.09256E+3   6.42705E+2
  -3.08095E+3   5.87670E+2
  -3.06641E+3   6.35207E+2
  -3.01466E+3   6.18241E+2
  -3.04039E+3   6.19603E+2
  -2.97010E+3   6.20560E+2
  -2.95136E+3   5.83460E+2
  -2.98046E+3   7.14765E+2
  -2.92800E+3   5.98385E+2
  -2.92673E+3   6.46811E+2
  -2.94045E+3   6.05547E+2
  -2.87215E+3   7.45795E+2
  -2.81000E+3   6.44888E+2
  -2.81753E+3   7.12571E+2
  -2.86027E+3   6.95977E+2
  -2.81840E+3   7.02891E+2
  -2.79774E+3   6.09262E+2
  -2.77669E+3   6.97922E+2
  -2.73060E+3   7.40468E+2
  -2.81256E+3   7.01015E+2
  -2.60883E+3   6.84541E+2
  -2.64939E+3   6.65481E+2
  -2.67455E+3   6.70690E+2
  -2.66263E+3   7.51443E+2
  -2.66512E+3   7.09276E+2
  -2.67155E+3   7.52896E+2
  -2.58933E+3   7.30213E+2
  -2.69160E+3   7.24054E+2
  -2.51899E+3   7.58199E+2
  -2.58465E+3   7.35239E+2
  -2.58592E+3   7.79656E+2
  -2.55906E+3   7.75611E+2
  -2.57246E+3   7.31565E+2
  -2.49613E+3   7.77535E+2
  -2.42006E+3   7.37057E+2
  -2.48353E+3   7.56853E+2
