 
 $NMID
 ID=''
 FMTDAT='(2E13.5)'
 TRAMP=   1.00000E+0
 VOLUME=   1.00000E+0
 $END
   2.59167E+2  -5.59907E+2
   1.36832E+3   1.03033E+3
  -1.03902E+3  -1.72144E+3
   1.30372E+2   7.02817E+2
   7.82782E+2   8.79004E+2
  -8.51278E+1  -2.51533E+3
   7.31573E+2   7.51499E+2
   1.63089E+3  -1.61355E+3
  -1.45160E+3  -1.62511E+3
   7.86511E+2  -2.37737E+3
  -6.35663E+2   7.48900E+2
  -4.54494E+2  -2.53729E+3
   1.19664E+3   3.67814E+2
  -1.90831E+3   3.74467E+1
  -4.84129E+3  -1.04225E+3
  -1.00959E+3  -2.09912E+3
   3.23354E+3  -3.82813E+2
   3.20769E+2   2.06700E+3
  -3.05869E+3   3.09639E+3
  -2.88281E+3  -2.12444E+3
   1.10917E+3  -1.66189E+3
   4.59105E+3   1.99749E+3
  -3.03205E+3   4.74752E+3
  -5.20140E+3  -1.17276E+2
   4.05545E+3  -4.13501E+3
   3.37861E+3   2.97807E+3
  -9.52720E+2   1.94740E+3
  -1.64084E+3  -1.32110E+3
  -8.12076E+2  -2.57279E+3
   1.72394E+3  -2.67600E+3
   3.50069E+3   6.26422E+2
   1.73167E+3   2.95441E+3
  -2.94336E+3   2.70040E+3
  -2.77285E+3  -1.71501E+3
   5.60966E+2  -2.40498E+3
  -1.23573E+3  -2.54540E+3
   1.45633E+3  -3.22564E+3
   3.33263E+3  -5.80042E+2
   2.72416E+3   7.97779E+2
   2.35632E+3   1.08625E+3
   8.08492E+2   4.63307E+3
  -3.31610E+3   2.02938E+3
  -3.04888E+3  -2.18408E+3
  -1.14216E+3  -3.58572E+3
   2.10648E+3  -3.80648E+3
  -1.33033E+3  -7.60475E+2
   2.53559E+3  -2.12122E+2
   2.82685E+3   1.50370E+3
   2.45742E+2   1.46084E+3
  -4.44137E+2   3.69771E+2
  -1.19565E+3   6.08406E+2
  -1.82852E+3  -9.67726E+2
   5.43848E+2  -8.85250E+2
   1.22608E+3   6.27774E+2
   8.15084E+2   1.18167E+3
  -6.14592E+2   3.32133E+3
  -1.65772E+3   2.55217E+3
  -3.38894E+3   2.60078E+3
  -4.22793E+3  -1.86295E+3
  -2.43626E+3  -4.95126E+3
   1.16220E+3  -2.44926E+3
   2.49876E+3  -8.68372E+2
   2.49346E+3   1.90024E+3
   4.65204E+2   3.38324E+2
  -1.34412E+3  -2.27295E+3
   2.16278E+3  -1.44272E+3
   4.68207E+3   1.45149E+2
  -8.21021E+2   1.67127E+3
   1.55249E+2   2.36559E+2
   1.89626E+3   1.48181E+3
   3.79219E+2   1.94768E+3
  -4.79202E+2   2.26477E+2
   2.22717E+3   1.08770E+3
  -6.54200E+2   1.54158E+3
   3.68589E+2   2.58753E+3
   1.77401E+3   3.94921E+3
   4.68384E+2   2.77173E+3
   2.36873E+3   2.73469E+3
   2.33637E+3  -2.43427E+3
   2.01427E+3   3.75889E+2
   9.56893E+2   2.82114E+3
   2.51787E+2   2.05459E+3
   1.35323E+3   2.12697E+3
   7.87792E+2   3.18743E+3
  -1.68741E+3   4.42001E+3
  -2.46252E+3   6.67636E+2
  -3.44023E+3   1.03011E+3
  -1.46360E+3  -8.35941E+2
  -7.70355E+2  -2.42868E+3
   1.71768E+3   1.58048E+3
   1.38770E+3   1.23497E+3
  -3.23133E+2  -9.30377E+2
   3.06967E+3   6.70092E+2
  -3.32814E+0   1.32054E+3
  -1.11100E+3   1.11878E+3
  -1.43708E+3  -2.65952E+3
   4.33506E+2  -2.84843E+3
   3.13207E+3  -1.27299E+3
   1.82765E+3   2.65274E+3
  -4.66767E+3   2.49759E+3
  -4.49093E+3  -2.40575E+3
  -5.55439E+2  -2.09494E+3
   1.09353E+3  -3.78323E+2
  -1.30020E+3   1.44941E+3
  -2.00969E+3   2.77668E+2
  -1.71603E+3  -6.89793E+2
  -4.37423E+2  -1.62518E+3
   2.71390E+2  -7.32989E+2
  -2.62877E+3  -8.08822E+2
  -2.00169E+3  -3.00145E+3
   6.41644E+1  -3.65782E+3
   2.77467E+3  -8.59045E+2
   3.34899E+3  -1.33912E+2
  -9.39402E+2  -1.87144E+2
   1.11264E+3   8.25643E+2
   1.92337E+2   1.06719E+3
  -5.66056E+2  -1.01023E+3
   1.59632E+3   7.38223E+2
  -2.91483E+2   4.45063E+1
   1.02120E+3  -8.39498E+2
   3.65327E+3   1.47016E+3
   9.29055E+2   2.09053E+3
  -1.19419E+3   1.61367E+3
   2.07530E+3   1.09368E+3
   1.98970E+3  -3.56574E+2
   5.88039E+2   1.26398E+3
  -1.85666E+3   8.45474E+2
   5.70044E+2  -7.95267E+2
   1.55660E+3   7.33882E+2
   3.26486E+2  -3.25953E+2
  -1.38555E+3  -3.38463E+2
  -1.34715E+3  -2.98501E+3
   8.66959E+2  -2.59417E+3
   2.82992E+3  -1.47037E+3
   5.56721E+2  -2.99862E+2
  -7.53448E+2   1.48749E+3
  -1.95276E+3  -8.09098E+2
  -2.86794E+2  -9.65950E+2
   8.77541E+2  -8.61767E+2
  -9.76793E+2   5.90716E+2
   4.54130E+2   1.68762E+2
  -7.73421E+2  -2.41600E+3
   2.16537E+3   1.42083E+2
  -3.96037E+1   9.00552E+2
  -3.51077E+2   4.12761E+2
  -1.22202E+3  -1.23580E+3
  -4.83705E+2  -2.58174E+3
  -9.47781E+2  -1.34916E+3
   1.92348E+2  -1.79236E+2
   4.86737E+2  -3.91367E+3
   3.09143E+2   1.19388E+3
  -1.85517E+3  -4.80655E+2
  -2.23579E+3  -1.18154E+3
  -1.46235E+3  -2.66591E+3
   1.89051E+3  -2.91184E+3
   2.40964E+3   9.22040E+1
   5.13684E+2  -1.28786E+3
   1.23312E+2  -4.58204E+1
  -2.90447E+2   1.69695E+2
   4.23057E+2  -3.64554E+2
  -3.24206E+3  -2.66966E+2
  -1.81681E+2   7.00161E+2
  -3.39388E+3  -1.12430E+2
  -8.21224E+1  -6.56850E+2
  -3.79624E+2  -1.33969E+3
  -5.58517E+2   1.57478E+3
  -6.37899E+2  -1.20373E+3
  -1.53630E+3  -1.96960E+3
   1.14913E+3  -2.27583E+3
  -8.73131E+1   2.63827E+3
   6.01949E+2   2.66012E+3
  -1.46175E+3   6.52133E+2
  -1.77506E+3  -5.72748E+2
  -4.44741E+2  -1.41555E+3
  -6.49331E+2  -1.99412E+2
   3.42489E+2   1.07061E+3
  -8.43882E+2   5.30523E+2
   8.34989E+2   1.45391E+3
  -4.75413E+2   2.33369E+3
  -1.98674E+3   3.43727E+2
  -1.83022E+3  -3.15263E+2
  -6.08885E+2  -1.13156E+2
  -1.83342E+3   9.61224E+2
  -1.19287E+2  -8.52380E+2
  -3.24827E+2  -8.13137E+2
   8.10115E+2   2.85013E+2
   1.41032E+2   1.19842E+3
   1.94419E+3   2.08522E+3
  -2.42371E+3   2.07409E+3
   1.72468E+3  -8.48919E+2
   1.05876E+3  -6.07366E+2
   8.37393E+2   2.06324E+3
  -2.15595E+3  -2.58824E+2
   5.62857E+2   1.15070E+3
  -2.65180E+2   1.43426E+3
   7.43215E+2  -4.42598E+0
   2.37171E+2  -3.51223E+1
   7.53739E+2   3.87807E+2
  -1.20764E+3   4.55037E+2
   2.89116E+3   5.29536E+2
  -3.98604E+2  -2.25461E+2
  -1.85851E+3   2.69363E+2
  -2.69208E+3  -9.37013E+0
  -6.48684E+2  -8.86382E+2
   1.06964E+2  -1.13289E+3
   6.90451E+2   1.03659E+2
  -1.84764E+2  -5.22069E+2
   1.80159E+3   3.98416E+2
   6.29471E+1   9.05299E+2
   9.37829E+2   3.86674E+2
   1.00808E+3  -3.80523E+2
  -1.61753E+3  -5.60668E+2
  -6.58831E+2  -1.65335E+3
   1.38469E+3  -8.69669E+2
   1.49587E+3  -2.41312E+2
  -2.64942E+2   2.05766E+3
   1.04926E+3   1.62938E+2
   7.11688E+2   9.65310E+2
  -4.71874E+2  -1.30251E+3
   7.89078E+2   5.59208E+2
  -7.39385E+1  -7.88177E+2
   1.85260E+3  -1.51068E+3
  -5.32501E+2   9.18369E+2
   6.94022E+2   2.00256E+3
  -1.12112E+3  -7.46204E+2
  -1.83717E+3  -1.70490E+3
   1.96234E+2  -1.35530E+3
   7.18405E+2   9.88002E+2
   8.45123E+2   1.04697E+3
   1.33527E+2   3.52369E+2
  -7.44987E+1   1.29104E+3
   5.47492E+0   1.72644E+3
  -3.24987E+2   1.66927E+3
  -1.73195E+3  -1.04116E+3
   1.17239E+3  -2.00650E+3
   1.16219E+3   8.59710E+2
   1.99421E+3  -2.55142E+2
   1.36456E+3   2.66383E+3
  -7.21051E+2  -4.46590E+2
  -9.65732E+2  -7.00582E+2
   8.70503E+2   2.31859E+2
   2.13370E+3   7.05662E+1
  -3.00818E+2   6.58384E+2
  -1.67270E+3  -1.68970E+3
  -2.09230E+2  -1.08332E+2
  -3.46147E+2   5.07637E+2
  -3.37192E+3  -9.30571E+2
   1.20552E+2  -9.02723E+2
   1.40145E+2   9.30139E+2
   1.19830E+3  -6.41881E+1
   9.09321E+2  -7.51330E+2
   8.97028E+2   1.39882E+3
  -8.40933E+2   4.83592E+1
  -3.07211E+2  -7.91731E+2
  -4.26455E+2  -5.13821E+2
   1.19441E+3   2.00794E+2
   5.48871E+2  -1.15203E+3
   1.26882E+3  -2.04541E+3
   1.34696E+3   4.37787E+2
   4.02414E+2  -1.08630E+3
   1.05015E+3   1.35610E+3
  -9.24984E+2  -1.79303E+3
   1.05964E+3   4.59772E+2
   9.43809E+2  -1.30523E+3
  -9.60880E+1   1.02159E+3
  -7.47659E+2  -2.38713E+2
  -6.47678E+2  -1.84853E+3
   9.13261E+2   3.79110E+2
  -1.44116E+3   1.08027E+2
  -1.13737E+2   9.15362E+2
   1.48364E+3  -5.26036E+2
   1.93390E+2  -9.17537E+2
   1.38575E+1  -3.01729E+3
   4.16213E+2  -6.77936E+2
  -6.85667E+2   1.43189E+3
  -7.53582E+2   1.50934E+3
  -1.48602E+3  -1.55102E+3
   1.02602E+3   7.99165E+2
  -1.56302E+3   1.28484E+3
  -8.87316E+2  -4.76993E+2
  -1.05828E+3  -6.42143E+2
  -4.28897E+2  -5.49915E+1
  -8.95119E+2   1.77233E+3
  -1.77514E+3   7.17512E+2
  -7.96003E+2  -3.58931E+3
   2.50202E+2   4.02055E+1
   1.93757E+3   1.18834E+3
   8.05708E+2   1.70428E+3
  -3.07042E+2  -1.49605E+3
  -1.11180E+3  -7.85449E+2
   1.36444E+3  -1.77026E+3
  -1.86700E+3  -5.69404E+2
   3.37377E+2  -2.20481E+2
  -1.07640E+3   4.73619E+2
   1.77614E+3   6.22412E+2
  -1.56587E+2   8.53092E+2
  -1.88658E+3   7.32481E+2
  -8.41299E+2   8.40784E+2
  -1.25895E+3  -1.82384E+3
   2.31149E+2  -1.69294E+2
   1.33566E+2   4.62800E+2
   1.33792E+3   7.68562E+2
   4.84494E+1  -8.16389E+2
   9.22209E+0  -3.63495E+2
  -8.14290E+2   1.00129E+3
  -1.08796E+2   1.21859E+2
  -6.87240E+2   9.16212E+1
   2.11072E+3  -1.85057E+3
  -5.46662E+2  -5.09835E+2
  -1.98785E+2   1.41002E+3
   1.53125E+3   8.64066E+2
  -1.08192E+2   7.74392E+2
  -8.62382E+1  -8.65533E+2
   1.17684E+3   5.27855E+2
  -6.03592E+2  -1.33610E+3
   9.08082E+2  -1.27474E+3
  -1.32891E+3   1.31573E+3
   8.68808E+2   1.32888E+3
  -1.56180E+3   1.21800E+3
  -8.09412E+2   1.01263E+3
   6.33663E+2  -5.45846E+2
  -4.50809E+2  -1.10090E+3
  -1.31953E+3   1.91495E+2
   1.02027E+3   1.38022E+3
   3.52443E+2   1.17171E+2
   1.39036E+3   3.26642E+2
  -7.09088E+2   1.71750E+3
   1.42368E+3   4.24269E+2
  -2.78058E+3  -3.50702E+2
  -3.45681E+2  -1.11067E+3
  -1.07650E+3   1.26378E+3
  -5.05852E+2   1.31370E+3
   2.22925E+3   2.81389E+3
  -1.48282E+3  -1.30518E+1
  -3.54655E+1  -4.36019E+2
  -1.20485E+3   9.30036E+2
   6.92176E+1   5.52483E+2
  -4.31345E+2  -1.21222E+3
   2.52116E+2  -6.92527E+2
   5.01578E+2   7.77368E+1
   1.14930E+2   7.20405E+2
  -6.68423E+2   8.96788E+2
   5.43476E+1  -6.38591E+2
  -4.42105E+2  -2.33855E+3
   1.04823E+2   1.94631E+2
   8.29112E+2  -3.87745E+2
  -5.90266E+2   8.20930E+2
   4.99713E+2   7.50059E+2
   5.99076E+2  -1.70956E+3
   2.21642E+2  -7.60586E+2
   6.15586E+2   2.49173E+2
  -1.37482E+3   9.17477E+0
   3.46968E+2   6.82929E+2
  -2.40141E+2  -7.11165E+2
  -4.25265E+2  -9.89555E+2
  -4.68671E+2   8.19110E+1
  -5.14310E+2  -3.11065E+2
  -1.42519E+2  -7.24060E+2
  -2.80360E+2  -3.91381E+1
   3.05123E+2  -1.06355E+3
   2.43611E+2  -1.22236E+3
   6.03503E+2  -5.96326E+1
  -1.74541E+1  -1.30194E+3
   3.25042E+2   3.79836E+2
  -6.66301E+1   6.26587E+1
   6.66833E+2  -1.53366E+3
   1.94236E+2   4.38318E+2
