 
 $NMID
 ID=''
 FMTDAT='(2E13.5)'
 TRAMP=   1.00000E+0
 VOLUME=   1.00000E+0
 $END
   4.49830E+2   5.79005E+2
  -1.83773E+3   1.26845E+3
   5.58197E+3   4.23844E+2
   1.38538E+3  -1.54094E+3
  -4.66899E+2  -2.76087E+3
   2.73484E+2   1.44678E+2
  -1.16300E+3  -6.25626E+2
  -1.36675E+3  -2.22427E+3
   3.50628E+2  -2.43284E+3
  -1.19961E+3  -1.80805E+3
   1.09551E+3   9.31568E+2
  -1.41147E+3   2.77598E+3
  -3.26130E+3   5.08839E+3
  -4.05628E+3  -2.52223E+3
   7.58166E+2  -3.17495E+2
   1.31096E+3   5.25393E+2
   1.95199E+3   4.32086E+3
  -2.55201E+2   3.47406E+3
  -7.48272E+2  -1.26439E+3
  -4.96603E+1  -1.09987E+3
   1.77234E+3   2.15933E+3
  -1.06582E+3   7.70740E+3
  -4.45004E+3  -5.68048E+2
   5.15366E+3  -2.03485E+3
   5.85608E+3   1.04888E+3
   8.67824E+2   3.19511E+3
  -2.45980E+3  -2.18343E+3
   1.15786E+2  -5.68838E+3
   5.01446E+3  -5.95406E+3
   5.21889E+3   4.86687E+3
  -6.18254E+3   4.85983E+3
  -6.63411E+3  -1.65721E+3
  -3.80093E+3  -6.40418E+3
   1.34231E+3  -3.35865E+2
  -1.19311E+3  -2.92960E+1
   1.82301E+3  -3.04338E+3
   5.07303E+3   1.83723E+3
   1.95470E+3   7.18487E+3
  -2.88105E+3   9.07003E+2
  -6.44536E+2   1.40837E+3
  -3.08135E+3   5.81255E+2
   1.24458E+3  -6.38744E+3
   5.65532E+3  -4.76062E+3
   7.29543E+3  -3.35823E+2
   1.44934E+3   1.22705E+3
   4.78060E+2  -1.21094E+2
  -6.47755E+2   2.05527E+3
  -2.54795E+3   1.50016E+3
  -2.30796E+3  -2.06784E+2
  -1.55111E+3  -1.54706E+3
   5.66224E+2  -2.08048E+3
   4.11507E+3   3.97354E+2
   1.87146E+3   3.26499E+3
  -1.66761E+3   3.32494E+2
  -2.11808E+3   8.04570E+1
  -2.90060E+3   2.72871E+2
  -3.15578E+3  -2.18026E+3
  -2.32975E+1  -5.52980E+3
   3.57456E+3  -3.90192E+3
   2.50408E+3  -1.04818E+3
   4.33766E+2   3.75617E+3
  -1.92549E+3   4.26859E+3
  -4.12209E+3   1.82125E+3
  -1.85610E+3   6.46956E+2
   8.12364E+2   3.08644E+3
  -5.08296E+2   2.48524E+3
  -3.01801E+3  -3.75810E+2
  -1.38455E+3  -1.65668E+3
   1.10573E+3  -2.85032E+3
  -9.50925E+2   1.25644E+3
  -1.55950E+3  -2.63185E+3
  -1.61443E+3  -2.89274E+1
  -1.79861E+3   7.55953E+2
  -9.86720E+2  -9.80439E+2
  -8.03181E+1   1.26073E+3
  -5.90761E+2   1.63873E+3
  -1.55049E+3  -6.93730E+2
   1.73847E+3  -1.71591E+3
   3.39339E+2   1.82721E+3
  -1.42285E+3   1.86892E+2
  -1.06535E+3  -3.06609E+3
   2.01709E+3  -2.05719E+3
   1.21397E+3   5.93144E+2
  -4.01161E+3  -2.41614E+3
  -2.13143E+3  -3.93424E+3
   1.30050E+3  -4.03155E+3
   3.33787E+3  -6.19936E+2
   3.81926E+3   2.87388E+3
  -3.30168E+2   3.58627E+3
   1.07856E+2   1.23079E+3
   1.25061E+3   1.86826E+3
   5.33235E+1   3.29335E+3
  -1.60819E+3   4.76599E+3
  -2.08638E+3  -7.00870E+2
   4.36408E+2  -2.62955E+3
   4.62680E+3  -4.62726E+1
   1.19894E+3   3.33395E+3
  -1.86183E+3   2.17443E+3
  -2.60832E+3  -1.83425E+3
  -5.06590E+2  -3.78644E+3
   2.78911E+3   1.26464E+2
   3.34378E+2   5.54856E+3
  -5.99723E+3   2.20917E+3
  -3.01001E+3  -1.13099E+3
  -4.06440E+2  -2.72676E+3
   8.24441E+2   1.02329E+3
  -5.53510E+2  -6.94595E+2
  -1.33445E+3  -3.97237E+3
   2.07452E+3  -3.36586E+3
   3.35193E+3   7.09468E+2
   2.15399E+3   1.24021E+3
  -8.75945E+2   9.05894E+2
  -4.14604E+2  -2.67661E+3
   4.35908E+2  -3.96571E+2
  -1.56245E+3  -1.42248E+3
   9.10704E+2  -1.57925E+3
   1.24702E+3  -7.40613E+2
   2.19634E+3   6.18305E+2
   1.13746E+3  -4.81815E+2
   1.41117E+2   4.00249E+2
   1.26723E+2   7.01668E+1
  -7.66194E+2  -2.09056E+3
   6.60017E+2  -6.48740E+2
   3.57208E+3   1.37810E+3
   2.26650E+2   1.38299E+3
   1.69364E+3   1.14898E+3
   6.93866E+2   1.22508E+2
   1.56899E+3  -3.41114E+2
   1.18358E+3  -1.18060E+3
   9.23797E+2  -2.42069E+3
   4.23903E+2  -1.38618E+3
   5.84066E+2   2.30120E+3
  -1.52577E+3   3.29719E+3
  -1.65994E+3   2.17075E+3
  -4.93153E+2  -2.46188E+2
   1.42396E+3  -2.73319E+3
   2.16155E+3  -1.62892E+3
   3.85754E+3  -7.77070E+2
   1.17455E+3   1.68012E+3
  -4.60571E+2  -1.72083E+2
   2.87204E+3   1.13976E+3
  -2.32680E+2   5.24718E+2
  -1.01189E+3  -4.99699E+2
  -1.24294E+3   3.64869E+2
  -2.08792E+3  -1.11244E+3
  -1.25964E+3  -3.70456E+2
   1.59683E+2   1.45134E+3
  -2.88284E+2  -8.64519E+1
   5.69618E+1   1.40260E+3
  -1.53266E+3  -3.34774E+1
  -1.48710E+3   9.14838E+2
   1.15359E+2   2.55512E+2
   6.21935E+2   8.69171E+2
  -1.42795E+3   1.26013E+3
   1.96156E+3  -4.43643E+2
  -1.57762E+3  -1.04342E+3
   9.97114E+2   2.67735E+2
  -9.61014E+2  -2.32235E+2
  -3.09380E+2  -1.42178E+3
  -8.41722E+2   2.90669E+2
  -3.50765E+3   5.22404E+2
   2.79768E+2   1.12692E+3
  -1.80357E+3  -1.48507E+3
   8.81653E+1   6.43399E+2
  -2.08406E+3   9.08409E+1
   3.08054E+2  -2.54083E+3
   6.89631E+0   4.49476E+2
   6.36361E+2   1.67176E+3
  -5.88031E+2   1.51108E+3
  -2.44079E+3  -7.59248E+2
  -5.65844E+2  -4.94207E+1
  -4.48663E+2   2.51954E+2
   1.94723E+3  -1.86835E+3
  -2.04077E+3   3.43939E+2
  -2.68884E+3   1.12217E+3
   4.46587E+2   3.98630E+2
  -7.70084E+2  -1.84365E+2
  -3.20694E+3  -1.40585E+3
  -1.05524E+3   1.76655E+2
  -3.17723E+3  -2.86778E+3
  -3.33502E+2   1.99523E+3
  -1.13585E+3  -9.10956E+2
   5.32253E+2  -3.41591E+2
  -1.57022E+3   3.83865E+2
  -1.84576E+3   2.20312E+2
  -2.78522E+2   4.22929E+2
  -1.31810E+3  -1.34478E+3
   1.51729E+3  -1.77977E+3
   7.87327E+2  -7.25751E+2
  -6.48148E+2  -6.96834E+2
   8.76420E+2   3.85662E+2
   4.09381E+2   5.38313E+2
  -2.18251E+2  -6.14858E+2
   1.70992E+3  -9.66470E+2
  -9.12887E+2   1.46585E+3
  -1.06473E+3   4.29628E+2
   1.23935E+3  -7.85717E+2
   5.68593E+2  -9.12208E+1
   4.59963E+2   1.43844E+3
  -2.01027E+3   4.48294E+2
  -3.41599E+2  -2.12347E+3
   1.87051E+3  -7.15421E+2
   1.24959E+3  -1.15133E+3
   6.99946E+2   2.18378E+3
   3.10038E+2   9.88458E+2
  -5.11212E+2   1.87889E+2
  -2.88810E+1   2.69236E+2
   9.06421E+2  -7.35916E+2
   1.39518E+2   6.25019E+1
  -3.28719E+1   5.92974E+2
   8.20534E+0   1.81579E+2
   5.08499E+2   5.24792E+2
   5.63803E+2   6.44382E+2
  -7.79683E+2  -6.30696E+2
  -3.00423E+2  -1.23460E+2
   1.24288E+2  -1.11270E+2
  -5.86975E+2  -1.68126E+2
  -1.16568E+3   5.81960E+2
   6.98607E+1   1.06373E+3
  -2.31812E+2   1.38287E+3
  -9.18807E+1   1.08638E+3
   7.09597E+2   2.28367E+3
   1.35230E+3   4.54828E+2
   9.14836E+1  -3.16820E+2
   2.14184E+3  -1.32039E+2
   2.42489E+3   2.25443E+2
   5.26511E+2   8.92438E+2
  -3.64090E+2   1.27210E+3
   5.31057E+2   4.13006E+2
   7.85565E+2  -4.55922E+2
  -7.06712E+2   4.84312E+2
   1.85196E+2  -1.04903E+3
  -1.65112E+2   1.17565E+3
   1.31129E+3  -6.44894E+2
   5.32514E+2   2.26908E+3
  -2.42010E+2  -7.55522E+1
  -4.67125E+2   3.62409E+2
  -1.38178E+3   1.76117E+3
   9.95503E+2   1.10870E+2
   1.02305E+3   7.63028E+2
   2.62972E+3  -3.45881E+2
   2.72964E+2   3.63964E+2
   8.55663E+2  -1.76970E+2
   1.64529E+3   4.84476E+2
   2.57417E+3  -5.01994E+2
   3.12942E+3   1.53809E+3
   3.53907E+2   1.74857E+3
   3.05253E+2   4.14477E+2
   5.33868E+2  -4.09015E+2
   1.19883E+2  -4.38183E+2
  -2.78067E+2   8.68118E+2
   5.07798E+2   4.56939E+2
   3.19509E+3  -1.82358E+3
   4.33905E+2   2.64003E+3
   1.12457E+3  -1.79771E+3
   3.13353E+1   5.11597E+2
  -5.15058E+2   2.01873E+3
  -2.96287E+1   1.45986E+3
  -7.22625E+2   1.22892E+3
   8.11784E+2  -9.31372E+2
   1.07536E+3  -2.96241E+2
   1.33117E+3   1.11222E+1
   3.32406E+2   5.42410E+2
   1.81481E+3   8.63666E+2
   1.17835E+3   1.67201E+3
  -2.34261E+3   3.34026E+2
   1.67842E+2   5.91671E+2
   9.45648E+2   1.63983E+2
   3.92992E+2   3.62331E+2
   1.22541E+3  -3.42472E+2
   1.50805E+3  -6.07978E+2
   9.50694E+2   8.27710E+2
  -6.66356E+2  -1.58474E+3
  -9.09981E+2  -1.63510E+3
   2.31452E+3  -2.28869E+3
   2.36749E+2  -9.98016E+2
  -1.73123E+2   9.66582E+2
  -5.62197E+0  -1.63937E+3
  -5.94816E+2  -1.25087E+3
   5.41659E+2   9.07065E+2
   1.58224E+2   7.20983E+2
   7.33703E+2  -2.33511E+2
   4.61841E+1   7.65319E+2
   3.02506E+2   1.29231E+3
   1.51351E+3   1.14279E+3
   1.60005E+3   3.03457E+2
   2.43037E+3  -1.16843E+3
   1.02913E+3  -1.28647E+3
   1.18071E+2   1.22178E+3
  -2.73322E+2   3.43914E+2
  -2.36104E+2   2.03506E+3
  -1.06595E+3  -1.09801E+3
   1.51433E+3   8.63470E+1
   3.65145E+2   1.04651E+2
   2.26172E+2   8.17677E+2
   8.34609E+2  -4.10888E+2
  -1.31005E+3  -5.80322E+2
   5.54314E+2  -6.29073E+2
  -5.60592E+2   1.01313E+3
  -1.46268E+2  -1.88956E+3
   7.58149E+2  -1.56537E+3
  -2.74346E+3   8.41955E+2
  -1.07159E+3  -9.35031E+2
  -4.65755E+2  -1.01504E+3
   6.27225E+2  -1.17070E+3
   2.34744E+2   1.90568E+1
  -1.20719E+3  -1.65946E+3
  -2.87528E+2  -1.55892E+3
   4.22007E+2   3.92890E+2
   1.78640E+3   8.49080E+2
   2.36896E+2   7.75701E+2
   4.44070E+2  -1.47740E+3
   1.02444E+3  -4.84460E+2
  -1.02410E+3   7.65539E+1
  -5.11049E+2   1.62990E+3
   5.27375E+2  -1.12108E+2
  -9.46870E+1  -1.50558E+3
   9.32661E+1   5.49236E+1
   1.20565E+3  -5.09270E+2
   3.48975E+2  -1.15768E+3
   1.51032E+3  -9.47450E+2
   2.70517E+2  -9.69716E+2
  -1.55411E+2   8.50506E+2
  -6.67861E+2   4.18453E+2
  -7.32461E+2   7.92434E+2
  -2.50587E+2  -1.03069E+3
   7.85695E+1   9.19780E+2
  -3.12873E+3  -2.14471E+2
   7.86359E+2  -6.96947E+1
  -5.44755E+2  -6.74351E+2
  -1.19903E+3  -1.31055E+3
  -1.59180E+3  -2.40268E+2
   3.77231E+2   2.13955E+2
   2.15084E+3  -1.09157E+3
   2.82414E+2   3.19310E+2
  -9.11213E+2  -1.72800E+3
   2.51757E+2   9.90791E+2
  -6.78909E+2  -2.45429E+3
  -1.45414E+3   2.06970E+3
   1.25760E+3  -1.01623E+3
  -6.86145E+2  -2.04234E+2
   2.90968E+3   7.22558E+2
  -8.09219E+2   1.93191E+3
  -1.46951E+2   2.30431E+0
   7.24887E+2  -6.63558E+2
  -2.44074E+3   1.48278E+3
  -1.32414E+3   1.48037E+3
  -7.44151E+2   5.82138E+2
  -3.70116E+2  -6.30955E+2
  -1.41842E+3   1.18279E+3
   1.71295E+3   7.54266E+2
   6.82345E+2   1.10722E+3
  -1.04814E+3  -7.10660E+2
  -5.65285E+2   1.00514E+3
  -8.75277E+1   2.64500E+3
   1.13073E+3   1.61575E+3
   2.90733E+2   8.31977E+2
  -2.83511E+2  -1.25911E+3
  -2.05931E+3   5.53669E+2
   5.69508E+1  -8.48032E+2
   1.08179E+3   8.51344E+2
  -1.04138E+3  -1.90602E+3
  -3.09140E+2   1.29748E+2
   8.76384E+2  -1.19417E+3
   5.63239E+2   7.89514E+2
  -2.61951E+2  -4.83864E+2
   9.56058E+2   4.37894E+2
