 LCModel (Version 6.3-1N) Copyright: S.W. Provencher.          Ref.: Magn. Reson. Med. 30:672-679 (1993).                
 Slice_N1@14_11  02-Jun-2023 14:37:14
 27 lines in following concentration table = NCONC+1
    Conc.  %SD /Cr+PCr  Metabolite                                         
 2.57E-06  14% 3.1E-04 Mac                                                 
 4.62E-02  43%   5.617 Cr                                                  
 1.96E-02 108%   2.383 PCr                                                 
 8.66E-02  12%  10.543 Ins                                                 
 9.04E-02   9%  10.999 NAA                                                 
 6.30E-02  15%   7.668 Tau                                                 
 1.66E-02  14%   2.018 PCho                                                
    0.000 999%   0.000 GPC                                                 
 7.09E-02  15%   8.625 Glu                                                 
 3.54E-02  23%   4.304 Gln                                                 
    0.000 999%   0.000 Ala                                                 
 4.49E-03 323%   0.547 Asc                                                 
 1.02E-02  70%   1.238 Asp                                                 
 4.50E-03  88%   0.548 GABA                                                
 4.36E-03 103%   0.530 Glc                                                 
 1.22E-02  40%   1.485 GSH                                                 
    0.000 999%   0.000 Lac                                                 
 9.10E-03  72%   1.107 NAAG                                                
    0.000 999%   0.000 PE                                                  
 1.66E-02  14%   2.018 GPC+PCho                                            
 9.95E-02   9%  12.106 NAA+NAAG                                            
    0.106  13%  12.929 Glu+Gln                                             
 6.57E-02  11%   8.000 Cr+PCr                                              
 9.95E-02   9%  12.106 NAA+NAAG                                            
 6.57E-02  11%   8.000 Cr+PCr                                              
    0.106  13%  12.929 Glu+Gln                                             
   6 lines in following misc. output table
  FWHM = 0.058 ppm    S/N =   2                                            
  Data shift = 0.006 ppm                                                   
  Ph: -99 deg     -13.0 deg/ppm                                            
  alphaB,S = 2.4E-01,   9.0E+01                                            
   18 spline knots.   Ns = 9(1)                                            
  ( 5) 4 infls.   ( 4) 1 extrs.                                            
  654 points on ppm-axis = NY
      4.000000     3.994181     3.988363     3.982544     3.976726     3.970907     3.965088     3.959270     3.953451     3.947633
      3.941814     3.935995     3.930177     3.924358     3.918540     3.912721     3.906902     3.901084     3.895265     3.889446
      3.883628     3.877809     3.871991     3.866172     3.860353     3.854535     3.848716     3.842898     3.837079     3.831260
      3.825442     3.819623     3.813805     3.807986     3.802167     3.796349     3.790530     3.784712     3.778893     3.773074
      3.767256     3.761437     3.755619     3.749800     3.743981     3.738163     3.732344     3.726526     3.720707     3.714888
      3.709070     3.703251     3.697433     3.691614     3.685795     3.679977     3.674158     3.668339     3.662521     3.656702
      3.650884     3.645065     3.639246     3.633428     3.627609     3.621791     3.615972     3.610153     3.604335     3.598516
      3.592698     3.586879     3.581060     3.575242     3.569423     3.563605     3.557786     3.551967     3.546149     3.540330
      3.534512     3.528693     3.522874     3.517056     3.511237     3.505419     3.499600     3.493781     3.487963     3.482144
      3.476326     3.470507     3.464688     3.458870     3.453051     3.447232     3.441414     3.435595     3.429777     3.423958
      3.418139     3.412321     3.406502     3.400684     3.394865     3.389046     3.383228     3.377409     3.371591     3.365772
      3.359953     3.354135     3.348316     3.342498     3.336679     3.330860     3.325042     3.319223     3.313405     3.307586
      3.301767     3.295949     3.290130     3.284312     3.278493     3.272674     3.266856     3.261037     3.255219     3.249400
      3.243581     3.237763     3.231944     3.226125     3.220307     3.214488     3.208670     3.202851     3.197032     3.191214
      3.185395     3.179577     3.173758     3.167939     3.162121     3.156302     3.150484     3.144665     3.138846     3.133028
      3.127209     3.121391     3.115572     3.109753     3.103935     3.098116     3.092298     3.086479     3.080660     3.074842
      3.069023     3.063205     3.057386     3.051567     3.045749     3.039930     3.034111     3.028293     3.022474     3.016656
      3.010837     3.005018     2.999200     2.993381     2.987563     2.981744     2.975925     2.970107     2.964288     2.958470
      2.952651     2.946832     2.941014     2.935195     2.929377     2.923558     2.917739     2.911921     2.906102     2.900284
      2.894465     2.888646     2.882828     2.877009     2.871191     2.865372     2.859553     2.853735     2.847916     2.842098
      2.836279     2.830460     2.824642     2.818823     2.813004     2.807186     2.801367     2.795549     2.789730     2.783911
      2.778093     2.772274     2.766456     2.760637     2.754818     2.749000     2.743181     2.737363     2.731544     2.725725
      2.719907     2.714088     2.708270     2.702451     2.696632     2.690814     2.684995     2.679177     2.673358     2.667539
      2.661721     2.655902     2.650084     2.644265     2.638446     2.632628     2.626809     2.620991     2.615172     2.609353
      2.603535     2.597716     2.591897     2.586079     2.580260     2.574442     2.568623     2.562804     2.556986     2.551167
      2.545349     2.539530     2.533711     2.527893     2.522074     2.516256     2.510437     2.504618     2.498800     2.492981
      2.487163     2.481344     2.475525     2.469707     2.463888     2.458070     2.452251     2.446432     2.440614     2.434795
      2.428977     2.423158     2.417339     2.411521     2.405702     2.399884     2.394065     2.388246     2.382428     2.376609
      2.370790     2.364972     2.359153     2.353335     2.347516     2.341697     2.335879     2.330060     2.324242     2.318423
      2.312604     2.306786     2.300967     2.295149     2.289330     2.283511     2.277693     2.271874     2.266056     2.260237
      2.254418     2.248600     2.242781     2.236963     2.231144     2.225325     2.219507     2.213688     2.207870     2.202051
      2.196232     2.190414     2.184595     2.178777     2.172958     2.167139     2.161321     2.155502     2.149683     2.143865
      2.138046     2.132228     2.126409     2.120590     2.114772     2.108953     2.103135     2.097316     2.091497     2.085679
      2.079860     2.074042     2.068223     2.062404     2.056586     2.050767     2.044949     2.039130     2.033311     2.027493
      2.021674     2.015856     2.010037     2.004218     1.998400     1.992581     1.986763     1.980944     1.975126     1.969307
      1.963489     1.957670     1.951852     1.946033     1.940215     1.934397     1.928578     1.922760     1.916941     1.911123
      1.905304     1.899486     1.893667     1.887849     1.882030     1.876212     1.870393     1.864575     1.858756     1.852938
      1.847119     1.841301     1.835482     1.829664     1.823845     1.818027     1.812208     1.806390     1.800571     1.794753
      1.788934     1.783116     1.777297     1.771479     1.765660     1.759842     1.754023     1.748205     1.742386     1.736568
      1.730749     1.724931     1.719113     1.713294     1.707476     1.701657     1.695839     1.690020     1.684202     1.678383
      1.672565     1.666746     1.660928     1.655109     1.649291     1.643472     1.637654     1.631835     1.626017     1.620198
      1.614380     1.608561     1.602743     1.596924     1.591106     1.585287     1.579469     1.573650     1.567832     1.562013
      1.556195     1.550376     1.544558     1.538739     1.532921     1.527102     1.521284     1.515465     1.509647     1.503829
      1.498010     1.492192     1.486373     1.480555     1.474736     1.468918     1.463099     1.457281     1.451462     1.445644
      1.439825     1.434007     1.428188     1.422370     1.416551     1.410733     1.404914     1.399096     1.393277     1.387459
      1.381640     1.375822     1.370003     1.364185     1.358366     1.352548     1.346729     1.340911     1.335092     1.329274
      1.323455     1.317637     1.311818     1.306000     1.300182     1.294363     1.288545     1.282726     1.276908     1.271089
      1.265271     1.259452     1.253634     1.247815     1.241997     1.236178     1.230360     1.224541     1.218723     1.212904
      1.207086     1.201267     1.195449     1.189630     1.183812     1.177993     1.172175     1.166356     1.160538     1.154719
      1.148901     1.143082     1.137264     1.131445     1.125627     1.119808     1.113990     1.108171     1.102353     1.096534
      1.090716     1.084898     1.079079     1.073261     1.067442     1.061624     1.055805     1.049987     1.044168     1.038350
      1.032531     1.026713     1.020894     1.015076     1.009257     1.003439     0.997620     0.991802     0.985983     0.980165
      0.974346     0.968528     0.962709     0.956891     0.951072     0.945254     0.939435     0.933617     0.927798     0.921980
      0.916161     0.910343     0.904524     0.898706     0.892887     0.887069     0.881251     0.875432     0.869614     0.863795
      0.857977     0.852158     0.846340     0.840521     0.834703     0.828884     0.823066     0.817247     0.811429     0.805610
      0.799792     0.793973     0.788155     0.782336     0.776518     0.770699     0.764881     0.759062     0.753244     0.747425
      0.741607     0.735788     0.729970     0.724151     0.718333     0.712514     0.706696     0.700877     0.695059     0.689240
      0.683422     0.677603     0.671785     0.665967     0.660148     0.654330     0.648511     0.642693     0.636874     0.631056
      0.625237     0.619419     0.613600     0.607782     0.601963     0.596145     0.590326     0.584508     0.578689     0.572871
      0.567052     0.561234     0.555415     0.549597     0.543778     0.537960     0.532141     0.526323     0.520504     0.514686
      0.508867     0.503049     0.497230     0.491412     0.485593     0.479775     0.473956     0.468138     0.462319     0.456501
      0.450682     0.444864     0.439045     0.433227     0.427408     0.421590     0.415771     0.409953     0.404134     0.398316
      0.392497     0.386679     0.380860     0.375042     0.369223     0.363405     0.357586     0.351767     0.345949     0.340130
      0.334312     0.328493     0.322675     0.316856     0.311038     0.305219     0.299401     0.293582     0.287764     0.281945
      0.276127     0.270308     0.264490     0.258671     0.252853     0.247034     0.241216     0.235397     0.229579     0.223760
      0.217942     0.212123     0.206305     0.200486
 NY phased data points follow
  -9.13789E-02 -4.20954E-02 -1.21152E-02  3.82635E-01  1.26673E-01 -1.57972E-01 -7.74819E-02 -1.14168E-01 -1.08085E-01 -5.05025E-02
   5.75357E-01  3.54678E-01  5.69920E-02  4.46117E-01  2.74639E-01  2.28249E-01  2.15522E-01  2.11128E-01  1.98594E-01 -7.82901E-02
   4.03493E-02 -1.07522E-01  1.53654E-01  1.45936E-01 -3.85802E-01 -1.73830E-01 -9.31856E-02 -7.75321E-03 -7.22486E-02  1.77643E-01
   2.32409E-01 -9.99673E-02 -3.47593E-01 -2.31646E-01 -2.24713E-01 -4.60283E-01 -1.30135E-01 -2.60701E-01 -1.55529E-01  5.66285E-02
   2.84590E-01  1.95298E-01  2.52274E-01  4.68744E-01  1.01112E-01  4.27884E-01  5.25118E-01  1.05143E-01  1.02268E-01  7.97715E-02
  -1.07557E-01  1.70825E-01 -4.96272E-02 -9.61094E-02 -9.04359E-02 -4.67785E-01 -1.00004E-01 -1.30416E-01 -5.24565E-01 -4.56364E-01
  -2.37734E-01 -5.05478E-01 -4.96726E-01 -1.51681E-01 -2.22415E-01 -1.28547E-01 -1.91007E-01 -6.18891E-02  4.62071E-01  4.27228E-01
   2.90123E-01  1.08485E-01  6.19621E-01  3.56519E-01 -1.05660E-01  3.36910E-01 -1.28414E-01  1.94124E-01 -5.65595E-02 -1.98046E-01
   5.56357E-02 -8.04557E-02 -4.75083E-02 -8.21189E-02  2.75104E-01  1.01658E-01  2.99649E-01  2.66252E-01  2.49238E-01  3.44938E-01
   4.81720E-01  1.42734E-01 -9.15437E-02  9.44425E-02 -1.61649E-01 -2.82219E-02 -2.12805E-01 -6.90950E-02 -4.12197E-01 -1.38011E-02
   3.24449E-01 -2.96107E-01 -7.23441E-02  1.92918E-01  2.14691E-01  1.17548E-01  3.20345E-01  3.21184E-01  4.61477E-01  3.91923E-01
   2.84897E-01  3.10491E-01  4.54909E-01  2.76717E-01  5.85787E-02  4.54017E-01  3.44197E-01  2.77211E-01  3.31481E-01  1.59706E-01
   2.76301E-02  3.21709E-01 -2.85609E-02 -2.22933E-01 -3.09306E-01 -2.99358E-01 -8.13972E-02 -4.95882E-01 -3.42038E-01 -3.39551E-01
  -3.90785E-01 -7.82322E-01 -6.27627E-01 -3.60860E-01 -4.13076E-01 -3.59545E-01 -5.85333E-01 -4.11948E-01 -6.52337E-01 -5.52659E-01
  -3.78993E-01 -2.65464E-01  2.15288E-01  2.13178E-01 -2.55929E-01  1.29536E-01  1.98142E-01  2.26785E-02  2.50022E-01 -1.75733E-01
  -1.90139E-02  7.19565E-02  1.61509E-01  6.17979E-02 -3.85789E-02  2.38197E-01  3.56303E-01  3.01214E-01  5.26282E-01  5.64611E-01
   1.92940E-01  5.62650E-01  3.12784E-01  2.92167E-01  4.71546E-01  9.02591E-02  8.05407E-03  7.06665E-02  2.54396E-03 -1.05800E-01
  -8.63404E-01 -1.14363E+00 -6.05049E-01 -8.91180E-01 -3.76761E-01 -8.08568E-02 -2.83881E-01 -5.23581E-01 -4.86081E-01 -2.59191E-01
  -3.11520E-01 -4.65101E-02 -2.66807E-01  1.64812E-03 -9.28438E-02 -1.12298E-01 -7.24870E-02 -4.37888E-01 -3.11245E-01 -2.72381E-01
   4.40939E-02 -6.09096E-02 -2.18488E-01 -5.79294E-02 -2.70762E-01 -2.15018E-01  3.49927E-03 -7.67774E-02 -1.88888E-01 -1.42428E-01
   1.33017E-01 -1.03528E-01 -4.04385E-02  2.40630E-01 -3.92174E-03  2.39385E-01  4.53406E-03 -5.65637E-02 -1.65085E-02 -2.58781E-01
  -4.24981E-02 -2.65055E-01 -2.93593E-01 -1.09915E-01 -5.08069E-02 -1.77387E-02  7.62288E-02 -4.68832E-02 -2.57718E-01 -1.33954E-01
  -1.66167E-03  2.06301E-03 -3.28623E-02  2.47206E-01 -5.18783E-03  1.86890E-01  3.00383E-01  8.83948E-02  4.01621E-01  3.64766E-01
   4.95541E-01  2.76703E-01  3.16085E-01  5.49242E-01  4.65486E-01  6.05182E-02  8.35724E-02  1.20685E-01 -2.64563E-01 -1.47315E-01
  -2.68697E-01 -8.73454E-02 -1.02292E-01 -2.30314E-01 -3.09948E-01 -7.47928E-02  3.50582E-02 -9.40859E-02  4.23810E-02 -2.04206E-01
  -8.02518E-02 -1.12785E-01  8.24758E-02  5.05943E-01  1.68307E-01 -1.07484E-01  2.62665E-01  2.92762E-01  2.73216E-02 -4.48648E-02
  -9.95182E-02  5.04743E-02  1.53996E-01 -3.48197E-02  5.57611E-02  1.07307E-01  1.37650E-01  5.05829E-01  2.72380E-01  1.58497E-01
   1.04671E-01  2.87210E-01  2.33674E-01  1.22303E-01  1.65977E-01 -7.99529E-02  2.42675E-02 -1.05847E-01  6.28611E-04 -1.25480E-01
   1.95355E-03  6.75901E-02 -8.76618E-02  9.24171E-02  4.75996E-02  1.77720E-01  1.85461E-01  8.33983E-02  3.43386E-01  4.80984E-01
   4.45268E-01  3.91886E-01  4.53584E-02  2.26210E-01  3.77795E-01  2.72509E-01 -3.57810E-02 -8.46594E-02  1.72102E-01  2.14606E-01
   6.81869E-02  4.04492E-01  6.06886E-01  6.15840E-02  3.83163E-01  2.05278E-01  4.15311E-01  5.79403E-01  3.66257E-01  3.42398E-01
   9.10922E-02  3.32422E-01  3.13876E-02 -4.33913E-02  8.33544E-02  1.66286E-01 -2.10927E-01 -2.95436E-01 -1.32719E-01 -2.93660E-01
  -8.91269E-02 -2.66487E-01 -2.71944E-01 -2.52661E-01 -4.90794E-01 -2.20597E-01  2.16616E-01 -7.28483E-02 -4.19496E-01  1.80382E-01
   2.52109E-01 -1.17551E-01 -9.88012E-02 -5.69234E-01 -2.66985E-01 -6.71104E-02 -2.98788E-01 -6.76043E-01 -9.78206E-01 -8.55944E-01
  -9.84790E-01 -4.73380E-01 -6.67464E-01 -5.63883E-01 -7.28390E-01 -1.09970E+00 -7.44608E-01 -7.33250E-01 -1.22508E-01  5.18263E-02
  -2.02791E-02  1.81678E-01  1.55613E-01  1.41313E-02  8.36220E-02 -9.16569E-02  9.66330E-02  2.11746E-01 -1.69788E-02  3.68511E-01
   2.66038E-01  4.32835E-02  1.26918E-01  2.40746E-01 -2.72371E-02 -6.76914E-03  2.56390E-01 -2.66984E-02 -1.69428E-01  1.85465E-01
   2.28482E-01 -2.43145E-01  1.49399E-01  2.77737E-01  5.15295E-02  2.24225E-01  8.07878E-02  1.26948E-01 -1.44158E-02  8.65767E-03
   1.02555E-01 -1.83431E-01  6.53275E-02  4.76354E-01  2.30719E-01  8.10338E-02  2.83527E-01  1.90977E-01  4.23285E-01  1.24057E-01
  -3.04956E-02  3.85637E-01  2.52110E-01  2.87767E-01  1.90670E-01  2.41406E-01  4.27761E-01  4.55465E-01  2.50894E-01  4.21529E-01
   4.87959E-01  2.77017E-02  7.45324E-02 -1.87346E-01 -1.87187E-01  4.62413E-02 -8.38852E-02 -5.70071E-02  7.93580E-02  1.82137E-01
  -2.27339E-01 -4.18980E-01  2.71221E-02 -1.69154E-01 -2.25474E-01  2.10484E-01  5.41772E-02 -5.51747E-02 -3.04465E-01 -1.32533E-01
   7.28562E-02 -2.34622E-01 -1.24265E-01 -4.34398E-01 -1.11659E-01  2.01140E-01 -2.31575E-01 -5.44490E-02 -2.31039E-01 -2.56489E-01
  -1.37882E-01 -2.42265E-01  5.92869E-02 -9.03190E-02 -2.61808E-01  7.87499E-02  7.03879E-02 -9.08303E-02 -6.38858E-02  8.86928E-02
   2.09025E-02  9.85375E-02  8.62639E-03 -2.22388E-01  2.32905E-01  9.73230E-03  8.68236E-02  3.03208E-01  1.83094E-01  3.06881E-01
   2.08528E-01  2.56906E-01  9.78338E-02  1.15161E-01  5.83824E-02  6.71784E-02  5.15937E-03  4.43900E-03 -4.88812E-03 -1.58960E-01
  -1.44247E-01 -2.06601E-01 -9.46344E-02 -2.05010E-02  2.81589E-01  6.62253E-02 -2.40491E-01 -7.90402E-02 -8.41265E-02 -3.12261E-01
  -2.14762E-01  8.02419E-02 -2.83983E-01 -3.66493E-01 -1.15047E-01 -2.56362E-01 -2.07193E-02 -2.93738E-01 -3.59484E-01  1.54185E-02
  -4.66397E-01  6.63145E-02 -1.61805E-02 -1.15540E-01  8.52979E-03 -9.04846E-02  5.31787E-01  1.40289E-02 -3.79477E-01 -3.47007E-02
   2.61654E-01 -1.03991E-01  1.27419E-01  4.73977E-01  2.12743E-01  2.30193E-01  7.77758E-02  8.86148E-02  1.39384E-01  4.20943E-02
   1.71776E-01  2.54996E-01  1.26611E-01  2.86922E-01  6.95833E-02 -4.80925E-02  2.04457E-01  1.47826E-01 -2.55733E-01  7.41798E-02
   9.64746E-02 -2.45937E-03  3.01956E-01  4.92504E-02  8.89067E-02 -4.29051E-02  3.41156E-01 -1.27452E-02  3.70237E-02  2.98117E-01
  -2.89597E-01  2.28957E-02 -2.91877E-01 -1.03677E-01  2.03365E-01 -3.80033E-01 -1.35241E-01 -3.76883E-01 -5.35564E-01 -2.75619E-01
  -6.01052E-01 -2.43254E-01 -7.01385E-01 -3.02555E-01  3.31465E-02 -4.34451E-01 -1.80939E-01 -2.97949E-01 -8.49628E-02 -1.67958E-01
  -2.67131E-02 -7.34965E-02  1.14008E-01 -3.33265E-01 -2.28085E-01  1.81092E-01 -3.55373E-01 -4.60393E-03 -4.97941E-03  2.46257E-01
   1.06483E-01 -8.36689E-02 -3.01987E-02  7.71211E-02  4.89645E-01  3.40300E-01 -6.80010E-03  1.06239E-01  1.42136E-01  6.34743E-02
   1.83181E-01  7.27831E-02  1.37555E-01  1.17789E-01  1.72835E-01  3.68272E-01  2.14630E-01 -2.45811E-01 -6.36889E-02 -9.74444E-02
   1.50091E-01  5.64674E-01 -4.54864E-02 -1.22080E-01  4.05842E-02 -1.00322E-01 -6.34328E-02  2.06596E-01 -9.64001E-02 -8.08999E-02
   4.23943E-02 -1.05908E-01  1.17611E-01  1.68421E-01 -1.19766E-01 -3.08976E-01 -9.80148E-02 -6.73216E-02  1.49672E-01  2.96694E-01
   3.71842E-02 -1.08960E-01 -3.21863E-01 -1.34984E-01  2.68255E-01 -1.08852E-01  1.10368E-01  2.04664E-01 -1.07845E-01  1.99865E-01
   4.27469E-02  1.01790E-02  3.09049E-01  4.71352E-03 -1.72925E-01  2.18922E-01  1.14563E-01  9.03098E-02  1.81987E-01  3.77611E-01
   2.59508E-02 -1.81643E-02  4.61923E-01  1.18418E-01  6.29057E-02 -2.83186E-02  9.50828E-02  4.18966E-02 -6.71425E-03  2.11604E-01
   1.46504E-01  1.81264E-02  2.75147E-02  5.38673E-02  1.72368E-01  2.04321E-01  3.93121E-02 -5.84669E-02  1.16405E-02  1.89286E-01
  -3.62228E-01 -1.81710E-01 -7.86068E-02 -6.94527E-02  5.54661E-02 -9.44958E-02  6.14250E-02 -1.71363E-01  1.41743E-01  1.06618E-01
  -1.23097E-01 -2.20547E-02  4.92283E-02  2.03557E-02 -3.57922E-02  8.55487E-02 -1.09909E-01 -1.84401E-01  2.52153E-01  4.10368E-01
   8.00864E-02 -2.11896E-01 -6.62874E-02  7.29428E-02
 NY points of the fit to the data follow
  -8.83522E-04  1.20898E-02  1.74029E-02  2.01500E-02  2.56791E-02  3.69652E-02  5.71376E-02  8.76456E-02  1.28082E-01  1.76791E-01
   2.27808E-01  2.72257E-01  3.06601E-01  3.31115E-01  3.46189E-01  3.50329E-01  3.39687E-01  3.08106E-01  2.48906E-01  1.67922E-01
   8.09918E-02  2.92571E-03 -5.28163E-02 -8.50024E-02 -1.01744E-01 -1.11214E-01 -1.22980E-01 -1.37215E-01 -1.51456E-01 -1.66147E-01
  -1.81712E-01 -1.97713E-01 -2.11373E-01 -2.18174E-01 -2.13240E-01 -1.94170E-01 -1.61462E-01 -1.17945E-01 -6.58662E-02 -7.42219E-03
   5.62619E-02  1.22850E-01  1.87197E-01  2.40665E-01  2.73502E-01  2.79700E-01  2.57993E-01  2.13192E-01  1.54626E-01  9.21053E-02
   3.33044E-02 -1.79196E-02 -6.21280E-02 -1.00506E-01 -1.36835E-01 -1.71743E-01 -2.05917E-01 -2.38292E-01 -2.66942E-01 -2.89140E-01
  -3.00231E-01 -2.92268E-01 -2.61656E-01 -2.13095E-01 -1.49621E-01 -7.72592E-02 -4.74624E-03  6.51643E-02  1.32404E-01  1.94715E-01
   2.39726E-01  2.58747E-01  2.44964E-01  1.89001E-01  1.03172E-01  6.09550E-03 -8.31199E-02 -1.43527E-01 -1.77631E-01 -1.84910E-01
  -1.68618E-01 -1.38271E-01 -8.83332E-02 -1.30553E-02  8.50528E-02  1.90674E-01  2.85243E-01  3.50966E-01  3.72481E-01  3.50910E-01
   2.94486E-01  2.15243E-01  1.29635E-01  4.87691E-02 -1.67590E-02 -6.02677E-02 -8.77154E-02 -1.01937E-01 -1.05496E-01 -9.60235E-02
  -6.60706E-02 -1.09870E-02  6.91460E-02  1.60546E-01  2.44396E-01  3.04943E-01  3.32708E-01  3.33951E-01  3.21097E-01  3.03358E-01
   2.92467E-01  2.84766E-01  2.81980E-01  2.79696E-01  2.76755E-01  2.71698E-01  2.63005E-01  2.48306E-01  2.25618E-01  1.92959E-01
   1.46923E-01  8.58594E-02  1.08064E-02 -7.55105E-02 -1.65036E-01 -2.45814E-01 -3.10564E-01 -3.63206E-01 -4.15194E-01 -4.77619E-01
  -5.49411E-01 -6.08924E-01 -6.23805E-01 -5.95513E-01 -5.44849E-01 -5.03440E-01 -4.99667E-01 -5.22597E-01 -5.34649E-01 -4.89430E-01
  -3.76525E-01 -2.26421E-01 -7.80738E-02  2.56216E-02  7.83410E-02  9.94416E-02  1.06696E-01  1.24052E-01  1.42650E-01  1.60882E-01
   1.78727E-01  1.96442E-01  2.14470E-01  2.33345E-01  2.53842E-01  2.77167E-01  3.05125E-01  3.40701E-01  3.88710E-01  4.44834E-01
   4.94952E-01  5.13157E-01  4.78870E-01  3.96154E-01  2.95795E-01  1.98040E-01  1.06819E-01  5.83327E-03 -1.30429E-01 -3.07246E-01
  -4.92943E-01 -6.22307E-01 -6.57109E-01 -6.01448E-01 -4.87354E-01 -3.75074E-01 -3.00383E-01 -2.63360E-01 -2.55010E-01 -2.44081E-01
  -2.33274E-01 -2.23334E-01 -2.13880E-01 -2.04047E-01 -1.94278E-01 -1.85134E-01 -1.77028E-01 -1.69821E-01 -1.62608E-01 -1.54051E-01
  -1.44281E-01 -1.33611E-01 -1.22632E-01 -1.11756E-01 -1.00508E-01 -8.92322E-02 -7.79455E-02 -6.75172E-02 -5.82881E-02 -5.01860E-02
  -4.25313E-02 -3.50845E-02 -2.83202E-02 -2.33057E-02 -2.07720E-02 -2.06420E-02 -2.18590E-02 -2.29204E-02 -2.30066E-02 -2.21956E-02
  -2.13438E-02 -2.10092E-02 -2.07356E-02 -1.96810E-02 -1.66437E-02 -1.10704E-02 -2.92906E-03  8.29885E-03  2.36355E-02  4.35058E-02
   6.61723E-02  8.89772E-02  1.12465E-01  1.40113E-01  1.74902E-01  2.14483E-01  2.49902E-01  2.71812E-01  2.74876E-01  2.60901E-01
   2.38153E-01  2.13211E-01  1.86451E-01  1.51683E-01  1.04592E-01  4.98387E-02 -4.01025E-03 -4.51960E-02 -6.78302E-02 -7.63463E-02
  -7.83599E-02 -8.10282E-02 -8.59107E-02 -9.02887E-02 -9.37193E-02 -9.62263E-02 -9.87554E-02 -1.02271E-01 -1.06255E-01 -1.08992E-01
  -1.08178E-01 -1.02249E-01 -9.18888E-02 -7.90344E-02 -6.35136E-02 -4.47347E-02 -2.28620E-02  3.50049E-03  3.39279E-02  6.63647E-02
   9.67965E-02  1.23071E-01  1.45861E-01  1.62177E-01  1.74364E-01  1.82936E-01  1.87617E-01  1.91557E-01  1.91862E-01  1.89993E-01
   1.83539E-01  1.67518E-01  1.42235E-01  1.05314E-01  5.97298E-02  8.51102E-03 -4.32639E-02 -8.68202E-02 -1.18004E-01 -1.31203E-01
  -1.26102E-01 -1.04373E-01 -6.84382E-02 -2.13384E-02  3.59502E-02  1.02464E-01  1.75597E-01  2.49009E-01  3.11563E-01  3.53117E-01
   3.68007E-01  3.56315E-01  3.28228E-01  2.94765E-01  2.65562E-01  2.46742E-01  2.36641E-01  2.32802E-01  2.31405E-01  2.29205E-01
   2.25634E-01  2.19843E-01  2.11841E-01  2.01746E-01  1.89586E-01  1.75809E-01  1.60235E-01  1.43116E-01  1.24065E-01  1.02251E-01
   7.65793E-02  4.61355E-02  1.05894E-02 -2.92339E-02 -7.22131E-02 -1.16549E-01 -1.61130E-01 -2.03538E-01 -2.41219E-01 -2.70624E-01
  -2.87018E-01 -2.88015E-01 -2.72127E-01 -2.40630E-01 -1.97359E-01 -1.46578E-01 -9.46515E-02 -4.74563E-02 -1.25089E-02  4.31484E-03
   5.66748E-04 -2.12295E-02 -5.25160E-02 -8.97601E-02 -1.41585E-01 -2.23100E-01 -3.45036E-01 -4.93659E-01 -6.29755E-01 -7.18386E-01
  -7.61178E-01 -7.82452E-01 -8.13762E-01 -8.64604E-01 -9.03724E-01 -8.74027E-01 -7.35722E-01 -5.16532E-01 -2.76356E-01 -8.26282E-02
   2.23225E-02  5.23601E-02  4.48260E-02  3.23223E-02  3.54170E-02  3.90079E-02  4.10328E-02  4.12691E-02  3.99687E-02  3.74463E-02
   3.40511E-02  3.02333E-02  2.64733E-02  2.33591E-02  2.14912E-02  2.13855E-02  2.34207E-02  2.75776E-02  3.34666E-02  4.05645E-02
   4.80889E-02  5.55936E-02  6.27097E-02  6.92244E-02  7.51261E-02  8.02672E-02  8.47042E-02  8.85651E-02  9.20534E-02  9.53091E-02
   9.84021E-02  1.01272E-01  1.03922E-01  1.06467E-01  1.09031E-01  1.11670E-01  1.14290E-01  1.16610E-01  1.18459E-01  1.19825E-01
   1.20849E-01  1.21621E-01  1.22044E-01  1.21766E-01  1.20439E-01  1.17791E-01  1.13889E-01  1.08968E-01  1.03347E-01  9.72810E-02
   9.08158E-02  8.39676E-02  7.66401E-02  6.89218E-02  6.10039E-02  5.31411E-02  4.55789E-02  3.85174E-02  3.19619E-02  2.58605E-02
   2.01404E-02  1.47627E-02  9.76238E-03  5.18773E-03  1.06527E-03 -2.62649E-03 -5.99019E-03 -8.99484E-03 -1.16004E-02 -1.36739E-02
  -1.50863E-02 -1.57571E-02 -1.55932E-02 -1.46013E-02 -1.28331E-02 -1.03951E-02 -7.45448E-03 -4.06018E-03 -1.27361E-04  4.34187E-03
   9.30126E-03  1.45681E-02  1.99372E-02  2.53953E-02  3.12047E-02  3.78146E-02  4.55727E-02  5.45249E-02  6.44471E-02  7.49799E-02
   8.59313E-02  9.72290E-02  1.08839E-01  1.20589E-01  1.32091E-01  1.42912E-01  1.52697E-01  1.61209E-01  1.68289E-01  1.73672E-01
   1.77048E-01  1.78172E-01  1.76961E-01  1.73662E-01  1.68661E-01  1.62287E-01  1.54721E-01  1.45973E-01  1.36046E-01  1.25141E-01
   1.13675E-01  1.02170E-01  9.10394E-02  8.05262E-02  7.06668E-02  6.14432E-02  5.28363E-02  4.49774E-02  3.80214E-02  3.20888E-02
   2.72303E-02  2.34452E-02  2.06910E-02  1.90192E-02  1.84694E-02  1.91015E-02  2.09937E-02  2.40263E-02  2.79869E-02  3.25258E-02
   3.73389E-02  4.21812E-02  4.69786E-02  5.17374E-02  5.63518E-02  6.05682E-02  6.40994E-02  6.67770E-02  6.86302E-02  6.97851E-02
   7.04167E-02  7.05716E-02  7.01729E-02  6.90657E-02  6.71585E-02  6.45126E-02  6.12736E-02  5.76827E-02  5.38729E-02  4.99658E-02
   4.60360E-02  4.20790E-02  3.81847E-02  3.43611E-02  3.05490E-02  2.67232E-02  2.27960E-02  1.87601E-02  1.45639E-02  1.01716E-02
   5.56263E-03  6.14370E-04 -4.88917E-03 -1.12804E-02 -1.88861E-02 -2.79505E-02 -3.85226E-02 -5.04877E-02 -6.36569E-02 -7.79236E-02
  -9.32227E-02 -1.09500E-01 -1.26611E-01 -1.44181E-01 -1.61584E-01 -1.78033E-01 -1.92888E-01 -2.05767E-01 -2.16467E-01 -2.24885E-01
  -2.30908E-01 -2.34441E-01 -2.35508E-01 -2.34215E-01 -2.30901E-01 -2.25929E-01 -2.19590E-01 -2.12114E-01 -2.03771E-01 -1.94779E-01
  -1.85354E-01 -1.75663E-01 -1.65740E-01 -1.55481E-01 -1.44736E-01 -1.33464E-01 -1.21818E-01 -1.10016E-01 -9.83684E-02 -8.70929E-02
  -7.62706E-02 -6.59640E-02 -5.61796E-02 -4.69837E-02 -3.84208E-02 -3.04822E-02 -2.32245E-02 -1.65968E-02 -1.05575E-02 -5.11186E-03
  -2.72692E-04  3.90635E-03  7.51991E-03  1.06179E-02  1.32932E-02  1.57212E-02  1.79497E-02  1.99923E-02  2.19417E-02  2.37706E-02
   2.55128E-02  2.71883E-02  2.88120E-02  3.04470E-02  3.20201E-02  3.34544E-02  3.45957E-02  3.53022E-02  3.56244E-02  3.56756E-02
   3.56326E-02  3.56527E-02  3.57712E-02  3.59169E-02  3.59245E-02  3.57387E-02  3.54474E-02  3.51890E-02  3.50579E-02  3.49623E-02
   3.47513E-02  3.42577E-02  3.33993E-02  3.23957E-02  3.16153E-02  3.12470E-02  3.12917E-02  3.15599E-02  3.17786E-02  3.18606E-02
   3.18814E-02  3.20734E-02  3.26331E-02  3.35303E-02  3.46379E-02  3.57666E-02  3.66992E-02  3.73679E-02  3.77991E-02  3.81601E-02
   3.85217E-02  3.88850E-02  3.91986E-02  3.93671E-02  3.94418E-02  3.95689E-02  4.00114E-02  4.09355E-02  4.22660E-02  4.37461E-02
   4.50398E-02  4.59634E-02  4.66582E-02  4.73380E-02  4.81769E-02  4.89992E-02  4.95119E-02  4.95556E-02  4.91628E-02  4.86123E-02
   4.82442E-02  4.81468E-02  4.82705E-02  4.84458E-02  4.85661E-02  4.86758E-02  4.88306E-02  4.91268E-02  4.95451E-02  5.00287E-02
   5.06560E-02  5.15100E-02  5.26452E-02  5.40342E-02  5.55815E-02  5.71828E-02  5.88628E-02  6.07170E-02  6.28646E-02  6.53933E-02
   6.82048E-02  7.10529E-02  7.37430E-02  7.61631E-02
 NY background values follow
     4.100E-02    4.122E-02    4.145E-02    4.167E-02    4.189E-02    4.211E-02    4.233E-02    4.255E-02    4.277E-02    4.299E-02
     4.322E-02    4.344E-02    4.366E-02    4.388E-02    4.410E-02    4.432E-02    4.454E-02    4.476E-02    4.498E-02    4.520E-02
     4.542E-02    4.564E-02    4.586E-02    4.608E-02    4.629E-02    4.651E-02    4.673E-02    4.694E-02    4.716E-02    4.738E-02
     4.759E-02    4.780E-02    4.802E-02    4.823E-02    4.844E-02    4.866E-02    4.887E-02    4.908E-02    4.929E-02    4.950E-02
     4.970E-02    4.991E-02    5.012E-02    5.032E-02    5.053E-02    5.073E-02    5.094E-02    5.114E-02    5.134E-02    5.154E-02
     5.174E-02    5.194E-02    5.213E-02    5.233E-02    5.253E-02    5.272E-02    5.292E-02    5.311E-02    5.330E-02    5.349E-02
     5.368E-02    5.387E-02    5.406E-02    5.424E-02    5.443E-02    5.462E-02    5.480E-02    5.498E-02    5.516E-02    5.535E-02
