 
 $NMID
 ID=''
 FMTDAT='(2E13.5)'
 TRAMP=   1.00000E+0
 VOLUME=   1.00000E+0
 $END
  -2.14959E+4   8.74683E+3
  -5.95522E+4   5.77288E+3
  -5.75165E+4   1.58711E+4
  -5.29826E+4   1.43120E+4
  -5.53399E+4   1.29879E+4
  -5.47734E+4   1.52561E+4
  -5.28569E+4   1.39050E+4
  -5.39495E+4   1.28811E+4
  -5.36197E+4   1.42336E+4
  -5.23620E+4   1.33819E+4
  -5.29174E+4   1.27105E+4
  -5.25206E+4   1.36984E+4
  -5.15063E+4   1.33230E+4
  -5.20409E+4   1.26702E+4
  -5.15219E+4   1.33573E+4
  -5.06292E+4   1.29229E+4
  -5.07974E+4   1.26348E+4
  -5.03999E+4   1.30089E+4
  -4.95252E+4   1.28818E+4
  -4.96423E+4   1.24755E+4
  -4.91568E+4   1.27845E+4
  -4.84342E+4   1.27849E+4
  -4.84754E+4   1.24934E+4
  -4.80930E+4   1.26325E+4
  -4.74554E+4   1.24282E+4
  -4.73012E+4   1.22377E+4
  -4.71401E+4   1.23855E+4
  -4.65252E+4   1.18806E+4
  -4.63652E+4   1.15496E+4
  -4.60814E+4   1.15504E+4
  -4.56693E+4   1.14178E+4
  -4.54710E+4   1.12388E+4
  -4.52571E+4   1.10745E+4
  -4.47998E+4   1.07728E+4
  -4.45623E+4   1.06458E+4
  -4.42348E+4   1.06917E+4
  -4.38328E+4   1.05133E+4
  -4.35520E+4   1.03716E+4
  -4.32762E+4   1.04395E+4
  -4.29479E+4   1.03729E+4
  -4.27692E+4   1.01545E+4
  -4.25305E+4   9.99754E+3
  -4.21243E+4   9.83201E+3
  -4.18677E+4   9.66727E+3
  -4.15365E+4   9.61705E+3
  -4.12089E+4   9.53907E+3
  -4.09868E+4   9.36098E+3
  -4.06743E+4   9.24387E+3
  -4.03405E+4   9.08072E+3
  -4.00373E+4   8.91265E+3
  -3.97097E+4   8.80023E+3
  -3.94066E+4   8.61245E+3
  -3.90211E+4   8.56125E+3
  -3.87142E+4   8.50748E+3
  -3.84354E+4   8.41516E+3
  -3.81301E+4   8.19184E+3
  -3.77301E+4   8.10709E+3
  -3.73783E+4   8.02989E+3
  -3.70371E+4   7.79874E+3
  -3.67259E+4   7.71884E+3
  -3.62255E+4   7.61642E+3
  -3.58590E+4   7.56354E+3
  -3.55605E+4   7.43752E+3
  -3.51933E+4   7.32776E+3
  -3.49014E+4   7.18686E+3
  -3.45965E+4   7.14209E+3
  -3.42748E+4   7.04450E+3
  -3.39816E+4   6.89849E+3
  -3.35751E+4   6.80118E+3
  -3.32734E+4   6.71515E+3
  -3.29378E+4   6.62393E+3
  -3.26429E+4   6.52844E+3
  -3.23247E+4   6.43293E+3
  -3.19848E+4   6.31530E+3
  -3.16684E+4   6.24922E+3
  -3.13310E+4   6.24205E+3
  -3.09735E+4   6.06176E+3
  -3.06728E+4   6.05066E+3
  -3.03942E+4   5.98279E+3
  -3.00126E+4   5.95077E+3
  -2.97138E+4   5.86466E+3
  -2.94822E+4   5.77199E+3
  -2.91798E+4   5.59751E+3
  -2.88474E+4   5.61743E+3
  -2.85902E+4   5.55485E+3
  -2.83840E+4   5.44217E+3
  -2.80118E+4   5.30108E+3
  -2.77609E+4   5.26824E+3
  -2.74363E+4   5.08713E+3
  -2.72199E+4   5.10955E+3
  -2.69445E+4   4.97968E+3
  -2.66131E+4   4.99791E+3
  -2.63211E+4   4.85011E+3
  -2.61143E+4   4.79825E+3
  -2.58704E+4   4.73652E+3
  -2.55719E+4   4.67180E+3
  -2.53277E+4   4.55406E+3
  -2.50843E+4   4.52039E+3
  -2.49133E+4   4.37403E+3
  -2.46516E+4   4.28178E+3
  -2.43854E+4   4.20238E+3
  -2.41002E+4   4.17763E+3
  -2.38579E+4   4.12272E+3
  -2.36757E+4   4.01810E+3
  -2.33366E+4   3.92039E+3
  -2.32148E+4   3.84058E+3
  -2.29835E+4   3.71651E+3
  -2.27562E+4   3.67351E+3
  -2.25244E+4   3.49498E+3
  -2.22754E+4   3.40706E+3
  -2.19742E+4   3.27294E+3
  -2.17798E+4   3.28891E+3
  -2.16432E+4   3.24032E+3
  -2.14012E+4   3.12276E+3
  -2.12118E+4   2.98322E+3
  -2.10139E+4   2.79243E+3
  -2.07542E+4   2.79136E+3
  -2.05067E+4   2.65553E+3
  -2.03346E+4   2.55726E+3
  -2.01493E+4   2.39687E+3
  -1.98916E+4   2.32232E+3
  -1.96641E+4   2.19545E+3
  -1.95683E+4   2.10437E+3
  -1.92353E+4   1.96718E+3
  -1.90860E+4   1.82782E+3
  -1.89175E+4   1.73698E+3
  -1.87289E+4   1.67015E+3
  -1.86083E+4   1.55309E+3
  -1.83634E+4   1.41044E+3
  -1.81916E+4   1.40214E+3
  -1.79700E+4   1.11494E+3
  -1.77405E+4   1.09187E+3
  -1.75930E+4   1.00006E+3
  -1.74060E+4   9.43313E+2
  -1.72958E+4   8.31965E+2
  -1.70884E+4   7.65326E+2
  -1.68671E+4   6.16935E+2
  -1.67180E+4   5.25692E+2
  -1.65179E+4   4.20755E+2
  -1.63900E+4   3.80943E+2
  -1.62141E+4   2.50770E+2
  -1.60404E+4   2.11157E+2
  -1.58920E+4   3.85836E+1
  -1.57484E+4   3.92180E+0
  -1.56166E+4  -1.22551E+2
  -1.54228E+4  -1.37049E+2
  -1.52148E+4  -2.84640E+2
  -1.51766E+4  -3.09918E+2
  -1.50282E+4  -4.09894E+2
  -1.48491E+4  -4.61585E+2
  -1.47064E+4  -5.43201E+2
  -1.45820E+4  -6.10190E+2
  -1.44457E+4  -6.65666E+2
  -1.42775E+4  -6.82843E+2
  -1.42133E+4  -7.79580E+2
  -1.41279E+4  -8.33063E+2
  -1.39919E+4  -9.06350E+2
  -1.37712E+4  -9.29081E+2
  -1.37039E+4  -9.50021E+2
  -1.36308E+4  -1.09050E+3
  -1.34445E+4  -1.07470E+3
  -1.33240E+4  -1.17298E+3
  -1.32144E+4  -1.14880E+3
  -1.30924E+4  -1.28754E+3
  -1.30122E+4  -1.31279E+3
  -1.28626E+4  -1.34369E+3
  -1.28353E+4  -1.44228E+3
  -1.27142E+4  -1.42661E+3
  -1.25587E+4  -1.44127E+3
  -1.26012E+4  -1.49599E+3
  -1.23321E+4  -1.56125E+3
  -1.22955E+4  -1.58008E+3
  -1.21848E+4  -1.62354E+3
  -1.20955E+4  -1.63187E+3
  -1.20035E+4  -1.68266E+3
  -1.18800E+4  -1.62305E+3
  -1.17727E+4  -1.70677E+3
  -1.17317E+4  -1.71819E+3
  -1.16428E+4  -1.71049E+3
  -1.15539E+4  -1.74420E+3
  -1.14558E+4  -1.79485E+3
  -1.13685E+4  -1.83472E+3
  -1.13058E+4  -1.80148E+3
  -1.11600E+4  -1.87786E+3
  -1.11503E+4  -1.88650E+3
  -1.09823E+4  -1.90866E+3
  -1.09085E+4  -1.91368E+3
  -1.08670E+4  -1.93844E+3
  -1.07074E+4  -1.99188E+3
  -1.06851E+4  -1.99434E+3
  -1.06704E+4  -2.02731E+3
  -1.04952E+4  -2.01297E+3
  -1.04755E+4  -1.98452E+3
  -1.03367E+4  -2.01477E+3
  -1.03491E+4  -2.10287E+3
  -1.01498E+4  -2.01715E+3
  -1.00730E+4  -2.09642E+3
  -1.01407E+4  -2.12041E+3
  -9.99707E+3  -2.09769E+3
  -9.93280E+3  -2.06804E+3
  -9.85762E+3  -2.14905E+3
  -9.71784E+3  -2.17671E+3
  -9.71916E+3  -2.12497E+3
  -9.62453E+3  -2.10461E+3
  -9.56416E+3  -2.09130E+3
  -9.42122E+3  -2.10981E+3
  -9.40881E+3  -2.16825E+3
  -9.31958E+3  -2.15087E+3
  -9.26201E+3  -2.13895E+3
  -9.26724E+3  -2.13528E+3
  -9.09145E+3  -2.14165E+3
  -9.07318E+3  -2.13287E+3
  -8.96082E+3  -2.08605E+3
  -8.91864E+3  -2.11072E+3
  -8.86170E+3  -2.07154E+3
  -8.80465E+3  -2.11124E+3
  -8.72588E+3  -2.11002E+3
  -8.66657E+3  -2.06788E+3
  -8.64001E+3  -2.07098E+3
  -8.55135E+3  -2.06965E+3
  -8.47736E+3  -2.07349E+3
  -8.40593E+3  -2.01342E+3
  -8.36458E+3  -1.99121E+3
  -8.28169E+3  -1.98218E+3
  -8.21803E+3  -2.04112E+3
  -8.17545E+3  -2.07189E+3
  -8.02414E+3  -2.03325E+3
  -7.93136E+3  -1.97779E+3
  -8.04278E+3  -1.98263E+3
  -7.95043E+3  -2.04995E+3
  -7.88359E+3  -2.03337E+3
  -7.81029E+3  -1.98872E+3
  -7.75580E+3  -1.95399E+3
  -7.70577E+3  -1.87991E+3
  -7.62415E+3  -1.95268E+3
  -7.55027E+3  -1.86871E+3
  -7.52764E+3  -1.93433E+3
  -7.47968E+3  -1.91945E+3
  -7.41520E+3  -1.91161E+3
  -7.34181E+3  -1.90538E+3
  -7.24123E+3  -1.88282E+3
  -7.28225E+3  -1.84497E+3
  -7.20054E+3  -1.91415E+3
  -7.13720E+3  -1.86350E+3
  -7.13113E+3  -1.85538E+3
  -7.02001E+3  -1.81748E+3
  -6.99922E+3  -1.82144E+3
  -6.96120E+3  -1.79190E+3
  -6.87468E+3  -1.87100E+3
  -6.87596E+3  -1.82031E+3
  -6.76203E+3  -1.78975E+3
  -6.76405E+3  -1.75856E+3
  -6.66122E+3  -1.72582E+3
  -6.60292E+3  -1.75252E+3
  -6.54386E+3  -1.83475E+3
  -6.54027E+3  -1.71269E+3
  -6.42803E+3  -1.71373E+3
  -6.41010E+3  -1.70138E+3
  -6.33943E+3  -1.70798E+3
  -6.28123E+3  -1.69864E+3
  -6.25864E+3  -1.66530E+3
  -6.15270E+3  -1.69483E+3
  -6.11260E+3  -1.69824E+3
  -6.07230E+3  -1.74724E+3
  -6.03448E+3  -1.68774E+3
  -5.93865E+3  -1.67582E+3
  -6.01189E+3  -1.72434E+3
  -5.87183E+3  -1.65547E+3
  -5.79677E+3  -1.67687E+3
  -5.77317E+3  -1.64051E+3
  -5.72655E+3  -1.64809E+3
  -5.60985E+3  -1.58878E+3
  -5.63084E+3  -1.63091E+3
  -5.61084E+3  -1.66549E+3
  -5.62042E+3  -1.64143E+3
  -5.51317E+3  -1.66304E+3
  -5.43536E+3  -1.64236E+3
  -5.38932E+3  -1.63807E+3
  -5.39830E+3  -1.61703E+3
  -5.28252E+3  -1.61281E+3
  -5.32162E+3  -1.60201E+3
  -5.26256E+3  -1.63188E+3
  -5.14643E+3  -1.61972E+3
  -5.18357E+3  -1.56054E+3
  -5.12995E+3  -1.60401E+3
  -5.09657E+3  -1.56813E+3
  -5.00807E+3  -1.63071E+3
  -5.00509E+3  -1.57997E+3
  -4.97126E+3  -1.58485E+3
  -4.86869E+3  -1.55833E+3
  -4.84456E+3  -1.55515E+3
  -4.87903E+3  -1.59831E+3
  -4.75570E+3  -1.59324E+3
  -4.78599E+3  -1.57421E+3
  -4.72778E+3  -1.57067E+3
  -4.73168E+3  -1.57088E+3
  -4.67342E+3  -1.54791E+3
  -4.63386E+3  -1.60658E+3
  -4.57782E+3  -1.56098E+3
  -4.55261E+3  -1.57577E+3
  -4.54566E+3  -1.54508E+3
  -4.50655E+3  -1.56020E+3
  -4.44373E+3  -1.55090E+3
  -4.45365E+3  -1.58969E+3
  -4.43132E+3  -1.56241E+3
  -4.39627E+3  -1.51930E+3
  -4.30705E+3  -1.59737E+3
  -4.36352E+3  -1.50389E+3
  -4.23852E+3  -1.53776E+3
  -4.27668E+3  -1.52803E+3
  -4.19615E+3  -1.55057E+3
  -4.18230E+3  -1.57553E+3
  -4.16627E+3  -1.57752E+3
  -4.13035E+3  -1.53609E+3
  -4.13256E+3  -1.56363E+3
  -4.09813E+3  -1.55264E+3
  -4.08226E+3  -1.52759E+3
  -3.99424E+3  -1.58207E+3
  -3.96291E+3  -1.59083E+3
  -3.93914E+3  -1.48748E+3
  -3.95861E+3  -1.52683E+3
  -3.88671E+3  -1.51379E+3
  -3.90602E+3  -1.55600E+3
  -3.89669E+3  -1.51219E+3
  -3.80345E+3  -1.50391E+3
  -3.83915E+3  -1.50856E+3
  -3.80164E+3  -1.44794E+3
  -3.81613E+3  -1.51135E+3
  -3.73008E+3  -1.50842E+3
  -3.69101E+3  -1.50666E+3
  -3.65621E+3  -1.44417E+3
  -3.69582E+3  -1.44442E+3
  -3.62134E+3  -1.46321E+3
  -3.64786E+3  -1.48608E+3
  -3.67187E+3  -1.51464E+3
  -3.59135E+3  -1.49488E+3
  -3.60862E+3  -1.47524E+3
  -3.60203E+3  -1.41206E+3
  -3.53111E+3  -1.46107E+3
  -3.49198E+3  -1.39059E+3
  -3.52056E+3  -1.44171E+3
  -3.54186E+3  -1.45806E+3
  -3.45256E+3  -1.43046E+3
  -3.47860E+3  -1.38210E+3
  -3.42776E+3  -1.43693E+3
  -3.40388E+3  -1.46013E+3
  -3.44720E+3  -1.45626E+3
  -3.33618E+3  -1.38121E+3
  -3.37569E+3  -1.38405E+3
  -3.30460E+3  -1.34957E+3
  -3.29581E+3  -1.37561E+3
  -3.29225E+3  -1.28903E+3
  -3.25205E+3  -1.34427E+3
  -3.33715E+3  -1.33163E+3
  -3.23865E+3  -1.30818E+3
  -3.25484E+3  -1.26790E+3
  -3.20561E+3  -1.25436E+3
  -3.22162E+3  -1.28524E+3
  -3.17885E+3  -1.23761E+3
  -3.23290E+3  -1.31198E+3
  -3.15478E+3  -1.28141E+3
  -3.13929E+3  -1.20130E+3
  -3.10499E+3  -1.25664E+3
  -3.12387E+3  -1.20067E+3
  -3.10134E+3  -1.15402E+3
  -3.14370E+3  -1.16486E+3
  -3.08161E+3  -1.13990E+3
