 LCModel (Version 6.3-1N) Copyright: S.W. Provencher.          Ref.: Magn. Reson. Med. 30:672-679 (1993).                
 Slice_N1@15_24  02-Jun-2023 14:36:51
 27 lines in following concentration table = NCONC+1
    Conc.  %SD /Cr+PCr  Metabolite                                         
 5.94E-07  68% 9.4E-05 Mac                                                 
    0.000 999%   0.000 Cr                                                  
 5.07E-02  16%   8.000 PCr                                                 
 5.89E-02  19%   9.291 Ins                                                 
 5.54E-02  15%   8.746 NAA                                                 
 3.34E-02  31%   5.271 Tau                                                 
 5.70E-03  69%   0.899 PCho                                                
    0.000 999%   0.000 GPC                                                 
 8.38E-02  15%  13.224 Glu                                                 
 3.25E-02  26%   5.124 Gln                                                 
 5.36E-03 175%   0.846 Ala                                                 
 7.73E-03 210%   1.220 Asc                                                 
 6.00E-03  65%   0.947 Asp                                                 
 4.30E-03  54%   0.678 GABA                                                
 3.73E-03  64%   0.588 Glc                                                 
 1.27E-02  38%   1.997 GSH                                                 
    0.000 999%   0.000 Lac                                                 
    0.000 999%   0.000 NAAG                                                
 4.55E-02  36%   7.176 PE                                                  
 5.70E-03  69%   0.899 GPC+PCho                                            
 5.54E-02  15%   8.746 NAA+NAAG                                            
    0.116  13%  18.349 Glu+Gln                                             
 5.07E-02  16%   8.000 Cr+PCr                                              
 5.54E-02  15%   8.746 NAA+NAAG                                            
 5.07E-02  16%   8.000 Cr+PCr                                              
    0.116  13%  18.349 Glu+Gln                                             
   6 lines in following misc. output table
  FWHM = 0.052 ppm    S/N =   1                                            
  Data shift =-0.047 ppm                                                   
  Ph:  47 deg       9.6 deg/ppm                                            
  alphaB,S = 4.3E-01,   4.0E+01                                            
   18 spline knots.   Ns = 9(1)                                            
  ( 7) 5 infls.   ( 2) 2 extrs.                                            
  654 points on ppm-axis = NY
      4.000000     3.994181     3.988363     3.982544     3.976726     3.970907     3.965088     3.959270     3.953451     3.947633
      3.941814     3.935995     3.930177     3.924358     3.918540     3.912721     3.906902     3.901084     3.895265     3.889446
      3.883628     3.877809     3.871991     3.866172     3.860353     3.854535     3.848716     3.842898     3.837079     3.831260
      3.825442     3.819623     3.813805     3.807986     3.802167     3.796349     3.790530     3.784712     3.778893     3.773074
      3.767256     3.761437     3.755619     3.749800     3.743981     3.738163     3.732344     3.726526     3.720707     3.714888
      3.709070     3.703251     3.697433     3.691614     3.685795     3.679977     3.674158     3.668339     3.662521     3.656702
      3.650884     3.645065     3.639246     3.633428     3.627609     3.621791     3.615972     3.610153     3.604335     3.598516
      3.592698     3.586879     3.581060     3.575242     3.569423     3.563605     3.557786     3.551967     3.546149     3.540330
      3.534512     3.528693     3.522874     3.517056     3.511237     3.505419     3.499600     3.493781     3.487963     3.482144
      3.476326     3.470507     3.464688     3.458870     3.453051     3.447232     3.441414     3.435595     3.429777     3.423958
      3.418139     3.412321     3.406502     3.400684     3.394865     3.389046     3.383228     3.377409     3.371591     3.365772
      3.359953     3.354135     3.348316     3.342498     3.336679     3.330860     3.325042     3.319223     3.313405     3.307586
      3.301767     3.295949     3.290130     3.284312     3.278493     3.272674     3.266856     3.261037     3.255219     3.249400
      3.243581     3.237763     3.231944     3.226125     3.220307     3.214488     3.208670     3.202851     3.197032     3.191214
      3.185395     3.179577     3.173758     3.167939     3.162121     3.156302     3.150484     3.144665     3.138846     3.133028
      3.127209     3.121391     3.115572     3.109753     3.103935     3.098116     3.092298     3.086479     3.080660     3.074842
      3.069023     3.063205     3.057386     3.051567     3.045749     3.039930     3.034111     3.028293     3.022474     3.016656
      3.010837     3.005018     2.999200     2.993381     2.987563     2.981744     2.975925     2.970107     2.964288     2.958470
      2.952651     2.946832     2.941014     2.935195     2.929377     2.923558     2.917739     2.911921     2.906102     2.900284
      2.894465     2.888646     2.882828     2.877009     2.871191     2.865372     2.859553     2.853735     2.847916     2.842098
      2.836279     2.830460     2.824642     2.818823     2.813004     2.807186     2.801367     2.795549     2.789730     2.783911
      2.778093     2.772274     2.766456     2.760637     2.754818     2.749000     2.743181     2.737363     2.731544     2.725725
      2.719907     2.714088     2.708270     2.702451     2.696632     2.690814     2.684995     2.679177     2.673358     2.667539
      2.661721     2.655902     2.650084     2.644265     2.638446     2.632628     2.626809     2.620991     2.615172     2.609353
      2.603535     2.597716     2.591897     2.586079     2.580260     2.574442     2.568623     2.562804     2.556986     2.551167
      2.545349     2.539530     2.533711     2.527893     2.522074     2.516256     2.510437     2.504618     2.498800     2.492981
      2.487163     2.481344     2.475525     2.469707     2.463888     2.458070     2.452251     2.446432     2.440614     2.434795
      2.428977     2.423158     2.417339     2.411521     2.405702     2.399884     2.394065     2.388246     2.382428     2.376609
      2.370790     2.364972     2.359153     2.353335     2.347516     2.341697     2.335879     2.330060     2.324242     2.318423
      2.312604     2.306786     2.300967     2.295149     2.289330     2.283511     2.277693     2.271874     2.266056     2.260237
      2.254418     2.248600     2.242781     2.236963     2.231144     2.225325     2.219507     2.213688     2.207870     2.202051
      2.196232     2.190414     2.184595     2.178777     2.172958     2.167139     2.161321     2.155502     2.149683     2.143865
      2.138046     2.132228     2.126409     2.120590     2.114772     2.108953     2.103135     2.097316     2.091497     2.085679
      2.079860     2.074042     2.068223     2.062404     2.056586     2.050767     2.044949     2.039130     2.033311     2.027493
      2.021674     2.015856     2.010037     2.004218     1.998400     1.992581     1.986763     1.980944     1.975126     1.969307
      1.963489     1.957670     1.951852     1.946033     1.940215     1.934397     1.928578     1.922760     1.916941     1.911123
      1.905304     1.899486     1.893667     1.887849     1.882030     1.876212     1.870393     1.864575     1.858756     1.852938
      1.847119     1.841301     1.835482     1.829664     1.823845     1.818027     1.812208     1.806390     1.800571     1.794753
      1.788934     1.783116     1.777297     1.771479     1.765660     1.759842     1.754023     1.748205     1.742386     1.736568
      1.730749     1.724931     1.719113     1.713294     1.707476     1.701657     1.695839     1.690020     1.684202     1.678383
      1.672565     1.666746     1.660928     1.655109     1.649291     1.643472     1.637654     1.631835     1.626017     1.620198
      1.614380     1.608561     1.602743     1.596924     1.591106     1.585287     1.579469     1.573650     1.567832     1.562013
      1.556195     1.550376     1.544558     1.538739     1.532921     1.527102     1.521284     1.515465     1.509647     1.503829
      1.498010     1.492192     1.486373     1.480555     1.474736     1.468918     1.463099     1.457281     1.451462     1.445644
      1.439825     1.434007     1.428188     1.422370     1.416551     1.410733     1.404914     1.399096     1.393277     1.387459
      1.381640     1.375822     1.370003     1.364185     1.358366     1.352548     1.346729     1.340911     1.335092     1.329274
      1.323455     1.317637     1.311818     1.306000     1.300182     1.294363     1.288545     1.282726     1.276908     1.271089
      1.265271     1.259452     1.253634     1.247815     1.241997     1.236178     1.230360     1.224541     1.218723     1.212904
      1.207086     1.201267     1.195449     1.189630     1.183812     1.177993     1.172175     1.166356     1.160538     1.154719
      1.148901     1.143082     1.137264     1.131445     1.125627     1.119808     1.113990     1.108171     1.102353     1.096534
      1.090716     1.084898     1.079079     1.073261     1.067442     1.061624     1.055805     1.049987     1.044168     1.038350
      1.032531     1.026713     1.020894     1.015076     1.009257     1.003439     0.997620     0.991802     0.985983     0.980165
      0.974346     0.968528     0.962709     0.956891     0.951072     0.945254     0.939435     0.933617     0.927798     0.921980
      0.916161     0.910343     0.904524     0.898706     0.892887     0.887069     0.881251     0.875432     0.869614     0.863795
      0.857977     0.852158     0.846340     0.840521     0.834703     0.828884     0.823066     0.817247     0.811429     0.805610
      0.799792     0.793973     0.788155     0.782336     0.776518     0.770699     0.764881     0.759062     0.753244     0.747425
      0.741607     0.735788     0.729970     0.724151     0.718333     0.712514     0.706696     0.700877     0.695059     0.689240
      0.683422     0.677603     0.671785     0.665967     0.660148     0.654330     0.648511     0.642693     0.636874     0.631056
      0.625237     0.619419     0.613600     0.607782     0.601963     0.596145     0.590326     0.584508     0.578689     0.572871
      0.567052     0.561234     0.555415     0.549597     0.543778     0.537960     0.532141     0.526323     0.520504     0.514686
      0.508867     0.503049     0.497230     0.491412     0.485593     0.479775     0.473956     0.468138     0.462319     0.456501
      0.450682     0.444864     0.439045     0.433227     0.427408     0.421590     0.415771     0.409953     0.404134     0.398316
      0.392497     0.386679     0.380860     0.375042     0.369223     0.363405     0.357586     0.351767     0.345949     0.340130
      0.334312     0.328493     0.322675     0.316856     0.311038     0.305219     0.299401     0.293582     0.287764     0.281945
      0.276127     0.270308     0.264490     0.258671     0.252853     0.247034     0.241216     0.235397     0.229579     0.223760
      0.217942     0.212123     0.206305     0.200486
 NY phased data points follow
   3.10404E-01 -1.00274E-01  1.58625E-01  1.13160E-01  2.82496E-01  2.65401E-01 -3.10508E-02  3.44035E-01  7.47740E-02 -3.45262E-02
  -1.43603E-01  4.08682E-01  6.89380E-02  6.77624E-02  2.76961E-01 -8.49605E-03  2.15754E-01 -1.83300E-01 -5.29114E-02 -3.46791E-01
  -2.86813E-01  2.91179E-01 -3.22235E-01  6.90284E-02 -4.84304E-02 -3.85068E-01  3.65364E-02 -5.58956E-01 -1.36664E-02 -2.33218E-01
  -7.00450E-01 -4.03322E-01  7.71485E-02  4.49212E-02 -3.62581E-01  1.69213E-01 -2.15070E-01 -8.64602E-02 -1.06816E-01  2.68773E-01
   3.38067E-01  2.11147E-01  3.97037E-01  3.25787E-01  5.17593E-01  3.68370E-01  5.69995E-01  4.21481E-02  3.23063E-01  3.19474E-01
   6.95053E-02  6.22818E-02 -2.97354E-02 -5.09001E-03 -1.09695E-01 -5.87480E-02 -2.15169E-01  2.15220E-01 -3.77666E-01 -2.01440E-01
  -9.47442E-02 -1.09512E-01  8.30216E-02 -3.02478E-01 -4.30724E-02 -5.20677E-01 -2.72041E-01 -4.59843E-02  7.86417E-02  1.97036E-01
  -3.26027E-02  1.35294E-01  1.02469E-01  7.89904E-02 -5.88626E-02 -3.01693E-01 -3.61789E-01 -4.39922E-02 -2.25486E-01 -3.70400E-01
  -3.28400E-01 -1.09883E-01  8.60826E-02  8.66624E-02  2.08720E-01 -2.39435E-02  1.00588E-01  4.25124E-02  1.89730E-01  2.42909E-01
   9.59410E-02  2.45518E-01  5.27118E-02  1.12043E-01 -3.26566E-02 -2.07749E-01  5.27101E-02  1.96979E-01 -1.07369E-01 -1.51711E-01
   9.44005E-02  3.62327E-01  1.78157E-01  2.23213E-02  2.23992E-01  9.86093E-02  4.00388E-01 -1.31671E-02 -7.78389E-02  2.73905E-01
   1.25583E-02  3.49190E-01  2.46132E-01  1.80507E-01  6.02645E-01  5.63922E-01  1.02162E-01  1.34212E-01  3.66240E-01  1.12522E-01
   1.58267E-01  2.01384E-01 -2.14392E-02  1.81028E-02 -1.44110E-01 -1.87997E-01  2.08862E-02 -2.70045E-02 -2.71178E-02 -3.01771E-01
  -5.93931E-01 -4.55217E-01 -2.87424E-01 -4.60135E-01 -6.44892E-01 -3.29068E-01 -5.15024E-01 -7.13303E-01 -2.05494E-01 -3.84263E-01
  -4.34933E-01 -1.12928E-01  2.27600E-01  1.38007E-01 -3.24593E-01  2.04405E-01  2.13237E-01  2.98258E-01  4.00097E-01  1.68362E-01
   2.56551E-01 -1.43356E-01 -1.27628E-01  2.00883E-01  1.03249E-02 -1.54766E-01  2.94198E-01  3.92733E-01  5.14321E-01  3.43259E-01
   1.92941E-01  5.30953E-01  4.66839E-01  5.78985E-01  3.85194E-01  2.96065E-01  2.06496E-01  2.96855E-01  1.04867E-01 -1.81704E-01
   1.98688E-02 -3.37197E-01 -5.42500E-01 -6.78636E-01 -4.14647E-01 -4.01044E-01 -6.37861E-01 -2.53282E-01 -4.47569E-01 -2.28285E-01
   1.62609E-01 -2.37847E-02  8.93897E-02 -1.37984E-01 -2.96652E-02  3.16229E-01  3.20380E-02 -5.29432E-02  9.38101E-02  2.00300E-02
   1.59753E-01  2.38750E-01  1.20374E-02 -1.30272E-02 -1.50652E-01 -4.04981E-02 -1.89985E-01 -1.16975E-01 -6.67449E-02 -1.04658E-01
   2.31853E-01 -1.43807E-02 -1.95714E-01 -7.36720E-02  1.75540E-01 -3.16572E-01 -3.61704E-01 -2.07351E-01  1.16120E-01  9.54171E-02
  -4.33115E-01  2.43455E-01  1.14512E-01  4.58693E-02 -1.37944E-01 -6.22462E-02  2.53209E-01 -9.85809E-02 -2.48710E-01 -1.60325E-01
   2.28219E-02 -1.19753E-01  3.51630E-01  1.27980E-01  6.97835E-02  2.90746E-01 -1.30915E-01  3.60127E-01  7.77055E-01  2.60858E-01
   8.60363E-02  4.09617E-01  8.69511E-02  1.34177E-01  3.22058E-01  1.97769E-01 -2.69851E-02 -8.15230E-02 -1.23978E-01 -4.35093E-01
  -1.08438E-01 -3.78983E-01 -3.39896E-01 -1.28797E-01 -3.68426E-01  8.84929E-02 -4.35059E-02  8.09332E-02 -2.00933E-02 -3.54268E-01
   1.49478E-01  1.30068E-01 -7.20310E-02  1.15259E-01  9.25212E-02 -2.59759E-02 -2.49170E-01 -3.09733E-01  1.89570E-01 -1.62064E-01
  -1.53829E-01 -2.13459E-01 -1.59883E-01  5.43636E-01  5.89537E-02 -1.00642E-02 -1.52003E-01  1.49960E-01  2.04104E-01 -2.19949E-01
   1.42424E-01  3.41468E-02  1.82229E-01  2.97236E-01 -1.86710E-01 -2.85147E-01  6.92905E-03 -3.59234E-01 -3.62956E-01 -1.72316E-01
  -2.11520E-01 -1.66469E-02 -1.54292E-01 -1.19722E-01 -1.66335E-01  8.78039E-02  1.33676E-01  7.51988E-02  5.00410E-01  2.93855E-01
   1.84524E-01  6.65168E-02  1.59377E-01  1.46798E-01  1.71349E-01  3.83791E-01 -7.75223E-02 -1.13894E-01 -1.35105E-01  4.89549E-01
   3.15342E-01 -3.45062E-02  3.71485E-01  1.83225E-01  3.48307E-01  3.03754E-01  3.26162E-01  2.04585E-01  3.50818E-01  2.20742E-01
  -3.65717E-02  1.20364E-01  4.16291E-01 -8.94986E-02 -3.62556E-01  1.60811E-01 -4.87073E-01 -1.26577E-01 -2.81396E-01 -5.03623E-01
  -5.16950E-03 -4.62674E-01 -3.19336E-01 -6.32345E-02 -5.09006E-01 -3.02922E-01  4.60763E-02 -2.54800E-01 -5.50151E-02  2.41132E-01
  -1.42046E-01 -4.20054E-01  1.23111E-01 -9.01826E-02 -2.85630E-01 -3.22397E-01 -5.47228E-01 -3.62408E-01 -1.11793E-02 -3.04989E-01
  -1.01452E+00 -4.50000E-01 -3.05571E-01 -4.94673E-01 -4.26903E-01 -6.25392E-01 -4.12689E-01  1.28181E-01  5.64384E-02  1.01386E-01
   3.02907E-02  1.76257E-01  7.38063E-01  7.10085E-01  1.41244E-01  5.94110E-02  5.31740E-01 -1.42704E-02  1.04316E-01  3.29546E-02
  -5.10553E-02  4.36481E-02  2.64621E-01  2.65314E-01  1.07657E-01  1.17239E-01 -2.37264E-01  3.96603E-01  4.09419E-01  5.37532E-01
   3.77726E-01  2.17508E-01 -1.38994E-01 -8.95999E-02  2.84866E-01  9.71757E-02 -1.95706E-01 -3.31893E-01  9.48171E-02 -3.50468E-01
   4.74166E-02  1.31572E-01  1.72833E-01  2.11096E-01  4.42728E-02  6.21590E-03 -5.80924E-03  1.92146E-01  1.21126E-01 -8.76223E-02
  -4.08086E-02  2.69773E-01  8.12442E-02  3.23912E-01 -1.07462E-01  2.59361E-01  9.80662E-02 -1.97681E-01 -7.51152E-02  1.74365E-01
   3.34061E-01  2.91083E-02  3.06704E-01 -2.57695E-01  1.06556E-01 -3.70637E-01 -1.45663E-01 -3.03294E-02 -1.18068E-01  1.00850E-01
  -3.15843E-01  9.32220E-02 -3.18661E-01 -5.27660E-02 -2.18763E-01 -3.87254E-01  5.76249E-02  1.24570E-01 -6.55582E-02 -2.11421E-01
  -6.15394E-02  1.55615E-01 -9.17902E-02 -1.55254E-02  1.92949E-01  1.64944E-01  2.56262E-01 -1.62242E-01 -4.28429E-02  7.75451E-02
   3.93995E-01 -9.62670E-02  5.91633E-02  3.20739E-01 -1.86448E-01  2.69466E-02 -2.99046E-01  9.64792E-03  1.72929E-01 -3.33140E-02
  -3.28058E-02  3.55847E-01  2.01317E-01 -3.86691E-01  8.41042E-02  6.52570E-02 -5.91204E-02  2.20292E-01  1.52683E-01  1.66642E-02
  -1.79545E-01  1.44695E-01  3.61867E-01  2.32486E-02 -6.97831E-02  1.25274E-01 -2.99482E-01 -2.70297E-01  1.19819E-01 -2.40052E-01
   8.12815E-02 -7.36612E-02 -1.26432E-01 -1.01725E-01  3.29720E-02  1.36441E-01  1.86039E-01 -1.18038E-01 -5.93406E-01 -1.32152E-01
  -8.18504E-01 -4.99450E-01 -1.12468E-01 -1.98454E-01 -1.77288E-01 -1.74792E-02 -1.90823E-01 -2.22744E-01  1.25348E-01 -1.81990E-01
   2.67365E-01 -1.65970E-01 -1.03314E-01  4.50233E-02  4.52900E-01  2.29910E-01 -1.11204E-01  2.71907E-01 -3.13828E-01  9.41988E-02
   7.99672E-02 -1.35269E-01 -1.49399E-01 -6.63195E-02  4.13041E-01  2.20284E-01 -1.58405E-01  1.67326E-01 -6.21573E-02  7.79336E-02
   1.31198E-01 -3.31055E-01 -2.59335E-02  3.02868E-01  5.15630E-01  2.69695E-02  5.50986E-02 -5.81714E-02  6.45822E-02  4.75384E-01
   3.78584E-01  3.48218E-01  6.38698E-02 -2.81964E-01 -1.84839E-01  1.03788E-01 -6.92571E-02 -6.44717E-02  6.84398E-02  3.78536E-02
  -5.51660E-01 -3.43544E-01 -2.16665E-02  2.37384E-01  1.35541E-01 -3.62779E-01  7.04428E-02 -2.85193E-01 -2.84471E-01 -1.89441E-01
  -2.94716E-01 -1.35660E-01 -2.08789E-01 -4.64999E-02 -8.05062E-02 -2.14638E-01 -2.69249E-01 -5.63859E-02  8.82860E-02  6.70781E-02
  -2.32635E-01 -4.43197E-01  1.20684E-01  6.78903E-02  3.01302E-01  4.43698E-01 -1.26290E-01  1.52791E-01 -2.60315E-03 -1.29725E-02
   1.40635E-01  1.01839E-01  1.41817E-01  1.31355E-01  1.54709E-01  6.10693E-02  1.15251E-01  3.64771E-01  2.77709E-01 -1.32720E-01
  -7.26678E-02 -1.06966E-01  3.58529E-01  2.10956E-01 -5.14574E-02  1.75066E-01 -1.12622E-01 -1.82649E-01  2.41294E-02 -7.72932E-02
  -5.90709E-01 -6.60104E-02 -1.83334E-01 -3.43759E-01  2.63843E-02  2.43917E-02  3.12735E-02 -2.95827E-01 -6.96142E-02  1.79731E-01
   1.08410E-01  7.43545E-03  1.02729E-01  1.14084E-01 -1.34009E-01 -1.83519E-01 -3.38405E-03  1.00459E-01 -1.39340E-03  1.18372E-02
   1.05333E-01  1.21685E-01  7.56448E-02 -5.01685E-01 -2.42945E-01  4.09300E-01  4.35835E-02  2.52651E-01  3.51891E-01 -3.26272E-02
  -2.99834E-01  1.16037E-01  1.39353E-01 -3.04867E-01 -4.04234E-01  3.07627E-03  3.58388E-01 -1.32553E-01 -2.13939E-01 -5.12273E-01
  -2.77738E-02 -8.27457E-02 -1.41632E-01  2.93436E-01 -2.70215E-01 -1.13785E-01 -1.87629E-01 -1.68317E-01 -8.32764E-02 -1.62018E-02
  -7.34875E-02 -1.48483E-01 -2.29022E-02 -1.45694E-01 -1.65185E-01  1.56438E-01  2.42394E-02 -1.14382E-01  2.58217E-01 -2.42523E-01
  -1.07645E-02 -3.76982E-02  1.50922E-01  1.62431E-01 -1.56805E-01  2.64858E-01 -2.29711E-01  2.57348E-01 -8.88749E-02 -6.64361E-02
   2.28797E-01 -3.47909E-01  1.34973E-01 -2.16476E-02  1.56956E-01  1.26398E-01 -1.22860E-01  1.22888E-01  9.57903E-02 -8.50725E-02
  -7.67523E-02 -6.12196E-03 -3.38793E-01 -8.45741E-02
 NY points of the fit to the data follow
   1.46822E-01  1.78915E-01  1.95829E-01  2.00600E-01  1.98542E-01  1.93434E-01  1.86798E-01  1.73682E-01  1.52814E-01  1.37738E-01
   1.41880E-01  1.60769E-01  1.80248E-01  1.97633E-01  2.07958E-01  2.01153E-01  1.66768E-01  9.97276E-02  1.56871E-02 -5.65084E-02
  -1.02829E-01 -1.28096E-01 -1.36969E-01 -1.30670E-01 -1.30544E-01 -1.40071E-01 -1.51204E-01 -1.62652E-01 -1.74721E-01 -1.87773E-01
  -2.01639E-01 -2.13276E-01 -2.19606E-01 -2.17492E-01 -2.06289E-01 -1.84818E-01 -1.48397E-01 -9.56013E-02 -3.01476E-02  4.22967E-02
   1.20308E-01  1.99905E-01  2.72558E-01  3.26800E-01  3.52210E-01  3.48625E-01  3.21807E-01  2.75658E-01  2.16024E-01  1.52294E-01
   9.63434E-02  4.66477E-02  7.37445E-03 -2.36589E-02 -5.18938E-02 -7.72488E-02 -1.04845E-01 -1.31751E-01 -1.56500E-01 -1.75737E-01
  -1.83735E-01 -1.79501E-01 -1.64887E-01 -1.37946E-01 -9.60743E-02 -4.53802E-02  8.50772E-03  6.49545E-02  1.15624E-01  1.54224E-01
   1.77811E-01  1.74842E-01  1.41586E-01  8.91964E-02  2.89344E-02 -3.72953E-02 -9.56750E-02 -1.34659E-01 -1.57125E-01 -1.53282E-01
  -1.31680E-01 -9.73451E-02 -4.28114E-02  2.98094E-02  1.12215E-01  1.90596E-01  2.47599E-01  2.78377E-01  2.84102E-01  2.61037E-01
   2.12204E-01  1.60911E-01  1.14713E-01  6.85500E-02  3.30804E-02  9.45656E-03 -8.72019E-03 -1.93467E-02 -2.00296E-02 -1.00066E-02
   1.25662E-02  4.74209E-02  9.16790E-02  1.40760E-01  1.85810E-01  2.18335E-01  2.34754E-01  2.36053E-01  2.29384E-01  2.17790E-01
   2.11866E-01  2.06269E-01  2.05800E-01  2.05767E-01  2.04273E-01  2.00492E-01  1.93850E-01  1.84037E-01  1.70145E-01  1.48583E-01
   1.19618E-01  8.46834E-02  4.36962E-02 -3.11453E-03 -5.07153E-02 -9.72155E-02 -1.45685E-01 -1.97400E-01 -2.52329E-01 -3.09484E-01
  -3.57872E-01 -3.93420E-01 -4.24412E-01 -4.53226E-01 -4.66801E-01 -4.68445E-01 -4.65587E-01 -4.45393E-01 -4.02577E-01 -3.27497E-01
  -2.21920E-01 -1.06977E-01 -1.53124E-02  4.26185E-02  7.43219E-02  8.39788E-02  7.91358E-02  8.39342E-02  9.31466E-02  1.03407E-01
   1.14113E-01  1.25256E-01  1.37044E-01  1.49780E-01  1.63980E-01  1.80304E-01  1.99718E-01  2.23880E-01  2.56112E-01  2.98485E-01
   3.38799E-01  3.62442E-01  3.57826E-01  3.37272E-01  3.11641E-01  2.65837E-01  1.83720E-01  8.03623E-02 -2.46703E-02 -1.37638E-01
  -2.60034E-01 -3.76787E-01 -4.56522E-01 -4.61114E-01 -3.97127E-01 -3.11823E-01 -2.33939E-01 -1.69008E-01 -1.32836E-01 -1.38049E-01
  -1.36413E-01 -1.33844E-01 -1.31349E-01 -1.27593E-01 -1.23734E-01 -1.20639E-01 -1.17990E-01 -1.15337E-01 -1.12119E-01 -1.08408E-01
  -1.03025E-01 -9.67111E-02 -9.04686E-02 -8.40504E-02 -7.76044E-02 -7.14452E-02 -6.56612E-02 -6.05443E-02 -5.58491E-02 -5.13726E-02
  -4.70364E-02 -4.34319E-02 -4.08223E-02 -3.89749E-02 -3.77240E-02 -3.74295E-02 -3.84563E-02 -4.02486E-02 -4.19066E-02 -4.32608E-02
  -4.48126E-02 -4.68390E-02 -4.88585E-02 -5.02330E-02 -5.04952E-02 -4.94295E-02 -4.58439E-02 -3.83608E-02 -2.72470E-02 -1.46016E-02
  -1.73721E-03  1.40172E-02  3.59674E-02  6.17297E-02  8.54894E-02  1.04979E-01  1.21608E-01  1.34503E-01  1.38396E-01  1.28275E-01
   1.07418E-01  8.43157E-02  6.17918E-02  3.65224E-02  6.82247E-03 -2.28764E-02 -4.94085E-02 -6.96345E-02 -8.15807E-02 -8.60991E-02
  -8.49740E-02 -8.35010E-02 -8.44116E-02 -8.52175E-02 -8.62020E-02 -8.72346E-02 -8.87357E-02 -9.12500E-02 -9.37949E-02 -9.56850E-02
  -9.63356E-02 -9.67676E-02 -9.65281E-02 -9.26963E-02 -8.47050E-02 -7.48649E-02 -6.39270E-02 -4.78704E-02 -2.77630E-02 -7.98289E-03
   9.89922E-03  2.50594E-02  3.87106E-02  5.12707E-02  6.17275E-02  6.90369E-02  7.67585E-02  8.86846E-02  9.45882E-02  9.54638E-02
   9.17752E-02  7.81815E-02  5.10001E-02  1.00401E-02 -3.94562E-02 -9.47356E-02 -1.48580E-01 -1.91912E-01 -2.23060E-01 -2.33240E-01
  -2.26525E-01 -1.99791E-01 -1.54226E-01 -9.02855E-02 -1.00249E-02  8.30424E-02  1.79821E-01  2.68641E-01  3.40471E-01  3.84278E-01
   3.94751E-01  3.74763E-01  3.36782E-01  2.91871E-01  2.52894E-01  2.28010E-01  2.11711E-01  2.03841E-01  1.99992E-01  1.94131E-01
   1.87010E-01  1.78255E-01  1.68646E-01  1.58698E-01  1.48213E-01  1.38026E-01  1.26497E-01  1.13260E-01  9.71683E-02  7.69442E-02
   5.17365E-02  2.07829E-02 -1.64377E-02 -5.95198E-02 -1.07807E-01 -1.59188E-01 -2.10843E-01 -2.58793E-01 -2.98510E-01 -3.25887E-01
  -3.37592E-01 -3.32178E-01 -3.08983E-01 -2.69717E-01 -2.19151E-01 -1.61500E-01 -1.04956E-01 -5.39105E-02 -1.60336E-02  6.00118E-03
   9.48200E-03 -3.44642E-03 -2.69709E-02 -6.71855E-02 -1.25153E-01 -1.99074E-01 -2.70212E-01 -3.23496E-01 -3.71584E-01 -4.28689E-01
  -4.83263E-01 -5.16308E-01 -5.33903E-01 -5.41463E-01 -5.22857E-01 -4.63344E-01 -3.42894E-01 -1.90142E-01 -5.48227E-02  3.23467E-02
   7.95314E-02  9.03886E-02  6.49519E-02  5.00518E-02  4.79534E-02  4.74660E-02  4.66787E-02  4.51819E-02  4.30176E-02  4.03611E-02
   3.73530E-02  3.43540E-02  3.17579E-02  2.99313E-02  2.92668E-02  2.99257E-02  3.18508E-02  3.48255E-02  3.83469E-02  4.20651E-02
   4.53331E-02  4.81956E-02  5.02478E-02  5.17790E-02  5.29557E-02  5.37705E-02  5.45874E-02  5.52364E-02  5.58444E-02  5.63989E-02
   5.69349E-02  5.74230E-02  5.78872E-02  5.83192E-02  5.87069E-02  5.90730E-02  5.94239E-02  5.97158E-02  5.99411E-02  6.00829E-02
   6.01462E-02  6.01104E-02  5.99550E-02  5.96040E-02  5.90347E-02  5.81869E-02  5.70484E-02  5.56579E-02  5.40825E-02  5.24173E-02
   5.06436E-02  4.87669E-02  4.67708E-02  4.47221E-02  4.26474E-02  4.05810E-02  3.85796E-02  3.66831E-02  3.49069E-02  3.32570E-02
   3.17041E-02  3.02312E-02  2.88675E-02  2.76191E-02  2.64480E-02  2.53804E-02  2.44244E-02  2.35801E-02  2.28245E-02  2.22049E-02
   2.17700E-02  2.15584E-02  2.16242E-02  2.20063E-02  2.28022E-02  2.45130E-02  2.75074E-02  3.21045E-02  3.78058E-02  4.40496E-02
   5.06464E-02  5.72584E-02  6.32945E-02  6.83495E-02  7.21082E-02  7.38569E-02  7.33534E-02  7.03112E-02  6.41993E-02  5.59704E-02
   4.76916E-02  4.11484E-02  3.78081E-02  3.81879E-02  4.14122E-02  4.48886E-02  4.86138E-02  5.13765E-02  5.29448E-02  5.39715E-02
   5.44845E-02  5.44661E-02  5.39230E-02  5.29246E-02  5.15004E-02  4.97056E-02  4.76030E-02  4.52205E-02  4.26004E-02  3.97915E-02
   3.68501E-02  3.38594E-02  3.09433E-02  2.81850E-02  2.55885E-02  2.31546E-02  2.08718E-02  1.87756E-02  1.68888E-02  1.52385E-02
   1.38130E-02  1.26119E-02  1.16711E-02  1.10028E-02  1.05996E-02  1.04595E-02  1.06279E-02  1.10343E-02  1.16537E-02  1.24233E-02
   1.32784E-02  1.41615E-02  1.50421E-02  1.58845E-02  1.66443E-02  1.72895E-02  1.77939E-02  1.81206E-02  1.82736E-02  1.82522E-02
   1.80740E-02  1.77700E-02  1.73631E-02  1.67997E-02  1.60170E-02  1.50647E-02  1.40005E-02  1.28535E-02  1.16386E-02  1.04013E-02
   9.17060E-03  7.95756E-03  6.76673E-03  5.56358E-03  4.34019E-03  3.14041E-03  1.93459E-03  7.02432E-04 -5.65441E-04 -1.87004E-03
  -3.20971E-03 -4.63508E-03 -6.20969E-03 -8.02050E-03 -1.01126E-02 -1.25098E-02 -1.52252E-02 -1.82811E-02 -2.16662E-02 -2.53393E-02
  -2.92730E-02 -3.34422E-02 -3.78107E-02 -4.22802E-02 -4.66993E-02 -5.08997E-02 -5.47508E-02 -5.81695E-02 -6.10750E-02 -6.33863E-02
  -6.51009E-02 -6.62629E-02 -6.68860E-02 -6.69292E-02 -6.64538E-02 -6.55606E-02 -6.43633E-02 -6.29381E-02 -6.13238E-02 -5.95612E-02
  -5.77275E-02 -5.58355E-02 -5.38670E-02 -5.18147E-02 -4.96671E-02 -4.73913E-02 -4.50136E-02 -4.26142E-02 -4.02550E-02 -3.79497E-02
  -3.57305E-02 -3.36494E-02 -3.17187E-02 -2.99228E-02 -2.82595E-02 -2.67070E-02 -2.53180E-02 -2.41065E-02 -2.30378E-02 -2.20861E-02
  -2.12526E-02 -2.05903E-02 -2.00704E-02 -1.96589E-02 -1.93117E-02 -1.90413E-02 -1.88453E-02 -1.86841E-02 -1.85255E-02 -1.84095E-02
  -1.83001E-02 -1.81705E-02 -1.80535E-02 -1.79416E-02 -1.78409E-02 -1.77825E-02 -1.77964E-02 -1.78806E-02 -1.80461E-02 -1.83061E-02
  -1.85883E-02 -1.88347E-02 -1.90901E-02 -1.93687E-02 -1.96444E-02 -1.99153E-02 -2.01774E-02 -2.04471E-02 -2.07507E-02 -2.10797E-02
  -2.13903E-02 -2.17316E-02 -2.21640E-02 -2.26197E-02 -2.30155E-02 -2.33297E-02 -2.35775E-02 -2.38085E-02 -2.40307E-02 -2.42182E-02
  -2.44083E-02 -2.46100E-02 -2.47347E-02 -2.47346E-02 -2.46749E-02 -2.46262E-02 -2.46254E-02 -2.46480E-02 -2.47026E-02 -2.47969E-02
  -2.49192E-02 -2.50570E-02 -2.51882E-02 -2.53405E-02 -2.54968E-02 -2.56230E-02 -2.56639E-02 -2.56103E-02 -2.55007E-02 -2.53681E-02
  -2.52145E-02 -2.50700E-02 -2.49559E-02 -2.48977E-02 -2.48568E-02 -2.48277E-02 -2.48221E-02 -2.48838E-02 -2.50217E-02 -2.52087E-02
  -2.53811E-02 -2.54933E-02 -2.54914E-02 -2.54341E-02 -2.54048E-02 -2.53745E-02 -2.53101E-02 -2.51831E-02 -2.50093E-02 -2.48032E-02
  -2.45275E-02 -2.41744E-02 -2.37282E-02 -2.32238E-02 -2.26777E-02 -2.20502E-02 -2.13025E-02 -2.04740E-02 -1.95560E-02 -1.84969E-02
  -1.73365E-02 -1.61131E-02 -1.48489E-02 -1.35457E-02
 NY background values follow
    -2.698E-02   -2.668E-02   -2.639E-02   -2.610E-02   -2.581E-02   -2.552E-02   -2.523E-02   -2.494E-02   -2.465E-02   -2.436E-02
    -2.407E-02   -2.377E-02   -2.348E-02   -2.319E-02   -2.290E-02   -2.261E-02   -2.232E-02   -2.203E-02   -2.174E-02   -2.145E-02
    -2.116E-02   -2.087E-02   -2.057E-02   -2.028E-02   -1.999E-02   -1.970E-02   -1.941E-02   -1.912E-02   -1.883E-02   -1.854E-02
    -1.825E-02   -1.796E-02   -1.768E-02   -1.739E-02   -1.710E-02   -1.681E-02   -1.652E-02   -1.623E-02   -1.594E-02   -1.566E-02
    -1.537E-02   -1.508E-02   -1.479E-02   -1.451E-02   -1.422E-02   -1.393E-02   -1.365E-02   -1.336E-02   -1.308E-02   -1.279E-02
    -1.251E-02   -1.222E-02   -1.194E-02   -1.165E-02   -1.137E-02   -1.109E-02   -1.081E-02   -1.052E-02   -1.024E-02   -9.961E-03
    -9.680E-03   -9.399E-03   -9.119E-03   -8.839E-03   -8.560E-03   -8.281E-03   -8.003E-03   -7.725E-03   -7.448E-03   -7.171E-03
