 LCModel (Version 6.3-1N) Copyright: S.W. Provencher.          Ref.: Magn. Reson. Med. 30:672-679 (1993).                
 Slice_N1@17_23  02-Jun-2023 14:36:46
 27 lines in following concentration table = NCONC+1
    Conc.  %SD /Cr+PCr  Metabolite                                         
 1.48E-06  26% 2.3E-04 Mac                                                 
 4.28E-02  32%   6.717 Cr                                                  
 8.17E-03 176%   1.283 PCr                                                 
 8.42E-02  11%  13.221 Ins                                                 
 8.65E-02   9%  13.575 NAA                                                 
 7.02E-02  12%  11.025 Tau                                                 
 1.50E-02  16%   2.354 PCho                                                
    0.000 999%   0.000 GPC                                                 
 8.86E-02  12%  13.916 Glu                                                 
 1.33E-02  53%   2.089 Gln                                                 
    0.000 999%   0.000 Ala                                                 
 3.58E-04 999% 5.6E-02 Asc                                                 
 4.94E-03 135%   0.776 Asp                                                 
 7.14E-03  52%   1.121 GABA                                                
 5.87E-03  72%   0.921 Glc                                                 
 6.92E-03  49%   1.086 GSH                                                 
 1.78E-04 999% 2.8E-02 Lac                                                 
 4.58E-03 122%   0.719 NAAG                                                
    0.000 999%   0.000 PE                                                  
 1.50E-02  16%   2.354 GPC+PCho                                            
 9.11E-02  10%  14.294 NAA+NAAG                                            
    0.102  12%  16.005 Glu+Gln                                             
 5.10E-02  13%   8.000 Cr+PCr                                              
 9.11E-02  10%  14.294 NAA+NAAG                                            
 5.10E-02  13%   8.000 Cr+PCr                                              
    0.102  12%  16.005 Glu+Gln                                             
   6 lines in following misc. output table
  FWHM = 0.029 ppm    S/N =   3                                            
  Data shift =-0.017 ppm                                                   
  Ph:  42 deg      -4.9 deg/ppm                                            
  alphaB,S = 3.1E+01,   1.1E+01                                            
   18 spline knots.   Ns = 5(1)                                            
   2 inflections.     1 extrema                                            
  654 points on ppm-axis = NY
      4.000000     3.994181     3.988363     3.982544     3.976726     3.970907     3.965088     3.959270     3.953451     3.947633
      3.941814     3.935995     3.930177     3.924358     3.918540     3.912721     3.906902     3.901084     3.895265     3.889446
      3.883628     3.877809     3.871991     3.866172     3.860353     3.854535     3.848716     3.842898     3.837079     3.831260
      3.825442     3.819623     3.813805     3.807986     3.802167     3.796349     3.790530     3.784712     3.778893     3.773074
      3.767256     3.761437     3.755619     3.749800     3.743981     3.738163     3.732344     3.726526     3.720707     3.714888
      3.709070     3.703251     3.697433     3.691614     3.685795     3.679977     3.674158     3.668339     3.662521     3.656702
      3.650884     3.645065     3.639246     3.633428     3.627609     3.621791     3.615972     3.610153     3.604335     3.598516
      3.592698     3.586879     3.581060     3.575242     3.569423     3.563605     3.557786     3.551967     3.546149     3.540330
      3.534512     3.528693     3.522874     3.517056     3.511237     3.505419     3.499600     3.493781     3.487963     3.482144
      3.476326     3.470507     3.464688     3.458870     3.453051     3.447232     3.441414     3.435595     3.429777     3.423958
      3.418139     3.412321     3.406502     3.400684     3.394865     3.389046     3.383228     3.377409     3.371591     3.365772
      3.359953     3.354135     3.348316     3.342498     3.336679     3.330860     3.325042     3.319223     3.313405     3.307586
      3.301767     3.295949     3.290130     3.284312     3.278493     3.272674     3.266856     3.261037     3.255219     3.249400
      3.243581     3.237763     3.231944     3.226125     3.220307     3.214488     3.208670     3.202851     3.197032     3.191214
      3.185395     3.179577     3.173758     3.167939     3.162121     3.156302     3.150484     3.144665     3.138846     3.133028
      3.127209     3.121391     3.115572     3.109753     3.103935     3.098116     3.092298     3.086479     3.080660     3.074842
      3.069023     3.063205     3.057386     3.051567     3.045749     3.039930     3.034111     3.028293     3.022474     3.016656
      3.010837     3.005018     2.999200     2.993381     2.987563     2.981744     2.975925     2.970107     2.964288     2.958470
      2.952651     2.946832     2.941014     2.935195     2.929377     2.923558     2.917739     2.911921     2.906102     2.900284
      2.894465     2.888646     2.882828     2.877009     2.871191     2.865372     2.859553     2.853735     2.847916     2.842098
      2.836279     2.830460     2.824642     2.818823     2.813004     2.807186     2.801367     2.795549     2.789730     2.783911
      2.778093     2.772274     2.766456     2.760637     2.754818     2.749000     2.743181     2.737363     2.731544     2.725725
      2.719907     2.714088     2.708270     2.702451     2.696632     2.690814     2.684995     2.679177     2.673358     2.667539
      2.661721     2.655902     2.650084     2.644265     2.638446     2.632628     2.626809     2.620991     2.615172     2.609353
      2.603535     2.597716     2.591897     2.586079     2.580260     2.574442     2.568623     2.562804     2.556986     2.551167
      2.545349     2.539530     2.533711     2.527893     2.522074     2.516256     2.510437     2.504618     2.498800     2.492981
      2.487163     2.481344     2.475525     2.469707     2.463888     2.458070     2.452251     2.446432     2.440614     2.434795
      2.428977     2.423158     2.417339     2.411521     2.405702     2.399884     2.394065     2.388246     2.382428     2.376609
      2.370790     2.364972     2.359153     2.353335     2.347516     2.341697     2.335879     2.330060     2.324242     2.318423
      2.312604     2.306786     2.300967     2.295149     2.289330     2.283511     2.277693     2.271874     2.266056     2.260237
      2.254418     2.248600     2.242781     2.236963     2.231144     2.225325     2.219507     2.213688     2.207870     2.202051
      2.196232     2.190414     2.184595     2.178777     2.172958     2.167139     2.161321     2.155502     2.149683     2.143865
      2.138046     2.132228     2.126409     2.120590     2.114772     2.108953     2.103135     2.097316     2.091497     2.085679
      2.079860     2.074042     2.068223     2.062404     2.056586     2.050767     2.044949     2.039130     2.033311     2.027493
      2.021674     2.015856     2.010037     2.004218     1.998400     1.992581     1.986763     1.980944     1.975126     1.969307
      1.963489     1.957670     1.951852     1.946033     1.940215     1.934397     1.928578     1.922760     1.916941     1.911123
      1.905304     1.899486     1.893667     1.887849     1.882030     1.876212     1.870393     1.864575     1.858756     1.852938
      1.847119     1.841301     1.835482     1.829664     1.823845     1.818027     1.812208     1.806390     1.800571     1.794753
      1.788934     1.783116     1.777297     1.771479     1.765660     1.759842     1.754023     1.748205     1.742386     1.736568
      1.730749     1.724931     1.719113     1.713294     1.707476     1.701657     1.695839     1.690020     1.684202     1.678383
      1.672565     1.666746     1.660928     1.655109     1.649291     1.643472     1.637654     1.631835     1.626017     1.620198
      1.614380     1.608561     1.602743     1.596924     1.591106     1.585287     1.579469     1.573650     1.567832     1.562013
      1.556195     1.550376     1.544558     1.538739     1.532921     1.527102     1.521284     1.515465     1.509647     1.503829
      1.498010     1.492192     1.486373     1.480555     1.474736     1.468918     1.463099     1.457281     1.451462     1.445644
      1.439825     1.434007     1.428188     1.422370     1.416551     1.410733     1.404914     1.399096     1.393277     1.387459
      1.381640     1.375822     1.370003     1.364185     1.358366     1.352548     1.346729     1.340911     1.335092     1.329274
      1.323455     1.317637     1.311818     1.306000     1.300182     1.294363     1.288545     1.282726     1.276908     1.271089
      1.265271     1.259452     1.253634     1.247815     1.241997     1.236178     1.230360     1.224541     1.218723     1.212904
      1.207086     1.201267     1.195449     1.189630     1.183812     1.177993     1.172175     1.166356     1.160538     1.154719
      1.148901     1.143082     1.137264     1.131445     1.125627     1.119808     1.113990     1.108171     1.102353     1.096534
      1.090716     1.084898     1.079079     1.073261     1.067442     1.061624     1.055805     1.049987     1.044168     1.038350
      1.032531     1.026713     1.020894     1.015076     1.009257     1.003439     0.997620     0.991802     0.985983     0.980165
      0.974346     0.968528     0.962709     0.956891     0.951072     0.945254     0.939435     0.933617     0.927798     0.921980
      0.916161     0.910343     0.904524     0.898706     0.892887     0.887069     0.881251     0.875432     0.869614     0.863795
      0.857977     0.852158     0.846340     0.840521     0.834703     0.828884     0.823066     0.817247     0.811429     0.805610
      0.799792     0.793973     0.788155     0.782336     0.776518     0.770699     0.764881     0.759062     0.753244     0.747425
      0.741607     0.735788     0.729970     0.724151     0.718333     0.712514     0.706696     0.700877     0.695059     0.689240
      0.683422     0.677603     0.671785     0.665967     0.660148     0.654330     0.648511     0.642693     0.636874     0.631056
      0.625237     0.619419     0.613600     0.607782     0.601963     0.596145     0.590326     0.584508     0.578689     0.572871
      0.567052     0.561234     0.555415     0.549597     0.543778     0.537960     0.532141     0.526323     0.520504     0.514686
      0.508867     0.503049     0.497230     0.491412     0.485593     0.479775     0.473956     0.468138     0.462319     0.456501
      0.450682     0.444864     0.439045     0.433227     0.427408     0.421590     0.415771     0.409953     0.404134     0.398316
      0.392497     0.386679     0.380860     0.375042     0.369223     0.363405     0.357586     0.351767     0.345949     0.340130
      0.334312     0.328493     0.322675     0.316856     0.311038     0.305219     0.299401     0.293582     0.287764     0.281945
      0.276127     0.270308     0.264490     0.258671     0.252853     0.247034     0.241216     0.235397     0.229579     0.223760
      0.217942     0.212123     0.206305     0.200486
 NY phased data points follow
  -2.25426E-01  1.45098E-01  3.48198E-02 -1.90660E-01 -1.60515E-01 -1.71515E-01  9.80992E-02 -3.66566E-02 -3.07285E-01 -3.85306E-01
  -3.72175E-01 -3.73286E-01 -1.33421E-02  3.31095E-01  1.79394E-01  2.02347E-02 -2.96318E-01  6.08453E-02  3.38028E-01 -1.06765E-01
  -2.34697E-01 -8.86750E-02  3.16483E-01 -4.98523E-02 -3.59245E-01 -9.27417E-02  2.84872E-01  4.54850E-01  4.61831E-01  3.99163E-01
   4.23681E-02  1.82593E-01 -2.61460E-01 -5.89243E-02 -1.62524E-02 -6.75875E-02 -5.79558E-02 -4.58204E-01 -2.83994E-01 -2.58618E-01
   3.13085E-01  9.72336E-02  4.03978E-01  3.62841E-01  3.09515E-01  4.46914E-01 -1.39789E-01  3.47088E-01  3.14988E-01  7.06703E-02
   7.75035E-02  9.62412E-02  6.94816E-02 -1.35416E-02 -3.89607E-01 -2.29896E-01 -3.06395E-01 -2.18147E-01 -1.40194E-01 -6.74722E-01
  -1.75309E-01 -3.16483E-01 -5.55689E-01 -2.13774E-01 -1.47208E-01 -2.63272E-01  5.03400E-02  2.51955E-01  3.51832E-01  1.82530E-01
   2.52730E-01  1.92997E-02 -1.50211E-01  4.43984E-01 -1.49600E-01 -1.50727E-01 -3.25107E-01 -2.58956E-01 -1.21978E-01 -1.55830E-01
   1.15629E-02 -4.01930E-01  2.57447E-01  1.61461E-01  9.02613E-02  3.61049E-01  3.89602E-01  7.37346E-01  3.66210E-01  2.35976E-01
  -3.49376E-02  5.14708E-02  3.49297E-01 -3.17299E-03  1.90879E-01  5.64926E-02 -2.87384E-01 -3.35834E-01 -4.69347E-02 -1.28050E-01
  -1.59227E-01 -8.66680E-02 -2.45216E-01  3.23950E-01  2.74954E-01  6.17358E-01  6.31132E-01  4.24429E-01  6.28275E-01  3.11998E-01
   4.34922E-01  9.23835E-02  2.72622E-01  4.72601E-01  5.56477E-02  6.20654E-01  5.27706E-01  4.72123E-01  5.20872E-01  1.05219E-01
   5.96401E-01  2.94281E-01  5.47473E-02 -3.35098E-01 -1.47765E-01  2.03322E-01 -4.82437E-01 -3.54823E-01 -6.91567E-01 -6.27961E-01
  -4.89345E-01 -4.90236E-01 -3.25606E-01 -5.13837E-01 -7.86195E-01 -6.27695E-01 -5.72355E-01 -9.87818E-01 -7.32733E-01 -1.81910E-01
   1.32698E-01 -1.88204E-01 -6.68542E-02  5.44666E-02 -2.91725E-02  3.60809E-01  2.83706E-01 -1.77735E-01  8.03003E-02  4.13963E-02
   1.50564E-02  2.98112E-01  3.24609E-01  2.30542E-01  2.44199E-02  2.08160E-01 -3.87733E-01  2.22251E-01  5.12584E-01  8.49975E-02
   3.19986E-01  4.79364E-01  7.44557E-01  7.50237E-01  9.36935E-01  7.47372E-01  8.49545E-01  1.16009E-01 -4.52377E-02 -3.59978E-01
  -9.89250E-01 -6.39751E-01 -4.90701E-01 -3.08486E-01 -3.03104E-01  6.13149E-02 -2.10521E-01 -2.75353E-01 -3.42023E-01 -7.15812E-02
  -4.12345E-01 -7.73835E-01 -3.32182E-01 -8.00180E-01 -1.99138E-01  1.64866E-01 -1.53687E-01 -7.22397E-02 -3.63294E-01 -7.61236E-01
  -3.00670E-01 -3.77269E-01 -2.66534E-01  2.34959E-01 -2.05773E-01 -9.68166E-02  2.44987E-01  8.90385E-02 -5.13575E-03 -1.20024E-02
  -3.99342E-01 -1.75125E-01 -1.32861E-01 -5.58717E-02 -1.18529E-01 -3.91895E-02  1.24507E-01 -3.64902E-01 -6.28501E-03 -4.45812E-01
  -3.69694E-01  1.08296E-01  1.91798E-01  8.78901E-02 -1.62444E-01  7.31726E-02 -7.00651E-02 -1.35753E-01 -1.83679E-01  7.08468E-02
  -1.80622E-01  3.14874E-02  4.07638E-01  8.78157E-02  2.48438E-01  3.80816E-01  3.87241E-01  2.83905E-01  2.49040E-01  5.60495E-01
   4.36222E-01  1.66302E-01  6.10792E-01  2.38750E-01  5.40798E-01  3.34310E-01 -5.11590E-01  3.45528E-02 -1.01706E-01 -1.36774E-01
  -5.61645E-02 -2.17527E-02 -2.70715E-02 -2.63163E-01 -1.76901E-01  1.24138E-01 -2.54030E-02 -4.60056E-02  1.50447E-01  1.15712E-02
  -2.78328E-01 -1.39793E-01  3.86892E-02 -6.71866E-01 -7.75980E-02  3.25783E-01  5.22159E-02  5.39573E-02  3.34866E-02  1.85120E-01
   1.86814E-01  5.24702E-01  3.61331E-01 -6.78013E-02  2.41860E-02  1.44747E-01  4.17795E-02  2.77663E-01  1.59883E-01  5.10053E-02
   1.68417E-01  1.02666E-01 -1.64375E-01 -7.79080E-02 -1.58586E-01 -3.38437E-01 -7.56598E-02 -4.18467E-01 -2.72801E-01 -3.59198E-01
  -3.73228E-01 -3.55085E-01 -2.59321E-01 -3.94036E-01 -1.84338E-01  1.61564E-01  1.63267E-01  6.67387E-01  2.73661E-01  5.27795E-01
   1.07234E-01  2.00351E-01  2.60031E-01 -1.48609E-01  1.99164E-01 -8.92557E-02  1.15139E-01 -1.71290E-03  1.58887E-01  4.20626E-01
   5.47699E-01  1.27193E-01  8.51038E-02  3.84199E-01  5.25393E-02  4.33719E-01  4.27240E-01  1.83765E-01  3.76146E-01  3.41445E-01
   2.26522E-01  1.77946E-01  3.10463E-03  1.43887E-01  2.15577E-01 -6.60171E-02  7.39552E-02  6.05627E-02 -2.10639E-01  2.29243E-02
  -2.32196E-01 -3.64347E-01 -4.00852E-01 -3.98702E-01 -1.18962E-01 -2.40568E-01 -4.74598E-01 -1.23307E-02  6.21326E-01  8.48559E-02
   1.01167E-01 -3.66568E-01 -5.29530E-02  5.85844E-02 -4.35244E-01 -1.45732E-02 -2.78810E-01 -3.11568E-01 -7.36747E-01  2.76323E-03
  -2.33115E-01 -1.32436E+00 -1.25408E+00 -1.15693E+00 -1.67184E+00 -1.12317E+00 -9.43332E-02 -4.80727E-01  3.68277E-01 -8.31613E-02
  -3.79049E-02  4.24353E-01 -1.38449E-01  1.85184E-01 -6.54155E-02 -1.06101E-01  5.70241E-02 -2.54375E-01 -4.20535E-01  1.43287E-01
   4.14106E-01  1.42817E-01 -1.86546E-02  1.82529E-01  6.91667E-02 -1.38022E-02  4.35071E-02  1.78005E-01  3.15299E-01  1.05941E-01
   1.19989E-01  1.05259E-01  1.77622E-01  2.08955E-01  4.32399E-01  1.90458E-01  3.17992E-01  5.41876E-01  3.44508E-01  3.75956E-01
   1.17142E-01  2.53298E-01  4.92899E-01  3.19599E-01  2.24388E-01  3.03839E-01 -2.63803E-02  2.69753E-01  3.56750E-01  3.16506E-01
   5.39890E-01  1.37137E-01  1.30378E-01  3.12908E-01  1.41818E-01  1.56377E-01  3.20685E-01 -2.70888E-02  2.37584E-01 -6.34100E-02
  -1.28409E-01  1.83980E-01  8.29419E-02  9.18248E-02 -6.42330E-01 -2.10301E-01  2.29132E-01  2.09729E-01  9.68122E-02  2.07793E-02
  -2.88190E-02 -1.19809E-01  5.17386E-02 -3.74046E-01 -2.19619E-01 -1.72110E-02  1.11799E-01 -6.92863E-02 -3.60217E-01 -4.97831E-02
  -1.38222E-01 -1.96783E-01 -1.66968E-01 -4.44425E-01 -1.74618E-01 -2.08492E-01 -2.00096E-01  7.73674E-02 -4.19884E-01 -7.92136E-02
  -1.94004E-01 -3.99129E-01 -1.73279E-01 -3.93511E-01 -2.44761E-01 -2.78581E-01 -4.17201E-01 -2.22385E-01  1.03710E-01 -6.36373E-02
  -1.05037E-01  2.38898E-02  1.70928E-01  7.76014E-02  9.14475E-02  3.25478E-01  1.28610E-01 -5.29899E-02  3.32612E-01  5.19927E-01
   4.77309E-02  3.62567E-01  5.45195E-01  7.49696E-02 -1.27190E-02  1.36935E-01 -2.23197E-01  2.25536E-02 -6.15445E-02 -3.77846E-01
   1.08779E-01 -1.34054E-01  2.06579E-01  3.06656E-01  8.71328E-02  1.56498E-02 -1.05586E-01 -4.67929E-03 -1.78785E-01 -2.56238E-01
   1.02167E-01 -5.70050E-02 -3.76319E-01 -1.83485E-01 -3.95550E-01 -6.65296E-02 -8.19336E-02  9.57659E-02  2.58510E-01 -1.71565E-02
  -1.18578E-02  1.40020E-01  1.68467E-01 -2.31822E-01  6.29714E-04 -1.89086E-01  8.24890E-02  1.22382E-01 -6.09708E-02 -1.81729E-01
  -1.17646E-01  1.42235E-01 -4.40171E-01  1.47036E-01  9.38450E-02 -1.62058E-01 -1.12360E-01  5.68372E-02  6.69577E-02 -3.08934E-01
   3.97277E-01  1.17123E-01 -1.81114E-02  9.75781E-02  9.28144E-02  4.33692E-02 -4.46312E-02  2.25364E-01 -8.11779E-02  3.30589E-01
   1.59838E-01  2.46369E-01  5.68938E-01  1.08539E-01  1.45226E-01  7.95559E-03  9.79587E-02  7.57811E-02  9.52992E-02 -2.50546E-02
  -1.19344E-01 -9.71131E-02  9.57798E-02  1.26424E-01 -3.12465E-02  5.36080E-02 -3.21959E-01 -1.44797E-01 -3.93634E-01 -2.48872E-01
  -2.26991E-01 -5.34116E-01 -4.92323E-02 -2.78779E-01 -1.54402E-01 -1.53417E-01 -2.03496E-01 -1.21130E-02 -1.26405E-01 -2.35968E-01
  -6.09452E-02  1.71847E-01 -2.91567E-01 -1.95445E-01  3.07875E-01  2.96055E-01  3.20753E-01  9.90722E-02 -1.55595E-01 -1.40237E-01
  -7.46692E-02  1.41321E-01  1.49929E-01  1.45048E-01  2.01440E-01 -2.32766E-01 -3.02050E-01  1.32905E-01 -6.35523E-02 -1.17351E-01
   1.18999E-01 -1.56808E-02  7.50985E-02  2.01786E-01 -4.42543E-02 -1.65334E-01  5.96760E-02  2.88193E-01 -3.98416E-02  9.85820E-03
   1.60144E-01 -2.16405E-01  2.07045E-01 -1.19658E-02 -2.39316E-01 -1.59084E-01 -2.44677E-01 -1.13629E-01 -2.92365E-01 -1.69053E-01
  -1.07839E-01 -1.60502E-01 -3.79719E-01  3.61249E-02 -1.27585E-01 -1.10536E-01  1.74271E-01 -2.78823E-01 -3.51903E-02 -9.28279E-02
   1.76725E-01  1.59596E-01 -2.01066E-01 -7.45689E-03 -8.61869E-02 -1.55338E-01  2.92640E-01  1.34395E-01  1.78030E-01  1.66558E-01
  -1.72923E-01  2.48319E-02 -2.97701E-02  2.18037E-01 -1.06174E-01 -1.32236E-01 -1.20278E-01 -9.27064E-03 -9.04244E-02 -2.65001E-01
  -1.13879E-01 -2.36515E-01  1.31557E-01 -2.99882E-01 -1.05978E-01 -2.68973E-01 -3.81819E-01  2.88810E-01  6.93403E-02 -9.94568E-02
  -8.16274E-02 -1.98203E-01 -2.40038E-01 -2.42210E-01 -2.24260E-01 -2.59095E-01 -2.31260E-01  4.47220E-01 -1.66868E-01 -4.35708E-01
   9.70675E-02  9.50728E-02 -6.77374E-02 -2.75392E-01  1.70385E-01  1.44901E-01 -1.43336E-01 -2.57545E-01  4.67746E-02 -6.76044E-02
  -1.42228E-01  2.79278E-02 -9.78816E-03 -1.38480E-01 -9.82602E-02  2.09596E-01  2.46114E-01  3.53867E-01 -1.04820E-01 -5.49660E-02
  -4.83691E-02 -9.13670E-02  2.09785E-01 -6.42586E-02
 NY points of the fit to the data follow
   1.89844E-02  2.09410E-02  2.19691E-02  2.39419E-02  2.54501E-02  2.59255E-02  2.57084E-02  2.81568E-02  3.16261E-02  4.20494E-02
   8.43399E-02  1.26626E-01  1.87936E-01  3.21910E-01  4.32154E-01  4.42070E-01  4.33547E-01  3.97699E-01  2.55916E-01  1.09399E-01
   2.49568E-02 -2.31734E-03 -2.17339E-03 -1.64473E-02 -3.29685E-02 -4.87214E-02 -6.09514E-02 -7.07710E-02 -7.88364E-02 -8.57124E-02
  -9.38349E-02 -1.05631E-01 -1.20551E-01 -1.39191E-01 -1.62792E-01 -1.84239E-01 -2.05652E-01 -2.05963E-01 -1.63958E-01 -1.04625E-01
  -1.15231E-02  1.11440E-01  2.35948E-01  3.17832E-01  3.59953E-01  3.42046E-01  2.91684E-01  2.15540E-01  1.18292E-01  5.95315E-02
   1.75948E-02 -3.08985E-03 -3.03768E-02 -6.14974E-02 -9.78894E-02 -1.40712E-01 -1.94050E-01 -2.53597E-01 -2.90197E-01 -3.46698E-01
  -3.78479E-01 -3.21414E-01 -3.28384E-01 -3.05298E-01 -1.24254E-01 -5.34300E-03  4.24796E-02  2.44706E-01  3.86403E-01  3.73910E-01
   3.82805E-01  3.29355E-01  2.51953E-01  1.53298E-01  3.67852E-02 -5.07577E-02 -1.57156E-01 -3.13819E-01 -3.96939E-01 -3.70413E-01
  -3.40927E-01 -2.30028E-01  4.24293E-02  2.67581E-01  3.66320E-01  4.52708E-01  4.75289E-01  4.39368E-01  3.69574E-01  3.00342E-01
   2.63497E-01  2.28868E-01  1.89033E-01  1.42541E-01  6.11374E-02 -3.52280E-02 -1.62174E-01 -2.77615E-01 -3.50023E-01 -3.43667E-01
  -2.55504E-01 -9.08016E-02  9.81139E-02  2.45925E-01  3.50980E-01  3.67778E-01  3.55253E-01  3.30412E-01  3.18728E-01  3.14931E-01
   3.12630E-01  3.10924E-01  3.08717E-01  3.07095E-01  3.05615E-01  3.05267E-01  3.04862E-01  2.97877E-01  2.95365E-01  2.70460E-01
   2.08570E-01  1.78591E-01  1.11830E-01 -1.38325E-02 -5.45885E-02 -1.25553E-01 -2.59047E-01 -3.79497E-01 -4.53085E-01 -5.55378E-01
  -5.58353E-01 -5.44179E-01 -4.30399E-01 -4.36937E-01 -6.17870E-01 -6.56717E-01 -7.16935E-01 -7.97135E-01 -6.70797E-01 -3.58138E-01
  -1.51338E-01 -3.21459E-02 -3.46529E-02 -1.07614E-02  1.38511E-02  3.58552E-02  5.56818E-02  7.34280E-02  8.94568E-02  1.04072E-01
   1.17797E-01  1.30511E-01  1.43747E-01  1.57569E-01  1.72165E-01  1.88263E-01  2.06637E-01  2.26808E-01  2.50004E-01  2.78929E-01
   3.16538E-01  3.69453E-01  4.50359E-01  4.86306E-01  6.22775E-01  6.17833E-01  3.42658E-01  3.98450E-02 -1.64844E-01 -5.20142E-01
  -7.66124E-01 -6.54002E-01 -4.88496E-01 -3.14032E-01 -2.83897E-01 -2.64175E-01 -2.47461E-01 -2.26557E-01 -2.09650E-01 -1.92350E-01
  -1.84123E-01 -1.74763E-01 -1.62155E-01 -1.51198E-01 -1.46031E-01 -1.42062E-01 -1.37421E-01 -1.32789E-01 -1.25691E-01 -1.19142E-01
  -1.11937E-01 -1.06460E-01 -9.92733E-02 -9.22701E-02 -8.53327E-02 -7.93075E-02 -7.31857E-02 -6.72569E-02 -6.18617E-02 -5.58513E-02
  -4.93182E-02 -4.43064E-02 -4.15854E-02 -3.96931E-02 -3.80337E-02 -3.65292E-02 -3.60398E-02 -3.68565E-02 -3.67417E-02 -3.79811E-02
  -4.21426E-02 -4.57817E-02 -4.57941E-02 -4.21712E-02 -3.71615E-02 -3.23482E-02 -2.90593E-02 -2.79418E-02 -2.68000E-02 -2.43060E-02
  -1.68563E-02 -7.66866E-03  2.00343E-02  7.46835E-02  1.34153E-01  1.77487E-01  2.05117E-01  2.38507E-01  2.86068E-01  3.01190E-01
   2.75943E-01  2.73560E-01  2.52038E-01  1.48992E-01  3.54925E-02 -3.02869E-02 -4.94654E-02 -4.66762E-02 -5.32435E-02 -6.07397E-02
  -6.80110E-02 -7.52945E-02 -8.08705E-02 -8.61563E-02 -9.02690E-02 -9.40516E-02 -9.79204E-02 -1.02492E-01 -1.07240E-01 -1.12315E-01
  -1.21396E-01 -1.34213E-01 -1.40179E-01 -1.60884E-01 -1.59052E-01 -1.13021E-01 -9.07394E-02 -5.74215E-02  2.26673E-02  8.61080E-02
   9.38294E-02  1.19046E-01  1.38610E-01  1.50271E-01  1.41504E-01  1.09514E-01  1.22461E-01  1.11594E-01  9.80895E-02  7.59260E-02
   5.38727E-02  3.53737E-02 -7.45463E-04 -3.46982E-02 -7.87974E-02 -1.18318E-01 -1.69569E-01 -2.19586E-01 -2.89151E-01 -3.62772E-01
  -4.07780E-01 -4.31449E-01 -3.94960E-01 -2.74127E-01 -1.05074E-01  8.41111E-02  2.82367E-01  3.97013E-01  4.42335E-01  4.37975E-01
   3.75900E-01  3.11409E-01  2.58817E-01  2.33502E-01  2.31705E-01  2.29519E-01  2.37125E-01  2.42989E-01  2.39575E-01  2.37057E-01
   2.24358E-01  2.15546E-01  2.06402E-01  1.99516E-01  1.92005E-01  1.84691E-01  1.75184E-01  1.62763E-01  1.50349E-01  1.33704E-01
   1.17076E-01  1.00691E-01  8.29807E-02  6.32780E-02  3.82105E-02  3.91213E-03 -4.14637E-02 -8.76253E-02 -1.46021E-01 -1.95684E-01
  -2.37673E-01 -2.63212E-01 -2.72942E-01 -2.55278E-01 -2.06255E-01 -1.42938E-01 -6.00047E-02  1.04553E-02  6.00240E-02  7.59671E-02
   4.55283E-02 -1.83430E-03 -6.71204E-02 -1.16234E-01 -1.72409E-01 -1.89967E-01 -1.81772E-01 -1.74858E-01 -2.12593E-01 -2.44973E-01
  -5.88947E-01 -1.07656E+00 -1.28577E+00 -1.38459E+00 -1.47790E+00 -1.14407E+00 -5.48002E-01 -2.06557E-01 -4.84315E-02 -9.79421E-02
  -8.22013E-02 -6.25831E-02 -4.54495E-02 -3.13111E-02 -1.86432E-02 -1.02069E-02 -3.15860E-03 -4.01651E-04 -2.14536E-03 -7.49277E-03
  -1.62914E-02 -2.70299E-02 -3.64919E-02 -4.19589E-02 -4.50506E-02 -4.07732E-02 -3.53213E-02 -2.62511E-02 -1.63430E-02 -7.84190E-03
   5.91571E-04  7.24887E-03  1.33276E-02  1.83323E-02  2.29885E-02  2.68373E-02  2.98971E-02  3.30952E-02  3.60266E-02  3.90145E-02
   4.19082E-02  4.43713E-02  4.68363E-02  4.91455E-02  5.14678E-02  5.32882E-02  5.52457E-02  5.67640E-02  5.86963E-02  6.08413E-02
   6.35379E-02  6.60044E-02  6.75304E-02  6.81425E-02  6.76145E-02  6.67452E-02  6.50755E-02  6.34187E-02  6.15597E-02  5.90141E-02
   5.60087E-02  5.22448E-02  4.77440E-02  4.31484E-02  3.90146E-02  3.47180E-02  3.02192E-02  2.63231E-02  2.27717E-02  1.90284E-02
   1.52638E-02  1.23208E-02  9.50039E-03  7.06712E-03  4.86521E-03  2.54271E-03  3.21072E-04 -1.85632E-03 -3.79655E-03 -5.57986E-03
  -7.24403E-03 -8.22547E-03 -8.62475E-03 -8.87215E-03 -8.36686E-03 -6.72410E-03 -4.94310E-03 -2.63913E-03  2.62696E-04  2.84699E-03
   4.83727E-03  6.69742E-03  8.70841E-03  1.06435E-02  1.36069E-02  1.74111E-02  2.22181E-02  2.71910E-02  3.22807E-02  3.75445E-02
   4.32666E-02  5.01459E-02  5.75709E-02  6.53012E-02  7.31818E-02  8.11343E-02  8.83585E-02  9.52527E-02  1.01072E-01  1.05269E-01
   1.08220E-01  1.09719E-01  1.10163E-01  1.09861E-01  1.08907E-01  1.06498E-01  1.02878E-01  9.79547E-02  9.22450E-02  8.62012E-02
   7.98180E-02  7.41214E-02  6.82346E-02  6.20127E-02  5.58267E-02  4.96401E-02  4.32283E-02  3.80859E-02  3.36365E-02  2.93599E-02
   2.56057E-02  2.20602E-02  1.93260E-02  1.73453E-02  1.61476E-02  1.56794E-02  1.62839E-02  1.79135E-02  1.98103E-02  2.19674E-02
   2.48902E-02  2.81580E-02  3.14484E-02  3.46294E-02  3.77613E-02  3.99574E-02  4.14264E-02  4.30071E-02  4.47435E-02  4.61307E-02
   4.74406E-02  4.85179E-02  4.86570E-02  4.80985E-02  4.66697E-02  4.46659E-02  4.29516E-02  4.11435E-02  3.87646E-02  3.66332E-02
   3.46103E-02  3.26918E-02  3.04277E-02  2.78819E-02  2.54261E-02  2.27868E-02  2.03495E-02  1.82070E-02  1.61660E-02  1.41233E-02
   1.24681E-02  1.05538E-02  7.71370E-03  4.17090E-03  2.70263E-04 -4.01642E-03 -9.01215E-03 -1.47761E-02 -2.11211E-02 -2.88309E-02
  -3.81529E-02 -4.86497E-02 -6.00672E-02 -7.22337E-02 -8.39407E-02 -9.47722E-02 -1.05173E-01 -1.14994E-01 -1.24248E-01 -1.31836E-01
  -1.37480E-01 -1.41831E-01 -1.44730E-01 -1.45174E-01 -1.43922E-01 -1.42054E-01 -1.39518E-01 -1.35980E-01 -1.31995E-01 -1.28552E-01
  -1.25025E-01 -1.21122E-01 -1.16878E-01 -1.11806E-01 -1.05784E-01 -9.94847E-02 -9.32787E-02 -8.66765E-02 -8.02778E-02 -7.40613E-02
  -6.82225E-02 -6.20904E-02 -5.65977E-02 -5.15239E-02 -4.64786E-02 -4.17170E-02 -3.72274E-02 -3.37195E-02 -3.01908E-02 -2.64776E-02
  -2.36807E-02 -2.17634E-02 -1.94218E-02 -1.74399E-02 -1.58805E-02 -1.45609E-02 -1.36011E-02 -1.30432E-02 -1.24646E-02 -1.14619E-02
  -1.08098E-02 -1.02181E-02 -8.78931E-03 -7.20934E-03 -6.33695E-03 -5.55367E-03 -4.93265E-03 -5.02251E-03 -5.35460E-03 -5.40248E-03
  -5.74217E-03 -6.13387E-03 -6.19582E-03 -6.66634E-03 -7.04493E-03 -6.99211E-03 -6.96370E-03 -6.75898E-03 -6.90984E-03 -8.02744E-03
  -8.92796E-03 -9.76523E-03 -1.11636E-02 -1.21864E-02 -1.20138E-02 -1.15822E-02 -1.21986E-02 -1.34774E-02 -1.45436E-02 -1.51683E-02
  -1.58805E-02 -1.61727E-02 -1.60560E-02 -1.55383E-02 -1.51589E-02 -1.51770E-02 -1.52089E-02 -1.51627E-02 -1.48881E-02 -1.46779E-02
  -1.51043E-02 -1.58981E-02 -1.66043E-02 -1.73272E-02 -1.83972E-02 -1.90144E-02 -1.88712E-02 -1.86118E-02 -1.85035E-02 -1.90355E-02
  -1.89901E-02 -1.86048E-02 -1.84505E-02 -1.80093E-02 -1.75066E-02 -1.81130E-02 -1.91929E-02 -2.05359E-02 -2.20021E-02 -2.27764E-02
  -2.34437E-02 -2.39061E-02 -2.47825E-02 -2.62187E-02 -2.72547E-02 -2.84461E-02 -2.95622E-02 -3.01914E-02 -3.08121E-02 -3.21233E-02
  -3.29355E-02 -3.33772E-02 -3.44029E-02 -3.57163E-02 -3.70805E-02 -3.80212E-02 -3.82256E-02 -3.82273E-02 -3.83416E-02 -3.82463E-02
  -3.81176E-02 -3.89734E-02 -4.02949E-02 -4.15441E-02
 NY background values follow
     7.775E-02    7.756E-02    7.738E-02    7.719E-02    7.700E-02    7.682E-02    7.663E-02    7.644E-02    7.626E-02    7.607E-02
     7.588E-02    7.570E-02    7.551E-02    7.532E-02    7.514E-02    7.495E-02    7.476E-02    7.458E-02    7.439E-02    7.420E-02
     7.402E-02    7.383E-02    7.364E-02    7.346E-02    7.327E-02    7.308E-02    7.290E-02    7.271E-02    7.252E-02    7.234E-02
     7.215E-02    7.196E-02    7.177E-02    7.159E-02    7.140E-02    7.121E-02    7.102E-02    7.084E-02    7.065E-02    7.046E-02
     7.028E-02    7.009E-02    6.990E-02    6.971E-02    6.953E-02    6.934E-02    6.915E-02    6.896E-02    6.878E-02    6.859E-02
     6.840E-02    6.821E-02    6.802E-02    6.784E-02    6.765E-02    6.746E-02    6.727E-02    6.709E-02    6.690E-02    6.671E-02
     6.652E-02    6.633E-02    6.615E-02    6.596E-02    6.577E-02    6.558E-02    6.539E-02    6.521E-02    6.502E-02    6.483E-02
