 
 $NMID
 ID=''
 FMTDAT='(2E13.5)'
 TRAMP=   1.00000E+0
 VOLUME=   1.00000E+0
 $END
  -2.30534E+4   1.00888E+3
  -5.75567E+4  -1.44481E+4
  -5.88786E+4  -4.27278E+3
  -5.43034E+4  -4.29668E+3
  -5.65331E+4  -6.46815E+3
  -5.70113E+4  -4.16281E+3
  -5.51982E+4  -4.66395E+3
  -5.61330E+4  -5.73874E+3
  -5.65110E+4  -4.11341E+3
  -5.52812E+4  -4.24796E+3
  -5.56112E+4  -4.94937E+3
  -5.55332E+4  -3.50860E+3
  -5.45268E+4  -3.39917E+3
  -5.47751E+4  -4.05676E+3
  -5.44003E+4  -3.31932E+3
  -5.33620E+4  -3.18162E+3
  -5.34020E+4  -3.73725E+3
  -5.31501E+4  -3.14520E+3
  -5.23673E+4  -3.06322E+3
  -5.22691E+4  -3.51353E+3
  -5.20748E+4  -2.95459E+3
  -5.13780E+4  -2.67652E+3
  -5.15226E+4  -2.86967E+3
  -5.13680E+4  -2.68809E+3
  -5.07673E+4  -2.54314E+3
  -5.06709E+4  -2.45771E+3
  -5.07280E+4  -2.25437E+3
  -5.02379E+4  -2.30523E+3
  -5.01777E+4  -2.48252E+3
  -4.99634E+4  -2.35964E+3
  -4.97219E+4  -2.14505E+3
  -4.96423E+4  -2.14445E+3
  -4.95362E+4  -2.23482E+3
  -4.91924E+4  -2.05744E+3
  -4.90827E+4  -2.00962E+3
  -4.90261E+4  -1.74217E+3
  -4.86068E+4  -1.61437E+3
  -4.84858E+4  -1.52250E+3
  -4.82354E+4  -1.20912E+3
  -4.80441E+4  -9.86569E+2
  -4.78902E+4  -8.76160E+2
  -4.77114E+4  -8.36504E+2
  -4.73047E+4  -8.73034E+2
  -4.69091E+4  -6.44837E+2
  -4.66761E+4  -4.37631E+2
  -4.63606E+4  -4.04458E+2
  -4.61876E+4  -2.91526E+2
  -4.59622E+4  -1.74107E+2
  -4.56980E+4  -1.67776E+1
  -4.54340E+4   3.75041E+1
  -4.51585E+4   1.70240E+2
  -4.48809E+4   1.98013E+2
  -4.46496E+4   3.64657E+2
  -4.44471E+4   5.22674E+2
  -4.42478E+4   6.11046E+2
  -4.40117E+4   6.72915E+2
  -4.37371E+4   7.39714E+2
  -4.34938E+4   7.92123E+2
  -4.32435E+4   7.62976E+2
  -4.29233E+4   7.43387E+2
  -4.26285E+4   9.08375E+2
  -4.23334E+4   1.01285E+3
  -4.22162E+4   1.12268E+3
  -4.19159E+4   1.12847E+3
  -4.17177E+4   1.09450E+3
  -4.14867E+4   1.22151E+3
  -4.12806E+4   1.29348E+3
  -4.11126E+4   1.39554E+3
  -4.08679E+4   1.32844E+3
  -4.06521E+4   1.47459E+3
  -4.04327E+4   1.53136E+3
  -4.01361E+4   1.67527E+3
  -3.99476E+4   1.62517E+3
  -3.97133E+4   1.67499E+3
  -3.95392E+4   1.78156E+3
  -3.92466E+4   1.82835E+3
  -3.91254E+4   1.98144E+3
  -3.88607E+4   1.98271E+3
  -3.85834E+4   2.05250E+3
  -3.83689E+4   2.19264E+3
  -3.81976E+4   2.23821E+3
  -3.80496E+4   2.32491E+3
  -3.77952E+4   2.31977E+3
  -3.75718E+4   2.37415E+3
  -3.73452E+4   2.38615E+3
  -3.71652E+4   2.36412E+3
  -3.68621E+4   2.34237E+3
  -3.66329E+4   2.30100E+3
  -3.63781E+4   2.44705E+3
  -3.61662E+4   2.50793E+3
  -3.59161E+4   2.42898E+3
  -3.56603E+4   2.45231E+3
  -3.55072E+4   2.52834E+3
  -3.53199E+4   2.65467E+3
  -3.50793E+4   2.58932E+3
  -3.47496E+4   2.68125E+3
  -3.45348E+4   2.65641E+3
  -3.42991E+4   2.74378E+3
  -3.40933E+4   2.74623E+3
  -3.39142E+4   2.71716E+3
  -3.36302E+4   2.72456E+3
  -3.33409E+4   2.76967E+3
  -3.31768E+4   2.83740E+3
  -3.30082E+4   2.82229E+3
  -3.27891E+4   2.74802E+3
  -3.25371E+4   2.75524E+3
  -3.23841E+4   2.72364E+3
  -3.21923E+4   2.74749E+3
  -3.19527E+4   2.64591E+3
  -3.16999E+4   2.71207E+3
  -3.14757E+4   2.68991E+3
  -3.13157E+4   2.72721E+3
  -3.11195E+4   2.72569E+3
  -3.09209E+4   2.76874E+3
  -3.07394E+4   2.71337E+3
  -3.05915E+4   2.66848E+3
  -3.02863E+4   2.56190E+3
  -3.00807E+4   2.62617E+3
  -2.98382E+4   2.59339E+3
  -2.96925E+4   2.50474E+3
  -2.95400E+4   2.54879E+3
  -2.92644E+4   2.47675E+3
  -2.91099E+4   2.41723E+3
  -2.89142E+4   2.39030E+3
  -2.86997E+4   2.38750E+3
  -2.85409E+4   2.38385E+3
  -2.83249E+4   2.31229E+3
  -2.81440E+4   2.36787E+3
  -2.79882E+4   2.33710E+3
  -2.78302E+4   2.31657E+3
  -2.76346E+4   2.30598E+3
  -2.74226E+4   2.23506E+3
  -2.72276E+4   2.29795E+3
  -2.71016E+4   2.18844E+3
  -2.69715E+4   2.22981E+3
  -2.68474E+4   2.20325E+3
  -2.66298E+4   2.15275E+3
  -2.64027E+4   2.18984E+3
  -2.62885E+4   2.14773E+3
  -2.60090E+4   2.10591E+3
  -2.58725E+4   2.18647E+3
  -2.56910E+4   2.13795E+3
  -2.55325E+4   2.12850E+3
  -2.53869E+4   2.18216E+3
  -2.52479E+4   2.16465E+3
  -2.50415E+4   2.15545E+3
  -2.49531E+4   2.12305E+3
  -2.48391E+4   2.11959E+3
  -2.46732E+4   2.11385E+3
  -2.45758E+4   2.07658E+3
  -2.43994E+4   2.07062E+3
  -2.43346E+4   2.14388E+3
  -2.41376E+4   2.09419E+3
  -2.39534E+4   2.09993E+3
  -2.38499E+4   2.07565E+3
  -2.36891E+4   2.12823E+3
  -2.36089E+4   2.06657E+3
  -2.34242E+4   2.07505E+3
  -2.33222E+4   2.02943E+3
  -2.31982E+4   2.00626E+3
  -2.30829E+4   2.05784E+3
  -2.29694E+4   2.04347E+3
  -2.28852E+4   2.06203E+3
  -2.27646E+4   2.07733E+3
  -2.27320E+4   2.08800E+3
  -2.25328E+4   2.05651E+3
  -2.24014E+4   2.02489E+3
  -2.23482E+4   2.11912E+3
  -2.22474E+4   2.10006E+3
  -2.21820E+4   2.11286E+3
  -2.21329E+4   2.05890E+3
  -2.19575E+4   2.16394E+3
  -2.18900E+4   2.08598E+3
  -2.18136E+4   2.04843E+3
  -2.17296E+4   2.07063E+3
  -2.16229E+4   2.08649E+3
  -2.15800E+4   2.12081E+3
  -2.14160E+4   2.17192E+3
  -2.14081E+4   2.17763E+3
  -2.13468E+4   2.11722E+3
  -2.12120E+4   2.13286E+3
  -2.11420E+4   2.12467E+3
  -2.10707E+4   2.12163E+3
  -2.09690E+4   2.15527E+3
  -2.09179E+4   2.14998E+3
  -2.08021E+4   2.22545E+3
  -2.07457E+4   2.24274E+3
  -2.07128E+4   2.23995E+3
  -2.05860E+4   2.23055E+3
  -2.04978E+4   2.23836E+3
  -2.04507E+4   2.24214E+3
  -2.03343E+4   2.31849E+3
  -2.03037E+4   2.27198E+3
  -2.02418E+4   2.31578E+3
  -2.01614E+4   2.28825E+3
  -2.00337E+4   2.31390E+3
  -2.00061E+4   2.41738E+3
  -1.99739E+4   2.43689E+3
  -1.98461E+4   2.35434E+3
  -1.98138E+4   2.46698E+3
  -1.96608E+4   2.51980E+3
  -1.96052E+4   2.48167E+3
  -1.94844E+4   2.53935E+3
  -1.93685E+4   2.50003E+3
  -1.93079E+4   2.60002E+3
  -1.92371E+4   2.61025E+3
  -1.92050E+4   2.66244E+3
  -1.90640E+4   2.62843E+3
  -1.90284E+4   2.68169E+3
  -1.89139E+4   2.68739E+3
  -1.88273E+4   2.69113E+3
  -1.86996E+4   2.76260E+3
  -1.86401E+4   2.76935E+3
  -1.85280E+4   2.85344E+3
  -1.84984E+4   2.88491E+3
  -1.84255E+4   2.90388E+3
  -1.83316E+4   2.98298E+3
  -1.82389E+4   2.98755E+3
  -1.81348E+4   3.09257E+3
  -1.80545E+4   3.05020E+3
  -1.79573E+4   3.19239E+3
  -1.78642E+4   3.21613E+3
  -1.77679E+4   3.19008E+3
  -1.76967E+4   3.31832E+3
  -1.75735E+4   3.29174E+3
  -1.75899E+4   3.35165E+3
  -1.74273E+4   3.42170E+3
  -1.74087E+4   3.44382E+3
  -1.72435E+4   3.46396E+3
  -1.72255E+4   3.50266E+3
  -1.71301E+4   3.53195E+3
  -1.70659E+4   3.60461E+3
  -1.69440E+4   3.57372E+3
  -1.68380E+4   3.65538E+3
  -1.66706E+4   3.69888E+3
  -1.66209E+4   3.77300E+3
  -1.65778E+4   3.81386E+3
  -1.65239E+4   3.92001E+3
  -1.63823E+4   3.88438E+3
  -1.62323E+4   3.91670E+3
  -1.62101E+4   3.95527E+3
  -1.61244E+4   4.05525E+3
  -1.60720E+4   4.05257E+3
  -1.59375E+4   4.08796E+3
  -1.58361E+4   4.09784E+3
  -1.56987E+4   4.16408E+3
  -1.57193E+4   4.20730E+3
  -1.55751E+4   4.18422E+3
  -1.54358E+4   4.25162E+3
  -1.53650E+4   4.26345E+3
  -1.53410E+4   4.38673E+3
  -1.51900E+4   4.36885E+3
  -1.50826E+4   4.35813E+3
  -1.49825E+4   4.35207E+3
  -1.48843E+4   4.40856E+3
  -1.47810E+4   4.51693E+3
  -1.46220E+4   4.46257E+3
  -1.45560E+4   4.59733E+3
  -1.45226E+4   4.61159E+3
  -1.44982E+4   4.62651E+3
  -1.44184E+4   4.65156E+3
  -1.42476E+4   4.64068E+3
  -1.41616E+4   4.68540E+3
  -1.40508E+4   4.74009E+3
  -1.39606E+4   4.67769E+3
  -1.39398E+4   4.68235E+3
  -1.38028E+4   4.76809E+3
  -1.37806E+4   4.72101E+3
  -1.36719E+4   4.81886E+3
  -1.35096E+4   4.85579E+3
  -1.34025E+4   4.82052E+3
  -1.32803E+4   4.85460E+3
  -1.32416E+4   4.94200E+3
  -1.31987E+4   4.85521E+3
  -1.31095E+4   4.87966E+3
  -1.29585E+4   4.91406E+3
  -1.28774E+4   4.94977E+3
  -1.27390E+4   4.89704E+3
  -1.26402E+4   4.92371E+3
  -1.25887E+4   4.97360E+3
  -1.24217E+4   4.99519E+3
  -1.24577E+4   4.99277E+3
  -1.23519E+4   5.02124E+3
  -1.22708E+4   4.92032E+3
  -1.21075E+4   4.89162E+3
  -1.20675E+4   4.96013E+3
  -1.20025E+4   4.97619E+3
  -1.18455E+4   5.00702E+3
  -1.17919E+4   4.91677E+3
  -1.17157E+4   4.92046E+3
  -1.16274E+4   4.89779E+3
  -1.15521E+4   4.96803E+3
  -1.14503E+4   4.91936E+3
  -1.14196E+4   4.99973E+3
  -1.12995E+4   4.90480E+3
  -1.12213E+4   4.95540E+3
  -1.11493E+4   4.89412E+3
  -1.10308E+4   4.85830E+3
  -1.09685E+4   4.94047E+3
  -1.08507E+4   4.87421E+3
  -1.08640E+4   4.86236E+3
  -1.07032E+4   4.91665E+3
  -1.06621E+4   4.86381E+3
  -1.05524E+4   4.94081E+3
  -1.05203E+4   4.90492E+3
  -1.03276E+4   4.81564E+3
  -1.02836E+4   4.85457E+3
  -1.02990E+4   4.93422E+3
  -1.01892E+4   4.91124E+3
  -1.01549E+4   4.85605E+3
  -1.00407E+4   4.85919E+3
  -9.92763E+3   4.79554E+3
  -9.83698E+3   4.76471E+3
  -9.76974E+3   4.78653E+3
  -9.66954E+3   4.78370E+3
  -9.64597E+3   4.79249E+3
  -9.60127E+3   4.73835E+3
  -9.60032E+3   4.80159E+3
  -9.51198E+3   4.69597E+3
  -9.34130E+3   4.63831E+3
  -9.26122E+3   4.61849E+3
  -9.18801E+3   4.72266E+3
  -9.16759E+3   4.68481E+3
  -9.17533E+3   4.64458E+3
  -8.96883E+3   4.69597E+3
  -8.96241E+3   4.64608E+3
  -8.93624E+3   4.58059E+3
  -8.83112E+3   4.58439E+3
  -8.78104E+3   4.57497E+3
  -8.65867E+3   4.58101E+3
  -8.66560E+3   4.57427E+3
  -8.61545E+3   4.55333E+3
  -8.46382E+3   4.45704E+3
  -8.48683E+3   4.48342E+3
  -8.40867E+3   4.40846E+3
  -8.35253E+3   4.43244E+3
  -8.22562E+3   4.42348E+3
  -8.14816E+3   4.38145E+3
  -8.06177E+3   4.39818E+3
  -8.06492E+3   4.42427E+3
  -8.00891E+3   4.38472E+3
  -7.91352E+3   4.30465E+3
  -7.93577E+3   4.22059E+3
  -7.77059E+3   4.27795E+3
  -7.78675E+3   4.34320E+3
  -7.76088E+3   4.25639E+3
  -7.67786E+3   4.26662E+3
  -7.60058E+3   4.17957E+3
  -7.56621E+3   4.23948E+3
  -7.45667E+3   4.11429E+3
  -7.51897E+3   4.09328E+3
  -7.35895E+3   4.15556E+3
  -7.40959E+3   4.07339E+3
  -7.32434E+3   4.10884E+3
  -7.22880E+3   4.13826E+3
  -7.18078E+3   4.09625E+3
  -7.06679E+3   3.98757E+3
  -7.12547E+3   4.01603E+3
  -7.06739E+3   3.99170E+3
  -6.93766E+3   3.90550E+3
  -6.85695E+3   3.90794E+3
  -6.84690E+3   3.89617E+3
  -6.80564E+3   3.90679E+3
  -6.74439E+3   3.96862E+3
  -6.72629E+3   3.88524E+3
  -6.67279E+3   3.87436E+3
  -6.63516E+3   3.82869E+3
