 
 $NMID
 ID=''
 FMTDAT='(2E13.5)'
 TRAMP=   1.00000E+0
 VOLUME=   1.00000E+0
 $END
   4.52727E+2   5.81109E+2
  -1.15219E+3   2.12985E+3
   5.86917E+3  -1.15578E+3
   1.67710E+3  -1.79020E+3
  -1.79588E+3  -3.36745E+3
   1.73265E+3   1.53553E+2
  -2.09410E+3  -8.21601E+2
  -1.22022E+3  -3.33660E+3
  -5.63669E+2  -1.48693E+3
  -3.73305E+2  -2.28482E+3
  -1.34223E+3  -1.51713E+2
   3.07235E+2   5.06151E+3
  -3.23981E+3   5.01448E+3
  -2.56350E+3  -1.14750E+3
   8.51802E+2  -1.42053E+3
   2.40430E+3  -5.50246E+2
   3.06294E+3   3.12701E+3
   1.69033E+3   3.66594E+3
  -6.13011E+2   1.40541E+2
   5.87846E+2  -1.09130E+3
   1.18323E+3  -9.65974E+2
  -9.67543E+2   3.14338E+3
  -2.64102E+3  -1.45094E+3
   2.41498E+3  -1.57231E+3
   2.18589E+3  -1.89767E+2
   4.23341E+2   1.83775E+3
  -2.50261E+3  -1.34587E+3
  -1.67223E+3  -3.14106E+3
   1.81304E+3  -2.80541E+3
   1.77422E+3  -2.42723E+2
  -3.60947E+2   6.83476E+3
  -6.81769E+3  -8.86993E+2
  -4.05459E+3  -3.39552E+3
   1.68125E+3  -2.74488E+3
  -1.84302E+3  -7.77635E+2
  -5.25367E+2  -2.41412E+3
   5.34377E+3   4.62822E+2
   7.88197E+2   2.95761E+3
  -2.72759E+3   2.14616E+3
   1.65094E+2   7.17274E+2
  -3.01321E+3   1.69132E+3
  -9.96315E+2  -1.31418E+3
   9.32873E+2  -5.49606E+3
   6.62425E+3  -1.22388E+3
   2.85025E+3   1.09809E+3
   1.42146E+3   1.53752E+3
   2.27970E+3   7.04570E+2
   4.01955E+2   9.32932E+2
  -3.45275E+2  -7.11068E+1
  -2.61719E+3  -3.67809E+2
  -1.29578E+3  -2.16232E+3
   3.42054E+3  -9.77640E+2
   2.61788E+3   2.42408E+3
   1.96155E+2   5.15120E+3
  -1.87435E+3   3.06484E+3
  -3.12775E+3   2.09230E+3
  -2.23838E+3   7.33794E+2
  -1.30372E+3  -2.10755E+3
   1.15076E+3  -5.21785E+3
   2.86924E+3  -1.80854E+3
   2.72618E+3  -9.10308E+2
  -1.55950E+2   2.83404E+3
  -3.14254E+3  -1.42282E+3
  -1.19866E+3  -1.63053E+3
   1.79673E+3  -1.56376E+3
   5.87016E+2   8.42968E+2
   4.75838E+2   2.79295E+3
  -2.49956E+3   2.86057E+2
   5.16768E+2  -2.58467E+3
   7.17425E+2  -1.78161E+2
  -5.46364E+1   2.83727E+3
  -2.45607E+3  -1.50172E+3
  -7.09329E+2  -9.02864E+2
  -1.40142E+3  -2.61499E+2
  -1.75111E+3   9.05008E+2
  -9.95124E+2   6.59741E+2
  -3.48715E+2  -1.67152E+3
   1.26012E+3  -6.66545E+2
   1.18229E+3   6.58201E+2
  -1.81604E+2  -5.26039E+2
  -1.99110E+3  -2.13847E+3
   1.19965E+3  -2.39673E+3
  -3.96353E+2   7.58622E+2
  -8.61189E+2   3.21264E+2
  -1.77861E+3  -2.33830E+3
  -2.09444E+3  -4.09444E+3
   1.80858E+3  -5.14945E+3
   4.22730E+3  -6.69840E+2
   1.32037E+3   3.92944E+2
  -2.92694E+2  -1.68015E+3
   2.03694E+3  -1.93747E+3
   1.37890E+3   1.63226E+3
  -3.34133E+2  -2.23520E+2
  -2.80645E+3  -1.39535E+2
  -2.85689E+3  -2.62594E+3
   2.13452E+3  -2.72012E+3
   3.14411E+3  -6.00504E+2
  -1.42525E+3   2.13903E+2
  -2.38624E+3   5.73063E+2
   1.08320E+3  -3.84391E+3
   3.68482E+3  -1.52080E+3
   2.78246E+3   1.95405E+3
   6.13137E+2   3.31521E+3
  -1.21037E+3   2.32863E+3
  -1.01118E+3  -7.09926E+1
  -1.70505E+3   5.72012E+2
  -1.41293E+3   3.10311E+2
  -1.10954E+3  -9.21044E+2
   5.17960E+2   6.78902E+2
   2.85627E+3  -6.56967E+2
   3.72015E+3   2.49036E+3
   4.72442E+2   3.88561E+3
  -1.50545E+3   3.68321E+3
  -9.91102E+2   4.01601E+3
  -4.22015E+2   2.84585E+3
  -2.42544E+3   1.50822E+3
   9.86534E+1  -1.42238E+3
  -6.26325E+2  -4.29897E+2
   2.40012E+3   2.96992E+2
   4.89586E+2   2.43691E+3
  -7.32611E+1   1.26763E+3
  -1.40215E+3  -5.75500E+2
  -5.73089E+2  -2.07768E+3
   1.41398E+3   2.73744E+2
  -3.46651E+1   1.00564E+3
  -2.13487E+3  -1.50757E+3
   1.40031E+3  -8.89563E+2
   9.00263E+2  -7.51756E+1
  -1.33394E+3   3.66837E+2
  -1.52436E+3  -1.21434E+3
   2.59155E+3  -2.56219E+2
   2.62542E+3  -4.97371E+2
   3.15644E+3   2.33489E+3
  -1.34797E+3   4.62497E+3
  -4.15663E+3   1.28780E+3
  -2.05130E+2   1.17826E+3
  -7.76564E+1   1.33137E+3
  -6.58391E+2   5.65637E+2
  -1.50368E+3   5.18601E+2
   6.94781E+2   2.92678E+3
   6.09468E+2   1.06036E+3
   2.17264E+3   3.57481E+2
  -3.19742E+2   2.91410E+3
  -1.44409E+3   2.17998E+3
  -1.16846E+3   3.65150E+2
  -1.30194E+3  -3.02524E+2
  -7.05316E+2  -3.51541E+2
  -1.25829E+2  -5.42041E+2
  -5.81564E+2  -1.95965E+3
  -2.10144E+2  -5.71982E+2
   2.78403E+3  -1.55542E+3
   1.40276E+3  -1.36992E+3
   9.46032E+2  -1.72106E+3
   2.82849E+3  -4.26969E+2
   1.71882E+3   2.28291E+3
   1.02173E+3   1.76263E+3
   7.47291E+2   2.80557E+2
  -4.25314E+1  -9.16243E+2
  -3.89067E+2  -2.26550E+3
   1.66482E+3  -1.52786E+3
  -1.34976E+1  -6.00512E+2
   1.64443E+2  -6.46786E+2
   1.22620E+2  -2.24273E+2
  -9.56387E+2  -1.14469E+3
  -9.57728E+2  -2.76148E+2
  -2.21714E+3   2.01129E+3
   2.97615E+2  -3.52753E+3
   1.51203E+3   3.38009E+2
   1.45965E+2   3.27201E+3
  -2.29160E+3   2.27236E+3
  -2.61141E+3   2.39842E+3
  -2.41462E+3  -3.76803E+2
   1.25188E+2  -7.01096E+2
  -1.90518E+3  -1.30148E+2
   5.45486E+2  -5.89994E+2
   1.23746E+3  -2.12433E+3
   2.30497E+3   1.01676E+3
  -6.12666E+2   2.02341E+3
   1.37903E+2   9.63095E+2
  -3.04484E+3  -1.02370E+3
   2.98288E+2  -2.75347E+3
   8.69476E+2   4.95460E+2
  -3.16411E+2   4.03858E+2
  -9.07162E+2   9.64725E+0
   3.43293E+2   2.11426E+3
   6.84352E+1   1.34662E+3
   2.56775E+2   3.68338E+3
  -2.53915E+3   9.39467E+2
   5.91097E+2  -1.27286E+3
   7.77608E+2   1.08862E+3
   4.70207E+2   6.61043E+2
   2.00105E+2  -1.65184E+3
  -4.85298E+2   4.44271E+2
  -1.09933E+3   9.45285E+2
  -8.97231E+2   6.76165E+2
  -2.59857E+3   1.62541E+3
  -2.44391E+2   9.58400E+1
  -3.18502E+2  -7.75840E+2
   4.88310E+2   3.55649E+2
   1.86689E+3   1.69662E+3
  -3.36954E+3   9.84399E+2
  -4.44961E+2  -1.64659E+3
   2.28699E+2  -2.52764E+3
   6.07149E+2   9.92113E+2
   1.48643E+2   1.14315E+3
  -3.09480E+2   8.57444E+2
   2.61060E+3  -3.49847E+2
   7.16614E+2   9.68074E+2
   1.17453E+3   1.48306E+3
   1.09746E+3   4.59725E+2
  -5.24955E+2  -1.99520E+2
   1.09794E+3  -6.76680E+2
   3.32207E+3   6.30165E+2
   1.65770E+3   1.05990E+3
  -1.20855E+3   1.65063E+2
   7.30515E+2   1.83011E+2
   7.07687E+2  -2.08439E+3
  -1.23974E+3  -3.37671E+2
  -4.83754E+2  -2.52538E+2
  -2.98203E+2   7.13923E+2
  -6.23078E+2   3.05439E+2
  -1.98490E+3  -5.64820E+2
   2.76133E+2   1.18150E+3
  -5.16773E+2  -1.04347E+3
  -3.34331E+2  -7.86949E+2
   1.82287E+3  -2.00746E+2
  -7.63344E+2  -5.53427E+2
   3.30801E+1   3.99357E+2
  -2.18169E+3  -1.05431E+3
  -4.96150E+1   5.01861E+2
   1.00690E+3   1.64498E+3
  -3.43689E+2   5.87935E+2
  -1.11894E+3   6.97799E+2
   7.91884E+2   1.17151E+2
   2.16121E+3   1.36947E+3
   1.00168E+3   1.91048E+3
  -1.23520E+3   2.37907E+3
  -2.13950E+3   9.31911E+2
   2.49817E+3   1.22905E+3
  -3.29674E+2  -1.46730E+2
   6.91674E+2  -1.25529E+2
  -3.23151E+2   2.44612E+3
  -3.24058E+2  -4.08250E+2
  -1.40415E+3  -4.92886E+3
  -3.76609E+2   1.54747E+3
   1.63474E+2   3.22729E+2
  -8.85347E+2   8.41252E+2
   1.80260E+3  -7.32267E+2
   4.50304E+2   9.59858E+2
  -1.94981E+3   2.09089E+3
   7.54784E+2   1.91848E+3
   1.15984E+3  -2.70694E+2
  -5.41022E+2  -3.21799E+3
   1.19188E+3  -3.54623E+2
  -2.09482E+3  -5.82292E+2
   1.23081E+3  -8.15032E+2
   1.44226E+3   1.06700E+3
   6.05979E+2  -8.06262E+2
   1.23224E+2   1.19278E+3
  -7.97101E+2  -9.30497E+2
  -2.09164E+3  -1.82307E+3
   3.05162E+3  -1.55315E+3
   8.58409E+2   2.49006E+2
   2.35450E+2   3.30493E+2
  -3.40847E+2  -3.30594E+2
   6.16398E+2  -1.78394E+3
  -1.64743E+3  -5.08128E+1
  -3.09837E+3  -1.10294E+3
   2.06758E+2  -1.39553E+3
   1.28301E+2  -5.21508E+2
   2.86576E+2  -7.28541E+1
   8.01172E+2  -1.04027E+2
  -1.85516E+3  -6.37063E+2
  -7.11098E+2   3.15635E+2
  -7.29686E+2  -4.89689E+2
  -2.51660E+2  -1.32573E+2
   1.03703E+3  -1.94591E+2
  -7.56754E+2   9.81286E+2
  -1.26847E+3  -9.53409E+2
  -1.40409E+2   5.36485E+2
   1.90437E+3   1.01986E+3
  -2.08302E+3   7.11152E+2
  -1.14706E+2  -3.66169E+2
   2.10931E+3  -6.52668E+2
   1.49332E+3  -7.97516E+2
  -1.02881E+3  -1.04004E+3
  -1.37686E+2  -1.35983E+3
   2.00547E+1  -1.24673E+3
   3.65990E+3   3.73924E+2
  -1.01044E+3   1.02103E+3
   1.24212E+3   1.14396E+2
  -2.68769E+3  -2.87159E+2
   9.11579E+1  -7.33181E+2
   1.43306E+2   1.59996E+2
  -9.83542E+2  -5.42361E+2
   1.77018E+3   8.63799E+2
  -1.09138E+3  -4.65796E+2
  -4.69617E+1  -1.18415E+3
   5.09360E+2  -1.29580E+3
  -1.28822E+3  -3.81981E+2
  -4.33195E+2  -6.01545E+2
   6.16233E+2  -2.98347E+1
   6.68308E+2   4.38402E+2
  -4.93642E+2  -2.24893E+3
  -2.60897E+2  -5.39666E+2
   8.82611E+2  -1.82157E+3
   2.11602E+3   7.25993E+2
  -3.89737E+2  -1.27776E+3
   9.76521E+2  -9.19848E+2
  -1.19041E+3  -3.58399E+3
   1.56676E+2   2.78849E+2
   7.04866E+2  -8.66233E+2
  -1.95886E+2   7.74291E+2
  -2.46884E+2  -1.34332E+1
   3.13551E+2   5.33272E+2
   6.34090E+2  -1.15800E+3
  -8.36102E+1  -1.03675E+3
  -9.70141E+2  -1.39199E+3
  -7.91568E+2   7.66888E+2
  -6.52951E+2  -2.17221E+3
   4.83467E+2   1.10193E+2
   4.48946E+2  -9.04846E+2
   7.68553E+2  -1.92476E+3
  -8.22156E+2  -5.10286E+2
   1.18718E+3   5.37240E+2
   7.16692E+2  -1.73207E+2
  -9.87392E+2  -1.42587E+3
   2.44614E+3   1.73646E+3
  -3.65477E+2   4.87312E+2
   1.13483E+3   1.66581E+3
  -1.00593E+2   3.72203E+2
  -3.89141E+1  -5.35256E+2
  -2.41922E+3  -8.22904E+2
   1.19560E+3  -1.05782E+3
  -1.83872E+2  -8.25672E+2
   1.34836E+3  -6.31229E+2
  -1.34386E+2  -7.25575E+2
   9.35361E+2  -8.06393E+2
  -4.43253E+2   1.63962E+3
  -9.75204E+2  -9.06010E+2
   6.96645E+2  -2.04212E+3
   4.59008E+2  -2.01071E+3
  -3.40416E+2  -2.46107E+3
   4.37990E+2   7.57220E+2
  -3.92650E+2  -2.57713E+3
  -1.63974E+3  -8.46053E+2
  -2.03802E+3  -9.49066E+2
   4.31851E+2   4.81222E+2
   5.91947E+2   1.33844E+3
   8.58793E+1  -6.46030E+2
  -2.52474E+2  -1.04896E+3
  -4.83851E+2   2.24903E+3
   9.92658E+2   1.85586E+3
  -9.97416E+2   6.16512E+2
   1.85383E+3  -1.61059E+3
  -7.29531E+1   4.34797E+2
   1.55952E+3   1.22564E+3
  -1.52425E+2  -7.77157E+2
  -3.24762E+2  -7.18125E+2
   3.71568E+2   3.11637E+2
   3.15932E+2   7.86335E+2
   6.43315E+2  -6.81487E+1
   5.32446E+1   2.78202E+2
  -1.72450E+3   6.22164E+2
   1.09479E+3  -6.19576E+2
   2.19277E+3   4.65499E+2
  -3.58427E+2  -8.28731E+2
