 
 $NMID
 ID=''
 FMTDAT='(2E13.5)'
 TRAMP=   1.00000E+0
 VOLUME=   1.00000E+0
 $END
  -2.62571E+2  -1.03826E+2
   1.28184E+3  -2.01221E+2
  -1.48881E+3  -3.14531E+2
   7.92430E+2  -2.04940E+3
  -3.08811E+3  -2.08264E+3
  -3.27460E+3   3.51614E+3
   2.14213E+3   3.62808E+3
   3.51375E+3   3.25504E+3
   7.79723E+1  -1.66596E+3
  -9.29976E+2   1.01198E+3
   4.16922E+2  -1.73756E+3
   4.43492E+3  -2.17649E+3
   4.34006E+3  -2.14934E+2
   2.11589E+3  -1.53472E+2
  -1.58271E+3   2.42983E+2
   3.08043E+2  -4.46182E+3
   5.86378E+2  -4.77816E+3
  -3.69184E+2  -1.35658E+3
  -1.35687E+3  -1.25472E+3
  -3.06854E+3  -3.40230E+2
  -1.73791E+3  -1.90194E+3
   9.71202E+2  -2.34224E+3
   1.64897E+3   1.92862E+3
  -2.95080E+3   9.13324E+2
  -3.65868E+3  -5.23034E+2
   5.28865E+2   9.13917E+1
   6.16858E+0   2.01557E+3
  -3.30333E+3   2.40052E+3
  -4.09127E+3   1.03049E+3
  -4.01093E+2  -3.10424E+3
   1.81629E+3  -1.27379E+3
   5.82321E+3   5.26843E+3
  -1.15436E+3   3.65633E+3
  -9.46846E+2   7.78453E+2
   7.80850E+2   1.36207E+3
  -2.64850E+3   2.10190E+3
  -2.67844E+3  -3.01212E+3
   5.08404E+2  -3.48013E+3
   2.67894E+3  -3.95845E+2
   8.71318E+2   8.37806E+2
   3.68741E+3   1.38905E+3
   1.65774E+3   4.28556E+3
  -4.58253E+3   1.90557E+3
  -3.62180E+3  -2.02397E+3
  -2.00925E+3  -3.38020E+3
  -6.94580E+2  -6.58922E+2
  -5.26701E+2  -2.25711E+3
   1.23614E+3  -1.92515E+3
   2.58720E+3   1.90816E+3
  -2.97471E+2   8.18267E+2
  -1.06147E+3   4.14884E+3
  -9.25898E+2   1.63931E+3
   6.04083E+1  -2.11471E+2
   2.11711E+3  -2.68350E+3
  -1.67365E+2  -1.06155E+3
   2.55192E+3   4.36828E+2
   2.40124E+3   2.90971E+3
   3.19338E+2   3.87550E+3
  -1.79290E+3   3.02319E+3
  -6.16538E+3  -8.07004E+2
  -2.18668E+3  -4.46721E+3
  -6.12503E+2  -3.00909E+3
   1.55547E+3  -3.21167E+3
   1.71107E+3  -3.66912E+2
  -9.03862E+2  -1.75850E+2
  -6.37512E+2  -1.69386E+3
   2.85413E+3  -1.52783E+3
   1.69984E+3   7.03573E+2
  -4.66917E+2   3.57359E+2
   1.31790E+3  -1.16789E+3
   1.55820E+3   1.25065E+3
   8.74108E+2  -5.18227E+2
   3.95646E+2   1.13054E+3
  -7.01348E+1   2.15843E+3
   5.03383E+2  -5.23750E+2
   9.45154E+2  -1.08687E+3
   6.19167E+2   6.59590E+2
   1.58027E+3   1.16873E+3
  -8.46142E+2  -1.89839E+3
   2.34646E+2  -1.26339E+3
  -4.32806E+1  -2.18597E+1
  -6.07121E+2  -4.71829E+2
   1.03968E+3  -2.71919E+3
   2.28918E+3  -2.85820E+3
   2.80405E+3   5.23815E+2
   1.01114E+3   7.04747E+2
  -1.02342E+3   8.58389E+2
  -1.97730E+3   9.28256E+2
  -3.89103E+3  -1.68654E+3
   1.76618E+2  -1.94060E+3
  -3.80444E+2  -9.70306E+2
  -1.26464E+3  -5.13482E+2
   8.42397E+2  -2.56672E+3
   3.46121E+3  -1.34548E+3
   3.93338E+3   1.59240E+3
   1.09450E+3   1.85969E+3
  -1.89937E+3   1.51171E+3
  -1.55398E+3  -4.01819E+3
   1.39192E+3  -1.50166E+3
   1.71162E+3   3.40218E+3
  -1.68886E+3   3.85504E+3
  -1.99687E+3   1.89365E+2
  -1.50001E+3  -3.23523E+3
   2.79910E+3  -9.16727E+2
   2.89895E+3   6.91725E+2
  -1.73169E+2  -1.83065E+3
   3.56221E+2  -6.15089E+2
   3.29713E+3   1.21796E+3
   3.47637E+3   1.90063E+3
  -2.67182E+2   3.98184E+3
  -2.80968E+3   2.63382E+3
  -1.09314E+3  -7.15189E+2
  -3.83742E+2  -8.19305E+2
  -1.28845E+3  -3.56433E+2
  -6.59494E+2  -7.65394E+2
   3.79573E+1   1.11790E+3
   9.87799E+2   2.01043E+3
  -1.51474E+3   2.45344E+3
  -1.65394E+3   8.37260E+2
  -3.61221E+3  -9.29286E+2
  -1.45718E+3   3.11751E+2
   2.98000E+2  -9.37493E+2
  -3.62497E+2   1.55178E+3
  -7.16730E+2   1.00053E+3
  -4.82617E+2  -5.76065E+2
  -6.06005E+2   1.31960E+3
   1.81160E+2  -3.21281E+2
   1.75833E+2   4.88309E+2
   1.52295E+3   9.58795E+2
  -8.95549E+0   2.40456E+2
   2.06521E+3  -9.20790E-1
  -1.86781E+3  -1.22137E+2
   9.21049E+2   1.04169E+3
   1.30606E+3  -1.77239E+3
   2.91165E+0   1.25976E+3
   7.71587E+2   7.61989E+2
  -2.55087E+2   8.18914E+2
   2.22889E+2   3.51702E+3
  -5.29599E+2   2.52484E+2
  -4.52062E+2  -8.68105E+2
  -5.67852E+2   2.10279E+3
   5.71977E+2   2.19825E+2
  -1.69982E+3   1.05541E+3
  -5.26302E+2   6.75694E+2
  -9.40109E+2  -3.49099E+1
  -1.26487E+3   2.46328E+3
  -7.80756E+2  -2.39563E+3
  -8.13119E+2   2.73591E+2
  -1.00497E+3   3.81023E+2
  -6.24286E+2  -1.44452E+3
   1.08681E+3  -1.70398E+3
  -6.46725E+2  -2.56530E+2
   9.45423E+2  -2.65381E+1
  -2.45528E+3  -9.70162E+2
  -1.70004E+3   1.90932E+3
  -2.31202E+2  -1.02817E+3
   3.25949E+2  -1.68073E+3
   6.29383E+2  -9.10369E+1
   4.24133E+1  -1.58987E+2
  -7.07176E+2  -1.20332E+3
  -8.16863E+2   5.00471E+2
   5.31097E+2   6.19291E+2
  -1.21971E+3   2.20063E+3
  -7.29345E+2   8.07654E+2
   9.03309E+2   9.87235E+1
   2.67419E+2   1.30732E+3
   6.07490E+2   8.02060E+2
  -1.07837E+3   2.00289E+2
  -2.44477E+3  -5.83458E+2
  -2.47665E+3  -1.11015E+3
  -2.14042E+2  -1.29016E+3
   6.22099E+2  -1.25169E+3
   8.30045E+2   5.41178E+2
   5.73619E+2  -1.90460E+2
  -7.84433E+2  -1.49303E+3
   1.24750E+3  -1.27310E+3
  -1.81584E+3  -1.74359E+2
  -6.03006E+1  -1.15703E+3
  -7.24269E+2  -3.05409E+2
   2.36230E+3  -1.08631E+3
   8.94806E+2   1.21956E+3
   1.51646E+3   1.08417E+3
  -2.14339E+2   6.23364E+2
   3.59691E+2  -6.62148E+2
   2.67153E+1  -1.12239E+3
   4.50425E+2  -8.75552E+2
  -1.77950E+3  -7.84285E+2
   1.22200E+3   4.08376E+2
   3.65380E+2   5.44437E+2
   1.33547E+3   1.18432E+3
   5.95899E+2  -1.28996E+3
   1.36221E+2   6.46131E+2
  -7.00076E+2   6.85299E+2
   1.04544E+3   3.00074E+2
  -3.37546E+2   8.67578E+2
   1.54460E+3  -7.46283E+2
  -1.20452E+3   8.37999E+2
  -9.80730E+2   3.87730E+2
   2.07208E+3  -7.56529E+2
  -2.02395E+3  -1.70302E+3
  -6.67196E+2   1.09101E+3
   6.54069E+2  -2.72739E+3
   8.14152E+2  -9.04728E+1
   9.39376E+2   1.06298E+3
   2.39244E+2  -1.25571E+3
   2.09986E+2  -2.12024E+3
   9.66053E+1  -9.24836E+1
  -1.07624E+3  -1.27478E+3
  -7.79015E+2   9.49206E+2
  -2.37854E+3   3.60684E+2
  -7.08200E+2  -1.86998E+3
   2.19666E+3  -6.93573E+2
   5.14246E+2   1.37139E+3
  -2.70360E+2  -2.65767E+2
  -5.71969E+1  -1.21877E+3
   2.10503E+3   6.39042E+2
   1.36488E+3  -1.46251E+3
  -1.80466E+2  -1.15104E+3
  -1.13441E+3   1.55820E+3
   7.88011E+1  -7.39366E+2
  -3.44696E+2   4.36253E+2
   3.48174E+2   9.44964E+2
   8.05164E+2   1.07114E+3
  -1.05448E+3  -1.00220E+2
  -1.40297E+3   4.71987E+2
   9.09532E+2   6.43314E+2
  -7.36318E+1   5.15254E+2
  -1.67013E+3   1.29185E+2
  -1.02456E+3  -1.39822E+3
  -1.08764E+3  -1.92813E+3
  -1.04927E+3  -3.58492E+2
  -1.82905E+2  -2.31262E+2
  -7.50711E+2   8.93489E+2
   7.33735E+2  -9.72996E+1
   1.08780E+3   2.38345E+3
  -2.02446E+3  -7.10800E+2
   6.43227E+2  -6.51703E+2
   1.57729E+3  -1.29197E+3
   2.62204E+1  -4.35674E+2
  -1.23037E+3   1.10930E+3
  -7.92505E+2   6.84004E+2
   4.06155E+2  -2.06175E+2
   3.41644E+2  -1.82331E+2
   2.86530E+0   1.98261E+2
  -4.14723E+2   1.11206E+3
   1.83488E+3  -9.88823E+2
  -7.06436E+1  -3.62119E+2
   3.11230E+2  -8.00360E+2
   5.87719E+2   6.59893E+2
  -1.29855E+3   1.11864E+3
  -1.34123E+3  -2.94384E+3
   1.38954E+3   6.69000E+2
   2.19847E+3  -6.97777E+1
   6.53186E+2  -2.33166E+2
   3.63549E+2  -5.20131E+2
   9.90050E+2   7.05399E+2
  -3.54835E+2  -1.45929E+3
   1.27945E+3   5.84397E+2
  -4.91591E+2   8.14849E+2
   5.11376E+1  -8.50285E+2
   6.26839E+2  -9.05107E+2
   1.06654E+3   1.32960E+3
   2.30550E+3   1.39219E+3
   1.83344E+3  -6.96858E+2
  -2.73123E+3   6.20010E+2
   1.51541E+2   2.79065E+2
   1.14778E+3   5.54166E+2
   1.11928E+3   1.79339E+3
   5.63895E+2   2.11007E+3
  -1.02172E+2   4.80277E+2
  -6.13176E+2  -2.65839E+2
  -1.75245E+3  -6.24986E+2
  -4.49155E+2   4.75995E+2
   8.38736E+2  -1.29004E+3
   8.16814E+2  -8.35484E+2
  -2.18269E+3  -3.52670E+2
   6.70545E+1  -5.88218E+2
  -1.48700E+3  -4.61503E+2
  -1.31502E+3  -1.93367E+3
   1.09431E+3   1.91884E+1
  -4.81315E+2   3.40062E+2
  -2.16842E+3  -2.59011E+1
   4.25540E+2   1.37400E+3
   7.19615E+2   1.03785E+3
  -4.43254E+2   1.00038E+3
  -2.48287E+3  -4.23021E+2
  -2.47129E+2   3.63583E+2
   1.24063E+3  -1.22225E+3
   6.91764E+2   1.48300E+3
  -1.03243E+3   1.38722E+3
  -5.52077E+2  -1.24092E+2
  -1.47719E+3  -5.53641E+2
   4.36024E+2  -3.20243E+1
  -8.25239E+2   1.85432E+3
   1.75361E+3   7.28891E+2
  -8.23190E+2  -3.65218E+2
   1.06802E+3   1.53379E+3
   1.82353E+2   6.05134E+2
   2.32318E+3   1.03355E+2
  -3.86630E+2   1.34156E+3
   2.46805E+2   7.02059E+2
  -6.08820E+2   7.54137E+2
  -6.55808E+2  -1.83212E+3
  -5.97575E+2  -1.78215E+3
   6.84650E+2  -9.10866E+2
   2.18169E+3   1.28274E+3
   1.51621E+3   1.21621E+3
  -6.58722E+2  -6.07288E+2
   3.40802E+2   3.02634E+2
   2.19714E+3  -2.64646E+3
  -3.21642E+2   1.03064E+3
   9.88418E+2  -6.22205E+2
  -7.36565E+2   1.01333E+2
  -1.12327E+3   5.09331E+2
   2.56986E+3   9.94949E+2
  -4.24430E+2   5.29416E+1
   1.79945E+3   1.02050E+2
  -2.00800E+2  -3.60077E+3
   1.18559E+3  -9.28893E+2
   7.09149E+2   8.82683E+2
   1.31219E+3  -1.08787E+3
  -3.06225E+2   1.01151E+3
  -6.72042E+2  -3.71529E+2
   7.93326E+2   3.02611E+2
   9.04057E+2   8.09554E+2
  -1.05986E+2   5.26352E+2
   4.71647E+2  -7.26037E+2
   3.60604E+2  -1.94521E+2
   1.10647E+3   1.78630E+3
  -8.83325E+2   3.11156E+2
   5.07506E+2  -1.19415E+3
   2.10968E+2  -1.52271E+3
   6.72889E+2  -1.03714E+3
   3.47014E+2   1.02435E+1
  -1.23290E+3  -9.26360E+2
   2.83963E+2   1.28285E+3
   1.18824E+3   3.46750E+2
  -1.02816E+3   1.26104E+3
   3.73220E+2  -1.98193E+3
   1.74413E+3   1.14677E+3
  -2.33122E+1  -5.01694E+2
   6.04474E+2  -4.10342E+2
  -3.72257E+2   1.42927E+3
   1.29903E+3   1.18086E+2
  -1.10582E+3  -2.22709E+2
   8.92698E+2  -1.23421E+3
   6.66282E+0  -7.16732E+2
   2.00485E+3   1.02376E+3
  -2.33849E+2   4.69196E+2
  -9.62472E+2   1.55354E+3
   1.61744E+3  -1.31492E+3
   2.27688E+2  -5.50969E+2
  -1.20332E+3   1.49917E+2
  -9.45695E+2   9.77093E+1
  -1.18995E+3   9.84594E+2
   1.02527E+3   3.73765E+2
  -1.64309E+3   2.09545E+3
   5.56576E+2   3.48213E+2
  -1.05265E+3  -4.18758E+2
   1.75939E+2  -1.51664E+2
   3.97204E+1  -5.38714E+2
  -3.08307E+2   1.73523E+3
   4.52146E+2  -1.61624E+3
  -2.27771E+3   9.41978E+2
  -1.77004E+2  -1.21007E+3
  -1.12305E+3   3.93108E+2
   1.68631E+2   8.21100E+2
