 
 $NMID
 ID=''
 FMTDAT='(2E13.5)'
 TRAMP=   1.00000E+0
 VOLUME=   1.00000E+0
 $END
  -1.04174E+4   1.69860E+4
  -3.79407E+4   3.43479E+4
  -3.09162E+4   4.02878E+4
  -2.82942E+4   3.71226E+4
  -3.05233E+4   3.75764E+4
  -2.87984E+4   3.91663E+4
  -2.79414E+4   3.75991E+4
  -2.89208E+4   3.78654E+4
  -2.76425E+4   3.89911E+4
  -2.67463E+4   3.80920E+4
  -2.71432E+4   3.81462E+4
  -2.58922E+4   3.87557E+4
  -2.49810E+4   3.83516E+4
  -2.52858E+4   3.83531E+4
  -2.42639E+4   3.86465E+4
  -2.34161E+4   3.80675E+4
  -2.34211E+4   3.80007E+4
  -2.25841E+4   3.82390E+4
  -2.18499E+4   3.78278E+4
  -2.18401E+4   3.78236E+4
  -2.11575E+4   3.79385E+4
  -2.04174E+4   3.76843E+4
  -2.03535E+4   3.77984E+4
  -1.99058E+4   3.78696E+4
  -1.92512E+4   3.76003E+4
  -1.91330E+4   3.76558E+4
  -1.87386E+4   3.77532E+4
  -1.83100E+4   3.74436E+4
  -1.82130E+4   3.73423E+4
  -1.77267E+4   3.74197E+4
  -1.70966E+4   3.72099E+4
  -1.68951E+4   3.73394E+4
  -1.65493E+4   3.73463E+4
  -1.61155E+4   3.70880E+4
  -1.57243E+4   3.71138E+4
  -1.53251E+4   3.71096E+4
  -1.48374E+4   3.69487E+4
  -1.43718E+4   3.69487E+4
  -1.38949E+4   3.71116E+4
  -1.34215E+4   3.70165E+4
  -1.30119E+4   3.70410E+4
  -1.27388E+4   3.71709E+4
  -1.23794E+4   3.69323E+4
  -1.19138E+4   3.68309E+4
  -1.14789E+4   3.68450E+4
  -1.10835E+4   3.67858E+4
  -1.08365E+4   3.66796E+4
  -1.04417E+4   3.66557E+4
  -1.00629E+4   3.65638E+4
  -9.77168E+3   3.64992E+4
  -9.41031E+3   3.64484E+4
  -9.07894E+3   3.62421E+4
  -8.68129E+3   3.61806E+4
  -8.28259E+3   3.60801E+4
  -7.95830E+3   3.60676E+4
  -7.59170E+3   3.59253E+4
  -7.31964E+3   3.58745E+4
  -6.95533E+3   3.56973E+4
  -6.71798E+3   3.55144E+4
  -6.26185E+3   3.53722E+4
  -5.93514E+3   3.52107E+4
  -5.56587E+3   3.50585E+4
  -5.30754E+3   3.50267E+4
  -5.00567E+3   3.48864E+4
  -4.71299E+3   3.47770E+4
  -4.40090E+3   3.46593E+4
  -4.05655E+3   3.46256E+4
  -3.77922E+3   3.45126E+4
  -3.44705E+3   3.44041E+4
  -3.29657E+3   3.41918E+4
  -2.88671E+3   3.40802E+4
  -2.63108E+3   3.39773E+4
  -2.34373E+3   3.37365E+4
  -2.04415E+3   3.35845E+4
  -1.70552E+3   3.34298E+4
  -1.34345E+3   3.32909E+4
  -1.11037E+3   3.31963E+4
  -8.88408E+2   3.29540E+4
  -5.04206E+2   3.28370E+4
  -2.22398E+2   3.27083E+4
   5.56333E+1   3.26434E+4
   3.83919E+2   3.24827E+4
   6.77649E+2   3.22556E+4
   8.75642E+2   3.21636E+4
   1.06051E+3   3.20717E+4
   1.39376E+3   3.18225E+4
   1.59762E+3   3.16288E+4
   1.78261E+3   3.14421E+4
   2.16898E+3   3.12762E+4
   2.36268E+3   3.11318E+4
   2.65152E+3   3.09838E+4
   2.86757E+3   3.08119E+4
   3.09959E+3   3.07163E+4
   3.36451E+3   3.04838E+4
   3.61459E+3   3.03122E+4
   3.85541E+3   3.01151E+4
   4.16857E+3   2.98408E+4
   4.41127E+3   2.97125E+4
   4.62100E+3   2.95914E+4
   4.75690E+3   2.93508E+4
   4.91134E+3   2.91868E+4
   5.13404E+3   2.89217E+4
   5.42983E+3   2.87829E+4
   5.63886E+3   2.85460E+4
   5.79758E+3   2.83704E+4
   5.96676E+3   2.81164E+4
   6.16661E+3   2.79357E+4
   6.29016E+3   2.77370E+4
   6.37629E+3   2.75363E+4
   6.56447E+3   2.71857E+4
   6.80368E+3   2.70198E+4
   6.97638E+3   2.67467E+4
   7.19919E+3   2.65379E+4
   7.37059E+3   2.63102E+4
   7.45466E+3   2.61519E+4
   7.54833E+3   2.58920E+4
   7.75626E+3   2.56443E+4
   7.80399E+3   2.53338E+4
   8.03542E+3   2.51154E+4
   8.17081E+3   2.48817E+4
   8.33050E+3   2.46279E+4
   8.44312E+3   2.43764E+4
   8.53980E+3   2.42184E+4
   8.64721E+3   2.38952E+4
   8.91609E+3   2.35525E+4
   8.97849E+3   2.33411E+4
   9.08138E+3   2.30869E+4
   9.16769E+3   2.28370E+4
   9.32643E+3   2.25408E+4
   9.45174E+3   2.23200E+4
   9.62183E+3   2.20730E+4
   9.73794E+3   2.18313E+4
   9.87518E+3   2.15231E+4
   1.00634E+4   2.12772E+4
   1.02098E+4   2.10753E+4
   1.02993E+4   2.07599E+4
   1.03976E+4   2.05359E+4
   1.05014E+4   2.02068E+4
   1.05921E+4   1.99354E+4
   1.07326E+4   1.97767E+4
   1.08024E+4   1.94823E+4
   1.09209E+4   1.92185E+4
   1.11010E+4   1.90025E+4
   1.11944E+4   1.87612E+4
   1.12530E+4   1.85602E+4
   1.13210E+4   1.82684E+4
   1.14172E+4   1.79934E+4
   1.15811E+4   1.78136E+4
   1.16911E+4   1.75811E+4
   1.17719E+4   1.73273E+4
   1.18280E+4   1.71048E+4
   1.18158E+4   1.68823E+4
   1.19498E+4   1.66090E+4
   1.20218E+4   1.63714E+4
   1.20709E+4   1.61107E+4
   1.22214E+4   1.59626E+4
   1.22301E+4   1.57035E+4
   1.23414E+4   1.54744E+4
   1.23634E+4   1.52571E+4
   1.24045E+4   1.50455E+4
   1.24892E+4   1.47775E+4
   1.25738E+4   1.46056E+4
   1.25861E+4   1.44136E+4
   1.25538E+4   1.41254E+4
   1.26159E+4   1.39632E+4
   1.26824E+4   1.37463E+4
   1.26743E+4   1.35266E+4
   1.26886E+4   1.32636E+4
   1.27532E+4   1.30416E+4
   1.27984E+4   1.28593E+4
   1.28530E+4   1.26809E+4
   1.28403E+4   1.24616E+4
   1.28966E+4   1.22203E+4
   1.30063E+4   1.20625E+4
   1.29431E+4   1.18497E+4
   1.29543E+4   1.15822E+4
   1.30030E+4   1.14087E+4
   1.30919E+4   1.11914E+4
   1.30293E+4   1.10447E+4
   1.31075E+4   1.08874E+4
   1.30875E+4   1.06799E+4
   1.31552E+4   1.05269E+4
   1.31260E+4   1.02953E+4
   1.31089E+4   1.01064E+4
   1.30764E+4   9.92922E+3
   1.31343E+4   9.76939E+3
   1.32529E+4   9.62846E+3
   1.32073E+4   9.51162E+3
   1.32201E+4   9.31403E+3
   1.32461E+4   9.12209E+3
   1.32108E+4   8.93449E+3
   1.32693E+4   8.84903E+3
   1.32211E+4   8.68602E+3
   1.32562E+4   8.49386E+3
   1.32193E+4   8.33672E+3
   1.32108E+4   8.21496E+3
   1.32594E+4   8.02101E+3
   1.33060E+4   7.86986E+3
   1.32528E+4   7.78225E+3
   1.33423E+4   7.63239E+3
   1.33065E+4   7.53474E+3
   1.32266E+4   7.36707E+3
   1.33045E+4   7.25875E+3
   1.32061E+4   7.03821E+3
   1.32580E+4   6.92040E+3
   1.33384E+4   6.78830E+3
   1.32910E+4   6.71386E+3
   1.32721E+4   6.63103E+3
   1.32187E+4   6.39248E+3
   1.32586E+4   6.36181E+3
   1.32091E+4   6.27966E+3
   1.32202E+4   6.09409E+3
   1.31839E+4   6.00712E+3
   1.31563E+4   5.76384E+3
   1.31304E+4   5.73914E+3
   1.31531E+4   5.60684E+3
   1.31582E+4   5.56102E+3
   1.31337E+4   5.34915E+3
   1.31781E+4   5.25964E+3
   1.31057E+4   5.15211E+3
   1.30836E+4   5.00727E+3
   1.30986E+4   4.95198E+3
   1.31283E+4   4.76991E+3
   1.31165E+4   4.72792E+3
   1.30929E+4   4.63685E+3
   1.30886E+4   4.49147E+3
   1.30238E+4   4.38366E+3
   1.30845E+4   4.30317E+3
   1.30237E+4   4.13597E+3
   1.30078E+4   4.13742E+3
   1.29649E+4   3.96390E+3
   1.29671E+4   3.84279E+3
   1.29402E+4   3.79328E+3
   1.29154E+4   3.69961E+3
   1.29279E+4   3.54438E+3
   1.28750E+4   3.45624E+3
   1.29066E+4   3.39213E+3
   1.28573E+4   3.22607E+3
   1.28735E+4   3.13098E+3
   1.27655E+4   3.00385E+3
   1.27654E+4   2.93860E+3
   1.27903E+4   2.79387E+3
   1.27824E+4   2.82753E+3
   1.27656E+4   2.64824E+3
   1.26962E+4   2.63418E+3
   1.26967E+4   2.46857E+3
   1.26311E+4   2.39174E+3
   1.26212E+4   2.35273E+3
   1.25621E+4   2.12306E+3
   1.25746E+4   2.07677E+3
   1.26241E+4   1.94689E+3
   1.25560E+4   1.88195E+3
   1.25633E+4   1.82785E+3
   1.25152E+4   1.63567E+3
   1.24772E+4   1.64504E+3
   1.23865E+4   1.46107E+3
   1.23666E+4   1.38921E+3
   1.24471E+4   1.27667E+3
   1.23883E+4   1.22268E+3
   1.23658E+4   1.12486E+3
   1.22596E+4   1.03487E+3
   1.22436E+4   8.43226E+2
   1.22376E+4   7.60722E+2
   1.21708E+4   7.23056E+2
   1.21574E+4   6.80378E+2
   1.20919E+4   5.47268E+2
   1.21806E+4   4.62247E+2
   1.20127E+4   3.64687E+2
   1.20106E+4   2.37400E+2
   1.19843E+4   2.33552E+2
   1.19027E+4   9.38582E+1
   1.18408E+4  -1.39323E+1
   1.18668E+4  -1.64304E+2
   1.18271E+4  -1.77137E+2
   1.18116E+4  -3.04827E+2
   1.17013E+4  -4.32591E+2
   1.16358E+4  -4.15445E+2
   1.16712E+4  -5.56099E+2
   1.15192E+4  -6.31308E+2
   1.15317E+4  -7.74200E+2
   1.14660E+4  -9.00255E+2
   1.14625E+4  -9.61119E+2
   1.13438E+4  -1.00075E+3
   1.13049E+4  -1.05225E+3
   1.13032E+4  -1.16178E+3
   1.12453E+4  -1.28686E+3
   1.11910E+4  -1.39683E+3
   1.10754E+4  -1.38968E+3
   1.10117E+4  -1.53577E+3
   1.09878E+4  -1.62545E+3
   1.09225E+4  -1.71221E+3
   1.09077E+4  -1.83888E+3
   1.07936E+4  -1.91397E+3
   1.07083E+4  -1.96352E+3
   1.07156E+4  -2.06355E+3
   1.06907E+4  -2.16262E+3
   1.05983E+4  -2.21131E+3
   1.04742E+4  -2.27116E+3
   1.04556E+4  -2.38951E+3
   1.04203E+4  -2.48630E+3
   1.02914E+4  -2.56552E+3
   1.02824E+4  -2.63836E+3
   1.02076E+4  -2.74438E+3
   1.01399E+4  -2.76490E+3
   1.00583E+4  -2.80917E+3
   9.94028E+3  -2.88627E+3
   9.88586E+3  -3.00919E+3
   9.77728E+3  -3.09618E+3
   9.76537E+3  -3.12849E+3
   9.68770E+3  -3.22976E+3
   9.61110E+3  -3.32818E+3
   9.48389E+3  -3.31944E+3
   9.42158E+3  -3.42710E+3
   9.38800E+3  -3.53366E+3
   9.26604E+3  -3.52510E+3
   9.08127E+3  -3.66152E+3
   9.14293E+3  -3.75024E+3
   9.01051E+3  -3.80526E+3
   9.02103E+3  -3.77307E+3
   8.87085E+3  -3.83303E+3
   8.76242E+3  -3.97140E+3
   8.72756E+3  -4.00134E+3
   8.59702E+3  -4.09389E+3
   8.49505E+3  -4.17563E+3
   8.44146E+3  -4.13142E+3
   8.33626E+3  -4.20762E+3
   8.23556E+3  -4.34736E+3
   8.06257E+3  -4.36853E+3
   8.00710E+3  -4.44866E+3
   7.93357E+3  -4.45145E+3
   7.86881E+3  -4.51380E+3
   7.81148E+3  -4.63778E+3
   7.66402E+3  -4.58740E+3
   7.62438E+3  -4.71828E+3
   7.51621E+3  -4.76552E+3
   7.49509E+3  -4.74316E+3
   7.30691E+3  -4.84502E+3
   7.21448E+3  -4.79681E+3
   7.15644E+3  -4.95555E+3
   7.03003E+3  -4.92947E+3
   6.95764E+3  -4.95012E+3
   6.84599E+3  -5.04895E+3
   6.70140E+3  -5.06967E+3
   6.63966E+3  -5.14172E+3
   6.57352E+3  -5.08611E+3
   6.52344E+3  -5.12904E+3
   6.39377E+3  -5.15139E+3
   6.32532E+3  -5.22088E+3
   6.18136E+3  -5.24483E+3
   6.16724E+3  -5.34616E+3
   5.97172E+3  -5.27061E+3
   5.95528E+3  -5.29457E+3
   5.84786E+3  -5.36394E+3
   5.73965E+3  -5.40525E+3
   5.63736E+3  -5.44594E+3
   5.48071E+3  -5.44309E+3
   5.42416E+3  -5.46605E+3
   5.32851E+3  -5.50447E+3
   5.25412E+3  -5.55872E+3
   5.18620E+3  -5.49060E+3
   5.00588E+3  -5.49602E+3
   4.97313E+3  -5.57000E+3
   4.91492E+3  -5.55836E+3
   4.81103E+3  -5.49712E+3
   4.74002E+3  -5.59183E+3
   4.63111E+3  -5.64695E+3
   4.50093E+3  -5.68244E+3
