 
 $NMID
 ID=''
 FMTDAT='(2E13.5)'
 TRAMP=   1.00000E+0
 VOLUME=   1.00000E+0
 $END
  -3.06286E+3   1.51969E+4
  -1.97898E+4   3.51548E+4
  -1.47246E+4   3.72101E+4
  -1.52257E+4   3.36232E+4
  -1.80437E+4   3.39085E+4
  -1.76501E+4   3.37678E+4
  -1.87591E+4   3.14722E+4
  -2.09048E+4   3.08681E+4
  -2.10885E+4   3.02908E+4
  -2.21506E+4   2.83878E+4
  -2.37755E+4   2.74903E+4
  -2.40685E+4   2.66780E+4
  -2.48873E+4   2.49646E+4
  -2.63168E+4   2.38487E+4
  -2.65887E+4   2.27039E+4
  -2.72765E+4   2.08732E+4
  -2.82170E+4   1.96674E+4
  -2.84727E+4   1.84465E+4
  -2.87951E+4   1.67198E+4
  -2.94434E+4   1.53573E+4
  -2.93740E+4   1.41196E+4
  -2.94594E+4   1.26085E+4
  -2.98357E+4   1.12691E+4
  -2.97539E+4   1.00554E+4
  -2.97358E+4   8.53910E+3
  -2.99109E+4   7.39711E+3
  -2.97610E+4   6.03699E+3
  -2.97718E+4   4.55725E+3
  -2.97589E+4   3.17990E+3
  -2.95626E+4   1.88847E+3
  -2.94057E+4   5.14988E+2
  -2.93935E+4  -8.69997E+2
  -2.90576E+4  -2.21914E+3
  -2.86429E+4  -3.55800E+3
  -2.82944E+4  -4.84738E+3
  -2.77771E+4  -6.03904E+3
  -2.72244E+4  -7.44793E+3
  -2.67615E+4  -8.65447E+3
  -2.59932E+4  -9.81061E+3
  -2.52625E+4  -1.10475E+4
  -2.45345E+4  -1.22637E+4
  -2.36894E+4  -1.34754E+4
  -2.24966E+4  -1.46355E+4
  -2.14768E+4  -1.55609E+4
  -2.04092E+4  -1.64181E+4
  -1.92724E+4  -1.73472E+4
  -1.80693E+4  -1.81851E+4
  -1.68401E+4  -1.88594E+4
  -1.56516E+4  -1.94409E+4
  -1.43969E+4  -1.99611E+4
  -1.30827E+4  -2.03679E+4
  -1.17854E+4  -2.07105E+4
  -1.05526E+4  -2.09082E+4
  -9.24886E+3  -2.10944E+4
  -7.96072E+3  -2.11791E+4
  -6.69470E+3  -2.11946E+4
  -5.40642E+3  -2.11184E+4
  -4.22344E+3  -2.09367E+4
  -3.00750E+3  -2.06930E+4
  -1.89207E+3  -2.02907E+4
  -8.21274E+2  -1.99019E+4
   1.66247E+2  -1.95599E+4
   1.05891E+3  -1.89523E+4
   2.02026E+3  -1.84630E+4
   2.92110E+3  -1.78645E+4
   3.73297E+3  -1.71672E+4
   4.38248E+3  -1.65747E+4
   5.10390E+3  -1.58270E+4
   5.75318E+3  -1.51388E+4
   6.23990E+3  -1.43733E+4
   6.69376E+3  -1.36302E+4
   7.14472E+3  -1.27750E+4
   7.47147E+3  -1.19721E+4
   7.68325E+3  -1.12242E+4
   7.91349E+3  -1.04921E+4
   8.13530E+3  -9.72795E+3
   8.19717E+3  -8.97255E+3
   8.33711E+3  -8.22396E+3
   8.34030E+3  -7.53968E+3
   8.36413E+3  -6.83448E+3
   8.24112E+3  -6.20182E+3
   8.17058E+3  -5.54602E+3
   8.06165E+3  -4.93099E+3
   7.88823E+3  -4.30621E+3
   7.73592E+3  -3.70566E+3
   7.46737E+3  -3.19333E+3
   7.31501E+3  -2.64024E+3
   7.01840E+3  -2.20447E+3
   6.72663E+3  -1.78808E+3
   6.50687E+3  -1.40237E+3
   6.18071E+3  -9.39721E+2
   5.94945E+3  -6.57967E+2
   5.65267E+3  -3.23603E+2
   5.29543E+3   1.92831E+1
   4.95278E+3   2.54755E+2
   4.64027E+3   5.68448E+2
   4.37591E+3   7.00986E+2
   4.07874E+3   9.22654E+2
   3.72544E+3   1.07482E+3
   3.46685E+3   1.36079E+3
   3.10524E+3   1.36939E+3
   2.78993E+3   1.48209E+3
   2.50723E+3   1.58893E+3
   2.22803E+3   1.74530E+3
   1.93964E+3   1.81221E+3
   1.67786E+3   1.75028E+3
   1.41216E+3   1.73115E+3
   1.17872E+3   1.87799E+3
   8.87234E+2   1.79664E+3
   7.15676E+2   1.75735E+3
   4.85203E+2   1.72074E+3
   2.83072E+2   1.64335E+3
   3.83788E+1   1.61152E+3
  -2.13323E+2   1.54900E+3
  -2.83106E+2   1.48431E+3
  -4.96410E+2   1.40243E+3
  -6.38947E+2   1.29032E+3
  -8.28403E+2   1.17934E+3
  -9.48503E+2   1.13240E+3
  -1.04611E+3   9.54869E+2
  -1.13291E+3   8.72088E+2
  -1.28140E+3   7.24483E+2
  -1.42389E+3   5.82260E+2
  -1.41553E+3   4.59336E+2
  -1.48603E+3   3.78865E+2
  -1.62763E+3   1.73312E+2
  -1.62142E+3   3.61816E+1
  -1.67503E+3  -6.94183E+1
  -1.72250E+3  -1.88753E+2
  -1.76001E+3  -3.08524E+2
  -1.71758E+3  -5.06023E+2
  -1.74102E+3  -6.12362E+2
  -1.68758E+3  -6.88584E+2
  -1.70780E+3  -8.41046E+2
  -1.74114E+3  -8.96962E+2
  -1.73769E+3  -1.02943E+3
  -1.54772E+3  -1.09594E+3
  -1.64053E+3  -1.21950E+3
  -1.55731E+3  -1.32040E+3
  -1.59392E+3  -1.35091E+3
  -1.51555E+3  -1.42741E+3
  -1.44550E+3  -1.54154E+3
  -1.40337E+3  -1.61639E+3
  -1.32901E+3  -1.70235E+3
  -1.29906E+3  -1.72121E+3
  -1.27514E+3  -1.80803E+3
  -1.21227E+3  -1.88421E+3
  -1.16586E+3  -1.90807E+3
  -1.08529E+3  -1.96469E+3
  -1.01571E+3  -1.97554E+3
  -9.51753E+2  -2.02325E+3
  -9.35869E+2  -2.06418E+3
  -8.63256E+2  -2.09332E+3
  -8.07383E+2  -2.14886E+3
  -7.96476E+2  -2.16075E+3
  -7.18740E+2  -2.14007E+3
  -6.93050E+2  -2.22473E+3
  -5.23584E+2  -2.18617E+3
  -5.32456E+2  -2.14852E+3
  -5.27086E+2  -2.12779E+3
  -4.97529E+2  -2.14356E+3
  -4.03932E+2  -2.14846E+3
  -4.43796E+2  -2.15413E+3
  -3.50696E+2  -2.16499E+3
  -3.19354E+2  -2.12514E+3
  -2.82162E+2  -2.15123E+3
  -2.89096E+2  -2.07356E+3
  -2.65583E+2  -2.06352E+3
  -2.35877E+2  -2.03116E+3
  -2.06637E+2  -2.04673E+3
  -2.11565E+2  -2.04300E+3
  -1.82150E+2  -1.97440E+3
  -2.41026E+2  -2.03477E+3
  -1.60533E+2  -1.98827E+3
  -1.66979E+2  -1.96193E+3
  -7.82754E+1  -1.88389E+3
  -1.62734E+2  -1.92924E+3
  -1.45775E+2  -1.90316E+3
  -2.00392E+2  -1.89909E+3
  -1.29855E+2  -1.91216E+3
  -1.52065E+2  -1.89659E+3
  -1.01587E+2  -1.85302E+3
  -1.83240E+2  -1.84841E+3
  -1.67102E+2  -1.79816E+3
  -2.12868E+2  -1.77828E+3
  -2.05135E+2  -1.78108E+3
  -1.47059E+2  -1.78852E+3
  -2.28844E+2  -1.75379E+3
  -1.52660E+2  -1.75858E+3
  -2.82875E+2  -1.76252E+3
  -2.16712E+2  -1.77039E+3
  -2.34522E+2  -1.74772E+3
  -2.79565E+2  -1.76735E+3
  -2.39822E+2  -1.71741E+3
  -2.17612E+2  -1.66089E+3
  -2.85844E+2  -1.62930E+3
  -2.75626E+2  -1.67444E+3
  -2.61235E+2  -1.66296E+3
  -3.40545E+2  -1.70626E+3
  -2.83510E+2  -1.77268E+3
  -2.40734E+2  -1.63043E+3
  -2.29951E+2  -1.64571E+3
  -2.66072E+2  -1.64490E+3
  -3.24525E+2  -1.59846E+3
  -3.37905E+2  -1.57575E+3
  -2.79852E+2  -1.62178E+3
  -3.17672E+2  -1.61516E+3
  -3.47529E+2  -1.56872E+3
  -3.25883E+2  -1.52113E+3
  -2.98244E+2  -1.52301E+3
  -3.34293E+2  -1.55690E+3
  -3.11468E+2  -1.56318E+3
  -3.19497E+2  -1.47654E+3
  -3.41196E+2  -1.52965E+3
  -3.32540E+2  -1.49504E+3
  -3.80800E+2  -1.43400E+3
  -3.75699E+2  -1.41449E+3
  -3.31770E+2  -1.46505E+3
  -4.07961E+2  -1.39107E+3
  -3.87310E+2  -1.37976E+3
  -3.43579E+2  -1.35309E+3
  -3.64277E+2  -1.37806E+3
  -3.73715E+2  -1.36802E+3
  -3.86643E+2  -1.33115E+3
  -3.79402E+2  -1.29906E+3
  -4.50944E+2  -1.25569E+3
  -3.73761E+2  -1.19746E+3
  -4.30192E+2  -1.19501E+3
  -4.41435E+2  -1.20493E+3
  -4.86259E+2  -1.23377E+3
  -4.54424E+2  -1.14840E+3
  -4.72955E+2  -1.15570E+3
  -4.49269E+2  -1.16875E+3
  -4.36632E+2  -1.14450E+3
  -5.22251E+2  -1.04798E+3
  -4.59248E+2  -1.03439E+3
  -4.72598E+2  -1.01685E+3
  -4.76543E+2  -1.04311E+3
  -4.80605E+2  -1.03704E+3
  -4.96440E+2  -9.57413E+2
  -5.66184E+2  -9.59882E+2
  -5.31866E+2  -9.02663E+2
  -5.46523E+2  -9.75043E+2
  -5.07616E+2  -9.58612E+2
  -4.59358E+2  -1.00226E+3
  -5.55688E+2  -9.45129E+2
  -4.54504E+2  -9.24649E+2
  -4.44474E+2  -8.81638E+2
  -5.25398E+2  -9.04382E+2
  -4.81311E+2  -9.37120E+2
  -5.02956E+2  -8.98608E+2
  -6.32962E+2  -8.40501E+2
  -5.37954E+2  -8.96626E+2
  -4.88835E+2  -8.37514E+2
  -5.37005E+2  -8.48633E+2
  -5.80781E+2  -8.31185E+2
  -5.66289E+2  -8.06874E+2
  -5.05218E+2  -7.94238E+2
  -5.39430E+2  -7.52362E+2
  -5.56799E+2  -7.35516E+2
  -5.36818E+2  -7.39574E+2
  -5.08538E+2  -6.92785E+2
  -4.89704E+2  -7.44633E+2
  -5.13332E+2  -6.42544E+2
  -4.96087E+2  -6.51614E+2
  -5.38436E+2  -6.57901E+2
  -5.28897E+2  -6.12013E+2
  -5.45916E+2  -6.27473E+2
  -5.25403E+2  -5.83176E+2
  -4.93554E+2  -6.20147E+2
  -5.15142E+2  -6.32824E+2
  -5.66265E+2  -5.75995E+2
  -5.60862E+2  -5.30016E+2
  -5.69504E+2  -5.72420E+2
  -5.94910E+2  -5.48994E+2
  -5.52865E+2  -4.79061E+2
  -5.32699E+2  -5.32284E+2
  -6.12345E+2  -5.40849E+2
  -5.66267E+2  -5.07354E+2
  -5.77613E+2  -4.60362E+2
  -6.02539E+2  -4.66085E+2
  -6.24486E+2  -4.51084E+2
  -5.81627E+2  -3.93180E+2
  -6.29949E+2  -4.42468E+2
  -6.08680E+2  -3.88785E+2
  -6.52201E+2  -3.57661E+2
  -6.02010E+2  -4.12052E+2
  -6.50639E+2  -4.14583E+2
  -6.08296E+2  -4.26863E+2
  -7.48107E+2  -3.96192E+2
  -6.80648E+2  -4.05771E+2
  -6.84842E+2  -4.27853E+2
  -6.83573E+2  -3.29405E+2
  -6.73485E+2  -4.27326E+2
  -6.69399E+2  -3.85189E+2
  -6.26763E+2  -3.06519E+2
  -7.18880E+2  -3.90247E+2
  -7.24112E+2  -3.57073E+2
  -6.95156E+2  -2.83210E+2
  -6.64076E+2  -3.78309E+2
  -6.32837E+2  -3.03421E+2
  -6.57870E+2  -3.19412E+2
  -7.15187E+2  -3.66978E+2
  -6.37596E+2  -3.39658E+2
  -7.07263E+2  -3.79192E+2
  -7.15225E+2  -2.98164E+2
  -6.95790E+2  -3.12865E+2
  -7.28563E+2  -3.52435E+2
  -7.23469E+2  -3.61165E+2
  -6.73393E+2  -3.32328E+2
  -7.49352E+2  -2.48463E+2
  -7.62611E+2  -3.53049E+2
  -7.46540E+2  -3.70176E+2
  -7.17133E+2  -3.64223E+2
  -7.16772E+2  -3.45601E+2
  -7.76695E+2  -3.62276E+2
  -7.64060E+2  -3.44392E+2
  -7.21356E+2  -3.08257E+2
  -7.69248E+2  -3.17797E+2
  -7.68797E+2  -2.99046E+2
  -8.07084E+2  -3.66233E+2
  -7.79215E+2  -3.13895E+2
  -7.75378E+2  -3.75087E+2
  -7.77603E+2  -3.61570E+2
  -7.87222E+2  -3.34457E+2
  -8.20176E+2  -3.47629E+2
  -8.14066E+2  -3.77156E+2
  -8.10832E+2  -3.78071E+2
  -7.38004E+2  -3.84414E+2
  -8.41365E+2  -3.54294E+2
  -7.87337E+2  -3.98583E+2
  -8.56838E+2  -3.70459E+2
  -8.38351E+2  -3.25638E+2
  -8.26802E+2  -4.27459E+2
  -8.48609E+2  -3.75166E+2
  -8.00167E+2  -3.76905E+2
  -8.01561E+2  -4.03844E+2
  -8.69481E+2  -3.67660E+2
  -8.32882E+2  -4.11216E+2
  -8.06690E+2  -3.52156E+2
  -7.54995E+2  -4.17629E+2
  -8.31212E+2  -4.72575E+2
  -8.52046E+2  -4.68119E+2
  -8.03971E+2  -4.42995E+2
  -8.00362E+2  -4.22883E+2
  -7.98144E+2  -4.41097E+2
  -7.39529E+2  -3.88784E+2
  -8.35711E+2  -4.55824E+2
  -7.86790E+2  -4.61372E+2
  -7.83667E+2  -4.50984E+2
  -7.97866E+2  -4.60861E+2
  -8.14863E+2  -4.08459E+2
  -7.84195E+2  -4.83765E+2
  -7.71831E+2  -5.21199E+2
  -7.85454E+2  -5.21843E+2
  -7.51798E+2  -5.04524E+2
  -7.53836E+2  -4.93207E+2
  -8.01061E+2  -5.23583E+2
  -7.25464E+2  -5.68369E+2
  -6.99874E+2  -5.16016E+2
  -7.33331E+2  -5.22809E+2
  -7.96929E+2  -5.24813E+2
  -7.29916E+2  -5.41318E+2
  -7.55514E+2  -5.57665E+2
  -8.08151E+2  -5.43972E+2
  -7.40057E+2  -5.33792E+2
  -7.06069E+2  -5.72132E+2
