 LCModel (Version 6.3-1N) Copyright: S.W. Provencher.          Ref.: Magn. Reson. Med. 30:672-679 (1993).                
 Slice_N1@15_20  02-Jun-2023 14:37:15
 27 lines in following concentration table = NCONC+1
    Conc.  %SD /Cr+PCr  Metabolite                                         
 1.49E-06  23% 1.8E-04 Mac                                                 
 2.39E-02  26%   2.919 Cr                                                  
 4.17E-02  15%   5.081 PCr                                                 
 6.46E-02  12%   7.881 Ins                                                 
 7.39E-02   9%   9.010 NAA                                                 
 4.80E-02  14%   5.854 Tau                                                 
 1.07E-02  31%   1.305 PCho                                                
 4.66E-03  66%   0.568 GPC                                                 
 5.67E-02  16%   6.909 Glu                                                 
 2.96E-02  23%   3.610 Gln                                                 
    0.000 999%   0.000 Ala                                                 
 7.40E-03 160%   0.902 Asc                                                 
 7.63E-03  89%   0.931 Asp                                                 
 1.17E-02  32%   1.427 GABA                                                
 1.04E-02  43%   1.265 Glc                                                 
 8.29E-03  45%   1.011 GSH                                                 
 1.08E-02  60%   1.320 Lac                                                 
 2.76E-03 145%   0.337 NAAG                                                
    0.000 999%   0.000 PE                                                  
 1.54E-02  12%   1.873 GPC+PCho                                            
 7.67E-02  10%   9.347 NAA+NAAG                                            
 8.63E-02  13%  10.519 Glu+Gln                                             
 6.56E-02   9%   8.000 Cr+PCr                                              
 7.67E-02  10%   9.347 NAA+NAAG                                            
 6.56E-02   9%   8.000 Cr+PCr                                              
 8.63E-02  13%  10.519 Glu+Gln                                             
   6 lines in following misc. output table
  FWHM = 0.017 ppm    S/N =   6                                            
  Data shift = 0.012 ppm                                                   
  Ph:  -2 deg      -4.0 deg/ppm                                            
  alphaB,S = 3.1E+01,   2.0E+00                                            
   18 spline knots.   Ns = 5(1)                                            
   2 inflections.     1 extrema                                            
  654 points on ppm-axis = NY
      4.000000     3.994181     3.988363     3.982544     3.976726     3.970907     3.965088     3.959270     3.953451     3.947633
      3.941814     3.935995     3.930177     3.924358     3.918540     3.912721     3.906902     3.901084     3.895265     3.889446
      3.883628     3.877809     3.871991     3.866172     3.860353     3.854535     3.848716     3.842898     3.837079     3.831260
      3.825442     3.819623     3.813805     3.807986     3.802167     3.796349     3.790530     3.784712     3.778893     3.773074
      3.767256     3.761437     3.755619     3.749800     3.743981     3.738163     3.732344     3.726526     3.720707     3.714888
      3.709070     3.703251     3.697433     3.691614     3.685795     3.679977     3.674158     3.668339     3.662521     3.656702
      3.650884     3.645065     3.639246     3.633428     3.627609     3.621791     3.615972     3.610153     3.604335     3.598516
      3.592698     3.586879     3.581060     3.575242     3.569423     3.563605     3.557786     3.551967     3.546149     3.540330
      3.534512     3.528693     3.522874     3.517056     3.511237     3.505419     3.499600     3.493781     3.487963     3.482144
      3.476326     3.470507     3.464688     3.458870     3.453051     3.447232     3.441414     3.435595     3.429777     3.423958
      3.418139     3.412321     3.406502     3.400684     3.394865     3.389046     3.383228     3.377409     3.371591     3.365772
      3.359953     3.354135     3.348316     3.342498     3.336679     3.330860     3.325042     3.319223     3.313405     3.307586
      3.301767     3.295949     3.290130     3.284312     3.278493     3.272674     3.266856     3.261037     3.255219     3.249400
      3.243581     3.237763     3.231944     3.226125     3.220307     3.214488     3.208670     3.202851     3.197032     3.191214
      3.185395     3.179577     3.173758     3.167939     3.162121     3.156302     3.150484     3.144665     3.138846     3.133028
      3.127209     3.121391     3.115572     3.109753     3.103935     3.098116     3.092298     3.086479     3.080660     3.074842
      3.069023     3.063205     3.057386     3.051567     3.045749     3.039930     3.034111     3.028293     3.022474     3.016656
      3.010837     3.005018     2.999200     2.993381     2.987563     2.981744     2.975925     2.970107     2.964288     2.958470
      2.952651     2.946832     2.941014     2.935195     2.929377     2.923558     2.917739     2.911921     2.906102     2.900284
      2.894465     2.888646     2.882828     2.877009     2.871191     2.865372     2.859553     2.853735     2.847916     2.842098
      2.836279     2.830460     2.824642     2.818823     2.813004     2.807186     2.801367     2.795549     2.789730     2.783911
      2.778093     2.772274     2.766456     2.760637     2.754818     2.749000     2.743181     2.737363     2.731544     2.725725
      2.719907     2.714088     2.708270     2.702451     2.696632     2.690814     2.684995     2.679177     2.673358     2.667539
      2.661721     2.655902     2.650084     2.644265     2.638446     2.632628     2.626809     2.620991     2.615172     2.609353
      2.603535     2.597716     2.591897     2.586079     2.580260     2.574442     2.568623     2.562804     2.556986     2.551167
      2.545349     2.539530     2.533711     2.527893     2.522074     2.516256     2.510437     2.504618     2.498800     2.492981
      2.487163     2.481344     2.475525     2.469707     2.463888     2.458070     2.452251     2.446432     2.440614     2.434795
      2.428977     2.423158     2.417339     2.411521     2.405702     2.399884     2.394065     2.388246     2.382428     2.376609
      2.370790     2.364972     2.359153     2.353335     2.347516     2.341697     2.335879     2.330060     2.324242     2.318423
      2.312604     2.306786     2.300967     2.295149     2.289330     2.283511     2.277693     2.271874     2.266056     2.260237
      2.254418     2.248600     2.242781     2.236963     2.231144     2.225325     2.219507     2.213688     2.207870     2.202051
      2.196232     2.190414     2.184595     2.178777     2.172958     2.167139     2.161321     2.155502     2.149683     2.143865
      2.138046     2.132228     2.126409     2.120590     2.114772     2.108953     2.103135     2.097316     2.091497     2.085679
      2.079860     2.074042     2.068223     2.062404     2.056586     2.050767     2.044949     2.039130     2.033311     2.027493
      2.021674     2.015856     2.010037     2.004218     1.998400     1.992581     1.986763     1.980944     1.975126     1.969307
      1.963489     1.957670     1.951852     1.946033     1.940215     1.934397     1.928578     1.922760     1.916941     1.911123
      1.905304     1.899486     1.893667     1.887849     1.882030     1.876212     1.870393     1.864575     1.858756     1.852938
      1.847119     1.841301     1.835482     1.829664     1.823845     1.818027     1.812208     1.806390     1.800571     1.794753
      1.788934     1.783116     1.777297     1.771479     1.765660     1.759842     1.754023     1.748205     1.742386     1.736568
      1.730749     1.724931     1.719113     1.713294     1.707476     1.701657     1.695839     1.690020     1.684202     1.678383
      1.672565     1.666746     1.660928     1.655109     1.649291     1.643472     1.637654     1.631835     1.626017     1.620198
      1.614380     1.608561     1.602743     1.596924     1.591106     1.585287     1.579469     1.573650     1.567832     1.562013
      1.556195     1.550376     1.544558     1.538739     1.532921     1.527102     1.521284     1.515465     1.509647     1.503829
      1.498010     1.492192     1.486373     1.480555     1.474736     1.468918     1.463099     1.457281     1.451462     1.445644
      1.439825     1.434007     1.428188     1.422370     1.416551     1.410733     1.404914     1.399096     1.393277     1.387459
      1.381640     1.375822     1.370003     1.364185     1.358366     1.352548     1.346729     1.340911     1.335092     1.329274
      1.323455     1.317637     1.311818     1.306000     1.300182     1.294363     1.288545     1.282726     1.276908     1.271089
      1.265271     1.259452     1.253634     1.247815     1.241997     1.236178     1.230360     1.224541     1.218723     1.212904
      1.207086     1.201267     1.195449     1.189630     1.183812     1.177993     1.172175     1.166356     1.160538     1.154719
      1.148901     1.143082     1.137264     1.131445     1.125627     1.119808     1.113990     1.108171     1.102353     1.096534
      1.090716     1.084898     1.079079     1.073261     1.067442     1.061624     1.055805     1.049987     1.044168     1.038350
      1.032531     1.026713     1.020894     1.015076     1.009257     1.003439     0.997620     0.991802     0.985983     0.980165
      0.974346     0.968528     0.962709     0.956891     0.951072     0.945254     0.939435     0.933617     0.927798     0.921980
      0.916161     0.910343     0.904524     0.898706     0.892887     0.887069     0.881251     0.875432     0.869614     0.863795
      0.857977     0.852158     0.846340     0.840521     0.834703     0.828884     0.823066     0.817247     0.811429     0.805610
      0.799792     0.793973     0.788155     0.782336     0.776518     0.770699     0.764881     0.759062     0.753244     0.747425
      0.741607     0.735788     0.729970     0.724151     0.718333     0.712514     0.706696     0.700877     0.695059     0.689240
      0.683422     0.677603     0.671785     0.665967     0.660148     0.654330     0.648511     0.642693     0.636874     0.631056
      0.625237     0.619419     0.613600     0.607782     0.601963     0.596145     0.590326     0.584508     0.578689     0.572871
      0.567052     0.561234     0.555415     0.549597     0.543778     0.537960     0.532141     0.526323     0.520504     0.514686
      0.508867     0.503049     0.497230     0.491412     0.485593     0.479775     0.473956     0.468138     0.462319     0.456501
      0.450682     0.444864     0.439045     0.433227     0.427408     0.421590     0.415771     0.409953     0.404134     0.398316
      0.392497     0.386679     0.380860     0.375042     0.369223     0.363405     0.357586     0.351767     0.345949     0.340130
      0.334312     0.328493     0.322675     0.316856     0.311038     0.305219     0.299401     0.293582     0.287764     0.281945
      0.276127     0.270308     0.264490     0.258671     0.252853     0.247034     0.241216     0.235397     0.229579     0.223760
      0.217942     0.212123     0.206305     0.200486
 NY phased data points follow
  -4.42998E-01 -3.93637E-01 -2.85369E-01 -2.38167E-01 -2.97466E-01 -1.07081E-01  3.31738E-01  1.97271E-01 -1.00114E-01  1.22393E-01
   1.24429E-02 -3.75775E-02  5.91086E-01  4.11620E-01  1.76350E-01  3.77396E-01  4.13478E-01  5.83267E-02 -4.99118E-02  2.11676E-01
   1.66999E-01 -2.67543E-02 -1.14223E-01  7.19308E-02 -1.67299E-01 -6.00699E-02  1.65341E-01 -9.82146E-02 -5.62628E-03 -1.66655E-01
  -5.58219E-02  2.30973E-01  4.68279E-02 -5.17777E-02 -8.01194E-02 -2.08577E-01 -4.15498E-01 -6.31370E-01 -7.98738E-01 -1.48973E-01
   2.59237E-04  1.17271E-01  2.70032E-01 -1.17330E-01  4.94840E-01  3.32043E-01  2.86031E-01  2.99464E-01  2.72948E-01  7.56448E-02
  -7.12420E-02  3.52215E-01 -1.57441E-01  1.75602E-01 -1.27962E-01 -1.31104E-01  9.54718E-02 -4.80834E-01 -1.63895E-01 -3.92890E-02
  -3.64920E-01 -1.88434E-01 -9.08329E-02 -6.20293E-01  2.08825E-02 -1.58342E-01 -1.01233E-01  5.09798E-01  2.73869E-01  5.61830E-02
   1.92916E-01  8.95657E-01 -9.02756E-02  3.13880E-02  2.24732E-01  8.82216E-02  4.59493E-01 -4.04101E-01 -1.13332E-01 -3.81074E-01
  -5.97849E-01 -1.28212E-01 -9.11485E-02 -8.83162E-02  5.03207E-02  4.33879E-01  3.18831E-01  4.39800E-01  4.25995E-01  7.08205E-02
   6.98647E-02  2.66801E-02 -1.30106E-01  3.16811E-01  2.66888E-01 -6.27977E-02 -5.14593E-02 -1.68522E-01  1.87579E-02  1.00953E-01
   6.91404E-02 -3.02752E-01 -3.41503E-01 -2.04464E-01 -1.07415E-01  2.33866E-01  4.08346E-01  3.67040E-01  2.55808E-01  2.58716E-01
   5.28390E-01  4.30155E-01  9.08900E-02  4.15999E-01  2.89929E-01  3.93288E-01  2.88259E-01  2.32150E-01  3.60793E-01  2.55887E-01
   1.05865E-01  4.19778E-02  3.63861E-01  3.77174E-02  2.89705E-01 -1.69280E-01 -2.65101E-01 -2.20760E-01 -5.73732E-01 -3.60951E-01
  -7.13225E-01 -3.66163E-01 -3.90615E-01 -5.81465E-01 -2.01973E-01 -3.67145E-01 -8.70073E-01 -8.76808E-01 -1.02752E+00 -6.34343E-01
  -5.27759E-01 -5.57824E-01 -9.61305E-02 -1.83398E-01 -9.09208E-03 -1.33603E-01 -1.00539E-01 -2.92192E-02  1.74466E-01  2.90287E-01
   3.94239E-01  9.42454E-02 -3.74108E-02  2.80108E-01 -6.75061E-02  1.56073E-01  4.04092E-01  1.30114E-01  2.24333E-02  5.11625E-02
   2.14512E-01  3.52563E-01  2.81079E-01  1.05718E+00  7.56691E-01  9.73878E-01  1.55738E+00  7.03138E-01 -3.36768E-01 -1.26892E+00
  -7.98926E-01 -7.35056E-01 -3.79722E-01 -6.06916E-01 -6.70440E-01 -4.33826E-01 -6.52933E-01 -2.99791E-01 -3.61359E-01 -2.98814E-01
  -5.03016E-01 -3.55591E-01 -4.91931E-01 -3.20861E-01 -2.15828E-01 -3.49995E-01 -1.09346E-01  3.56101E-03  5.20116E-02  2.56570E-02
  -1.20578E-01 -3.06333E-01  3.18931E-02  3.46988E-02 -1.66338E-01 -1.96115E-01  6.58619E-02 -2.36572E-01 -3.26737E-01 -2.68044E-01
  -1.11180E-01  2.55388E-01 -3.16648E-01 -1.38103E-01  2.61846E-01 -2.66765E-01 -2.61315E-01  5.54504E-02 -2.79488E-01 -2.16918E-01
  -1.37223E-01 -4.31867E-02 -2.33743E-01 -4.14115E-01 -1.25862E-01 -6.50631E-03 -1.15716E-01 -4.12447E-01 -1.73912E-01  1.34818E-01
  -2.97332E-02 -1.27277E-01  8.12067E-02  3.57625E-02  3.23722E-01  1.26809E-02  9.73604E-02  3.51667E-01  3.83960E-02  4.02566E-01
   2.70566E-01  3.21748E-01  5.56826E-01  3.80615E-01 -1.83016E-01  4.32737E-02  3.96650E-02 -1.01622E-01  2.90981E-01  1.37582E-01
   1.20187E-01 -1.48416E-01 -6.18903E-02  6.59645E-02 -1.61475E-01 -1.59257E-01 -3.81910E-02  9.70711E-02  1.31029E-01 -5.73227E-02
  -5.08766E-02  9.11113E-02  7.14255E-02 -1.00702E-01 -1.49572E-01 -1.77271E-01 -2.30730E-01  6.11050E-02 -1.43883E-01 -8.46482E-02
   2.56557E-01  9.49062E-02  1.43046E-02  1.52426E-01  2.61771E-01  2.35038E-01  3.13080E-01  4.40173E-01  4.48695E-01  4.08404E-01
   7.61070E-02  2.56550E-01  3.02306E-01  1.27026E-01  2.14813E-01 -1.10328E-01  1.72244E-01 -1.49574E-01  1.69544E-03 -2.01966E-02
  -3.05936E-01 -6.95328E-03 -4.89821E-01 -2.56221E-01 -7.42062E-02  1.58715E-01  1.77777E-02  2.82468E-01  6.16888E-01  2.48614E-01
   5.28673E-01  2.97193E-01  6.47852E-02  2.23972E-02 -1.03636E-01  1.52339E-01  1.28687E-02  2.21841E-01  4.79633E-01 -1.81648E-01
  -9.94265E-02 -4.05093E-02  1.90182E-01  3.91611E-01  3.18165E-01  3.55430E-01  1.61539E-01  1.24601E-01  2.78818E-01  7.04593E-01
   3.43561E-01  4.78556E-01  4.50280E-01  1.09506E-01  8.50433E-02  1.16257E-01  4.24293E-02 -1.21303E-01  2.65381E-01 -2.56201E-01
  -1.69161E-01 -9.53484E-02 -5.12508E-01 -2.54356E-01 -5.83324E-01 -2.79042E-01  1.37471E-01 -2.88576E-01 -4.61087E-02  2.96212E-01
   2.11298E-01  3.32437E-02  2.53265E-01  3.28524E-01  1.88673E-01  2.70196E-02 -2.63713E-01 -1.35712E-01 -3.63004E-01 -2.00597E-01
  -2.15647E-01  3.25215E-02 -1.26975E+00 -2.77491E+00 -9.52575E-01 -3.54722E-01 -3.48639E-01  6.73494E-02  6.18714E-02  2.97775E-01
   2.65713E-01  2.21875E-01  1.04302E-01  1.72281E-02  2.74497E-01  2.52208E-01 -6.63428E-03  3.10226E-01  4.97745E-01  2.93658E-01
   1.22391E-01  3.87495E-02 -1.51467E-01  3.44679E-02 -3.37818E-01 -2.58538E-01  3.08078E-01 -9.70285E-02 -4.49798E-02 -1.31753E-01
   2.44627E-01  3.84544E-01  2.51724E-02 -9.93785E-02 -3.80576E-01  7.59733E-02  6.73379E-02 -8.82908E-02 -4.10996E-02 -1.08447E-01
  -8.16805E-02 -1.23655E-01  1.69272E-01 -5.08785E-02 -8.79201E-02  8.80919E-02 -2.08757E-01 -1.67375E-01 -6.85609E-02 -5.25638E-02
   1.70785E-02  1.58402E-01  3.39565E-01  3.91293E-01  1.14434E-03  9.98171E-02  2.65605E-01  6.21520E-02  3.38221E-01  6.66901E-02
  -2.17475E-02  4.80297E-02 -1.44358E-01  6.10336E-02 -1.68792E-01 -3.22707E-01 -4.52892E-03  1.06687E-02 -6.86214E-02  1.45885E-02
  -6.05661E-02 -4.07438E-04  1.75408E-01  1.37131E-01  1.12532E-01 -1.71049E-01 -2.43833E-01 -1.64833E-01 -7.15382E-02  4.04207E-02
  -2.78016E-01 -3.46082E-01 -2.55595E-01 -1.58770E-01 -3.43312E-01 -1.17199E-01  1.02229E-01 -5.29739E-02  7.47667E-02 -4.10025E-02
  -6.59967E-02 -1.49742E-01 -6.08947E-02  7.75898E-03  8.74106E-02 -7.86923E-02  2.97470E-02  3.71318E-03 -3.38418E-01 -4.61007E-03
  -9.76898E-02  4.82655E-03  3.14990E-01  2.76173E-01  2.43707E-02  2.42471E-01  2.18597E-01  3.82126E-01  6.96722E-01  2.24754E-02
   8.65401E-02  2.71033E-01 -3.74591E-02 -1.31209E-01  4.92483E-02  2.34182E-01  7.55801E-02 -3.72126E-02 -6.11495E-03 -2.35762E-01
   3.36458E-02 -1.51014E-02  2.90111E-01  6.28795E-01  8.55226E-02  1.47426E-01 -8.75225E-02  3.94222E-01  8.55507E-02 -2.17273E-01
   1.68501E-01 -1.40286E-01 -9.36069E-02 -4.75771E-01 -8.42563E-02  3.48863E-02 -2.40270E-01 -1.99690E-01 -1.45181E-01  2.53309E-01
   3.23914E-03 -1.31353E-01 -2.21815E-01 -2.41219E-01  2.82868E-01  1.11338E-01  8.59449E-02  1.65879E-01 -3.13008E-02  4.64846E-02
   7.04184E-03  1.26847E-02 -3.19549E-01 -3.84820E-02  2.03834E-01 -1.14181E-02 -7.57232E-02 -1.09954E-01  3.58704E-02  1.43991E-01
   3.15770E-02 -8.88083E-02  4.24520E-01  3.47919E-02 -8.80469E-02  1.76909E-01 -4.77826E-03 -1.15403E-01 -1.64380E-01  1.31441E-01
  -2.81517E-02  1.99251E-01  2.10258E-01  1.49667E-01  8.49510E-02 -6.44442E-02  2.31145E-01  2.69665E-01  1.64195E-01  2.00886E-02
   1.18834E-01  1.07675E-02 -2.97386E-01 -2.84334E-01  4.49613E-02 -3.84050E-01 -3.58075E-01 -7.38895E-02 -3.24724E-01  8.14933E-02
  -3.21790E-01 -3.52260E-01 -2.35626E-01 -1.66900E-01  1.68099E-01 -2.91569E-01 -4.21029E-02  1.53802E-01 -6.45795E-02 -5.68908E-02
  -1.13625E-01 -2.16362E-01 -4.04055E-02  6.73124E-02 -1.28634E-01 -1.79942E-01 -2.21152E-01 -1.99916E-01  8.55758E-02  9.29721E-02
  -7.59706E-02  2.14334E-01 -2.07270E-02  2.04002E-01  5.57231E-01  2.62220E-01  2.40036E-01  1.26133E-01 -6.69634E-02 -7.16459E-02
   1.92698E-01 -1.44938E-01  2.19406E-01  3.87905E-01 -1.33907E-01  8.85879E-02 -1.45914E-01 -4.72178E-02  1.44224E-01 -1.11801E-01
   4.99865E-02 -4.71243E-02 -6.11441E-02  4.05482E-01 -1.81803E-01 -1.09031E-01  3.26945E-01 -9.41535E-04  1.71232E-01 -2.75125E-02
   1.69705E-01  4.08180E-01 -8.35251E-02 -6.07347E-02  2.90366E-01 -1.65095E-01  9.33545E-03  1.21484E-01 -7.77411E-03  3.98817E-01
  -1.58801E-01  1.16820E-01  1.51212E-01 -5.82305E-02  2.56975E-03 -7.24226E-02  4.29387E-01 -1.11589E-01 -1.04787E-01  9.10116E-02
  -8.54106E-02  7.10599E-02 -7.52164E-02  1.43186E-01  5.03952E-02  1.36982E-01  1.81729E-01  1.55476E-01  1.52292E-01  5.36953E-03
   4.14430E-01  2.22488E-01  1.40465E-01  2.01546E-01  1.61859E-01 -2.11372E-01 -3.73957E-01 -1.60041E-01 -3.54341E-02  4.51436E-01
  -3.85632E-02 -1.21173E-01  3.12513E-02 -8.09337E-02 -4.87959E-02  1.11327E-01  4.83187E-02 -8.47059E-02  1.41853E-01 -6.27509E-02
   4.10618E-02 -1.26655E-01  1.27685E-01 -5.59395E-03 -9.28973E-02 -1.33754E-01 -3.70973E-01  6.44839E-02 -1.74126E-01  2.38313E-01
   9.56836E-02 -3.84218E-02  8.59801E-02 -5.69250E-02 -4.58126E-02 -8.61422E-02  2.45153E-01  1.52637E-01  3.04514E-01 -1.87679E-01
   4.03652E-02  2.34648E-01 -3.46710E-01  2.10905E-01
 NY points of the fit to the data follow
   1.75742E-03 -6.32415E-03 -1.09247E-02 -2.25879E-02 -2.94633E-02 -2.79488E-02 -1.94336E-02 -1.14111E-02 -2.73724E-04  5.92691E-02
   4.38141E-02  2.66276E-01  7.20793E-01  6.19278E-01  2.38532E-01  3.68061E-01  6.33188E-01  3.05063E-01  1.54076E-01  1.44389E-01
   9.96314E-02  1.91799E-02  2.56877E-02 -6.66040E-03 -2.73120E-02 -4.65596E-02 -6.83868E-02 -8.01621E-02 -7.85032E-02 -9.55967E-02
  -1.02273E-01 -1.02346E-01 -1.14427E-01 -1.41598E-01 -1.74185E-01 -2.04069E-01 -2.32811E-01 -2.51860E-01 -2.67825E-01 -1.68209E-01
   2.46990E-02  1.00175E-01  1.09210E-01  1.80959E-01  2.55225E-01  2.56907E-01  2.93604E-01  2.33501E-01  1.50877E-01  1.15783E-01
   8.30800E-02  2.75055E-02  2.19875E-02  2.49771E-03 -3.33893E-02 -6.53788E-02 -1.13238E-01 -1.60229E-01 -1.66324E-01 -1.79972E-01
  -2.28816E-01 -2.19683E-01 -3.32280E-01 -3.26129E-01 -6.30898E-02 -3.28123E-01 -2.90325E-01  2.85136E-01  1.60772E-01  1.27300E-01
   4.24243E-01  3.96525E-01  2.30093E-01  2.05859E-01  1.55336E-01  5.58242E-02 -8.27019E-03 -9.34824E-02 -1.61538E-01 -3.13057E-01
  -6.04197E-01 -4.27694E-01 -2.87356E-02 -1.12457E-01  3.67893E-02  4.07567E-01  4.32765E-01  3.27947E-01  3.29995E-01  2.84363E-01
   2.09506E-01  2.06669E-01  1.76897E-01  1.46693E-01  1.23333E-01  7.53842E-02  1.66649E-02 -1.25606E-01 -2.27231E-01 -3.11198E-01
  -3.38219E-01 -1.37866E-01 -1.19195E-02  1.57438E-01  2.20664E-01  2.48027E-01  2.40188E-01  2.48228E-01  2.31546E-01  2.38684E-01
   2.42932E-01  2.44721E-01  2.45006E-01  2.46351E-01  2.46069E-01  2.48040E-01  2.51536E-01  2.56888E-01  2.58703E-01  2.58279E-01
   2.47743E-01  2.65180E-01  1.92801E-01  4.20483E-02  1.52792E-01  1.26257E-02 -1.95394E-01 -1.50820E-01 -2.29888E-01 -4.36533E-01
  -5.84533E-01 -3.23915E-01 -3.55854E-01 -1.52190E-01 -1.28573E-01 -3.34631E-01 -9.14290E-01 -1.19932E+00 -7.16328E-01 -4.36665E-01
  -3.04401E-01 -1.59406E-01 -2.49404E-02 -3.81254E-02 -1.98579E-02  3.68785E-03  2.61703E-02  4.59496E-02  6.59119E-02  8.22503E-02
   9.84127E-02  1.15503E-01  1.31939E-01  1.47849E-01  1.66512E-01  1.87982E-01  2.09682E-01  2.37118E-01  2.68563E-01  3.02007E-01
   3.45636E-01  4.11309E-01  5.01021E-01  6.08921E-01  7.03412E-01  8.01947E-01  1.14450E+00  8.16525E-01 -5.00555E-01 -1.04961E+00
  -8.09622E-01 -6.92401E-01 -6.84871E-01 -4.64676E-01 -3.84478E-01 -3.79391E-01 -3.40359E-01 -2.92321E-01 -2.90441E-01 -2.91284E-01
  -2.65628E-01 -2.34822E-01 -2.25910E-01 -2.21621E-01 -2.08847E-01 -2.10999E-01 -2.05178E-01 -1.95781E-01 -1.84714E-01 -1.84204E-01
  -1.75164E-01 -1.65754E-01 -1.56778E-01 -1.50093E-01 -1.40565E-01 -1.32908E-01 -1.27002E-01 -1.19326E-01 -1.11584E-01 -1.03558E-01
  -9.88023E-02 -8.73651E-02 -7.07120E-02 -7.26458E-02 -8.25636E-02 -8.68943E-02 -7.65804E-02 -5.64171E-02 -6.11624E-02 -8.23960E-02
  -9.14983E-02 -9.18826E-02 -9.11985E-02 -8.89255E-02 -8.49797E-02 -7.99848E-02 -7.73996E-02 -7.26747E-02 -7.40099E-02 -7.96759E-02
  -7.77442E-02 -6.78172E-02 -4.52373E-02 -4.25389E-02  9.07650E-03  1.50605E-01  2.23678E-01  1.99650E-01  8.97530E-02  1.37032E-01
   3.90985E-01  3.76673E-01  1.52771E-01  6.94193E-02  2.10026E-02 -4.99184E-02 -7.69151E-02 -6.77386E-02 -7.29021E-02 -7.86495E-02
  -8.75157E-02 -9.60165E-02 -9.99762E-02 -1.04826E-01 -1.05875E-01 -1.09862E-01 -1.14931E-01 -1.13008E-01 -1.20849E-01 -1.18326E-01
  -1.28441E-01 -1.38679E-01 -1.51636E-01 -1.76444E-01 -1.70542E-01 -2.26138E-01 -1.85229E-01  1.65574E-02 -8.83148E-02 -8.68443E-02
   6.71211E-02  6.29950E-02  8.35733E-02 -1.67440E-02  4.17531E-02  9.14279E-02  7.08271E-02  1.23924E-01  1.25910E-01  1.98549E-01
   1.80033E-01  1.74431E-01  1.28516E-01  9.38712E-02  5.12231E-02  1.72174E-02 -1.12437E-02 -5.27071E-02 -9.04594E-02 -1.44853E-01
  -1.82702E-01 -2.67364E-01 -3.37665E-01 -2.85185E-01 -2.65732E-01 -9.77502E-02  1.04255E-01  1.84258E-01  3.14640E-01  3.32881E-01
   2.66328E-01  1.93931E-01  1.52057E-01  1.30746E-01  1.00694E-01  1.43069E-01  1.71924E-01  1.87644E-01  2.13985E-01  2.15285E-01
   2.01683E-01  1.94399E-01  1.87151E-01  1.76541E-01  1.74289E-01  1.68959E-01  1.61522E-01  1.57419E-01  1.47225E-01  1.31111E-01
   1.21397E-01  1.00815E-01  8.40565E-02  6.66327E-02  3.76148E-02  9.18241E-03 -3.49828E-02 -8.29868E-02 -1.65330E-01 -2.10256E-01
  -2.66838E-01 -3.20317E-01 -3.07766E-01 -2.95088E-01 -2.45860E-01 -1.78587E-01 -1.04195E-01 -6.59324E-03  5.95157E-02  1.13061E-01
   1.15282E-01  9.46454E-02  7.28426E-02  5.93802E-04 -2.10202E-02 -3.47588E-02 -8.85005E-02 -8.65811E-02 -6.37395E-02 -7.37640E-02
  -2.05362E-01 -8.58684E-02 -1.37641E+00 -2.54351E+00 -1.27595E+00 -6.26761E-01 -5.20834E-01 -2.74625E-01  3.80013E-02 -7.22720E-02
  -7.19592E-02 -5.77653E-02 -4.02570E-02 -2.69263E-02 -1.64108E-02 -4.88377E-03  6.66661E-03  1.19524E-02  9.68248E-03  1.33327E-02
  -1.38042E-02 -2.67984E-02 -4.76650E-02 -8.27256E-02 -7.69797E-02 -9.15049E-02 -6.99186E-02 -5.72765E-02 -3.62862E-02 -2.60909E-02
  -1.04384E-02 -5.14002E-03  4.00643E-03  1.14972E-02  1.47771E-02  1.83689E-02  2.28432E-02  2.64028E-02  3.08248E-02  3.47670E-02
   3.72529E-02  3.95247E-02  4.34956E-02  4.58024E-02  5.00865E-02  5.22525E-02  5.39680E-02  5.45007E-02  5.71732E-02  6.10253E-02
   6.35424E-02  6.82382E-02  7.03734E-02  7.17486E-02  7.07513E-02  6.92538E-02  6.82358E-02  6.80658E-02  6.66774E-02  6.47558E-02
   6.15390E-02  5.74794E-02  5.45319E-02  5.01548E-02  4.37769E-02  4.00392E-02  3.74595E-02  3.43089E-02  2.85968E-02  2.57177E-02
   2.28009E-02  1.87455E-02  1.69540E-02  1.48265E-02  1.21063E-02  1.03354E-02  8.21209E-03  5.50529E-03  3.76259E-03  1.94121E-03
   1.32114E-03 -5.14467E-04 -2.58627E-03 -1.32753E-03 -3.36867E-04 -2.66534E-04  2.01325E-03  5.06032E-03  7.22910E-03  1.04997E-02
   1.53812E-02  1.55328E-02  1.47110E-02  1.64254E-02  2.01338E-02  2.50677E-02  3.03566E-02  3.48813E-02  3.86924E-02  4.32882E-02
   4.97615E-02  5.72232E-02  6.37349E-02  7.23496E-02  7.96596E-02  8.64460E-02  9.52316E-02  1.02507E-01  1.07574E-01  1.11406E-01
   1.13098E-01  1.12395E-01  1.11828E-01  1.09713E-01  1.05505E-01  1.01071E-01  9.54035E-02  8.86705E-02  9.07148E-02  6.51971E-02
   1.41657E-01  2.25753E-01  2.25565E-01  2.89648E-01  2.16547E-01  1.55748E-01  1.21854E-01  1.09347E-01  7.95676E-02  7.94367E-02
   7.55077E-02  7.02230E-02  6.58627E-02  6.12896E-02  5.82066E-02  5.85194E-02  5.89377E-02  5.83511E-02  6.04384E-02  6.27814E-02
   6.44553E-02  6.70363E-02  7.17333E-02  7.54192E-02  7.73573E-02  7.96814E-02  8.14720E-02  8.19803E-02  8.21594E-02  8.56312E-02
   8.88639E-02  8.85513E-02  8.88006E-02  8.77404E-02  8.62600E-02  8.63870E-02  8.28707E-02  7.99367E-02  7.87782E-02  7.77471E-02
   7.54147E-02  7.29172E-02  7.11556E-02  6.89839E-02  6.68888E-02  6.44203E-02  6.13858E-02  5.83163E-02  5.74894E-02  5.72597E-02
   5.50313E-02  5.23054E-02  5.06583E-02  4.83436E-02  4.36221E-02  3.84764E-02  3.38019E-02  2.90972E-02  2.38518E-02  1.63187E-02
   7.31743E-03 -4.51358E-03 -1.78206E-02 -2.81985E-02 -3.98905E-02 -5.21921E-02 -6.31287E-02 -7.18071E-02 -8.07909E-02 -8.94960E-02
  -9.77788E-02 -1.00686E-01 -1.00243E-01 -1.01954E-01 -1.03153E-01 -9.97699E-02 -9.50447E-02 -9.11683E-02 -8.74339E-02 -8.36667E-02
  -8.06426E-02 -7.79900E-02 -7.21043E-02 -6.63507E-02 -6.16930E-02 -5.42679E-02 -4.70994E-02 -4.02264E-02 -3.41314E-02 -2.69443E-02
  -2.07972E-02 -1.62697E-02 -8.49703E-03 -2.10770E-03  1.76073E-03  5.42278E-03  1.02239E-02  1.64858E-02  2.14022E-02  2.11182E-02
   2.47624E-02  2.94918E-02  3.07092E-02  3.31110E-02  3.50728E-02  3.58415E-02  3.71217E-02  3.91331E-02  3.98256E-02  3.87335E-02
   4.02817E-02  4.30935E-02  4.35001E-02  4.50120E-02  4.80694E-02  4.91402E-02  4.79786E-02  4.87295E-02  4.98251E-02  4.81881E-02
   4.87388E-02  4.98650E-02  4.80639E-02  4.82112E-02  4.95847E-02  4.84649E-02  4.85006E-02  4.94535E-02  5.06445E-02  5.20192E-02
   4.86671E-02  4.41007E-02  4.55519E-02  4.76279E-02  4.65985E-02  4.54561E-02  4.65726E-02  4.78347E-02  4.48070E-02  4.27168E-02
   4.31698E-02  4.45649E-02  4.53509E-02  4.51622E-02  4.55678E-02  4.58310E-02  4.67923E-02  4.76563E-02  4.71094E-02  4.72033E-02
   4.83860E-02  4.87297E-02  4.70543E-02  4.42553E-02  4.52589E-02  4.52540E-02  4.53748E-02  4.62243E-02  4.70862E-02  4.74126E-02
   4.68457E-02  4.51657E-02  4.78534E-02  5.02333E-02  5.04901E-02  5.09667E-02  4.83179E-02  4.59674E-02  4.56145E-02  4.65168E-02
   4.73878E-02  4.58366E-02  4.42223E-02  4.36468E-02  4.28988E-02  4.27903E-02  4.33160E-02  4.05242E-02  3.87401E-02  4.15322E-02
   4.18064E-02  3.91173E-02  3.86249E-02  3.86766E-02  3.77004E-02  3.72607E-02  3.57564E-02  3.60109E-02  3.89010E-02  4.01787E-02
   3.94198E-02  3.89615E-02  3.86506E-02  3.70375E-02
 NY background values follow
     1.321E-02    1.323E-02    1.325E-02    1.327E-02    1.329E-02    1.331E-02    1.333E-02    1.335E-02    1.336E-02    1.338E-02
     1.340E-02    1.342E-02    1.344E-02    1.346E-02    1.348E-02    1.350E-02    1.352E-02    1.354E-02    1.356E-02    1.357E-02
     1.359E-02    1.361E-02    1.363E-02    1.365E-02    1.367E-02    1.369E-02    1.371E-02    1.373E-02    1.375E-02    1.376E-02
     1.378E-02    1.380E-02    1.382E-02    1.384E-02    1.386E-02    1.388E-02    1.390E-02    1.392E-02    1.393E-02    1.395E-02
     1.397E-02    1.399E-02    1.401E-02    1.403E-02    1.405E-02    1.407E-02    1.409E-02    1.411E-02    1.412E-02    1.414E-02
     1.416E-02    1.418E-02    1.420E-02    1.422E-02    1.424E-02    1.426E-02    1.428E-02    1.430E-02    1.431E-02    1.433E-02
     1.435E-02    1.437E-02    1.439E-02    1.441E-02    1.443E-02    1.445E-02    1.447E-02    1.448E-02    1.450E-02    1.452E-02
