 
 $NMID
 ID=''
 FMTDAT='(2E13.5)'
 TRAMP=   1.00000E+0
 VOLUME=   1.00000E+0
 $END
  -2.61863E+2  -5.86806E+1
   1.29224E+3   1.47717E+2
  -1.31927E+3  -2.09269E+2
   2.01034E+3  -1.47713E+3
  -1.62872E+3  -3.15616E+3
  -1.79400E+3  -5.29525E+2
  -4.98584E+2  -9.73509E+1
   1.38630E+2   7.58057E+2
  -2.92747E+3  -1.88784E+2
  -3.17599E+3   2.98076E+3
  -1.33986E+3  -4.46309E+2
   1.90678E+3  -2.08270E+3
   1.33777E+3  -1.71346E+3
   6.79078E+2   6.26117E+2
   6.16203E+2   9.03859E+2
  -1.88878E+3   4.96264E+2
  -1.82113E+3  -3.71318E+2
  -9.10888E+1  -4.17115E+1
  -2.52859E+2  -1.27291E+3
  -1.48487E+3  -1.11865E+3
  -1.10969E+3  -8.82456E+2
   2.35387E+3  -1.46131E+3
   2.41174E+3  -9.75223E+1
  -1.72047E+3   4.68834E+3
  -3.02636E+3  -9.96292E+2
   2.08712E+3  -2.33813E+3
   2.42534E+3   1.23564E+3
  -2.58104E+3   2.63512E+3
  -3.42655E+3  -1.49257E+3
  -1.17780E+3  -3.82704E+3
   2.48528E+3  -3.76767E+3
   4.23473E+3   2.63589E+3
   5.12807E+2   4.61850E+3
  -1.20000E+3   6.83089E+2
   1.05230E+3   1.19116E+3
  -8.75171E+2   1.35046E+3
  -8.63984E+2  -2.22216E+3
   1.17887E+3  -2.17902E+3
   1.48256E+3  -2.96887E+3
   2.59396E+3  -2.19715E+3
   5.46830E+3  -5.79212E+2
  -1.40654E+3   1.56638E+3
  -6.61265E+3  -7.28953E+2
  -3.67812E+3  -2.39430E+3
  -2.68151E+2  -1.82719E+3
  -1.08543E+3  -4.24333E+2
   1.20581E+3  -8.15044E+2
   3.80371E+3  -2.83573E+2
   3.50006E+3   2.52406E+3
   8.21391E+2   1.79527E+3
   2.45252E+3   2.13829E+3
  -2.94662E+2   3.60021E+2
   1.59964E+3  -1.18992E+3
   1.69926E+3  -3.44654E+3
   2.23696E+3  -2.72413E+3
   2.61380E+3  -1.45488E+3
   2.35673E+3   5.80798E+2
  -1.39267E+3   4.22135E+3
  -2.54303E+3   2.39510E+3
  -2.52032E+3   1.08802E+3
  -1.58346E+3   8.06581E+2
  -1.01220E+3  -2.31661E+3
   1.89874E+3  -4.88421E+2
   5.42719E+3   3.78151E+2
   3.33256E+2  -8.04626E+1
   1.76112E+3  -2.34759E+3
   3.95370E+3  -7.06222E+2
   1.24142E+3  -2.12135E+2
   5.00404E+2   1.74705E+2
   2.39484E+3   4.29964E+2
   5.60505E+2   1.34030E+3
  -4.97413E+2   2.14668E+3
  -2.26704E+3   3.52119E+3
  -2.76341E+3  -6.00940E+2
  -2.39561E+2   1.24357E+3
   8.92035E+2  -1.12223E+3
   8.87196E+2   3.19741E+3
   9.90463E+2   2.34527E+2
   9.15341E+1  -3.62281E+2
  -2.46049E+2  -2.21140E+3
   7.84224E+2  -9.96446E+2
   3.36597E+2  -7.89461E+2
  -2.96945E+3  -1.66806E+3
   2.48461E+3   6.28335E+2
   1.76085E+3  -3.39759E+2
   1.08561E+3   1.95015E+3
  -2.97719E+3   5.17757E+2
  -2.78704E+3   2.46892E+3
  -1.26770E+3  -5.98014E+2
  -4.27430E+1  -1.96872E+3
  -1.10917E+3  -7.63147E+2
  -6.96893E+2   2.87941E+2
   2.58407E+3   2.02806E+2
   2.08532E+3   8.46288E+2
  -1.63956E+2   1.48214E+3
  -9.97574E+2   1.48700E+3
  -2.21053E+3  -8.56056E+2
  -1.22141E+3  -3.59884E+3
   1.24733E+3  -1.55545E+3
   4.59887E+1   3.72622E+3
  -3.25464E+3   3.68089E+3
  -3.29236E+3  -1.53790E+3
  -1.31365E+3  -2.31415E+3
   9.42020E+2  -1.40438E+3
   1.27975E+3  -3.92528E+2
   2.16014E+2  -3.11940E+3
  -1.09493E+3  -7.54366E+2
   1.01043E+3   1.83781E+3
   1.07933E+2   1.36328E+3
   5.80557E+1   2.93040E+3
  -3.60528E+3   3.30340E+2
  -1.10794E+3  -1.98286E+3
   4.20586E+1   7.13265E+1
  -1.29476E+3  -1.57790E+3
   1.43757E+3  -3.44265E+2
   1.19730E+3  -1.04688E+2
  -1.17036E+3  -6.38510E+2
   1.30062E+3   8.81267E+2
   7.60757E+2   1.27422E+3
  -2.20226E+3   1.28950E+3
   5.79668E+2  -1.37528E+3
   6.72250E+2   3.64768E+2
  -8.77541E+2   1.32295E+3
  -2.60598E+2   1.82978E+3
   1.03836E+2   1.74299E+1
  -6.90890E+2   3.75849E+2
  -8.43740E+2   6.56994E+2
   9.42863E+2   6.76723E+2
  -7.74463E+2  -4.62881E+1
  -3.18113E+2   1.64046E+3
   2.99048E+2  -8.17344E+2
  -2.27123E+3   8.71386E+2
  -1.90265E+3   1.98606E+2
  -1.06462E+3  -2.65664E+2
  -9.86614E+2  -7.69153E+2
   1.08197E+3   2.84659E+2
   2.00081E+3  -6.07429E+1
   2.83650E+2   1.78035E+3
  -2.02604E+3  -9.08220E+1
  -2.97661E+3  -2.15161E+2
  -2.25633E+3   5.42981E+2
  -2.41596E+1   4.08054E+2
  -5.08170E+2  -7.29985E+2
  -1.39304E+3   6.43001E+2
   7.22133E+2   1.05947E+3
  -2.60101E+3   3.27026E+2
   6.51641E+2   1.11969E+3
  -1.39478E+3  -5.99536E+2
  -1.60189E+2   2.19806E+2
  -1.76349E+2  -8.94680E+2
   2.45689E+2  -1.69089E+2
   6.42427E+2   4.05893E+2
   3.59890E+2   2.10744E+3
  -7.99831E+2   6.22107E+2
  -6.54715E+2  -7.71881E+1
   2.79609E+2  -7.69905E+2
   1.22331E+3   7.27738E+2
   1.06312E+3   7.13215E+2
   8.67119E+2   9.32793E+1
   1.82535E+3   1.39665E+3
   1.37353E+3   9.01567E+2
   2.88572E+3   2.06199E+3
   4.46005E+2  -1.99537E+3
  -4.30200E+2   1.89533E+3
  -1.11951E+3  -2.69982E+3
   1.88353E+3  -5.21191E+2
  -8.80181E+2  -2.68881E+2
  -3.08799E+3  -9.32463E+2
   5.45950E+2  -2.24486E+2
  -2.36085E+2  -1.81627E+3
   1.93335E+3  -1.18982E+3
   1.52920E+3  -1.38619E+3
  -6.39881E+2   5.60154E+2
   1.42389E+3   2.68778E+3
   2.32447E+3   1.67845E+3
  -3.10208E+2  -3.05429E+2
  -1.40427E+2  -4.19687E+2
  -1.54537E+3  -5.48357E+2
   1.15616E+3  -2.43189E+3
   1.01428E+2  -2.17699E+3
  -3.11443E+2   2.17501E+2
   1.14631E+3  -1.58127E+3
   6.64258E+2   6.98305E+2
   1.07326E+3  -3.60576E+2
  -7.43595E+2   5.04639E+2
   2.06898E+3  -2.08569E+2
  -1.17264E+2  -2.47741E+3
   1.70632E+3   6.03130E+1
  -1.28079E+2  -2.87111E+2
   1.34724E+3   1.87676E+3
   1.39908E+3   2.31250E+3
  -8.76498E+2   2.97177E+2
   4.18430E+2  -1.05194E+3
   3.74740E+2  -5.31507E+2
   5.00360E+2  -5.03785E+2
   1.28814E+3   1.16934E+3
  -5.15234E+2  -4.22705E+2
  -1.02472E+3  -1.21197E+2
   9.88959E+2  -7.32781E+2
  -1.00512E+3  -5.69777E+2
  -3.50909E+2  -2.94390E+2
   3.48091E+2   2.91124E+2
   2.33229E+1   1.20648E+3
   1.69915E+2   2.71887E+2
  -2.18075E+3   5.08387E+2
  -1.13875E+3  -1.75119E+2
  -1.07114E+3  -8.25261E+2
   6.12079E+2   8.49604E+2
  -1.40378E+3  -7.74498E+1
   1.30153E+3  -2.82361E+3
   8.62722E+1  -1.06092E+3
   1.34596E+2  -5.16560E+0
   5.60708E+2   2.44544E+1
  -1.39932E+3  -3.06548E+2
  -1.71012E+3  -2.44030E+2
   9.33940E+2  -1.87440E+3
  -1.80993E+3  -6.41321E+2
  -2.10742E+2  -3.34955E+2
   1.16706E+3  -7.18278E+2
  -1.90790E+3  -7.05887E+2
   3.89762E+2  -1.08895E+3
   1.68133E+2  -2.36591E+2
  -6.38522E+2   3.56356E+2
  -6.32501E+2   1.53946E+3
  -3.88695E+2   9.99972E+1
  -6.79527E+2   1.16511E+2
  -9.77352E+2  -2.17714E+3
  -4.96139E+2  -4.56376E+2
   1.99950E+3  -1.52696E+3
   1.82108E+3   1.85705E+2
  -2.37684E+2  -5.11654E+2
   7.26178E+2  -1.01069E+3
   4.05592E+2  -2.76518E+2
   1.01586E+3  -8.38753E+2
  -9.30500E+2   2.31400E+3
   6.99139E+2   1.52641E+3
  -7.81478E+2   1.64804E+2
  -5.16085E+2   9.56537E+2
  -6.35977E+2   1.12331E+1
  -5.43780E+2   1.11272E+3
  -9.10205E+2  -3.50823E+2
   3.10985E+2  -1.92563E+2
  -8.14463E+2  -9.35228E+2
   6.83125E+0   5.34072E+2
  -2.60632E+2  -8.33586E+2
   1.99780E+1   1.32153E+2
   2.25120E+2   1.76950E+3
  -1.26174E+3  -6.41069E+2
  -2.01146E+3  -9.44749E+2
   1.68738E+2   2.51470E+3
   1.15011E+2  -2.16577E+3
   1.83125E+3  -1.17679E+3
   7.22735E+2   1.06353E+3
  -2.75224E+2  -4.55404E+0
  -1.62551E+3   1.71815E+3
  -1.09402E+3  -2.83265E+2
   4.24964E+2   7.00955E+2
  -5.23484E+2   9.07880E+2
   2.19116E+2  -1.66630E+3
  -1.17138E+3   1.05783E+3
   1.26911E+3  -2.20997E+2
   4.43874E+0  -8.46149E+1
   1.67125E+3  -1.31445E+3
  -8.67138E+2  -7.33045E+2
   7.50094E+2   7.61314E+2
   3.56841E+2   1.43962E+3
  -3.10918E+2  -1.08012E+3
   6.49401E+2   7.02404E+1
   1.27322E+2   5.97046E+2
   3.07557E+2  -9.84699E+2
   2.08870E+2   1.05792E+3
   1.09423E+3   1.12988E+3
   2.05391E+2  -8.52992E+2
  -9.31214E+2  -7.38051E+2
   1.89380E+2  -8.03492E+2
  -5.95012E+2   1.52315E+3
   3.32205E+2   1.32158E+2
   7.19208E+2   5.83803E+2
  -6.69733E+2   1.98236E+3
   7.12534E+2  -7.55245E+2
   1.33292E+3   7.53031E+2
   6.61840E+2   1.57893E+3
  -4.65849E+2   1.14236E+3
   1.39368E+3  -1.15844E+3
   3.36628E+2   2.20360E+3
  -1.16900E+2  -3.85516E+2
  -1.89092E+2   3.09688E+2
  -1.19265E+3   6.70263E+2
  -1.39074E+3  -2.75768E+2
  -8.80506E+2  -1.16270E+3
  -4.48835E+2   9.58496E+2
   4.97531E+2  -1.55105E+2
   4.04772E+2  -3.50908E+2
   5.10037E+2  -3.78012E+2
   7.49059E+2  -8.07527E+2
  -3.66760E+2   1.28606E+3
   1.73135E+3  -2.09105E+3
  -7.98745E+2   4.22958E+2
  -5.37708E+2   9.52922E+2
  -2.32828E+3   1.48660E+3
  -1.00578E+3  -5.14973E+2
   1.54097E+3   1.92062E+3
   1.74285E+3   1.61962E+3
  -2.72396E+2   4.98446E+2
   1.98369E+1  -5.14457E+2
   4.17894E+1   2.72117E+1
  -2.64336E+2   1.53562E+3
  -6.27431E+2   1.68690E+3
   1.42818E+2   4.79105E+2
   4.41897E+2   1.01238E+3
  -2.96669E+2  -3.02044E+2
  -1.06533E+3  -8.25307E+2
  -3.92784E+2   7.79455E+2
   5.45997E+2  -9.37927E+2
   1.43602E+3  -4.94214E+2
  -5.49402E+2   1.41512E+2
  -1.73760E+3  -6.03195E+2
   2.17544E+2  -1.78523E+3
   1.36804E+1  -1.89177E+2
  -7.72190E+2  -8.99813E+2
  -1.14027E+3   2.57363E+2
   7.74338E+2  -7.98836E+0
  -2.44083E+2  -4.53790E+2
  -1.48013E+3  -2.60121E+3
   7.46388E+2  -1.10513E+3
  -1.93095E+2   2.43879E+3
   1.21644E+3  -7.67601E+2
   3.56426E+1   9.35958E+2
   3.42057E+2   8.29905E+2
  -5.93464E+2  -6.15091E+2
  -6.11128E+2   9.59584E+1
  -8.24918E+2  -1.69528E+3
   5.99088E+2   2.96149E+0
  -4.43806E+2   1.40961E+3
   2.57758E+2  -1.84337E+3
  -1.76023E+1  -1.37555E+1
   2.37556E+2  -8.26773E+2
  -1.03998E+2   1.69270E+3
   5.57077E+2   4.22028E+2
  -1.30066E+3   1.25226E+3
   3.78309E+2  -1.47762E+3
   9.07921E+2  -8.20591E+2
   7.88979E+2   1.01153E+3
   2.33263E+3  -1.13396E+3
   1.75534E+3  -4.15180E+2
  -8.06261E+2   9.22582E+2
   5.18364E+2   1.01320E+3
  -1.63443E+3  -2.43353E+2
  -1.66425E+2  -8.34517E+2
   4.92857E+2  -5.09034E+2
   5.54492E+2   2.57102E+2
  -3.82951E+1   8.55772E+2
  -2.15678E+2  -7.50160E+1
  -1.23121E+3  -8.37174E+2
  -3.66651E+2   5.85883E+2
   2.39033E+2  -9.87462E+2
  -1.17400E+2  -1.24343E+2
  -1.56070E+1   3.28605E+2
   1.78647E+3  -1.40918E+3
   9.66158E+2   1.08774E+3
   9.16018E+2   2.40616E+3
  -3.07842E+2   6.20367E+2
   1.54500E+2   3.20680E+1
  -2.12331E+3   1.34025E+3
  -1.52364E+3  -2.68972E+2
  -1.36455E+3  -3.45291E+2
  -2.91049E+2  -7.79558E+2
