 LCModel (Version 6.3-1N) Copyright: S.W. Provencher.          Ref.: Magn. Reson. Med. 30:672-679 (1993).                
 Slice_N1@17_18  02-Jun-2023 14:37:04
 27 lines in following concentration table = NCONC+1
    Conc.  %SD /Cr+PCr  Metabolite                                         
 2.13E-06  15% 3.0E-04 Mac                                                 
 3.46E-02  25%   4.839 Cr                                                  
 2.26E-02  39%   3.161 PCr                                                 
 6.83E-02  11%   9.566 Ins                                                 
 8.84E-02   7%  12.384 NAA                                                 
 6.06E-02  11%   8.485 Tau                                                 
    0.000 999%   0.000 PCho                                                
 1.11E-02  15%   1.553 GPC                                                 
 5.48E-02  15%   7.681 Glu                                                 
 9.74E-03  55%   1.364 Gln                                                 
    0.000 999%   0.000 Ala                                                 
 5.95E-02  20%   8.328 Asc                                                 
 1.62E-02  48%   2.262 Asp                                                 
 9.40E-03  42%   1.317 GABA                                                
 8.88E-03  60%   1.243 Glc                                                 
 4.15E-03  61%   0.582 GSH                                                 
 5.71E-03 117%   0.799 Lac                                                 
 1.38E-02  28%   1.937 NAAG                                                
    0.000 999%   0.000 PE                                                  
 1.11E-02  15%   1.553 GPC+PCho                                            
    0.102   7%  14.321 NAA+NAAG                                            
 6.46E-02  15%   9.046 Glu+Gln                                             
 5.71E-02   9%   8.000 Cr+PCr                                              
    0.102   7%  14.321 NAA+NAAG                                            
 5.71E-02   9%   8.000 Cr+PCr                                              
 6.46E-02  15%   9.046 Glu+Gln                                             
   6 lines in following misc. output table
  FWHM = 0.023 ppm    S/N =   6                                            
  Data shift = 0.023 ppm                                                   
  Ph: -26 deg      -8.6 deg/ppm                                            
  alphaB,S = 3.1E+01,   3.9E+00                                            
   18 spline knots.   Ns = 5(1)                                            
   2 inflections.     1 extrema                                            
  654 points on ppm-axis = NY
      4.000000     3.994181     3.988363     3.982544     3.976726     3.970907     3.965088     3.959270     3.953451     3.947633
      3.941814     3.935995     3.930177     3.924358     3.918540     3.912721     3.906902     3.901084     3.895265     3.889446
      3.883628     3.877809     3.871991     3.866172     3.860353     3.854535     3.848716     3.842898     3.837079     3.831260
      3.825442     3.819623     3.813805     3.807986     3.802167     3.796349     3.790530     3.784712     3.778893     3.773074
      3.767256     3.761437     3.755619     3.749800     3.743981     3.738163     3.732344     3.726526     3.720707     3.714888
      3.709070     3.703251     3.697433     3.691614     3.685795     3.679977     3.674158     3.668339     3.662521     3.656702
      3.650884     3.645065     3.639246     3.633428     3.627609     3.621791     3.615972     3.610153     3.604335     3.598516
      3.592698     3.586879     3.581060     3.575242     3.569423     3.563605     3.557786     3.551967     3.546149     3.540330
      3.534512     3.528693     3.522874     3.517056     3.511237     3.505419     3.499600     3.493781     3.487963     3.482144
      3.476326     3.470507     3.464688     3.458870     3.453051     3.447232     3.441414     3.435595     3.429777     3.423958
      3.418139     3.412321     3.406502     3.400684     3.394865     3.389046     3.383228     3.377409     3.371591     3.365772
      3.359953     3.354135     3.348316     3.342498     3.336679     3.330860     3.325042     3.319223     3.313405     3.307586
      3.301767     3.295949     3.290130     3.284312     3.278493     3.272674     3.266856     3.261037     3.255219     3.249400
      3.243581     3.237763     3.231944     3.226125     3.220307     3.214488     3.208670     3.202851     3.197032     3.191214
      3.185395     3.179577     3.173758     3.167939     3.162121     3.156302     3.150484     3.144665     3.138846     3.133028
      3.127209     3.121391     3.115572     3.109753     3.103935     3.098116     3.092298     3.086479     3.080660     3.074842
      3.069023     3.063205     3.057386     3.051567     3.045749     3.039930     3.034111     3.028293     3.022474     3.016656
      3.010837     3.005018     2.999200     2.993381     2.987563     2.981744     2.975925     2.970107     2.964288     2.958470
      2.952651     2.946832     2.941014     2.935195     2.929377     2.923558     2.917739     2.911921     2.906102     2.900284
      2.894465     2.888646     2.882828     2.877009     2.871191     2.865372     2.859553     2.853735     2.847916     2.842098
      2.836279     2.830460     2.824642     2.818823     2.813004     2.807186     2.801367     2.795549     2.789730     2.783911
      2.778093     2.772274     2.766456     2.760637     2.754818     2.749000     2.743181     2.737363     2.731544     2.725725
      2.719907     2.714088     2.708270     2.702451     2.696632     2.690814     2.684995     2.679177     2.673358     2.667539
      2.661721     2.655902     2.650084     2.644265     2.638446     2.632628     2.626809     2.620991     2.615172     2.609353
      2.603535     2.597716     2.591897     2.586079     2.580260     2.574442     2.568623     2.562804     2.556986     2.551167
      2.545349     2.539530     2.533711     2.527893     2.522074     2.516256     2.510437     2.504618     2.498800     2.492981
      2.487163     2.481344     2.475525     2.469707     2.463888     2.458070     2.452251     2.446432     2.440614     2.434795
      2.428977     2.423158     2.417339     2.411521     2.405702     2.399884     2.394065     2.388246     2.382428     2.376609
      2.370790     2.364972     2.359153     2.353335     2.347516     2.341697     2.335879     2.330060     2.324242     2.318423
      2.312604     2.306786     2.300967     2.295149     2.289330     2.283511     2.277693     2.271874     2.266056     2.260237
      2.254418     2.248600     2.242781     2.236963     2.231144     2.225325     2.219507     2.213688     2.207870     2.202051
      2.196232     2.190414     2.184595     2.178777     2.172958     2.167139     2.161321     2.155502     2.149683     2.143865
      2.138046     2.132228     2.126409     2.120590     2.114772     2.108953     2.103135     2.097316     2.091497     2.085679
      2.079860     2.074042     2.068223     2.062404     2.056586     2.050767     2.044949     2.039130     2.033311     2.027493
      2.021674     2.015856     2.010037     2.004218     1.998400     1.992581     1.986763     1.980944     1.975126     1.969307
      1.963489     1.957670     1.951852     1.946033     1.940215     1.934397     1.928578     1.922760     1.916941     1.911123
      1.905304     1.899486     1.893667     1.887849     1.882030     1.876212     1.870393     1.864575     1.858756     1.852938
      1.847119     1.841301     1.835482     1.829664     1.823845     1.818027     1.812208     1.806390     1.800571     1.794753
      1.788934     1.783116     1.777297     1.771479     1.765660     1.759842     1.754023     1.748205     1.742386     1.736568
      1.730749     1.724931     1.719113     1.713294     1.707476     1.701657     1.695839     1.690020     1.684202     1.678383
      1.672565     1.666746     1.660928     1.655109     1.649291     1.643472     1.637654     1.631835     1.626017     1.620198
      1.614380     1.608561     1.602743     1.596924     1.591106     1.585287     1.579469     1.573650     1.567832     1.562013
      1.556195     1.550376     1.544558     1.538739     1.532921     1.527102     1.521284     1.515465     1.509647     1.503829
      1.498010     1.492192     1.486373     1.480555     1.474736     1.468918     1.463099     1.457281     1.451462     1.445644
      1.439825     1.434007     1.428188     1.422370     1.416551     1.410733     1.404914     1.399096     1.393277     1.387459
      1.381640     1.375822     1.370003     1.364185     1.358366     1.352548     1.346729     1.340911     1.335092     1.329274
      1.323455     1.317637     1.311818     1.306000     1.300182     1.294363     1.288545     1.282726     1.276908     1.271089
      1.265271     1.259452     1.253634     1.247815     1.241997     1.236178     1.230360     1.224541     1.218723     1.212904
      1.207086     1.201267     1.195449     1.189630     1.183812     1.177993     1.172175     1.166356     1.160538     1.154719
      1.148901     1.143082     1.137264     1.131445     1.125627     1.119808     1.113990     1.108171     1.102353     1.096534
      1.090716     1.084898     1.079079     1.073261     1.067442     1.061624     1.055805     1.049987     1.044168     1.038350
      1.032531     1.026713     1.020894     1.015076     1.009257     1.003439     0.997620     0.991802     0.985983     0.980165
      0.974346     0.968528     0.962709     0.956891     0.951072     0.945254     0.939435     0.933617     0.927798     0.921980
      0.916161     0.910343     0.904524     0.898706     0.892887     0.887069     0.881251     0.875432     0.869614     0.863795
      0.857977     0.852158     0.846340     0.840521     0.834703     0.828884     0.823066     0.817247     0.811429     0.805610
      0.799792     0.793973     0.788155     0.782336     0.776518     0.770699     0.764881     0.759062     0.753244     0.747425
      0.741607     0.735788     0.729970     0.724151     0.718333     0.712514     0.706696     0.700877     0.695059     0.689240
      0.683422     0.677603     0.671785     0.665967     0.660148     0.654330     0.648511     0.642693     0.636874     0.631056
      0.625237     0.619419     0.613600     0.607782     0.601963     0.596145     0.590326     0.584508     0.578689     0.572871
      0.567052     0.561234     0.555415     0.549597     0.543778     0.537960     0.532141     0.526323     0.520504     0.514686
      0.508867     0.503049     0.497230     0.491412     0.485593     0.479775     0.473956     0.468138     0.462319     0.456501
      0.450682     0.444864     0.439045     0.433227     0.427408     0.421590     0.415771     0.409953     0.404134     0.398316
      0.392497     0.386679     0.380860     0.375042     0.369223     0.363405     0.357586     0.351767     0.345949     0.340130
      0.334312     0.328493     0.322675     0.316856     0.311038     0.305219     0.299401     0.293582     0.287764     0.281945
      0.276127     0.270308     0.264490     0.258671     0.252853     0.247034     0.241216     0.235397     0.229579     0.223760
      0.217942     0.212123     0.206305     0.200486
 NY phased data points follow
  -8.05040E-03  6.06838E-02 -1.24702E-01 -9.70422E-02 -2.26696E-01 -3.80208E-01 -2.51357E-01 -3.27958E-01  5.27223E-02 -6.81960E-02
  -5.61176E-01  1.03956E-01  7.99377E-01  5.12856E-01  4.05443E-01  5.58067E-01  4.48088E-01  9.87616E-02  5.64472E-02  6.82485E-03
  -6.10418E-02  1.16301E-01  8.87746E-02  2.76094E-02  1.80256E-02  2.94212E-01 -1.66470E-01 -2.68112E-01  7.99659E-02  1.06536E-01
  -4.24333E-02 -3.16238E-01  4.91713E-02 -1.65703E-01 -3.68629E-01 -6.14032E-01 -4.31989E-01 -1.88453E-01 -4.34345E-01 -2.00834E-01
  -1.32454E-02 -2.18222E-01 -1.70395E-01  3.97949E-01  9.16526E-02  3.86263E-01  5.61913E-01  3.97374E-01  5.57456E-01  3.57295E-01
   1.13876E-01 -6.20946E-02  9.08827E-02 -2.04545E-01  9.02479E-02 -3.19616E-02 -3.87398E-01 -2.62037E-02  7.16093E-02  2.55219E-01
   2.67348E-01 -2.99626E-01 -3.29131E-01 -1.00386E-01 -3.27816E-01 -2.17704E-01  1.31054E-01  3.39987E-01  7.64545E-02  2.01312E-01
  -5.08982E-02 -5.87193E-03  5.48200E-02  5.96718E-02  1.62877E-01 -5.82842E-02  3.89047E-02 -4.49430E-01 -5.68766E-02 -5.69790E-01
  -6.01481E-01 -1.15883E-01 -2.82745E-01  2.09602E-01  3.24817E-01  6.61179E-01  4.26043E-01  2.41655E-01  2.83130E-01  2.84978E-01
   1.48211E-01  2.34669E-01  1.97475E-01 -3.04069E-01 -2.85668E-01  6.92755E-02  3.75809E-02 -3.11580E-01 -2.48040E-01 -2.70369E-01
  -2.49717E-01 -1.55334E-01  9.22569E-02  1.06265E-01  4.08813E-01  6.18146E-01  3.03430E-01  4.18192E-01  4.39412E-01  3.08057E-01
   4.07105E-01  3.27295E-01  1.14943E-01  3.47361E-01  1.89968E-01  7.67955E-02  1.85622E-01  8.53588E-02  2.50611E-01  2.07353E-01
   1.57962E-02  2.80222E-01 -7.56577E-02 -3.16581E-01 -2.40402E-01 -4.29479E-01 -2.58428E-01 -4.55779E-01 -4.09954E-01 -6.38154E-01
  -6.59868E-01 -6.51678E-01 -6.26423E-01 -3.92042E-01 -6.04312E-01 -4.36572E-01 -7.74993E-01 -8.22870E-01 -4.49515E-01 -2.51717E-01
  -1.78948E-02 -1.55903E-01 -3.16915E-02  3.00846E-01  6.82647E-02  1.59107E-01  7.31322E-02 -1.21881E-02  1.10681E-01 -2.84262E-01
   1.88183E-01  2.21804E-01 -1.40634E-01  2.27784E-02  1.80021E-02  3.40654E-01  2.78473E-01  1.02226E-01  2.84591E-01  9.40968E-02
   4.52671E-01  5.10987E-01  4.82027E-01  9.15363E-01  8.91877E-01  8.79034E-01  7.48708E-01  2.88324E-01 -6.89218E-01 -8.58316E-01
  -8.81628E-01 -6.97835E-01 -5.44612E-01 -6.39146E-01 -2.04805E-01 -5.85862E-01 -4.64898E-01 -3.50581E-01 -4.41469E-01 -3.27890E-01
  -5.16372E-01 -2.58367E-01 -2.70677E-01 -5.61068E-01 -8.41703E-02 -1.31840E-01 -2.08998E-01  1.69128E-02 -1.80090E-01 -1.33329E-01
  -5.09483E-01 -8.88841E-02  5.52223E-03 -1.96627E-01  9.97567E-02 -3.33789E-01 -2.05672E-01  3.90574E-02 -1.08511E-01 -1.14835E-01
  -7.65101E-02 -3.40027E-03  9.34287E-02  2.47660E-02  5.63499E-02 -3.07680E-02 -2.19991E-02  1.35933E-01  1.92643E-03  1.35895E-01
  -1.75075E-01 -2.64509E-01  5.22847E-02 -3.68840E-01 -5.16507E-02  1.40272E-01  1.12267E-02  1.44835E-01  3.25532E-02  1.97438E-01
  -3.41283E-02 -1.43833E-01  3.32074E-02  2.27740E-01 -2.97291E-02  1.52120E-01  5.04350E-01  2.53562E-01  4.04958E-01  4.05782E-01
   5.40160E-01  4.95496E-01  4.43561E-01  3.12636E-01 -1.12681E-02  1.03103E-01  7.52193E-02 -3.15412E-01 -1.90408E-01 -2.10262E-01
  -1.20966E-01  8.71734E-02 -2.12523E-01 -1.10219E-01 -1.03108E-01  1.36716E-02 -1.87984E-01 -8.85498E-02  6.40424E-02  1.73481E-01
   5.20874E-02  2.42982E-02  2.74222E-01 -1.18783E-01  8.78424E-02  8.44704E-02  1.27580E-01  1.41567E-02  1.08360E-01  3.42368E-01
   7.16555E-01  3.38535E-01 -2.34464E-01  1.98344E-01  2.29227E-01  4.55415E-01  3.15995E-01  4.37677E-01  1.96382E-01  5.75871E-01
   3.23398E-01 -2.65311E-01  4.20062E-01 -6.23607E-02 -1.23657E-01 -9.42730E-02 -2.01084E-01 -8.71222E-02 -1.23161E-01 -5.97685E-02
  -2.41189E-01 -5.50037E-01 -2.34812E-01 -1.94087E-01 -3.55838E-02  3.79304E-01  3.24218E-01  8.72712E-01  8.56860E-01  2.67844E-01
  -1.57920E-01  1.68030E-01  2.63731E-01 -2.18271E-01 -4.59404E-02  2.42588E-01  1.28620E-01  1.40260E-01  1.51438E-01 -1.06458E-01
   8.95651E-02  3.27142E-01  4.22564E-01  2.47606E-01  2.70198E-01  1.98529E-01  1.20614E-01  2.91554E-01  4.60086E-01  2.03400E-01
   7.47193E-03  5.50728E-01  2.68350E-01  1.11799E-01  2.82803E-01  3.37470E-01  1.23796E-02 -6.15925E-03  2.96158E-01 -6.21423E-02
  -3.20912E-01 -2.72201E-01  1.95580E-01 -1.59881E-01 -1.08824E-01 -1.24370E-01 -4.70893E-01  2.28315E-01  2.46439E-01  3.51103E-02
   1.30729E-02  1.33121E-01  1.56472E-01  3.75108E-02 -1.96962E-01 -4.63526E-01 -4.58956E-01 -5.49578E-01 -1.43255E-01 -3.30948E-01
  -6.90624E-01 -6.73149E-01 -1.80417E+00 -2.17625E+00 -1.32313E+00 -8.22537E-01 -4.61279E-01 -2.70802E-01  3.58658E-02  1.38348E-01
   3.00782E-02  1.15828E-01 -2.92690E-02 -1.45709E-01 -8.47424E-02  2.06574E-01  1.74606E-02 -1.19107E-01  6.34195E-03 -2.40303E-01
  -5.05799E-02 -3.17512E-02  1.28728E-01  1.03631E-01 -2.16198E-01  1.92642E-01  1.23517E-01 -2.26693E-01  6.73605E-02  3.40398E-02
  -1.54906E-01  2.38942E-01  2.26298E-01  5.77583E-03  5.01166E-02  3.22828E-01  2.84361E-01  9.93328E-02  1.83027E-01 -7.25986E-02
   2.41973E-01  3.06492E-01  1.06437E-01  3.62882E-01  1.46451E-01  1.50919E-02  7.71785E-02  1.16209E-02  1.93856E-01  3.75100E-01
   3.66458E-02  2.74305E-01  4.52005E-01  2.15680E-01  5.26855E-01  2.03324E-02  1.63943E-01  3.72108E-01 -2.15083E-01 -2.77659E-02
  -3.54770E-02  1.25425E-01 -1.59080E-02  1.74922E-01  2.09536E-01 -1.24603E-01  9.85614E-02  9.14707E-02  1.79925E-01 -1.33927E-01
   1.09098E-01  1.43532E-01 -8.61637E-03 -1.18795E-01  8.51366E-03  2.22136E-01 -2.91663E-01 -1.43392E-01 -2.84438E-01 -1.39054E-01
  -1.54985E-01 -6.31109E-02 -1.80655E-02 -2.06260E-01  2.43630E-01 -3.66529E-02 -2.24459E-01 -1.54090E-01 -2.33746E-02  5.68125E-02
   1.89332E-02 -6.57187E-02 -2.08465E-01 -3.42317E-01 -1.01624E-01  1.06584E-01  4.23575E-02 -1.01051E-01 -1.10227E-01  4.60078E-02
   4.01724E-03 -1.65841E-02 -1.53901E-01  2.82390E-01  1.41318E-01  2.81465E-01  4.93318E-01  2.06551E-01  2.83359E-01  1.31255E-01
   1.06133E-01 -1.32499E-01 -1.22649E-01 -4.58955E-02  7.08334E-02 -2.92394E-01  1.98742E-03  1.49756E-01 -4.98611E-02  2.31294E-01
   6.56022E-02  5.13543E-01  3.56799E-01  7.56266E-02 -7.65950E-02 -1.35736E-01 -1.61800E-01 -2.21540E-01 -1.59240E-01 -1.26059E-01
  -1.01851E-01 -3.53468E-01 -1.21976E-01 -2.89675E-01 -3.97315E-01  4.49086E-02 -2.36498E-01 -3.19473E-01  2.35784E-02 -2.02655E-01
  -2.80408E-02 -9.67715E-02  9.70508E-02  8.49725E-02 -6.86174E-02  2.91392E-01  2.23446E-01  4.29562E-01  5.56096E-02 -1.01926E-01
  -7.21305E-02  8.30687E-02 -5.71442E-02  1.15651E-02 -1.21151E-03 -1.52300E-01  2.34407E-01  4.68902E-02  1.69292E-02 -8.09419E-02
   2.73846E-01  6.64921E-02  7.87153E-02  2.40535E-02 -7.62097E-02  1.10713E-01  3.49897E-02  3.02578E-01  6.97996E-02  1.16437E-01
  -2.98167E-02  2.83001E-01  2.39331E-01  2.00633E-01  3.52176E-01  8.60436E-02 -3.06287E-02 -2.59749E-01  1.18434E-01 -5.64912E-02
  -1.16970E-01  2.29524E-02 -3.93162E-01  4.65966E-02 -1.02449E-01 -7.38235E-01 -1.82983E-01 -4.48004E-01 -2.43335E-01 -1.21901E-01
  -6.84454E-01 -2.79735E-01 -5.69119E-02  1.03546E-02 -8.45583E-02 -3.85543E-01 -3.33248E-01  1.83742E-01 -2.37947E-01 -3.39620E-01
  -3.74426E-01 -1.33451E-01  1.99778E-01 -3.61944E-02  2.04781E-01 -3.29385E-01 -5.37387E-02  5.69629E-03  4.52176E-02  2.95762E-01
   7.86687E-02  2.25628E-01  1.19234E-01  1.49522E-01  1.39677E-01  3.64554E-01  1.28510E-01  9.34050E-03  2.13302E-01 -2.89349E-03
   5.19787E-02  1.22862E-01  5.69416E-03 -1.67640E-01 -7.51089E-04  2.83091E-01  2.24937E-01  1.16085E-01  2.08151E-01  2.20094E-01
   3.42975E-02  1.26351E-01  2.35253E-01  2.07967E-01 -1.18193E-01 -1.21040E-02  1.92533E-01 -8.55355E-02  2.32346E-01  5.35506E-02
  -1.25259E-01 -5.89079E-02 -1.60618E-01 -9.59011E-02  1.81844E-01  1.10199E-01  1.46050E-02  2.38466E-01  3.73132E-02  5.36609E-02
  -2.11516E-01  3.00009E-01  2.73641E-01 -7.32600E-02  7.89355E-02 -1.59272E-01 -1.22133E-01 -1.92414E-01  3.43536E-02 -8.38397E-02
   1.09173E-01  2.32566E-02 -8.94052E-02 -5.73414E-02 -9.08677E-02 -2.63384E-02 -9.24801E-02  1.09009E-01 -1.26088E-01 -4.30649E-02
  -8.04486E-02  5.09752E-02  3.29515E-01  1.33447E-02 -6.24636E-02  2.28279E-01 -2.39600E-01  5.62486E-02  2.94143E-01 -1.28159E-01
   1.51943E-01 -3.51237E-01 -3.48124E-02 -4.92898E-02 -8.65618E-02  1.37112E-01 -1.92520E-01  2.17791E-01  7.55140E-02  2.66840E-02
   8.66985E-02  1.04035E-01  3.76942E-01  8.48611E-02 -1.49716E-01  5.75896E-02 -4.89358E-02  8.58249E-02  3.02505E-01  2.83897E-01
   2.25917E-01 -6.44546E-02 -4.80029E-02  1.28678E-01 -8.52992E-03 -8.75448E-02  2.84353E-01  1.79941E-01  7.58662E-02  2.61965E-01
   2.12524E-02 -1.88704E-01 -1.23714E-01  2.27987E-01
 NY points of the fit to the data follow
   1.73784E-01  9.87671E-02  1.69179E-02 -2.08235E-02 -3.58178E-02 -2.09417E-02 -1.11954E-02 -5.27256E-03  8.25469E-03  7.16029E-02
   8.15601E-02  2.34299E-01  4.65717E-01  4.49923E-01  5.70388E-01  6.32069E-01  4.23636E-01  2.39375E-01  1.38271E-01  8.94787E-02
   1.87831E-02  2.85390E-02 -8.95485E-03 -5.29179E-02 -8.37137E-02 -1.09411E-01 -1.29857E-01 -1.44686E-01 -1.51521E-01 -1.61638E-01
  -1.69140E-01 -1.76597E-01 -1.88160E-01 -2.13583E-01 -2.39759E-01 -2.79822E-01 -3.06282E-01 -3.13177E-01 -3.21290E-01 -2.97376E-01
  -2.18496E-01 -1.38931E-01 -5.38186E-02  1.45426E-01  2.58353E-01  3.87991E-01  5.05323E-01  4.30371E-01  3.69632E-01  3.01675E-01
   2.25053E-01  1.33949E-01  1.12705E-01  4.27540E-02 -2.28975E-02 -6.07265E-02 -9.75836E-02 -1.17503E-01 -9.62586E-02 -8.10120E-02
  -7.66793E-02 -2.01901E-01 -2.89160E-01 -1.94881E-01 -2.72342E-01 -1.93205E-01  1.31160E-01  2.11052E-01  2.82546E-01  4.26046E-01
   4.37509E-01  3.26339E-01  2.50575E-01  1.86441E-01  8.74409E-02  3.24843E-02 -1.00686E-01 -2.41175E-01 -2.92287E-01 -4.60215E-01
  -4.96631E-01 -2.15397E-01 -2.32240E-02  1.05032E-01  3.11347E-01  4.38269E-01  4.05923E-01  3.49951E-01  3.13357E-01  2.37560E-01
   1.92953E-01  1.75694E-01  1.50084E-01  1.21810E-01  6.10890E-02 -1.48814E-02 -1.43081E-01 -2.99340E-01 -3.86373E-01 -4.37809E-01
  -3.43680E-01 -1.52446E-01  4.50587E-02  2.15310E-01  2.86085E-01  3.05729E-01  2.76818E-01  2.63241E-01  2.43188E-01  2.40590E-01
   2.38762E-01  2.36097E-01  2.30976E-01  2.26393E-01  2.21606E-01  2.18055E-01  2.15657E-01  2.18101E-01  2.20829E-01  1.89860E-01
   1.73051E-01  1.41491E-01  1.65517E-02  2.13512E-03 -7.07436E-02 -1.80882E-01 -2.17822E-01 -4.00012E-01 -5.04919E-01 -6.68513E-01
  -6.47757E-01 -4.94862E-01 -5.04728E-01 -4.07021E-01 -4.08005E-01 -6.76064E-01 -8.25541E-01 -5.83343E-01 -3.65557E-01 -1.95146E-01
  -5.46668E-02  3.18102E-02  1.92115E-02  3.62510E-02  5.60989E-02  7.60872E-02  9.33596E-02  1.09239E-01  1.24236E-01  1.36459E-01
   1.48270E-01  1.60527E-01  1.72838E-01  1.84855E-01  2.00245E-01  2.17325E-01  2.34564E-01  2.55308E-01  2.78364E-01  3.03016E-01
   3.33451E-01  3.73636E-01  4.58675E-01  7.64178E-01  7.99529E-01  6.17805E-01  7.35681E-01  8.58357E-02 -8.09702E-01 -9.79676E-01
  -8.63224E-01 -7.29096E-01 -5.79078E-01 -3.46141E-01 -3.65524E-01 -3.49201E-01 -3.21441E-01 -2.88815E-01 -2.71785E-01 -2.54750E-01
  -2.39006E-01 -2.21662E-01 -2.09389E-01 -1.98081E-01 -1.85985E-01 -1.77332E-01 -1.68810E-01 -1.58134E-01 -1.47442E-01 -1.39720E-01
  -1.31240E-01 -1.22059E-01 -1.13341E-01 -1.05288E-01 -9.58640E-02 -8.76650E-02 -7.99941E-02 -7.24622E-02 -6.43127E-02 -5.15246E-02
  -3.58888E-02 -2.42212E-02 -1.23206E-02 -4.01446E-03 -9.01670E-03 -1.36565E-02 -1.34704E-02 -2.00113E-04  1.29449E-02 -5.50710E-03
  -3.53931E-02 -5.17248E-02 -5.60844E-02 -5.11187E-02 -3.28572E-02 -1.71369E-02 -4.60128E-03  9.80380E-03  8.21431E-03  2.06897E-04
  -9.39579E-03  4.81324E-03  6.44744E-02  1.10447E-01  1.63979E-01  2.40725E-01  2.88069E-01  3.08982E-01  2.75299E-01  3.11608E-01
   4.29910E-01  3.93757E-01  2.41041E-01  1.16344E-01  2.25141E-02 -4.88422E-02 -7.09298E-02 -5.94056E-02 -6.49977E-02 -7.13488E-02
  -7.85039E-02 -8.49281E-02 -9.06884E-02 -9.47753E-02 -9.79451E-02 -1.03354E-01 -1.08588E-01 -1.13950E-01 -1.13545E-01 -1.18615E-01
  -1.21603E-01 -1.15846E-01 -1.51798E-01 -1.48069E-01 -1.15193E-01 -1.56928E-01 -6.69052E-02  5.10046E-02  4.63863E-02  1.07831E-01
   1.64066E-01  2.04072E-01  1.96433E-01  1.73833E-01  1.90179E-01  1.91498E-01  1.79243E-01  1.38046E-01  1.28270E-01  9.83746E-02
   6.85224E-02  4.72837E-02  2.41846E-02 -2.39552E-03 -2.65830E-02 -4.83627E-02 -7.57340E-02 -1.01141E-01 -1.46623E-01 -1.93824E-01
  -2.52633E-01 -3.28139E-01 -3.29086E-01 -2.96226E-01 -1.94104E-01  1.51570E-02  1.76745E-01  2.99406E-01  3.57882E-01  3.29063E-01
   2.52222E-01  1.75240E-01  1.44643E-01  1.09475E-01  1.26919E-01  1.59331E-01  1.77645E-01  1.99298E-01  1.98973E-01  1.94461E-01
   1.79083E-01  1.74455E-01  1.62876E-01  1.56460E-01  1.52419E-01  1.41669E-01  1.24094E-01  1.10707E-01  7.45457E-02  3.96296E-02
   2.15366E-02 -1.08861E-02 -6.10417E-03  1.04805E-02  1.62303E-02  2.57127E-02  1.16053E-02 -2.42347E-02 -7.29003E-02 -1.09007E-01
  -1.33228E-01 -1.49024E-01 -1.47800E-01 -1.34495E-01 -1.11296E-01 -7.40900E-02 -2.65007E-02  2.00197E-02  5.62278E-02  7.73596E-02
   5.06724E-02  3.27374E-02 -9.65779E-03 -1.15997E-01 -2.17380E-01 -2.49368E-01 -3.83721E-01 -3.58837E-01 -1.07821E-01 -3.59856E-01
  -6.66420E-01 -8.50127E-01 -1.79346E+00 -2.20140E+00 -1.52913E+00 -8.77146E-01 -4.39798E-01 -1.27735E-01  6.68443E-02 -4.29805E-02
  -4.14809E-02 -2.75011E-02 -1.14964E-02  1.60326E-03  1.12715E-02  2.36271E-02  3.16093E-02  3.01741E-02  3.02049E-02  1.32325E-02
  -8.64692E-03 -2.89198E-02 -5.33081E-02 -6.67173E-02 -7.46730E-02 -7.10447E-02 -6.20559E-02 -4.69870E-02 -3.25387E-02 -1.85609E-02
  -4.96838E-03  6.31949E-03  1.81362E-02  2.75695E-02  3.33389E-02  3.88067E-02  4.35039E-02  4.79357E-02  5.26027E-02  5.71003E-02
   6.00424E-02  6.36770E-02  6.75085E-02  7.09178E-02  7.43957E-02  7.67925E-02  7.85713E-02  7.93535E-02  8.31030E-02  8.68511E-02
   9.12279E-02  9.53255E-02  9.71120E-02  9.73793E-02  9.53353E-02  9.29674E-02  9.05951E-02  8.85910E-02  8.57052E-02  8.23362E-02
   7.70263E-02  7.05332E-02  6.46556E-02  5.78756E-02  5.05807E-02  4.42984E-02  3.97668E-02  3.44397E-02  2.80162E-02  2.38014E-02
   1.89334E-02  1.46895E-02  1.19028E-02  8.94548E-03  5.87896E-03  3.20289E-03  4.22749E-04 -2.11801E-03 -4.58254E-03 -6.68638E-03
  -7.43816E-03 -9.11180E-03 -1.00821E-02 -8.67284E-03 -6.94386E-03 -5.00601E-03 -9.89881E-04  4.36365E-03  8.49013E-03  1.32374E-02
   1.78107E-02  1.93072E-02  2.07293E-02  2.41143E-02  2.97994E-02  3.67960E-02  4.43319E-02  5.15525E-02  5.82299E-02  6.55651E-02
   7.53246E-02  8.55332E-02  9.60316E-02  1.08060E-01  1.18956E-01  1.29919E-01  1.41299E-01  1.50954E-01  1.57944E-01  1.62830E-01
   1.64935E-01  1.64872E-01  1.64692E-01  1.62994E-01  1.59443E-01  1.49396E-01  1.44778E-01  1.41883E-01  1.36423E-01  1.57613E-01
   1.77449E-01  1.86560E-01  1.89137E-01  1.68271E-01  1.35172E-01  1.05617E-01  8.92867E-02  7.45248E-02  6.69960E-02  6.20187E-02
   5.65488E-02  5.10950E-02  4.74081E-02  4.37817E-02  4.19056E-02  4.32176E-02  4.49145E-02  4.66914E-02  5.01262E-02  5.43299E-02
   5.84583E-02  6.33447E-02  6.96626E-02  7.47315E-02  7.81108E-02  8.06506E-02  8.31226E-02  8.47177E-02  8.61723E-02  9.00302E-02
   9.25308E-02  9.31872E-02  9.34007E-02  9.10333E-02  8.88767E-02  8.67099E-02  8.30222E-02  7.94402E-02  7.65963E-02  7.43854E-02
   7.10892E-02  6.81158E-02  6.50559E-02  6.13957E-02  5.76490E-02  5.40351E-02  5.02737E-02  4.65555E-02  4.45346E-02  4.31327E-02
   4.05979E-02  3.70602E-02  3.34155E-02  2.86372E-02  2.22605E-02  1.55897E-02  8.63284E-03  1.53226E-03 -7.39427E-03 -1.89306E-02
  -3.22252E-02 -4.90093E-02 -6.65727E-02 -8.27600E-02 -9.86631E-02 -1.14239E-01 -1.28778E-01 -1.41794E-01 -1.53259E-01 -1.63004E-01
  -1.71374E-01 -1.74885E-01 -1.74755E-01 -1.74113E-01 -1.71857E-01 -1.66247E-01 -1.59239E-01 -1.52562E-01 -1.46278E-01 -1.39802E-01
  -1.34558E-01 -1.28915E-01 -1.20393E-01 -1.11816E-01 -1.02647E-01 -9.23172E-02 -8.14878E-02 -7.14818E-02 -6.23546E-02 -5.17812E-02
  -4.30055E-02 -3.47950E-02 -2.55656E-02 -1.75472E-02 -1.03340E-02 -4.10868E-03  1.74877E-03  9.32238E-03  1.49750E-02  1.75326E-02
   2.22982E-02  2.64494E-02  2.92570E-02  3.22534E-02  3.49016E-02  3.63833E-02  3.73326E-02  3.94128E-02  4.02583E-02  3.99850E-02
   4.19381E-02  4.47549E-02  4.66307E-02  4.87624E-02  5.17661E-02  5.30307E-02  5.22354E-02  5.31137E-02  5.34621E-02  5.21632E-02
   5.27875E-02  5.32204E-02  5.19501E-02  5.19847E-02  5.24574E-02  5.26107E-02  5.38235E-02  5.43084E-02  5.46109E-02  5.49279E-02
   5.19895E-02  4.84714E-02  4.83821E-02  4.98921E-02  5.04410E-02  4.98022E-02  5.03072E-02  5.00263E-02  4.78914E-02  4.65787E-02
   4.66661E-02  4.81143E-02  4.90811E-02  5.00855E-02  5.09850E-02  5.13309E-02  5.25415E-02  5.37948E-02  5.45067E-02  5.49275E-02
   5.52726E-02  5.56160E-02  5.37126E-02  5.19681E-02  5.23018E-02  5.27439E-02  5.41247E-02  5.51875E-02  5.58351E-02  5.66865E-02
   5.66630E-02  5.70613E-02  6.02637E-02  6.23671E-02  6.35216E-02  6.32859E-02  6.13456E-02  5.97660E-02  5.91162E-02  6.02446E-02
   6.10076E-02  6.02102E-02  5.94505E-02  5.91084E-02  5.81373E-02  5.81437E-02  5.91630E-02  5.77966E-02  5.71992E-02  5.93497E-02
   6.00990E-02  5.94218E-02  5.95278E-02  5.91441E-02  5.89233E-02  5.96797E-02  6.02675E-02  6.23358E-02  6.60400E-02  6.89975E-02
   6.99058E-02  7.04571E-02  7.14977E-02  7.10903E-02
 NY background values follow
     2.794E-02    2.788E-02    2.782E-02    2.776E-02    2.770E-02    2.764E-02    2.758E-02    2.752E-02    2.746E-02    2.740E-02
     2.734E-02    2.728E-02    2.722E-02    2.716E-02    2.710E-02    2.704E-02    2.698E-02    2.692E-02    2.686E-02    2.680E-02
     2.674E-02    2.668E-02    2.662E-02    2.656E-02    2.650E-02    2.644E-02    2.638E-02    2.632E-02    2.626E-02    2.620E-02
     2.614E-02    2.608E-02    2.602E-02    2.596E-02    2.590E-02    2.584E-02    2.578E-02    2.572E-02    2.566E-02    2.560E-02
     2.554E-02    2.548E-02    2.542E-02    2.536E-02    2.530E-02    2.524E-02    2.517E-02    2.511E-02    2.505E-02    2.499E-02
     2.493E-02    2.487E-02    2.481E-02    2.475E-02    2.469E-02    2.463E-02    2.457E-02    2.451E-02    2.445E-02    2.439E-02
     2.433E-02    2.427E-02    2.421E-02    2.415E-02    2.408E-02    2.402E-02    2.396E-02    2.390E-02    2.384E-02    2.378E-02
