 
 $NMID
 ID=''
 FMTDAT='(2E13.5)'
 TRAMP=   1.00000E+0
 VOLUME=   1.00000E+0
 $END
   4.12117E+2  -1.81955E+2
  -1.62975E+3   6.98963E+2
   1.28427E+3  -2.20047E+3
  -2.55459E+3   1.03977E+3
  -2.49891E+3   2.16834E+3
   4.77961E+2   3.32835E+3
   1.88518E+2   4.77053E+3
   5.69609E+1   2.22485E+3
   2.88507E+3   1.27957E+3
   1.63297E+3   1.42490E+2
   3.93964E+3   2.36499E+3
   7.15494E+3   1.22487E+3
   2.46432E+3   2.77004E+3
  -9.01508E+2   3.27140E+2
   8.98340E+1  -2.79022E+3
   2.90867E+3  -4.00548E+3
   2.82335E+3  -3.18056E+3
  -5.75962E+2  -9.57530E+2
  -3.22517E+3   2.26332E+2
  -2.43025E+2  -2.61048E+3
   1.71123E+3  -2.28307E+3
  -5.99164E+2   2.95798E+3
  -5.91845E+3   1.40121E+2
  -3.21386E+3  -4.55864E+3
  -5.50641E+2  -1.66032E+3
  -1.07343E+3   4.37810E+3
  -4.33108E+3   1.23945E+3
  -1.07789E+3  -3.91279E+3
   2.41244E+3  -4.34521E+3
   5.74610E+3  -3.38760E+2
   3.99165E+3   5.12935E+3
  -6.56751E+3   3.96511E+3
  -3.96039E+3  -1.78438E+3
   3.81068E+2  -2.75972E+3
  -1.75068E+3  -2.83700E+2
  -2.64766E+3  -7.18206E+3
   3.71766E+3  -6.62583E+3
   5.18169E+3   2.08471E+3
  -4.54624E+2   2.10114E+3
  -1.86342E+3   3.05468E+3
  -3.16803E+3   1.55176E+3
  -6.93789E+3  -4.74172E+2
   4.65844E+2  -6.64298E+3
   5.65375E+3  -1.53218E+3
   3.84346E+3   2.64678E+3
   1.20267E+3   4.14865E+3
   4.68313E+2   4.08345E+3
   6.75731E+2   4.80929E+3
  -6.09081E+2   3.34115E+3
  -2.35900E+3   1.07766E+3
  -2.83798E+3  -2.20969E+3
   3.00042E+3  -2.88865E+3
   4.00129E+3   1.94490E+3
   1.66510E+3   4.57969E+3
  -2.18409E+2   1.71765E+3
  -2.44170E+3  -2.13983E+1
  -2.09724E+3  -7.33814E+2
  -2.38359E+3  -5.73957E+3
   3.53203E+3  -4.72266E+3
   6.44515E+3  -2.86433E+3
   8.27780E+3   4.11110E+3
   4.95221E+3   7.22240E+3
  -1.76330E+3   5.73536E+3
  -2.26725E+3   3.63633E+2
   1.57382E+3  -2.13488E+3
   4.06568E+3   3.53704E+3
  -3.02180E+3   5.96256E+3
  -3.97419E+3   3.35491E+2
  -3.51095E+3   1.38993E+3
  -2.04197E+3  -1.49386E+2
  -3.68948E+3   2.15236E+3
  -5.03684E+3   5.57456E+2
  -3.31818E+3  -1.02461E+3
   9.16011E+2  -1.03959E+3
   1.97021E+3   7.97886E+1
   6.26679E+2   2.54397E+3
   1.64228E+2  -1.94724E+3
   1.55254E+3  -1.84308E+3
   3.31019E+3  -1.66609E+2
   1.90132E+3   2.76008E+3
  -1.42533E+3  -8.92707E+2
  -6.43967E+2  -3.39623E+2
  -7.85461E+1   7.61917E+2
  -2.00835E+3   1.83833E+3
  -5.07075E+3  -4.84933E+2
  -4.65720E+3  -2.58959E+3
   1.74928E+3  -3.67843E+3
   2.52823E+3   3.46457E+2
   1.31214E+3   2.33911E+3
  -7.93379E+2   1.92815E+3
  -2.24196E+3  -1.40914E+3
   1.59683E+3  -1.22787E+3
  -3.56321E+3   7.48090E+2
  -4.12542E+3  -8.48857E+2
  -2.94724E+3  -4.01389E+3
   2.64366E+3  -4.27812E+3
   3.90863E+3  -3.76048E+2
  -3.46260E+2   3.56139E+3
  -4.58553E+3  -1.64365E+3
  -2.16597E+2  -2.64308E+3
   3.68571E+3  -5.41275E+3
   5.49104E+3   3.30111E+3
   2.99452E+3   5.05839E+3
  -2.44591E+3   1.17643E+3
  -1.97178E+3  -1.99355E+3
  -3.78468E+3  -4.90347E+2
  -8.57147E+2   3.28522E+2
  -2.04363E+3  -3.47802E+3
  -4.98756E+2  -3.82180E+3
   3.10724E+3  -1.40325E+3
   3.79796E+3   1.54572E+2
   1.04387E+3   5.19914E+3
  -2.66694E+3   2.17050E+3
  -3.46800E+2   1.40060E+3
   3.40974E+2  -2.15769E+2
  -6.39790E+2   5.64693E+2
   8.30563E+2  -1.58265E+3
   1.90429E+3  -2.05503E+3
   1.99058E+3  -3.45544E+2
   2.30296E+3   1.14587E+3
  -2.06508E+3   1.45791E+3
  -8.26055E+2  -1.99260E+3
   1.98017E+3  -3.23893E+3
   2.16817E+3   7.97493E+2
   1.47661E+3   1.71869E+3
  -1.02360E+3  -6.26399E+1
   1.67796E+3  -8.14039E+1
   1.28296E+3   6.64388E+2
  -2.58555E+3  -2.37520E+2
  -2.21304E+3  -2.36585E+3
   4.55582E+2  -3.85384E+3
   3.36273E+3  -1.13174E+3
   2.90786E+3   2.64253E+3
  -2.17644E+2   4.27411E+3
  -2.37664E+3  -1.59601E+3
  -2.08402E+3  -3.23672E+3
  -6.78236E+2  -1.53168E+3
   1.84219E+3  -5.36689E+2
   2.66795E+2  -1.11503E+3
   2.99941E+2  -4.30768E+2
   2.23203E+3   8.76281E+2
   1.23257E+3  -1.11139E+3
  -4.10934E+2   3.73932E+3
  -1.08448E+3   2.05576E+3
  -1.00265E+2   5.45645E+2
   1.29308E+2  -6.76495E+1
   1.02732E+3  -1.75585E+2
  -2.45691E+3  -1.71542E+2
  -2.06500E+3  -1.04685E+3
  -2.41157E+3   2.95299E+2
  -6.19134E+2  -1.88646E+3
   4.28804E+2  -2.05768E+3
  -3.82236E+2  -3.02860E+3
   2.80900E+3  -4.11516E+2
   2.31756E+3   1.24029E+3
   1.11946E+3   2.08587E+3
   7.58702E+2   3.80808E+2
  -3.28987E+3  -2.26681E+2
  -1.97826E+3   1.05729E+3
  -8.16396E+2  -1.25300E+3
  -8.33994E+2  -1.41871E+3
  -5.24888E+2  -1.34936E+3
  -1.83604E+3  -1.21009E+3
   3.89301E+3  -2.22649E+2
  -2.24354E+3   6.61845E+1
  -1.32996E+3  -2.33241E+3
   9.25031E+2  -2.60159E+3
   2.40542E+3   7.19617E+2
  -1.08197E+1   2.92777E+3
  -2.75854E+3  -4.29541E+2
  -4.01973E+2  -7.81589E+2
  -1.32650E+3  -1.59482E+3
   2.50661E+2  -3.47258E+3
   1.65393E+3   2.92722E+1
   2.46947E+3  -2.43505E+3
   1.23639E+3   2.97267E+3
   4.84512E+2   1.22842E+3
  -6.44987E+2   3.99361E+3
  -1.94882E+3   1.96384E+3
  -1.57671E+3  -2.46156E+3
  -1.05612E+3  -2.35748E+3
  -1.05861E+2  -1.07990E+3
  -6.70512E+2   1.55047E+3
   9.76586E+2  -9.24080E+1
  -1.42991E+3   1.80583E+3
   2.39096E+2   2.70672E+3
  -1.54034E+3   2.07522E+3
  -1.58562E+3  -2.74607E+3
   6.09073E+2  -3.34465E+3
   4.05359E+3  -8.27555E+2
  -3.34345E+1   2.05333E+2
   3.19983E+2   2.08515E+3
   4.80452E+2   4.26530E+2
   1.10130E+3  -2.66250E+2
  -4.24367E+2  -1.11041E+3
   1.59411E+3  -5.23229E+1
  -7.69972E+2  -3.55358E+2
   1.92519E+3  -1.09970E+3
   5.99325E+2  -1.93731E+3
   1.30988E+3   3.44997E+3
  -2.03249E+3  -3.01633E+2
  -2.26805E+3  -4.10521E+3
   7.67417E+2  -3.09431E+3
   1.40543E+3  -7.59154E+2
   8.92253E+2   1.86608E+2
  -3.86517E+2   6.23271E+1
   3.79994E+2   3.48734E+2
   2.25525E+3  -1.38922E+3
  -3.31474E+2   1.62721E+3
  -1.49792E+3   1.88110E+3
  -2.71845E+3  -2.96541E+3
   1.53160E+3  -1.66595E+3
   3.00986E+3   1.96188E+2
   8.16065E+1   2.76156E+3
  -2.17883E+3   1.54597E+2
   8.74206E+2   7.64349E+2
   3.82609E+2  -1.37271E+3
   6.45611E+2  -6.31022E+2
  -5.96294E+1   2.10660E+3
   9.14507E+2  -5.43714E+2
   1.14099E+3   1.02396E+3
  -1.68706E+3   6.74399E+2
  -1.73710E+3   2.77256E+3
   5.04065E+2  -1.69538E+3
   9.61123E+2  -9.67943E+2
  -2.29935E+2   1.51946E+3
  -1.93849E+2   2.40664E+3
  -5.29244E+2   1.60713E+3
  -8.66618E+2  -1.43521E+3
   1.78367E+3  -3.03763E+3
   6.96182E+2   3.20371E+2
   9.79443E+2   1.11524E+2
  -1.51699E+3   1.78463E+2
   2.68205E+3   1.04396E+2
   1.56223E+3  -1.02672E+1
   2.82090E+2   3.31150E+3
  -2.93015E+3   5.36891E+2
  -3.23134E+3   5.45882E+2
   1.00076E+3  -2.83649E+3
   3.38939E+3   1.43946E+3
   6.71773E+2   1.73408E+3
  -3.87217E+2   5.36920E+2
   1.33514E+2  -1.15560E+3
  -8.40568E+2   2.43503E+2
   2.51459E+3   1.22819E+3
   1.51209E+3   2.61429E+2
   6.48507E+2  -1.08375E+3
   8.17550E+2  -1.31490E+3
   1.97240E+3  -5.05113E+1
  -2.01086E+3   2.98498E+3
  -4.06266E+3  -7.01069E+1
  -2.06293E+3  -2.64731E+2
   1.31943E+3  -3.38419E+2
   8.95281E+2  -5.52249E+2
   5.86702E+2   2.92150E+2
  -5.25074E+2   4.01358E+1
   2.06279E+3   2.02228E+3
  -7.28908E+2   3.49224E+3
  -1.66949E+3   2.12292E+3
  -2.22654E+3   9.84832E+1
  -5.55511E+2  -4.35744E+2
  -2.03567E+2   3.59162E+2
  -1.55899E+3   7.65309E+2
  -1.10860E+3   3.11971E+3
  -3.68980E+2   5.16854E+2
   6.67459E+2  -5.86444E+2
  -3.44837E+2   7.35618E+2
  -1.89305E+3   7.50336E+2
  -7.27609E+2  -1.15733E+3
   2.85863E+3  -8.37059E+2
   2.74756E+3   5.96355E+2
   3.94208E+2   2.33800E+3
  -1.86287E+3  -9.04404E+1
   9.12161E+2   1.48573E+3
   1.76388E+3   1.07988E+3
   1.34772E+3   1.42467E+3
   5.57530E+2  -6.02957E+2
   1.40509E+3  -5.78990E+2
   3.13426E+2   1.71315E+3
  -9.59720E+1   1.39444E+3
  -1.12835E+3   2.62749E+2
  -1.81951E+3  -8.03995E+1
  -3.86109E+3  -1.36067E+3
   1.16648E+3  -2.48979E+2
   1.29921E+3   1.02245E+3
  -1.54132E+3   1.83537E+3
  -7.37575E+2  -1.08112E+3
   1.68733E+2  -2.34805E+3
   9.19450E+2   9.88762E+2
  -9.15893E+1   7.80017E+1
  -2.56011E+3   4.91693E+2
   5.49688E+2   4.70045E+2
  -1.15600E+3   9.96635E+2
  -8.16679E+2   3.01973E+2
  -1.44979E+3  -7.33784E+2
  -3.55585E+2  -9.41561E+2
   8.94411E+2  -1.16360E+3
   8.45787E+2   2.15923E+3
   6.22812E+2  -9.60690E+2
  -1.05359E+3   8.72953E+1
  -8.23923E+1   1.55424E+2
   1.58856E+3   1.29689E+2
  -5.48054E+2   2.14842E+3
  -7.05310E+2   6.73223E+2
  -6.79541E+2  -2.38148E+3
   2.06669E+3   1.44026E+3
   1.27676E+3   2.07055E+3
  -1.77440E+3   2.74964E+3
  -3.28787E+3   8.54897E+2
  -2.14385E+2   6.22709E+2
  -6.46790E+2   5.68935E+2
   4.86667E+2   3.77729E+2
  -7.66446E+2   1.52693E+3
   1.67986E+3  -2.66157E+2
  -2.38978E+3   3.66381E+2
   3.65546E+2   7.20926E+2
  -2.65665E+3   4.68868E+2
  -2.00566E+3  -6.94425E+2
   1.19138E+2  -1.09431E+3
   1.98111E+3  -5.37620E+2
   7.86228E+1   1.47139E+3
  -3.48638E+3   7.86792E+2
  -1.25311E+3  -7.22863E+2
  -2.42386E+3  -1.14237E+3
  -7.89938E+2  -3.44682E+2
  -2.65345E+2  -8.20125E+2
  -4.20871E+2   5.38706E+2
   3.39414E+2  -1.69061E+3
   1.87622E+3   1.02955E+2
  -7.63271E+2   2.23792E+3
  -7.90541E+2   8.66632E+2
   7.80595E+2  -1.55083E+3
  -1.32392E+3  -7.50374E+1
   4.57819E+2  -9.38928E+2
   1.37473E+3  -8.50284E+2
   3.88549E+2  -9.82650E+2
   9.65423E+2  -5.04553E+2
  -7.40612E+2   1.30076E+3
  -5.44969E+2   2.71606E+3
  -1.08259E+3  -1.77073E+2
  -1.58008E+3  -3.18177E+3
   3.02383E+2  -1.03699E+3
   1.79369E+3   1.56910E+3
  -9.75839E+2   1.06026E+3
  -5.12276E+2   1.10844E+3
   1.71728E+3  -1.00867E+3
  -1.43833E+3  -3.43340E+2
   1.10603E+3   1.87333E+3
  -2.61607E+2   7.20392E+2
  -5.44409E+2  -1.95915E+3
   2.36545E+3  -2.80218E+3
  -1.16341E+3   1.92205E+2
  -7.32737E+2   7.20254E+2
   1.75543E+3  -1.16672E+3
  -2.84509E+2  -5.44980E+2
   5.21608E+2  -5.80788E+2
   4.20161E+2  -1.20006E+3
  -9.63842E+2   4.78316E+2
   8.87720E+2  -8.27062E+2
  -7.28729E+2  -1.47790E+3
  -3.36228E+2  -5.09011E+2
   1.26219E+2  -7.48982E+2
  -7.60746E+2   3.68328E+2
  -2.06367E+3   1.23404E+3
   1.69233E+3   3.17173E+2
   6.48498E+1   1.67739E+3
   1.50702E+2   1.41165E+3
