 
 $NMID
 ID=''
 FMTDAT='(2E13.5)'
 TRAMP=   1.00000E+0
 VOLUME=   1.00000E+0
 $END
  -7.94884E+3   1.51034E+4
  -3.25041E+4   3.02585E+4
  -2.86632E+4   3.28885E+4
  -2.88383E+4   2.81119E+4
  -3.25789E+4   2.65534E+4
  -3.26821E+4   2.51086E+4
  -3.36908E+4   2.10770E+4
  -3.59658E+4   1.85616E+4
  -3.61247E+4   1.65405E+4
  -3.65720E+4   1.28915E+4
  -3.78429E+4   1.01709E+4
  -3.75955E+4   8.05170E+3
  -3.76407E+4   4.85339E+3
  -3.81229E+4   2.01447E+3
  -3.73658E+4  -3.91807E+2
  -3.67596E+4  -3.41350E+3
  -3.64972E+4  -5.91430E+3
  -3.53546E+4  -8.04972E+3
  -3.42014E+4  -1.06603E+4
  -3.34094E+4  -1.29165E+4
  -3.17413E+4  -1.47482E+4
  -3.02408E+4  -1.67383E+4
  -2.90587E+4  -1.85789E+4
  -2.72626E+4  -2.01885E+4
  -2.54332E+4  -2.18054E+4
  -2.39246E+4  -2.32195E+4
  -2.19552E+4  -2.44743E+4
  -1.98448E+4  -2.57499E+4
  -1.79786E+4  -2.68766E+4
  -1.58599E+4  -2.75582E+4
  -1.38497E+4  -2.83558E+4
  -1.19057E+4  -2.90064E+4
  -9.70266E+3  -2.93765E+4
  -7.51090E+3  -2.96939E+4
  -5.55857E+3  -2.98492E+4
  -3.37130E+3  -2.98057E+4
  -1.32654E+3  -2.95944E+4
   4.95001E+2  -2.92677E+4
   2.52121E+3  -2.87425E+4
   4.47054E+3  -2.82821E+4
   6.22427E+3  -2.75093E+4
   8.15743E+3  -2.67336E+4
   9.86437E+3  -2.57036E+4
   1.13560E+4  -2.45869E+4
   1.29333E+4  -2.34778E+4
   1.43249E+4  -2.22775E+4
   1.55992E+4  -2.10043E+4
   1.67068E+4  -1.95699E+4
   1.77986E+4  -1.81025E+4
   1.88516E+4  -1.66635E+4
   1.96617E+4  -1.50054E+4
   2.03735E+4  -1.34647E+4
   2.08943E+4  -1.18712E+4
   2.13739E+4  -1.02974E+4
   2.17214E+4  -8.73414E+3
   2.19851E+4  -7.07645E+3
   2.20680E+4  -5.49292E+3
   2.21375E+4  -3.93853E+3
   2.20084E+4  -2.37496E+3
   2.17117E+4  -8.38473E+2
   2.15017E+4   5.98307E+2
   2.09187E+4   1.93496E+3
   2.05151E+4   3.34808E+3
   1.98823E+4   4.58856E+3
   1.92488E+4   5.84485E+3
   1.84847E+4   6.92208E+3
   1.77435E+4   7.91974E+3
   1.69449E+4   8.96621E+3
   1.59818E+4   9.81028E+3
   1.50548E+4   1.06750E+4
   1.41230E+4   1.14231E+4
   1.31020E+4   1.20898E+4
   1.20728E+4   1.26344E+4
   1.10630E+4   1.32543E+4
   1.00868E+4   1.35712E+4
   9.08717E+3   1.39318E+4
   8.12266E+3   1.42036E+4
   7.07177E+3   1.44776E+4
   6.05096E+3   1.45717E+4
   5.09188E+3   1.46422E+4
   4.12979E+3   1.47107E+4
   3.18882E+3   1.46942E+4
   2.26857E+3   1.45547E+4
   1.41681E+3   1.44703E+4
   4.95289E+2   1.43147E+4
  -3.45319E+2   1.41113E+4
  -1.12010E+3   1.38285E+4
  -1.91901E+3   1.35288E+4
  -2.64100E+3   1.32340E+4
  -3.35636E+3   1.28452E+4
  -3.97323E+3   1.24350E+4
  -4.69105E+3   1.19825E+4
  -5.20499E+3   1.16731E+4
  -5.77104E+3   1.11764E+4
  -6.25686E+3   1.07415E+4
  -6.69007E+3   1.02442E+4
  -7.15821E+3   9.86598E+3
  -7.61186E+3   9.33046E+3
  -7.95143E+3   8.87417E+3
  -8.27245E+3   8.35240E+3
  -8.62112E+3   7.84211E+3
  -8.86119E+3   7.27978E+3
  -9.12005E+3   6.83587E+3
  -9.34076E+3   6.30364E+3
  -9.57072E+3   5.79308E+3
  -9.68938E+3   5.28804E+3
  -9.83882E+3   4.79722E+3
  -9.93308E+3   4.38045E+3
  -1.00947E+4   3.89682E+3
  -1.00920E+4   3.46459E+3
  -1.00787E+4   2.98568E+3
  -1.01430E+4   2.59211E+3
  -1.02156E+4   2.12339E+3
  -1.01456E+4   1.71736E+3
  -1.01294E+4   1.30304E+3
  -1.01388E+4   9.45225E+2
  -9.93324E+3   6.19156E+2
  -9.96480E+3   2.50639E+2
  -9.80368E+3  -1.28070E+2
  -9.71666E+3  -3.64904E+2
  -9.58226E+3  -7.39367E+2
  -9.46436E+3  -1.10205E+3
  -9.38059E+3  -1.41746E+3
  -9.19814E+3  -1.67252E+3
  -9.03547E+3  -1.96169E+3
  -8.86982E+3  -2.19822E+3
  -8.69998E+3  -2.44178E+3
  -8.56891E+3  -2.62233E+3
  -8.37318E+3  -2.96077E+3
  -8.15303E+3  -3.10979E+3
  -7.97264E+3  -3.35011E+3
  -7.78154E+3  -3.53063E+3
  -7.54150E+3  -3.52612E+3
  -7.39887E+3  -3.73260E+3
  -7.22631E+3  -3.87411E+3
  -6.95980E+3  -4.04444E+3
  -6.79485E+3  -4.07820E+3
  -6.51178E+3  -4.16702E+3
  -6.38831E+3  -4.23135E+3
  -6.24045E+3  -4.35909E+3
  -5.97662E+3  -4.36799E+3
  -5.80974E+3  -4.50007E+3
  -5.64708E+3  -4.53299E+3
  -5.42572E+3  -4.56526E+3
  -5.24359E+3  -4.56815E+3
  -5.07179E+3  -4.58477E+3
  -4.92239E+3  -4.63806E+3
  -4.80895E+3  -4.60722E+3
  -4.59157E+3  -4.64295E+3
  -4.44630E+3  -4.62410E+3
  -4.31794E+3  -4.65390E+3
  -4.11467E+3  -4.58769E+3
  -3.97489E+3  -4.56130E+3
  -3.86165E+3  -4.49456E+3
  -3.71718E+3  -4.51565E+3
  -3.60023E+3  -4.49806E+3
  -3.45018E+3  -4.44669E+3
  -3.38214E+3  -4.42205E+3
  -3.26021E+3  -4.33996E+3
  -3.13526E+3  -4.40199E+3
  -3.05282E+3  -4.36603E+3
  -2.94221E+3  -4.24916E+3
  -2.80097E+3  -4.18438E+3
  -2.82059E+3  -4.20987E+3
  -2.61822E+3  -4.14997E+3
  -2.64880E+3  -4.18553E+3
  -2.47605E+3  -4.13963E+3
  -2.40137E+3  -4.02358E+3
  -2.31460E+3  -4.01834E+3
  -2.22464E+3  -3.94451E+3
  -2.15452E+3  -3.92785E+3
  -2.11607E+3  -3.90366E+3
  -1.99237E+3  -3.79454E+3
  -1.92715E+3  -3.79435E+3
  -1.89389E+3  -3.73486E+3
  -1.81606E+3  -3.69956E+3
  -1.76463E+3  -3.66186E+3
  -1.73548E+3  -3.59948E+3
  -1.61512E+3  -3.62675E+3
  -1.48516E+3  -3.58712E+3
  -1.41885E+3  -3.49012E+3
  -1.37586E+3  -3.44722E+3
  -1.33554E+3  -3.39301E+3
  -1.25509E+3  -3.40686E+3
  -1.18486E+3  -3.36542E+3
  -1.17560E+3  -3.28383E+3
  -1.14323E+3  -3.28060E+3
  -1.03550E+3  -3.22277E+3
  -9.70287E+2  -3.15648E+3
  -9.15911E+2  -3.11749E+3
  -8.94676E+2  -3.05482E+3
  -8.51998E+2  -3.02007E+3
  -8.26146E+2  -3.00745E+3
  -7.62441E+2  -2.89759E+3
  -6.80976E+2  -2.71868E+3
  -6.66403E+2  -2.75216E+3
  -6.41278E+2  -2.70956E+3
  -6.02707E+2  -2.72307E+3
  -4.94016E+2  -2.64855E+3
  -5.97766E+2  -2.57164E+3
  -5.82746E+2  -2.49276E+3
  -4.98221E+2  -2.47974E+3
  -5.00409E+2  -2.36418E+3
  -4.09948E+2  -2.32246E+3
  -4.61601E+2  -2.28538E+3
  -4.98019E+2  -2.19004E+3
  -4.49063E+2  -2.21761E+3
  -4.72836E+2  -2.09470E+3
  -4.28424E+2  -2.06638E+3
  -4.91000E+2  -2.01791E+3
  -4.23870E+2  -1.91766E+3
  -4.69094E+2  -1.90424E+3
  -4.25238E+2  -1.85262E+3
  -5.07342E+2  -1.84860E+3
  -4.15721E+2  -1.83916E+3
  -4.54615E+2  -1.79832E+3
  -4.88934E+2  -1.79382E+3
  -5.36424E+2  -1.67576E+3
  -4.91627E+2  -1.71063E+3
  -5.56657E+2  -1.64639E+3
  -4.95182E+2  -1.67806E+3
  -5.86268E+2  -1.60485E+3
  -6.07151E+2  -1.63791E+3
  -5.60656E+2  -1.64302E+3
  -5.79810E+2  -1.58505E+3
  -5.60417E+2  -1.57406E+3
  -5.95973E+2  -1.57168E+3
  -5.96802E+2  -1.59211E+3
  -6.28798E+2  -1.53053E+3
  -5.88591E+2  -1.55000E+3
  -6.23979E+2  -1.54417E+3
  -6.06690E+2  -1.52955E+3
  -6.17030E+2  -1.53544E+3
  -6.21164E+2  -1.49778E+3
  -6.37211E+2  -1.50254E+3
  -6.43974E+2  -1.53421E+3
  -5.88196E+2  -1.46281E+3
  -6.16214E+2  -1.51509E+3
  -5.58280E+2  -1.45625E+3
  -5.89298E+2  -1.48093E+3
  -5.73706E+2  -1.40812E+3
  -5.78597E+2  -1.42635E+3
  -5.42262E+2  -1.45652E+3
  -5.71810E+2  -1.46366E+3
  -5.21895E+2  -1.44038E+3
  -5.83935E+2  -1.40810E+3
  -5.08929E+2  -1.37398E+3
  -5.13561E+2  -1.40223E+3
  -4.60801E+2  -1.29208E+3
  -4.29857E+2  -1.33455E+3
  -4.24915E+2  -1.35761E+3
  -3.88113E+2  -1.33827E+3
  -4.69445E+2  -1.34325E+3
  -4.92388E+2  -1.25344E+3
  -4.56426E+2  -1.26973E+3
  -4.33093E+2  -1.19540E+3
  -4.72095E+2  -1.20606E+3
  -4.87953E+2  -1.16483E+3
  -4.71010E+2  -1.15484E+3
  -4.54037E+2  -1.08660E+3
  -4.50834E+2  -1.17998E+3
  -4.30910E+2  -1.09551E+3
  -4.56931E+2  -1.07793E+3
  -4.26288E+2  -1.07059E+3
  -4.25931E+2  -1.04837E+3
  -4.25934E+2  -9.64118E+2
  -4.17628E+2  -9.32830E+2
  -4.54227E+2  -9.57728E+2
  -4.14582E+2  -9.41304E+2
  -4.60458E+2  -9.58289E+2
  -4.62751E+2  -9.35184E+2
  -5.06306E+2  -9.09036E+2
  -4.72013E+2  -8.45818E+2
  -5.17362E+2  -8.40806E+2
  -4.89181E+2  -8.13115E+2
  -5.20278E+2  -8.47489E+2
  -5.22828E+2  -7.51014E+2
  -5.48001E+2  -8.15462E+2
  -4.96592E+2  -7.67188E+2
  -4.75073E+2  -7.06271E+2
  -5.66614E+2  -6.84744E+2
  -4.86944E+2  -6.74693E+2
  -5.45398E+2  -5.78252E+2
  -5.27378E+2  -6.44933E+2
  -5.37725E+2  -6.27781E+2
  -5.32325E+2  -5.85117E+2
  -6.29467E+2  -5.60097E+2
  -6.52452E+2  -5.52051E+2
  -6.36285E+2  -5.49655E+2
  -5.59112E+2  -5.22293E+2
  -6.30473E+2  -4.98051E+2
  -6.18422E+2  -4.96795E+2
  -6.08927E+2  -4.65171E+2
  -6.46350E+2  -4.18635E+2
  -6.47592E+2  -4.76350E+2
  -6.57285E+2  -4.42808E+2
  -6.74880E+2  -4.37245E+2
  -6.54562E+2  -4.34540E+2
  -6.12329E+2  -4.00483E+2
  -6.84127E+2  -3.45628E+2
  -7.45966E+2  -3.73784E+2
  -7.52028E+2  -3.44487E+2
  -7.67681E+2  -3.58608E+2
  -8.11489E+2  -3.38699E+2
  -8.75416E+2  -3.32007E+2
  -7.75096E+2  -3.04587E+2
  -7.79462E+2  -3.11268E+2
  -7.86704E+2  -2.86405E+2
  -8.57944E+2  -3.22274E+2
  -8.74576E+2  -2.88324E+2
  -7.41805E+2  -3.16161E+2
  -8.51495E+2  -2.62731E+2
  -8.68736E+2  -2.57547E+2
  -8.31697E+2  -2.84010E+2
  -9.14339E+2  -2.68794E+2
  -8.93422E+2  -2.08234E+2
  -8.24076E+2  -2.45215E+2
  -9.38063E+2  -1.91660E+2
  -9.06752E+2  -2.78036E+2
  -9.58556E+2  -2.55883E+2
  -8.40117E+2  -2.29239E+2
  -9.55753E+2  -2.40903E+2
  -9.01908E+2  -2.32190E+2
  -9.83511E+2  -2.86694E+2
  -9.00046E+2  -2.55601E+2
  -9.46392E+2  -2.15674E+2
  -9.35983E+2  -2.07855E+2
  -9.62165E+2  -2.42612E+2
  -9.48975E+2  -2.61256E+2
  -9.46161E+2  -2.13366E+2
  -8.91535E+2  -1.99881E+2
  -1.00535E+3  -2.42704E+2
  -9.39375E+2  -1.94847E+2
  -9.53892E+2  -2.36410E+2
  -9.37840E+2  -2.08096E+2
  -9.75713E+2  -2.25590E+2
  -9.09048E+2  -2.37293E+2
  -9.27498E+2  -1.97269E+2
  -9.61134E+2  -1.99035E+2
  -9.23870E+2  -1.73183E+2
  -9.89716E+2  -1.88210E+2
  -9.35423E+2  -2.04189E+2
  -9.24866E+2  -1.71163E+2
  -9.11463E+2  -1.73210E+2
  -9.09474E+2  -1.23374E+2
  -9.47013E+2  -1.32809E+2
  -9.60110E+2  -1.74600E+2
  -8.79084E+2  -8.66941E+1
  -9.17675E+2  -3.97761E+1
  -8.76961E+2  -1.33674E+2
  -8.89601E+2  -9.05759E+1
  -9.32330E+2  -5.88796E+0
  -8.96588E+2  -6.97874E+1
  -9.29509E+2  -8.09323E+1
  -8.45594E+2  -7.59842E+1
  -9.34288E+2  -1.30185E+2
  -9.30397E+2  -7.47640E+1
  -8.69659E+2  -7.05866E+1
  -8.82617E+2  -5.14640E+1
  -9.02680E+2  -7.77089E+1
  -9.03293E+2  -2.03670E+1
  -8.56677E+2  -2.78199E+1
  -8.75433E+2  -3.73229E+1
  -8.64049E+2  -3.21273E+1
  -8.93414E+2   3.27789E+1
  -9.03869E+2  -2.11555E+1
  -8.16926E+2   6.34963E+1
