 
 $NMID
 ID=''
 FMTDAT='(2E13.5)'
 TRAMP=   1.00000E+0
 VOLUME=   1.00000E+0
 $END
  -2.15395E+4   7.36285E+3
  -5.87953E+4   2.33744E+3
  -5.72217E+4   1.24543E+4
  -5.26775E+4   1.13735E+4
  -5.49961E+4   9.95682E+3
  -5.44728E+4   1.22600E+4
  -5.26430E+4   1.08562E+4
  -5.38405E+4   9.59988E+3
  -5.37323E+4   1.08355E+4
  -5.26874E+4   1.00253E+4
  -5.34468E+4   9.27944E+3
  -5.32346E+4   1.03117E+4
  -5.24528E+4   1.00610E+4
  -5.30716E+4   9.41238E+3
  -5.28316E+4   9.96726E+3
  -5.19709E+4   9.72684E+3
  -5.22680E+4   9.36359E+3
  -5.19497E+4   9.66099E+3
  -5.12476E+4   9.55622E+3
  -5.13983E+4   9.06254E+3
  -5.10264E+4   9.32000E+3
  -5.04573E+4   9.34930E+3
  -5.06290E+4   9.04910E+3
  -5.04144E+4   9.01363E+3
  -4.97408E+4   8.74317E+3
  -4.97702E+4   8.62322E+3
  -4.96401E+4   8.56046E+3
  -4.91887E+4   8.17193E+3
  -4.90948E+4   7.73590E+3
  -4.89124E+4   7.66816E+3
  -4.84858E+4   7.62329E+3
  -4.85038E+4   7.43319E+3
  -4.84193E+4   7.26782E+3
  -4.80342E+4   7.03841E+3
  -4.78967E+4   7.00470E+3
  -4.77799E+4   7.04346E+3
  -4.74406E+4   6.98355E+3
  -4.73409E+4   6.93250E+3
  -4.71873E+4   7.11754E+3
  -4.69636E+4   7.07634E+3
  -4.68578E+4   7.00673E+3
  -4.67656E+4   6.81023E+3
  -4.64693E+4   6.66586E+3
  -4.61926E+4   6.50384E+3
  -4.59475E+4   6.57035E+3
  -4.57693E+4   6.40430E+3
  -4.55926E+4   6.33791E+3
  -4.53460E+4   6.38539E+3
  -4.51198E+4   6.35655E+3
  -4.49359E+4   6.20317E+3
  -4.46818E+4   6.09340E+3
  -4.44503E+4   5.99295E+3
  -4.40830E+4   6.02456E+3
  -4.38003E+4   6.08219E+3
  -4.36258E+4   5.95119E+3
  -4.34038E+4   5.93294E+3
  -4.32077E+4   5.81225E+3
  -4.29841E+4   5.68270E+3
  -4.26918E+4   5.51476E+3
  -4.24519E+4   5.45813E+3
  -4.21481E+4   5.46535E+3
  -4.19745E+4   5.41653E+3
  -4.18452E+4   5.39038E+3
  -4.16371E+4   5.20762E+3
  -4.13624E+4   5.11999E+3
  -4.10314E+4   5.13856E+3
  -4.09213E+4   5.07586E+3
  -4.07024E+4   4.97488E+3
  -4.04475E+4   4.83199E+3
  -4.01634E+4   4.72902E+3
  -4.00299E+4   4.61015E+3
  -3.96870E+4   4.57235E+3
  -3.94965E+4   4.55712E+3
  -3.92782E+4   4.42417E+3
  -3.89685E+4   4.40433E+3
  -3.86978E+4   4.41497E+3
  -3.85310E+4   4.35624E+3
  -3.83472E+4   4.29243E+3
  -3.80546E+4   4.24415E+3
  -3.78107E+4   4.26473E+3
  -3.75730E+4   4.24299E+3
  -3.73245E+4   4.18633E+3
  -3.69998E+4   4.15620E+3
  -3.68737E+4   4.10096E+3
  -3.66241E+4   4.05735E+3
  -3.64356E+4   3.88501E+3
  -3.60985E+4   3.82230E+3
  -3.58352E+4   3.74513E+3
  -3.55127E+4   3.76013E+3
  -3.53523E+4   3.76062E+3
  -3.50950E+4   3.75238E+3
  -3.48170E+4   3.73901E+3
  -3.45742E+4   3.67068E+3
  -3.44121E+4   3.67379E+3
  -3.41899E+4   3.63383E+3
  -3.38015E+4   3.58643E+3
  -3.35500E+4   3.60472E+3
  -3.33252E+4   3.63457E+3
  -3.30152E+4   3.62692E+3
  -3.29388E+4   3.42795E+3
  -3.26036E+4   3.34752E+3
  -3.23609E+4   3.42795E+3
  -3.20833E+4   3.41843E+3
  -3.18800E+4   3.36149E+3
  -3.16580E+4   3.33412E+3
  -3.14249E+4   3.25362E+3
  -3.11757E+4   3.15393E+3
  -3.08902E+4   3.13883E+3
  -3.06652E+4   3.01857E+3
  -3.03816E+4   2.98861E+3
  -3.01244E+4   2.98065E+3
  -2.99249E+4   3.01021E+3
  -2.97147E+4   2.95915E+3
  -2.94744E+4   2.86383E+3
  -2.92811E+4   2.75280E+3
  -2.90294E+4   2.70686E+3
  -2.88065E+4   2.62517E+3
  -2.84928E+4   2.54768E+3
  -2.82685E+4   2.41300E+3
  -2.80595E+4   2.40901E+3
  -2.77865E+4   2.32710E+3
  -2.76044E+4   2.34310E+3
  -2.73836E+4   2.18803E+3
  -2.71522E+4   2.10085E+3
  -2.69344E+4   2.09144E+3
  -2.67767E+4   1.99389E+3
  -2.65241E+4   1.82120E+3
  -2.62795E+4   1.83371E+3
  -2.61009E+4   1.74307E+3
  -2.58416E+4   1.66430E+3
  -2.56358E+4   1.50788E+3
  -2.54761E+4   1.60027E+3
  -2.52107E+4   1.46028E+3
  -2.50208E+4   1.46192E+3
  -2.48670E+4   1.29317E+3
  -2.46510E+4   1.32820E+3
  -2.43824E+4   1.14545E+3
  -2.41575E+4   1.11498E+3
  -2.39732E+4   1.10299E+3
  -2.38451E+4   1.01172E+3
  -2.36714E+4   9.29292E+2
  -2.34274E+4   8.59551E+2
  -2.32383E+4   8.19367E+2
  -2.30657E+4   7.63095E+2
  -2.29311E+4   7.44121E+2
  -2.27361E+4   6.11318E+2
  -2.25171E+4   5.82283E+2
  -2.23912E+4   4.88419E+2
  -2.21577E+4   4.46982E+2
  -2.20251E+4   3.63457E+2
  -2.18200E+4   3.25007E+2
  -2.16576E+4   2.35449E+2
  -2.15060E+4   2.48808E+2
  -2.13286E+4   1.29458E+2
  -2.11264E+4   8.26043E+1
  -2.09391E+4   6.79268E-1
  -2.07895E+4  -1.19401E+1
  -2.06792E+4  -1.79947E+2
  -2.05654E+4  -2.11340E+2
  -2.03810E+4  -1.59605E+2
  -2.02871E+4  -3.16598E+2
  -2.01665E+4  -3.99102E+2
  -1.99543E+4  -4.82194E+2
  -1.98672E+4  -4.68604E+2
  -1.97217E+4  -5.51434E+2
  -1.96168E+4  -6.00542E+2
  -1.95106E+4  -7.51397E+2
  -1.92566E+4  -6.85666E+2
  -1.91729E+4  -7.80682E+2
  -1.90788E+4  -8.10856E+2
  -1.89298E+4  -7.23238E+2
  -1.88068E+4  -9.01981E+2
  -1.86069E+4  -9.60077E+2
  -1.84708E+4  -9.81734E+2
  -1.84344E+4  -1.05282E+3
  -1.82952E+4  -1.02825E+3
  -1.81287E+4  -1.16269E+3
  -1.80417E+4  -1.12664E+3
  -1.79349E+4  -1.19868E+3
  -1.79010E+4  -1.28263E+3
  -1.78029E+4  -1.28549E+3
  -1.76291E+4  -1.29138E+3
  -1.75228E+4  -1.33423E+3
  -1.73832E+4  -1.36815E+3
  -1.72895E+4  -1.42676E+3
  -1.72569E+4  -1.39303E+3
  -1.70600E+4  -1.47409E+3
  -1.70365E+4  -1.51729E+3
  -1.69426E+4  -1.50988E+3
  -1.67581E+4  -1.58340E+3
  -1.67223E+4  -1.64857E+3
  -1.66091E+4  -1.62041E+3
  -1.64827E+4  -1.58002E+3
  -1.64628E+4  -1.68831E+3
  -1.63644E+4  -1.61347E+3
  -1.62807E+4  -1.65891E+3
  -1.61260E+4  -1.62022E+3
  -1.59971E+4  -1.69190E+3
  -1.59243E+4  -1.61538E+3
  -1.58144E+4  -1.63715E+3
  -1.58241E+4  -1.62997E+3
  -1.57781E+4  -1.70691E+3
  -1.57086E+4  -1.70812E+3
  -1.55583E+4  -1.70476E+3
  -1.53721E+4  -1.70807E+3
  -1.53592E+4  -1.71752E+3
  -1.52943E+4  -1.69614E+3
  -1.53047E+4  -1.77479E+3
  -1.51585E+4  -1.76322E+3
  -1.50304E+4  -1.69742E+3
  -1.50105E+4  -1.71209E+3
  -1.49212E+4  -1.72062E+3
  -1.48333E+4  -1.70941E+3
  -1.47708E+4  -1.70413E+3
  -1.46607E+4  -1.67792E+3
  -1.46438E+4  -1.67856E+3
  -1.46215E+4  -1.60788E+3
  -1.44797E+4  -1.68380E+3
  -1.44096E+4  -1.64320E+3
  -1.43307E+4  -1.60841E+3
  -1.42626E+4  -1.62085E+3
  -1.41826E+4  -1.57490E+3
  -1.41539E+4  -1.60225E+3
  -1.41244E+4  -1.63552E+3
  -1.39672E+4  -1.58696E+3
  -1.38538E+4  -1.58663E+3
  -1.38132E+4  -1.55166E+3
  -1.38025E+4  -1.53586E+3
  -1.37560E+4  -1.55838E+3
  -1.36327E+4  -1.59951E+3
  -1.36000E+4  -1.54410E+3
  -1.35291E+4  -1.51461E+3
  -1.34460E+4  -1.44456E+3
  -1.33517E+4  -1.49635E+3
  -1.32224E+4  -1.50003E+3
  -1.31797E+4  -1.41035E+3
  -1.31339E+4  -1.39877E+3
  -1.30002E+4  -1.41733E+3
  -1.29355E+4  -1.43941E+3
  -1.28771E+4  -1.35393E+3
  -1.27838E+4  -1.35844E+3
  -1.27142E+4  -1.33436E+3
  -1.26267E+4  -1.30430E+3
  -1.25923E+4  -1.30244E+3
  -1.24628E+4  -1.20909E+3
  -1.24134E+4  -1.25747E+3
  -1.23336E+4  -1.25062E+3
  -1.22239E+4  -1.16275E+3
  -1.21591E+4  -1.18107E+3
  -1.20944E+4  -1.15241E+3
  -1.19724E+4  -1.10099E+3
  -1.19033E+4  -1.20077E+3
  -1.18011E+4  -1.08065E+3
  -1.18371E+4  -1.07333E+3
  -1.16747E+4  -1.03908E+3
  -1.15342E+4  -1.01643E+3
  -1.14380E+4  -1.01179E+3
  -1.13440E+4  -9.45409E+2
  -1.12874E+4  -1.00475E+3
  -1.12393E+4  -9.21953E+2
  -1.11191E+4  -9.38639E+2
  -1.10115E+4  -9.63769E+2
  -1.09747E+4  -8.33025E+2
  -1.08857E+4  -8.32432E+2
  -1.08441E+4  -8.74749E+2
  -1.07011E+4  -9.35580E+2
  -1.06236E+4  -8.03612E+2
  -1.06160E+4  -7.64545E+2
  -1.05218E+4  -7.27954E+2
  -1.03962E+4  -7.90337E+2
  -1.03154E+4  -7.28923E+2
  -1.02532E+4  -7.16139E+2
  -1.01641E+4  -6.77770E+2
  -1.01601E+4  -6.45832E+2
  -9.94985E+3  -6.59263E+2
  -9.92865E+3  -6.55424E+2
  -9.81491E+3  -5.69935E+2
  -9.75450E+3  -5.60292E+2
  -9.68013E+3  -6.27414E+2
  -9.60144E+3  -5.42424E+2
  -9.53396E+3  -5.24931E+2
  -9.42939E+3  -5.24140E+2
  -9.34937E+3  -5.07135E+2
  -9.23029E+3  -5.52816E+2
  -9.10197E+3  -5.26674E+2
  -9.10534E+3  -4.86702E+2
  -9.05027E+3  -5.04411E+2
  -8.91911E+3  -4.56620E+2
  -8.84377E+3  -4.77313E+2
  -8.74293E+3  -3.94498E+2
  -8.67634E+3  -4.68748E+2
  -8.58846E+3  -4.04452E+2
  -8.44467E+3  -4.10540E+2
  -8.36269E+3  -3.72890E+2
  -8.33050E+3  -4.62122E+2
  -8.29593E+3  -3.73300E+2
  -8.16859E+3  -3.93563E+2
  -8.11143E+3  -3.83178E+2
  -8.00812E+3  -4.10551E+2
  -7.96238E+3  -3.23635E+2
  -7.88797E+3  -3.90197E+2
  -7.73256E+3  -3.66428E+2
  -7.73087E+3  -3.67610E+2
  -7.64959E+3  -4.10240E+2
  -7.57238E+3  -4.11247E+2
  -7.55119E+3  -4.04100E+2
  -7.40071E+3  -2.37166E+2
  -7.32856E+3  -3.34684E+2
  -7.24175E+3  -3.29077E+2
  -7.20176E+3  -2.87685E+2
  -7.09847E+3  -3.44335E+2
  -7.02880E+3  -2.43552E+2
  -6.92809E+3  -2.55857E+2
  -6.92146E+3  -3.38990E+2
  -6.81012E+3  -2.77896E+2
  -6.70906E+3  -3.10004E+2
  -6.67787E+3  -2.41187E+2
  -6.67705E+3  -3.34936E+2
  -6.59567E+3  -2.41556E+2
  -6.44790E+3  -3.47654E+2
  -6.40426E+3  -2.30426E+2
  -6.31634E+3  -2.62162E+2
  -6.31555E+3  -2.92269E+2
  -6.21228E+3  -2.96207E+2
  -6.09971E+3  -3.16997E+2
  -6.02255E+3  -3.00965E+2
  -6.05900E+3  -3.21947E+2
  -5.94027E+3  -3.23984E+2
  -5.90062E+3  -3.29568E+2
  -5.76608E+3  -3.22567E+2
  -5.74312E+3  -3.12186E+2
  -5.70605E+3  -2.86047E+2
  -5.58960E+3  -2.53512E+2
  -5.54477E+3  -2.80841E+2
  -5.51411E+3  -3.15326E+2
  -5.48979E+3  -2.80116E+2
  -5.43612E+3  -2.79070E+2
  -5.32275E+3  -3.51412E+2
  -5.30776E+3  -3.27394E+2
  -5.18722E+3  -2.86836E+2
  -5.24737E+3  -3.54180E+2
  -5.13425E+3  -3.96665E+2
  -5.09098E+3  -3.74165E+2
  -5.04404E+3  -3.54368E+2
  -4.93484E+3  -3.35619E+2
  -4.91599E+3  -3.42561E+2
  -4.84753E+3  -3.66085E+2
  -4.82832E+3  -3.44106E+2
  -4.67930E+3  -4.30839E+2
  -4.72935E+3  -4.16351E+2
  -4.67467E+3  -4.08910E+2
  -4.56992E+3  -3.82785E+2
  -4.52045E+3  -3.72990E+2
  -4.50461E+3  -3.91394E+2
  -4.38943E+3  -4.31260E+2
  -4.36617E+3  -4.21575E+2
  -4.33846E+3  -4.50831E+2
  -4.36621E+3  -4.32702E+2
  -4.25904E+3  -4.00838E+2
  -4.26931E+3  -4.31637E+2
  -4.23963E+3  -4.71931E+2
  -4.19447E+3  -4.14991E+2
  -4.05662E+3  -3.47685E+2
  -4.07030E+3  -4.38505E+2
  -3.98431E+3  -4.73576E+2
  -4.00449E+3  -4.24283E+2
  -3.95827E+3  -4.60443E+2
