 
 $NMID
 ID=''
 FMTDAT='(2E13.5)'
 TRAMP=   1.00000E+0
 VOLUME=   1.00000E+0
 $END
   3.82644E+2  -9.76313E+1
  -1.01331E+3   2.53219E+3
   4.93480E+3  -8.09605E+2
   3.68786E+3   1.52243E+2
   1.74814E+3  -5.66182E+3
  -5.45952E+2  -4.60468E+3
  -5.44764E+3   3.48314E+1
  -3.39842E+3  -4.01798E+2
  -1.10921E+3   1.65877E+3
   1.31115E+3  -7.35355E+2
   3.96096E+3   2.83351E+1
   3.73073E+3  -1.06758E+3
   1.40659E+3   2.21910E+3
  -2.71496E+3   4.12358E+2
  -3.36367E+3  -3.17455E+3
   7.20573E+1  -3.60045E+3
   1.60123E+3  -2.82087E+3
   1.14353E+3   2.86328E+3
  -2.39947E+3   1.13697E+3
  -1.66818E+3  -2.15808E+3
   2.06863E+3   4.60602E+2
   1.43321E+3   2.81205E+3
  -2.24571E+3   2.71260E+3
  -1.72315E+3  -3.67920E+3
   2.78207E+3  -3.82185E+3
  -1.32796E+2   1.73245E+3
  -3.71091E+3   4.09759E+2
  -2.27155E+3  -6.88145E+2
  -7.95732E+2  -3.37823E+3
   2.87474E+3  -1.68919E+3
   2.00235E+3   2.51229E+3
   5.57100E+2   6.90039E+3
  -6.57054E+3   8.72935E+2
  -2.51037E+3  -7.29802E+1
   3.29924E+2   2.73827E+3
  -6.20041E+2  -1.61607E+3
   1.15149E+3  -3.84117E+3
   4.57565E+3   2.59123E+2
   1.97464E+3   4.40201E+3
  -4.75802E+2   4.30642E+3
  -8.90352E+2   4.15630E+3
  -5.01949E+3   3.37795E+3
   3.99069E+2  -3.68293E+3
   5.92229E+3  -2.34090E+3
   7.54223E+3   7.34392E+2
   5.46588E+3   2.53761E+3
   2.51869E+3   1.86255E+3
   1.84090E+3  -9.17429E+1
  -2.28881E+3   1.03805E+3
  -2.35303E+3  -5.06464E+2
  -2.71938E+3  -2.87439E+3
  -3.03693E+3  -3.48451E+3
  -2.43761E+2  -3.33755E+3
  -1.04318E+3   2.57531E+3
  -2.81713E+3   3.98868E+3
  -4.49534E+3   1.15032E+3
  -5.82297E+3   2.06918E+3
  -5.57217E+3  -3.82526E+3
  -1.23974E+3  -7.29017E+3
   1.57910E+3  -4.64997E+3
   4.16430E+3  -1.65652E+3
   2.94523E+3   1.84167E+2
   1.38374E+3   1.90396E+3
  -1.31182E+3  -5.94780E+2
   6.24163E+2  -5.86833E+2
  -8.49359E+2   2.38704E+3
  -3.90638E+2   3.09151E+3
  -3.49807E+3   1.29461E+3
  -2.59274E+3   1.02069E+3
   1.87541E+3   9.04809E+2
  -4.43300E+2   2.93851E+2
  -1.21147E+3   1.21813E+3
   1.96419E+3   6.04845E+2
   5.57631E+2  -3.44569E+3
   1.03415E+3  -1.63402E+3
   5.94111E+2  -1.32089E+2
  -5.67009E+2  -1.72289E+3
  -4.83081E+2  -4.47012E+3
   9.52329E+2  -9.41551E+2
  -5.96185E+2   1.93935E+3
   1.29495E+2   2.93994E+3
   3.12743E+2  -2.07455E+1
   2.56025E+3   7.30190E+2
   8.04863E+1   2.79847E+3
  -2.15403E+3   1.73537E+3
  -2.22543E+3   2.04181E+2
   1.27010E+3  -2.08257E+2
   3.71911E+3  -1.94584E+3
   2.37340E+3   6.39497E+0
   7.02024E+2   1.80607E+3
   6.05362E+2   1.18758E+3
   1.17146E+2   2.79639E+2
  -6.49902E-1   1.19769E+3
   2.48034E+2   4.65251E+3
  -1.02807E+3  -2.76946E+3
  -1.68199E+3  -4.38833E+3
   2.42225E+3  -1.93738E+3
   1.27837E+3   1.77333E+3
  -1.18101E+2  -1.55804E+3
  -1.40017E+3  -3.06586E+3
   1.56926E+3  -3.63739E+3
   4.29376E+3   3.09073E+3
   8.76187E+2   1.49033E+3
  -8.07058E+2   2.26645E+3
  -2.77251E+2   9.93834E+1
  -1.46610E+3  -8.78410E+2
  -8.18200E+2  -6.36404E+2
  -2.67890E+2  -2.73962E+2
  -2.40301E+3  -3.25837E+3
   1.18718E+3  -3.58941E+3
   3.10688E+3  -1.53817E+3
   1.14201E+3   6.27478E+2
  -6.61058E+1   3.19497E+3
  -1.07909E+3   2.66420E+3
  -1.39946E+3   1.96232E+3
  -3.11915E+3  -4.48898E+1
   9.06228E+2  -1.35210E+3
   1.84386E+2  -2.28839E+3
   2.77753E+3  -2.14570E+3
   4.83109E+2  -6.67618E+2
   2.66038E+2   5.02188E+2
  -1.53731E+3  -1.11696E+1
  -5.39620E+2  -2.85595E+3
   1.94090E+3  -1.69505E+3
   3.25488E+2  -1.71457E+3
   1.40820E+3  -8.30027E+2
   1.67996E+3  -8.86082E+2
   1.37291E+3   1.70184E+3
  -1.34084E+3   5.20382E+2
  -2.10497E+2   2.53153E+3
  -4.76744E+2   2.94178E+2
  -8.91202E+2  -1.17288E+3
   2.17769E+3   2.12901E+3
   2.53786E+3   4.43072E+3
  -2.57017E+3   1.12039E+3
  -2.68507E+3  -1.67266E+3
   6.00201E+2  -2.99622E+3
   2.25229E+2   1.61545E+3
   2.08362E+3  -1.36403E+3
   1.85909E+3  -5.67975E+2
   2.85391E+3   9.24439E+2
   6.44463E+2   1.22195E+3
   3.42647E+3   1.30355E+3
  -8.33957E+2   1.25335E+3
  -7.58732E+2   7.23381E+2
   1.07640E+2   5.25208E+2
   3.49817E+2   7.63558E+2
  -8.31737E+2   7.12893E+2
  -1.05405E+3  -9.44517E+2
  -3.48691E+2   7.67774E+2
  -3.44406E+2   5.07299E+0
  -1.15773E+3   6.47274E+2
   7.02128E+2  -9.36576E+2
   2.59908E+3  -1.05932E+3
   1.27649E+3  -1.38682E+3
   1.44929E+3   7.91180E+2
   8.50252E+2   2.17825E+3
   1.70720E+3   5.80540E+2
   1.50542E+3   1.11927E+3
  -6.21962E+2   2.37206E+2
   1.77299E+3   4.32323E+2
  -3.10647E+2   2.05134E+2
  -7.28793E+2  -5.47780E+2
   1.83824E+3  -7.02258E+2
   1.20139E+2   3.95224E+2
  -3.96304E+2   2.94279E+2
  -9.48334E+2  -1.86312E+3
   2.88769E+3  -4.11710E+2
   7.36016E+2   2.19128E+3
  -1.92014E+3   2.51306E+3
  -2.87548E+3   1.88330E+3
   1.23106E+3  -7.67885E+0
   1.47911E+3  -1.94821E+3
   7.75453E+2  -1.74812E+3
  -7.57399E+2  -2.50734E+3
   2.30778E+2  -1.02054E+3
   1.92117E+3   3.56238E+2
  -8.68421E+1   1.84703E+3
  -5.74415E+2   1.03984E+3
  -5.25548E+2  -1.55631E+3
   3.89852E+2  -2.66792E+3
  -1.69613E+3  -1.12129E+3
   1.04597E+3   6.82502E+2
   2.20430E+3   5.19234E+2
   4.44033E+2   8.01836E+2
  -3.55330E+2   3.76414E+2
  -2.26827E+3   1.13786E+3
  -2.21627E+3  -1.37107E+3
  -4.01002E+2  -9.11257E+2
   2.04359E+3  -1.92181E+3
   1.53176E+3   2.50969E+2
   3.93186E+2   2.22434E+3
  -1.81983E+3   1.39214E+3
   1.96435E+2  -7.16128E+1
  -1.74542E+3  -1.70233E+3
   5.30607E+2   2.34709E+2
   1.56155E+2  -4.09197E+1
   6.34430E+2  -1.39868E+3
   1.35461E+3   1.06401E+3
  -7.54658E+2   3.33269E+2
  -4.15936E+3  -6.09369E+2
  -2.29516E+3  -1.24828E+3
   1.89909E+3  -1.83578E+3
   2.10353E+3   4.52756E+2
   1.46445E+3   1.86363E+3
   1.82999E+2   1.14686E+3
  -1.84613E+3  -5.58085E+1
   1.42911E+3   4.22976E+2
  -2.33419E+3   1.50155E+3
  -2.84007E+3   9.76447E+1
  -3.52043E+3  -8.50316E+2
  -3.75800E+2  -1.14115E+3
   1.76691E+3  -9.70854E+2
   1.79833E+3   6.41943E+2
  -5.64531E+2  -3.15400E+1
  -1.24388E+3  -8.53608E+1
  -1.27788E+3   5.52251E+2
   6.50270E+2   1.81730E+3
  -1.96112E+3  -1.04072E+3
  -2.79415E+2   6.44620E+2
   2.19207E+2   9.00577E+1
   3.64516E+2  -5.66931E+2
  -4.45880E+2   9.64957E+2
  -1.40958E+3  -1.10864E+3
  -2.17235E+3   4.94956E+2
  -5.74416E+0   1.15100E+3
  -1.75816E+3   2.11966E+3
  -2.35035E+3   6.77285E+2
  -1.64119E+3  -4.13911E+2
  -1.99555E+3  -6.99240E+2
  -5.07491E+2  -7.84039E+2
  -3.43004E+2  -1.04056E+3
  -1.15444E+3   1.68527E+3
  -5.11673E+1  -1.98712E+2
   1.23099E+3  -1.18423E+3
   1.21208E+2   2.07161E+3
  -1.62662E+3   1.11511E+3
  -1.08293E+3   7.90847E+2
   1.36231E+3  -5.58369E+2
   1.70447E+3   2.06780E+3
  -8.43911E+2   1.98240E+3
  -7.10226E+2   7.79641E+1
  -3.11111E+3  -1.17827E+2
   1.62630E+2   5.67253E+2
  -2.26112E+3   8.02651E+2
  -1.43837E+3  -1.08658E+3
   2.06346E+3  -1.34328E+3
   7.92839E+2  -9.81234E+2
   1.50933E+3   1.81105E+3
  -1.55092E+3   2.66460E+3
   7.14377E+2   5.57528E+2
  -8.05472E+2  -3.29779E+3
  -1.12539E+3  -2.70671E+2
   1.41544E+3   5.56339E+1
  -6.65684E+2   1.24191E+3
  -1.96610E+2   1.67547E+3
   7.69878E+2   1.48017E+3
   8.68972E+2   1.74970E+3
  -9.01620E+2  -1.31608E+2
  -2.79675E+3  -2.36840E+0
   3.14795E+2  -1.24549E+3
   1.22658E+3  -5.40221E+2
  -3.02669E+1   3.92719E+2
   8.54830E+2   1.97210E+3
  -1.54324E+3  -2.09991E+2
  -1.78600E+3   1.16030E+3
  -1.80723E+3  -1.89286E+3
  -4.51362E+2  -1.51015E+3
  -8.57929E+2  -1.46014E+3
   1.33542E+3  -1.53279E+3
   3.28855E+2  -2.35690E+3
   3.14343E+2  -4.90581E+2
  -1.46237E+3   2.02401E+3
   5.05751E+2  -2.87857E+2
  -1.07207E+3  -1.06250E+1
   2.97068E+2  -1.09696E+3
  -2.28316E+3  -1.82562E+3
   7.79851E+2  -3.68399E+1
  -3.60882E+2  -2.77482E+2
   8.29736E+2   1.02096E+3
  -1.50363E+3   1.07764E+3
  -1.05000E+3   6.54549E+2
  -3.26512E+3  -2.24331E+3
   7.09633E+1  -1.52265E+2
  -2.32365E+2  -1.35902E+3
   9.85183E+2   1.96742E+3
  -1.28535E+3  -6.69764E+2
  -9.29447E+2  -7.11897E+2
   6.76393E+2  -6.51321E+2
  -5.67449E+2   9.77171E+2
   9.71731E+2  -4.81307E+2
  -8.72500E+2  -2.17764E+3
   1.10457E+3  -7.01891E+2
  -5.24368E+2   1.61387E+3
  -3.61661E+2  -5.42127E+2
  -9.70498E+1  -9.14941E+2
  -9.49535E+2  -9.63538E+2
   2.23262E+3   1.22906E+3
   1.64160E+2  -6.48917E+2
  -5.64490E+2  -1.05027E+3
  -5.18483E+2  -7.82289E+2
  -3.22673E+2  -3.81453E+2
   6.57785E+2   3.34049E+2
  -1.89480E+3   1.03163E+2
  -9.06591E+2  -9.63951E+2
  -8.60830E+1  -1.10575E+3
   4.69130E+2   2.84544E+2
  -5.36181E+2   1.96623E+3
  -7.81041E+2   4.01928E+2
  -6.52409E+2   3.89168E+2
   1.10635E+3  -1.97975E+3
   9.58015E+2   4.22854E+2
   7.69873E+2   1.16106E+3
   4.46474E+2  -1.54554E+2
  -1.64547E+3   5.55249E+2
   8.80941E+2   1.42215E+3
  -6.45732E+2   1.27436E+3
   2.98606E+2  -2.28922E+2
   3.30678E+2  -1.49710E+3
   3.59297E+3  -3.22507E+2
   2.21069E+2   3.34514E+2
  -1.34189E+1  -8.27317E+1
  -5.89343E+2   3.40036E+2
  -1.22392E+3  -1.80475E+2
  -9.98987E+2  -8.52698E+2
   1.46443E+3   3.56745E+2
  -1.14569E+3  -1.09761E+2
   2.33174E+3   6.75024E+2
  -1.61328E+2   7.91009E+2
   7.09240E+1   1.55999E+3
  -2.31255E+3   1.23297E+3
  -6.59498E+2  -1.95277E+3
  -7.65075E+2   1.54270E+3
   2.00982E+3  -1.88746E+3
   3.79345E+2  -1.87381E+2
   7.82833E+1  -8.03037E+2
   1.35060E+2  -2.84450E+3
  -1.08851E+3   7.98924E+1
  -6.15743E+2  -1.31572E+3
   1.10016E+3   4.64419E+2
   1.76524E+3  -1.14204E+3
   2.07673E+3   1.04549E+2
   3.13059E+2  -1.87652E+3
   5.27481E+2   6.52499E+2
  -1.12084E+3  -5.61067E+2
   1.21244E+3  -2.40740E+3
   8.55161E+2  -3.61189E+2
  -4.47275E+2  -3.10006E+2
  -1.01655E+3   2.34415E+2
  -4.64865E+2  -7.22271E+2
   1.16416E+3  -1.25437E+3
   5.40648E+2   8.02476E+2
  -9.96547E+2  -1.37758E+3
  -1.39819E+3   9.50523E+2
   8.09400E+2  -4.41072E+2
   9.44581E+2  -7.45796E+2
   2.39380E+2  -1.00482E+3
   2.19309E+1   7.79766E+2
  -2.99370E+2   4.30263E+2
   1.76108E+2  -2.82471E+1
   1.34434E+3   9.19572E+2
   3.15873E+2   1.16325E+2
   9.82812E+2   1.68285E+3
  -3.77885E+2  -1.60873E+3
   1.91464E+3   1.06286E+3
   3.54106E+2   7.43163E+2
   6.76996E+1   2.74666E+3
