 
 $NMID
 ID=''
 FMTDAT='(2E13.5)'
 TRAMP=   1.00000E+0
 VOLUME=   1.00000E+0
 $END
   3.80254E+2  -1.40866E+2
  -2.16594E+2   2.45075E+3
   4.48136E+3  -2.30294E+3
   2.73459E+3  -1.60119E+3
  -1.10762E+3  -3.51318E+3
  -6.89039E+2  -2.62488E+3
  -2.89703E+3   1.32180E+3
  -2.17808E+3  -1.84146E+2
   6.57426E+2  -1.92780E+2
   1.43536E+3  -7.05568E+2
   3.68867E+3  -2.00709E+3
   2.91340E+3  -1.11362E+3
   1.28818E+3  -4.83609E+2
  -1.74771E+3  -1.93628E+2
  -3.92515E+3  -5.33507E+2
  -1.12007E+3  -1.11122E+3
   1.06923E+3  -4.56491E+2
   2.90781E+3   3.50716E+2
   2.98576E+3   2.23591E+3
   3.58238E+2  -2.51014E+3
   4.22121E+3  -1.19600E+2
   1.29522E+3   2.85955E+3
  -7.28385E+2   1.76115E+3
  -7.36661E+2  -3.92698E+3
   1.13702E+3  -2.62419E+3
   1.85067E+3   3.40757E+3
  -1.25584E+3   1.52461E+3
  -9.24957E+2  -2.45055E+3
   1.86849E+3  -2.70869E+3
   2.87414E+3  -7.95219E+1
   4.10445E+3   3.47106E+3
  -1.13360E+3   5.73505E+3
  -3.85443E+3   1.51238E+3
  -2.01102E+3  -2.59917E+3
  -1.23624E+3  -1.49262E+3
  -1.49560E+3  -9.45108E+2
   5.91123E+2  -1.66681E+3
   3.08264E+3   2.08825E+3
   1.83980E+3   2.05651E+3
  -1.24848E+2   3.26946E+3
  -3.54920E+3   3.11648E+3
  -5.83774E+3   1.80358E+2
  -2.57806E+3  -3.81829E+3
   3.23572E+3  -1.32961E+3
   3.21144E+3   1.10159E+3
   1.74310E+3   1.69036E+3
   3.62858E+3   2.96745E+3
  -1.44741E+1   5.25636E+3
  -6.97050E+2   1.77822E+3
   2.41184E+1   1.62447E+3
  -4.19319E+2  -1.44416E+3
   1.51398E+3  -4.29828E+3
   5.39079E+3   5.33243E+1
   1.14142E+3   3.09588E+3
  -2.63200E+3   1.30033E+3
  -1.90499E+3   9.12093E+2
  -2.06684E+3   2.87432E+3
  -5.58516E+3  -6.24348E+2
  -2.40022E+3  -3.91091E+3
   1.71718E+3  -3.70411E+3
   6.37623E+3  -1.49516E+2
   5.64424E+3   8.94188E+2
   3.74185E+3   3.28245E+3
  -1.43973E+3   5.45258E+2
  -1.55875E+3  -7.92953E+2
   1.72140E+3   1.89479E+3
  -1.20326E+3   7.01967E+2
  -4.76413E+3  -1.53188E+3
  -1.93402E+3  -2.52774E+3
  -2.66622E+3  -1.18446E+3
  -1.20122E+3   8.15774E+2
  -2.86401E+3   9.48703E+2
  -4.00541E+3  -2.15589E+3
  -1.50240E+3  -1.87682E+3
  -1.28074E+3   8.45730E+2
  -2.22369E+3   6.64471E+2
  -5.34274E+2  -1.68268E+3
  -1.28134E+3  -5.97629E+2
  -2.61685E+2   1.44068E+2
  -6.14519E+2   9.69976E+2
   5.79379E+2   5.53570E+2
   1.35225E+3  -2.87257E+2
  -5.97995E+2  -4.52327E+2
   4.44824E+2  -3.18002E+2
  -1.08000E+3  -1.61399E+3
  -1.44900E+3  -2.30154E+3
   8.95042E+2  -2.58535E+3
   3.57446E+3  -1.41604E+3
   1.88923E+3  -3.85258E+0
  -7.05860E+2  -7.42000E+2
  -1.82392E+2  -3.96060E+2
   4.87314E+2  -2.74771E+2
   1.75503E+3   1.56568E+3
  -2.18233E+3   2.85218E+3
  -2.53089E+3   1.05716E+3
   9.16649E+1  -2.13686E+3
   1.41272E+3  -6.75855E+2
  -1.57965E+2   1.84678E+3
  -2.76876E+3   1.19873E+3
  -1.47505E+3  -2.25978E+3
   5.60809E+2  -2.40203E+3
   3.77316E+3  -1.34902E+3
   9.68543E+2   2.38292E+3
  -2.41909E+3   1.67047E+3
  -7.17793E+2  -3.92274E+2
  -6.22363E+1  -4.01921E+2
  -2.24291E+3   1.23361E+3
  -2.32289E+3  -4.22930E+3
  -1.25250E+3  -1.58562E+3
   3.06981E+3  -1.34186E+2
   3.28749E+3  -3.15288E+3
   1.58767E+3   1.40186E+3
   6.75464E+2  -2.68670E+2
  -3.47654E+2   1.38928E+3
  -7.64168E+1   1.25622E+3
  -4.43134E+3  -1.09241E+3
  -2.93907E+3  -1.38418E+3
   1.77713E+3  -1.33062E+3
   1.21394E+3  -1.10507E+3
  -1.19641E+3  -1.40991E+3
  -5.25437E+2   1.24525E+3
  -1.43458E+3  -8.94197E+1
  -7.93384E+2  -1.40500E+3
   3.54097E+3  -2.21464E+3
   2.47961E+3   6.22204E+2
   1.47797E+3   1.22636E+3
   1.34597E+3   5.82221E+2
   1.96432E+3   1.47774E+3
  -1.07279E+2   1.36486E+3
   1.33212E+3   2.15797E+3
  -6.54755E+2   9.02840E+2
   9.51087E+2  -2.91401E+2
   1.88058E+3   1.58003E+3
   4.38042E+2   3.38320E+3
  -8.39329E+2   6.64953E+2
  -2.08906E+3   6.89333E+2
  -7.39553E+2  -2.09797E+3
  -4.11747E+2  -1.38937E+3
   2.80667E+2  -2.07232E+3
   6.01562E+2  -7.92596E+2
   2.66055E+3   7.21963E+0
   1.42731E+3  -1.04928E+3
   7.34271E+2   2.98536E+3
  -7.54605E+2   1.40791E+3
  -3.16708E+2  -7.38395E+1
   1.29979E+3   1.39247E+2
  -1.52410E+1   1.37198E+3
  -2.16710E+3  -5.28266E+2
  -7.75290E+1  -7.75587E+2
   3.77705E+2   1.96641E+3
  -1.09849E+3  -1.70838E+3
  -1.32201E+3  -1.11462E+3
  -1.02540E+2  -8.69468E+2
   1.39158E+2  -3.58460E+2
   1.29352E+3  -1.06484E+3
   1.22841E+3   4.54128E+2
  -9.34004E+2  -2.05190E+2
  -4.93588E+2   1.55411E+3
   2.50880E+2  -8.10834E+2
  -1.77578E+3   4.09909E+2
  -6.84247E+2  -1.05953E+2
  -2.50085E+3   1.08273E+3
  -8.55929E+2  -1.88619E+3
   5.50028E+2  -1.41394E+3
  -9.34718E+2   2.21732E+3
  -2.55853E+3   5.63255E+2
   6.61340E+2  -2.57042E+3
   5.59519E+2  -1.28085E+2
   1.10415E+3  -1.20538E+2
  -6.93554E+2   1.09146E+3
  -1.22496E+3  -2.02025E+3
  -1.15245E+3  -1.04450E+3
  -7.79396E+2  -7.44330E+2
   5.07873E+2   9.50794E+2
  -6.44507E+2  -3.06592E+2
   9.62333E+2   1.77608E+3
   1.71419E+3   1.12598E+3
   2.21328E+3   2.03357E+3
  -5.08728E+2   5.68622E+0
  -8.98047E+2  -1.76279E+3
  -1.62933E+3   1.25534E+3
   1.80353E+3  -1.11452E+3
  -1.74677E+2  -4.44685E+2
   1.67090E+3   1.38989E+3
  -1.38392E+3   5.53471E+2
   2.18846E+2  -1.99172E+2
   7.56578E+2   1.08755E+3
  -1.35907E+2   6.91465E+1
  -2.41710E+2  -2.30136E+3
   2.68534E+3   1.53293E+2
   1.86061E+3  -1.73777E+3
   2.11796E+2   2.54622E+3
   1.68746E+3   1.94154E+3
  -3.54364E+2   1.82472E+3
   2.34239E+3  -5.17149E+1
   1.26103E+3   1.41597E+3
  -4.43256E+2  -7.72202E+2
  -1.64876E+3   1.56809E+3
   1.10130E+3   9.49327E+2
   8.15905E+2   7.08197E+2
  -1.65209E+3   2.90944E+3
  -1.05298E+3  -1.40288E+3
  -1.16875E+2  -2.70859E+3
   3.95987E+2  -1.43255E+3
   5.33048E+2  -1.69812E+3
  -8.89428E+2  -1.11197E+2
   1.49415E+1  -1.50576E+3
  -1.60932E+2   8.09821E+1
   1.67043E+3  -2.22858E+2
  -1.21596E+3   1.36285E+3
  -7.28836E+2  -5.19907E+2
   8.05648E+2  -2.22088E+3
   1.37071E+3  -9.69320E+2
   8.55111E+2   9.52001E+2
  -3.96167E+2  -6.93976E+1
  -6.49065E+2   9.87535E+2
  -9.69746E+2  -1.45991E+3
   2.50387E+3   1.57178E+3
   4.17047E+2  -3.14753E+2
  -4.32319E+1   3.29082E+1
   2.21042E+3   9.67813E+2
   5.31274E+2  -1.04903E+2
   7.93894E+2  -1.62283E+3
   1.93664E+3  -1.79059E+3
   1.12375E+3   1.15472E+3
   2.09856E+3  -2.14936E+2
   8.83762E+2   1.14904E+3
   7.63534E+2   1.27527E+3
  -8.39930E+2   4.43971E+2
   2.19610E+3  -7.36786E+2
  -1.22635E+2  -5.01672E+2
  -2.03166E+2  -6.79973E+1
   1.52887E+3  -5.42335E+2
  -3.54789E+2  -2.14730E+3
   2.02727E+3  -5.82622E+2
   1.28803E+3   2.52032E+3
  -2.76739E+2  -3.22800E+2
  -4.91020E+2  -1.60161E+3
  -1.30551E+2   2.14136E+3
   2.75145E+2  -6.52301E+2
  -5.37872E+2   9.48575E+2
  -3.92597E+2   4.47897E+2
  -1.51432E+2  -6.09826E+2
   3.09478E+2   1.40095E+3
  -1.03477E+3  -1.16502E+2
  -1.28143E+3  -6.43529E+2
  -1.21263E+3  -9.02101E+2
   1.25656E+3  -1.10898E+3
   5.27645E+2   2.31362E+3
   6.26847E+2   1.64154E+3
  -1.53168E+2   4.75803E+2
  -2.94579E+3  -1.01673E+3
  -3.19837E+2  -1.38776E+3
   5.05849E+2  -7.38587E+2
  -2.35486E+2   5.87303E+2
   6.20908E+2   2.37959E+2
  -7.51753E+2   7.91696E+2
  -2.46365E+2   1.69699E+3
   1.36944E+3   2.39824E+3
  -6.90085E+2  -1.75930E+2
  -7.62427E+2  -1.89504E+3
  -5.73002E+2  -6.53598E+2
   1.03245E+3   5.89517E+2
  -1.03714E+3  -7.48354E+2
  -1.11422E+3   5.66389E+2
  -1.14643E+3   1.49438E+3
  -7.30954E+2  -2.65189E+2
   6.98901E+2   2.27035E+2
  -1.06032E+3   2.70403E+2
   1.12761E+3  -9.99038E+2
   1.00831E+3  -1.73228E+3
   9.41598E+2   1.43302E+3
  -1.13939E+3   6.77275E+2
  -9.80336E+2   3.39939E+2
   1.20983E+3  -5.99360E+2
   4.62324E+2  -9.25379E+2
  -6.83872E+2   4.33765E+2
   6.86219E+2   5.36609E+2
  -1.35648E+3   2.95026E+2
   4.01029E+1   1.64966E+2
  -8.95650E+2   2.18667E+3
  -2.17309E+3   3.41200E+2
  -1.01888E+3  -1.55865E+2
  -2.53162E+2  -2.62987E+3
   4.39194E+2   8.32195E+2
  -4.69936E+2   8.38454E+2
  -4.21627E+2  -2.00903E+3
  -4.21320E+2  -1.52615E+3
   1.02416E+3   5.71442E+2
  -4.52127E+2   1.06129E+3
  -2.43784E+2   2.68949E+3
  -8.48490E+1   4.62701E+1
  -1.14678E+3   7.39759E+2
  -9.52158E+2   7.88820E+2
  -1.31885E+3   2.44167E+3
  -6.88838E+2   1.30614E+3
  -9.62023E+2   8.25436E+2
   2.54927E+2  -5.35655E+2
   1.70581E+2  -3.70863E+2
  -2.92424E+3   1.73109E+3
   9.81217E+2  -1.41117E+3
   4.37305E+2   8.05206E+1
  -3.51948E+2  -1.62995E+2
  -6.62284E+1  -2.00072E+2
  -1.30416E+3  -1.45415E+3
   6.12435E+2   1.72051E+3
   3.84898E+0   3.88204E+2
   9.38524E+1   2.30713E+3
  -1.21220E+3   1.43192E+3
   8.04896E+2   2.88705E+2
  -5.32921E+2  -9.14949E+1
   3.29076E+1   5.29978E+2
  -1.07168E+3   1.16221E+3
   1.42031E+3   4.10456E+2
  -1.32756E+3   6.17805E+2
   8.54359E+2   1.45166E+3
  -1.10287E+3   5.27480E+2
  -8.86282E+2  -3.73845E+2
  -1.93438E+2  -7.61752E+2
   3.73793E+1  -7.18669E+2
   1.92219E+2   1.33117E+3
   5.83413E+2   1.34567E+3
  -1.42978E+3  -2.56608E+2
   4.68889E+2   3.93961E+2
  -1.91949E+3  -1.10595E+3
  -5.80706E+2   1.93024E+2
  -1.58865E+3  -2.90385E+2
   1.89473E+3  -8.87787E+2
   1.99463E+3   1.00495E+3
   2.84801E+3  -9.24619E+1
  -8.74085E+2   1.28595E+2
  -9.92231E+2  -2.02035E+3
  -6.49787E+2  -9.14284E+2
  -6.92246E+2  -5.20790E+1
   7.14385E+2  -1.44782E+2
   2.58516E+2  -5.77943E+2
   8.94928E+2   6.24278E+2
   1.38581E+3   1.06432E+3
  -2.81301E+1   1.03967E+3
   3.03431E+2   2.48282E+2
   1.06334E+3  -1.56530E+3
  -2.45657E+2  -8.65953E+2
   3.55046E+2   2.14468E+1
  -6.52953E+2  -8.97326E+2
  -3.22231E+2  -5.31812E+2
  -2.49575E+3   1.49340E+3
   1.15786E+3  -9.76567E+2
   4.31948E+2   4.99307E+2
  -1.24566E+3  -2.87656E+1
  -1.21866E+3  -4.19589E+2
   8.40675E+2  -5.19274E+2
   8.52565E+2  -5.51853E+2
   1.80013E+3  -1.09066E+2
  -2.78737E+1  -3.68397E+2
  -5.69257E+2  -1.02495E+3
   2.65792E+2  -1.16411E+2
   8.04594E+2   3.90336E+2
   3.06248E+2   1.35753E+3
  -7.10497E+2  -7.84564E+2
   7.62449E+1  -3.54496E+2
   1.91782E+2   1.71736E+2
   9.54978E+2  -6.81867E+2
  -1.06063E+3  -8.78088E+2
   1.14510E+3  -3.50641E+2
  -1.06384E+3   3.23583E+0
  -1.27411E+3   1.02948E+3
  -2.30236E+3   1.04712E+3
