 
 $NMID
 ID=''
 FMTDAT='(2E13.5)'
 TRAMP=   1.00000E+0
 VOLUME=   1.00000E+0
 $END
  -1.24074E+4  -2.33157E+3
  -2.93374E+4  -1.46055E+4
  -3.19223E+4  -9.16346E+3
  -2.97696E+4  -8.25242E+3
  -3.08091E+4  -9.30654E+3
  -3.14484E+4  -8.00110E+3
  -3.02253E+4  -7.84848E+3
  -3.04090E+4  -8.38444E+3
  -3.07887E+4  -7.52596E+3
  -2.99671E+4  -7.41347E+3
  -3.00292E+4  -7.88411E+3
  -3.00978E+4  -7.07601E+3
  -2.96799E+4  -6.81358E+3
  -2.97347E+4  -7.26122E+3
  -2.96953E+4  -6.64114E+3
  -2.92242E+4  -6.29798E+3
  -2.92520E+4  -6.45915E+3
  -2.91895E+4  -5.92455E+3
  -2.89174E+4  -5.66214E+3
  -2.88906E+4  -5.66856E+3
  -2.86463E+4  -5.26711E+3
  -2.84364E+4  -4.85203E+3
  -2.83904E+4  -4.88129E+3
  -2.82973E+4  -4.62209E+3
  -2.79359E+4  -4.34834E+3
  -2.78981E+4  -4.17722E+3
  -2.78146E+4  -4.02737E+3
  -2.74668E+4  -3.82921E+3
  -2.72852E+4  -3.67078E+3
  -2.71333E+4  -3.44676E+3
  -2.69493E+4  -3.29274E+3
  -2.67853E+4  -3.15739E+3
  -2.66375E+4  -3.01419E+3
  -2.64376E+4  -2.78357E+3
  -2.62327E+4  -2.66579E+3
  -2.60119E+4  -2.50532E+3
  -2.57739E+4  -2.30636E+3
  -2.56523E+4  -2.18373E+3
  -2.54951E+4  -1.89466E+3
  -2.52894E+4  -1.76415E+3
  -2.50979E+4  -1.64109E+3
  -2.50352E+4  -1.49089E+3
  -2.47102E+4  -1.42160E+3
  -2.44865E+4  -1.24429E+3
  -2.44381E+4  -1.06520E+3
  -2.41140E+4  -9.20959E+2
  -2.39976E+4  -8.43384E+2
  -2.38405E+4  -5.88293E+2
  -2.36688E+4  -5.27235E+2
  -2.34957E+4  -3.66548E+2
  -2.34154E+4  -1.77619E+2
  -2.31488E+4  -1.49863E+2
  -2.28726E+4   3.23210E+1
  -2.26839E+4   2.72599E+2
  -2.25773E+4   4.09293E+2
  -2.24700E+4   4.55028E+2
  -2.22015E+4   6.16364E+2
  -2.20329E+4   7.68976E+2
  -2.18263E+4   8.46456E+2
  -2.16355E+4   1.06733E+3
  -2.13883E+4   1.17892E+3
  -2.10973E+4   1.29027E+3
  -2.10739E+4   1.43979E+3
  -2.08645E+4   1.57025E+3
  -2.06300E+4   1.60828E+3
  -2.04273E+4   1.83171E+3
  -2.02938E+4   1.91732E+3
  -2.01380E+4   1.94742E+3
  -1.99045E+4   1.99452E+3
  -1.97288E+4   2.13303E+3
  -1.95782E+4   2.25687E+3
  -1.93786E+4   2.33494E+3
  -1.93083E+4   2.44169E+3
  -1.90729E+4   2.55623E+3
  -1.88752E+4   2.66332E+3
  -1.87683E+4   2.69790E+3
  -1.85004E+4   2.83749E+3
  -1.83233E+4   2.89732E+3
  -1.80962E+4   2.99024E+3
  -1.80339E+4   3.12208E+3
  -1.78754E+4   3.11095E+3
  -1.76786E+4   3.18518E+3
  -1.75086E+4   3.27462E+3
  -1.72481E+4   3.34507E+3
  -1.71484E+4   3.28120E+3
  -1.69370E+4   3.38273E+3
  -1.68295E+4   3.38424E+3
  -1.65848E+4   3.41948E+3
  -1.64307E+4   3.45472E+3
  -1.62896E+4   3.57206E+3
  -1.61264E+4   3.60315E+3
  -1.59036E+4   3.64118E+3
  -1.57213E+4   3.61124E+3
  -1.56373E+4   3.76208E+3
  -1.55084E+4   3.70527E+3
  -1.52605E+4   3.73766E+3
  -1.50537E+4   3.83173E+3
  -1.49358E+4   3.82511E+3
  -1.48023E+4   3.94420E+3
  -1.47255E+4   3.80026E+3
  -1.44886E+4   3.87379E+3
  -1.42191E+4   3.89112E+3
  -1.41871E+4   3.93585E+3
  -1.39805E+4   3.98740E+3
  -1.38695E+4   3.99724E+3
  -1.36812E+4   4.04352E+3
  -1.35076E+4   3.94946E+3
  -1.33263E+4   3.97668E+3
  -1.31736E+4   3.97631E+3
  -1.29583E+4   3.97244E+3
  -1.27854E+4   3.96940E+3
  -1.26239E+4   4.09913E+3
  -1.25423E+4   4.10249E+3
  -1.22949E+4   4.08811E+3
  -1.22082E+4   4.10391E+3
  -1.21076E+4   4.08760E+3
  -1.18911E+4   4.09880E+3
  -1.18122E+4   4.17212E+3
  -1.16212E+4   4.13003E+3
  -1.15091E+4   4.10344E+3
  -1.13286E+4   4.12538E+3
  -1.12421E+4   4.06864E+3
  -1.10968E+4   4.10801E+3
  -1.09378E+4   4.12516E+3
  -1.08057E+4   4.16700E+3
  -1.07223E+4   4.14221E+3
  -1.05225E+4   4.15047E+3
  -1.03913E+4   4.20878E+3
  -1.03314E+4   4.17733E+3
  -1.02244E+4   4.17018E+3
  -1.00603E+4   4.16502E+3
  -9.90297E+3   4.11828E+3
  -9.81462E+3   4.20515E+3
  -9.69068E+3   4.12341E+3
  -9.50625E+3   4.19589E+3
  -9.42420E+3   4.15355E+3
  -9.32733E+3   4.14077E+3
  -9.16556E+3   4.21278E+3
  -9.04721E+3   4.16003E+3
  -8.96797E+3   4.17924E+3
  -8.83160E+3   4.22997E+3
  -8.71494E+3   4.16197E+3
  -8.60204E+3   4.12417E+3
  -8.45388E+3   4.23446E+3
  -8.35765E+3   4.21800E+3
  -8.28682E+3   4.26455E+3
  -8.21996E+3   4.16976E+3
  -8.05982E+3   4.16597E+3
  -7.97490E+3   4.16584E+3
  -7.81276E+3   4.17137E+3
  -7.75610E+3   4.21420E+3
  -7.71907E+3   4.18205E+3
  -7.51751E+3   4.17968E+3
  -7.33236E+3   4.13689E+3
  -7.28905E+3   4.13053E+3
  -7.24082E+3   4.15510E+3
  -7.05636E+3   4.18485E+3
  -7.02338E+3   4.15129E+3
  -6.90545E+3   4.14459E+3
  -6.75378E+3   4.17280E+3
  -6.67801E+3   4.15214E+3
  -6.63077E+3   4.15793E+3
  -6.51860E+3   4.17472E+3
  -6.40357E+3   4.12788E+3
  -6.32068E+3   4.20731E+3
  -6.27522E+3   4.13300E+3
  -6.13771E+3   4.13677E+3
  -6.04181E+3   4.20387E+3
  -5.94573E+3   4.13363E+3
  -5.87726E+3   4.11212E+3
  -5.86145E+3   4.12002E+3
  -5.73091E+3   4.12050E+3
  -5.61143E+3   4.14759E+3
  -5.52307E+3   4.08463E+3
  -5.46102E+3   4.13529E+3
  -5.40829E+3   4.12691E+3
  -5.33557E+3   4.18221E+3
  -5.29921E+3   4.14407E+3
  -5.15360E+3   4.20112E+3
  -5.11558E+3   4.19427E+3
  -4.97682E+3   4.14457E+3
  -4.93470E+3   4.13651E+3
  -4.80235E+3   4.15736E+3
  -4.82895E+3   4.13574E+3
  -4.73842E+3   4.16196E+3
  -4.70396E+3   4.22770E+3
  -4.67084E+3   4.12328E+3
  -4.52271E+3   4.08226E+3
  -4.45323E+3   4.07657E+3
  -4.47589E+3   4.08906E+3
  -4.34663E+3   4.08131E+3
  -4.30238E+3   4.03608E+3
  -4.32282E+3   4.08214E+3
  -4.12863E+3   4.05887E+3
  -4.11429E+3   4.02841E+3
  -4.07851E+3   4.05889E+3
  -4.04212E+3   4.04633E+3
  -3.95972E+3   4.07324E+3
  -3.85850E+3   3.99455E+3
  -3.83302E+3   4.04498E+3
  -3.74231E+3   3.99953E+3
  -3.75237E+3   3.94002E+3
  -3.64366E+3   3.96568E+3
  -3.64112E+3   3.87664E+3
  -3.55745E+3   3.89432E+3
  -3.47538E+3   3.92940E+3
  -3.41805E+3   3.89774E+3
  -3.41567E+3   3.89401E+3
  -3.31104E+3   3.82734E+3
  -3.29654E+3   3.86861E+3
  -3.25194E+3   3.88129E+3
  -3.17034E+3   3.89267E+3
  -3.08716E+3   3.78831E+3
  -3.10906E+3   3.83207E+3
  -3.03949E+3   3.74462E+3
  -3.08088E+3   3.77049E+3
  -2.93012E+3   3.75524E+3
  -2.91827E+3   3.77080E+3
  -2.84940E+3   3.80177E+3
  -2.79795E+3   3.74760E+3
  -2.78140E+3   3.67940E+3
  -2.69590E+3   3.73211E+3
  -2.70707E+3   3.70151E+3
  -2.58121E+3   3.65758E+3
  -2.55744E+3   3.57516E+3
  -2.54341E+3   3.63345E+3
  -2.45836E+3   3.58835E+3
  -2.36966E+3   3.61932E+3
  -2.35834E+3   3.58697E+3
  -2.29981E+3   3.51436E+3
  -2.29703E+3   3.59704E+3
  -2.25987E+3   3.50259E+3
  -2.23333E+3   3.52373E+3
  -2.09081E+3   3.44003E+3
  -2.11449E+3   3.43903E+3
  -2.06449E+3   3.48354E+3
  -1.95639E+3   3.45475E+3
  -2.00902E+3   3.41506E+3
  -1.88011E+3   3.40858E+3
  -1.89382E+3   3.42533E+3
  -1.78553E+3   3.44114E+3
  -1.74344E+3   3.41109E+3
  -1.76009E+3   3.39549E+3
  -1.72545E+3   3.36112E+3
  -1.71125E+3   3.36909E+3
  -1.71456E+3   3.36227E+3
  -1.64829E+3   3.25445E+3
  -1.62354E+3   3.32191E+3
  -1.59271E+3   3.30540E+3
  -1.51339E+3   3.27126E+3
  -1.47014E+3   3.33104E+3
  -1.45232E+3   3.31364E+3
  -1.41854E+3   3.21710E+3
  -1.37168E+3   3.21030E+3
  -1.30756E+3   3.21936E+3
  -1.32028E+3   3.25370E+3
  -1.30674E+3   3.18053E+3
  -1.28467E+3   3.19334E+3
  -1.20313E+3   3.18974E+3
  -1.23701E+3   3.23819E+3
  -1.11982E+3   3.16846E+3
  -1.09460E+3   3.10343E+3
  -1.14647E+3   3.15795E+3
  -1.02619E+3   3.16994E+3
  -1.00404E+3   3.11247E+3
  -1.02511E+3   3.05320E+3
  -1.03805E+3   3.11994E+3
  -9.94599E+2   3.06330E+3
  -9.99679E+2   3.06503E+3
  -9.59087E+2   3.02102E+3
  -9.66140E+2   3.07203E+3
  -8.46990E+2   2.94669E+3
  -8.84743E+2   3.06079E+3
  -8.23491E+2   3.02171E+3
  -8.44475E+2   3.01385E+3
  -7.90994E+2   2.95194E+3
  -8.13139E+2   3.00647E+3
  -7.57200E+2   2.91044E+3
  -6.64546E+2   2.90484E+3
  -6.06824E+2   2.93684E+3
  -6.39388E+2   2.95205E+3
  -6.18339E+2   2.86486E+3
  -5.92193E+2   2.93597E+3
  -6.27115E+2   2.88364E+3
  -5.59352E+2   2.85929E+3
  -4.96651E+2   2.89983E+3
  -5.49716E+2   2.92954E+3
  -5.12696E+2   2.85685E+3
  -5.08965E+2   2.80955E+3
  -4.97220E+2   2.81662E+3
  -4.46395E+2   2.76399E+3
  -3.64944E+2   2.80187E+3
  -3.32461E+2   2.77334E+3
  -3.27572E+2   2.79824E+3
  -3.56414E+2   2.74073E+3
  -3.69279E+2   2.74554E+3
  -2.30997E+2   2.74847E+3
  -2.22331E+2   2.75587E+3
  -1.55746E+2   2.78557E+3
  -2.34373E+2   2.72891E+3
  -1.78059E+2   2.75565E+3
  -2.08239E+2   2.66374E+3
  -1.40691E+2   2.65819E+3
  -1.04853E+2   2.70570E+3
  -1.72548E+2   2.56009E+3
  -1.17308E+2   2.59685E+3
  -2.04156E+1   2.59716E+3
  -1.00817E+2   2.60319E+3
  -3.99192E+1   2.55700E+3
  -9.51342E+1   2.63308E+3
   1.42199E+1   2.49972E+3
   5.46678E+1   2.52936E+3
   1.74123E+1   2.58468E+3
   1.95712E+1   2.52828E+3
   5.00293E+1   2.57097E+3
   9.02056E+1   2.51152E+3
   7.50697E+1   2.49797E+3
   1.07231E+2   2.52728E+3
   1.35749E+2   2.47567E+3
   1.86172E+2   2.48616E+3
   1.64571E+2   2.40616E+3
   1.32265E+2   2.45640E+3
   2.45021E+2   2.40983E+3
   1.96580E+2   2.37678E+3
   2.39356E+2   2.41194E+3
   3.19559E+2   2.36800E+3
   2.45441E+2   2.32411E+3
   3.34103E+2   2.34291E+3
   2.87474E+2   2.38851E+3
   2.95811E+2   2.29661E+3
   3.80334E+2   2.33141E+3
   3.33318E+2   2.41349E+3
   3.83625E+2   2.28857E+3
   4.28444E+2   2.34633E+3
   3.83912E+2   2.31011E+3
   4.16263E+2   2.28806E+3
   3.53193E+2   2.27736E+3
   4.02366E+2   2.15739E+3
   5.15012E+2   2.24817E+3
   4.56148E+2   2.20487E+3
   4.79044E+2   2.24202E+3
   5.44369E+2   2.18234E+3
   5.41782E+2   2.19727E+3
   5.15312E+2   2.15650E+3
   5.96532E+2   2.23344E+3
   5.99526E+2   2.16658E+3
   5.62518E+2   2.16802E+3
   6.07173E+2   2.17104E+3
   6.12291E+2   2.10856E+3
   5.74666E+2   2.13626E+3
   7.43339E+2   2.10248E+3
   6.40390E+2   2.09891E+3
   6.38703E+2   2.07939E+3
   6.90242E+2   2.11466E+3
   7.18991E+2   2.06915E+3
   6.82869E+2   2.03451E+3
   7.55858E+2   2.06275E+3
   7.37754E+2   2.08357E+3
   7.69042E+2   2.01929E+3
   8.04942E+2   2.00281E+3
   7.21479E+2   2.02831E+3
   8.28911E+2   1.97829E+3
   7.78745E+2   2.07675E+3
   8.18110E+2   1.93668E+3
   8.62967E+2   1.90166E+3
   8.05658E+2   1.96903E+3
   8.41341E+2   1.89925E+3
