 
 $NMID
 ID=''
 FMTDAT='(2E13.5)'
 TRAMP=   1.00000E+0
 VOLUME=   1.00000E+0
 $END
  -9.47485E+2   3.47926E+1
  -1.13428E+3   5.98440E+2
  -2.88635E+3   2.94140E+3
   3.59228E+3   4.47900E+3
   5.41463E+3  -3.43499E+2
   3.34976E+3  -1.36412E+3
   1.82136E+2  -1.24155E+3
  -7.07386E+2  -3.85671E+2
  -2.43305E+3  -1.06009E+2
  -2.43511E+3  -2.50430E+2
   4.40488E+3  -6.93555E+2
   4.66077E+3   1.45186E+3
   1.69057E+2   1.18228E+3
  -3.47160E+3   1.67884E+3
  -1.89386E+3  -9.40973E+2
   1.28679E+3  -1.58322E+2
   7.02035E+2  -1.21487E+3
  -2.10988E+3   7.39804E+2
  -1.10164E+3  -9.78145E+1
  -2.49526E+2  -5.11373E+2
  -2.05972E+3   5.79369E+2
  -2.21689E+3   5.54258E+2
  -1.77444E+3   1.56875E+3
  -5.11873E+3   4.44070E+3
  -1.89969E+3  -6.14764E+2
   5.78499E+2   8.23731E+2
  -1.44817E+2   3.43575E+3
  -1.06344E+3  -3.99312E+2
   2.58450E+2  -2.84787E+3
   1.89715E+3  -3.56621E+3
   1.53645E+3   2.08373E+3
  -6.70553E+2   3.75298E+3
  -4.18198E+3   8.80797E+1
  -1.83533E+2  -1.96534E+3
  -9.40862E+1  -9.68623E+2
  -1.85272E+3  -3.97656E+3
   2.40069E+3  -6.03443E+3
   5.23541E+3  -2.05644E+3
   2.62910E+3  -1.20846E+3
   2.14796E+3   2.79114E+2
   1.44817E+3   3.22164E+3
  -5.79907E+3  -7.99061E+2
  -3.76599E+3  -3.70485E+3
   1.96370E+3  -4.27637E+3
   6.00125E+3  -2.76616E+2
   2.33690E+3  -1.36402E+3
   3.03377E+3   9.59947E+1
   4.02947E+3   1.86506E+3
   2.54346E+2   2.80048E+3
  -2.71764E+2   2.53043E+3
  -2.64045E+3  -7.73492E+2
  -1.23887E+3  -3.20945E+3
   3.34442E+3  -1.88778E+3
   2.88715E+3   2.20248E+3
  -8.63515E+2   2.80513E+3
  -1.24748E+3   2.72399E+3
  -2.07037E+3   2.43058E+3
  -3.16289E+3  -1.22899E+3
  -1.33150E+3  -3.80911E+3
   4.35433E+2  -4.54092E+3
   4.05557E+3  -1.54983E+3
   2.75842E+3  -9.33221E+2
   6.52781E+2   3.33081E+3
  -1.21132E+3   2.97257E+3
   1.92557E+2  -2.96667E+3
   1.49282E+3   1.51016E+3
  -8.22729E+2   4.20946E+3
  -5.90670E+3   2.57173E+3
  -2.76002E+3  -1.84659E+3
  -2.38424E+3  -5.41845E+2
  -1.63011E+3  -8.03899E+2
  -1.99043E+3  -1.23309E+3
  -2.36546E+3  -3.00556E+3
  -1.55775E+3  -1.84843E+3
   2.08019E+2  -2.12822E+2
   4.59748E+1  -1.37984E+3
  -2.16342E+2  -2.58336E+3
   8.82532E+2  -3.47020E+3
   3.76952E+3  -8.98132E+2
   4.87184E+3   1.16503E+2
   1.43388E+3   1.61811E+3
  -3.89948E+2  -7.41072E+2
   1.36268E+3   7.89067E+2
   1.96613E+3   4.79933E+1
  -1.36385E+3  -2.66934E+2
  -3.04320E+3   1.33684E+3
  -1.50057E+3  -3.90740E+3
   2.64802E+3  -2.16801E+3
   2.63327E+3   4.65369E+2
  -1.29220E+1   1.75282E+3
  -1.46223E+3   1.25992E+1
  -2.62642E+2   2.23347E+3
  -2.98881E+2   2.14853E+3
  -1.75930E+3   1.82695E+3
  -3.40130E+3  -3.12226E+2
  -6.27586E+2  -1.49981E+3
   2.01106E+3  -1.04662E+3
   1.46119E+3  -1.01231E+3
  -3.46922E+3   5.79548E+2
  -2.26168E+3  -2.00592E+3
  -1.52085E+3  -4.46133E+3
   1.26415E+3  -2.85559E+3
   1.41162E+3   3.25232E+3
   8.76543E+2   1.96494E+3
  -2.83435E+3   3.57734E+2
   1.86857E+2  -3.68356E+2
  -3.53513E+2   2.18963E+2
  -1.87060E+3   1.07839E+3
  -3.31441E+3  -2.27894E+3
   2.59812E+1  -2.85378E+3
   4.53087E+3  -3.14537E+3
   1.09555E+3   1.29919E+2
   9.57373E+2   2.09127E+3
  -2.77871E+2  -5.71365E+2
   2.66952E+2   7.41347E+2
  -3.58119E+3   1.13207E+3
  -1.82137E+3  -1.74128E+3
   3.22562E+2  -1.30089E+3
   1.02848E+3  -3.12188E+3
   1.77450E+3  -2.60894E+3
  -1.64667E+3   1.44525E+2
  -1.29293E+3   1.35976E+3
  -9.16557E+2   2.52485E+2
   3.38219E+3  -2.65656E+3
   6.23827E+2  -7.92353E+2
  -5.65228E+2   5.89588E+2
   3.18932E+2  -3.05596E+2
   1.86806E+2  -5.99583E+1
   4.15354E+2  -3.54807E+2
  -1.05167E+2  -8.60330E+2
  -3.61208E+3  -7.96697E+2
  -8.17074E+2  -2.09809E+3
   1.97776E+3   1.42858E+3
   1.77517E+3   7.32834E+2
  -1.97930E+3   3.21876E+3
  -3.07123E+3   6.98776E+2
  -2.05127E+3  -6.08603E+2
  -2.81547E+2   7.36859E+2
   4.37046E+2  -1.06542E+3
   1.56617E+2  -7.85459E+2
  -1.28901E+3  -4.00538E+2
   1.42553E+3  -2.27397E+3
   3.04182E+3  -1.76088E+3
   1.37374E+3  -1.57866E+3
  -1.36804E+3   5.39317E+2
   7.53542E+2  -1.55848E+3
   1.16258E+3  -1.19557E+3
  -4.72616E+2  -3.51557E+2
  -5.64190E+2  -1.89028E+3
   5.71897E+2   1.69545E+3
  -2.84110E+3   7.77667E+2
  -7.74182E+2   1.10338E+3
  -1.25920E+3   4.04587E+2
   1.56400E+2  -1.25347E+3
   1.30890E+3  -1.24197E+3
   1.24801E+3   2.53156E+3
  -1.06588E+3   2.33374E+2
   1.05130E+3   1.31458E+3
   3.22437E+0   7.31634E+2
   6.92751E+2   1.29781E+3
  -2.46761E+3  -2.46095E+2
  -8.39940E+2  -6.74058E+2
   2.44519E+3   2.40180E+2
   1.42535E+3   7.09182E+2
  -6.06363E+2  -4.94474E+1
  -5.04017E+2   7.06248E+2
   2.05602E+3   2.09127E+3
   6.30630E+2  -2.09197E+3
   9.91538E+2   8.12791E+2
  -8.66914E+2   2.65639E+3
  -8.49289E+1  -6.09795E+2
  -2.91494E+2  -1.15273E+3
  -1.06922E+3   4.27411E+2
  -6.42967E+2   5.38751E+2
   7.07292E+2  -5.43820E+2
  -1.12529E+1   1.45175E+3
   2.14987E+3   7.51162E+2
   1.59360E+3   2.43652E+3
   3.66994E+2   1.68267E+3
  -4.83092E+2   1.56920E+3
  -1.69321E+3   5.81182E+2
   4.75615E+2  -2.39614E+3
   3.46067E+3  -2.13551E+2
   1.69422E+2   7.79247E+2
   1.40849E+3  -6.24981E+2
   2.46267E+2   3.73169E+2
  -1.20031E+3   1.46601E+3
  -5.89378E+2   1.98701E+3
  -3.86357E+2  -3.48684E+2
   4.73259E+2   5.89672E+2
  -9.08806E+2  -1.20416E+3
   1.10118E+3  -3.62094E+2
   5.71391E+2   2.08564E+3
   4.53415E+2   2.64260E+3
  -7.69212E+0  -6.34754E+2
   1.00398E+3   1.04640E+3
   1.96080E+3   2.89132E+3
   8.33296E+2   7.48870E+2
   1.57337E+3  -1.45621E+3
   2.66428E+3   2.32181E+3
  -7.57921E+2   2.51041E+3
  -1.26312E+3   7.52637E+2
  -1.83114E+3  -5.76885E+2
  -6.67900E+2  -3.59162E+2
   2.73963E+3  -1.31942E+2
   4.48678E+2   1.40445E+3
   7.86512E+2   2.17635E+3
  -3.21165E+2   1.05191E+3
   2.16704E+2   6.63688E+2
  -2.06253E+2   1.02732E+3
  -2.98049E+2   1.68774E+3
  -4.61409E+2  -1.23283E+3
   1.82643E+3  -3.28185E+0
   1.96445E+3   6.67967E+2
   5.62505E+2   8.01175E+2
  -2.25197E+3   1.77853E+3
   1.51387E+3  -1.21396E+3
  -1.07822E+3  -3.12009E+2
   1.72761E+3   4.90727E+2
   8.34611E+2  -4.55461E+2
   1.88410E+2   1.28851E+3
   9.43907E+2   2.50603E+2
  -5.20045E+1   1.72549E+2
  -9.28089E+2   9.91975E+2
  -5.79701E+2   5.57978E+2
   2.04750E+3  -3.63275E+2
   2.23081E+3   3.26004E+2
   5.99309E+2   1.29416E+3
  -1.58907E+3   1.08929E+3
  -3.27924E+3   8.60643E+2
   5.64180E+2  -1.35248E+3
  -1.99100E+3   1.88145E+3
  -1.13030E+3  -6.16707E+2
   7.73508E+2  -8.88319E+2
   1.10199E+3  -1.37385E+3
   1.97444E+3  -5.44671E+2
   3.20364E+2   9.57139E+2
   1.69230E+3   2.11250E+2
  -1.13376E+3   8.00878E+2
   9.98369E+2  -7.14844E+2
  -2.13288E+2   3.28895E+2
   7.48353E+1  -3.61472E+2
   1.01912E+3   2.23187E+3
   3.17908E+2   8.70933E+1
  -1.29554E+3   1.61354E+3
  -5.73698E+2   1.56173E+3
  -7.39816E+2  -8.04279E+2
   3.84259E+2  -1.05196E+3
  -1.60570E+2   1.12008E+3
   2.57039E+3   5.13005E+2
   2.86030E+2   1.16899E+3
   8.19850E+1   7.41133E+2
  -1.50965E+3   1.90493E+2
  -5.34162E+2  -1.70933E+3
  -2.59837E+1  -1.77135E+2
   7.09860E+2  -7.19052E+2
   1.22191E+3   6.27928E+2
   8.44448E+2  -3.57403E+2
   1.70235E+3   1.04537E+3
  -6.07643E+2   1.12631E+1
  -8.01207E+2  -9.62726E+2
  -3.28727E+2  -1.92446E+2
  -2.21627E+2   1.84132E+3
   5.32631E+2  -7.16723E+2
   4.55508E+2   7.48170E+2
   1.41654E+3   1.57981E+3
  -2.93997E+2  -1.00124E+3
  -2.45014E+2  -1.33067E+2
  -1.10489E+3  -1.08595E+2
  -1.07624E+3  -2.28942E+3
   1.51284E+3  -1.32411E+2
   2.34167E+2   3.20987E+1
  -2.51227E+3   1.73302E+3
  -1.13505E+3  -6.86027E+2
  -2.16835E+3  -3.12807E+2
   2.38147E+2  -1.37547E+3
   1.67070E+3  -3.78044E+2
  -5.68983E+2  -6.12422E+2
   1.99543E+2  -1.05342E+3
   1.30592E+3   7.61835E+2
  -4.94626E+2  -1.11127E+3
   7.95892E+2   8.65022E+2
  -2.12154E+3   7.76258E+2
  -2.24400E+2  -6.31941E+2
   2.11314E+3  -1.44488E+3
   1.69781E+3   5.23176E+2
  -1.30882E+3  -4.64050E+2
  -8.87525E+2   4.94464E+1
   4.60606E+2  -5.60801E+2
   1.33279E+3  -1.07857E+3
   3.65287E+2  -1.90386E+3
  -4.12967E+2  -2.52468E+2
   5.21952E+2  -7.39648E+2
  -1.27668E+3   3.98753E+2
  -2.06609E+3   5.41951E+2
  -1.08850E+3   1.31048E+3
  -1.95324E+3  -2.06957E+3
   4.78017E+2  -1.10578E+3
  -4.79555E+2   5.41617E+2
   1.40573E+3   3.59321E+2
   5.96366E+2   9.69026E+1
  -9.41666E+2   6.17965E+2
   3.34878E+2   1.90097E+3
  -3.51562E+2   1.10334E+3
  -7.47966E+2  -2.27260E+2
   2.11638E+2  -7.34159E+1
  -5.80572E+2  -6.29559E+2
  -3.77981E+2  -4.61944E+2
   4.99693E+1   2.17636E+2
   1.63709E+2   1.33304E+3
  -1.40016E+3   2.45732E+2
   7.50879E+1  -1.63613E+2
  -7.56346E+2  -2.79354E+2
   1.84988E+3  -3.72195E+2
  -1.13854E+3   1.19962E+3
  -3.84016E+2   9.17279E+2
  -1.80312E+3  -1.21873E+3
  -1.32178E+3   1.98898E+2
  -2.26518E+2  -2.03652E+2
  -9.52449E+2  -1.01182E+3
  -5.10018E+2  -7.32430E+2
   6.98208E+2   6.15368E+2
   4.07448E+2  -7.02523E+2
   1.52034E+3   1.00927E+3
  -4.34768E+2   9.63108E+1
  -4.99432E+2   2.72540E+3
  -5.01111E+2  -9.12804E+1
   8.97681E+2   1.72018E+3
  -8.45659E+2  -3.58867E+2
   3.18175E+2   1.62713E+3
   7.30827E+2   6.32937E+2
   1.04293E+3   4.12343E+2
  -1.22842E+3  -1.18676E+2
   2.73065E+2  -2.07853E+3
   1.70836E+3   6.60852E+2
   2.93778E+2   9.91542E+2
   3.91327E+2  -1.06121E+3
   7.29475E+2   2.11522E+2
   5.31814E+2   8.59619E+2
   1.45095E+2   2.86456E+3
  -6.58641E+2   6.04748E+2
   1.54544E+2   2.54808E+2
  -7.77149E+2  -9.57936E+2
   1.47647E+3   1.56459E+2
  -4.31584E+2   5.81617E+2
  -1.14684E+2   4.39666E+2
  -1.20735E+2  -3.91629E+2
  -4.03636E+2   1.32371E+3
  -1.81976E+2  -2.63476E+3
  -6.87712E+1  -8.36143E+2
   6.39010E+2   4.34858E+2
  -4.38988E+2   3.05651E+2
  -3.76754E+2  -5.69621E+2
  -1.91242E+3  -4.31074E+2
   9.23811E+2  -1.26998E+3
   3.58043E+2  -1.99653E+3
  -3.42693E+2  -3.07958E+2
   7.85504E+2   6.11555E+2
  -1.40766E+3  -6.65787E+2
  -4.04701E+2  -3.49164E+2
  -5.09457E+2   1.24193E+3
  -6.07876E+2  -1.06717E+2
  -4.98077E+2  -1.23022E+3
  -8.08196E+2   8.65012E+2
   8.93823E+2  -1.84626E+3
  -2.03300E+2  -9.87879E+2
  -8.85931E+2   5.80392E+2
