 LCModel (Version 6.3-1N) Copyright: S.W. Provencher.          Ref.: Magn. Reson. Med. 30:672-679 (1993).                
 Slice_N1@24_17  02-Jun-2023 14:37:42
 27 lines in following concentration table = NCONC+1
    Conc.  %SD /Cr+PCr  Metabolite                                         
 9.29E-07  37% 1.4E-04 Mac                                                 
 2.71E-02  38%   4.160 Cr                                                  
 2.50E-02  41%   3.840 PCr                                                 
 9.78E-02  16%  14.999 Ins                                                 
 7.22E-02  14%  11.078 NAA                                                 
 9.25E-02  20%  14.187 Tau                                                 
 2.93E-03 101%   0.449 PCho                                                
    0.000 999%   0.000 GPC                                                 
 9.74E-02  15%  14.931 Glu                                                 
 2.81E-02  30%   4.315 Gln                                                 
    0.000 999%   0.000 Ala                                                 
 7.75E-03 220%   1.189 Asc                                                 
 5.53E-03  49%   0.848 Asp                                                 
 4.11E-03  39%   0.630 GABA                                                
 4.05E-03  40%   0.621 Glc                                                 
 1.08E-02  37%   1.649 GSH                                                 
    0.000 999%   0.000 Lac                                                 
    0.000 999%   0.000 NAAG                                                
    0.000 999%   0.000 PE                                                  
 2.93E-03 101%   0.449 GPC+PCho                                            
 7.22E-02  14%  11.078 NAA+NAAG                                            
    0.125  14%  19.246 Glu+Gln                                             
 5.22E-02  18%   8.000 Cr+PCr                                              
 7.22E-02  14%  11.078 NAA+NAAG                                            
 5.22E-02  18%   8.000 Cr+PCr                                              
    0.125  14%  19.246 Glu+Gln                                             
   6 lines in following misc. output table
  FWHM = 0.070 ppm    S/N =   1                                            
  Data shift =-0.006 ppm                                                   
  Ph:  46 deg      -3.4 deg/ppm                                            
  alphaB,S = 3.1E+01,   5.6E+01                                            
   15 spline knots.   Ns =10(2)                                            
   4 inflections.     2 extrema                                            
  654 points on ppm-axis = NY
      4.000000     3.994181     3.988363     3.982544     3.976726     3.970907     3.965088     3.959270     3.953451     3.947633
      3.941814     3.935995     3.930177     3.924358     3.918540     3.912721     3.906902     3.901084     3.895265     3.889446
      3.883628     3.877809     3.871991     3.866172     3.860353     3.854535     3.848716     3.842898     3.837079     3.831260
      3.825442     3.819623     3.813805     3.807986     3.802167     3.796349     3.790530     3.784712     3.778893     3.773074
      3.767256     3.761437     3.755619     3.749800     3.743981     3.738163     3.732344     3.726526     3.720707     3.714888
      3.709070     3.703251     3.697433     3.691614     3.685795     3.679977     3.674158     3.668339     3.662521     3.656702
      3.650884     3.645065     3.639246     3.633428     3.627609     3.621791     3.615972     3.610153     3.604335     3.598516
      3.592698     3.586879     3.581060     3.575242     3.569423     3.563605     3.557786     3.551967     3.546149     3.540330
      3.534512     3.528693     3.522874     3.517056     3.511237     3.505419     3.499600     3.493781     3.487963     3.482144
      3.476326     3.470507     3.464688     3.458870     3.453051     3.447232     3.441414     3.435595     3.429777     3.423958
      3.418139     3.412321     3.406502     3.400684     3.394865     3.389046     3.383228     3.377409     3.371591     3.365772
      3.359953     3.354135     3.348316     3.342498     3.336679     3.330860     3.325042     3.319223     3.313405     3.307586
      3.301767     3.295949     3.290130     3.284312     3.278493     3.272674     3.266856     3.261037     3.255219     3.249400
      3.243581     3.237763     3.231944     3.226125     3.220307     3.214488     3.208670     3.202851     3.197032     3.191214
      3.185395     3.179577     3.173758     3.167939     3.162121     3.156302     3.150484     3.144665     3.138846     3.133028
      3.127209     3.121391     3.115572     3.109753     3.103935     3.098116     3.092298     3.086479     3.080660     3.074842
      3.069023     3.063205     3.057386     3.051567     3.045749     3.039930     3.034111     3.028293     3.022474     3.016656
      3.010837     3.005018     2.999200     2.993381     2.987563     2.981744     2.975925     2.970107     2.964288     2.958470
      2.952651     2.946832     2.941014     2.935195     2.929377     2.923558     2.917739     2.911921     2.906102     2.900284
      2.894465     2.888646     2.882828     2.877009     2.871191     2.865372     2.859553     2.853735     2.847916     2.842098
      2.836279     2.830460     2.824642     2.818823     2.813004     2.807186     2.801367     2.795549     2.789730     2.783911
      2.778093     2.772274     2.766456     2.760637     2.754818     2.749000     2.743181     2.737363     2.731544     2.725725
      2.719907     2.714088     2.708270     2.702451     2.696632     2.690814     2.684995     2.679177     2.673358     2.667539
      2.661721     2.655902     2.650084     2.644265     2.638446     2.632628     2.626809     2.620991     2.615172     2.609353
      2.603535     2.597716     2.591897     2.586079     2.580260     2.574442     2.568623     2.562804     2.556986     2.551167
      2.545349     2.539530     2.533711     2.527893     2.522074     2.516256     2.510437     2.504618     2.498800     2.492981
      2.487163     2.481344     2.475525     2.469707     2.463888     2.458070     2.452251     2.446432     2.440614     2.434795
      2.428977     2.423158     2.417339     2.411521     2.405702     2.399884     2.394065     2.388246     2.382428     2.376609
      2.370790     2.364972     2.359153     2.353335     2.347516     2.341697     2.335879     2.330060     2.324242     2.318423
      2.312604     2.306786     2.300967     2.295149     2.289330     2.283511     2.277693     2.271874     2.266056     2.260237
      2.254418     2.248600     2.242781     2.236963     2.231144     2.225325     2.219507     2.213688     2.207870     2.202051
      2.196232     2.190414     2.184595     2.178777     2.172958     2.167139     2.161321     2.155502     2.149683     2.143865
      2.138046     2.132228     2.126409     2.120590     2.114772     2.108953     2.103135     2.097316     2.091497     2.085679
      2.079860     2.074042     2.068223     2.062404     2.056586     2.050767     2.044949     2.039130     2.033311     2.027493
      2.021674     2.015856     2.010037     2.004218     1.998400     1.992581     1.986763     1.980944     1.975126     1.969307
      1.963489     1.957670     1.951852     1.946033     1.940215     1.934397     1.928578     1.922760     1.916941     1.911123
      1.905304     1.899486     1.893667     1.887849     1.882030     1.876212     1.870393     1.864575     1.858756     1.852938
      1.847119     1.841301     1.835482     1.829664     1.823845     1.818027     1.812208     1.806390     1.800571     1.794753
      1.788934     1.783116     1.777297     1.771479     1.765660     1.759842     1.754023     1.748205     1.742386     1.736568
      1.730749     1.724931     1.719113     1.713294     1.707476     1.701657     1.695839     1.690020     1.684202     1.678383
      1.672565     1.666746     1.660928     1.655109     1.649291     1.643472     1.637654     1.631835     1.626017     1.620198
      1.614380     1.608561     1.602743     1.596924     1.591106     1.585287     1.579469     1.573650     1.567832     1.562013
      1.556195     1.550376     1.544558     1.538739     1.532921     1.527102     1.521284     1.515465     1.509647     1.503829
      1.498010     1.492192     1.486373     1.480555     1.474736     1.468918     1.463099     1.457281     1.451462     1.445644
      1.439825     1.434007     1.428188     1.422370     1.416551     1.410733     1.404914     1.399096     1.393277     1.387459
      1.381640     1.375822     1.370003     1.364185     1.358366     1.352548     1.346729     1.340911     1.335092     1.329274
      1.323455     1.317637     1.311818     1.306000     1.300182     1.294363     1.288545     1.282726     1.276908     1.271089
      1.265271     1.259452     1.253634     1.247815     1.241997     1.236178     1.230360     1.224541     1.218723     1.212904
      1.207086     1.201267     1.195449     1.189630     1.183812     1.177993     1.172175     1.166356     1.160538     1.154719
      1.148901     1.143082     1.137264     1.131445     1.125627     1.119808     1.113990     1.108171     1.102353     1.096534
      1.090716     1.084898     1.079079     1.073261     1.067442     1.061624     1.055805     1.049987     1.044168     1.038350
      1.032531     1.026713     1.020894     1.015076     1.009257     1.003439     0.997620     0.991802     0.985983     0.980165
      0.974346     0.968528     0.962709     0.956891     0.951072     0.945254     0.939435     0.933617     0.927798     0.921980
      0.916161     0.910343     0.904524     0.898706     0.892887     0.887069     0.881251     0.875432     0.869614     0.863795
      0.857977     0.852158     0.846340     0.840521     0.834703     0.828884     0.823066     0.817247     0.811429     0.805610
      0.799792     0.793973     0.788155     0.782336     0.776518     0.770699     0.764881     0.759062     0.753244     0.747425
      0.741607     0.735788     0.729970     0.724151     0.718333     0.712514     0.706696     0.700877     0.695059     0.689240
      0.683422     0.677603     0.671785     0.665967     0.660148     0.654330     0.648511     0.642693     0.636874     0.631056
      0.625237     0.619419     0.613600     0.607782     0.601963     0.596145     0.590326     0.584508     0.578689     0.572871
      0.567052     0.561234     0.555415     0.549597     0.543778     0.537960     0.532141     0.526323     0.520504     0.514686
      0.508867     0.503049     0.497230     0.491412     0.485593     0.479775     0.473956     0.468138     0.462319     0.456501
      0.450682     0.444864     0.439045     0.433227     0.427408     0.421590     0.415771     0.409953     0.404134     0.398316
      0.392497     0.386679     0.380860     0.375042     0.369223     0.363405     0.357586     0.351767     0.345949     0.340130
      0.334312     0.328493     0.322675     0.316856     0.311038     0.305219     0.299401     0.293582     0.287764     0.281945
      0.276127     0.270308     0.264490     0.258671     0.252853     0.247034     0.241216     0.235397     0.229579     0.223760
      0.217942     0.212123     0.206305     0.200486
 NY phased data points follow
   4.55955E-02 -8.20373E-02  1.20259E-02  2.07434E-01  1.35338E-01 -2.48513E-01  1.09070E-02 -5.57864E-02 -1.50899E-02  1.41972E-01
   4.39591E-02 -1.94230E-01  2.08017E-01  2.86776E-01  4.30916E-01  2.77881E-01 -2.18379E-01 -7.02254E-02 -1.60228E-01 -1.07134E-01
   3.74676E-02 -5.93111E-02 -1.71303E-01  2.08454E-01 -1.61733E-01 -2.20005E-01  1.17266E-01 -1.02321E-01  6.50478E-02 -2.18809E-02
  -6.95268E-02 -1.59656E-01 -3.50637E-01 -2.38192E-01  4.22378E-02  8.38953E-02 -1.43279E-01 -2.06663E-02 -3.03405E-02 -1.85494E-01
  -8.93173E-03  1.41192E-01  2.42903E-01  2.24663E-01  1.27940E-01  1.37726E-02  5.88726E-02  7.44849E-02  3.14789E-01  2.36824E-01
   1.39133E-02  2.85586E-01 -3.89379E-02  1.71643E-02  8.04026E-02 -8.23194E-02  3.76301E-02  2.26011E-01  1.24275E-01 -1.18031E-01
  -3.79174E-02 -2.90775E-01 -1.09168E-01  8.08876E-02 -9.51630E-02 -3.42531E-02 -2.05914E-01 -3.09902E-01  4.45146E-02  1.52318E-01
  -1.10100E-01 -2.07174E-01  6.36271E-02 -1.15947E-01 -2.56500E-01 -3.21096E-02 -1.53112E-01  7.48772E-02  1.70202E-01  3.99451E-02
   1.37938E-02 -1.02705E-01 -1.81872E-01 -3.56976E-01 -2.60674E-01  2.12222E-01  4.83119E-02 -3.01767E-02  1.27940E-01  3.66193E-01
   2.51028E-01 -1.26307E-01  2.18774E-01 -2.41713E-02 -2.43822E-01 -1.03748E-01  1.14866E-02 -6.79074E-01 -3.50551E-01  2.68210E-01
  -2.86922E-01  4.76384E-02  8.42166E-02  8.75274E-02 -9.76286E-02  1.18112E-01  2.19719E-01 -1.37528E-01  3.93601E-01  4.43905E-01
  -1.04097E-02  4.04852E-01  5.34996E-01  3.02388E-01  4.47405E-01  5.69598E-01  6.51694E-01  8.13719E-02  3.22833E-01  3.85423E-01
   3.22815E-01  4.42827E-01  5.02097E-02  8.41702E-02  2.91428E-01  1.12453E-01 -2.70456E-02  3.82191E-03 -3.08164E-01 -1.10843E-01
  -6.43947E-01 -4.04010E-01 -2.09304E-01 -3.14774E-01  4.36719E-02 -4.67484E-01 -5.25100E-01 -5.33848E-01 -2.70358E-01 -3.15614E-01
  -2.24358E-01 -3.51601E-01 -1.06087E-01  7.52552E-02 -2.45372E-01  1.36374E-01  1.47615E-01  2.69380E-01 -2.46673E-01 -9.58661E-02
   1.99988E-01 -3.40310E-01  5.49799E-02  2.64036E-01  4.58598E-02  2.38524E-01  2.87155E-01  2.90616E-01  4.02246E-01  3.63346E-01
   5.10685E-01  3.74584E-01  4.98257E-01  6.30263E-01  2.54630E-01  6.24493E-01  5.09167E-01  1.18789E-01  1.74117E-01  1.51328E-02
   2.57475E-01 -2.95466E-01 -3.64983E-01 -1.23792E-01 -3.88085E-01 -7.27225E-02 -4.45318E-01 -3.65196E-01 -5.21991E-02 -1.56596E-02
   4.45051E-02 -9.11413E-02  6.47170E-04 -5.50718E-02 -3.43891E-01 -2.56941E-01  1.65749E-02 -3.19223E-01 -3.24493E-01 -2.64745E-01
  -3.64956E-01 -1.53217E-01 -1.36974E-01 -7.09637E-02 -5.07552E-02 -4.98490E-01 -3.72420E-01  1.60118E-01 -2.51375E-02  9.10881E-02
   1.78104E-01 -1.49414E-01 -2.13317E-01 -1.18043E-01  6.90421E-02 -1.00663E-01 -3.38384E-01 -1.89455E-01 -4.55994E-02 -2.02817E-01
  -1.61135E-01  1.18662E-01 -2.44193E-02 -8.29051E-02 -1.20208E-01 -9.48179E-02  1.77197E-01  9.64806E-02  5.56833E-02  1.10498E-01
   3.26659E-02  8.61451E-02  2.15018E-01  1.73026E-01  1.05901E-01 -8.09396E-02  3.16335E-01  4.53555E-01 -1.77426E-01  1.55138E-01
   2.65388E-01  7.16461E-02  2.54731E-01  1.22779E-01 -1.01716E-01  1.08698E-01  5.10961E-02 -2.13044E-01  2.24039E-02 -1.11835E-01
  -5.39408E-02  5.70686E-02  1.59587E-01  1.23067E-01 -2.90396E-01 -3.27175E-01 -3.61417E-01 -2.30818E-01 -1.38596E-01 -2.20867E-01
  -1.98671E-01 -1.32057E-01 -2.61973E-01 -1.03651E-01  4.68244E-02 -2.14145E-01  5.83115E-02  9.58370E-02 -2.78540E-03  1.06526E-01
   5.70902E-02  1.30698E-01 -3.13074E-03 -6.31703E-02  5.23154E-02  1.24453E-02 -2.40951E-02  3.03959E-03 -1.61338E-01  4.08651E-02
   1.77041E-01 -2.32634E-01  8.36808E-02  2.77262E-01 -7.14247E-02 -9.24075E-02  2.37272E-01  1.24346E-03 -3.12000E-01 -3.10439E-01
  -3.69480E-01  8.08800E-03 -1.47156E-01  1.93412E-01  5.32980E-02 -3.51941E-01  6.67697E-02  4.73213E-02  1.63755E-01  1.74264E-01
   1.14772E-01  1.17195E-01  4.23154E-01  1.59309E-01  2.82441E-01  2.14501E-01  1.11733E-01  2.75049E-01 -1.47757E-01  2.85950E-01
   2.67688E-01  3.84438E-01  1.38979E-01  2.45797E-01  4.79701E-01  3.64692E-01  5.01599E-01  5.35878E-01  5.04950E-01  9.36025E-02
   6.16572E-01  3.78513E-01  8.98378E-02  1.24089E-01  2.41334E-01  1.35253E-01 -4.62176E-02  2.30077E-01  9.60702E-02 -4.12025E-02
  -3.13887E-01 -1.50707E-01 -2.40497E-01 -7.89765E-02 -2.78502E-02 -8.44942E-02  6.17344E-03 -1.90923E-02 -3.29054E-01 -3.09569E-01
   7.37900E-02  2.18408E-02  2.43641E-01 -6.24702E-02 -1.29922E-01 -2.75204E-01 -4.65929E-01 -6.36173E-01 -4.89761E-01 -2.96929E-01
  -4.57530E-01 -5.20888E-01 -5.01882E-01 -5.53732E-01 -6.75656E-01 -4.54480E-01 -8.10395E-01 -1.58574E-01 -9.29543E-02 -1.37375E-01
  -1.27663E-01 -5.57246E-01  1.30110E-02  9.45703E-02  1.91401E-02 -1.28894E-01 -3.54782E-03 -3.21100E-01 -5.88710E-02  2.88150E-02
  -5.48187E-02  4.18284E-01  1.42715E-02  1.18465E-01  1.19281E-01 -1.64036E-01 -1.50221E-01 -1.75742E-01  4.77081E-02  8.36749E-02
  -4.21459E-02  1.82680E-01 -1.73195E-01  4.23361E-02  4.27130E-01  7.14304E-02  1.58746E-01  2.65512E-01  1.36378E-01  1.66699E-01
   4.57236E-01  3.00877E-02 -8.15473E-02  1.37830E-01  1.14479E-01  4.20781E-01  3.45715E-01  2.41887E-01  2.34709E-01 -5.48681E-02
   9.33229E-02  5.16661E-01  3.62942E-01  1.84181E-01  4.57968E-01  3.41111E-01  5.19653E-02  6.24183E-02 -6.83311E-02  2.56143E-03
  -3.76094E-02  9.97852E-02  2.06578E-01  3.08689E-01  2.18495E-01 -1.41436E-01  7.23036E-02  1.24430E-01  1.60836E-01 -2.31366E-01
  -1.57243E-01  1.82741E-01 -2.65237E-01 -1.50179E-01  1.57045E-01 -2.56952E-04  1.92006E-03 -4.71622E-02 -2.57907E-01 -2.24478E-01
  -2.91312E-01 -1.28105E-01  8.47883E-02 -1.84281E-01 -3.49068E-01 -1.74987E-01 -1.34456E-01 -2.21938E-01 -2.87090E-01 -3.42131E-02
  -8.07628E-02 -1.67327E-01 -7.78984E-02 -2.45605E-01 -1.05260E-02  3.00083E-01  3.48226E-01 -3.27282E-01 -1.73122E-01  2.91096E-01
  -5.89446E-02 -1.50219E-01 -7.70676E-02  1.52202E-01  7.77594E-02  2.03836E-01  1.81993E-01  4.72075E-02  4.44404E-02 -1.70146E-01
   2.16331E-02  2.66763E-01  4.02276E-01  1.39336E-01 -1.29435E-01  8.25530E-02  1.66523E-02  6.68718E-02  4.40361E-02  3.32897E-01
   1.96500E-01 -2.07507E-01  7.75923E-02 -2.37158E-01 -9.36126E-02 -1.41932E-01 -2.42659E-01 -1.78668E-01 -1.89242E-01 -2.12192E-01
  -1.31756E-01 -1.61235E-01 -3.34335E-01  3.58006E-01  5.61994E-02 -9.87656E-02 -1.85397E-01 -1.36137E-02  3.63101E-02 -2.00933E-01
  -8.10365E-02 -3.65321E-01  1.30171E-02  4.61857E-02  2.16282E-01  1.05916E-01 -9.82675E-02  9.65607E-03  3.02035E-01 -3.42277E-02
  -1.47604E-01  1.27909E-01 -2.12444E-01  3.48439E-01  8.42783E-02 -1.45875E-02  3.05071E-01  7.50079E-02 -2.16752E-01 -4.10104E-02
   1.66512E-01 -7.34625E-02 -1.06085E-01  5.09004E-02  1.82574E-01  5.07910E-02  2.91547E-01  6.12324E-02 -7.51629E-02 -7.01436E-03
   2.71914E-01  3.70944E-01  7.32711E-02  8.94559E-03 -8.76758E-02  1.70441E-01  2.22307E-02 -1.86373E-01  5.88964E-02  1.43721E-01
  -2.26697E-01  1.30784E-01  2.25497E-01 -1.63299E-01 -2.52370E-01 -2.32780E-01  1.25359E-01  2.35633E-03 -2.26932E-02  6.89907E-03
   1.69715E-01 -8.76204E-03 -3.63735E-01 -4.02584E-01 -4.20938E-01 -2.32842E-01 -1.10982E-01 -1.06646E-01 -3.28950E-01 -7.30270E-02
  -8.22799E-03 -1.49101E-01  4.43293E-02 -3.36186E-01 -3.25506E-01  5.63171E-02  8.07153E-02  6.18937E-02 -1.19219E-01  1.25122E-01
   9.56629E-02  2.93578E-02 -2.12119E-03  2.14622E-01  5.85183E-01 -2.50134E-01 -1.39892E-02  3.26969E-01  1.23802E-01  1.45586E-01
   4.24922E-02  2.15934E-01  6.16214E-02  1.70015E-01  3.82944E-01  1.61715E-01 -1.84058E-01 -6.12719E-02  6.79365E-02  2.04568E-01
  -9.25380E-02 -6.76967E-02  3.39953E-01  1.49199E-01  3.32390E-01 -7.50057E-02 -2.10831E-01 -1.07335E-01 -1.06060E-01 -7.33785E-02
  -2.28860E-01 -4.68293E-02 -4.85461E-02  1.05360E-01  6.27520E-02  2.09027E-01  1.54914E-01 -2.35161E-01  3.11012E-02  4.83150E-05
   1.60158E-02  1.61135E-01 -3.06116E-01 -8.91941E-02  3.11330E-01  1.68319E-01 -4.69999E-02 -1.66291E-01 -3.69698E-02 -7.97263E-02
  -1.79244E-02 -1.91363E-01  1.73296E-01  3.25223E-01  8.40324E-03 -9.50895E-04 -1.65389E-01  2.07325E-02 -1.59359E-01 -8.56467E-03
  -6.32102E-02 -2.45007E-01 -5.47135E-02 -2.68830E-01 -2.59461E-01  1.39678E-02 -9.13127E-02 -3.19199E-01  7.98622E-02  1.22899E-01
  -9.50218E-02 -2.81659E-01 -1.88556E-01 -1.48478E-01 -1.23352E-01 -4.14321E-02 -7.13941E-03  1.15955E-01 -2.02479E-01 -2.72553E-02
  -7.76568E-02 -6.62970E-02 -2.71288E-02 -6.73718E-03 -7.44274E-03 -2.80761E-01 -6.86013E-02 -1.94027E-01  9.55229E-02  9.38063E-02
  -1.77273E-01  2.54653E-01 -4.23710E-02  1.07362E-02  3.99958E-01 -4.79522E-02  2.06744E-01  1.22478E-01  6.91365E-04  3.58921E-01
  -4.65531E-02 -1.30777E-01  5.52719E-02  1.66324E-02
 NY points of the fit to the data follow
   5.66951E-02  4.81149E-02  4.95234E-02  4.34788E-02  6.85345E-02  6.21569E-02  1.01605E-01  9.56957E-02  1.35714E-01  1.32683E-01
   1.66210E-01  1.64985E-01  1.92121E-01  1.93363E-01  2.13584E-01  2.17930E-01  2.16435E-01  2.19601E-01  1.95199E-01  1.96470E-01
   1.55463E-01  1.48434E-01  1.01127E-01  8.95243E-02  4.66595E-02  2.77520E-02 -2.41241E-03 -2.36342E-02 -4.67802E-02 -6.67944E-02
  -8.91598E-02 -1.07476E-01 -1.25149E-01 -1.39287E-01 -1.40551E-01 -1.46404E-01 -1.18781E-01 -1.21099E-01 -6.92251E-02 -6.01405E-02
   3.73691E-03  1.91569E-02  8.73640E-02  1.07044E-01  1.60341E-01  1.83564E-01  2.12944E-01  2.13872E-01  2.25428E-01  1.99425E-01
   1.86618E-01  1.47808E-01  1.18231E-01  7.11459E-02  4.35081E-02 -1.72220E-02 -2.87072E-02 -9.19112E-02 -9.08280E-02 -1.31435E-01
  -1.21425E-01 -1.32609E-01 -1.35328E-01 -1.11832E-01 -1.26420E-01 -8.18217E-02 -1.00825E-01 -3.43286E-02 -6.01930E-02  1.87999E-02
  -3.00140E-02  4.07574E-02 -2.63477E-02  9.98164E-03 -5.44728E-02 -5.05094E-02 -9.14725E-02 -1.07664E-01 -1.10367E-01 -1.24755E-01
  -8.90295E-02 -9.50608E-02 -2.64507E-02 -2.75733E-02  5.83639E-02  6.34078E-02  1.49713E-01  1.44801E-01  2.09684E-01  1.81614E-01
   1.97049E-01  1.65340E-01  1.02310E-01  1.05492E-01 -2.35471E-02  3.62975E-02 -1.34077E-01 -8.09297E-03 -2.01455E-01 -1.17374E-02
  -2.16612E-01  2.27390E-02 -1.79241E-01  8.70207E-02 -1.02669E-01  1.56249E-01  1.62023E-02  2.16349E-01  1.30455E-01  2.79608E-01
   2.24350E-01  3.37244E-01  2.84516E-01  3.66777E-01  3.08129E-01  3.67157E-01  3.14833E-01  3.57983E-01  3.08044E-01  3.32252E-01
   2.77667E-01  2.61078E-01  2.06820E-01  1.32444E-01  8.96074E-02 -2.62829E-02 -5.08186E-02 -1.80544E-01 -1.82017E-01 -3.10638E-01
  -2.84791E-01 -4.03929E-01 -3.41791E-01 -4.40839E-01 -3.52532E-01 -4.17159E-01 -3.21568E-01 -3.50291E-01 -2.68560E-01 -2.64601E-01
  -2.08707E-01 -1.85069E-01 -1.50339E-01 -1.27802E-01 -1.03788E-01 -9.44766E-02 -7.16368E-02 -5.70760E-02 -9.13713E-03  9.99786E-03
   6.09263E-02  9.05030E-02  1.27515E-01  1.63196E-01  1.92668E-01  2.31201E-01  2.71350E-01  2.97845E-01  3.44489E-01  3.45416E-01
   3.74278E-01  3.50973E-01  3.52805E-01  3.17042E-01  2.94747E-01  2.52912E-01  2.08386E-01  1.62664E-01  9.50731E-02  5.64616E-02
  -2.39340E-02 -4.37346E-02 -1.20612E-01 -1.12742E-01 -1.65327E-01 -1.43958E-01 -1.73345E-01 -1.45649E-01 -1.49723E-01 -1.34234E-01
  -1.28413E-01 -1.31705E-01 -1.28936E-01 -1.43018E-01 -1.42895E-01 -1.56565E-01 -1.54525E-01 -1.60179E-01 -1.49709E-01 -1.44031E-01
  -1.20885E-01 -1.21937E-01 -1.05518E-01 -1.06422E-01 -9.29821E-02 -9.28191E-02 -8.13096E-02 -8.03144E-02 -7.05436E-02 -6.93644E-02
  -6.08392E-02 -5.96454E-02 -5.31952E-02 -5.26709E-02 -4.91037E-02 -5.23634E-02 -5.10201E-02 -5.34716E-02 -5.29726E-02 -5.53256E-02
  -5.85329E-02 -6.19519E-02 -6.34243E-02 -6.64800E-02 -6.39747E-02 -6.18024E-02 -5.67976E-02 -4.74715E-02 -4.12346E-02 -2.47061E-02
  -1.54336E-02  7.05620E-03  1.86176E-02  4.58261E-02  5.55771E-02  8.43826E-02  8.79026E-02  1.13044E-01  1.08716E-01  1.26901E-01
   1.14595E-01  1.24353E-01  1.03902E-01  1.07331E-01  8.10430E-02  7.82834E-02  4.96436E-02  4.10395E-02  1.87340E-02  9.35061E-03
  -1.10430E-02 -1.87465E-02 -3.50919E-02 -4.04998E-02 -5.59659E-02 -6.20496E-02 -7.79453E-02 -8.35664E-02 -1.02860E-01 -9.87272E-02
  -1.24171E-01 -1.07626E-01 -1.36908E-01 -1.07670E-01 -1.32084E-01 -9.37376E-02 -1.15219E-01 -6.87847E-02 -8.89215E-02 -3.44549E-02
  -5.32839E-02  6.67139E-03 -9.50226E-03  4.55469E-02  3.27902E-02  7.16066E-02  5.18791E-02  7.46568E-02  4.24547E-02  5.95041E-02
   1.76984E-02  2.51239E-02 -1.80205E-02 -3.02862E-02 -7.13954E-02 -1.00978E-01 -1.34466E-01 -1.66244E-01 -1.83542E-01 -2.02980E-01
  -2.00112E-01 -1.97679E-01 -1.78518E-01 -1.55350E-01 -1.20546E-01 -7.96471E-02 -3.32211E-02  1.44783E-02  6.82955E-02  1.09103E-01
   1.57065E-01  1.82805E-01  2.12959E-01  2.24611E-01  2.34626E-01  2.37462E-01  2.32743E-01  2.36420E-01  2.26132E-01  2.38449E-01
   2.31727E-01  2.50121E-01  2.48765E-01  2.63064E-01  2.62798E-01  2.61894E-01  2.55211E-01  2.37649E-01  2.18866E-01  1.93069E-01
   1.65701E-01  1.34884E-01  1.03888E-01  6.81836E-02  3.12412E-02 -4.52477E-03 -4.78673E-02 -7.60026E-02 -1.22570E-01 -1.34591E-01
  -1.79010E-01 -1.68072E-01 -1.71551E-01 -1.54873E-01 -1.43948E-01 -1.34161E-01 -1.17939E-01 -1.22324E-01 -8.53276E-02 -1.14813E-01
  -5.22667E-02 -1.17967E-01 -6.67746E-02 -1.59802E-01 -1.52663E-01 -2.42928E-01 -2.84196E-01 -3.36329E-01 -4.13230E-01 -4.05567E-01
  -5.16378E-01 -4.44238E-01 -5.83633E-01 -4.57544E-01 -5.93973E-01 -4.41017E-01 -5.40096E-01 -3.91694E-01 -4.30869E-01 -3.12016E-01
  -3.15001E-01 -2.27814E-01 -2.09787E-01 -1.48775E-01 -1.48464E-01 -9.99483E-02 -1.27074E-01 -8.01093E-02 -1.14542E-01 -6.84488E-02
  -8.93546E-02 -4.95077E-02 -4.65083E-02 -1.96017E-02  1.50177E-03  1.08222E-02  1.45640E-02  1.82425E-02  2.13925E-02  2.35980E-02
   2.70228E-02  2.86486E-02  3.19395E-02  3.33908E-02  3.61475E-02  3.74800E-02  3.97616E-02  4.07678E-02  4.29763E-02  4.35767E-02
   4.61030E-02  4.65181E-02  4.92883E-02  4.98661E-02  5.24290E-02  5.34227E-02  5.53101E-02  5.66426E-02  5.77844E-02  5.92416E-02
   5.97654E-02  6.11701E-02  6.11482E-02  6.22403E-02  6.17281E-02  6.22587E-02  6.12730E-02  6.12250E-02  5.96916E-02  5.91105E-02
   5.70227E-02  5.59939E-02  5.34611E-02  5.20678E-02  4.92096E-02  4.75620E-02  4.45489E-02  4.26770E-02  3.96996E-02  3.75869E-02
   3.47838E-02  3.24745E-02  2.99633E-02  2.75897E-02  2.53758E-02  2.30587E-02  2.10795E-02  1.89387E-02  1.72401E-02  1.53718E-02
   1.40456E-02  1.24952E-02  1.16001E-02  1.03544E-02  9.91318E-03  8.99985E-03  8.99604E-03  8.47138E-03  8.88435E-03  8.80310E-03
   9.62387E-03  1.00872E-02  1.12493E-02  1.23296E-02  1.38553E-02  1.56047E-02  1.75958E-02  2.00801E-02  2.26910E-02  2.58804E-02
   2.90872E-02  3.28040E-02  3.64787E-02  4.04696E-02  4.43627E-02  4.83684E-02  5.20423E-02  5.58171E-02  5.89027E-02  6.21392E-02
   6.42944E-02  6.67409E-02  6.77441E-02  6.92566E-02  6.90778E-02  6.95363E-02  6.82169E-02  6.75923E-02  6.53794E-02  6.37189E-02
   6.09523E-02  5.83835E-02  5.52953E-02  5.20152E-02  4.88429E-02  4.51536E-02  4.20794E-02  3.83250E-02  3.55381E-02  3.19802E-02
   2.95830E-02  2.64877E-02  2.45705E-02  2.21297E-02  2.08251E-02  1.90990E-02  1.84706E-02  1.74965E-02  1.74856E-02  1.72233E-02
   1.77313E-02  1.80432E-02  1.89007E-02  1.96230E-02  2.06348E-02  2.15944E-02  2.25129E-02  2.35683E-02  2.41884E-02  2.51403E-02
   2.54662E-02  2.61777E-02  2.61940E-02  2.65957E-02  2.63275E-02  2.64124E-02  2.58474E-02  2.56032E-02  2.47845E-02  2.42395E-02
   2.33045E-02  2.25178E-02  2.16375E-02  2.06863E-02  1.98604E-02  1.87979E-02  1.79509E-02  1.68152E-02  1.58091E-02  1.45584E-02
   1.32799E-02  1.17463E-02  9.94352E-03  7.96227E-03  5.46052E-03  2.80835E-03 -5.75924E-04 -3.98461E-03 -8.35111E-03 -1.24705E-02
  -1.77865E-02 -2.24631E-02 -2.85133E-02 -3.35376E-02 -3.99077E-02 -4.49909E-02 -5.11802E-02 -5.59395E-02 -6.14752E-02 -6.55673E-02
  -7.00950E-02 -7.32546E-02 -7.65578E-02 -7.86748E-02 -8.07075E-02 -8.17101E-02 -8.25618E-02 -8.24789E-02 -8.23637E-02 -8.12522E-02
  -8.02556E-02 -7.83494E-02 -7.65057E-02 -7.40018E-02 -7.13788E-02 -6.83978E-02 -6.51566E-02 -6.18099E-02 -5.80677E-02 -5.45620E-02
  -5.04348E-02 -4.70028E-02 -4.27203E-02 -3.95040E-02 -3.53928E-02 -3.24034E-02 -2.86311E-02 -2.58682E-02 -2.25764E-02 -2.00434E-02
  -1.72233E-02 -1.49378E-02 -1.25564E-02 -1.05492E-02 -8.56800E-03 -6.80425E-03 -5.14377E-03 -3.64965E-03 -2.26393E-03 -1.02918E-03
   1.87079E-04  1.26012E-03  2.29235E-03  3.20103E-03  4.05871E-03  4.80594E-03  5.52068E-03  6.07448E-03  6.69764E-03  7.11640E-03
   7.62044E-03  7.91073E-03  8.30051E-03  8.44493E-03  8.73115E-03  8.82738E-03  9.02849E-03  9.14673E-03  9.25413E-03  9.42070E-03
   9.38388E-03  9.58185E-03  9.45960E-03  9.69061E-03  9.52845E-03  9.81895E-03  9.69450E-03  1.00386E-02  1.00163E-02  1.03805E-02
   1.05386E-02  1.09549E-02  1.13129E-02  1.16114E-02  1.22187E-02  1.23494E-02  1.32077E-02  1.32165E-02  1.42764E-02  1.42172E-02
   1.53760E-02  1.52892E-02  1.65583E-02  1.64808E-02  1.78535E-02  1.78246E-02  1.92451E-02  1.94242E-02  2.08284E-02  2.12121E-02
   2.25441E-02  2.31435E-02  2.43834E-02  2.51279E-02  2.62898E-02  2.70973E-02  2.82259E-02  2.90052E-02  3.00801E-02  3.08204E-02
   3.19099E-02  3.26962E-02  3.38369E-02  3.47360E-02  3.59665E-02  3.69836E-02  3.82718E-02  3.94748E-02  4.08084E-02  4.22917E-02
   4.37019E-02  4.54868E-02  4.70200E-02  4.90737E-02  5.07157E-02  5.30066E-02  5.47544E-02  5.73784E-02  5.92742E-02  6.22030E-02
   6.41835E-02  6.73307E-02  6.93714E-02  7.26801E-02
 NY background values follow
     8.378E-02    8.349E-02    8.320E-02    8.290E-02    8.261E-02    8.232E-02    8.202E-02    8.173E-02    8.144E-02    8.114E-02
     8.085E-02    8.056E-02    8.026E-02    7.997E-02    7.968E-02    7.938E-02    7.909E-02    7.880E-02    7.850E-02    7.821E-02
     7.792E-02    7.762E-02    7.733E-02    7.704E-02    7.674E-02    7.645E-02    7.616E-02    7.586E-02    7.557E-02    7.528E-02
     7.498E-02    7.469E-02    7.440E-02    7.410E-02    7.381E-02    7.352E-02    7.322E-02    7.293E-02    7.264E-02    7.234E-02
     7.205E-02    7.176E-02    7.146E-02    7.117E-02    7.088E-02    7.059E-02    7.029E-02    7.000E-02    6.971E-02    6.941E-02
     6.912E-02    6.883E-02    6.853E-02    6.824E-02    6.795E-02    6.765E-02    6.736E-02    6.707E-02    6.677E-02    6.648E-02
     6.619E-02    6.589E-02    6.560E-02    6.531E-02    6.501E-02    6.472E-02    6.443E-02    6.413E-02    6.384E-02    6.355E-02
