 
 $NMID
 ID=''
 FMTDAT='(2E13.5)'
 TRAMP=   1.00000E+0
 VOLUME=   1.00000E+0
 $END
   2.92952E+2   3.86692E+2
   6.29646E+2   2.22072E+3
   1.99713E+3  -1.78422E+3
   1.37294E+3  -2.42226E+3
  -2.12717E+3  -1.37456E+3
  -7.29485E+2   5.26998E+2
   1.11034E+3   3.21523E+3
  -3.76042E+2   2.39377E+3
   2.24934E+3   7.77896E+1
   2.29803E+3  -1.31104E+3
   3.06742E+3  -4.95457E+3
   6.48159E+3  -2.36803E+3
   1.80633E+2   2.31100E+3
  -6.90812E+3  -1.35845E+2
  -5.97480E+3  -1.73726E+3
  -1.74254E+2  -2.02992E+3
   2.81424E+3   3.19474E+3
   2.23723E+3   7.44327E+3
  -2.49535E+3   3.64831E+3
   2.76894E+3   3.35913E+2
   6.78905E+3  -1.69411E+3
   4.68890E+3   3.09701E+3
  -2.80432E+3   3.05554E+2
  -2.86955E+3  -5.13382E+3
  -4.93667E+2  -6.66159E+3
  -1.31703E+3   2.38261E+3
  -5.12745E+3   4.37740E+3
  -6.97989E+3  -7.81335E+2
  -2.97942E+3  -2.46060E+3
   3.82913E+3   5.70502E+2
   4.38437E+3   6.65113E+3
  -2.93325E+3   7.13456E+3
  -6.30272E+3  -9.49846E+2
  -9.32154E+2  -2.30763E+3
  -3.53606E+2  -2.02256E+3
  -1.82120E+3  -4.06780E+3
   2.26470E+3  -4.69992E+3
   3.92209E+3   5.13776E+2
   8.04460E+1   1.29559E+3
   1.83430E+3  -1.48833E+3
  -2.38202E+3   1.23980E+3
  -7.02619E+3  -1.89902E+3
  -4.89173E+3  -8.57846E+3
   1.21303E+3  -6.95852E+3
   1.07215E+2   1.33551E+3
   7.18126E+2  -5.91243E+2
   1.64917E+3  -5.35238E+2
   2.42905E+3   5.15893E+3
  -1.21204E+2   4.65822E+3
   2.05457E+3   2.41937E+3
   2.29447E+2   8.21487E+2
   3.53791E+3  -2.60776E+3
   5.42736E+3  -4.87554E+2
   3.90747E+3   1.38417E+3
   9.87972E+2   2.11664E+3
  -1.74842E+3   2.81850E+3
  -1.27611E+3   2.36843E+3
  -4.43703E+3  -1.18020E+3
  -3.24038E+3  -6.73712E+3
   2.38904E+3  -5.10825E+3
   5.08964E+3  -2.09093E+2
   5.34532E+3   2.50746E+3
   1.00507E+3   3.04198E+3
   1.01702E+3   2.45202E+2
   3.43734E+3  -1.86565E+3
   4.98625E+3   7.38553E+2
   1.70822E+3   3.96990E+3
  -3.51880E+3   1.07479E+3
  -1.22599E+3   9.73156E+2
   1.06159E+3  -2.56457E+3
   4.61120E+2   1.01583E+3
  -2.08213E+3   8.57838E+2
  -1.71886E+2  -9.46661E+2
   8.49761E+2  -2.17812E+3
   8.27470E+2  -9.83221E+2
  -3.33892E+2   2.87616E+2
  -2.08063E+3   1.69879E+3
  -2.19710E+3  -2.64778E+3
   1.56468E+3  -6.07106E+2
   3.14574E+3   2.53496E+3
  -2.32832E+3   1.13196E+2
  -1.22851E+2  -2.33012E+3
   1.59484E+3   7.06978E+2
  -1.11591E+2   2.62551E+3
  -2.98915E+3   2.15777E+3
  -5.06926E+3  -3.93348E+2
   7.96714E+1  -2.69870E+3
   3.38536E+3  -2.33468E+3
   2.33758E+3  -6.84673E+1
   9.62759E+2   2.01359E+3
   1.85946E+3   5.90220E+2
   3.59797E+3  -7.38368E+2
   2.48976E+3   3.34078E+3
  -2.12982E+3   6.27902E+3
  -3.45820E+3   7.92438E+2
  -1.27993E+2  -3.02461E+3
   1.99771E+2  -1.26162E+3
   7.98296E+2   2.43270E+3
  -4.13579E+3   2.90394E+3
  -6.41409E+3  -9.88290E+2
  -3.63871E+2  -5.31846E+3
   3.66556E+3  -1.62838E+3
   1.94376E+3   3.45330E+3
  -1.81504E+3   3.55115E+3
  -4.01915E+3   2.18720E+3
  -1.62122E+3  -5.92218E+2
  -2.26873E+3   2.58614E+2
  -4.03754E+3   2.03642E+3
  -2.88018E+3  -1.80438E+3
  -1.93792E+3  -3.13298E+3
   3.40555E+3  -1.79442E+3
   4.38073E+3   6.90019E+2
   1.74039E+3   1.61737E+3
  -1.83127E+3   1.79531E+3
  -1.44868E+3   3.01888E+2
  -1.19434E+3  -1.54726E+3
  -1.15792E+3   1.01363E+3
   2.89520E+2  -3.09782E+3
  -2.37821E+2  -1.43255E+3
   4.05520E+2  -1.52576E+3
   2.28329E+3  -4.32986E+2
  -1.24003E+3   1.10737E+3
  -2.13172E+3  -1.93175E+3
   3.44101E+2  -1.13168E+3
   1.23227E+3  -6.22609E+2
  -4.60803E+2  -1.27183E+3
  -1.66373E+3  -1.89522E+3
   1.96414E+3   4.42236E+2
  -4.53161E+2   5.35689E+2
  -1.85922E+3   1.03555E+3
  -4.14401E+3   4.86666E+2
   1.49007E+3  -1.69383E+3
   2.52983E+3  -1.76318E+3
   1.74973E+3   1.39347E+3
  -5.53999E+2   2.22964E+3
  -3.07219E+3   1.21997E+3
  -1.43858E+3  -1.10207E+3
  -1.87917E+3  -1.04103E+3
   1.42729E+3   1.28556E+3
   7.65886E+2   5.78221E+2
  -3.13544E+2   6.30448E+2
  -1.86371E+2  -1.25663E+3
   1.95305E+3   5.00244E+2
   3.09879E+2   2.70222E+3
  -1.63859E+3   7.43721E+2
   1.12545E+3   6.33700E+2
  -1.09301E+3   7.37731E+2
   1.47620E+2   8.75206E+2
   8.94343E+2   2.61446E+2
  -1.38792E+3   2.42291E+3
  -7.56914E+2   1.48247E+3
  -4.98399E+2   8.94721E+2
   1.67117E+2  -2.87198E+3
  -1.62197E+3  -3.97619E+3
   6.03301E+2  -9.80766E+2
   2.69434E+3   7.09244E+2
   1.41798E+3   2.34439E+3
   3.29174E+2   9.30485E+2
  -7.43428E+2  -9.04790E+2
   2.33000E+2   1.65545E+3
  -1.69001E+3   4.55123E+2
  -2.17515E+3   1.01828E+3
  -6.59419E+2   6.72941E+2
   1.55050E+3  -8.47238E+2
  -8.38731E+1  -2.87877E+2
   8.73921E+2   9.81335E+2
  -1.32349E+3  -2.99639E+2
   1.35194E+3  -3.97993E+3
   1.75975E+3  -2.99220E+3
   7.67769E+2   1.80270E+3
  -1.19891E+3   1.29482E+3
  -1.84907E+3  -1.92922E+3
  -7.09602E+2  -1.98921E+3
  -9.10444E+2  -6.81808E+2
  -6.51914E+2  -3.53514E+2
   2.12466E+3  -8.27567E+2
   1.68594E+3  -2.28317E+3
   2.51759E+3  -5.67048E+2
   2.15650E+3   1.27058E+3
   1.89507E+3   2.68252E+3
  -2.12249E+3   9.39023E+2
   2.67766E+3   5.40189E+2
  -2.79907E+2  -5.57202E+2
   1.89471E+2  -1.47258E+3
   3.66684E+2  -1.82370E+3
   1.44384E+2  -4.06770E+2
   1.24705E+3   1.06077E+3
  -1.85658E+3   3.66538E+3
  -1.91378E+3  -6.79514E+2
  -5.97527E+2  -2.20371E+2
   7.31720E+2  -1.29561E+3
   1.50289E+3   4.91140E+2
   2.28624E+3  -1.11080E+3
  -1.25596E+3  -1.08742E+3
   1.44906E+3  -1.01804E+3
   1.91786E+3  -1.41914E+3
   1.05506E+3   7.12765E+2
   6.19934E+0  -2.25702E+2
   6.89824E+2   4.29755E+2
   2.17604E+3   5.15180E+1
   1.41689E+3   1.85691E+3
  -1.71099E+3   1.28515E+3
  -2.22370E+3  -7.57882E+2
  -2.97781E+2  -2.87386E+3
   6.55604E+2  -1.78452E+3
   1.61632E+3   3.30980E+2
  -1.06069E+2  -2.73248E+2
  -1.58229E+3  -8.31660E+2
   1.65422E+3   2.42455E+2
   1.69741E+3  -7.80921E+2
  -5.27265E+2   2.64554E+3
  -3.97226E+2  -8.95006E+2
   3.38784E+1  -3.91967E+3
   1.16205E+3  -8.03975E+2
   2.13787E+3   7.47629E+2
  -1.18342E+3   2.17419E+2
  -1.73895E+3   2.92629E+1
  -1.01937E+3  -4.34296E+2
  -6.24465E+2   1.40860E+3
  -1.25411E+3   1.17858E+3
   1.08671E+3   3.00177E+2
   1.29997E+2  -1.12484E+2
  -8.24533E+1   6.40375E+1
  -2.36097E+3  -1.86169E+3
   9.49961E+2  -1.28961E+3
   2.70653E+2  -2.25319E+3
   2.97656E+2   8.08877E+2
   1.69203E+2   8.50688E+2
  -2.57130E+1   2.99881E+3
  -5.31114E+2   1.61482E+3
   2.21594E+2   2.36543E+2
  -4.60407E+2   2.55541E+2
   8.04688E+2   6.17972E+1
  -9.43003E+2  -9.01046E+2
   4.44985E+2  -9.87812E+2
   3.96582E+3  -4.82137E+2
   2.61853E+2   3.41027E+2
  -1.42374E+3   7.80727E+2
  -1.37928E+3   1.00029E+3
  -3.14347E+2   8.59033E+2
  -8.44890E+2  -1.78105E+3
   6.29615E+2   1.51302E+3
   3.35166E+2   2.79213E+3
  -2.31926E+2  -1.00624E+3
   7.48642E+2  -4.61986E+2
  -5.82595E+2  -1.06533E+3
   1.06951E+3  -8.81971E+2
  -1.85127E+3  -1.18025E+3
   4.97965E+2   4.75353E+2
   2.90390E+3   2.17134E+2
   1.36248E+3   1.07720E+3
  -1.56358E+3  -6.61610E+2
  -2.68786E+3   1.02646E+3
  -8.32618E+1  -2.96303E+2
  -3.11019E+2   3.14421E+3
  -8.48452E+2   8.04042E+2
   1.65905E+3  -1.75214E+3
  -6.69139E+1   9.40439E+2
  -1.24094E+3   8.21038E+2
   1.71671E+3  -1.33494E+3
  -1.12992E+3   1.08863E+3
  -3.70547E+2   9.24471E+2
  -1.95822E+3   1.03133E+3
   3.08757E-1  -4.85072E+2
   1.08799E+3  -8.15424E+2
  -9.57171E+2   8.80222E+1
   4.19461E+2   5.35922E+2
  -9.97942E+2   4.62436E+2
   1.58882E+3   2.97761E+2
  -2.19045E+3   6.93070E+1
  -8.48448E+2  -2.13994E+3
   1.19956E+3   1.84428E+2
   1.41918E+2   9.62521E+2
  -5.82769E+2   2.19551E+3
  -6.50746E+2   1.78392E+3
  -9.92479E+2   4.98718E+2
  -6.57956E+1   1.06910E+3
   3.13428E+2   1.40359E+3
   1.12976E+3   6.99461E+2
  -2.47347E+2  -7.41240E+2
   8.23985E+2   1.47285E+3
   6.67118E+2   2.17204E+3
  -9.07223E+2   5.86378E+2
  -1.23203E+3  -7.28788E+2
   2.47556E+3  -7.20378E+2
  -4.39473E+2   1.53529E+3
  -2.50313E+2   5.09021E+2
   1.37831E+3   1.08346E+3
   4.81218E+2   5.81332E+2
  -2.05566E+2   1.10079E+3
  -1.40952E+3   1.01455E+3
  -2.86521E+2  -5.90126E+2
  -4.89902E+2  -1.38962E+3
   1.93527E+3  -8.45814E+2
   1.46210E+3   3.03715E+3
  -8.79843E+2   7.45891E+2
  -1.15118E+3  -1.87641E+2
  -5.45349E+2   3.00314E+2
   1.16606E+3   1.01930E+2
   9.46672E+2   3.04446E+2
  -4.09814E+2   1.28151E+3
   5.89995E+2  -3.98210E+2
  -4.31842E+2   6.83343E+2
  -7.69787E+2   2.33037E+2
  -1.89526E+3   2.88969E+2
  -1.80846E+3  -5.01890E+2
  -1.47757E+2  -2.25259E+3
   6.89296E+2   7.78491E+1
  -3.70897E+2   8.70847E+2
   6.54614E+1  -1.37888E+3
   2.37784E+3  -7.07489E+2
   1.34487E+3  -1.00830E+3
  -8.65994E+2   7.00548E+2
  -2.52135E+2   5.37660E+2
   1.58056E+3  -3.43518E+2
   4.29891E+2  -8.91770E+2
   2.39145E+2   8.69472E+2
  -8.82130E+2   7.96986E+2
  -1.99451E+2   5.04778E+2
  -2.14765E+3  -1.28847E+3
   1.60402E+3  -7.40338E+2
   8.97976E+2  -1.25574E+3
   7.74130E+2  -1.17127E+3
   1.37860E+3  -4.29007E+2
   1.09680E+3   5.11741E+2
   3.36142E+2  -9.85280E+1
   1.21553E+3  -2.59090E+2
   1.55987E+2   7.54556E+2
   9.50248E+2  -6.66756E+2
   1.00168E+3   3.64927E+1
   3.04256E+3  -1.03040E+3
   2.55171E+2   8.94229E+2
  -9.48402E+1   4.88825E+2
   1.23527E+3   1.80935E+2
   1.05404E+3  -2.93177E+3
   3.25603E+3   2.67105E+2
  -1.07685E+2  -3.87903E+2
   1.94403E+3   1.19101E+2
   3.81990E+2  -1.15324E+3
   1.48042E+3  -3.09823E+2
   1.11203E+2   1.14100E+3
  -2.86144E+2  -1.39663E+3
   1.36430E+2  -1.13139E+3
   2.57255E+2  -8.89726E+2
   1.11693E+3   2.39451E+2
   2.19928E+3  -1.76152E+2
  -7.54999E+2  -4.31928E+2
  -1.05952E+1  -1.08252E+3
   1.41570E+3  -1.92141E+3
   2.18082E+3   3.64703E+2
   9.38703E+2  -5.35121E+2
  -1.33384E+3   8.38481E+2
  -3.45494E+2  -5.56138E+2
  -7.84560E+1   1.21439E+2
   1.88015E+1   2.62700E+2
   7.52489E+2  -1.29760E+3
  -1.47772E+3   6.33800E+2
   2.37552E+2   1.92146E+3
  -8.51412E+2   6.35307E+2
  -7.19999E+2   1.77111E+2
  -2.93220E+2   1.26556E+3
  -5.06471E+2  -4.91884E+2
   1.17724E+3  -2.59213E+2
  -1.29402E+3  -7.47102E+2
  -2.42020E+3   3.08645E+2
  -2.22996E+2   3.63109E+2
   2.91630E+3   2.76352E+2
