 
 $NMID
 ID=''
 FMTDAT='(2E13.5)'
 TRAMP=   1.00000E+0
 VOLUME=   1.00000E+0
 $END
  -1.17146E+2  -5.61929E+2
   6.39642E+2   9.00834E+2
  -1.41912E+3  -1.69381E+3
  -3.13971E+2   1.55480E+3
  -4.19584E+2   1.92493E+3
   1.14338E+3   1.67722E+3
   2.57827E+3   1.93188E+3
   1.56415E+3  -2.58267E+2
   3.47986E+2  -1.34611E+3
   1.23245E+3  -1.74571E+3
   5.77867E+2  -1.48969E+3
   2.56130E+3  -1.73707E+3
   2.01627E+3   4.63468E+2
  -3.04482E+3   3.57563E+3
  -3.00744E+3   1.92592E+3
  -5.71330E+2  -1.37067E+3
   1.94334E+3  -2.45605E+2
   1.57694E+3   1.13642E+3
   1.55770E+3   2.84699E+3
  -9.94296E+2  -1.66387E+3
   2.01847E+3  -1.45955E+3
   3.45762E+3   5.56398E+3
  -1.66517E+3   4.34012E+3
  -3.29839E+3  -2.54051E+2
  -9.54647E+2  -3.06415E+3
   4.29433E+3   1.67730E+3
   1.22304E+3   4.80160E+3
  -1.82743E+3   1.17416E+2
  -2.92832E+3  -3.50009E+3
   1.84869E+3  -2.92691E+3
   7.69313E+3   2.65585E+3
   5.76200E+2   5.43194E+3
  -5.03866E+3   4.49904E+3
  -4.47463E+3  -9.27019E+2
  -5.50876E+2  -3.37348E+2
  -3.82404E+3  -2.64811E+3
  -2.04653E+3  -3.61345E+3
   2.50161E+3  -2.44866E+3
   1.99647E+3   1.02296E+3
   7.43949E+2   4.61167E+2
   1.42579E+2   4.39651E+3
  -5.63210E+3   4.10809E+3
  -5.12267E+3  -1.83563E+3
  -1.50971E+3  -2.97721E+3
   2.26291E+3  -7.76575E+2
   1.41918E+3  -7.52041E+2
   1.13212E+3  -1.12208E+3
   2.68956E+3   1.53342E+3
  -8.82653E+2   2.05070E+3
   8.88933E+2   8.87311E+2
  -1.58901E+3  -2.86912E+3
  -1.23617E+2  -5.30956E+3
   3.19120E+3  -3.42393E+3
   3.64848E+3  -2.34401E+3
   1.98441E+3   5.90735E+2
   1.43226E+3  -8.95119E+1
  -2.90008E+3  -2.92185E+2
  -5.47134E+3  -2.19587E+3
  -3.34175E+3  -4.29780E+3
   1.54775E+3  -4.40620E+3
   4.20527E+3  -4.33642E+3
   3.56603E+3  -5.90935E+2
   3.05752E+3   3.16508E+3
   2.17779E+3   9.58268E+2
   2.02352E+3   3.88239E+2
   3.21465E+3  -8.50979E+2
  -4.89447E+2   3.72845E+3
  -2.17805E+3  -9.98548E+2
  -1.76592E+3  -1.97615E+3
  -9.54755E+2  -4.10957E+2
  -2.33988E+3   7.60772E+2
  -2.41005E+3   7.56288E+2
  -1.60879E+3  -1.64649E+3
  -3.22645E+2  -1.74982E+3
  -4.04324E+2   1.48062E+2
   1.30890E+3  -1.38599E+2
  -6.36275E+2   2.82584E+0
  -2.27549E+2  -2.62898E+3
   2.35849E+3  -2.04042E+3
   2.48688E+3   1.14842E+3
   5.88103E+2  -4.18553E+2
  -1.55644E+3  -3.69170E+2
   1.60487E+3   2.77934E+3
  -4.90227E+2   3.78735E+3
  -3.12719E+2   2.27256E+3
  -2.75801E+3  -7.75292E+2
  -7.52808E+2  -2.10017E+3
   1.86248E+3  -1.00050E+3
   1.35464E+3   5.59174E+3
  -2.90120E+3   2.57070E+3
   1.49920E+3   1.38837E+3
   2.69200E+3   9.14740E+2
   5.60704E+2   2.85541E+3
  -4.66022E+2   3.19094E+3
  -4.12724E+3  -3.72721E+2
  -4.79473E+2  -4.42510E+3
   2.96663E+3   1.51696E+2
  -9.49695E+2   4.30792E+3
  -1.14709E+3   2.02429E+3
  -2.68729E+3  -1.45268E+3
   9.51767E+2  -4.66284E+3
   2.54513E+3   7.14271E+2
   8.70534E+2   5.03919E+3
  -2.84451E+3   3.41339E+3
  -1.52957E+3   1.07171E+3
  -7.59274E+2  -1.16753E+3
  -1.82412E+3   1.20046E+3
  -5.06894E+2  -9.09875E+2
  -1.59127E+3  -2.62320E+3
   1.44084E+3  -2.92392E+3
   5.19781E+3  -2.01898E+3
   1.29414E+3   3.98501E+2
   1.20249E+3   1.47286E+3
  -4.69526E+2   3.54906E+2
   1.19858E+3   3.07742E+2
  -1.48227E+3  -2.27002E+3
  -1.06518E+3  -7.08571E+2
   7.68323E+2  -1.40148E+3
   2.49004E+3   5.88448E+2
   1.41942E+3   9.45534E+2
  -8.22821E+1   2.20991E+3
  -1.89973E+3   1.26070E+3
   4.12634E+2  -2.07040E+3
   1.29450E+3  -2.38055E+3
  -9.02562E+2  -9.18700E+2
  -6.57193E+2   2.64807E+2
   1.08486E+2  -1.23721E+3
   2.46815E+3  -1.00585E+3
  -1.98096E+3  -4.56166E+2
  -7.17613E+2  -5.69769E+2
   1.08271E+3  -2.22055E+3
   1.39395E+3  -1.68756E+3
   2.14185E+3   1.07592E+3
  -3.98281E+2   2.70590E+3
  -2.04838E+3   1.16845E+3
  -1.93523E+3  -2.24285E+3
  -3.51079E+2  -1.74609E+3
   1.30372E+3  -3.23604E+3
   7.08353E+2   5.56767E+1
  -7.16869E+2   2.34436E+3
   3.85303E+1  -1.04009E+3
  -2.65568E+2   1.30168E+3
  -1.17546E+2   8.55914E+2
  -4.98687E+2   1.36454E+3
  -6.32693E+2  -1.73898E+3
   3.41481E+2  -7.33954E+2
   7.21545E+2   2.17100E+3
  -6.88800E+2   2.29511E+2
  -8.17716E+2  -1.27918E+2
  -2.53755E+3  -9.98039E+2
  -4.92503E+2   1.61002E+2
  -2.08401E+2  -1.25372E+3
   2.99002E+3  -3.25447E+3
   2.23200E+3  -1.32597E+3
  -9.30234E+2   8.95434E+2
   5.23956E+2   9.52204E+2
  -1.67278E+3   7.23366E+2
  -1.48232E+3   3.63120E+2
  -2.14826E+3   1.56215E+3
  -1.98959E+3   1.14650E+3
  -1.03465E+3   5.19671E+2
  -2.19666E+3   1.94134E+2
   6.86234E+2  -9.24835E+2
   1.00526E+3   9.75960E+2
  -1.34275E+3   7.22492E+2
  -2.72490E+3  -5.00801E+2
   2.47152E+0  -7.07460E+2
   2.48457E+3  -1.29553E+3
  -1.96638E+3   2.34269E+3
  -2.30332E+3  -1.88711E+3
  -1.39406E+3  -4.02280E+2
  -6.86134E+2  -1.93085E+3
   5.69533E+1  -2.43766E+3
  -1.27621E+3   3.94971E+2
  -1.20760E+2   8.08601E+2
   1.21349E+3  -1.21242E+3
  -2.53450E+2  -1.94559E+2
   1.20491E+3   4.59543E+2
  -1.19652E+3  -3.65218E+2
  -1.46446E+3  -1.11688E+3
  -5.48407E+2  -2.18186E+3
   3.61479E+2   2.36117E+3
   4.76071E+2  -1.33493E+1
  -1.52009E+3   8.15345E+2
   1.61389E+3   3.26179E+3
  -1.44700E+2   1.61097E+3
  -5.97812E+2  -5.78358E+2
  -6.16630E+2  -2.36976E+3
   1.03760E+3  -1.60536E+3
   9.38792E+2  -1.21994E+3
  -1.54457E+3   1.18330E+3
  -8.31008E+2   1.18267E+3
  -7.44811E+2  -4.01342E+2
   3.12570E+2   8.00134E+2
   1.24643E+3  -5.12696E+2
   1.62500E+2  -1.86074E+2
  -9.01127E+2  -3.37834E+2
   9.80013E+2   2.55610E+2
  -2.09515E+3   1.23809E+3
  -7.53223E+2   1.83275E+3
  -1.68146E+3   8.76545E+2
  -9.95651E+2  -1.16614E+3
  -2.45350E+2  -1.10441E+3
   9.44754E+2   1.73090E+3
   1.15487E+2   1.87335E+3
  -1.71819E+3  -2.52553E+2
  -3.48291E+2   8.04063E+1
  -1.63470E+3   3.46417E+2
   1.61000E+3   3.77162E+2
  -9.16111E+2   2.04810E+3
   3.21725E+2   8.78123E+2
  -1.30325E+3  -1.46457E+3
   1.52332E+3   1.52007E+3
   1.62057E+3   6.80073E+2
  -1.82217E+3   1.99340E+3
  -1.45522E+3   2.31209E+1
  -6.81264E+2   6.54921E+2
  -7.68896E+2   3.40323E+2
  -2.29683E+2   3.89219E+2
   9.30267E+2  -1.04542E+3
   1.05531E+3   1.59950E+3
   1.63486E+3   1.28108E+3
   1.35911E+3  -1.16251E+3
   8.60846E+2   1.04994E+3
   6.10834E+2   1.06055E+3
   1.27865E+2  -4.15673E+3
   1.87679E+2   1.98571E+3
  -1.03099E+3  -2.47963E+2
   1.09650E+2   2.14921E+2
   1.35763E+3   1.40412E+3
   4.64569E+2  -1.37862E+3
  -7.75542E+2   1.25551E+2
   4.34625E+2  -2.51316E+3
   2.00938E+3  -8.79266E+2
   9.08104E+2   2.68506E+3
  -1.57882E+3   7.22528E+2
   5.18741E+2   3.26729E+2
  -4.36463E+2  -2.36547E+2
   1.46962E+3  -8.56288E+2
   5.10582E+2  -6.83918E+2
   8.89845E+2   1.03929E+3
   1.32904E+3  -2.80634E+2
  -8.39844E+2   1.11454E+3
  -4.48191E+2  -6.01922E+2
  -7.65418E+2   2.00085E+3
  -1.60093E+2   1.54016E+2
   1.55261E+2   4.60801E+2
  -9.09771E+2  -3.67647E+2
  -5.29686E+2   1.05939E+3
   4.25976E+1   8.65347E+2
  -2.16681E+3  -8.18602E+2
   1.00825E+3  -9.25979E+1
   7.85961E+2  -1.46745E+3
   4.30876E+2  -1.23410E+2
   1.82643E+3   8.08622E+2
   7.81292E+2   1.04384E+3
  -6.67167E+2  -5.38761E+2
   4.23416E+2   8.88344E+2
  -1.78025E+3  -1.31837E+2
   1.82273E+3  -6.98179E+2
  -1.11580E+3  -1.32837E+2
   1.08394E+3   5.60022E+2
  -2.62759E+1  -2.09815E+3
   2.56524E+2  -3.00456E+2
   8.14230E+1   7.53417E+2
   7.65642E+2   1.54891E+3
   1.61348E+3   4.64704E+1
   9.78754E+2   7.54640E+2
  -3.67638E+2  -1.38272E+3
  -1.24362E+2  -1.48903E+2
  -4.12629E+2   9.18771E+2
   1.36505E+3  -2.14714E+3
  -6.45341E+2   1.40618E+3
  -2.26692E+3   4.88102E+2
   9.36080E+1  -1.20325E+3
   1.72538E+1   7.31788E+2
   1.70321E+3  -3.47923E+2
  -2.43915E+3   3.32123E+3
   1.64146E+3  -9.13161E+0
  -1.28831E+3  -1.49659E+2
  -4.13994E+2   1.43716E+3
  -2.09518E+2  -2.66594E+1
  -9.87592E+2   2.09167E+2
  -4.54669E+2  -1.22890E+3
  -1.36740E+3   1.61534E+3
   9.67842E+2  -1.22958E+3
   4.73670E+2   1.04773E+2
   1.39029E+3  -1.53793E+3
   1.15805E+3   1.35851E+3
  -4.42249E+2   3.67087E+1
  -2.78558E+1  -2.95854E+1
   9.55460E+2   3.43099E+2
  -2.43593E+2  -6.24048E+2
  -8.17594E+2  -1.07188E+2
  -1.72938E+2  -6.63657E+2
   1.38450E+3   6.39035E+2
   8.80747E+2   1.65465E+3
   4.30868E+2   1.24293E+3
   1.27694E+3   1.41376E+3
   3.68824E+2   2.15938E+3
   7.58843E+2  -3.78034E+2
   6.55055E+2  -4.96379E+2
  -5.69993E+2  -2.98932E+2
   1.34280E+3   1.40446E+3
   1.30735E+3  -6.46560E+1
   3.13163E+2   1.31388E+3
  -1.89349E+2   5.96867E+2
  -2.55928E+2  -5.54788E+2
   1.67137E+3   2.02433E+3
   1.37455E+3  -7.74166E+2
   1.11621E+3   2.17068E+3
   2.47591E+2   4.95807E+2
  -1.09252E+2   3.35297E+2
   1.04126E+3  -1.59580E+3
   1.17074E+3  -2.45240E+2
  -2.83315E+2  -1.57979E+3
   9.80648E+2   1.99443E+3
  -1.08226E+3  -6.69443E+2
   6.03934E+2  -5.65621E+2
  -3.42609E+2   1.55619E+3
   3.74306E+2   7.26023E+2
  -1.21555E+3  -5.24399E+2
   3.53241E+2   4.94571E+2
   1.06170E+2  -1.92107E+2
  -1.18011E+3   8.77818E+2
   1.91856E+3   7.39141E+2
  -1.34660E+3  -4.97611E+2
  -4.39676E+2  -1.88979E+2
   1.75046E+3   5.33402E+2
   1.63821E+3  -9.27130E+1
  -1.15350E+3   7.89124E+2
  -1.08429E+3  -3.91457E+1
  -1.63280E+2  -3.98822E+2
   1.29515E+3  -7.94797E+2
   7.33715E+2  -1.49652E+3
   8.13427E+2  -1.13326E+3
  -2.38135E+2  -1.02660E+2
   8.74003E+2  -2.18621E+2
   1.23797E+3   8.25415E+2
   8.39777E+2  -4.54982E+2
   1.80455E+2  -1.10837E+3
  -5.61328E+2   1.15724E+3
  -9.84098E+2   2.93008E+2
  -1.56060E+3   1.84690E+3
  -2.23871E+3   9.74572E+2
   8.03906E+2  -1.79479E+3
   6.67263E+2  -6.92675E+2
   7.37056E+2  -1.51436E+2
  -3.23884E+3   7.31244E+2
  -1.76750E+3  -1.73976E+2
  -1.07887E+3  -2.09278E+3
   5.34084E+2   7.31203E+2
   4.57043E+2  -6.22750E+2
  -1.85658E+3  -1.11742E+3
   5.61246E+2  -8.85628E+2
   9.99878E+2   1.07544E+3
  -1.42814E+3   9.13960E+2
   1.70481E+3  -1.74531E+3
   1.98517E+3  -1.00185E+3
  -3.18867E+2   7.04520E+2
  -1.27227E+3   6.25196E+2
  -5.29137E+2  -1.22632E+3
  -9.01991E+2  -4.66687E+2
   3.35774E+2   1.66781E+2
  -2.00273E+1   5.82767E+2
   9.23605E+2  -3.76051E+1
  -9.72593E+2  -3.05187E+2
