 
 $NMID
 ID=''
 FMTDAT='(2E13.5)'
 TRAMP=   1.00000E+0
 VOLUME=   1.00000E+0
 $END
  -1.39672E+4   1.39546E+4
  -4.48673E+4   2.41875E+4
  -3.99399E+4   3.12555E+4
  -3.70013E+4   2.85634E+4
  -3.92469E+4   2.83956E+4
  -3.80387E+4   2.99218E+4
  -3.69767E+4   2.80908E+4
  -3.81832E+4   2.73951E+4
  -3.74499E+4   2.81792E+4
  -3.68424E+4   2.68490E+4
  -3.75433E+4   2.62004E+4
  -3.69589E+4   2.66174E+4
  -3.63672E+4   2.58303E+4
  -3.69581E+4   2.49856E+4
  -3.64508E+4   2.50085E+4
  -3.59266E+4   2.41593E+4
  -3.62810E+4   2.36042E+4
  -3.57561E+4   2.35604E+4
  -3.51943E+4   2.28026E+4
  -3.54438E+4   2.21791E+4
  -3.48384E+4   2.20602E+4
  -3.43034E+4   2.15305E+4
  -3.44402E+4   2.11799E+4
  -3.39917E+4   2.07598E+4
  -3.33955E+4   2.02208E+4
  -3.33469E+4   1.98231E+4
  -3.29817E+4   1.94738E+4
  -3.25693E+4   1.87899E+4
  -3.24996E+4   1.81913E+4
  -3.20206E+4   1.78218E+4
  -3.15794E+4   1.73092E+4
  -3.13837E+4   1.69089E+4
  -3.10932E+4   1.64574E+4
  -3.06286E+4   1.59172E+4
  -3.03032E+4   1.54432E+4
  -2.99064E+4   1.50305E+4
  -2.93550E+4   1.45475E+4
  -2.89906E+4   1.41450E+4
  -2.85666E+4   1.38591E+4
  -2.80464E+4   1.35012E+4
  -2.77618E+4   1.29770E+4
  -2.73184E+4   1.25888E+4
  -2.67992E+4   1.20594E+4
  -2.62186E+4   1.17024E+4
  -2.57262E+4   1.14041E+4
  -2.53091E+4   1.10133E+4
  -2.47975E+4   1.06661E+4
  -2.43096E+4   1.03774E+4
  -2.38878E+4   9.96453E+3
  -2.32919E+4   9.75170E+3
  -2.27937E+4   9.54655E+3
  -2.22606E+4   9.25884E+3
  -2.17238E+4   8.99422E+3
  -2.12855E+4   8.79345E+3
  -2.08288E+4   8.60417E+3
  -2.03608E+4   8.46326E+3
  -1.99194E+4   8.20968E+3
  -1.94506E+4   8.10802E+3
  -1.90080E+4   7.94273E+3
  -1.85492E+4   7.78744E+3
  -1.80414E+4   7.64603E+3
  -1.76333E+4   7.57659E+3
  -1.73908E+4   7.48182E+3
  -1.69834E+4   7.33031E+3
  -1.65860E+4   7.10999E+3
  -1.62454E+4   7.14239E+3
  -1.59773E+4   6.99483E+3
  -1.56214E+4   6.82561E+3
  -1.53056E+4   6.74219E+3
  -1.49882E+4   6.60918E+3
  -1.46988E+4   6.47259E+3
  -1.44203E+4   6.44726E+3
  -1.41773E+4   6.26519E+3
  -1.38436E+4   6.21272E+3
  -1.36192E+4   6.07946E+3
  -1.32785E+4   5.95224E+3
  -1.31377E+4   5.80694E+3
  -1.28856E+4   5.68202E+3
  -1.25602E+4   5.62321E+3
  -1.24057E+4   5.47228E+3
  -1.22739E+4   5.30611E+3
  -1.20104E+4   5.17570E+3
  -1.18205E+4   5.02379E+3
  -1.16314E+4   4.86127E+3
  -1.14401E+4   4.64282E+3
  -1.12446E+4   4.48882E+3
  -1.10182E+4   4.28281E+3
  -1.08020E+4   4.15003E+3
  -1.07108E+4   3.97719E+3
  -1.04665E+4   3.80611E+3
  -1.02714E+4   3.63319E+3
  -1.00884E+4   3.47233E+3
  -9.85203E+3   3.26982E+3
  -9.75541E+3   2.99492E+3
  -9.52518E+3   2.83602E+3
  -9.38127E+3   2.57545E+3
  -9.09170E+3   2.38470E+3
  -8.98607E+3   2.26414E+3
  -8.74805E+3   2.00777E+3
  -8.57629E+3   1.76083E+3
  -8.33226E+3   1.53913E+3
  -8.18946E+3   1.32476E+3
  -7.89081E+3   1.13139E+3
  -7.81192E+3   8.95330E+2
  -7.47518E+3   6.21097E+2
  -7.26388E+3   4.51396E+2
  -7.05033E+3   2.00755E+2
  -6.83453E+3  -2.01681E+1
  -6.56773E+3  -2.20652E+2
  -6.34253E+3  -4.52006E+2
  -5.99991E+3  -6.81907E+2
  -5.87600E+3  -8.03312E+2
  -5.68543E+3  -9.91166E+2
  -5.40248E+3  -1.13934E+3
  -5.05377E+3  -1.26330E+3
  -4.91011E+3  -1.58037E+3
  -4.57805E+3  -1.71812E+3
  -4.32061E+3  -1.88043E+3
  -4.00362E+3  -2.00617E+3
  -3.78583E+3  -2.18453E+3
  -3.55166E+3  -2.33829E+3
  -3.29100E+3  -2.48935E+3
  -2.93888E+3  -2.56334E+3
  -2.68576E+3  -2.67938E+3
  -2.43076E+3  -2.76160E+3
  -2.19600E+3  -2.91896E+3
  -1.96302E+3  -2.95333E+3
  -1.74421E+3  -3.02650E+3
  -1.45740E+3  -3.14382E+3
  -1.20659E+3  -3.18742E+3
  -8.46498E+2  -3.25380E+3
  -6.40474E+2  -3.24894E+3
  -4.14677E+2  -3.22527E+3
  -2.49326E+2  -3.26136E+3
   4.33410E+1  -3.29419E+3
   2.71154E+2  -3.30668E+3
   4.49130E+2  -3.27688E+3
   6.91745E+2  -3.18118E+3
   9.58055E+2  -3.19329E+3
   1.06992E+3  -3.16214E+3
   1.33417E+3  -3.10421E+3
   1.48406E+3  -3.06863E+3
   1.63294E+3  -2.95878E+3
   1.75049E+3  -2.93329E+3
   1.96822E+3  -2.91496E+3
   2.06859E+3  -2.79861E+3
   2.28600E+3  -2.72717E+3
   2.40291E+3  -2.74363E+3
   2.49459E+3  -2.69720E+3
   2.65268E+3  -2.52095E+3
   2.83266E+3  -2.42864E+3
   2.88528E+3  -2.37849E+3
   2.99270E+3  -2.23290E+3
   3.03902E+3  -2.19237E+3
   3.17032E+3  -2.06548E+3
   3.22268E+3  -2.05181E+3
   3.29032E+3  -1.95587E+3
   3.32540E+3  -1.92715E+3
   3.42257E+3  -1.80229E+3
   3.42475E+3  -1.75653E+3
   3.48166E+3  -1.55578E+3
   3.48404E+3  -1.51742E+3
   3.58867E+3  -1.48514E+3
   3.52784E+3  -1.35230E+3
   3.60452E+3  -1.32857E+3
   3.63804E+3  -1.25665E+3
   3.65870E+3  -1.14804E+3
   3.70067E+3  -1.11718E+3
   3.60815E+3  -1.06339E+3
   3.71195E+3  -9.42447E+2
   3.62289E+3  -9.19761E+2
   3.63363E+3  -7.70195E+2
   3.60267E+3  -7.93541E+2
   3.65424E+3  -7.21395E+2
   3.68270E+3  -6.56809E+2
   3.66309E+3  -5.58305E+2
   3.64634E+3  -5.23085E+2
   3.54593E+3  -4.39436E+2
   3.66593E+3  -3.48985E+2
   3.66298E+3  -2.74235E+2
   3.54448E+3  -2.56456E+2
   3.52129E+3  -1.71245E+2
   3.44626E+3  -1.34034E+2
   3.50859E+3  -7.30909E+1
   3.54791E+3  -1.16733E+2
   3.38235E+3   8.12471E+1
   3.39588E+3   1.07401E+2
   3.35514E+3   1.90129E+2
   3.27553E+3   1.65298E+2
   3.27428E+3   2.47404E+2
   3.26939E+3   2.25115E+2
   3.18140E+3   2.04236E+2
   3.17362E+3   3.46749E+2
   3.14115E+3   3.85739E+2
   3.06416E+3   4.08049E+2
   3.09512E+3   3.80450E+2
   2.95187E+3   4.51756E+2
   2.90741E+3   4.72872E+2
   2.82046E+3   4.97070E+2
   2.85066E+3   6.24624E+2
   2.80632E+3   5.51820E+2
   2.72883E+3   5.78439E+2
   2.63256E+3   6.66879E+2
   2.64829E+3   6.68553E+2
   2.52974E+3   6.52927E+2
   2.49036E+3   6.01630E+2
   2.47726E+3   7.14844E+2
   2.38157E+3   6.93083E+2
   2.31400E+3   7.16556E+2
   2.26874E+3   6.76532E+2
   2.22243E+3   6.75142E+2
   2.17845E+3   6.70521E+2
   2.13092E+3   6.66482E+2
   2.17005E+3   6.80900E+2
   1.99742E+3   6.92792E+2
   1.98798E+3   6.87410E+2
   1.93256E+3   7.21338E+2
   1.97350E+3   7.32257E+2
   1.94305E+3   6.99232E+2
   1.80925E+3   7.35907E+2
   1.76149E+3   7.04282E+2
   1.69934E+3   6.52385E+2
   1.69200E+3   6.10463E+2
   1.60419E+3   6.93086E+2
   1.61338E+3   6.49454E+2
   1.61832E+3   6.11532E+2
   1.50472E+3   6.80418E+2
   1.49298E+3   6.70473E+2
   1.48210E+3   6.00744E+2
   1.48761E+3   6.71008E+2
   1.43770E+3   5.59763E+2
   1.33946E+3   5.91023E+2
   1.34424E+3   6.30707E+2
   1.30943E+3   5.68005E+2
   1.35953E+3   6.42322E+2
   1.28171E+3   5.67998E+2
   1.25458E+3   6.19487E+2
   1.17710E+3   5.86921E+2
   1.11615E+3   6.08547E+2
   1.16039E+3   6.10549E+2
   1.07020E+3   5.77830E+2
   1.10736E+3   5.31395E+2
   1.08347E+3   5.63212E+2
   1.05974E+3   5.54648E+2
   9.87817E+2   5.34675E+2
   9.84317E+2   5.38641E+2
   9.40678E+2   6.13038E+2
   9.06255E+2   5.87381E+2
   8.59195E+2   6.16292E+2
   8.21800E+2   5.81149E+2
   8.53167E+2   5.39430E+2
   8.61711E+2   5.30363E+2
   8.12265E+2   5.75640E+2
   7.18280E+2   4.26122E+2
   7.02892E+2   5.39973E+2
   7.28026E+2   5.76039E+2
   6.65819E+2   5.19755E+2
   6.52201E+2   4.75823E+2
   5.95067E+2   5.18434E+2
   5.68532E+2   5.20338E+2
   5.55328E+2   4.54918E+2
   4.89610E+2   4.33593E+2
   4.67441E+2   4.42334E+2
   5.42177E+2   5.00462E+2
   4.74083E+2   3.86118E+2
   3.80725E+2   4.08404E+2
   4.30323E+2   4.09648E+2
   3.61489E+2   3.82582E+2
   3.73821E+2   3.84875E+2
   3.66864E+2   3.41115E+2
   3.74697E+2   3.41091E+2
   2.93102E+2   2.90103E+2
   2.89233E+2   3.60528E+2
   2.67499E+2   3.16213E+2
   2.93157E+2   3.56105E+2
   2.82396E+2   2.82442E+2
   2.91879E+2   3.53329E+2
   1.77226E+2   2.77298E+2
   2.74383E+2   2.64779E+2
   2.78891E+2   2.76161E+2
   1.96379E+2   1.95387E+2
   1.65952E+2   2.55890E+2
   1.49957E+2   2.63854E+2
   2.10934E+2   2.07335E+2
   1.57726E+2   2.52698E+2
   1.38563E+2   1.82106E+2
   1.03142E+2   1.61185E+2
   2.10733E+1   1.94463E+2
   1.16243E+2   1.68650E+2
   8.96389E+1   1.37304E+2
   3.72571E+1   2.19512E+2
   1.03623E+2   1.56009E+2
   6.92279E+1   1.41403E+2
   7.59199E+1   1.42685E+2
   3.57110E+1   1.45910E+2
  -1.30118E+1   2.05289E+2
   8.43623E+1   9.15397E+1
   1.06936E+1   1.24446E+2
  -2.86987E+1   1.66948E+2
   8.96579E+1   1.42341E+2
   4.45111E+1   4.60025E+1
  -3.25200E+1   8.48825E+1
  -8.19001E+0   5.14876E+1
  -2.48008E+1   2.20734E+0
  -8.50677E+1   2.34122E+1
  -5.15670E+1   6.75140E+1
  -8.68672E+1   6.04453E+1
  -5.87455E+1   7.29126E+1
  -6.41140E+1   6.05167E+1
  -4.47765E+1   8.80034E+1
  -4.58617E+1   3.15753E+1
  -9.60167E+1  -2.75916E+1
  -9.07144E+1   9.73114E+1
  -1.08765E+2   3.53780E+1
  -1.13433E+2   4.63172E+1
  -1.80093E+2   4.46514E+1
  -6.04516E+1   4.66681E+1
  -9.56379E+1   1.24625E+1
  -5.03864E+1  -2.58757E+1
  -1.47119E+2   5.88057E+1
  -6.71540E+1  -1.44361E+1
  -1.07608E+2  -5.09104E+1
  -9.87601E+1  -3.82544E+1
  -6.34285E+1   3.94031E+1
  -1.36146E+2  -1.48661E+1
  -1.33844E+2   4.93803E+1
  -1.60400E+2  -1.60793E+1
  -1.45843E+2   2.47646E+1
  -1.22958E+2   3.64104E+1
  -9.08874E+1  -9.88624E+0
  -1.44365E+2   4.09962E+1
  -1.27326E+2   7.17192E+1
  -9.35197E+1   7.14386E+1
  -1.00069E+2   6.91475E+0
  -7.32673E+1   5.80810E+1
  -1.45357E+2   7.91646E+1
  -9.85035E+1   2.03870E+1
  -4.90795E+1  -1.97981E+1
  -1.07039E+2  -3.27356E-1
  -8.79606E+1   5.39376E+1
  -6.96122E+1   2.25584E+1
  -1.00233E+2   4.86973E+1
  -1.00094E+2  -3.48734E+1
  -1.12247E+2   7.65190E+1
  -1.13457E+2  -4.50131E+1
  -1.42967E+2   4.59669E+1
  -1.30004E+2  -1.72946E+1
  -9.75170E+1  -3.43368E+1
  -1.43603E+2   7.50283E+1
  -9.10436E+1   2.41919E+1
  -1.56838E+2  -1.37458E+1
  -1.51260E+2   8.03342E+1
  -1.50279E+2   6.54867E+1
  -4.91433E+1   8.07767E+1
  -1.28287E+2   2.59330E+0
  -1.32835E+2   9.48476E-1
  -9.20943E+1   3.71728E+1
  -1.15717E+2  -2.36869E+0
  -7.26918E+1   4.20002E+1
  -1.25150E+2   6.23788E+1
  -6.58590E+1   8.42660E+0
  -8.50039E+1   2.33347E+0
  -1.01937E+2   1.71041E+1
  -2.17145E+1   9.43816E+1
  -1.22311E+2  -2.96239E+1
  -1.51774E+2   3.06319E+1
  -1.28894E+2   5.58950E+0
