 
 $NMID
 ID=''
 FMTDAT='(2E13.5)'
 TRAMP=   1.00000E+0
 VOLUME=   1.00000E+0
 $END
  -2.23593E+4   2.65036E+3
  -5.70230E+4  -9.68413E+3
  -5.77680E+4   4.29945E+2
  -5.31463E+4   3.28634E+2
  -5.52731E+4  -1.49132E+3
  -5.53740E+4   8.98947E+2
  -5.34064E+4   2.98666E+2
  -5.42347E+4  -1.02646E+3
  -5.43966E+4   4.52468E+2
  -5.29860E+4  -3.10549E+1
  -5.33507E+4  -8.54541E+2
  -5.31013E+4   3.58942E+2
  -5.22726E+4   2.44399E+2
  -5.25260E+4  -6.16785E+2
  -5.23562E+4   3.25196E+1
  -5.14168E+4  -1.80433E+2
  -5.16562E+4  -7.51542E+2
  -5.14581E+4  -4.89079E+2
  -5.07559E+4  -5.81871E+2
  -5.09860E+4  -1.07384E+3
  -5.06364E+4  -8.48798E+2
  -5.00175E+4  -6.48170E+2
  -5.02228E+4  -1.05887E+3
  -4.99699E+4  -1.02208E+3
  -4.93007E+4  -1.16388E+3
  -4.92740E+4  -1.25816E+3
  -4.92278E+4  -1.24037E+3
  -4.87064E+4  -1.51807E+3
  -4.84694E+4  -1.78211E+3
  -4.83072E+4  -1.67209E+3
  -4.79180E+4  -1.71997E+3
  -4.77521E+4  -1.79692E+3
  -4.76859E+4  -1.87416E+3
  -4.71735E+4  -1.97474E+3
  -4.69772E+4  -1.89022E+3
  -4.68295E+4  -1.84987E+3
  -4.64412E+4  -1.87571E+3
  -4.60984E+4  -1.94794E+3
  -4.60192E+4  -1.89920E+3
  -4.57360E+4  -1.90828E+3
  -4.55021E+4  -2.01857E+3
  -4.54164E+4  -2.11234E+3
  -4.50414E+4  -2.35886E+3
  -4.46896E+4  -2.46350E+3
  -4.44857E+4  -2.47638E+3
  -4.41953E+4  -2.59153E+3
  -4.40558E+4  -2.76069E+3
  -4.38193E+4  -2.79117E+3
  -4.35769E+4  -2.90652E+3
  -4.33464E+4  -2.96025E+3
  -4.31293E+4  -3.09721E+3
  -4.27739E+4  -3.19446E+3
  -4.24628E+4  -3.17543E+3
  -4.23057E+4  -3.20637E+3
  -4.20174E+4  -3.29032E+3
  -4.17410E+4  -3.41398E+3
  -4.15456E+4  -3.43664E+3
  -4.12048E+4  -3.57522E+3
  -4.08989E+4  -3.61713E+3
  -4.06034E+4  -3.71775E+3
  -4.02903E+4  -3.71125E+3
  -3.99464E+4  -3.67943E+3
  -3.97075E+4  -3.68162E+3
  -3.95118E+4  -3.77963E+3
  -3.91095E+4  -3.75585E+3
  -3.88588E+4  -3.72541E+3
  -3.86913E+4  -3.72095E+3
  -3.83991E+4  -3.70988E+3
  -3.79941E+4  -3.69484E+3
  -3.76653E+4  -3.70568E+3
  -3.74958E+4  -3.68392E+3
  -3.71587E+4  -3.66417E+3
  -3.68906E+4  -3.64014E+3
  -3.66306E+4  -3.57939E+3
  -3.62764E+4  -3.57473E+3
  -3.61118E+4  -3.45937E+3
  -3.57884E+4  -3.38495E+3
  -3.55021E+4  -3.38248E+3
  -3.51774E+4  -3.30324E+3
  -3.49690E+4  -3.18963E+3
  -3.47317E+4  -3.13794E+3
  -3.43958E+4  -3.14093E+3
  -3.41330E+4  -3.06639E+3
  -3.39647E+4  -2.96383E+3
  -3.37244E+4  -3.04948E+3
  -3.34591E+4  -2.93035E+3
  -3.31692E+4  -2.99361E+3
  -3.29007E+4  -2.83802E+3
  -3.26157E+4  -2.74445E+3
  -3.24914E+4  -2.69507E+3
  -3.21790E+4  -2.55154E+3
  -3.20241E+4  -2.51412E+3
  -3.17670E+4  -2.37236E+3
  -3.16633E+4  -2.13923E+3
  -3.13822E+4  -2.19745E+3
  -3.12275E+4  -2.13560E+3
  -3.10171E+4  -1.96839E+3
  -3.08872E+4  -1.79445E+3
  -3.07487E+4  -1.72528E+3
  -3.05657E+4  -1.73406E+3
  -3.04105E+4  -1.61211E+3
  -3.02830E+4  -1.51271E+3
  -3.01749E+4  -1.35765E+3
  -3.00690E+4  -1.28222E+3
  -2.99473E+4  -1.28123E+3
  -2.97774E+4  -1.17094E+3
  -2.97007E+4  -1.06987E+3
  -2.95872E+4  -1.04654E+3
  -2.95128E+4  -9.42488E+2
  -2.93395E+4  -8.70034E+2
  -2.92491E+4  -7.81956E+2
  -2.91777E+4  -7.22311E+2
  -2.91491E+4  -6.11456E+2
  -2.90405E+4  -6.49521E+2
  -2.89990E+4  -6.73506E+2
  -2.88892E+4  -6.70624E+2
  -2.88318E+4  -6.01750E+2
  -2.87100E+4  -6.83982E+2
  -2.86093E+4  -6.02788E+2
  -2.84922E+4  -6.12219E+2
  -2.84142E+4  -6.67751E+2
  -2.83385E+4  -6.88309E+2
  -2.81705E+4  -7.53386E+2
  -2.81498E+4  -7.99803E+2
  -2.80038E+4  -7.93194E+2
  -2.79087E+4  -9.13923E+2
  -2.78501E+4  -9.14337E+2
  -2.76239E+4  -9.17163E+2
  -2.75006E+4  -9.84596E+2
  -2.74768E+4  -1.03877E+3
  -2.72844E+4  -1.08663E+3
  -2.71532E+4  -1.09121E+3
  -2.70235E+4  -1.19608E+3
  -2.68917E+4  -1.20953E+3
  -2.67712E+4  -1.31236E+3
  -2.65787E+4  -1.39284E+3
  -2.64323E+4  -1.42378E+3
  -2.63001E+4  -1.50098E+3
  -2.60672E+4  -1.52945E+3
  -2.58822E+4  -1.61892E+3
  -2.57136E+4  -1.60049E+3
  -2.54679E+4  -1.73133E+3
  -2.53964E+4  -1.79872E+3
  -2.52648E+4  -1.83742E+3
  -2.51468E+4  -1.92383E+3
  -2.48730E+4  -1.99588E+3
  -2.46553E+4  -2.06143E+3
  -2.45293E+4  -2.08864E+3
  -2.43484E+4  -2.14385E+3
  -2.42085E+4  -2.21013E+3
  -2.39506E+4  -2.31682E+3
  -2.37226E+4  -2.36799E+3
  -2.35198E+4  -2.47695E+3
  -2.32981E+4  -2.45324E+3
  -2.31049E+4  -2.53773E+3
  -2.28618E+4  -2.53413E+3
  -2.26978E+4  -2.65900E+3
  -2.25186E+4  -2.66915E+3
  -2.23220E+4  -2.69056E+3
  -2.21070E+4  -2.80485E+3
  -2.18441E+4  -2.82193E+3
  -2.16440E+4  -2.85903E+3
  -2.14341E+4  -2.86634E+3
  -2.12559E+4  -2.89721E+3
  -2.11015E+4  -2.95077E+3
  -2.09278E+4  -3.01679E+3
  -2.06008E+4  -3.02863E+3
  -2.03898E+4  -3.04787E+3
  -2.01493E+4  -3.05902E+3
  -2.00032E+4  -3.08717E+3
  -1.97251E+4  -3.13959E+3
  -1.95850E+4  -3.19367E+3
  -1.93214E+4  -3.19420E+3
  -1.89995E+4  -3.21881E+3
  -1.88389E+4  -3.18747E+3
  -1.86310E+4  -3.24191E+3
  -1.84005E+4  -3.22882E+3
  -1.82237E+4  -3.24559E+3
  -1.80736E+4  -3.24781E+3
  -1.78260E+4  -3.31708E+3
  -1.74902E+4  -3.29214E+3
  -1.73488E+4  -3.28318E+3
  -1.71824E+4  -3.31472E+3
  -1.69331E+4  -3.27002E+3
  -1.67312E+4  -3.23627E+3
  -1.65725E+4  -3.28523E+3
  -1.63148E+4  -3.40027E+3
  -1.61050E+4  -3.29170E+3
  -1.59524E+4  -3.34355E+3
  -1.56731E+4  -3.25271E+3
  -1.54306E+4  -3.30914E+3
  -1.53184E+4  -3.24462E+3
  -1.51472E+4  -3.29180E+3
  -1.49455E+4  -3.21155E+3
  -1.47373E+4  -3.26452E+3
  -1.45292E+4  -3.17281E+3
  -1.44070E+4  -3.17769E+3
  -1.40821E+4  -3.17222E+3
  -1.39828E+4  -3.12929E+3
  -1.38270E+4  -3.07272E+3
  -1.36709E+4  -3.13073E+3
  -1.34384E+4  -3.15676E+3
  -1.32427E+4  -3.07575E+3
  -1.30291E+4  -3.08668E+3
  -1.29160E+4  -3.01474E+3
  -1.26989E+4  -2.93032E+3
  -1.25885E+4  -2.94021E+3
  -1.23922E+4  -2.88389E+3
  -1.22637E+4  -2.87576E+3
  -1.20946E+4  -2.85089E+3
  -1.18865E+4  -2.84142E+3
  -1.17453E+4  -2.81042E+3
  -1.15757E+4  -2.64530E+3
  -1.14177E+4  -2.68212E+3
  -1.12540E+4  -2.62267E+3
  -1.11959E+4  -2.62943E+3
  -1.09516E+4  -2.58407E+3
  -1.07701E+4  -2.52189E+3
  -1.06719E+4  -2.49143E+3
  -1.05476E+4  -2.43480E+3
  -1.04282E+4  -2.42448E+3
  -1.03332E+4  -2.35696E+3
  -1.01570E+4  -2.36430E+3
  -9.93000E+3  -2.29405E+3
  -9.83786E+3  -2.28677E+3
  -9.67489E+3  -2.24779E+3
  -9.55419E+3  -2.20690E+3
  -9.43277E+3  -2.14178E+3
  -9.34047E+3  -2.14572E+3
  -9.16500E+3  -2.14872E+3
  -9.05212E+3  -2.08136E+3
  -8.95630E+3  -2.01670E+3
  -8.79121E+3  -2.02830E+3
  -8.72643E+3  -1.97020E+3
  -8.57387E+3  -1.95556E+3
  -8.45437E+3  -1.94822E+3
  -8.38224E+3  -1.84485E+3
  -8.18669E+3  -1.87832E+3
  -8.08218E+3  -1.85209E+3
  -7.91957E+3  -1.78335E+3
  -7.87003E+3  -1.79283E+3
  -7.73318E+3  -1.68048E+3
  -7.66377E+3  -1.68565E+3
  -7.52619E+3  -1.74911E+3
  -7.37524E+3  -1.56361E+3
  -7.30350E+3  -1.58287E+3
  -7.21664E+3  -1.64008E+3
  -7.12619E+3  -1.54155E+3
  -7.00041E+3  -1.54209E+3
  -6.89989E+3  -1.48438E+3
  -6.83272E+3  -1.45772E+3
  -6.76000E+3  -1.43954E+3
  -6.53507E+3  -1.40779E+3
  -6.52927E+3  -1.37483E+3
  -6.38273E+3  -1.29251E+3
  -6.26200E+3  -1.28901E+3
  -6.17124E+3  -1.28363E+3
  -6.17016E+3  -1.25383E+3
  -6.00321E+3  -1.20506E+3
  -5.91829E+3  -1.16643E+3
  -5.85796E+3  -1.12642E+3
  -5.74993E+3  -1.21462E+3
  -5.64930E+3  -1.05327E+3
  -5.57391E+3  -1.09011E+3
  -5.46165E+3  -1.03235E+3
  -5.40811E+3  -1.02034E+3
  -5.40693E+3  -9.72716E+2
  -5.29119E+3  -9.10658E+2
  -5.23246E+3  -9.39106E+2
  -5.07549E+3  -8.75931E+2
  -4.98500E+3  -8.80590E+2
  -4.95203E+3  -8.85799E+2
  -4.80799E+3  -8.48723E+2
  -4.79014E+3  -7.65989E+2
  -4.66716E+3  -8.48313E+2
  -4.62807E+3  -7.84082E+2
  -4.58183E+3  -7.40926E+2
  -4.53593E+3  -7.24982E+2
  -4.48078E+3  -6.64098E+2
  -4.36001E+3  -6.97349E+2
  -4.31634E+3  -6.48906E+2
  -4.31987E+3  -6.29452E+2
  -4.21537E+3  -6.34116E+2
  -4.14999E+3  -6.12237E+2
  -4.13253E+3  -6.05941E+2
  -3.99639E+3  -5.77355E+2
  -4.04677E+3  -5.57909E+2
  -3.91386E+3  -5.85419E+2
  -3.87969E+3  -5.61609E+2
  -3.86015E+3  -5.34031E+2
  -3.78858E+3  -5.29952E+2
  -3.73911E+3  -4.50270E+2
  -3.67041E+3  -5.04775E+2
  -3.61261E+3  -4.46343E+2
  -3.48803E+3  -4.44287E+2
  -3.53662E+3  -3.70001E+2
  -3.48145E+3  -4.27985E+2
  -3.32862E+3  -3.72975E+2
  -3.31673E+3  -4.46038E+2
  -3.29670E+3  -3.90239E+2
  -3.21042E+3  -3.40664E+2
  -3.23660E+3  -3.11277E+2
  -3.19419E+3  -3.72279E+2
  -3.12232E+3  -2.72896E+2
  -3.10182E+3  -2.54495E+2
  -3.03714E+3  -3.44203E+2
  -2.96802E+3  -2.63029E+2
  -2.95590E+3  -2.91257E+2
  -2.91979E+3  -2.61609E+2
  -2.85632E+3  -1.80203E+2
  -2.83796E+3  -2.15769E+2
  -2.79406E+3  -2.41898E+2
  -2.82727E+3  -1.96957E+2
  -2.71523E+3  -1.08514E+2
  -2.63202E+3  -1.84193E+2
  -2.68346E+3  -2.25669E+2
  -2.60980E+3  -1.81341E+2
  -2.61078E+3  -1.09184E+2
  -2.52544E+3  -1.31566E+2
  -2.52304E+3  -8.88473E+1
  -2.44649E+3  -1.33445E+2
  -2.43411E+3  -1.00451E+2
  -2.39296E+3  -9.93979E+1
  -2.39370E+3  -1.57917E+2
  -2.34049E+3  -7.54041E+1
  -2.35829E+3  -1.73818E+1
  -2.26596E+3  -2.25813E+1
  -2.28649E+3  -1.76475E+1
  -2.24563E+3  -2.89545E+1
  -2.22750E+3   3.76407E+0
  -2.21440E+3  -2.63245E+1
  -2.14397E+3   3.97227E+1
  -2.09541E+3   4.88145E+1
  -2.12732E+3   3.62145E+1
  -2.12830E+3   3.86147E+0
  -2.01664E+3   6.46401E+1
  -2.09894E+3   6.36647E+1
  -2.02471E+3   1.50363E+1
  -2.00838E+3  -1.03394E+1
  -1.99444E+3   4.94769E+1
  -1.97412E+3   2.56512E+1
  -1.92974E+3   3.82147E+1
  -1.94282E+3   1.04261E+2
  -1.88240E+3   1.37109E+2
  -1.91501E+3   7.07273E+1
  -1.86756E+3   1.09305E+2
  -1.88141E+3   1.26987E+2
  -1.85833E+3   7.19148E+1
  -1.80219E+3   1.17527E+2
  -1.80873E+3   1.26188E+2
  -1.79089E+3   1.65461E+2
  -1.78259E+3   7.84224E+1
  -1.71490E+3   1.37241E+2
  -1.65861E+3   1.54892E+2
  -1.69508E+3   1.58455E+2
  -1.63691E+3   1.51898E+2
  -1.60962E+3   2.44416E+2
  -1.65688E+3   2.12556E+2
  -1.63205E+3   1.64863E+2
  -1.59684E+3   1.83110E+2
  -1.62080E+3   1.69338E+2
  -1.56545E+3   2.15098E+2
  -1.60655E+3   1.99001E+2
  -1.55875E+3   1.59807E+2
  -1.53784E+3   1.68707E+2
  -1.56958E+3   2.20591E+2
  -1.47461E+3   2.15567E+2
