 LCModel (Version 6.3-1N) Copyright: S.W. Provencher.          Ref.: Magn. Reson. Med. 30:672-679 (1993).                
 Slice_N1@22_22  02-Jun-2023 14:37:52
 27 lines in following concentration table = NCONC+1
    Conc.  %SD /Cr+PCr  Metabolite                                         
 1.76E-06  21% 2.1E-04 Mac                                                 
 2.34E-02  48%   2.780 Cr                                                  
 4.40E-02  26%   5.220 PCr                                                 
 7.18E-02  13%   8.511 Ins                                                 
    0.104   7%  12.294 NAA                                                 
 6.96E-02  12%   8.256 Tau                                                 
 9.13E-03  23%   1.083 PCho                                                
    0.000 999%   0.000 GPC                                                 
 8.22E-02  12%   9.746 Glu                                                 
 2.86E-02  27%   3.393 Gln                                                 
    0.000 999%   0.000 Ala                                                 
 1.70E-02  79%   2.015 Asc                                                 
 7.13E-03 113%   0.845 Asp                                                 
 8.48E-03  50%   1.005 GABA                                                
 9.58E-03  55%   1.136 Glc                                                 
 1.38E-02  33%   1.635 GSH                                                 
    0.000 999%   0.000 Lac                                                 
    0.000 999%   0.000 NAAG                                                
    0.000 999%   0.000 PE                                                  
 9.13E-03  23%   1.083 GPC+PCho                                            
    0.104   7%  12.294 NAA+NAAG                                            
    0.111  11%  13.138 Glu+Gln                                             
 6.75E-02   9%   8.000 Cr+PCr                                              
    0.104   7%  12.294 NAA+NAAG                                            
 6.75E-02   9%   8.000 Cr+PCr                                              
    0.111  11%  13.138 Glu+Gln                                             
   6 lines in following misc. output table
  FWHM = 0.035 ppm    S/N =   4                                            
  Data shift = 0.041 ppm                                                   
  Ph:  24 deg     -12.6 deg/ppm                                            
  alphaB,S = 3.1E+01,   1.4E+01                                            
   18 spline knots.   Ns = 6(1)                                            
  ( 3) 2 infls.   ( 2) 2 extrs.                                            
  654 points on ppm-axis = NY
      4.000000     3.994181     3.988363     3.982544     3.976726     3.970907     3.965088     3.959270     3.953451     3.947633
      3.941814     3.935995     3.930177     3.924358     3.918540     3.912721     3.906902     3.901084     3.895265     3.889446
      3.883628     3.877809     3.871991     3.866172     3.860353     3.854535     3.848716     3.842898     3.837079     3.831260
      3.825442     3.819623     3.813805     3.807986     3.802167     3.796349     3.790530     3.784712     3.778893     3.773074
      3.767256     3.761437     3.755619     3.749800     3.743981     3.738163     3.732344     3.726526     3.720707     3.714888
      3.709070     3.703251     3.697433     3.691614     3.685795     3.679977     3.674158     3.668339     3.662521     3.656702
      3.650884     3.645065     3.639246     3.633428     3.627609     3.621791     3.615972     3.610153     3.604335     3.598516
      3.592698     3.586879     3.581060     3.575242     3.569423     3.563605     3.557786     3.551967     3.546149     3.540330
      3.534512     3.528693     3.522874     3.517056     3.511237     3.505419     3.499600     3.493781     3.487963     3.482144
      3.476326     3.470507     3.464688     3.458870     3.453051     3.447232     3.441414     3.435595     3.429777     3.423958
      3.418139     3.412321     3.406502     3.400684     3.394865     3.389046     3.383228     3.377409     3.371591     3.365772
      3.359953     3.354135     3.348316     3.342498     3.336679     3.330860     3.325042     3.319223     3.313405     3.307586
      3.301767     3.295949     3.290130     3.284312     3.278493     3.272674     3.266856     3.261037     3.255219     3.249400
      3.243581     3.237763     3.231944     3.226125     3.220307     3.214488     3.208670     3.202851     3.197032     3.191214
      3.185395     3.179577     3.173758     3.167939     3.162121     3.156302     3.150484     3.144665     3.138846     3.133028
      3.127209     3.121391     3.115572     3.109753     3.103935     3.098116     3.092298     3.086479     3.080660     3.074842
      3.069023     3.063205     3.057386     3.051567     3.045749     3.039930     3.034111     3.028293     3.022474     3.016656
      3.010837     3.005018     2.999200     2.993381     2.987563     2.981744     2.975925     2.970107     2.964288     2.958470
      2.952651     2.946832     2.941014     2.935195     2.929377     2.923558     2.917739     2.911921     2.906102     2.900284
      2.894465     2.888646     2.882828     2.877009     2.871191     2.865372     2.859553     2.853735     2.847916     2.842098
      2.836279     2.830460     2.824642     2.818823     2.813004     2.807186     2.801367     2.795549     2.789730     2.783911
      2.778093     2.772274     2.766456     2.760637     2.754818     2.749000     2.743181     2.737363     2.731544     2.725725
      2.719907     2.714088     2.708270     2.702451     2.696632     2.690814     2.684995     2.679177     2.673358     2.667539
      2.661721     2.655902     2.650084     2.644265     2.638446     2.632628     2.626809     2.620991     2.615172     2.609353
      2.603535     2.597716     2.591897     2.586079     2.580260     2.574442     2.568623     2.562804     2.556986     2.551167
      2.545349     2.539530     2.533711     2.527893     2.522074     2.516256     2.510437     2.504618     2.498800     2.492981
      2.487163     2.481344     2.475525     2.469707     2.463888     2.458070     2.452251     2.446432     2.440614     2.434795
      2.428977     2.423158     2.417339     2.411521     2.405702     2.399884     2.394065     2.388246     2.382428     2.376609
      2.370790     2.364972     2.359153     2.353335     2.347516     2.341697     2.335879     2.330060     2.324242     2.318423
      2.312604     2.306786     2.300967     2.295149     2.289330     2.283511     2.277693     2.271874     2.266056     2.260237
      2.254418     2.248600     2.242781     2.236963     2.231144     2.225325     2.219507     2.213688     2.207870     2.202051
      2.196232     2.190414     2.184595     2.178777     2.172958     2.167139     2.161321     2.155502     2.149683     2.143865
      2.138046     2.132228     2.126409     2.120590     2.114772     2.108953     2.103135     2.097316     2.091497     2.085679
      2.079860     2.074042     2.068223     2.062404     2.056586     2.050767     2.044949     2.039130     2.033311     2.027493
      2.021674     2.015856     2.010037     2.004218     1.998400     1.992581     1.986763     1.980944     1.975126     1.969307
      1.963489     1.957670     1.951852     1.946033     1.940215     1.934397     1.928578     1.922760     1.916941     1.911123
      1.905304     1.899486     1.893667     1.887849     1.882030     1.876212     1.870393     1.864575     1.858756     1.852938
      1.847119     1.841301     1.835482     1.829664     1.823845     1.818027     1.812208     1.806390     1.800571     1.794753
      1.788934     1.783116     1.777297     1.771479     1.765660     1.759842     1.754023     1.748205     1.742386     1.736568
      1.730749     1.724931     1.719113     1.713294     1.707476     1.701657     1.695839     1.690020     1.684202     1.678383
      1.672565     1.666746     1.660928     1.655109     1.649291     1.643472     1.637654     1.631835     1.626017     1.620198
      1.614380     1.608561     1.602743     1.596924     1.591106     1.585287     1.579469     1.573650     1.567832     1.562013
      1.556195     1.550376     1.544558     1.538739     1.532921     1.527102     1.521284     1.515465     1.509647     1.503829
      1.498010     1.492192     1.486373     1.480555     1.474736     1.468918     1.463099     1.457281     1.451462     1.445644
      1.439825     1.434007     1.428188     1.422370     1.416551     1.410733     1.404914     1.399096     1.393277     1.387459
      1.381640     1.375822     1.370003     1.364185     1.358366     1.352548     1.346729     1.340911     1.335092     1.329274
      1.323455     1.317637     1.311818     1.306000     1.300182     1.294363     1.288545     1.282726     1.276908     1.271089
      1.265271     1.259452     1.253634     1.247815     1.241997     1.236178     1.230360     1.224541     1.218723     1.212904
      1.207086     1.201267     1.195449     1.189630     1.183812     1.177993     1.172175     1.166356     1.160538     1.154719
      1.148901     1.143082     1.137264     1.131445     1.125627     1.119808     1.113990     1.108171     1.102353     1.096534
      1.090716     1.084898     1.079079     1.073261     1.067442     1.061624     1.055805     1.049987     1.044168     1.038350
      1.032531     1.026713     1.020894     1.015076     1.009257     1.003439     0.997620     0.991802     0.985983     0.980165
      0.974346     0.968528     0.962709     0.956891     0.951072     0.945254     0.939435     0.933617     0.927798     0.921980
      0.916161     0.910343     0.904524     0.898706     0.892887     0.887069     0.881251     0.875432     0.869614     0.863795
      0.857977     0.852158     0.846340     0.840521     0.834703     0.828884     0.823066     0.817247     0.811429     0.805610
      0.799792     0.793973     0.788155     0.782336     0.776518     0.770699     0.764881     0.759062     0.753244     0.747425
      0.741607     0.735788     0.729970     0.724151     0.718333     0.712514     0.706696     0.700877     0.695059     0.689240
      0.683422     0.677603     0.671785     0.665967     0.660148     0.654330     0.648511     0.642693     0.636874     0.631056
      0.625237     0.619419     0.613600     0.607782     0.601963     0.596145     0.590326     0.584508     0.578689     0.572871
      0.567052     0.561234     0.555415     0.549597     0.543778     0.537960     0.532141     0.526323     0.520504     0.514686
      0.508867     0.503049     0.497230     0.491412     0.485593     0.479775     0.473956     0.468138     0.462319     0.456501
      0.450682     0.444864     0.439045     0.433227     0.427408     0.421590     0.415771     0.409953     0.404134     0.398316
      0.392497     0.386679     0.380860     0.375042     0.369223     0.363405     0.357586     0.351767     0.345949     0.340130
      0.334312     0.328493     0.322675     0.316856     0.311038     0.305219     0.299401     0.293582     0.287764     0.281945
      0.276127     0.270308     0.264490     0.258671     0.252853     0.247034     0.241216     0.235397     0.229579     0.223760
      0.217942     0.212123     0.206305     0.200486
 NY phased data points follow
  -5.06129E-01 -1.35060E-01 -2.27153E-01 -1.61323E-01  1.27866E-01 -4.26780E-01 -1.80803E-01 -2.72746E-01 -1.51069E-01  1.23588E-01
  -3.89609E-01  1.03581E-01  1.26219E-01  2.70279E-01  6.62217E-01  5.99667E-01  3.97939E-01  3.95946E-02 -5.20742E-02  5.50065E-02
   3.52704E-02  1.71964E-01  4.03324E-01 -1.65926E-01 -9.61102E-02 -1.31549E-01 -4.80379E-02 -3.35666E-02 -8.53918E-02  1.59176E-01
  -1.52279E-01 -2.34481E-01 -2.51556E-01  1.11324E-01 -7.22445E-02 -2.33292E-01 -9.66306E-02 -4.88419E-01 -6.88308E-01 -9.67535E-02
  -9.35678E-02 -5.57989E-01 -7.69006E-02  4.76111E-01  1.83786E-01  9.49818E-02  8.50383E-01  7.15078E-01  4.13430E-01 -6.96488E-03
   1.80220E-01  7.02496E-01  2.32425E-01  6.37241E-02  4.19892E-01  1.58577E-01 -7.47275E-02  6.81388E-02 -4.61492E-01 -3.08184E-01
  -4.40956E-01 -6.53985E-01 -3.45180E-01 -4.39580E-04 -2.13737E-01 -2.90799E-01  6.80879E-02 -2.82231E-01 -9.42167E-02 -5.90792E-02
   3.17378E-01  4.10154E-01  1.01412E-01  9.15006E-02  1.84493E-01  2.02252E-01 -1.58792E-01 -1.11490E-01 -2.15926E-01 -2.61182E-01
  -4.41350E-01 -3.20607E-01 -9.39234E-02 -1.83992E-01  8.79228E-04  4.13886E-02  2.65639E-01  3.48617E-01 -1.63046E-01  1.68940E-01
   2.95152E-01 -5.00658E-02  2.25161E-01 -1.40884E-01  1.58345E-01  1.76441E-01 -5.84520E-02  3.15872E-02 -3.44254E-01 -2.98099E-01
  -4.68673E-01 -2.19012E-01 -4.02277E-01 -2.94710E-02  1.06000E-01 -1.86711E-01  6.78923E-01  3.44686E-01  7.57660E-01  6.68494E-01
   3.85708E-01  4.99250E-01 -6.28988E-02  6.23534E-01  3.42283E-01  4.90061E-01  7.94502E-01  4.15786E-01  1.73936E-01  1.31138E-01
   3.54311E-01  1.47866E-01  3.59024E-01 -4.45382E-02  9.37270E-02  1.93530E-01  4.71455E-03 -6.01892E-02 -1.86034E-01 -6.85364E-02
  -4.89411E-01 -4.34873E-01 -4.69908E-01 -4.80958E-01 -5.63404E-01 -4.20523E-01 -2.65128E-01 -3.06491E-01 -4.98173E-01 -5.99059E-01
  -4.28560E-01 -3.69013E-01  2.56405E-01  3.73507E-02 -2.18812E-02  3.42278E-02  7.63038E-02  2.70153E-01 -7.44055E-02  1.74293E-01
   3.90997E-01  2.04733E-01  2.33975E-01  2.03312E-01  6.90187E-02  4.25445E-01  4.14461E-01  2.54337E-01 -3.21345E-02  1.09684E-01
   3.19299E-01  3.47379E-01  7.46143E-01  7.26536E-01  9.54933E-01  9.73878E-01  8.63347E-01  5.02547E-01  1.92849E-01 -3.16299E-01
  -5.52365E-01 -5.63511E-01 -9.06166E-01 -6.32753E-01 -4.04979E-01 -2.90385E-01 -5.55366E-01 -3.17401E-01 -3.46978E-01 -2.70989E-01
  -4.30174E-02 -3.94940E-01 -1.37182E-01 -2.69937E-01 -3.11735E-01 -2.48814E-01 -4.91149E-01 -1.49774E-01  1.59070E-02 -4.68523E-01
  -2.70832E-01 -8.81825E-02 -2.93908E-01 -5.66522E-01 -4.40335E-01 -2.52725E-01 -4.34270E-01 -8.09537E-02  1.27906E-03 -1.20515E-01
  -4.39895E-01 -1.41817E-01 -3.59772E-04 -2.61303E-01 -1.74329E-01 -2.09612E-03  2.33818E-01 -2.48105E-01 -2.73162E-01  4.03227E-02
   4.77649E-02 -1.79042E-01  6.42655E-03  2.17301E-01 -1.40127E-01 -1.24119E-01  2.93447E-01  4.66140E-02 -2.28427E-01  1.47252E-02
  -4.09354E-02  1.47240E-01 -7.15219E-02 -8.92443E-03  6.26705E-02  6.69542E-02  3.31547E-01  4.27504E-01  5.22542E-01  1.52104E-01
   1.93987E-01  2.44460E-01  3.40766E-01  2.27419E-01  2.26734E-01  3.23393E-01  8.64735E-02 -5.61558E-02  1.18854E-01  2.93672E-01
  -5.25292E-01 -4.55011E-01  1.35894E-01  2.40128E-02 -1.85857E-01 -2.29360E-01 -2.46032E-02 -6.56310E-02 -4.61345E-01 -3.75550E-01
  -3.20151E-01 -1.67392E-01  3.73806E-01 -2.16096E-01 -3.19261E-01 -2.58997E-01 -9.17937E-02 -1.25465E-02 -1.76754E-01  3.78380E-01
   5.37278E-02 -6.63127E-02  1.05039E-01  4.03550E-01  4.03866E-01  1.43899E-01 -1.20979E-01 -1.42579E-01  1.03946E-01  1.70925E-01
   5.67408E-01  1.34448E-01  3.09873E-01  1.18943E-01  1.74862E-01  3.70408E-01 -2.08506E-01  1.08409E-01 -4.19185E-01 -1.64613E-01
  -1.63659E-01 -5.36469E-01 -2.09133E-01 -3.96143E-01 -3.19898E-01 -1.77281E-01  1.51749E-01  4.42911E-01  6.81298E-01  5.95420E-01
   4.02112E-01  4.62576E-02  3.90864E-02  3.17225E-01  1.67400E-01  2.78536E-01  6.85017E-02  2.92810E-02  2.41218E-01  1.18971E-01
   1.13566E-01  1.63500E-01 -1.74288E-02  9.47691E-03  2.30531E-01  6.20756E-01  6.25903E-01  4.02054E-01  7.09836E-01  5.87039E-02
  -7.05609E-02  5.06949E-01  2.35682E-01  4.15680E-01  6.11621E-01  2.27474E-01  3.08037E-04  7.45415E-02  3.45090E-02 -5.37585E-02
  -1.88968E-01 -2.74360E-01 -5.93958E-01 -4.97524E-01 -2.93828E-02 -2.61793E-01 -2.31147E-01 -3.64197E-01  4.45892E-02  4.51091E-01
   3.05567E-02  2.01264E-01  1.44023E-01 -5.20268E-02  8.55856E-03  4.89300E-02 -4.06066E-01  1.63415E-01  3.89474E-01 -5.65498E-01
  -3.50752E-01 -8.06114E-01 -1.20650E+00 -1.58314E+00 -1.65261E+00 -1.32220E+00 -1.47345E+00 -9.31623E-01 -6.06521E-01 -1.14341E-01
   6.86790E-02  1.30395E-01  1.99095E-01  1.87396E-01  4.57843E-02 -4.60309E-02  1.42903E-01 -1.40019E-01  2.07208E-01  1.00004E-01
  -1.65316E-02  1.96373E-01  8.59955E-02  1.27657E-01  4.53792E-02  5.72935E-02  9.20903E-02  3.09715E-03  7.77622E-02  3.33955E-01
   1.73248E-01  1.16175E-01  3.96515E-02  1.48595E-01  7.36694E-02  1.13164E-01  3.34524E-01 -7.79952E-02  1.44475E-01  3.38132E-01
   9.79421E-02  4.22359E-02  1.71328E-01  4.30640E-02  2.02156E-01  4.28369E-01  2.73578E-01  1.96436E-01  3.86514E-02  1.20367E-01
   2.95062E-01  3.59372E-01  2.93735E-01  3.06797E-01  2.37210E-01  1.35495E-01 -8.39875E-02  9.64718E-02  3.45349E-01  1.31510E-01
   9.07049E-02  3.52662E-01  3.48611E-01 -1.61212E-01  1.78168E-01  1.40607E-01 -1.22051E-01  1.23989E-01 -1.10460E-01 -2.10388E-01
  -3.11580E-02  1.13595E-01  9.47610E-02  1.02087E-01  1.52239E-02 -1.60419E-01 -1.51333E-01 -1.01146E-01 -8.83022E-02  6.17146E-02
  -7.51624E-02 -7.09131E-02  5.51735E-02 -4.15012E-02  1.01516E-01  1.35540E-01  1.55186E-01  7.17631E-02 -2.34931E-01 -3.37368E-01
   2.29758E-02 -7.39214E-03 -3.87865E-01 -1.99936E-01 -2.02727E-01 -1.79589E-01 -1.51885E-01 -2.22705E-01  2.02213E-01 -8.36104E-03
  -2.02353E-01 -1.24753E-01 -6.90006E-02 -6.82159E-02 -1.66268E-01  2.25929E-02 -1.45838E-01  1.33503E-01  1.55910E-01 -2.65327E-02
   8.07137E-02  4.78644E-01  2.21199E-01 -1.49884E-01  3.84515E-01 -1.93948E-01 -1.62013E-01 -1.90905E-02 -2.32765E-01  2.21776E-01
   7.70345E-02 -2.78464E-01  4.86466E-02  3.90111E-02 -3.29965E-01 -1.37141E-01  1.29053E-01  2.14311E-01 -2.06476E-01 -1.73779E-01
  -4.09689E-02 -2.67550E-01 -2.19688E-01 -5.00230E-02 -4.22859E-01 -2.85962E-01  5.21739E-02 -2.28547E-01  1.88727E-01 -2.92484E-01
  -4.84847E-01  2.29413E-01  8.71683E-02 -6.91813E-02  1.21326E-01  3.96635E-01 -3.65065E-02 -2.32529E-01  3.30184E-01  1.34949E-01
   1.46864E-01  8.88371E-02 -1.13640E-01 -1.37920E-01 -2.87596E-02  6.75551E-02 -7.64065E-02  1.04239E-01 -2.96558E-01  3.33092E-01
   1.93790E-01  1.10599E-01  3.04122E-01 -2.22423E-01  3.01338E-01  9.34322E-02  2.02327E-01  2.12361E-05  8.31990E-02  1.35932E-01
   2.58325E-01  3.88992E-01  9.38624E-02  2.57271E-01  4.81761E-02  1.82243E-01  4.65757E-02  3.04295E-01  2.37387E-01 -6.86330E-02
   1.35401E-01  5.67834E-02 -1.87926E-01 -1.83868E-01 -3.41274E-02  6.98943E-03 -6.29569E-01 -6.91679E-01 -1.73238E-01 -6.66807E-01
  -6.19149E-01 -4.61471E-01 -3.10262E-01 -3.62835E-01 -2.15348E-01 -2.91866E-01 -3.02070E-01 -2.07164E-01 -4.91633E-01  6.31712E-02
   8.75771E-02 -5.08344E-02 -1.24044E-01 -2.29293E-01 -2.23371E-01 -2.12771E-01 -2.56937E-01 -3.12680E-01 -1.45703E-01  2.45406E-01
   9.56765E-02  1.06476E-01  1.91549E-02  6.41006E-02  3.14903E-01 -1.38746E-01  4.39957E-01  8.45247E-02  1.08957E-01  8.15622E-02
  -3.32605E-01  1.82827E-01  1.66876E-01  4.21937E-01  2.98574E-01  4.11152E-01  1.32716E-01 -6.71667E-02  4.59563E-01 -7.41686E-02
  -2.23586E-01  2.24854E-01 -1.29739E-01  8.12963E-02  2.57805E-02  1.68593E-01  2.47504E-01 -2.52861E-01  1.77876E-01 -1.17772E-01
  -7.15796E-02  1.93199E-01 -1.68987E-01  1.20987E-01  5.70810E-01 -5.67997E-02  1.08077E-01  2.68800E-01 -3.37345E-01  5.10498E-03
  -1.37559E-02  4.54452E-02 -3.19706E-02 -2.82428E-01 -3.97419E-01 -1.16261E-01  3.52541E-01  2.87533E-02 -1.30853E-01  3.42690E-01
   1.19993E-01 -7.10913E-02 -2.41792E-01 -2.44295E-01  3.28804E-01 -1.61625E-01 -9.08148E-02  2.14538E-01  1.33223E-01  1.96499E-01
   2.47538E-01 -2.88225E-01 -2.39354E-01  1.73217E-01 -2.93063E-01 -3.22483E-02  1.35137E-01  1.07251E-01 -1.20412E-01  1.12496E-01
   2.96678E-01 -6.12069E-02  1.23527E-01  1.19424E-02 -2.14738E-01 -1.34340E-01 -1.80988E-01 -9.27623E-02  1.25553E-01 -1.20533E-01
  -2.04086E-01 -7.08254E-02 -3.35152E-01 -6.17490E-02  3.37290E-01 -6.23736E-02 -1.15893E-01 -1.46774E-01  2.09818E-01 -3.28928E-02
  -7.98576E-02  3.09328E-01 -3.17306E-01 -6.09604E-03  1.20509E-01 -1.20480E-02 -1.72347E-01  4.01135E-02  3.22298E-01  2.24003E-01
   6.89549E-02  2.95608E-02  3.64666E-01 -8.10126E-02
 NY points of the fit to the data follow
   5.95140E-02  6.25513E-02  5.72394E-02  4.66307E-02  3.25403E-02  1.49000E-02 -1.72878E-02 -6.15602E-02 -1.98401E-02  7.28397E-02
   1.16476E-01  2.27940E-01  3.75266E-01  4.74356E-01  5.27814E-01  5.22578E-01  4.82482E-01  3.81518E-01  2.65651E-01  2.01599E-01
   1.31443E-01  6.24921E-02  2.41711E-02 -3.03888E-03 -2.68972E-02 -4.81518E-02 -6.92996E-02 -8.71169E-02 -9.97865E-02 -1.08075E-01
  -1.14408E-01 -1.21210E-01 -1.29076E-01 -1.42738E-01 -1.69255E-01 -2.11512E-01 -2.75298E-01 -3.12990E-01 -3.14537E-01 -2.93317E-01
  -2.11510E-01 -9.10001E-02  6.63439E-02  2.16540E-01  3.34201E-01  4.11947E-01  4.32810E-01  4.07369E-01  3.62905E-01  3.11083E-01
   2.59141E-01  2.09990E-01  1.70005E-01  1.34570E-01  1.01619E-01  6.29963E-02  2.29922E-02 -2.20757E-02 -9.14648E-02 -1.47399E-01
  -1.76298E-01 -2.65508E-01 -3.18996E-01 -2.87940E-01 -2.92566E-01 -2.49249E-01 -1.43755E-01 -2.49365E-02  9.80975E-02  1.88246E-01
   2.86689E-01  3.36956E-01  3.14805E-01  2.98447E-01  2.63034E-01  1.80440E-01  5.29207E-02 -6.34550E-02 -1.53702E-01 -2.74422E-01
  -3.49923E-01 -3.38412E-01 -2.67386E-01 -1.45554E-01  2.92462E-03  1.65197E-01  2.79076E-01  3.26914E-01  3.52714E-01  3.39559E-01
   2.97058E-01  2.61222E-01  2.38064E-01  2.06046E-01  1.67571E-01  8.67392E-02 -3.28316E-02 -1.51369E-01 -2.87150E-01 -3.61882E-01
  -3.87282E-01 -3.46732E-01 -2.31493E-01 -8.81280E-02  6.88806E-02  1.91793E-01  2.61855E-01  2.98513E-01  2.99128E-01  2.93363E-01
   2.88713E-01  2.85091E-01  2.80903E-01  2.77169E-01  2.73768E-01  2.70387E-01  2.70000E-01  2.76974E-01  2.75762E-01  2.63831E-01
   2.68697E-01  2.41144E-01  1.88591E-01  1.76837E-01  1.25305E-01  5.27082E-02 -4.05468E-02 -1.75843E-01 -2.95630E-01 -4.46845E-01
  -5.30817E-01 -5.10271E-01 -5.14246E-01 -5.22445E-01 -4.66421E-01 -4.36372E-01 -4.42156E-01 -4.77730E-01 -4.88577E-01 -4.46917E-01
  -3.78412E-01 -2.56100E-01 -1.16738E-01 -3.85117E-02  7.18125E-03  4.02956E-02  6.67413E-02  8.92155E-02  1.08989E-01  1.26659E-01
   1.42633E-01  1.57381E-01  1.71557E-01  1.85441E-01  2.00088E-01  2.15867E-01  2.32218E-01  2.49437E-01  2.67696E-01  2.85443E-01
   2.98392E-01  3.36133E-01  5.31079E-01  7.61093E-01  8.04907E-01  7.90451E-01  7.00136E-01  4.67425E-01  1.16764E-01 -2.66475E-01
  -5.50325E-01 -7.44039E-01 -7.87503E-01 -6.56162E-01 -5.15933E-01 -4.34136E-01 -3.85495E-01 -3.50727E-01 -3.18323E-01 -2.93355E-01
  -2.72652E-01 -2.53724E-01 -2.42144E-01 -2.30764E-01 -2.20415E-01 -2.11822E-01 -2.06388E-01 -2.05679E-01 -2.03172E-01 -1.98575E-01
  -1.92935E-01 -1.84790E-01 -1.76133E-01 -1.67284E-01 -1.58053E-01 -1.47905E-01 -1.38357E-01 -1.30194E-01 -1.21611E-01 -1.11610E-01
  -1.02236E-01 -9.42525E-02 -8.81400E-02 -8.22806E-02 -7.56337E-02 -7.09069E-02 -6.82791E-02 -6.68381E-02 -6.63328E-02 -6.65638E-02
  -6.85267E-02 -7.16034E-02 -7.48763E-02 -7.80568E-02 -7.88768E-02 -7.74132E-02 -7.55058E-02 -7.44668E-02 -7.53883E-02 -8.28597E-02
  -1.04289E-01 -1.06190E-01 -6.02178E-02 -1.04258E-02  2.83385E-02  8.15709E-02  1.56099E-01  2.35866E-01  2.86305E-01  3.12974E-01
   3.26638E-01  3.10678E-01  2.82225E-01  2.40181E-01  1.72327E-01  8.91414E-02  1.11572E-02 -3.86221E-02 -6.36121E-02 -8.03069E-02
  -9.26187E-02 -1.02855E-01 -1.11509E-01 -1.20438E-01 -1.26792E-01 -1.33144E-01 -1.37013E-01 -1.36449E-01 -1.38294E-01 -1.35472E-01
  -1.36870E-01 -1.49529E-01 -1.79000E-01 -1.93951E-01 -1.91614E-01 -2.12715E-01 -2.08636E-01 -1.62678E-01 -9.83359E-02 -5.03408E-02
  -1.09244E-03  7.27353E-02  1.02722E-01  1.14109E-01  1.34336E-01  1.37939E-01  1.41766E-01  1.38248E-01  1.53724E-01  1.66144E-01
   1.61051E-01  1.62678E-01  1.51527E-01  1.28272E-01  9.69731E-02  5.63713E-02  1.83605E-02 -3.75834E-02 -1.07042E-01 -1.86643E-01
  -2.88214E-01 -3.61263E-01 -4.02660E-01 -3.98562E-01 -3.11265E-01 -1.79344E-01 -9.17347E-03  1.63618E-01  2.96064E-01  3.85875E-01
   4.03956E-01  3.77586E-01  3.38377E-01  2.85062E-01  2.50628E-01  2.32138E-01  2.24764E-01  2.28235E-01  2.32130E-01  2.36446E-01
   2.36558E-01  2.30742E-01  2.23627E-01  2.14494E-01  2.06577E-01  1.99793E-01  1.93496E-01  1.87281E-01  1.81001E-01  1.74140E-01
   1.66132E-01  1.55750E-01  1.44240E-01  1.22651E-01  9.15650E-02  4.96562E-02 -5.36935E-03 -7.12537E-02 -1.49126E-01 -2.22409E-01
  -2.98447E-01 -3.59528E-01 -4.00406E-01 -4.12796E-01 -3.91852E-01 -3.39343E-01 -2.62323E-01 -1.70638E-01 -8.05891E-02 -1.17996E-02
   3.29207E-02  4.00499E-02  1.87005E-02 -1.54957E-02 -5.93363E-02 -8.06781E-02 -3.63340E-02  1.70281E-01  1.50336E-01 -1.82108E-01
  -4.23322E-01 -7.82992E-01 -1.20409E+00 -1.55548E+00 -1.70995E+00 -1.57991E+00 -1.33088E+00 -9.07713E-01 -4.55765E-01 -2.40581E-01
  -1.48766E-01 -9.77708E-02 -6.35991E-02 -3.82491E-02 -1.94303E-02 -4.00972E-03  7.95155E-03  1.57804E-02  2.14580E-02  2.10960E-02
   1.76298E-02  1.03797E-02 -7.23708E-05 -8.67875E-03 -1.67536E-02 -2.06206E-02 -2.00440E-02 -1.63406E-02 -8.90006E-03 -2.80057E-04
   9.03141E-03  1.76256E-02  2.47771E-02  3.11315E-02  3.64861E-02  4.12760E-02  4.53872E-02  4.90824E-02  5.23037E-02  5.53318E-02
   5.83142E-02  6.14089E-02  6.42884E-02  6.69867E-02  6.92716E-02  7.14001E-02  7.34546E-02  7.51271E-02  7.70749E-02  7.92035E-02
   8.17170E-02  8.44165E-02  8.68806E-02  8.90432E-02  9.03198E-02  9.06546E-02  9.02034E-02  8.88902E-02  8.71604E-02  8.52134E-02
   8.26496E-02  7.91472E-02  7.49965E-02  7.03506E-02  6.53219E-02  5.98028E-02  5.45263E-02  4.93832E-02  4.41468E-02  3.93972E-02
   3.48531E-02  3.05322E-02  2.65685E-02  2.29195E-02  1.97621E-02  1.67526E-02  1.39389E-02  1.14932E-02  8.83514E-03  6.22046E-03
   4.11783E-03  2.13537E-03  4.24870E-04 -7.07302E-04 -1.28864E-03 -1.22426E-03 -1.98610E-04  2.15266E-03  4.93996E-03  7.71689E-03
   1.05585E-02  1.32918E-02  1.58651E-02  1.83271E-02  2.10287E-02  2.40820E-02  2.76810E-02  3.23203E-02  3.76357E-02  4.32264E-02
   4.93977E-02  5.58998E-02  6.30538E-02  7.12905E-02  8.02050E-02  8.96478E-02  9.92272E-02  1.08544E-01  1.17268E-01  1.24948E-01
   1.31286E-01  1.36112E-01  1.39602E-01  1.41867E-01  1.42912E-01  1.42459E-01  1.40684E-01  1.37494E-01  1.32695E-01  1.26592E-01
   1.19562E-01  1.11585E-01  1.03466E-01  9.57602E-02  8.80087E-02  8.04054E-02  7.30492E-02  6.62214E-02  5.99835E-02  5.41497E-02
   4.87196E-02  4.35978E-02  3.90920E-02  3.52590E-02  3.20636E-02  2.99671E-02  2.88400E-02  2.86252E-02  2.93546E-02  3.12096E-02
   3.38657E-02  3.69204E-02  4.06473E-02  4.47741E-02  4.86071E-02  5.19390E-02  5.51766E-02  5.81048E-02  6.04094E-02  6.26629E-02
   6.47014E-02  6.66383E-02  6.84041E-02  6.91233E-02  6.90906E-02  6.81794E-02  6.66475E-02  6.47731E-02  6.24299E-02  6.01332E-02
   5.77372E-02  5.52878E-02  5.29699E-02  5.03440E-02  4.73511E-02  4.43509E-02  4.14826E-02  3.85608E-02  3.57338E-02  3.33645E-02
   3.13394E-02  2.92433E-02  2.69017E-02  2.41705E-02  2.08834E-02  1.71172E-02  1.29240E-02  8.30903E-03  2.66718E-03 -4.16180E-03
  -1.19052E-02 -2.13091E-02 -3.24302E-02 -4.48836E-02 -5.80108E-02 -7.13117E-02 -8.47922E-02 -9.81016E-02 -1.10367E-01 -1.21462E-01
  -1.31543E-01 -1.40128E-01 -1.46585E-01 -1.50793E-01 -1.52826E-01 -1.52782E-01 -1.50862E-01 -1.47893E-01 -1.44318E-01 -1.39798E-01
  -1.35046E-01 -1.30488E-01 -1.25565E-01 -1.20193E-01 -1.14068E-01 -1.07307E-01 -9.97642E-02 -9.18378E-02 -8.40981E-02 -7.58479E-02
  -6.76006E-02 -5.98116E-02 -5.24256E-02 -4.53512E-02 -3.80731E-02 -3.12782E-02 -2.54296E-02 -1.95573E-02 -1.41369E-02 -9.33582E-03
  -4.71762E-03 -7.09914E-04  2.81048E-03  5.82776E-03  8.62927E-03  1.12965E-02  1.30330E-02  1.44960E-02  1.58768E-02  1.67156E-02
   1.76617E-02  1.89561E-02  2.03794E-02  2.17683E-02  2.34619E-02  2.52948E-02  2.64822E-02  2.74543E-02  2.82079E-02  2.83347E-02
   2.83778E-02  2.84061E-02  2.82462E-02  2.79565E-02  2.76254E-02  2.78793E-02  2.85491E-02  2.87535E-02  2.87092E-02  2.87879E-02
   2.86105E-02  2.79223E-02  2.67903E-02  2.60200E-02  2.57812E-02  2.53351E-02  2.51557E-02  2.51113E-02  2.47168E-02  2.41048E-02
   2.34284E-02  2.30793E-02  2.29122E-02  2.31105E-02  2.37884E-02  2.43864E-02  2.49943E-02  2.57429E-02  2.66497E-02  2.74000E-02
   2.77325E-02  2.80970E-02  2.79655E-02  2.75183E-02  2.71119E-02  2.68064E-02  2.68598E-02  2.69150E-02  2.70085E-02  2.76542E-02
   2.82451E-02  2.90260E-02  3.01979E-02  3.11581E-02  3.21227E-02  3.28574E-02  3.34196E-02  3.38142E-02  3.33926E-02  3.28633E-02
   3.25114E-02  3.22251E-02  3.23714E-02  3.25169E-02  3.20143E-02  3.13403E-02  3.11887E-02  3.12027E-02  3.11087E-02  3.11733E-02
   3.14396E-02  3.17844E-02  3.20139E-02  3.20009E-02  3.19589E-02  3.20338E-02  3.24166E-02  3.33033E-02  3.46483E-02  3.64129E-02
   3.81243E-02  3.96486E-02  4.13554E-02  4.25502E-02
 NY background values follow
     5.053E-02    5.038E-02    5.024E-02    5.010E-02    4.996E-02    4.981E-02    4.967E-02    4.953E-02    4.939E-02    4.924E-02
     4.910E-02    4.896E-02    4.881E-02    4.867E-02    4.853E-02    4.839E-02    4.824E-02    4.810E-02    4.796E-02    4.781E-02
     4.767E-02    4.753E-02    4.739E-02    4.724E-02    4.710E-02    4.696E-02    4.681E-02    4.667E-02    4.653E-02    4.638E-02
     4.624E-02    4.610E-02    4.596E-02    4.581E-02    4.567E-02    4.553E-02    4.538E-02    4.524E-02    4.510E-02    4.495E-02
     4.481E-02    4.467E-02    4.452E-02    4.438E-02    4.424E-02    4.409E-02    4.395E-02    4.381E-02    4.366E-02    4.352E-02
     4.337E-02    4.323E-02    4.309E-02    4.294E-02    4.280E-02    4.266E-02    4.251E-02    4.237E-02    4.223E-02    4.208E-02
     4.194E-02    4.179E-02    4.165E-02    4.151E-02    4.136E-02    4.122E-02    4.108E-02    4.093E-02    4.079E-02    4.064E-02
