 
 $NMID
 ID=''
 FMTDAT='(2E13.5)'
 TRAMP=   1.00000E+0
 VOLUME=   1.00000E+0
 $END
  -2.20127E+4   3.58372E+3
  -5.69005E+4  -6.88084E+3
  -5.72300E+4   3.59661E+3
  -5.27497E+4   3.56765E+3
  -5.48235E+4   2.25151E+3
  -5.46994E+4   4.89953E+3
  -5.26778E+4   4.32546E+3
  -5.35219E+4   3.39916E+3
  -5.33539E+4   4.96154E+3
  -5.19854E+4   4.62495E+3
  -5.23387E+4   3.87440E+3
  -5.20421E+4   5.06427E+3
  -5.10750E+4   5.03224E+3
  -5.13230E+4   4.39572E+3
  -5.11646E+4   5.01951E+3
  -5.00621E+4   5.07014E+3
  -5.01924E+4   4.80560E+3
  -4.99730E+4   5.30743E+3
  -4.91241E+4   5.44015E+3
  -4.91075E+4   5.20287E+3
  -4.87478E+4   5.73679E+3
  -4.81009E+4   6.00802E+3
  -4.80880E+4   5.95596E+3
  -4.77459E+4   6.21966E+3
  -4.69853E+4   6.40305E+3
  -4.68859E+4   6.42709E+3
  -4.66005E+4   6.61469E+3
  -4.59100E+4   6.55133E+3
  -4.56658E+4   6.50930E+3
  -4.53835E+4   6.72894E+3
  -4.48107E+4   6.89154E+3
  -4.46132E+4   6.92009E+3
  -4.42984E+4   7.04362E+3
  -4.38005E+4   7.13326E+3
  -4.35143E+4   7.23838E+3
  -4.32150E+4   7.36929E+3
  -4.26055E+4   7.56544E+3
  -4.22913E+4   7.65976E+3
  -4.20476E+4   7.86667E+3
  -4.15271E+4   8.00134E+3
  -4.12783E+4   8.11824E+3
  -4.10363E+4   8.10497E+3
  -4.05557E+4   8.04673E+3
  -4.01724E+4   8.16059E+3
  -3.98867E+4   8.33730E+3
  -3.94823E+4   8.44285E+3
  -3.92217E+4   8.39118E+3
  -3.88178E+4   8.47959E+3
  -3.85034E+4   8.65798E+3
  -3.81927E+4   8.76219E+3
  -3.78882E+4   8.88294E+3
  -3.75107E+4   8.82267E+3
  -3.71376E+4   8.97755E+3
  -3.68524E+4   9.11417E+3
  -3.64920E+4   9.23239E+3
  -3.62514E+4   9.23699E+3
  -3.59028E+4   9.29989E+3
  -3.56098E+4   9.39464E+3
  -3.52759E+4   9.34482E+3
  -3.49693E+4   9.44616E+3
  -3.46329E+4   9.50722E+3
  -3.43371E+4   9.59429E+3
  -3.40877E+4   9.68255E+3
  -3.38001E+4   9.66343E+3
  -3.36074E+4   9.70738E+3
  -3.32651E+4   9.85410E+3
  -3.29602E+4   9.90601E+3
  -3.27365E+4   9.95329E+3
  -3.24517E+4   9.89523E+3
  -3.21777E+4   1.00260E+4
  -3.19442E+4   1.00028E+4
  -3.17045E+4   1.00349E+4
  -3.13586E+4   1.00136E+4
  -3.11273E+4   1.00208E+4
  -3.08220E+4   1.00902E+4
  -3.05588E+4   1.01024E+4
  -3.03729E+4   1.02454E+4
  -3.01059E+4   1.02742E+4
  -2.98061E+4   1.01957E+4
  -2.96525E+4   1.03053E+4
  -2.94003E+4   1.03228E+4
  -2.92187E+4   1.02964E+4
  -2.89949E+4   1.03331E+4
  -2.87198E+4   1.03060E+4
  -2.85426E+4   1.03313E+4
  -2.83337E+4   1.02689E+4
  -2.81585E+4   1.01686E+4
  -2.78384E+4   1.01483E+4
  -2.76949E+4   1.01692E+4
  -2.75131E+4   1.01508E+4
  -2.73498E+4   1.01469E+4
  -2.71051E+4   1.01284E+4
  -2.69065E+4   1.01129E+4
  -2.66597E+4   1.01088E+4
  -2.64332E+4   1.00698E+4
  -2.62623E+4   9.96558E+3
  -2.59933E+4   9.99668E+3
  -2.57922E+4   1.00437E+4
  -2.56504E+4   9.98306E+3
  -2.53812E+4   9.96057E+3
  -2.52090E+4   9.90929E+3
  -2.49906E+4   9.89196E+3
  -2.47384E+4   9.87683E+3
  -2.45539E+4   9.86234E+3
  -2.43853E+4   9.86869E+3
  -2.42242E+4   9.86424E+3
  -2.40615E+4   9.81768E+3
  -2.38362E+4   9.74060E+3
  -2.36934E+4   9.70842E+3
  -2.33732E+4   9.71723E+3
  -2.32233E+4   9.74295E+3
  -2.31063E+4   9.75318E+3
  -2.28210E+4   9.73829E+3
  -2.26588E+4   9.64501E+3
  -2.25291E+4   9.63531E+3
  -2.23391E+4   9.61748E+3
  -2.22086E+4   9.58690E+3
  -2.18856E+4   9.62085E+3
  -2.17728E+4   9.57505E+3
  -2.16080E+4   9.50296E+3
  -2.13617E+4   9.54364E+3
  -2.12319E+4   9.49114E+3
  -2.10374E+4   9.41866E+3
  -2.08388E+4   9.39962E+3
  -2.06087E+4   9.44295E+3
  -2.04672E+4   9.45613E+3
  -2.02662E+4   9.41167E+3
  -2.00733E+4   9.37640E+3
  -1.99304E+4   9.37007E+3
  -1.97677E+4   9.34482E+3
  -1.95283E+4   9.29901E+3
  -1.93701E+4   9.27775E+3
  -1.91854E+4   9.24397E+3
  -1.89748E+4   9.29504E+3
  -1.88270E+4   9.25560E+3
  -1.86512E+4   9.16672E+3
  -1.84961E+4   9.14438E+3
  -1.83029E+4   9.10769E+3
  -1.81454E+4   9.09634E+3
  -1.78873E+4   9.17376E+3
  -1.78051E+4   9.07970E+3
  -1.75811E+4   9.05917E+3
  -1.73668E+4   9.01790E+3
  -1.72438E+4   9.07328E+3
  -1.70856E+4   9.01026E+3
  -1.69259E+4   8.96223E+3
  -1.67007E+4   8.96940E+3
  -1.65228E+4   9.01011E+3
  -1.63810E+4   8.95305E+3
  -1.62169E+4   8.93638E+3
  -1.60856E+4   8.90016E+3
  -1.59003E+4   8.90044E+3
  -1.57117E+4   8.79947E+3
  -1.54685E+4   8.85879E+3
  -1.53621E+4   8.87732E+3
  -1.51898E+4   8.89628E+3
  -1.49472E+4   8.87033E+3
  -1.48676E+4   8.78328E+3
  -1.47048E+4   8.74233E+3
  -1.44546E+4   8.77898E+3
  -1.42780E+4   8.76477E+3
  -1.41646E+4   8.74271E+3
  -1.40579E+4   8.69419E+3
  -1.38734E+4   8.65684E+3
  -1.36750E+4   8.62002E+3
  -1.35356E+4   8.58675E+3
  -1.33958E+4   8.51018E+3
  -1.31931E+4   8.52080E+3
  -1.30193E+4   8.56489E+3
  -1.29311E+4   8.49265E+3
  -1.27281E+4   8.50248E+3
  -1.26564E+4   8.50407E+3
  -1.24332E+4   8.48486E+3
  -1.22688E+4   8.43684E+3
  -1.20715E+4   8.44208E+3
  -1.18859E+4   8.36161E+3
  -1.17830E+4   8.36511E+3
  -1.16023E+4   8.33344E+3
  -1.14896E+4   8.27699E+3
  -1.13166E+4   8.31043E+3
  -1.12482E+4   8.24966E+3
  -1.10209E+4   8.19778E+3
  -1.09071E+4   8.17918E+3
  -1.07238E+4   8.14576E+3
  -1.05846E+4   8.14933E+3
  -1.04066E+4   8.14460E+3
  -1.02755E+4   8.07864E+3
  -1.01536E+4   8.07408E+3
  -1.00268E+4   8.05397E+3
  -9.86708E+3   8.05650E+3
  -9.79540E+3   7.96611E+3
  -9.67662E+3   7.84580E+3
  -9.56050E+3   7.88567E+3
  -9.42515E+3   7.90122E+3
  -9.26644E+3   7.79471E+3
  -9.17271E+3   7.78556E+3
  -9.07519E+3   7.71589E+3
  -8.90295E+3   7.70563E+3
  -8.78913E+3   7.63008E+3
  -8.64908E+3   7.69316E+3
  -8.57962E+3   7.65519E+3
  -8.46397E+3   7.61164E+3
  -8.35037E+3   7.52063E+3
  -8.26462E+3   7.54029E+3
  -8.13928E+3   7.41452E+3
  -8.00072E+3   7.38614E+3
  -7.93025E+3   7.33797E+3
  -7.83161E+3   7.25627E+3
  -7.66552E+3   7.20843E+3
  -7.58367E+3   7.24176E+3
  -7.50226E+3   7.27100E+3
  -7.40320E+3   7.16531E+3
  -7.23495E+3   7.12379E+3
  -7.16442E+3   7.07190E+3
  -7.11976E+3   7.06248E+3
  -7.07013E+3   6.97498E+3
  -6.94356E+3   6.91692E+3
  -6.77624E+3   6.83774E+3
  -6.74597E+3   6.87153E+3
  -6.62241E+3   6.79881E+3
  -6.56650E+3   6.76297E+3
  -6.46116E+3   6.72467E+3
  -6.40703E+3   6.65865E+3
  -6.35635E+3   6.55703E+3
  -6.12452E+3   6.54133E+3
  -6.11152E+3   6.51682E+3
  -6.03937E+3   6.54979E+3
  -5.88710E+3   6.50082E+3
  -5.88023E+3   6.39085E+3
  -5.76125E+3   6.25544E+3
  -5.74271E+3   6.28307E+3
  -5.56762E+3   6.19073E+3
  -5.52390E+3   6.22205E+3
  -5.41392E+3   6.17446E+3
  -5.38138E+3   6.07318E+3
  -5.33221E+3   6.13311E+3
  -5.27308E+3   6.03634E+3
  -5.19535E+3   5.89305E+3
  -5.15636E+3   5.88052E+3
  -5.07874E+3   5.88912E+3
  -4.96865E+3   5.82093E+3
  -4.84468E+3   5.80873E+3
  -4.88460E+3   5.80043E+3
  -4.80975E+3   5.71955E+3
  -4.68617E+3   5.71141E+3
  -4.65399E+3   5.63976E+3
  -4.68513E+3   5.58282E+3
  -4.54796E+3   5.57062E+3
  -4.47640E+3   5.54300E+3
  -4.39145E+3   5.45835E+3
  -4.39139E+3   5.50088E+3
  -4.28274E+3   5.41016E+3
  -4.26500E+3   5.35937E+3
  -4.16193E+3   5.28273E+3
  -4.18607E+3   5.27894E+3
  -4.11831E+3   5.24959E+3
  -4.00576E+3   5.17521E+3
  -4.02048E+3   5.19182E+3
  -3.90917E+3   5.08588E+3
  -3.88748E+3   5.15788E+3
  -3.88313E+3   5.03306E+3
  -3.80952E+3   5.04636E+3
  -3.71314E+3   5.05111E+3
  -3.70985E+3   5.03364E+3
  -3.65500E+3   4.95108E+3
  -3.66789E+3   4.91200E+3
  -3.51795E+3   4.86315E+3
  -3.56089E+3   4.80804E+3
  -3.48754E+3   4.82320E+3
  -3.44333E+3   4.79138E+3
  -3.36516E+3   4.75886E+3
  -3.31846E+3   4.72261E+3
  -3.30826E+3   4.71565E+3
  -3.36308E+3   4.66825E+3
  -3.17705E+3   4.60918E+3
  -3.18433E+3   4.64859E+3
  -3.11177E+3   4.65901E+3
  -3.11096E+3   4.57840E+3
  -3.10029E+3   4.49385E+3
  -2.99730E+3   4.47603E+3
  -3.00455E+3   4.44778E+3
  -2.99371E+3   4.44404E+3
  -2.92554E+3   4.44150E+3
  -2.90156E+3   4.34969E+3
  -2.85588E+3   4.33750E+3
  -2.82087E+3   4.37567E+3
  -2.83168E+3   4.37230E+3
  -2.79636E+3   4.30390E+3
  -2.81411E+3   4.25630E+3
  -2.69769E+3   4.30155E+3
  -2.70219E+3   4.28891E+3
  -2.60499E+3   4.18514E+3
  -2.53651E+3   4.21175E+3
  -2.58525E+3   4.20195E+3
  -2.56376E+3   4.18498E+3
  -2.48535E+3   4.17299E+3
  -2.55656E+3   4.07096E+3
  -2.38350E+3   4.10789E+3
  -2.40074E+3   4.02436E+3
  -2.43969E+3   4.02822E+3
  -2.39045E+3   4.04765E+3
  -2.35062E+3   4.01982E+3
  -2.34080E+3   3.95470E+3
  -2.20808E+3   3.99960E+3
  -2.13341E+3   3.89942E+3
  -2.17506E+3   3.99066E+3
  -2.17066E+3   3.88981E+3
  -2.08508E+3   3.84867E+3
  -2.14563E+3   3.90855E+3
  -2.07652E+3   3.89720E+3
  -2.06295E+3   3.83717E+3
  -1.99018E+3   3.87822E+3
  -1.96483E+3   3.82779E+3
  -1.95359E+3   3.85508E+3
  -1.96086E+3   3.79548E+3
  -1.89416E+3   3.80119E+3
  -1.92790E+3   3.79528E+3
  -1.86172E+3   3.79377E+3
  -1.79173E+3   3.74150E+3
  -1.83849E+3   3.77156E+3
  -1.71876E+3   3.67748E+3
  -1.74152E+3   3.74561E+3
  -1.71076E+3   3.69810E+3
  -1.67450E+3   3.67076E+3
  -1.64196E+3   3.64144E+3
  -1.62607E+3   3.68417E+3
  -1.64507E+3   3.64503E+3
  -1.64033E+3   3.65058E+3
  -1.56400E+3   3.59182E+3
  -1.48975E+3   3.57142E+3
  -1.49151E+3   3.59898E+3
  -1.43201E+3   3.59621E+3
  -1.39630E+3   3.59832E+3
  -1.42008E+3   3.56607E+3
  -1.42575E+3   3.54237E+3
  -1.36988E+3   3.53380E+3
  -1.36635E+3   3.58622E+3
  -1.30146E+3   3.50098E+3
  -1.25160E+3   3.49497E+3
  -1.29061E+3   3.49218E+3
  -1.18573E+3   3.58701E+3
  -1.15649E+3   3.47427E+3
  -1.15193E+3   3.47029E+3
  -1.13909E+3   3.44398E+3
  -1.15370E+3   3.41707E+3
  -1.05674E+3   3.44190E+3
  -1.07453E+3   3.43552E+3
  -1.02078E+3   3.37488E+3
  -9.86954E+2   3.37654E+3
  -9.46360E+2   3.39360E+3
  -9.85199E+2   3.36745E+3
  -9.48967E+2   3.30725E+3
  -9.01610E+2   3.30904E+3
  -8.76260E+2   3.37202E+3
  -8.58981E+2   3.30665E+3
  -8.19640E+2   3.31128E+3
  -7.77700E+2   3.23513E+3
  -7.23207E+2   3.28601E+3
  -7.68190E+2   3.27605E+3
  -6.87054E+2   3.23871E+3
  -7.17248E+2   3.25931E+3
  -6.16834E+2   3.21864E+3
  -6.19181E+2   3.14259E+3
  -5.50247E+2   3.19156E+3
  -6.04619E+2   3.14881E+3
  -5.82068E+2   3.08722E+3
  -5.68760E+2   3.14553E+3
