 
 $NMID
 ID=''
 FMTDAT='(2E13.5)'
 TRAMP=   1.00000E+0
 VOLUME=   1.00000E+0
 $END
  -4.19811E+3   1.74816E+4
  -2.41897E+4   3.96973E+4
  -1.80181E+4   4.23202E+4
  -1.82830E+4   3.83152E+4
  -2.14905E+4   3.88207E+4
  -2.09864E+4   3.87211E+4
  -2.22240E+4   3.62086E+4
  -2.46940E+4   3.57359E+4
  -2.48417E+4   3.51926E+4
  -2.59527E+4   3.31178E+4
  -2.78420E+4   3.22201E+4
  -2.80810E+4   3.14315E+4
  -2.91018E+4   2.96778E+4
  -3.07546E+4   2.86117E+4
  -3.11486E+4   2.74503E+4
  -3.18390E+4   2.56814E+4
  -3.31697E+4   2.45592E+4
  -3.35369E+4   2.33816E+4
  -3.41995E+4   2.15802E+4
  -3.52251E+4   2.02443E+4
  -3.54705E+4   1.87703E+4
  -3.58551E+4   1.70639E+4
  -3.66002E+4   1.56265E+4
  -3.67346E+4   1.41353E+4
  -3.66995E+4   1.23965E+4
  -3.71061E+4   1.09953E+4
  -3.71043E+4   9.57211E+3
  -3.70894E+4   7.83135E+3
  -3.72016E+4   6.22271E+3
  -3.68360E+4   4.85234E+3
  -3.66272E+4   3.52431E+3
  -3.66090E+4   2.18754E+3
  -3.63547E+4   7.35978E+2
  -3.59438E+4  -6.77748E+2
  -3.57764E+4  -1.85930E+3
  -3.54309E+4  -3.16388E+3
  -3.49376E+4  -4.43735E+3
  -3.45530E+4  -5.62825E+3
  -3.40081E+4  -6.82384E+3
  -3.35041E+4  -8.04161E+3
  -3.29282E+4  -9.18078E+3
  -3.22769E+4  -1.04639E+4
  -3.15170E+4  -1.16902E+4
  -3.07294E+4  -1.26535E+4
  -2.99640E+4  -1.36230E+4
  -2.92180E+4  -1.46911E+4
  -2.83424E+4  -1.56852E+4
  -2.74975E+4  -1.66255E+4
  -2.66135E+4  -1.75242E+4
  -2.55971E+4  -1.83759E+4
  -2.45686E+4  -1.92128E+4
  -2.35629E+4  -1.99148E+4
  -2.25023E+4  -2.06153E+4
  -2.14549E+4  -2.11760E+4
  -2.03310E+4  -2.18654E+4
  -1.92157E+4  -2.24986E+4
  -1.80871E+4  -2.29912E+4
  -1.69430E+4  -2.34296E+4
  -1.56191E+4  -2.38802E+4
  -1.44610E+4  -2.41740E+4
  -1.32634E+4  -2.43772E+4
  -1.21133E+4  -2.46131E+4
  -1.09446E+4  -2.47516E+4
  -9.72960E+3  -2.49153E+4
  -8.49681E+3  -2.49321E+4
  -7.37907E+3  -2.49212E+4
  -6.24441E+3  -2.49088E+4
  -5.07757E+3  -2.47591E+4
  -3.97452E+3  -2.45551E+4
  -2.85274E+3  -2.43787E+4
  -1.79000E+3  -2.40898E+4
  -7.29445E+2  -2.37523E+4
   3.31025E+2  -2.34415E+4
   1.32494E+3  -2.29964E+4
   2.22686E+3  -2.25036E+4
   3.15627E+3  -2.20751E+4
   3.92475E+3  -2.15817E+4
   4.86799E+3  -2.10030E+4
   5.65294E+3  -2.04286E+4
   6.40100E+3  -1.99323E+4
   7.13251E+3  -1.92577E+4
   7.76665E+3  -1.86307E+4
   8.38565E+3  -1.79633E+4
   8.91430E+3  -1.73257E+4
   9.53469E+3  -1.66674E+4
   1.00777E+4  -1.59975E+4
   1.05421E+4  -1.51864E+4
   1.09470E+4  -1.45081E+4
   1.12598E+4  -1.37595E+4
   1.16202E+4  -1.31092E+4
   1.19513E+4  -1.24256E+4
   1.22533E+4  -1.17786E+4
   1.24849E+4  -1.10866E+4
   1.27170E+4  -1.04714E+4
   1.28641E+4  -9.74056E+3
   1.29716E+4  -9.09258E+3
   1.31454E+4  -8.45224E+3
   1.32016E+4  -7.85412E+3
   1.33104E+4  -7.14563E+3
   1.33081E+4  -6.56299E+3
   1.33642E+4  -5.90947E+3
   1.33019E+4  -5.39584E+3
   1.32877E+4  -4.90241E+3
   1.32386E+4  -4.32352E+3
   1.31754E+4  -3.76393E+3
   1.30524E+4  -3.29889E+3
   1.29810E+4  -2.76637E+3
   1.28509E+4  -2.29003E+3
   1.26847E+4  -1.76883E+3
   1.24986E+4  -1.33302E+3
   1.23656E+4  -9.49611E+2
   1.22129E+4  -5.23891E+2
   1.20538E+4  -1.22430E+2
   1.18004E+4   2.36756E+2
   1.15848E+4   5.96715E+2
   1.14347E+4   1.00022E+3
   1.12129E+4   1.26878E+3
   1.09911E+4   1.57051E+3
   1.07906E+4   1.87914E+3
   1.05742E+4   2.18448E+3
   1.02617E+4   2.49626E+3
   1.00325E+4   2.74083E+3
   9.86694E+3   2.95918E+3
   9.55339E+3   3.14444E+3
   9.36663E+3   3.35661E+3
   9.10076E+3   3.60277E+3
   8.90687E+3   3.80598E+3
   8.61594E+3   4.02256E+3
   8.35959E+3   4.04580E+3
   8.16404E+3   4.28369E+3
   7.86961E+3   4.50035E+3
   7.66240E+3   4.58020E+3
   7.43391E+3   4.68428E+3
   7.26497E+3   4.77255E+3
   6.92353E+3   4.92532E+3
   6.75011E+3   5.00355E+3
   6.54530E+3   5.09094E+3
   6.27301E+3   5.20583E+3
   6.08433E+3   5.23366E+3
   5.87600E+3   5.32104E+3
   5.68512E+3   5.41052E+3
   5.46410E+3   5.37868E+3
   5.26656E+3   5.39369E+3
   5.08887E+3   5.46320E+3
   4.93805E+3   5.49711E+3
   4.70349E+3   5.53253E+3
   4.57817E+3   5.53049E+3
   4.37772E+3   5.57815E+3
   4.23881E+3   5.56666E+3
   4.01126E+3   5.50988E+3
   3.94597E+3   5.62426E+3
   3.72793E+3   5.57534E+3
   3.58779E+3   5.57891E+3
   3.46114E+3   5.51731E+3
   3.26597E+3   5.57969E+3
   3.16074E+3   5.52899E+3
   3.04617E+3   5.50473E+3
   2.84964E+3   5.55805E+3
   2.76054E+3   5.56278E+3
   2.60596E+3   5.50327E+3
   2.43992E+3   5.47332E+3
   2.40589E+3   5.44669E+3
   2.24288E+3   5.37662E+3
   2.16921E+3   5.37841E+3
   1.93725E+3   5.42637E+3
   1.94813E+3   5.38491E+3
   1.77051E+3   5.37891E+3
   1.73934E+3   5.32258E+3
   1.64624E+3   5.26869E+3
   1.52054E+3   5.25207E+3
   1.39576E+3   5.19098E+3
   1.30777E+3   5.18805E+3
   1.17498E+3   5.10755E+3
   1.14344E+3   5.10280E+3
   1.00531E+3   5.08309E+3
   9.10838E+2   4.97626E+3
   8.01426E+2   4.94606E+3
   6.94138E+2   4.97683E+3
   7.16230E+2   4.90661E+3
   5.94328E+2   4.88983E+3
   5.21605E+2   4.85701E+3
   4.30589E+2   4.82110E+3
   3.50370E+2   4.69591E+3
   2.65348E+2   4.71124E+3
   2.53964E+2   4.69575E+3
   1.11103E+2   4.62029E+3
   1.75559E+1   4.57099E+3
  -4.80024E+1   4.53603E+3
  -1.25394E+2   4.49243E+3
  -1.50431E+2   4.44001E+3
  -3.01505E+2   4.36511E+3
  -3.13746E+2   4.30449E+3
  -4.47156E+2   4.26048E+3
  -4.54725E+2   4.24987E+3
  -5.59355E+2   4.09782E+3
  -5.77326E+2   4.05186E+3
  -6.15972E+2   4.09665E+3
  -7.45304E+2   4.00434E+3
  -7.76285E+2   3.95613E+3
  -8.56026E+2   3.93757E+3
  -8.25134E+2   3.79669E+3
  -8.74573E+2   3.81244E+3
  -8.81014E+2   3.63305E+3
  -9.99203E+2   3.63478E+3
  -9.49026E+2   3.56549E+3
  -1.04108E+3   3.47572E+3
  -1.12792E+3   3.48449E+3
  -1.14864E+3   3.42200E+3
  -1.14929E+3   3.34062E+3
  -1.26273E+3   3.25099E+3
  -1.29690E+3   3.24358E+3
  -1.28274E+3   3.12403E+3
  -1.26123E+3   3.12890E+3
  -1.37933E+3   3.00137E+3
  -1.40607E+3   2.99030E+3
  -1.39800E+3   2.88125E+3
  -1.45613E+3   2.75781E+3
  -1.45723E+3   2.82292E+3
  -1.43679E+3   2.75127E+3
  -1.54999E+3   2.65244E+3
  -1.52709E+3   2.60814E+3
  -1.50357E+3   2.53754E+3
  -1.54139E+3   2.55924E+3
  -1.60529E+3   2.41580E+3
  -1.62340E+3   2.38172E+3
  -1.56647E+3   2.30383E+3
  -1.61649E+3   2.36688E+3
  -1.61987E+3   2.18730E+3
  -1.60988E+3   2.13963E+3
  -1.71254E+3   2.14202E+3
  -1.73991E+3   2.10622E+3
  -1.71045E+3   1.98604E+3
  -1.77699E+3   1.94814E+3
  -1.68140E+3   1.95621E+3
  -1.73915E+3   1.85687E+3
  -1.77321E+3   1.87595E+3
  -1.79613E+3   1.81099E+3
  -1.75171E+3   1.73554E+3
  -1.76375E+3   1.65453E+3
  -1.77122E+3   1.59890E+3
  -1.76747E+3   1.56169E+3
  -1.73607E+3   1.50053E+3
  -1.75603E+3   1.48217E+3
  -1.75787E+3   1.38296E+3
  -1.78304E+3   1.32512E+3
  -1.73680E+3   1.36584E+3
  -1.75467E+3   1.24698E+3
  -1.75967E+3   1.18046E+3
  -1.71764E+3   1.14821E+3
  -1.67661E+3   1.16919E+3
  -1.68396E+3   1.12193E+3
  -1.71418E+3   1.05319E+3
  -1.66255E+3   1.06957E+3
  -1.63601E+3   1.01324E+3
  -1.63685E+3   8.61943E+2
  -1.60113E+3   9.08984E+2
  -1.60452E+3   9.05190E+2
  -1.63578E+3   8.55955E+2
  -1.56587E+3   8.32169E+2
  -1.61446E+3   7.92549E+2
  -1.58577E+3   7.77106E+2
  -1.59620E+3   7.87910E+2
  -1.56861E+3   7.43369E+2
  -1.48992E+3   6.85660E+2
  -1.45418E+3   6.70513E+2
  -1.46235E+3   6.01154E+2
  -1.46540E+3   6.17840E+2
  -1.39927E+3   5.71355E+2
  -1.41983E+3   6.23480E+2
  -1.33337E+3   5.57729E+2
  -1.36945E+3   5.05037E+2
  -1.27369E+3   4.93578E+2
  -1.35352E+3   5.60549E+2
  -1.27085E+3   4.28644E+2
  -1.29338E+3   4.70656E+2
  -1.14875E+3   4.33757E+2
  -1.16771E+3   4.39635E+2
  -1.21336E+3   4.50694E+2
  -1.18927E+3   4.20655E+2
  -1.10649E+3   3.82018E+2
  -1.12229E+3   3.86232E+2
  -1.11513E+3   3.68521E+2
  -1.12886E+3   3.38459E+2
  -1.09827E+3   3.24813E+2
  -1.00827E+3   3.43001E+2
  -1.01328E+3   3.37458E+2
  -9.77899E+2   3.06781E+2
  -1.01202E+3   3.19948E+2
  -9.93254E+2   2.53967E+2
  -9.25187E+2   2.76474E+2
  -9.15897E+2   2.52901E+2
  -9.01874E+2   2.38539E+2
  -8.82746E+2   3.10813E+2
  -8.47094E+2   2.83603E+2
  -9.24690E+2   2.88844E+2
  -8.41208E+2   2.73648E+2
  -8.37295E+2   3.07317E+2
  -8.23315E+2   2.10397E+2
  -7.66956E+2   2.46917E+2
  -7.45855E+2   2.21531E+2
  -6.84380E+2   1.94323E+2
  -7.36803E+2   1.86465E+2
  -7.44440E+2   2.38609E+2
  -6.42808E+2   2.32557E+2
  -6.76148E+2   1.29225E+2
  -6.97356E+2   2.38313E+2
  -6.52711E+2   1.94821E+2
  -6.82898E+2   2.41528E+2
  -6.04969E+2   1.77317E+2
  -5.84377E+2   2.30361E+2
  -6.36123E+2   2.52627E+2
  -6.15126E+2   1.89140E+2
  -6.15928E+2   1.73213E+2
  -5.25507E+2   1.74358E+2
  -5.07483E+2   2.19279E+2
  -4.96111E+2   2.68221E+2
  -5.11885E+2   2.28513E+2
  -5.09211E+2   2.12889E+2
  -4.60918E+2   2.83607E+2
  -4.55785E+2   2.10475E+2
  -4.88999E+2   1.50396E+2
  -4.24033E+2   2.47117E+2
  -4.11476E+2   2.51378E+2
  -4.60091E+2   1.97088E+2
  -4.36459E+2   2.41900E+2
  -3.82238E+2   2.36744E+2
  -3.83898E+2   2.33862E+2
  -3.41459E+2   1.62980E+2
  -3.90650E+2   2.07127E+2
  -4.20441E+2   1.54717E+2
  -3.68541E+2   2.24496E+2
  -3.66155E+2   1.94847E+2
  -3.51095E+2   1.46458E+2
  -3.64324E+2   2.13877E+2
  -3.19812E+2   1.85264E+2
  -3.46048E+2   2.07821E+2
  -2.75955E+2   2.36524E+2
  -3.03927E+2   2.11457E+2
  -2.49131E+2   2.14012E+2
  -2.48241E+2   2.08181E+2
  -1.99863E+2   2.96766E+2
  -3.02678E+2   2.68650E+2
  -1.86409E+2   2.51667E+2
  -2.49039E+2   2.61647E+2
  -2.34724E+2   1.74335E+2
  -2.11388E+2   2.37906E+2
  -2.37671E+2   1.68802E+2
  -1.81064E+2   3.00195E+2
  -1.92816E+2   2.54177E+2
  -1.79288E+2   2.07781E+2
  -1.79685E+2   2.15127E+2
  -1.65806E+2   2.42139E+2
  -1.36925E+2   2.39569E+2
  -1.63692E+2   1.67171E+2
  -6.48145E+1   2.33697E+2
  -1.17201E+2   2.86749E+2
  -5.87824E+1   2.37185E+2
  -7.94639E+1   2.47947E+2
  -1.05919E+2   2.37257E+2
  -6.20245E+1   2.72617E+2
  -1.52072E+2   2.08642E+2
  -7.13548E+1   2.91155E+2
  -3.93936E+1   2.70538E+2
  -7.23128E+1   2.36794E+2
  -1.06931E+2   3.17615E+2
  -7.48226E+1   2.93400E+2
  -5.24780E+1   2.93356E+2
