 
 $NMID
 ID=''
 FMTDAT='(2E13.5)'
 TRAMP=   1.00000E+0
 VOLUME=   1.00000E+0
 $END
  -1.28132E+4   1.61804E+4
  -4.32981E+4   3.06268E+4
  -3.70288E+4   3.77362E+4
  -3.37825E+4   3.46514E+4
  -3.60067E+4   3.49604E+4
  -3.42385E+4   3.66000E+4
  -3.29574E+4   3.47400E+4
  -3.40294E+4   3.44923E+4
  -3.29214E+4   3.53860E+4
  -3.20660E+4   3.41930E+4
  -3.26226E+4   3.38551E+4
  -3.14953E+4   3.45639E+4
  -3.07310E+4   3.37899E+4
  -3.11144E+4   3.35047E+4
  -3.02710E+4   3.37287E+4
  -2.95880E+4   3.31330E+4
  -2.96748E+4   3.28655E+4
  -2.89659E+4   3.30612E+4
  -2.82568E+4   3.26713E+4
  -2.83298E+4   3.24871E+4
  -2.76563E+4   3.25475E+4
  -2.68807E+4   3.22199E+4
  -2.68920E+4   3.22080E+4
  -2.64142E+4   3.21204E+4
  -2.57690E+4   3.15933E+4
  -2.55834E+4   3.15082E+4
  -2.51826E+4   3.14587E+4
  -2.47662E+4   3.08660E+4
  -2.45258E+4   3.05808E+4
  -2.40743E+4   3.04286E+4
  -2.34912E+4   3.00950E+4
  -2.32262E+4   2.98795E+4
  -2.28898E+4   2.96836E+4
  -2.23513E+4   2.93355E+4
  -2.19478E+4   2.89881E+4
  -2.15393E+4   2.87981E+4
  -2.10496E+4   2.84336E+4
  -2.05947E+4   2.82840E+4
  -2.01329E+4   2.81535E+4
  -1.96642E+4   2.79161E+4
  -1.92877E+4   2.76512E+4
  -1.89482E+4   2.73487E+4
  -1.85515E+4   2.69374E+4
  -1.80437E+4   2.66651E+4
  -1.76980E+4   2.64954E+4
  -1.72649E+4   2.60860E+4
  -1.69158E+4   2.58893E+4
  -1.65434E+4   2.56146E+4
  -1.61614E+4   2.54154E+4
  -1.58334E+4   2.51033E+4
  -1.55027E+4   2.49282E+4
  -1.51331E+4   2.45483E+4
  -1.47442E+4   2.43347E+4
  -1.43553E+4   2.40534E+4
  -1.40334E+4   2.37647E+4
  -1.37139E+4   2.34152E+4
  -1.34237E+4   2.31517E+4
  -1.31211E+4   2.29172E+4
  -1.28343E+4   2.25784E+4
  -1.25374E+4   2.22442E+4
  -1.21649E+4   2.19561E+4
  -1.18475E+4   2.16584E+4
  -1.15775E+4   2.13333E+4
  -1.12600E+4   2.10603E+4
  -1.10237E+4   2.06231E+4
  -1.06649E+4   2.02931E+4
  -1.03845E+4   2.00784E+4
  -1.00532E+4   1.97563E+4
  -9.76910E+3   1.94133E+4
  -9.50441E+3   1.90202E+4
  -9.15614E+3   1.87657E+4
  -8.93081E+3   1.83802E+4
  -8.60589E+3   1.80509E+4
  -8.28995E+3   1.77219E+4
  -8.02804E+3   1.73920E+4
  -7.70558E+3   1.71520E+4
  -7.44320E+3   1.68536E+4
  -7.14498E+3   1.64748E+4
  -6.88111E+3   1.62274E+4
  -6.66270E+3   1.59388E+4
  -6.34711E+3   1.56625E+4
  -6.06241E+3   1.53399E+4
  -5.84680E+3   1.50982E+4
  -5.56931E+3   1.47357E+4
  -5.36745E+3   1.44752E+4
  -5.06896E+3   1.41684E+4
  -4.92560E+3   1.37924E+4
  -4.62559E+3   1.36068E+4
  -4.43312E+3   1.32750E+4
  -4.28075E+3   1.30086E+4
  -3.96746E+3   1.27953E+4
  -3.79194E+3   1.25171E+4
  -3.58889E+3   1.22584E+4
  -3.37392E+3   1.20562E+4
  -3.16808E+3   1.17104E+4
  -3.03444E+3   1.13985E+4
  -2.79451E+3   1.12350E+4
  -2.64053E+3   1.09768E+4
  -2.48991E+3   1.07035E+4
  -2.38889E+3   1.04585E+4
  -2.19400E+3   1.02298E+4
  -2.02634E+3   9.96877E+3
  -1.85315E+3   9.74175E+3
  -1.63347E+3   9.46169E+3
  -1.59931E+3   9.32726E+3
  -1.44354E+3   9.01239E+3
  -1.31207E+3   8.88513E+3
  -1.19743E+3   8.62626E+3
  -1.02368E+3   8.42300E+3
  -1.02661E+3   8.16791E+3
  -7.79447E+2   7.91015E+3
  -6.73846E+2   7.77860E+3
  -6.07543E+2   7.57626E+3
  -4.16495E+2   7.42186E+3
  -4.36470E+2   7.21450E+3
  -2.88127E+2   6.94708E+3
  -9.22194E+1   6.79886E+3
  -1.33842E+2   6.58930E+3
  -2.72399E+1   6.39314E+3
   7.72598E+1   6.22851E+3
   1.27033E+2   6.02715E+3
   2.25946E+2   5.86012E+3
   2.35125E+2   5.72502E+3
   3.04864E+2   5.56824E+3
   4.49771E+2   5.43057E+3
   4.59743E+2   5.26886E+3
   6.09707E+2   5.08640E+3
   6.31697E+2   4.88152E+3
   6.97747E+2   4.74470E+3
   7.54946E+2   4.65434E+3
   7.97057E+2   4.49431E+3
   8.09334E+2   4.37587E+3
   9.06946E+2   4.20154E+3
   9.12372E+2   4.13672E+3
   9.55043E+2   3.95704E+3
   8.85493E+2   3.91443E+3
   1.02075E+3   3.82923E+3
   1.05632E+3   3.57727E+3
   1.09404E+3   3.54644E+3
   1.11915E+3   3.40785E+3
   1.03059E+3   3.40942E+3
   1.06704E+3   3.24464E+3
   1.08045E+3   3.11408E+3
   1.02668E+3   3.01901E+3
   1.06879E+3   2.94184E+3
   1.06249E+3   2.83240E+3
   1.08333E+3   2.71302E+3
   1.01427E+3   2.58235E+3
   1.06502E+3   2.52943E+3
   1.02151E+3   2.41260E+3
   1.01289E+3   2.33648E+3
   9.55463E+2   2.22223E+3
   1.02526E+3   2.12405E+3
   9.51780E+2   2.01779E+3
   9.07886E+2   1.96451E+3
   8.80635E+2   1.83819E+3
   8.82549E+2   1.78834E+3
   8.35320E+2   1.76365E+3
   8.26012E+2   1.61644E+3
   7.77262E+2   1.56163E+3
   7.57634E+2   1.47758E+3
   6.83553E+2   1.37809E+3
   7.18330E+2   1.21242E+3
   6.62803E+2   1.22952E+3
   6.55154E+2   1.12510E+3
   5.67765E+2   9.90571E+2
   5.78204E+2   9.42983E+2
   5.85128E+2   8.61058E+2
   5.36448E+2   7.91368E+2
   4.89655E+2   7.06316E+2
   4.72331E+2   6.58692E+2
   4.10830E+2   5.78283E+2
   4.43583E+2   4.48254E+2
   3.94046E+2   4.09909E+2
   4.07470E+2   3.85244E+2
   3.19580E+2   2.69456E+2
   3.41213E+2   1.90165E+2
   3.56253E+2   1.17908E+2
   2.79521E+2   5.38406E+1
   1.72222E+2   3.16141E+1
   2.05870E+2  -2.40884E+1
   1.62922E+2  -1.64725E+2
   1.91063E+2  -1.29762E+2
   1.03403E+2  -1.86567E+2
   1.90277E+2  -2.44428E+2
   1.30416E+2  -3.42730E+2
   3.67085E+1  -4.01586E+2
   9.54354E+1  -4.30277E+2
   3.48628E+1  -4.70187E+2
   5.38691E+0  -5.41187E+2
   1.21140E+0  -5.83178E+2
  -1.94297E+1  -6.12437E+2
   2.36767E+1  -6.87416E+2
  -3.63695E+1  -6.90280E+2
  -2.02672E+1  -7.70652E+2
  -1.01342E+2  -8.05651E+2
  -9.98036E+1  -9.16102E+2
  -1.43696E+2  -8.43631E+2
  -1.50439E+2  -9.39101E+2
  -2.10264E+2  -9.22413E+2
  -2.07534E+2  -9.63929E+2
  -1.37055E+2  -1.02510E+3
  -2.25336E+2  -1.12669E+3
  -2.14763E+2  -1.11327E+3
  -2.04088E+2  -1.12049E+3
  -2.77549E+2  -1.13399E+3
  -2.57850E+2  -1.20111E+3
  -2.94397E+2  -1.20983E+3
  -2.81813E+2  -1.28367E+3
  -2.57210E+2  -1.30632E+3
  -2.41239E+2  -1.37758E+3
  -3.36592E+2  -1.31424E+3
  -2.97095E+2  -1.37679E+3
  -2.06995E+2  -1.46782E+3
  -2.86563E+2  -1.39484E+3
  -2.70140E+2  -1.50179E+3
  -3.16660E+2  -1.49756E+3
  -2.00856E+2  -1.52899E+3
  -3.09497E+2  -1.51795E+3
  -2.66567E+2  -1.58101E+3
  -3.06591E+2  -1.58855E+3
  -2.26231E+2  -1.54891E+3
  -3.00374E+2  -1.59355E+3
  -1.93337E+2  -1.60145E+3
  -2.28809E+2  -1.58229E+3
  -2.58830E+2  -1.69224E+3
  -1.90776E+2  -1.62276E+3
  -1.73321E+2  -1.64108E+3
  -1.84261E+2  -1.60091E+3
  -1.30086E+2  -1.70584E+3
  -1.41140E+2  -1.62171E+3
  -2.22418E+2  -1.62919E+3
  -1.41250E+2  -1.65275E+3
  -1.23543E+2  -1.64711E+3
  -1.75426E+2  -1.67784E+3
  -1.30556E+2  -1.64599E+3
  -8.55732E+1  -1.68775E+3
  -1.23890E+2  -1.71408E+3
  -1.41222E+2  -1.64593E+3
  -1.59795E+2  -1.67115E+3
  -1.25282E+2  -1.61961E+3
  -7.87619E+1  -1.66798E+3
  -1.04636E+2  -1.63004E+3
  -8.98052E+1  -1.70327E+3
  -4.82343E+1  -1.55444E+3
  -9.98106E+1  -1.69089E+3
  -5.63854E+1  -1.59889E+3
  -6.02542E+1  -1.63937E+3
  -4.31996E+1  -1.56749E+3
  -5.56414E+0  -1.54338E+3
  -5.23684E+0  -1.63401E+3
  -4.04782E+0  -1.50399E+3
  -1.79545E+1  -1.51765E+3
   2.05844E+1  -1.55261E+3
   4.78935E+1  -1.54549E+3
   2.23863E+1  -1.57084E+3
   3.90137E+1  -1.45760E+3
   4.39646E+1  -1.48477E+3
   1.20397E+1  -1.52343E+3
   9.65757E+1  -1.48572E+3
   5.10148E+1  -1.46762E+3
   1.96680E+1  -1.44545E+3
   8.21128E+1  -1.46884E+3
   2.76386E+1  -1.44292E+3
   6.54498E+1  -1.44046E+3
   1.15662E+2  -1.42998E+3
   7.15791E+1  -1.41229E+3
   1.24395E+2  -1.40438E+3
   1.01330E+2  -1.35063E+3
   1.24879E+2  -1.37308E+3
   1.11533E+2  -1.35130E+3
   1.18000E+2  -1.36970E+3
   1.55835E+2  -1.25646E+3
   1.12524E+2  -1.32543E+3
   1.47758E+2  -1.27908E+3
   1.80853E+2  -1.28511E+3
   1.72588E+2  -1.31710E+3
   1.73498E+2  -1.25903E+3
   1.67356E+2  -1.24898E+3
   1.58834E+2  -1.25868E+3
   1.92556E+2  -1.16528E+3
   1.83518E+2  -1.22111E+3
   1.67865E+2  -1.20023E+3
   1.78685E+2  -1.21397E+3
   1.42734E+2  -1.15215E+3
   2.61051E+2  -1.18464E+3
   2.80773E+2  -1.14491E+3
   2.08202E+2  -1.13389E+3
   2.35800E+2  -1.13128E+3
   2.77515E+2  -1.13812E+3
   2.55136E+2  -1.07683E+3
   2.31030E+2  -1.06945E+3
   2.67727E+2  -1.07483E+3
   3.41125E+2  -1.03081E+3
   3.07672E+2  -1.02530E+3
   3.08483E+2  -9.89671E+2
   2.66263E+2  -1.03563E+3
   3.08408E+2  -9.84534E+2
   2.70205E+2  -9.54029E+2
   2.87858E+2  -9.49469E+2
   3.10082E+2  -9.49995E+2
   3.49416E+2  -9.35701E+2
   3.70321E+2  -9.15695E+2
   3.74477E+2  -8.95789E+2
   2.62623E+2  -8.40216E+2
   3.06117E+2  -9.15611E+2
   2.96318E+2  -8.82240E+2
   2.89286E+2  -8.48039E+2
   3.09072E+2  -8.34520E+2
   3.31476E+2  -8.47372E+2
   3.53562E+2  -7.97283E+2
   3.98960E+2  -8.03640E+2
   4.05150E+2  -7.48223E+2
   3.81999E+2  -7.80869E+2
   3.63688E+2  -7.52611E+2
   3.63598E+2  -7.58242E+2
   3.50687E+2  -7.29465E+2
   4.15738E+2  -7.15453E+2
   3.74748E+2  -6.97207E+2
   4.17932E+2  -7.08162E+2
   3.90511E+2  -7.03460E+2
   4.27817E+2  -6.42464E+2
   3.48758E+2  -6.71921E+2
   3.27357E+2  -6.53602E+2
   3.89375E+2  -6.16911E+2
   4.35331E+2  -6.15662E+2
   4.53175E+2  -6.15864E+2
   4.25672E+2  -5.93646E+2
   4.02708E+2  -6.75189E+2
   3.77920E+2  -6.26065E+2
   4.29565E+2  -5.50131E+2
   4.09487E+2  -6.16920E+2
   3.76601E+2  -5.89137E+2
   4.36847E+2  -6.17044E+2
   4.17783E+2  -5.48796E+2
   4.01785E+2  -5.82671E+2
   4.48124E+2  -5.33810E+2
   4.03850E+2  -5.34970E+2
   4.35419E+2  -5.47347E+2
   3.87402E+2  -5.47419E+2
   4.28821E+2  -4.63906E+2
   3.86837E+2  -5.43089E+2
   3.94873E+2  -5.26619E+2
   3.99549E+2  -5.03079E+2
   4.28905E+2  -5.07657E+2
   4.13078E+2  -4.90188E+2
   4.14590E+2  -5.21783E+2
   4.58525E+2  -5.39200E+2
   4.72240E+2  -4.55372E+2
   3.86781E+2  -4.94407E+2
   5.18811E+2  -4.71500E+2
   4.82152E+2  -5.08117E+2
   3.90081E+2  -4.89215E+2
   4.38458E+2  -4.84895E+2
   4.67367E+2  -4.80883E+2
   4.69379E+2  -4.57345E+2
   3.89739E+2  -4.80890E+2
   4.62275E+2  -5.17027E+2
   4.13584E+2  -5.34318E+2
   3.90640E+2  -4.72982E+2
   4.58983E+2  -4.58713E+2
   4.64785E+2  -5.66899E+2
   3.83901E+2  -4.67000E+2
   3.81390E+2  -4.39312E+2
   4.47852E+2  -4.54426E+2
   4.45577E+2  -4.72526E+2
   4.24084E+2  -4.45615E+2
