 
 $NMID
 ID=''
 FMTDAT='(2E13.5)'
 TRAMP=   1.00000E+0
 VOLUME=   1.00000E+0
 $END
   7.16542E+2  -3.21559E+2
   1.89737E+3   2.57966E+2
  -1.20734E+3  -3.10795E+3
  -1.40131E+3  -1.78811E+3
  -2.51880E+3  -2.39727E+1
  -2.04890E+3  -2.47708E+3
  -1.50936E+3   1.57492E+3
  -2.37140E+3   3.79945E+3
   9.04314E+2   1.28581E+3
  -3.14194E+3   1.93733E+3
  -6.29124E+2  -9.55418E+2
   1.67616E+3  -1.08921E+3
   2.76870E+3  -2.28142E+2
   1.36727E+3   3.34492E+3
  -4.95012E+3  -1.26315E+3
  -2.17073E+3  -2.28449E+3
   4.41232E+1  -3.95691E+2
  -1.08106E+3   1.73393E+3
  -2.82563E+3   4.60614E+3
  -3.11691E+3   1.46600E+3
   1.58467E+3  -1.34799E+3
   3.79922E+3   4.35920E+3
   1.82943E+3   6.01886E+3
  -1.28344E+3   6.68069E+2
   3.82840E+3  -3.96502E+3
   5.11682E+3  -8.98369E+2
   3.11378E+2   1.66261E+3
  -4.46693E+2  -1.23141E+1
  -2.99436E+3  -3.22975E+3
   1.14031E+3  -6.61106E+3
   2.31866E+3  -3.93922E+3
   1.03262E+3   4.13447E+3
  -3.34921E+3  -6.02884E+2
  -7.41993E+2  -1.70827E+2
  -2.15760E+3   3.55050E+3
  -4.95090E+3   2.08639E+3
  -2.64545E+3  -4.71703E+3
   3.31325E+3  -3.77949E+3
   3.04067E+3   1.17705E+3
   2.10572E+3   1.12668E+3
   3.12381E+3   1.77564E+3
   9.20247E+2   5.38151E+3
  -3.70534E+3   1.21054E+3
  -3.72946E+3  -3.42920E+3
   6.71969E+2  -5.20785E+3
   4.96199E+2  -1.04414E+3
  -4.87472E+2   7.87752E+1
   2.12781E+3   1.39578E+3
  -1.11506E+2   2.28865E+3
   6.24051E+2   2.37000E+3
  -3.90073E+3   1.54907E+3
  -9.50545E+2  -1.88516E+3
   1.75921E+3  -2.48488E+3
   3.32835E+3   7.66121E+2
   3.23943E+3   2.68311E+3
   2.67677E+3   2.22949E+3
   1.14525E+2   5.30280E+3
  -3.63358E+3   3.39597E+3
  -7.91432E+3   1.52271E+1
  -4.16148E+3  -5.69396E+3
  -1.23733E+3  -3.19765E+3
   1.99007E+3  -2.57129E+3
  -1.31075E+2   2.87147E+2
  -1.65805E+3   5.74062E+1
  -1.84958E+3  -2.96564E+3
  -1.40964E+2  -2.34394E+3
   1.17972E+3  -1.78414E+2
   1.60100E+3   1.80382E+3
   5.13993E+2   1.98941E+2
  -8.30002E+2  -3.49804E+3
   1.17461E+3  -8.96440E+1
   1.09420E+3   3.24666E+2
   6.17405E+1  -3.03040E+3
   2.62516E+3  -2.71558E+3
   1.23702E+3  -1.26982E+3
   2.62577E+3   2.14501E+1
   2.01689E+3   4.49997E+2
  -9.69180E+2  -2.52747E+3
  -1.73340E+2  -3.81516E+3
   1.90833E+3  -4.80461E+3
   7.03379E+2  -1.29745E+3
  -1.46801E+2  -4.73447E+2
   2.06707E+3  -5.13489E+2
   2.35409E+3  -1.94065E+2
   2.12037E+3   1.13185E+3
  -1.92555E+3   2.23764E+3
  -9.21682E+2  -9.77604E+2
  -5.05697E+2  -2.94350E+3
   2.23209E+3  -2.58622E+3
   3.10525E+3  -3.24364E+2
   1.87665E+3  -8.16590E+2
   9.48287E+0  -1.85539E+3
   2.68750E+3   6.54693E+2
   1.27089E+3   1.44379E+3
   9.40333E+2   1.48513E+3
  -4.08931E+3   1.02393E+3
  -1.72581E+3  -1.51986E+3
   4.13104E+3  -8.45627E+2
   2.01861E+3  -1.54390E+0
  -2.32147E+3   2.63574E+3
  -3.99665E+3   8.91624E+2
  -1.10455E+3  -3.55362E+3
   2.31832E+3  -2.49292E+3
   2.62953E+3  -1.07937E+2
   1.43159E+3   1.60559E+3
  -1.06829E+3   6.90036E+2
   2.79596E+3  -1.32921E+3
  -6.76739E+2  -1.59450E+2
  -2.22780E+3   3.56949E+2
  -1.31496E+3   3.35328E+2
  -3.41509E+3  -9.39897E+2
   1.36127E+3  -1.46905E+3
   1.72535E+3   7.01802E+2
  -3.15242E+2   1.07984E+3
   1.29563E+3   1.28479E+3
  -2.01975E+2   1.72415E+3
  -1.71645E+3   2.11230E+3
  -6.33580E+2  -1.97595E+2
  -5.58009E+2   1.33947E+3
  -1.04714E+3   8.30375E+2
   5.59156E+2  -1.55726E+2
   1.04490E+3   2.16977E+3
  -1.09949E+3   3.76536E+3
  -2.66304E+3   6.21105E+2
  -2.44401E+3  -1.02467E+2
  -7.77528E+2  -6.68986E+2
  -5.01182E+2  -4.57616E+1
  -2.75161E+2  -5.52585E+2
   1.20972E+3  -1.87969E+3
  -1.15269E+3   1.06531E+3
  -1.58042E+3   1.82673E+3
  -3.19294E+3   2.40182E+3
  -6.13736E+2   2.87668E+2
   2.56018E+3   9.45612E+2
   5.87982E+2   1.41961E+3
   9.21127E+1   2.09318E+3
  -4.93069E+2   1.55596E+3
  -4.55905E+2   1.84541E+3
  -9.81908E+2   1.49716E+3
   6.86218E+2   7.07073E+2
  -3.48191E+3  -3.01273E+2
  -1.95269E+2   3.47593E+2
  -3.96467E+2  -2.01417E+3
   1.26938E+3  -2.05874E+3
   1.07425E+3   6.96530E+2
  -7.12055E+2  -1.43727E+3
   2.70628E+2  -6.70036E+2
   1.98104E+2   9.72292E+2
   1.34484E+3  -3.33765E+2
   9.94017E+2   4.06484E+1
   1.08849E+3   3.09678E+3
  -1.38956E+3  -2.19860E+2
  -4.36427E+2   1.46705E+3
  -5.20495E+2   9.80669E+2
  -1.38940E+3  -1.99542E+3
   1.29339E+3  -1.11015E+3
   1.35043E+3  -6.45133E+2
   1.81346E+3   3.52555E+3
  -9.40593E+2   4.35492E+2
  -9.66026E+2  -1.64372E+3
  -1.45945E+3   1.20486E+3
  -3.40147E+2  -6.92612E+1
  -1.17904E+3  -8.86700E+2
  -3.99602E+2  -1.73337E+3
   3.77547E+2  -9.31972E+2
   2.35899E+3   1.57464E+3
   3.05151E+2   1.94186E+3
  -1.68055E+3   9.47211E+2
   1.07466E+3  -9.41713E+2
   3.60400E+2  -6.54315E+2
  -1.91984E+3  -3.21103E+3
   1.31576E+1   2.50954E+3
   1.37359E+3  -1.78213E+3
   1.24848E+3   1.76389E+3
  -7.58584E+2   1.06856E+3
   1.37371E+3   2.31035E+3
  -1.12672E+3  -6.92653E+2
  -4.11832E+2   6.04561E+2
   1.42092E+3  -8.19017E+2
   6.40541E+2   2.52496E+2
   8.67419E+2   9.67217E+2
  -9.41825E+2  -1.31067E+3
   4.46497E+2  -4.97061E+2
   1.40958E+3  -4.52294E+2
   1.18735E+3   1.12792E+3
  -4.02061E+2   4.12473E+2
   2.40607E+3   1.63278E+3
   2.69673E+3   1.14930E+3
  -1.81799E+3  -3.83831E+1
   1.04325E+3   7.47426E+2
  -1.07510E+3  -2.06889E+3
  -3.84712E+2  -5.20507E+2
   2.69025E+3  -2.54084E+3
  -1.06031E+2   5.19336E+1
  -6.66773E+2   6.47235E+2
   1.55484E+3  -1.30190E+3
  -7.62485E+2  -1.06396E+2
   6.16281E+2   3.85513E+2
  -1.07167E+3   7.10698E+2
  -2.28459E+3   4.26413E+1
   2.87449E+2   1.15914E+3
   1.75310E+3   1.60749E+3
  -5.26218E+2   2.04439E+3
  -1.22861E+2  -1.00410E+3
  -4.75325E+2  -1.63622E+3
   1.89074E+2  -2.44639E+2
   6.75910E+2   9.19967E+2
   4.92625E+1   9.14315E+2
  -2.60808E+2   7.92060E+2
   1.65943E+3  -7.63346E+2
   1.81542E+2  -4.39249E+2
  -2.85933E+3   2.19001E+3
   2.46028E+2   5.04501E+2
   4.39141E+2   1.39400E+3
   2.16687E+2  -1.03353E+3
   1.06564E+2  -3.29371E+2
   1.34401E+3   4.77225E+2
  -5.49326E+2   3.04187E+1
   6.38393E+2  -1.12090E+3
   1.36067E+3   1.08559E+3
   1.20280E+3  -2.24580E+2
  -1.60935E+3   6.80037E+2
   1.37393E+3  -1.02703E+3
  -8.03262E+2  -1.73581E+2
   9.69196E+2  -6.59771E+2
  -1.65145E+2   6.92849E+2
  -4.32780E+2  -3.66221E+2
  -1.92783E+2  -1.40770E+3
   1.55617E+3  -1.32130E+2
   6.06180E+2  -8.43521E+2
  -3.11961E+1   1.99096E+2
   5.39323E+2  -1.24823E+3
  -3.77868E+2   3.77363E+2
  -9.30418E+2   6.91259E+2
  -1.48362E+3   1.27690E+3
  -1.56606E+3   1.58961E+3
   8.00331E+2  -1.39522E+3
   2.21406E+3   1.34865E+3
   1.50407E+3   1.32611E+3
   4.67257E+1   6.04203E+2
   2.73757E+2  -1.40009E+3
   1.45619E+3   8.21380E+1
  -4.02046E+2  -1.96666E+3
   6.01099E+1  -8.70099E+1
   3.01418E+2  -1.38972E+2
  -4.19749E+2  -1.66801E+2
   5.70976E+2   1.76644E+3
   1.00433E+3   1.87959E+3
   6.57204E+1  -7.79936E+2
  -1.27009E+3  -2.23195E+2
   1.79982E+3   1.80123E+1
   1.26310E+3  -1.82043E+2
  -2.72555E+2   7.24670E+1
   2.74135E+3   8.34898E+2
  -1.12885E+3   1.07811E+3
  -2.06490E+2   1.72851E+3
  -4.71924E+1   5.34662E+2
  -1.09313E+3   7.22294E+2
   5.21644E+2   6.93613E+2
   1.16886E+3  -6.87921E+1
  -2.06640E+2  -1.43684E+2
   5.98519E+2  -2.60508E+2
   1.58598E+2  -1.22988E+3
   1.12918E+3  -1.86531E+3
  -5.50233E+2   3.72518E+2
  -8.12301E+2  -5.48904E+2
  -1.21593E+3  -8.99805E+1
  -1.00787E+3   1.14198E+2
   2.13128E+3  -2.91747E+3
  -8.09413E+2  -9.06448E+2
  -1.15237E+3  -2.87841E+2
   1.36731E+2  -1.01019E+3
  -8.80995E+2   6.50064E+1
   6.72275E+2  -1.44171E+3
   2.65776E+2  -6.72795E+2
   1.35981E+3  -1.45468E+2
  -7.52632E+2   6.60469E+2
   2.23374E+3  -2.28262E+3
  -2.51316E+3   4.21716E+2
  -7.64350E+2   3.43886E+2
   2.04624E+2  -1.90097E+2
   3.06370E+2   3.23461E+2
   1.35220E+3  -9.76554E+2
  -1.26151E+3   1.41583E+3
  -4.08628E+2   6.03842E+2
  -5.49285E+2   7.05507E+2
  -5.24048E+2   1.80590E+3
  -5.97503E+2   5.59331E+2
   5.39382E+2   1.57723E+3
  -1.71659E+3   6.10585E+2
  -7.38966E+1   1.71903E+2
   5.40238E+2   3.31631E+3
  -7.54321E+2   1.49570E+3
   1.35295E+2  -1.49842E+3
  -2.73112E+2  -2.15681E+3
   9.28638E+2   1.42887E+3
   1.40708E+3   6.53664E+2
   2.98732E+2   8.92261E+2
  -1.02027E+3  -1.33087E+3
   3.72654E+1   7.96303E+2
  -4.31699E+2  -9.94731E+2
   8.88035E+2   2.10010E+1
   4.38636E+2   2.85854E+2
  -3.01740E+2   6.34920E+2
  -9.69530E+2  -8.49279E+2
  -7.05264E+2  -7.80687E+2
   5.84221E+2  -9.05041E+0
  -1.39955E+3  -3.43717E+2
  -4.02157E+2  -1.75097E+2
   3.95988E+2   6.04497E+2
   5.54014E+1  -7.16467E+2
  -7.84457E+2   1.08705E+3
  -7.24784E+2  -1.56529E+3
  -2.26524E+3  -2.78525E+3
  -1.26421E+3  -1.32357E+3
  -9.32192E+2  -2.74541E+2
  -8.81243E+2  -3.63925E+2
  -3.76258E+1   1.53148E+2
   6.47292E+2   4.84605E+2
   3.79236E+2   5.95322E+2
  -6.41872E+1  -9.76022E+2
  -2.56705E+3   2.19944E+2
  -2.10707E+3   4.70563E+2
  -6.82077E+1   5.42583E+1
  -8.91375E+2   7.20066E+2
   8.12601E+2  -1.74163E+2
  -1.42918E+3   1.81295E+1
  -1.49428E+3  -1.31011E+3
   3.66148E+2   8.08250E+2
  -3.66347E+2   6.13845E+2
  -1.11261E+3  -4.93668E+2
   1.49051E+3   1.49357E+3
  -6.26030E+2  -1.29630E+3
  -9.49780E+0   2.90455E+1
  -2.26121E+3   1.78175E+3
   4.45795E+2   4.13408E+2
   1.59283E+2   1.07910E+2
  -8.97041E+2   2.75689E+3
   3.75563E+3   4.00470E+2
  -1.54188E+3  -7.01416E+1
   2.71353E+2  -8.21463E+2
  -5.73687E+2   5.25602E+2
  -1.57148E+2   4.45906E+2
   2.46102E+3  -7.10002E+2
   6.39967E+1  -4.72617E+2
  -1.08222E+3  -2.58734E+2
   7.27879E+2   8.42375E+1
  -1.12323E+3  -5.85795E+2
  -1.21291E+3  -2.19072E+3
   4.05231E+2  -1.05525E+3
  -1.06775E+1   2.18699E+2
  -1.60822E+3   2.32889E+3
   8.12147E+2   2.26849E+2
   1.62438E+2  -2.45599E+2
  -8.78820E+2  -1.58122E+2
   2.17448E+2  -2.70995E+2
  -1.11650E+3   5.98867E+2
  -3.00548E+2   2.57845E+3
  -1.50585E+3   1.13681E+3
  -1.24201E+3   1.41930E+3
   6.06074E+1   8.57992E+2
   3.77630E+2   4.30447E+2
   1.41924E+3  -1.46862E+2
  -1.70618E+3  -6.17997E+2
   3.85044E+2  -8.80329E+2
  -9.62057E+2   9.79652E+2
   2.09018E+2   1.13852E+3
