 
 $NMID
 ID=''
 FMTDAT='(2E13.5)'
 TRAMP=   1.00000E+0
 VOLUME=   1.00000E+0
 $END
  -2.27657E+4   1.85078E+3
  -5.77041E+4  -1.24312E+4
  -5.84324E+4  -2.96483E+3
  -5.36885E+4  -3.41636E+3
  -5.56477E+4  -5.80813E+3
  -5.55708E+4  -4.01290E+3
  -5.31648E+4  -5.28688E+3
  -5.37291E+4  -7.15707E+3
  -5.35593E+4  -6.49226E+3
  -5.20138E+4  -7.55707E+3
  -5.21825E+4  -9.02331E+3
  -5.19339E+4  -8.59307E+3
  -5.07639E+4  -9.27171E+3
  -5.08345E+4  -1.06994E+4
  -5.05479E+4  -1.05547E+4
  -4.95146E+4  -1.13315E+4
  -4.93694E+4  -1.22975E+4
  -4.91177E+4  -1.22553E+4
  -4.82691E+4  -1.26990E+4
  -4.81369E+4  -1.36538E+4
  -4.77253E+4  -1.36038E+4
  -4.70538E+4  -1.38895E+4
  -4.70207E+4  -1.46713E+4
  -4.66206E+4  -1.48481E+4
  -4.58834E+4  -1.52255E+4
  -4.56685E+4  -1.57750E+4
  -4.54259E+4  -1.61050E+4
  -4.47214E+4  -1.66395E+4
  -4.43913E+4  -1.74286E+4
  -4.39486E+4  -1.76837E+4
  -4.34603E+4  -1.80585E+4
  -4.32643E+4  -1.87655E+4
  -4.28709E+4  -1.92255E+4
  -4.21889E+4  -1.96957E+4
  -4.19018E+4  -2.01100E+4
  -4.15509E+4  -2.04919E+4
  -4.09247E+4  -2.08810E+4
  -4.05575E+4  -2.14047E+4
  -4.01531E+4  -2.17428E+4
  -3.95860E+4  -2.21263E+4
  -3.91608E+4  -2.25857E+4
  -3.86739E+4  -2.30186E+4
  -3.78843E+4  -2.35403E+4
  -3.73453E+4  -2.37544E+4
  -3.68341E+4  -2.40676E+4
  -3.61769E+4  -2.43752E+4
  -3.56063E+4  -2.48232E+4
  -3.51137E+4  -2.50569E+4
  -3.45126E+4  -2.52866E+4
  -3.39788E+4  -2.55634E+4
  -3.33474E+4  -2.58157E+4
  -3.27268E+4  -2.59727E+4
  -3.22107E+4  -2.61306E+4
  -3.16623E+4  -2.62831E+4
  -3.11630E+4  -2.65077E+4
  -3.05934E+4  -2.66849E+4
  -3.00953E+4  -2.68765E+4
  -2.94683E+4  -2.70950E+4
  -2.87639E+4  -2.71829E+4
  -2.82907E+4  -2.72226E+4
  -2.77308E+4  -2.72594E+4
  -2.72942E+4  -2.73735E+4
  -2.67938E+4  -2.74129E+4
  -2.62499E+4  -2.76263E+4
  -2.56981E+4  -2.76165E+4
  -2.52025E+4  -2.77064E+4
  -2.47485E+4  -2.77825E+4
  -2.42577E+4  -2.79241E+4
  -2.36855E+4  -2.80223E+4
  -2.31782E+4  -2.79864E+4
  -2.27238E+4  -2.80657E+4
  -2.22527E+4  -2.81481E+4
  -2.17219E+4  -2.81288E+4
  -2.12414E+4  -2.81707E+4
  -2.08020E+4  -2.82095E+4
  -2.03449E+4  -2.82426E+4
  -1.98828E+4  -2.82844E+4
  -1.94684E+4  -2.82347E+4
  -1.90114E+4  -2.82879E+4
  -1.86562E+4  -2.83350E+4
  -1.81852E+4  -2.82787E+4
  -1.77939E+4  -2.83828E+4
  -1.73497E+4  -2.84279E+4
  -1.68574E+4  -2.84198E+4
  -1.64719E+4  -2.85007E+4
  -1.60105E+4  -2.85436E+4
  -1.54702E+4  -2.86126E+4
  -1.51544E+4  -2.85980E+4
  -1.46715E+4  -2.86929E+4
  -1.42209E+4  -2.86448E+4
  -1.38290E+4  -2.86983E+4
  -1.34318E+4  -2.87476E+4
  -1.30419E+4  -2.88699E+4
  -1.26054E+4  -2.88616E+4
  -1.21313E+4  -2.89298E+4
  -1.17215E+4  -2.88920E+4
  -1.12224E+4  -2.88410E+4
  -1.08521E+4  -2.89694E+4
  -1.03575E+4  -2.90724E+4
  -9.82521E+3  -2.90467E+4
  -9.28043E+3  -2.89648E+4
  -8.92922E+3  -2.89478E+4
  -8.45405E+3  -2.89924E+4
  -7.98605E+3  -2.90019E+4
  -7.45673E+3  -2.90106E+4
  -6.98036E+3  -2.89612E+4
  -6.46107E+3  -2.89200E+4
  -5.94947E+3  -2.89598E+4
  -5.37386E+3  -2.88515E+4
  -4.88042E+3  -2.86361E+4
  -4.39240E+3  -2.85698E+4
  -3.92493E+3  -2.84852E+4
  -3.52987E+3  -2.84401E+4
  -2.91861E+3  -2.83351E+4
  -2.42545E+3  -2.81471E+4
  -1.86686E+3  -2.80018E+4
  -1.43318E+3  -2.78785E+4
  -9.47524E+2  -2.76926E+4
  -4.39123E+2  -2.74703E+4
   4.65200E+1  -2.72799E+4
   5.72915E+2  -2.70261E+4
   1.00525E+3  -2.69245E+4
   1.41040E+3  -2.66845E+4
   1.88135E+3  -2.63607E+4
   2.30555E+3  -2.61178E+4
   2.78041E+3  -2.57974E+4
   3.14400E+3  -2.56589E+4
   3.60702E+3  -2.52938E+4
   3.97297E+3  -2.50602E+4
   4.37443E+3  -2.47271E+4
   4.72382E+3  -2.44871E+4
   5.16114E+3  -2.41349E+4
   5.47366E+3  -2.38853E+4
   5.79280E+3  -2.35594E+4
   6.09837E+3  -2.32335E+4
   6.42395E+3  -2.29196E+4
   6.72028E+3  -2.25576E+4
   7.04680E+3  -2.22645E+4
   7.24558E+3  -2.19432E+4
   7.53921E+3  -2.15778E+4
   7.83153E+3  -2.12487E+4
   7.98533E+3  -2.09119E+4
   8.25794E+3  -2.06105E+4
   8.40723E+3  -2.02787E+4
   8.71314E+3  -1.98992E+4
   8.87852E+3  -1.95295E+4
   9.04453E+3  -1.92917E+4
   9.14639E+3  -1.89729E+4
   9.39558E+3  -1.85992E+4
   9.56935E+3  -1.82377E+4
   9.71361E+3  -1.79510E+4
   9.81905E+3  -1.75767E+4
   9.92108E+3  -1.72618E+4
   1.00494E+4  -1.69440E+4
   1.01105E+4  -1.66291E+4
   1.02828E+4  -1.62494E+4
   1.03597E+4  -1.59653E+4
   1.03544E+4  -1.56995E+4
   1.04985E+4  -1.53504E+4
   1.05827E+4  -1.50121E+4
   1.06657E+4  -1.47715E+4
   1.07125E+4  -1.44301E+4
   1.07413E+4  -1.41192E+4
   1.07514E+4  -1.38762E+4
   1.07836E+4  -1.36633E+4
   1.08408E+4  -1.32636E+4
   1.08173E+4  -1.29588E+4
   1.07824E+4  -1.26674E+4
   1.07773E+4  -1.24304E+4
   1.08389E+4  -1.21140E+4
   1.08680E+4  -1.18995E+4
   1.08285E+4  -1.16264E+4
   1.07799E+4  -1.13004E+4
   1.07830E+4  -1.10751E+4
   1.07716E+4  -1.08638E+4
   1.07378E+4  -1.05976E+4
   1.07120E+4  -1.03080E+4
   1.06253E+4  -1.00953E+4
   1.06360E+4  -9.89074E+3
   1.06254E+4  -9.68085E+3
   1.05305E+4  -9.39781E+3
   1.05138E+4  -9.20743E+3
   1.04447E+4  -8.89367E+3
   1.04102E+4  -8.71748E+3
   1.03086E+4  -8.48106E+3
   1.02129E+4  -8.26999E+3
   1.01707E+4  -8.05911E+3
   1.01459E+4  -7.83469E+3
   1.00664E+4  -7.64446E+3
   9.96230E+3  -7.53256E+3
   9.87260E+3  -7.32693E+3
   9.76085E+3  -7.10738E+3
   9.67505E+3  -6.92509E+3
   9.60341E+3  -6.71110E+3
   9.50522E+3  -6.57309E+3
   9.40903E+3  -6.40262E+3
   9.36621E+3  -6.25321E+3
   9.28275E+3  -6.02993E+3
   9.16021E+3  -5.94422E+3
   9.06500E+3  -5.72852E+3
   9.01883E+3  -5.66831E+3
   8.87178E+3  -5.46819E+3
   8.82107E+3  -5.34069E+3
   8.68011E+3  -5.20533E+3
   8.61127E+3  -5.05948E+3
   8.49671E+3  -4.98532E+3
   8.40719E+3  -4.87383E+3
   8.24032E+3  -4.72361E+3
   8.21066E+3  -4.61228E+3
   8.09999E+3  -4.48743E+3
   7.95696E+3  -4.36638E+3
   7.88834E+3  -4.19991E+3
   7.78903E+3  -4.05829E+3
   7.72524E+3  -4.02346E+3
   7.66630E+3  -3.92003E+3
   7.51975E+3  -3.79510E+3
   7.42493E+3  -3.68449E+3
   7.28392E+3  -3.55522E+3
   7.19832E+3  -3.46346E+3
   7.13391E+3  -3.35044E+3
   7.02940E+3  -3.29301E+3
   6.94122E+3  -3.23205E+3
   6.91333E+3  -3.11607E+3
   6.69804E+3  -3.03317E+3
   6.66583E+3  -2.85778E+3
   6.53406E+3  -2.85387E+3
   6.47324E+3  -2.74684E+3
   6.37289E+3  -2.68707E+3
   6.27852E+3  -2.60835E+3
   6.14175E+3  -2.50397E+3
   6.04945E+3  -2.39813E+3
   5.99916E+3  -2.36126E+3
   5.91821E+3  -2.28255E+3
   5.72578E+3  -2.21522E+3
   5.66989E+3  -2.15417E+3
   5.63045E+3  -2.08194E+3
   5.50799E+3  -1.99299E+3
   5.43364E+3  -1.96504E+3
   5.30581E+3  -1.88472E+3
   5.23524E+3  -1.83067E+3
   5.11599E+3  -1.71190E+3
   5.03790E+3  -1.61881E+3
   5.01027E+3  -1.62584E+3
   4.88990E+3  -1.59723E+3
   4.76250E+3  -1.45948E+3
   4.70347E+3  -1.42461E+3
   4.65677E+3  -1.33716E+3
   4.56589E+3  -1.30675E+3
   4.44902E+3  -1.27339E+3
   4.39057E+3  -1.31940E+3
   4.31931E+3  -1.18683E+3
   4.22898E+3  -1.14818E+3
   4.17376E+3  -1.09058E+3
   4.10001E+3  -1.02956E+3
   4.02801E+3  -9.75504E+2
   4.00879E+3  -9.57756E+2
   3.87061E+3  -9.09323E+2
   3.76537E+3  -9.07801E+2
   3.67195E+3  -8.07066E+2
   3.63978E+3  -7.03032E+2
   3.61970E+3  -7.37258E+2
   3.46274E+3  -7.64284E+2
   3.43805E+3  -7.45808E+2
   3.38629E+3  -6.86843E+2
   3.34395E+3  -6.18074E+2
   3.22797E+3  -6.17433E+2
   3.14932E+3  -5.69607E+2
   3.08352E+3  -4.76594E+2
   3.08803E+3  -4.57959E+2
   2.98587E+3  -4.51698E+2
   2.91093E+3  -4.40670E+2
   2.87505E+3  -3.76628E+2
   2.84009E+3  -4.03323E+2
   2.72620E+3  -2.83126E+2
   2.67341E+3  -2.72012E+2
   2.68007E+3  -2.71845E+2
   2.57543E+3  -2.66979E+2
   2.55598E+3  -2.56488E+2
   2.43647E+3  -2.04603E+2
   2.46876E+3  -1.89224E+2
   2.36884E+3  -7.22200E+1
   2.34680E+3  -1.23520E+2
   2.23602E+3  -1.43471E+2
   2.22288E+3  -1.03677E+2
   2.12922E+3  -1.06828E+2
   2.14399E+3  -2.00643E+1
   2.08962E+3   6.72446E+0
   2.00474E+3   2.21695E+1
   1.97827E+3   2.00416E+1
   1.93048E+3  -1.70206E+1
   1.85243E+3   4.80187E+1
   1.86017E+3   2.78228E+1
   1.79725E+3   8.52931E+1
   1.76848E+3   8.65186E+1
   1.68801E+3   5.90553E+1
   1.66415E+3   9.85589E+1
   1.59360E+3   1.47658E+2
   1.53518E+3   1.35937E+2
   1.53703E+3   6.98888E+1
   1.48849E+3   1.24075E+2
   1.43625E+3   1.64723E+2
   1.41138E+3   1.45537E+2
   1.31806E+3   1.50481E+2
   1.30851E+3   1.82098E+2
   1.32040E+3   1.51360E+2
   1.18418E+3   1.28366E+2
   1.23757E+3   1.11409E+2
   1.15850E+3   1.67185E+2
   1.10028E+3   6.91373E+1
   1.08756E+3   1.55142E+2
   1.05895E+3   1.83220E+2
   1.01344E+3   1.49910E+2
   9.49017E+2   1.30896E+2
   8.86061E+2   1.28397E+2
   9.54979E+2   1.03774E+2
   9.45758E+2   1.73395E+2
   8.62044E+2   1.88835E+2
   8.13141E+2   1.28982E+2
   8.29986E+2   1.78419E+2
   7.72054E+2   1.31534E+2
   7.14732E+2   8.01158E+1
   7.61403E+2   9.87700E+1
   7.48001E+2   1.40692E+2
   6.71070E+2   1.29538E+2
   6.05557E+2   8.23421E+1
   5.89016E+2   9.08829E+1
   6.37524E+2   1.23196E+2
   5.69598E+2   1.18359E+2
   5.80057E+2   5.00317E+1
   5.34775E+2   1.95342E+2
   5.40503E+2   1.33354E+2
   5.28320E+2   1.36715E+2
   4.36137E+2   8.60796E+1
   4.51454E+2   8.98172E+1
   4.15809E+2   1.23685E+2
   3.95593E+2   9.07517E+1
   4.67286E+2   6.02783E+1
   3.64942E+2   8.53646E+1
   3.70425E+2   4.57074E+1
   4.02699E+2   4.56303E+1
   2.93899E+2   4.55448E+1
   2.51887E+2   1.21751E+2
   1.96597E+2   1.01411E+2
   2.26402E+2   1.09346E+2
   1.95647E+2   4.69723E+1
   2.18764E+2   4.85508E+1
   9.29973E+1   6.00847E+1
   2.19592E+2   5.40301E+1
   1.26566E+2   1.15681E+1
   1.66768E+2  -5.16459E+0
   9.80227E+1   7.53424E+1
   6.79165E+1   1.92305E+1
   6.31013E+1   6.36924E+1
   7.94532E+1  -3.37742E+1
  -1.18714E+1  -1.41291E+1
   1.82234E+0  -1.80446E+1
  -5.53645E+0  -1.28673E+0
   1.59423E+1   2.55839E+1
  -4.92762E+1  -1.36266E+1
  -9.83556E+1  -2.62043E+1
  -9.76609E+1   2.15631E+1
  -4.14218E+1   2.26951E+1
  -1.33166E+2  -6.24327E+1
  -1.18583E+2  -4.56505E-1
  -1.48274E+2  -2.29629E+1
  -1.60781E+2  -3.71415E+1
  -2.27005E+2  -3.29884E+1
