 
 $NMID
 ID=''
 FMTDAT='(2E13.5)'
 TRAMP=   1.00000E+0
 VOLUME=   1.00000E+0
 $END
  -1.70308E+3   1.87037E+4
  -1.74175E+4   4.49212E+4
  -8.58402E+3   4.71600E+4
  -7.00428E+3   4.34532E+4
  -7.82343E+3   4.47063E+4
  -5.01023E+3   4.51405E+4
  -4.36881E+3   4.32123E+4
  -4.72983E+3   4.33955E+4
  -2.76245E+3   4.35282E+4
  -2.16052E+3   4.21353E+4
  -2.23171E+3   4.19681E+4
  -6.10688E+2   4.17791E+4
   2.07566E+2   4.07100E+4
   1.86425E+2   4.04408E+4
   1.43704E+3   4.01218E+4
   2.13477E+3   3.90504E+4
   2.39562E+3   3.86991E+4
   3.41803E+3   3.81940E+4
   4.20779E+3   3.72379E+4
   4.48100E+3   3.67420E+4
   5.35389E+3   3.60871E+4
   6.16763E+3   3.51772E+4
   6.52075E+3   3.47358E+4
   7.19616E+3   3.41537E+4
   7.78343E+3   3.31961E+4
   8.09051E+3   3.27048E+4
   8.59633E+3   3.21733E+4
   8.96699E+3   3.12882E+4
   9.16436E+3   3.07508E+4
   9.59442E+3   3.01609E+4
   1.00628E+4   2.92514E+4
   1.02638E+4   2.87734E+4
   1.05562E+4   2.82085E+4
   1.07837E+4   2.72964E+4
   1.09341E+4   2.66090E+4
   1.13525E+4   2.59960E+4
   1.14845E+4   2.52059E+4
   1.16224E+4   2.44828E+4
   1.19518E+4   2.38389E+4
   1.21127E+4   2.31129E+4
   1.22527E+4   2.24926E+4
   1.22537E+4   2.19224E+4
   1.22507E+4   2.12721E+4
   1.23642E+4   2.06235E+4
   1.24168E+4   2.00556E+4
   1.24347E+4   1.95286E+4
   1.23888E+4   1.89733E+4
   1.24162E+4   1.83108E+4
   1.23402E+4   1.77888E+4
   1.22589E+4   1.72982E+4
   1.21570E+4   1.67681E+4
   1.20261E+4   1.63115E+4
   1.19124E+4   1.57577E+4
   1.18180E+4   1.53373E+4
   1.15766E+4   1.48990E+4
   1.14180E+4   1.44494E+4
   1.12052E+4   1.40698E+4
   1.08949E+4   1.36529E+4
   1.06275E+4   1.32199E+4
   1.03783E+4   1.28383E+4
   1.00825E+4   1.24027E+4
   9.73762E+3   1.20534E+4
   9.54475E+3   1.17224E+4
   9.19252E+3   1.13950E+4
   8.78768E+3   1.09785E+4
   8.50835E+3   1.06298E+4
   8.16433E+3   1.03505E+4
   7.81030E+3   1.00082E+4
   7.41488E+3   9.62489E+3
   7.07430E+3   9.27957E+3
   6.75334E+3   8.98124E+3
   6.31718E+3   8.69903E+3
   6.04449E+3   8.35340E+3
   5.58201E+3   8.04716E+3
   5.34321E+3   7.76288E+3
   4.95100E+3   7.40883E+3
   4.71835E+3   7.15931E+3
   4.33445E+3   6.88702E+3
   4.03079E+3   6.64969E+3
   3.79626E+3   6.34056E+3
   3.53437E+3   6.09284E+3
   3.24057E+3   5.85941E+3
   3.00979E+3   5.65763E+3
   2.78750E+3   5.42037E+3
   2.64739E+3   5.32210E+3
   2.43221E+3   5.09384E+3
   2.22552E+3   4.92001E+3
   2.08127E+3   4.78531E+3
   1.91580E+3   4.63327E+3
   1.72757E+3   4.54987E+3
   1.62550E+3   4.49907E+3
   1.45867E+3   4.40071E+3
   1.35589E+3   4.26544E+3
   1.28264E+3   4.21517E+3
   1.18966E+3   4.15526E+3
   1.08997E+3   4.11582E+3
   1.09439E+3   4.11481E+3
   9.07005E+2   4.02120E+3
   7.69683E+2   4.03910E+3
   8.03356E+2   4.13124E+3
   7.12726E+2   4.09797E+3
   6.52607E+2   4.13157E+3
   6.07623E+2   4.12502E+3
   6.21897E+2   4.18458E+3
   5.75380E+2   4.22305E+3
   5.07070E+2   4.25480E+3
   4.40019E+2   4.25563E+3
   4.27939E+2   4.37978E+3
   3.91739E+2   4.44077E+3
   3.99285E+2   4.48501E+3
   2.98829E+2   4.46962E+3
   3.89403E+2   4.57396E+3
   2.57924E+2   4.70315E+3
   2.49798E+2   4.70253E+3
   8.99104E+1   4.71497E+3
   1.75265E+2   4.75093E+3
   1.78778E+2   4.84142E+3
   7.18307E+1   4.78782E+3
   1.38240E+2   4.83844E+3
   8.60623E+1   4.88407E+3
   7.89698E+1   4.93472E+3
   1.72772E+2   4.90042E+3
   1.34364E+2   4.90254E+3
   4.80388E+1   4.99529E+3
   1.61823E+2   5.00613E+3
   2.00020E+2   5.00860E+3
   1.68645E+2   5.01440E+3
   1.81605E+2   5.07687E+3
   2.89527E+2   5.07861E+3
   2.86167E+2   5.08746E+3
   2.97271E+2   5.05317E+3
   3.95249E+2   5.10166E+3
   4.13339E+2   5.07945E+3
   4.25556E+2   5.06131E+3
   4.98264E+2   5.02192E+3
   5.19094E+2   5.06843E+3
   5.45437E+2   5.04378E+3
   5.74196E+2   4.99650E+3
   6.86531E+2   5.05055E+3
   7.40988E+2   5.03106E+3
   6.85749E+2   4.97684E+3
   7.88231E+2   4.99766E+3
   8.97410E+2   4.95371E+3
   8.98146E+2   4.94139E+3
   9.87105E+2   4.89122E+3
   9.82064E+2   4.94317E+3
   1.00661E+3   4.91349E+3
   1.01086E+3   4.94239E+3
   1.09385E+3   4.86074E+3
   1.07861E+3   4.87500E+3
   1.20772E+3   4.83679E+3
   1.15256E+3   4.78241E+3
   1.19969E+3   4.84156E+3
   1.22163E+3   4.73299E+3
   1.17816E+3   4.69536E+3
   1.24204E+3   4.66851E+3
   1.24920E+3   4.73413E+3
   1.29381E+3   4.63819E+3
   1.23794E+3   4.66496E+3
   1.25176E+3   4.53858E+3
   1.22292E+3   4.47051E+3
   1.21603E+3   4.45475E+3
   1.28007E+3   4.45306E+3
   1.22219E+3   4.33839E+3
   1.18482E+3   4.34138E+3
   1.31322E+3   4.24902E+3
   1.27439E+3   4.24456E+3
   1.20801E+3   4.11995E+3
   1.24613E+3   4.08296E+3
   1.25740E+3   4.10090E+3
   1.21053E+3   3.97388E+3
   1.21682E+3   3.94958E+3
   1.25386E+3   3.87727E+3
   1.19218E+3   3.80087E+3
   1.18051E+3   3.73513E+3
   1.15007E+3   3.71798E+3
   1.12487E+3   3.63568E+3
   1.14323E+3   3.60346E+3
   1.10124E+3   3.58193E+3
   1.08002E+3   3.41394E+3
   1.09975E+3   3.45624E+3
   1.02363E+3   3.33652E+3
   1.05401E+3   3.36158E+3
   1.07991E+3   3.21859E+3
   9.82853E+2   3.12720E+3
   1.04155E+3   3.07003E+3
   9.96294E+2   3.04344E+3
   9.28267E+2   2.99166E+3
   9.92047E+2   2.94748E+3
   9.05837E+2   2.94660E+3
   8.81413E+2   2.86381E+3
   8.86912E+2   2.86213E+3
   8.95153E+2   2.74694E+3
   7.99328E+2   2.76287E+3
   7.93180E+2   2.64825E+3
   7.38237E+2   2.60546E+3
   7.82016E+2   2.58792E+3
   7.34704E+2   2.50027E+3
   6.37843E+2   2.48461E+3
   6.44817E+2   2.45562E+3
   6.05150E+2   2.36947E+3
   5.95980E+2   2.35071E+3
   5.56396E+2   2.30655E+3
   6.09550E+2   2.25465E+3
   4.83203E+2   2.18991E+3
   4.73882E+2   2.15285E+3
   4.15895E+2   2.15211E+3
   3.85866E+2   2.07811E+3
   4.89555E+2   2.04534E+3
   3.60876E+2   2.01773E+3
   3.32875E+2   1.98537E+3
   3.53740E+2   1.96553E+3
   2.79985E+2   1.93481E+3
   2.18602E+2   1.91309E+3
   2.40660E+2   1.78309E+3
   2.07341E+2   1.79312E+3
   1.87634E+2   1.77834E+3
   1.81835E+2   1.67768E+3
   1.53971E+2   1.72243E+3
   1.13555E+2   1.64812E+3
   1.10343E+2   1.63828E+3
   9.79925E+1   1.58674E+3
   1.09137E+2   1.54210E+3
   1.64326E+1   1.45995E+3
   4.92487E+1   1.52662E+3
   1.72850E+1   1.41486E+3
   5.59557E+1   1.39893E+3
   8.19063E+0   1.36235E+3
  -5.96708E-1   1.35256E+3
  -5.75085E+1   1.28910E+3
  -2.78212E+1   1.28987E+3
   1.52659E+1   1.23877E+3
  -5.22509E+1   1.23430E+3
  -2.99106E+1   1.24424E+3
  -1.03715E+2   1.19633E+3
  -9.67031E+1   1.24703E+3
  -7.43468E+1   1.17400E+3
  -7.12228E+1   1.09553E+3
  -1.03190E+2   1.16148E+3
  -1.33550E+2   1.12025E+3
  -1.65867E+2   1.03077E+3
  -1.06926E+2   1.14304E+3
  -1.55677E+2   1.06319E+3
  -1.22226E+2   1.06132E+3
  -1.08022E+2   9.78167E+2
  -2.13934E+2   1.02887E+3
  -1.06681E+2   9.75684E+2
  -1.57985E+2   9.87541E+2
  -1.68840E+2   9.69691E+2
  -1.03146E+2   9.56486E+2
  -1.81773E+2   9.61885E+2
  -1.07970E+2   9.49126E+2
  -1.13626E+2   8.71917E+2
  -1.36820E+2   9.23284E+2
  -1.79928E+2   8.20234E+2
  -1.70721E+2   8.65746E+2
  -1.57530E+2   8.11307E+2
  -1.80474E+2   8.38022E+2
  -1.55015E+2   7.80220E+2
  -1.87059E+2   9.17126E+2
  -1.30562E+2   8.56026E+2
  -1.25302E+2   7.57111E+2
  -1.77142E+2   8.03498E+2
  -1.88287E+2   8.43366E+2
  -1.23420E+2   7.24397E+2
  -1.39638E+2   7.41740E+2
  -2.08181E+2   7.55033E+2
  -1.48757E+2   7.32713E+2
  -1.02770E+2   7.41056E+2
  -1.52330E+2   6.71809E+2
  -1.53296E+2   7.39365E+2
  -1.53917E+2   6.72410E+2
  -2.11017E+2   6.93350E+2
  -1.40836E+2   6.68162E+2
  -1.65946E+2   6.13756E+2
  -1.78702E+2   5.98109E+2
  -1.72693E+2   6.47762E+2
  -1.34502E+2   5.86317E+2
  -1.73031E+2   5.84618E+2
  -1.95636E+2   5.46651E+2
  -1.23576E+2   5.89977E+2
  -1.00779E+2   5.54946E+2
  -1.42704E+2   5.17331E+2
  -1.41586E+2   5.07566E+2
  -1.57977E+2   4.57066E+2
  -1.29635E+2   5.27849E+2
  -5.89837E+1   5.14365E+2
  -1.60074E+2   5.09456E+2
  -2.14445E+2   4.94589E+2
  -2.32782E+2   4.15630E+2
  -1.52557E+2   4.05701E+2
  -9.65379E+1   4.12550E+2
  -1.75587E+2   3.64949E+2
  -1.72677E+2   3.84487E+2
  -1.89863E+2   3.76295E+2
  -1.79258E+2   3.52149E+2
  -1.53668E+2   4.01433E+2
  -1.43007E+2   3.85441E+2
  -1.55374E+2   3.90591E+2
  -1.27930E+2   3.24649E+2
  -1.02167E+2   3.10203E+2
  -1.43764E+2   2.72019E+2
  -7.06925E+1   3.54054E+2
  -1.24109E+2   2.87192E+2
  -1.47417E+2   2.91802E+2
  -1.56126E+2   2.60038E+2
  -1.44073E+2   2.65087E+2
  -7.54130E+1   2.86220E+2
  -1.15906E+2   3.26410E+2
  -1.29271E+2   2.55657E+2
  -1.16237E+2   2.08591E+2
  -5.19070E+1   2.42763E+2
  -3.69301E+1   2.73029E+2
  -7.86597E+1   2.25208E+2
  -9.37943E+1   1.85190E+2
  -8.72836E+1   1.95422E+2
  -1.43587E+2   2.47183E+2
  -3.55307E+1   1.79338E+2
  -4.33996E+1   1.44185E+2
  -7.62491E+1   2.03602E+2
  -8.20171E+1   1.64291E+2
  -3.33576E+1   1.14385E+2
  -9.41243E+1   1.12248E+2
  -5.88074E+1   5.47457E+1
  -1.00613E+2   8.27289E+1
  -6.48898E+1   1.30670E+2
  -5.31873E+1   8.91611E+1
  -6.53062E+1   9.34175E+1
  -8.14290E+1   4.36252E+1
  -5.88069E+1   8.90530E+1
  -9.26458E+1   7.18917E+1
  -7.75624E+1   7.45022E+1
  -8.94788E+1   9.35376E+1
  -5.55796E+1   2.71184E+1
  -7.46785E+1   4.35657E+1
  -4.42904E+1   2.93031E+1
  -4.36874E+1   4.51606E+1
  -3.14567E+1   2.79552E+1
  -1.37901E+2   9.43167E+0
  -4.83931E+1   7.52082E+0
  -2.30355E+1   8.43336E+0
   7.45957E-1  -1.93539E+1
  -6.61663E+1   6.55296E+1
  -4.70637E+1  -3.83428E+1
   1.42665E+1  -3.40077E+0
  -1.14826E+1   2.46091E+1
  -5.14211E+1   1.87697E+0
  -1.53726E+0   4.24560E+1
  -1.59885E+1  -7.75498E+1
   5.20360E+0   7.14777E+0
  -6.78257E+0  -3.15957E+1
  -5.13900E+1   2.02659E+1
  -2.59878E+1  -4.50960E+1
  -2.00541E+1   8.53304E+0
  -4.45167E+1  -7.62353E+1
  -2.14449E+1  -7.04462E+1
  -3.85492E+1   1.54060E+1
  -6.22871E+1   4.31582E+1
  -7.99890E+1  -7.48325E+1
  -5.54974E+1  -3.02171E+1
  -6.72658E+1  -2.85211E+1
  -9.09452E-1  -7.06203E+1
  -6.49043E+1  -1.81348E+1
  -3.34831E+1   1.75731E+1
  -8.85727E+1   1.37051E+1
  -6.36577E+1  -5.76937E+1
  -5.78937E+1  -1.67389E+1
