 LCModel (Version 6.3-1N) Copyright: S.W. Provencher.          Ref.: Magn. Reson. Med. 30:672-679 (1993).                
 Slice_N1@24_20  02-Jun-2023 14:37:49
 27 lines in following concentration table = NCONC+1
    Conc.  %SD /Cr+PCr  Metabolite                                         
 1.85E-06  19% 2.3E-04 Mac                                                 
 6.54E-02  12%   8.000 Cr                                                  
    0.000 999%   0.000 PCr                                                 
 8.52E-02  12%  10.424 Ins                                                 
 7.12E-02  11%   8.703 NAA                                                 
 4.02E-02  23%   4.915 Tau                                                 
 9.79E-03  24%   1.198 PCho                                                
    0.000 999%   0.000 GPC                                                 
 5.87E-02  18%   7.181 Glu                                                 
 1.92E-02  39%   2.343 Gln                                                 
    0.000 999%   0.000 Ala                                                 
 4.38E-03 334%   0.536 Asc                                                 
 4.27E-03 174%   0.522 Asp                                                 
 4.65E-03  89%   0.569 GABA                                                
 6.66E-03  72%   0.814 Glc                                                 
 6.64E-03  62%   0.813 GSH                                                 
    0.000 999%   0.000 Lac                                                 
    0.000 999%   0.000 NAAG                                                
    0.000 999%   0.000 PE                                                  
 9.79E-03  24%   1.198 GPC+PCho                                            
 7.12E-02  11%   8.703 NAA+NAAG                                            
 7.79E-02  16%   9.525 Glu+Gln                                             
 6.54E-02  12%   8.000 Cr+PCr                                              
 7.12E-02  11%   8.703 NAA+NAAG                                            
 6.54E-02  12%   8.000 Cr+PCr                                              
 7.79E-02  16%   9.525 Glu+Gln                                             
   6 lines in following misc. output table
  FWHM = 0.047 ppm    S/N =   2                                            
  Data shift = 0.041 ppm                                                   
  Ph:  22 deg     -11.2 deg/ppm                                            
  alphaB,S = 3.1E+01,   2.4E+01                                            
   18 spline knots.   Ns = 8(1)                                            
   2 inflections.     1 extrema                                            
  654 points on ppm-axis = NY
      4.000000     3.994181     3.988363     3.982544     3.976726     3.970907     3.965088     3.959270     3.953451     3.947633
      3.941814     3.935995     3.930177     3.924358     3.918540     3.912721     3.906902     3.901084     3.895265     3.889446
      3.883628     3.877809     3.871991     3.866172     3.860353     3.854535     3.848716     3.842898     3.837079     3.831260
      3.825442     3.819623     3.813805     3.807986     3.802167     3.796349     3.790530     3.784712     3.778893     3.773074
      3.767256     3.761437     3.755619     3.749800     3.743981     3.738163     3.732344     3.726526     3.720707     3.714888
      3.709070     3.703251     3.697433     3.691614     3.685795     3.679977     3.674158     3.668339     3.662521     3.656702
      3.650884     3.645065     3.639246     3.633428     3.627609     3.621791     3.615972     3.610153     3.604335     3.598516
      3.592698     3.586879     3.581060     3.575242     3.569423     3.563605     3.557786     3.551967     3.546149     3.540330
      3.534512     3.528693     3.522874     3.517056     3.511237     3.505419     3.499600     3.493781     3.487963     3.482144
      3.476326     3.470507     3.464688     3.458870     3.453051     3.447232     3.441414     3.435595     3.429777     3.423958
      3.418139     3.412321     3.406502     3.400684     3.394865     3.389046     3.383228     3.377409     3.371591     3.365772
      3.359953     3.354135     3.348316     3.342498     3.336679     3.330860     3.325042     3.319223     3.313405     3.307586
      3.301767     3.295949     3.290130     3.284312     3.278493     3.272674     3.266856     3.261037     3.255219     3.249400
      3.243581     3.237763     3.231944     3.226125     3.220307     3.214488     3.208670     3.202851     3.197032     3.191214
      3.185395     3.179577     3.173758     3.167939     3.162121     3.156302     3.150484     3.144665     3.138846     3.133028
      3.127209     3.121391     3.115572     3.109753     3.103935     3.098116     3.092298     3.086479     3.080660     3.074842
      3.069023     3.063205     3.057386     3.051567     3.045749     3.039930     3.034111     3.028293     3.022474     3.016656
      3.010837     3.005018     2.999200     2.993381     2.987563     2.981744     2.975925     2.970107     2.964288     2.958470
      2.952651     2.946832     2.941014     2.935195     2.929377     2.923558     2.917739     2.911921     2.906102     2.900284
      2.894465     2.888646     2.882828     2.877009     2.871191     2.865372     2.859553     2.853735     2.847916     2.842098
      2.836279     2.830460     2.824642     2.818823     2.813004     2.807186     2.801367     2.795549     2.789730     2.783911
      2.778093     2.772274     2.766456     2.760637     2.754818     2.749000     2.743181     2.737363     2.731544     2.725725
      2.719907     2.714088     2.708270     2.702451     2.696632     2.690814     2.684995     2.679177     2.673358     2.667539
      2.661721     2.655902     2.650084     2.644265     2.638446     2.632628     2.626809     2.620991     2.615172     2.609353
      2.603535     2.597716     2.591897     2.586079     2.580260     2.574442     2.568623     2.562804     2.556986     2.551167
      2.545349     2.539530     2.533711     2.527893     2.522074     2.516256     2.510437     2.504618     2.498800     2.492981
      2.487163     2.481344     2.475525     2.469707     2.463888     2.458070     2.452251     2.446432     2.440614     2.434795
      2.428977     2.423158     2.417339     2.411521     2.405702     2.399884     2.394065     2.388246     2.382428     2.376609
      2.370790     2.364972     2.359153     2.353335     2.347516     2.341697     2.335879     2.330060     2.324242     2.318423
      2.312604     2.306786     2.300967     2.295149     2.289330     2.283511     2.277693     2.271874     2.266056     2.260237
      2.254418     2.248600     2.242781     2.236963     2.231144     2.225325     2.219507     2.213688     2.207870     2.202051
      2.196232     2.190414     2.184595     2.178777     2.172958     2.167139     2.161321     2.155502     2.149683     2.143865
      2.138046     2.132228     2.126409     2.120590     2.114772     2.108953     2.103135     2.097316     2.091497     2.085679
      2.079860     2.074042     2.068223     2.062404     2.056586     2.050767     2.044949     2.039130     2.033311     2.027493
      2.021674     2.015856     2.010037     2.004218     1.998400     1.992581     1.986763     1.980944     1.975126     1.969307
      1.963489     1.957670     1.951852     1.946033     1.940215     1.934397     1.928578     1.922760     1.916941     1.911123
      1.905304     1.899486     1.893667     1.887849     1.882030     1.876212     1.870393     1.864575     1.858756     1.852938
      1.847119     1.841301     1.835482     1.829664     1.823845     1.818027     1.812208     1.806390     1.800571     1.794753
      1.788934     1.783116     1.777297     1.771479     1.765660     1.759842     1.754023     1.748205     1.742386     1.736568
      1.730749     1.724931     1.719113     1.713294     1.707476     1.701657     1.695839     1.690020     1.684202     1.678383
      1.672565     1.666746     1.660928     1.655109     1.649291     1.643472     1.637654     1.631835     1.626017     1.620198
      1.614380     1.608561     1.602743     1.596924     1.591106     1.585287     1.579469     1.573650     1.567832     1.562013
      1.556195     1.550376     1.544558     1.538739     1.532921     1.527102     1.521284     1.515465     1.509647     1.503829
      1.498010     1.492192     1.486373     1.480555     1.474736     1.468918     1.463099     1.457281     1.451462     1.445644
      1.439825     1.434007     1.428188     1.422370     1.416551     1.410733     1.404914     1.399096     1.393277     1.387459
      1.381640     1.375822     1.370003     1.364185     1.358366     1.352548     1.346729     1.340911     1.335092     1.329274
      1.323455     1.317637     1.311818     1.306000     1.300182     1.294363     1.288545     1.282726     1.276908     1.271089
      1.265271     1.259452     1.253634     1.247815     1.241997     1.236178     1.230360     1.224541     1.218723     1.212904
      1.207086     1.201267     1.195449     1.189630     1.183812     1.177993     1.172175     1.166356     1.160538     1.154719
      1.148901     1.143082     1.137264     1.131445     1.125627     1.119808     1.113990     1.108171     1.102353     1.096534
      1.090716     1.084898     1.079079     1.073261     1.067442     1.061624     1.055805     1.049987     1.044168     1.038350
      1.032531     1.026713     1.020894     1.015076     1.009257     1.003439     0.997620     0.991802     0.985983     0.980165
      0.974346     0.968528     0.962709     0.956891     0.951072     0.945254     0.939435     0.933617     0.927798     0.921980
      0.916161     0.910343     0.904524     0.898706     0.892887     0.887069     0.881251     0.875432     0.869614     0.863795
      0.857977     0.852158     0.846340     0.840521     0.834703     0.828884     0.823066     0.817247     0.811429     0.805610
      0.799792     0.793973     0.788155     0.782336     0.776518     0.770699     0.764881     0.759062     0.753244     0.747425
      0.741607     0.735788     0.729970     0.724151     0.718333     0.712514     0.706696     0.700877     0.695059     0.689240
      0.683422     0.677603     0.671785     0.665967     0.660148     0.654330     0.648511     0.642693     0.636874     0.631056
      0.625237     0.619419     0.613600     0.607782     0.601963     0.596145     0.590326     0.584508     0.578689     0.572871
      0.567052     0.561234     0.555415     0.549597     0.543778     0.537960     0.532141     0.526323     0.520504     0.514686
      0.508867     0.503049     0.497230     0.491412     0.485593     0.479775     0.473956     0.468138     0.462319     0.456501
      0.450682     0.444864     0.439045     0.433227     0.427408     0.421590     0.415771     0.409953     0.404134     0.398316
      0.392497     0.386679     0.380860     0.375042     0.369223     0.363405     0.357586     0.351767     0.345949     0.340130
      0.334312     0.328493     0.322675     0.316856     0.311038     0.305219     0.299401     0.293582     0.287764     0.281945
      0.276127     0.270308     0.264490     0.258671     0.252853     0.247034     0.241216     0.235397     0.229579     0.223760
      0.217942     0.212123     0.206305     0.200486
 NY phased data points follow
  -1.72131E-01 -1.62168E-01 -1.39369E-01 -1.39086E-01 -2.79488E-01 -2.88232E-01 -7.49725E-02 -1.97278E-01 -3.43079E-01 -3.91595E-02
  -1.36423E-01  2.55130E-01  1.89640E-01  7.73759E-02  8.82324E-02  3.01494E-01  4.03635E-01 -1.41664E-02  3.36525E-01  5.17860E-01
   3.86075E-01  2.78065E-02  4.69381E-02  2.73922E-01  1.92180E-01 -1.25628E-02 -1.59120E-01 -5.82637E-02  2.66745E-02 -1.44578E-01
  -8.61900E-02 -7.08440E-02 -1.24153E-01  6.41678E-02 -1.99892E-01 -2.56119E-01 -3.60193E-01 -2.47628E-01  7.02171E-02 -7.54903E-02
  -2.49575E-01  1.35512E-01  3.12951E-01  1.51409E-01  3.38027E-01  4.00825E-01  3.79345E-01 -2.99566E-03  7.88629E-03  3.43042E-01
   8.70626E-02 -3.87394E-02  1.98803E-01 -9.83691E-02 -2.35116E-01 -1.89927E-01 -3.51635E-01 -3.59970E-01 -1.91983E-01 -6.93216E-02
  -2.86214E-01 -1.31343E-01 -1.76688E-01 -1.34227E-01 -1.83122E-01 -1.15075E-01 -2.03456E-01 -4.73339E-01 -1.97537E-04  7.82112E-02
   1.27539E-01  1.11908E-01  1.46063E-01  2.86623E-01  1.72504E-01  1.38190E-02 -2.69739E-02 -2.69327E-01 -4.15049E-01 -2.05694E-01
  -4.15490E-01 -3.27428E-01 -5.42891E-02  6.81262E-02  1.10871E-01  2.03402E-01  5.55769E-01  3.90297E-01  4.78442E-01  4.10746E-01
   9.18560E-02  2.61441E-01  1.33406E-01  1.15146E-01 -1.92305E-01  2.72131E-01  2.43612E-01 -2.58871E-01  2.47177E-01  1.44746E-02
  -2.89731E-01 -1.74431E-01  2.48284E-01  1.81282E-01  2.12038E-01 -1.10077E-02  1.36666E-01  4.29856E-01  3.51475E-01  3.78279E-01
   2.17453E-01  8.45825E-01  4.27024E-01  2.58024E-01  3.08084E-01  2.14903E-01  2.40068E-01 -2.57455E-02  9.87032E-02  3.97491E-01
   2.50748E-01 -3.58487E-02  2.46440E-01  8.02842E-02  1.93219E-01 -2.23284E-01  4.70803E-02 -1.34124E-01 -5.78100E-01 -1.51411E-01
  -3.40247E-01 -1.90402E-01 -3.03131E-01 -2.24226E-01 -3.56921E-01 -1.07623E-01 -5.21003E-01 -6.36585E-01 -1.75855E-01 -3.44534E-01
  -2.71322E-01 -8.90971E-02  1.62917E-01 -2.31090E-01 -8.42643E-03  1.19723E-01  3.20676E-01  2.75912E-01  4.18300E-01  4.61700E-01
   7.65727E-02  3.61605E-01  3.22849E-01  3.77805E-01  6.03274E-02  2.57319E-01  8.87524E-02  3.06061E-01  5.12783E-01 -5.15571E-02
   4.04293E-01  3.94885E-01  6.06597E-01  7.36158E-01  3.72702E-01  2.80362E-01  2.92752E-01 -5.22751E-02 -3.68386E-01 -2.00294E-01
  -3.48384E-01 -5.11276E-01 -7.10637E-01 -7.55562E-01 -5.08227E-01 -3.23838E-01 -2.16121E-01 -4.46533E-01 -5.30902E-01 -4.92266E-01
  -5.16226E-01 -2.38405E-01 -3.33468E-01 -3.40731E-01 -4.04852E-02  3.72233E-02 -1.27588E-01 -4.07710E-01 -1.75893E-01 -2.45155E-02
  -2.57518E-01 -2.06318E-01 -8.37792E-02 -2.36809E-01 -1.07754E-01  2.40457E-02  6.73258E-02  3.10220E-01  1.75268E-01 -3.19049E-01
  -2.61676E-01  4.34011E-02 -1.17301E-01  9.09069E-03  7.60377E-02  5.14342E-02 -2.68527E-02 -5.37590E-02 -5.50726E-02  4.48106E-03
   8.88693E-02 -8.33246E-02  2.67369E-03  5.81362E-02  1.59963E-02 -2.95642E-01 -8.21508E-02 -2.68344E-01  6.49112E-02  3.46951E-01
  -2.39772E-01  3.40405E-01  5.87812E-02  6.23931E-02  1.39539E-01 -1.31018E-01 -3.54611E-03 -6.26840E-02 -9.43108E-02 -7.53925E-02
   1.56816E-01  2.12463E-01  1.74911E-01  2.24659E-03  2.60478E-01 -3.04506E-01 -4.69356E-01 -4.21186E-02 -5.83371E-02  1.33390E-01
  -9.88482E-02  5.66059E-03 -2.44279E-02  7.54571E-02  8.97620E-02 -9.58394E-02 -1.33846E-02 -1.14349E-01 -3.60297E-02 -1.32278E-01
  -3.75463E-01 -7.10395E-02  6.49093E-02 -1.46086E-01  1.81168E-02  9.27478E-02 -3.60235E-01 -2.17564E-01  7.16014E-02 -3.31695E-02
   2.52920E-01 -1.62699E-01  1.01839E-01  1.56058E-01 -1.48283E-01  8.48781E-03 -7.34475E-02  2.78018E-01 -1.61094E-01 -1.59730E-02
   2.07834E-01  2.48509E-01  3.07847E-01  1.23683E-01  9.71763E-02 -1.22167E-01 -2.90066E-01 -1.93087E-01  3.39602E-01 -4.22722E-01
  -3.59196E-01  1.73497E-01 -3.49328E-01 -1.27323E-01 -1.30523E-01  5.39853E-02  2.72669E-01  1.98453E-01  5.39440E-01  1.46196E-01
   1.59005E-02  3.35544E-01  8.38304E-02  1.75648E-01  1.39021E-01  8.96155E-02  1.78667E-01  3.38350E-01  1.69191E-01  1.75459E-01
   9.66212E-02 -1.12893E-01  2.39168E-01 -9.14367E-02  6.03424E-01  5.34145E-01 -2.06491E-01  2.99729E-01  2.02449E-01  2.48116E-01
   5.78763E-02 -8.59528E-02  6.33764E-02  2.59547E-02  3.02313E-01  2.36574E-01 -8.62836E-02  2.39312E-01  1.18080E-01 -2.19245E-01
   5.84718E-02 -3.09678E-01 -2.23255E-01 -1.49874E-01 -3.56349E-01 -3.59195E-02  8.16135E-04  3.33730E-02  4.28465E-02  2.97604E-01
   2.28651E-01  8.79452E-02  1.35894E-01  1.33290E-01  2.81320E-01 -1.88894E-01 -6.14762E-01 -4.25692E-01 -2.59549E-01 -6.24362E-01
  -7.28535E-01 -5.69561E-01 -8.57503E-01 -1.09483E+00 -7.63660E-01 -5.70434E-01 -8.53291E-01 -4.70405E-01 -6.02057E-02 -2.45754E-01
  -1.80886E-02  2.06488E-01  2.26417E-01  3.25812E-01 -8.93547E-02  2.51860E-02  2.86634E-01 -9.87441E-03  5.21329E-02 -3.17654E-03
  -3.47753E-01 -4.27354E-04  2.88204E-02 -2.27988E-01  3.73620E-01  8.47349E-02  1.53526E-01  3.11314E-01  1.04384E-01  5.37664E-01
   4.04233E-01  1.23726E-01 -2.39189E-02 -2.36881E-01 -1.47103E-01  2.65330E-01 -9.54376E-03  3.55556E-01  2.22852E-01 -3.19614E-01
   2.39761E-01  1.33222E-01  5.57961E-02  1.73065E-01  1.96466E-01  2.22087E-01  3.67572E-01  5.96601E-02 -3.47464E-02  1.53038E-01
   6.90181E-02  2.00931E-01  4.03255E-01  3.45248E-01  1.04629E-01  1.10650E-01 -1.60801E-02  5.05107E-01  3.74470E-01  1.22277E-01
   1.84539E-01 -1.41064E-02  1.75476E-01 -1.12368E-01 -9.09101E-02 -1.23398E-01 -1.59106E-01 -1.60244E-01 -3.41186E-02  8.43954E-03
  -8.22240E-02  1.00425E-02 -2.71788E-01  1.18393E-01  1.01938E-01 -2.47520E-01  2.75025E-02  7.87831E-03 -1.26298E-01 -2.93003E-01
  -2.20553E-01  2.74435E-02 -2.58002E-02  4.93921E-02 -1.01545E-01 -1.80549E-01  1.49253E-01 -9.11079E-02  2.86714E-02  4.14248E-01
  -9.17008E-03 -2.76395E-01 -1.82471E-01 -5.66203E-02 -2.67982E-02 -9.56215E-02 -2.57119E-01 -4.89779E-01 -1.08926E-01  9.71778E-02
   1.30016E-01  2.71737E-01  1.65923E-02  5.08348E-03  6.30593E-02  1.68345E-01 -5.15332E-02  7.74389E-02  2.95756E-01 -4.17615E-02
   1.86777E-01  1.58322E-01 -1.47578E-01 -1.78627E-01  2.21849E-01  1.95746E-01 -1.22027E-01 -1.34050E-01 -1.56141E-01 -1.59571E-02
   1.45329E-01  1.51831E-01 -9.34629E-02  3.39066E-02 -2.33112E-01  2.77837E-02 -2.26995E-02 -4.57363E-01 -1.10277E-01 -3.82451E-02
  -3.09195E-02 -5.37399E-01 -2.15397E-01 -2.70523E-01 -3.11553E-01 -4.30059E-01 -5.27173E-01 -3.53016E-03 -2.76093E-01  1.10294E-01
  -1.34964E-01 -3.40355E-01 -4.05287E-01 -3.21826E-02  1.34015E-01  1.03718E-01  2.57869E-01 -1.32724E-01  2.97920E-01 -1.38901E-01
   1.43628E-01  2.52372E-01 -7.99032E-02  2.03189E-01  3.01644E-01  3.88876E-01 -3.87820E-02  2.16785E-01  2.15888E-01  2.44435E-01
   2.41819E-01  4.97411E-02  1.34961E-01 -3.65953E-02  2.33336E-01  8.26533E-02 -1.42823E-01  9.50788E-02 -1.24488E-01  1.61770E-01
   4.55780E-01  1.72162E-01  2.80696E-01  1.84863E-01 -3.35438E-02  1.06274E-02  9.88414E-02 -6.56286E-02  4.93102E-02 -5.07060E-02
  -4.40868E-01  2.74276E-01  2.19118E-01 -4.90250E-01 -1.84712E-01 -9.28763E-02 -2.94615E-01 -4.58526E-01 -3.22295E-01 -2.76078E-01
  -5.63828E-01 -1.98658E-01 -3.28821E-01 -5.42582E-01 -1.24361E-01 -2.28785E-01 -5.01796E-01 -2.37432E-01 -5.60329E-02 -3.17513E-01
  -1.01821E-01  4.02737E-02 -9.38938E-02 -2.45158E-03 -2.50594E-01 -5.40818E-01 -2.10942E-01  5.00517E-02  1.58903E-02  2.06131E-01
   2.97283E-01  5.81650E-02 -9.34495E-02 -2.76452E-02  9.22854E-02 -8.70240E-02 -1.02545E-01  2.87662E-02 -2.70132E-01 -1.14271E-01
   1.40927E-01  2.53676E-01 -2.49065E-01 -3.76803E-02  2.31079E-01 -4.41265E-01  1.76452E-01  2.70566E-01 -6.40972E-03  1.40353E-02
  -3.80238E-02 -1.18950E-01  1.08823E-01  2.52109E-01  2.80426E-01  3.84364E-02 -1.70525E-01  2.94665E-01 -4.74683E-01 -3.16087E-01
  -3.19345E-01 -3.83402E-01  2.21332E-01  1.92367E-01 -9.59975E-03 -2.96537E-01  3.09698E-01  1.10249E-01 -1.07384E-01  9.21827E-02
   1.59340E-01  1.08386E-01  1.79896E-01  2.23186E-01  3.14293E-01  1.98634E-01 -4.66946E-02  1.10168E-01 -3.31934E-01 -3.54432E-02
  -2.25993E-02 -9.07886E-02  4.11519E-02  9.56183E-02  1.07883E-01 -1.30227E-01 -2.24075E-01 -1.17028E-01  9.67207E-02 -9.82938E-02
   1.07243E-01  4.11945E-02  2.98072E-01 -1.81686E-01 -4.29417E-01  2.16364E-01 -3.58363E-02 -2.18057E-01  2.10589E-01  4.77334E-01
  -6.87520E-02 -1.23576E-01 -1.05779E-01  2.02550E-01 -3.83379E-02  3.15784E-03  1.73241E-01 -2.84499E-01  3.45785E-01  3.71183E-01
  -1.92112E-02 -1.00420E-01  3.02198E-01  3.35460E-01 -1.44415E-01  5.31163E-02  5.79802E-02 -2.83759E-01 -1.88482E-01 -1.00547E-01
  -1.90396E-02  8.40646E-02  1.60058E-01  2.76668E-02 -9.73933E-02  2.65109E-01  1.97801E-01  1.00253E-01 -3.31504E-02  1.02032E-01
  -5.98829E-02 -3.19013E-01 -8.79662E-02  4.41187E-02
 NY points of the fit to the data follow
   2.45155E-02  2.80132E-02  2.96135E-02  2.97774E-02  2.88380E-02  2.76154E-02  2.58621E-02  1.52666E-02  1.24066E-02  5.07792E-02
   1.03749E-01  1.57039E-01  2.16797E-01  2.83080E-01  3.48676E-01  4.06641E-01  4.41815E-01  4.31111E-01  3.91629E-01  3.38251E-01
   2.46693E-01  1.27122E-01  4.25611E-02  3.70118E-03 -1.97481E-02 -3.58907E-02 -4.97853E-02 -6.23593E-02 -7.34109E-02 -8.31674E-02
  -9.32119E-02 -1.04631E-01 -1.20140E-01 -1.34138E-01 -1.42883E-01 -1.48607E-01 -1.44551E-01 -1.31176E-01 -1.02329E-01 -6.04743E-02
  -8.72962E-03  4.63470E-02  9.80576E-02  1.45651E-01  1.78997E-01  1.90267E-01  1.81409E-01  1.60082E-01  1.28378E-01  9.10743E-02
   5.18046E-02  1.49968E-02 -1.67896E-02 -4.71128E-02 -7.75153E-02 -1.10104E-01 -1.53020E-01 -1.88589E-01 -2.19631E-01 -2.70728E-01
  -3.00492E-01 -3.10505E-01 -3.14461E-01 -2.94016E-01 -2.42952E-01 -1.76627E-01 -1.02171E-01 -3.23934E-03  9.20460E-02  1.57025E-01
   2.16786E-01  2.63518E-01  2.54042E-01  1.98742E-01  1.18105E-01  2.80427E-02 -6.46297E-02 -1.55964E-01 -2.22091E-01 -2.55069E-01
  -2.58011E-01 -2.22867E-01 -1.45511E-01 -5.17448E-02  5.69430E-02  1.90769E-01  3.01774E-01  3.50520E-01  3.71647E-01  3.79751E-01
   3.47349E-01  2.98934E-01  2.42656E-01  1.89576E-01  1.36676E-01  8.70106E-02  4.47413E-02  1.01631E-02 -9.20871E-03 -1.43907E-02
   1.27739E-03  3.45299E-02  8.12798E-02  1.34414E-01  1.87348E-01  2.27615E-01  2.51162E-01  2.60972E-01  2.57700E-01  2.53117E-01
   2.48765E-01  2.45477E-01  2.42404E-01  2.39416E-01  2.36839E-01  2.37775E-01  2.29798E-01  2.17360E-01  2.11618E-01  1.87215E-01
   1.54978E-01  1.15446E-01  6.44499E-02 -5.87125E-03 -7.89834E-02 -1.50449E-01 -2.25047E-01 -2.76932E-01 -2.83756E-01 -3.16105E-01
  -3.56103E-01 -3.58835E-01 -3.53854E-01 -3.55668E-01 -3.53711E-01 -3.51761E-01 -3.62811E-01 -3.55889E-01 -3.24244E-01 -2.94056E-01
  -2.43079E-01 -1.39701E-01 -3.87185E-02  1.51706E-02  4.93704E-02  7.32235E-02  9.38029E-02  1.11592E-01  1.27525E-01  1.42179E-01
   1.55909E-01  1.69305E-01  1.82747E-01  1.96372E-01  2.10753E-01  2.26612E-01  2.44321E-01  2.64363E-01  2.87485E-01  3.14420E-01
   4.07223E-01  4.78336E-01  4.91369E-01  4.78386E-01  4.44170E-01  3.76329E-01  2.64147E-01  1.15152E-01 -8.71601E-02 -2.84074E-01
  -4.25679E-01 -5.48925E-01 -6.50811E-01 -6.27751E-01 -5.09321E-01 -4.16032E-01 -3.56164E-01 -3.17999E-01 -2.90220E-01 -2.67772E-01
  -2.48032E-01 -2.31378E-01 -2.17863E-01 -2.06278E-01 -1.94617E-01 -1.83649E-01 -1.74538E-01 -1.66397E-01 -1.58111E-01 -1.49906E-01
  -1.41603E-01 -1.33080E-01 -1.24827E-01 -1.16946E-01 -1.09332E-01 -1.01419E-01 -9.35817E-02 -8.62358E-02 -7.95414E-02 -7.36694E-02
  -6.80434E-02 -6.23870E-02 -5.74574E-02 -5.38455E-02 -5.13809E-02 -4.95149E-02 -4.80505E-02 -4.74904E-02 -4.75067E-02 -4.74887E-02
  -4.71468E-02 -4.66897E-02 -4.68522E-02 -4.69565E-02 -4.60668E-02 -4.43327E-02 -4.30661E-02 -4.48759E-02 -4.10114E-02 -2.60519E-02
  -8.48617E-03  7.28352E-03  2.68894E-02  5.59325E-02  9.32405E-02  1.30130E-01  1.59058E-01  1.76583E-01  1.87605E-01  1.91596E-01
   1.76723E-01  1.46109E-01  1.16422E-01  9.04112E-02  5.80808E-02  1.71649E-02 -2.09444E-02 -4.52465E-02 -5.80265E-02 -6.66788E-02
  -7.29527E-02 -7.85912E-02 -8.33082E-02 -8.70393E-02 -9.02876E-02 -9.28654E-02 -9.54002E-02 -9.85316E-02 -1.03586E-01 -1.14051E-01
  -1.18470E-01 -1.21341E-01 -1.26240E-01 -1.27845E-01 -1.20100E-01 -1.03911E-01 -8.74351E-02 -6.18834E-02 -3.13594E-02 -3.74185E-03
   2.82377E-02  5.31390E-02  6.46921E-02  7.28931E-02  8.67129E-02  9.30058E-02  8.87095E-02  8.81915E-02  9.17836E-02  8.77261E-02
   7.65105E-02  6.48340E-02  4.76280E-02  2.61402E-02 -4.84916E-03 -4.17037E-02 -7.97690E-02 -1.21413E-01 -1.54865E-01 -1.80621E-01
  -1.93917E-01 -1.88944E-01 -1.64803E-01 -1.22049E-01 -6.43707E-02  6.17013E-03  8.15897E-02  1.47938E-01  2.00717E-01  2.33097E-01
   2.40641E-01  2.32600E-01  2.14633E-01  1.91532E-01  1.73608E-01  1.63132E-01  1.57357E-01  1.54619E-01  1.53230E-01  1.52489E-01
   1.50507E-01  1.47254E-01  1.43481E-01  1.38905E-01  1.34671E-01  1.30233E-01  1.25028E-01  1.18453E-01  1.10820E-01  1.00715E-01
   8.73422E-02  7.04620E-02  4.83885E-02  2.26058E-02 -9.78377E-03 -4.55605E-02 -8.53657E-02 -1.27186E-01 -1.67456E-01 -2.02995E-01
  -2.29203E-01 -2.43937E-01 -2.43334E-01 -2.29245E-01 -2.02963E-01 -1.66768E-01 -1.27800E-01 -8.85129E-02 -5.90218E-02 -3.72755E-02
  -3.04013E-02 -3.46401E-02 -4.81975E-02 -6.30798E-02 -4.07683E-02 -8.84739E-02 -1.88421E-01 -2.86799E-01 -3.86031E-01 -4.97619E-01
  -6.19041E-01 -7.32218E-01 -8.36320E-01 -8.65851E-01 -8.14590E-01 -7.41312E-01 -6.27677E-01 -4.12198E-01 -2.02779E-01 -1.01713E-01
  -5.61131E-02 -3.44122E-02 -1.88229E-02 -7.42040E-03  6.65745E-04  6.19472E-03  9.45807E-03  1.09217E-02  1.05108E-02  9.25561E-03
   7.21991E-03  4.97293E-03  2.95045E-03  1.72542E-03  1.71728E-03  3.11173E-03  5.90674E-03  9.76250E-03  1.43906E-02  1.91880E-02
   2.40611E-02  2.85658E-02  3.26023E-02  3.64560E-02  3.98828E-02  4.30053E-02  4.59151E-02  4.86630E-02  5.11847E-02  5.35775E-02
   5.59947E-02  5.81498E-02  6.02981E-02  6.22215E-02  6.40381E-02  6.58879E-02  6.77744E-02  6.96666E-02  7.14345E-02  7.30660E-02
   7.44711E-02  7.57437E-02  7.67471E-02  7.72500E-02  7.69566E-02  7.58534E-02  7.40971E-02  7.15559E-02  6.83694E-02  6.46480E-02
   6.06535E-02  5.62348E-02  5.12669E-02  4.60088E-02  4.04754E-02  3.49594E-02  2.96840E-02  2.45586E-02  1.95861E-02  1.50552E-02
   1.09353E-02  6.99060E-03  3.24718E-03 -8.91331E-05 -3.01310E-03 -5.81051E-03 -8.38187E-03 -1.06769E-02 -1.27900E-02 -1.45811E-02
  -1.60046E-02 -1.69627E-02 -1.74385E-02 -1.71540E-02 -1.60817E-02 -1.45580E-02 -1.25888E-02 -1.01125E-02 -7.28336E-03 -4.27128E-03
  -9.62226E-04  2.42830E-03  5.80197E-03  9.39873E-03  1.34453E-02  1.78399E-02  2.27894E-02  2.86323E-02  3.51117E-02  4.21303E-02
   4.96117E-02  5.75083E-02  6.58241E-02  7.45485E-02  8.34501E-02  9.20765E-02  1.00233E-01  1.07594E-01  1.13958E-01  1.19156E-01
   1.23158E-01  1.25619E-01  1.26433E-01  1.25803E-01  1.23795E-01  1.20566E-01  1.16192E-01  1.10721E-01  1.04046E-01  9.66778E-02
   8.88137E-02  8.06007E-02  7.23617E-02  6.44168E-02  5.69148E-02  4.97654E-02  4.30597E-02  3.67261E-02  3.08545E-02  2.57537E-02
   2.14033E-02  1.75898E-02  1.44475E-02  1.22038E-02  1.08021E-02  1.02965E-02  1.07550E-02  1.20420E-02  1.41664E-02  1.70372E-02
   2.03045E-02  2.36521E-02  2.71071E-02  3.06872E-02  3.40778E-02  3.71961E-02  4.00393E-02  4.23176E-02  4.41572E-02  4.56961E-02
   4.67953E-02  4.73282E-02  4.73605E-02  4.70092E-02  4.59890E-02  4.42586E-02  4.20516E-02  3.95791E-02  3.70144E-02  3.43821E-02
   3.14740E-02  2.84037E-02  2.55087E-02  2.26255E-02  1.96047E-02  1.65041E-02  1.35223E-02  1.06601E-02  7.79210E-03  4.85390E-03
   1.74466E-03 -1.53133E-03 -4.98796E-03 -8.90894E-03 -1.35564E-02 -1.91480E-02 -2.55142E-02 -3.27498E-02 -4.10732E-02 -5.05386E-02
  -6.09957E-02 -7.23418E-02 -8.45051E-02 -9.73146E-02 -1.10454E-01 -1.23287E-01 -1.35270E-01 -1.46137E-01 -1.55852E-01 -1.64165E-01
  -1.70666E-01 -1.75197E-01 -1.77801E-01 -1.78659E-01 -1.77910E-01 -1.75546E-01 -1.71798E-01 -1.67430E-01 -1.62514E-01 -1.56897E-01
  -1.50804E-01 -1.44470E-01 -1.37913E-01 -1.30847E-01 -1.23461E-01 -1.15657E-01 -1.07351E-01 -9.88722E-02 -9.05430E-02 -8.23596E-02
  -7.43846E-02 -6.66122E-02 -5.91685E-02 -5.22464E-02 -4.57035E-02 -3.96235E-02 -3.38668E-02 -2.85351E-02 -2.38366E-02 -1.96607E-02
  -1.58220E-02 -1.21944E-02 -9.17963E-03 -6.88209E-03 -4.72890E-03 -2.70090E-03 -1.13239E-03  2.25370E-04  1.54504E-03  2.76079E-03
   3.96434E-03  5.31316E-03  6.59494E-03  7.72470E-03  8.99531E-03  1.01972E-02  1.09489E-02  1.14964E-02  1.19177E-02  1.19780E-02
   1.18223E-02  1.17225E-02  1.17755E-02  1.18985E-02  1.19448E-02  1.18333E-02  1.16843E-02  1.16597E-02  1.15914E-02  1.12298E-02
   1.08335E-02  1.04386E-02  9.95142E-03  9.42972E-03  8.73281E-03  8.22983E-03  8.18820E-03  8.25951E-03  8.01071E-03  7.66663E-03
   7.63589E-03  7.84554E-03  8.02945E-03  8.40018E-03  9.13699E-03  1.01076E-02  1.08719E-02  1.14074E-02  1.18621E-02  1.22603E-02
   1.25923E-02  1.27957E-02  1.28416E-02  1.29041E-02  1.29958E-02  1.30450E-02  1.32386E-02  1.36676E-02  1.45503E-02  1.56229E-02
   1.65319E-02  1.73696E-02  1.81651E-02  1.90387E-02  1.97775E-02  2.03217E-02  2.07784E-02  2.09979E-02  2.09041E-02  2.07880E-02
   2.07057E-02  2.05502E-02  2.05961E-02  2.08540E-02  2.10674E-02  2.10958E-02  2.12056E-02  2.15188E-02  2.19794E-02  2.25682E-02
   2.30782E-02  2.34809E-02  2.41766E-02  2.52527E-02  2.63589E-02  2.74160E-02  2.88252E-02  3.04664E-02  3.23719E-02  3.44587E-02
   3.65369E-02  3.87478E-02  4.10491E-02  4.31842E-02
 NY background values follow
     6.545E-02    6.525E-02    6.505E-02    6.485E-02    6.465E-02    6.445E-02    6.425E-02    6.406E-02    6.386E-02    6.366E-02
     6.346E-02    6.326E-02    6.306E-02    6.286E-02    6.266E-02    6.246E-02    6.226E-02    6.207E-02    6.187E-02    6.167E-02
     6.147E-02    6.127E-02    6.107E-02    6.087E-02    6.067E-02    6.047E-02    6.027E-02    6.007E-02    5.987E-02    5.967E-02
     5.948E-02    5.928E-02    5.908E-02    5.888E-02    5.868E-02    5.848E-02    5.828E-02    5.808E-02    5.788E-02    5.768E-02
     5.748E-02    5.728E-02    5.708E-02    5.688E-02    5.668E-02    5.648E-02    5.628E-02    5.608E-02    5.588E-02    5.568E-02
     5.548E-02    5.528E-02    5.508E-02    5.488E-02    5.468E-02    5.448E-02    5.428E-02    5.408E-02    5.388E-02    5.368E-02
     5.348E-02    5.328E-02    5.308E-02    5.288E-02    5.268E-02    5.248E-02    5.228E-02    5.208E-02    5.188E-02    5.168E-02
