 
 $NMID
 ID=''
 FMTDAT='(2E13.5)'
 TRAMP=   1.00000E+0
 VOLUME=   1.00000E+0
 $END
  -2.26689E+4  -2.96060E+3
  -5.40427E+4  -2.37797E+4
  -5.75268E+4  -1.36412E+4
  -5.31676E+4  -1.19135E+4
  -5.50695E+4  -1.34434E+4
  -5.57805E+4  -1.04548E+4
  -5.35939E+4  -1.01298E+4
  -5.40297E+4  -1.10282E+4
  -5.43728E+4  -9.14448E+3
  -5.29273E+4  -8.93377E+3
  -5.29990E+4  -9.42289E+3
  -5.30797E+4  -8.00758E+3
  -5.20722E+4  -7.45414E+3
  -5.21292E+4  -8.17238E+3
  -5.20932E+4  -7.20088E+3
  -5.11939E+4  -6.96776E+3
  -5.13225E+4  -7.20669E+3
  -5.12265E+4  -6.51867E+3
  -5.07340E+4  -6.07185E+3
  -5.07480E+4  -6.21721E+3
  -5.06646E+4  -5.52028E+3
  -5.02530E+4  -4.84194E+3
  -5.04354E+4  -4.88013E+3
  -5.02716E+4  -4.42782E+3
  -4.96920E+4  -3.88439E+3
  -4.97682E+4  -3.65597E+3
  -4.97328E+4  -3.35241E+3
  -4.91784E+4  -3.05815E+3
  -4.89951E+4  -2.96234E+3
  -4.87461E+4  -2.54139E+3
  -4.83457E+4  -2.04442E+3
  -4.82842E+4  -1.75423E+3
  -4.80986E+4  -1.40028E+3
  -4.75787E+4  -1.12955E+3
  -4.73614E+4  -7.06690E+2
  -4.71562E+4  -2.71401E+2
  -4.67223E+4   1.79795E+2
  -4.64331E+4   4.80770E+2
  -4.62136E+4   1.02841E+3
  -4.59557E+4   1.41359E+3
  -4.56768E+4   1.61498E+3
  -4.54508E+4   1.80920E+3
  -4.50390E+4   1.95115E+3
  -4.47428E+4   2.29915E+3
  -4.44937E+4   2.55475E+3
  -4.41531E+4   2.78183E+3
  -4.39945E+4   2.93687E+3
  -4.36905E+4   3.26104E+3
  -4.33791E+4   3.52923E+3
  -4.30932E+4   3.65398E+3
  -4.28080E+4   3.83863E+3
  -4.24513E+4   4.05550E+3
  -4.20864E+4   4.35550E+3
  -4.17971E+4   4.64756E+3
  -4.15540E+4   4.82601E+3
  -4.12726E+4   5.01663E+3
  -4.09513E+4   5.13630E+3
  -4.06578E+4   5.33363E+3
  -4.04039E+4   5.40436E+3
  -3.99935E+4   5.64643E+3
  -3.96999E+4   5.79278E+3
  -3.94410E+4   6.14543E+3
  -3.92649E+4   6.40776E+3
  -3.90721E+4   6.58065E+3
  -3.88032E+4   6.74531E+3
  -3.84815E+4   6.96046E+3
  -3.82673E+4   7.23382E+3
  -3.80713E+4   7.35827E+3
  -3.78532E+4   7.53736E+3
  -3.76116E+4   7.71742E+3
  -3.73535E+4   7.91182E+3
  -3.71818E+4   8.15276E+3
  -3.68266E+4   8.23367E+3
  -3.65985E+4   8.35458E+3
  -3.63614E+4   8.56825E+3
  -3.60701E+4   8.72851E+3
  -3.57785E+4   8.90973E+3
  -3.55647E+4   9.03807E+3
  -3.52695E+4   9.28050E+3
  -3.50618E+4   9.45413E+3
  -3.47996E+4   9.59085E+3
  -3.45894E+4   9.74337E+3
  -3.43203E+4   9.92487E+3
  -3.40810E+4   1.01293E+4
  -3.38452E+4   1.01590E+4
  -3.36321E+4   1.02359E+4
  -3.33239E+4   1.03847E+4
  -3.29842E+4   1.05130E+4
  -3.28218E+4   1.06434E+4
  -3.25324E+4   1.08319E+4
  -3.23446E+4   1.09992E+4
  -3.20944E+4   1.11105E+4
  -3.18342E+4   1.11877E+4
  -3.16810E+4   1.13203E+4
  -3.14378E+4   1.13917E+4
  -3.11288E+4   1.16006E+4
  -3.08671E+4   1.17162E+4
  -3.06672E+4   1.18547E+4
  -3.05431E+4   1.19758E+4
  -3.03250E+4   1.20241E+4
  -3.00017E+4   1.20705E+4
  -2.97139E+4   1.22069E+4
  -2.94316E+4   1.24024E+4
  -2.93128E+4   1.24762E+4
  -2.91032E+4   1.25158E+4
  -2.88274E+4   1.25802E+4
  -2.86006E+4   1.26802E+4
  -2.84249E+4   1.27503E+4
  -2.82057E+4   1.28979E+4
  -2.79477E+4   1.29663E+4
  -2.76037E+4   1.30675E+4
  -2.74451E+4   1.32568E+4
  -2.71995E+4   1.33701E+4
  -2.69613E+4   1.33926E+4
  -2.67954E+4   1.34726E+4
  -2.66454E+4   1.35718E+4
  -2.63337E+4   1.36064E+4
  -2.60248E+4   1.37443E+4
  -2.58475E+4   1.37306E+4
  -2.55940E+4   1.39444E+4
  -2.54387E+4   1.39748E+4
  -2.52712E+4   1.40870E+4
  -2.49985E+4   1.41007E+4
  -2.47948E+4   1.41970E+4
  -2.45909E+4   1.43361E+4
  -2.44120E+4   1.44032E+4
  -2.42157E+4   1.44841E+4
  -2.39409E+4   1.46284E+4
  -2.37161E+4   1.46574E+4
  -2.35685E+4   1.47921E+4
  -2.34208E+4   1.48599E+4
  -2.31298E+4   1.49477E+4
  -2.29027E+4   1.51111E+4
  -2.27097E+4   1.51017E+4
  -2.25279E+4   1.53155E+4
  -2.24010E+4   1.53173E+4
  -2.22142E+4   1.54340E+4
  -2.19913E+4   1.54867E+4
  -2.17592E+4   1.56346E+4
  -2.15886E+4   1.57080E+4
  -2.13700E+4   1.58334E+4
  -2.11204E+4   1.59154E+4
  -2.10483E+4   1.60810E+4
  -2.07981E+4   1.60988E+4
  -2.06580E+4   1.61171E+4
  -2.04097E+4   1.62335E+4
  -2.02915E+4   1.62307E+4
  -2.01000E+4   1.63857E+4
  -1.99015E+4   1.64816E+4
  -1.97809E+4   1.65125E+4
  -1.94869E+4   1.65629E+4
  -1.93557E+4   1.66191E+4
  -1.91941E+4   1.66545E+4
  -1.89702E+4   1.67498E+4
  -1.87062E+4   1.67727E+4
  -1.85922E+4   1.68202E+4
  -1.83577E+4   1.69488E+4
  -1.81775E+4   1.69015E+4
  -1.80339E+4   1.69676E+4
  -1.78684E+4   1.69413E+4
  -1.76289E+4   1.69337E+4
  -1.74759E+4   1.70423E+4
  -1.72523E+4   1.70315E+4
  -1.70945E+4   1.71120E+4
  -1.69124E+4   1.70963E+4
  -1.67794E+4   1.72054E+4
  -1.66039E+4   1.71450E+4
  -1.62883E+4   1.72059E+4
  -1.61545E+4   1.72166E+4
  -1.60280E+4   1.72511E+4
  -1.58030E+4   1.72665E+4
  -1.56396E+4   1.72063E+4
  -1.54774E+4   1.72451E+4
  -1.52727E+4   1.72690E+4
  -1.50792E+4   1.73262E+4
  -1.49024E+4   1.72989E+4
  -1.47168E+4   1.72793E+4
  -1.45512E+4   1.73150E+4
  -1.43096E+4   1.73397E+4
  -1.41545E+4   1.72894E+4
  -1.39813E+4   1.73120E+4
  -1.38471E+4   1.72676E+4
  -1.36269E+4   1.72970E+4
  -1.34212E+4   1.72680E+4
  -1.33042E+4   1.72310E+4
  -1.30355E+4   1.72305E+4
  -1.28589E+4   1.72182E+4
  -1.27730E+4   1.72300E+4
  -1.25620E+4   1.71752E+4
  -1.23399E+4   1.71098E+4
  -1.21341E+4   1.71085E+4
  -1.19838E+4   1.71766E+4
  -1.18632E+4   1.70693E+4
  -1.16015E+4   1.70265E+4
  -1.15025E+4   1.70208E+4
  -1.12399E+4   1.69900E+4
  -1.11174E+4   1.69238E+4
  -1.09522E+4   1.68932E+4
  -1.07786E+4   1.69462E+4
  -1.05712E+4   1.68725E+4
  -1.03473E+4   1.68994E+4
  -1.02637E+4   1.67312E+4
  -1.01019E+4   1.66969E+4
  -9.85663E+3   1.67075E+4
  -9.67282E+3   1.66024E+4
  -9.50527E+3   1.65730E+4
  -9.37932E+3   1.65159E+4
  -9.19130E+3   1.65403E+4
  -9.01375E+3   1.64926E+4
  -8.77773E+3   1.64125E+4
  -8.72183E+3   1.63235E+4
  -8.44606E+3   1.62432E+4
  -8.24301E+3   1.62015E+4
  -8.07375E+3   1.61987E+4
  -7.89975E+3   1.61934E+4
  -7.81840E+3   1.60665E+4
  -7.65172E+3   1.60742E+4
  -7.39590E+3   1.59490E+4
  -7.30104E+3   1.58861E+4
  -7.11054E+3   1.58171E+4
  -6.95941E+3   1.58039E+4
  -6.79627E+3   1.56939E+4
  -6.58621E+3   1.57384E+4
  -6.45751E+3   1.55553E+4
  -6.25010E+3   1.55454E+4
  -6.11001E+3   1.54824E+4
  -5.90864E+3   1.53334E+4
  -5.78942E+3   1.52801E+4
  -5.61746E+3   1.52495E+4
  -5.45941E+3   1.51846E+4
  -5.34070E+3   1.51138E+4
  -5.19133E+3   1.50503E+4
  -5.02289E+3   1.49615E+4
  -4.89564E+3   1.48654E+4
  -4.69390E+3   1.47089E+4
  -4.51239E+3   1.46540E+4
  -4.40957E+3   1.46737E+4
  -4.27086E+3   1.45667E+4
  -4.12726E+3   1.44812E+4
  -4.00723E+3   1.44176E+4
  -3.80298E+3   1.43466E+4
  -3.69579E+3   1.43468E+4
  -3.50293E+3   1.41582E+4
  -3.37046E+3   1.41223E+4
  -3.29126E+3   1.39361E+4
  -3.00421E+3   1.39836E+4
  -2.93332E+3   1.38581E+4
  -2.88467E+3   1.37965E+4
  -2.68673E+3   1.36715E+4
  -2.52166E+3   1.36443E+4
  -2.51313E+3   1.35697E+4
  -2.29006E+3   1.34698E+4
  -2.33644E+3   1.33394E+4
  -2.12008E+3   1.33236E+4
  -1.97287E+3   1.32073E+4
  -1.84588E+3   1.30886E+4
  -1.73655E+3   1.29956E+4
  -1.60064E+3   1.29416E+4
  -1.51120E+3   1.29444E+4
  -1.39643E+3   1.27530E+4
  -1.32705E+3   1.26413E+4
  -1.21913E+3   1.26318E+4
  -1.01840E+3   1.24578E+4
  -9.22234E+2   1.23990E+4
  -9.37944E+2   1.23162E+4
  -7.74636E+2   1.22609E+4
  -7.02589E+2   1.22228E+4
  -6.18217E+2   1.21629E+4
  -5.01703E+2   1.19914E+4
  -4.32747E+2   1.18455E+4
  -3.12803E+2   1.18891E+4
  -1.86192E+2   1.17430E+4
  -1.51386E+2   1.16291E+4
  -7.95285E+0   1.16083E+4
   1.86412E+1   1.14593E+4
   1.20941E+2   1.14371E+4
   2.48379E+2   1.12252E+4
   2.85563E+2   1.11680E+4
   3.66375E+2   1.10702E+4
   4.91302E+2   1.10201E+4
   5.56925E+2   1.09419E+4
   6.35310E+2   1.08576E+4
   6.78121E+2   1.07887E+4
   7.04236E+2   1.06627E+4
   8.50555E+2   1.05701E+4
   9.19835E+2   1.05045E+4
   9.75342E+2   1.04214E+4
   1.02557E+3   1.03065E+4
   1.14666E+3   1.01941E+4
   1.15687E+3   1.00617E+4
   1.17414E+3   1.00610E+4
   1.26212E+3   9.94303E+3
   1.38208E+3   9.87216E+3
   1.39335E+3   9.69222E+3
   1.50369E+3   9.74980E+3
   1.52131E+3   9.73490E+3
   1.59712E+3   9.62004E+3
   1.65660E+3   9.41650E+3
   1.71860E+3   9.38580E+3
   1.72571E+3   9.33249E+3
   1.75317E+3   9.22822E+3
   1.82930E+3   9.09874E+3
   1.89539E+3   9.08306E+3
   1.91412E+3   8.97907E+3
   1.98958E+3   8.88900E+3
   1.99496E+3   8.79182E+3
   2.08964E+3   8.65664E+3
   2.13170E+3   8.65927E+3
   2.17429E+3   8.56676E+3
   2.22166E+3   8.46914E+3
   2.23552E+3   8.39082E+3
   2.37657E+3   8.29441E+3
   2.35256E+3   8.23542E+3
   2.40838E+3   8.14741E+3
   2.41773E+3   8.10208E+3
   2.49702E+3   7.98498E+3
   2.55618E+3   7.91516E+3
   2.58229E+3   7.91380E+3
   2.52874E+3   7.78918E+3
   2.58642E+3   7.76847E+3
   2.68236E+3   7.66738E+3
   2.79335E+3   7.55720E+3
   2.69252E+3   7.52556E+3
   2.80687E+3   7.40318E+3
   2.76950E+3   7.38879E+3
   2.89688E+3   7.29315E+3
   2.84983E+3   7.21647E+3
   2.83494E+3   7.15475E+3
   2.90853E+3   7.09034E+3
   2.95293E+3   7.00979E+3
   3.02740E+3   6.93312E+3
   2.99229E+3   6.88016E+3
   2.98439E+3   6.80556E+3
   3.05263E+3   6.71184E+3
   3.06393E+3   6.66715E+3
   3.10393E+3   6.56412E+3
   3.12243E+3   6.48682E+3
   3.16772E+3   6.46437E+3
   3.13351E+3   6.36092E+3
   3.13817E+3   6.29989E+3
   3.14086E+3   6.23742E+3
   3.15121E+3   6.15292E+3
   3.17714E+3   6.13936E+3
   3.29660E+3   5.98844E+3
   3.20824E+3   6.02219E+3
   3.20943E+3   5.89914E+3
   3.28858E+3   5.85305E+3
   3.30828E+3   5.72235E+3
   3.32902E+3   5.74174E+3
   3.31138E+3   5.65463E+3
   3.31968E+3   5.59750E+3
   3.35168E+3   5.48944E+3
   3.33811E+3   5.46806E+3
   3.35560E+3   5.39052E+3
   3.35663E+3   5.26880E+3
   3.37448E+3   5.18652E+3
   3.48343E+3   5.16361E+3
   3.46008E+3   5.09572E+3
   3.43835E+3   5.05281E+3
   3.42258E+3   5.03171E+3
   3.38803E+3   4.99470E+3
   3.49116E+3   4.84845E+3
   3.49960E+3   4.82486E+3
   3.45243E+3   4.73690E+3
   3.45666E+3   4.65952E+3
   3.50786E+3   4.66597E+3
   3.47572E+3   4.57885E+3
