 
 $NMID
 ID=''
 FMTDAT='(2E13.5)'
 TRAMP=   1.00000E+0
 VOLUME=   1.00000E+0
 $END
  -1.99765E+4   9.61402E+3
  -5.66692E+4   8.69483E+3
  -5.42953E+4   1.75529E+4
  -5.03702E+4   1.50919E+4
  -5.30733E+4   1.33276E+4
  -5.24528E+4   1.47523E+4
  -5.09421E+4   1.25567E+4
  -5.21147E+4   1.07122E+4
  -5.17464E+4   1.11379E+4
  -5.07249E+4   9.38797E+3
  -5.13336E+4   7.84685E+3
  -5.09145E+4   7.97716E+3
  -5.01004E+4   6.64965E+3
  -5.06127E+4   5.18345E+3
  -5.01880E+4   4.88560E+3
  -4.93354E+4   3.67117E+3
  -4.95325E+4   2.46096E+3
  -4.89928E+4   2.12361E+3
  -4.83206E+4   1.22619E+3
  -4.82628E+4   1.23219E+2
  -4.77324E+4  -2.10254E+2
  -4.70352E+4  -8.41247E+2
  -4.70298E+4  -1.82367E+3
  -4.66369E+4  -2.31279E+3
  -4.58425E+4  -3.11895E+3
  -4.56817E+4  -3.82778E+3
  -4.52281E+4  -4.41744E+3
  -4.45655E+4  -5.23176E+3
  -4.42382E+4  -6.13034E+3
  -4.37000E+4  -6.61936E+3
  -4.31762E+4  -7.21133E+3
  -4.28736E+4  -7.95230E+3
  -4.24009E+4  -8.52608E+3
  -4.17014E+4  -9.24364E+3
  -4.13154E+4  -9.76720E+3
  -4.08424E+4  -1.02561E+4
  -4.01935E+4  -1.08190E+4
  -3.97424E+4  -1.12837E+4
  -3.92400E+4  -1.16953E+4
  -3.87121E+4  -1.21806E+4
  -3.82866E+4  -1.27575E+4
  -3.77545E+4  -1.33302E+4
  -3.70429E+4  -1.39440E+4
  -3.64857E+4  -1.42942E+4
  -3.59838E+4  -1.47440E+4
  -3.55268E+4  -1.52499E+4
  -3.49234E+4  -1.57109E+4
  -3.43981E+4  -1.61417E+4
  -3.38142E+4  -1.65422E+4
  -3.32937E+4  -1.69226E+4
  -3.27880E+4  -1.73951E+4
  -3.21481E+4  -1.78024E+4
  -3.15781E+4  -1.79894E+4
  -3.11385E+4  -1.84338E+4
  -3.05493E+4  -1.87737E+4
  -2.99871E+4  -1.91879E+4
  -2.95601E+4  -1.96332E+4
  -2.88611E+4  -2.00394E+4
  -2.82684E+4  -2.03205E+4
  -2.75875E+4  -2.06656E+4
  -2.70507E+4  -2.09746E+4
  -2.64040E+4  -2.13558E+4
  -2.58435E+4  -2.15953E+4
  -2.52888E+4  -2.19327E+4
  -2.45823E+4  -2.22530E+4
  -2.39748E+4  -2.24844E+4
  -2.34203E+4  -2.27283E+4
  -2.26936E+4  -2.29874E+4
  -2.20159E+4  -2.32474E+4
  -2.13558E+4  -2.33899E+4
  -2.06749E+4  -2.36302E+4
  -2.00244E+4  -2.36799E+4
  -1.93203E+4  -2.38313E+4
  -1.86135E+4  -2.39454E+4
  -1.80414E+4  -2.40288E+4
  -1.74446E+4  -2.41158E+4
  -1.67642E+4  -2.40735E+4
  -1.61024E+4  -2.42213E+4
  -1.55437E+4  -2.41684E+4
  -1.48910E+4  -2.42301E+4
  -1.42931E+4  -2.41559E+4
  -1.37310E+4  -2.42540E+4
  -1.31262E+4  -2.42380E+4
  -1.25040E+4  -2.41388E+4
  -1.19500E+4  -2.41249E+4
  -1.13104E+4  -2.41176E+4
  -1.06636E+4  -2.40254E+4
  -1.01984E+4  -2.38920E+4
  -9.65574E+3  -2.37847E+4
  -9.03651E+3  -2.37600E+4
  -8.54669E+3  -2.36884E+4
  -8.12257E+3  -2.35796E+4
  -7.60128E+3  -2.34065E+4
  -7.10165E+3  -2.32399E+4
  -6.53826E+3  -2.31869E+4
  -6.13906E+3  -2.29539E+4
  -5.60114E+3  -2.27948E+4
  -5.21368E+3  -2.26811E+4
  -4.66164E+3  -2.25283E+4
  -4.18766E+3  -2.22933E+4
  -3.73908E+3  -2.20799E+4
  -3.30754E+3  -2.18557E+4
  -2.91460E+3  -2.17073E+4
  -2.51326E+3  -2.15268E+4
  -2.03983E+3  -2.12495E+4
  -1.61268E+3  -2.10624E+4
  -1.14516E+3  -2.08490E+4
  -7.98697E+2  -2.06302E+4
  -4.56496E+2  -2.03997E+4
  -4.66890E+1  -2.00526E+4
   2.39325E+2  -1.97949E+4
   5.77699E+2  -1.96254E+4
   9.99123E+2  -1.92917E+4
   1.36454E+3  -1.90465E+4
   1.64550E+3  -1.87663E+4
   2.01309E+3  -1.84679E+4
   2.25107E+3  -1.80717E+4
   2.63062E+3  -1.77995E+4
   2.90487E+3  -1.75243E+4
   3.22809E+3  -1.71981E+4
   3.46208E+3  -1.69157E+4
   3.72485E+3  -1.65285E+4
   4.00507E+3  -1.61513E+4
   4.22667E+3  -1.58988E+4
   4.48822E+3  -1.55660E+4
   4.76615E+3  -1.51465E+4
   4.92002E+3  -1.47847E+4
   5.06304E+3  -1.44795E+4
   5.29831E+3  -1.40267E+4
   5.48631E+3  -1.37354E+4
   5.63937E+3  -1.33667E+4
   5.73540E+3  -1.29993E+4
   5.89731E+3  -1.26077E+4
   5.92682E+3  -1.22938E+4
   6.12475E+3  -1.18774E+4
   6.14895E+3  -1.15253E+4
   6.27218E+3  -1.11796E+4
   6.36579E+3  -1.08041E+4
   6.42915E+3  -1.04632E+4
   6.46389E+3  -1.01044E+4
   6.47896E+3  -9.75231E+3
   6.58983E+3  -9.38324E+3
   6.57777E+3  -9.13606E+3
   6.60986E+3  -8.79234E+3
   6.64973E+3  -8.44207E+3
   6.59465E+3  -8.15161E+3
   6.56422E+3  -7.79968E+3
   6.61916E+3  -7.50276E+3
   6.60863E+3  -7.13827E+3
   6.50292E+3  -6.84965E+3
   6.48214E+3  -6.48066E+3
   6.45569E+3  -6.21793E+3
   6.39586E+3  -5.95982E+3
   6.37800E+3  -5.54275E+3
   6.27710E+3  -5.28589E+3
   6.22135E+3  -4.98519E+3
   6.14300E+3  -4.75777E+3
   6.08468E+3  -4.50180E+3
   5.98292E+3  -4.20476E+3
   5.90051E+3  -3.94703E+3
   5.86097E+3  -3.66741E+3
   5.70100E+3  -3.43492E+3
   5.61433E+3  -3.15192E+3
   5.46602E+3  -2.94100E+3
   5.39260E+3  -2.68076E+3
   5.27139E+3  -2.51357E+3
   5.13117E+3  -2.25807E+3
   5.04791E+3  -2.02420E+3
   4.87618E+3  -1.86985E+3
   4.81799E+3  -1.67097E+3
   4.75637E+3  -1.43850E+3
   4.51662E+3  -1.24694E+3
   4.40292E+3  -1.05044E+3
   4.28449E+3  -8.94481E+2
   4.17269E+3  -6.93648E+2
   3.99745E+3  -5.58236E+2
   3.83948E+3  -3.12978E+2
   3.68591E+3  -2.93300E+2
   3.58950E+3  -8.06907E+1
   3.42489E+3   3.99563E+0
   3.30898E+3   1.80782E+2
   3.17087E+3   2.58662E+2
   3.02571E+3   3.63391E+2
   2.88141E+3   5.08504E+2
   2.76599E+3   5.84548E+2
   2.66276E+3   6.50934E+2
   2.50153E+3   7.67591E+2
   2.42669E+3   8.64803E+2
   2.22010E+3   1.05181E+3
   2.15372E+3   1.02415E+3
   2.02437E+3   1.14480E+3
   1.91662E+3   1.23599E+3
   1.74640E+3   1.22415E+3
   1.58526E+3   1.32790E+3
   1.50276E+3   1.40487E+3
   1.39057E+3   1.39604E+3
   1.24559E+3   1.49841E+3
   1.09857E+3   1.49500E+3
   1.14784E+3   1.58711E+3
   9.91962E+2   1.59886E+3
   8.51548E+2   1.70363E+3
   8.01836E+2   1.71049E+3
   5.95004E+2   1.71920E+3
   5.63663E+2   1.70555E+3
   4.39536E+2   1.76425E+3
   4.03433E+2   1.76841E+3
   3.17001E+2   1.82237E+3
   2.32289E+2   1.77836E+3
   1.51600E+2   1.78993E+3
   5.83073E+1   1.79257E+3
  -3.68899E+1   1.81162E+3
  -9.76121E+1   1.77034E+3
  -1.77340E+2   1.79161E+3
  -1.86826E+2   1.85026E+3
  -3.56176E+2   1.80666E+3
  -3.92128E+2   1.75317E+3
  -4.58999E+2   1.79129E+3
  -4.78061E+2   1.77240E+3
  -5.20433E+2   1.84112E+3
  -5.91314E+2   1.80301E+3
  -6.84785E+2   1.78195E+3
  -7.53542E+2   1.80419E+3
  -7.56500E+2   1.73518E+3
  -7.78368E+2   1.73950E+3
  -8.67021E+2   1.72826E+3
  -8.70083E+2   1.67039E+3
  -9.80167E+2   1.74189E+3
  -9.62630E+2   1.71616E+3
  -1.01028E+3   1.69827E+3
  -1.04155E+3   1.65056E+3
  -1.08064E+3   1.62139E+3
  -1.10329E+3   1.59072E+3
  -1.14302E+3   1.56695E+3
  -1.14503E+3   1.58947E+3
  -1.19273E+3   1.57101E+3
  -1.19264E+3   1.56647E+3
  -1.26017E+3   1.51928E+3
  -1.30163E+3   1.52338E+3
  -1.28872E+3   1.47449E+3
  -1.30520E+3   1.45933E+3
  -1.40641E+3   1.50251E+3
  -1.41245E+3   1.46651E+3
  -1.36998E+3   1.40080E+3
  -1.40692E+3   1.35780E+3
  -1.37501E+3   1.45657E+3
  -1.48076E+3   1.42439E+3
  -1.46455E+3   1.34312E+3
  -1.46114E+3   1.35286E+3
  -1.53517E+3   1.33982E+3
  -1.49463E+3   1.34619E+3
  -1.52925E+3   1.26685E+3
  -1.60473E+3   1.23531E+3
  -1.61264E+3   1.27834E+3
  -1.58613E+3   1.24386E+3
  -1.61106E+3   1.23425E+3
  -1.58195E+3   1.16445E+3
  -1.63242E+3   1.17227E+3
  -1.65112E+3   1.15102E+3
  -1.64525E+3   1.12187E+3
  -1.63611E+3   1.06793E+3
  -1.66542E+3   9.89412E+2
  -1.71834E+3   1.06092E+3
  -1.66054E+3   1.01828E+3
  -1.64196E+3   9.38585E+2
  -1.71695E+3   1.02576E+3
  -1.71125E+3   8.74638E+2
  -1.73799E+3   8.64443E+2
  -1.74040E+3   7.91144E+2
  -1.70547E+3   8.19815E+2
  -1.70043E+3   8.11047E+2
  -1.71489E+3   7.76159E+2
  -1.67877E+3   7.56183E+2
  -1.74303E+3   6.86651E+2
  -1.73784E+3   6.45507E+2
  -1.75271E+3   6.87530E+2
  -1.69570E+3   6.62965E+2
  -1.64129E+3   6.08625E+2
  -1.63262E+3   5.96556E+2
  -1.65206E+3   5.48471E+2
  -1.61704E+3   5.35506E+2
  -1.59537E+3   5.00984E+2
  -1.63738E+3   4.61095E+2
  -1.60704E+3   4.12921E+2
  -1.56891E+3   4.29570E+2
  -1.59745E+3   3.99933E+2
  -1.59120E+3   3.58336E+2
  -1.53493E+3   2.71130E+2
  -1.60212E+3   3.63166E+2
  -1.60149E+3   3.04865E+2
  -1.59164E+3   3.35825E+2
  -1.54422E+3   2.45699E+2
  -1.46740E+3   2.78073E+2
  -1.56227E+3   2.88995E+2
  -1.47423E+3   2.73107E+2
  -1.53976E+3   2.19917E+2
  -1.49180E+3   1.45453E+2
  -1.52168E+3   1.24126E+2
  -1.47126E+3   1.25499E+2
  -1.45871E+3   1.00622E+2
  -1.46270E+3   9.74241E+1
  -1.40332E+3   6.29040E+1
  -1.35207E+3   1.32914E+2
  -1.40909E+3  -1.37752E+1
  -1.40454E+3   4.46682E+0
  -1.44709E+3  -6.21488E-1
  -1.26741E+3   1.08679E+2
  -1.34298E+3  -2.04734E+1
  -1.26341E+3  -3.95501E+1
  -1.31371E+3  -2.71542E+1
  -1.30636E+3  -7.59273E+1
  -1.33192E+3  -3.61465E+1
  -1.26588E+3  -7.32103E+1
  -1.28226E+3  -1.03325E+2
  -1.24065E+3  -1.37071E+2
  -1.25266E+3  -1.46059E+2
  -1.17133E+3  -1.30337E+2
  -1.19845E+3  -1.30119E+2
  -1.21874E+3  -1.31357E+2
  -1.15075E+3  -1.62264E+2
  -1.13956E+3  -1.62617E+2
  -1.15005E+3  -2.22242E+2
  -1.13127E+3  -1.94548E+2
  -1.12631E+3  -1.88979E+2
  -1.04679E+3  -1.79749E+2
  -1.17467E+3  -2.40885E+2
  -1.03289E+3  -1.41179E+2
  -1.04207E+3  -1.91847E+2
  -9.90817E+2  -2.58277E+2
  -1.08319E+3  -2.52129E+2
  -1.12439E+3  -1.80140E+2
  -1.05583E+3  -2.16346E+2
  -9.42206E+2  -2.97703E+2
  -1.00479E+3  -2.53117E+2
  -9.91353E+2  -2.16496E+2
  -9.36328E+2  -3.04890E+2
  -9.28434E+2  -2.99587E+2
  -9.28322E+2  -2.57703E+2
  -8.88367E+2  -2.73740E+2
  -9.17008E+2  -2.13876E+2
  -9.08066E+2  -2.88625E+2
  -9.01481E+2  -3.10587E+2
  -7.86459E+2  -3.11162E+2
  -8.38641E+2  -2.98775E+2
  -7.80346E+2  -3.27223E+2
  -8.27920E+2  -2.99212E+2
  -8.71678E+2  -2.64008E+2
  -7.87818E+2  -2.74201E+2
  -8.01530E+2  -3.13946E+2
  -7.25717E+2  -2.63735E+2
  -7.82260E+2  -3.66204E+2
  -7.84760E+2  -2.53756E+2
  -6.93140E+2  -2.69877E+2
  -7.46960E+2  -3.22665E+2
  -6.53433E+2  -2.78003E+2
  -6.70422E+2  -3.37251E+2
  -6.46320E+2  -3.42467E+2
  -5.80794E+2  -2.56301E+2
  -6.00932E+2  -2.96166E+2
  -6.07299E+2  -2.84976E+2
  -5.62526E+2  -2.84682E+2
  -5.85000E+2  -3.36380E+2
  -5.64982E+2  -3.13327E+2
  -5.16184E+2  -3.14170E+2
  -5.75468E+2  -2.98460E+2
  -5.02530E+2  -2.79695E+2
  -4.35760E+2  -3.37407E+2
  -5.13395E+2  -2.97810E+2
