 
 $NMID
 ID=''
 FMTDAT='(2E13.5)'
 TRAMP=   1.00000E+0
 VOLUME=   1.00000E+0
 $END
   6.66170E+2   3.58986E+2
  -1.12268E+3   1.77267E+3
   4.78267E+3  -3.68501E+3
  -1.43057E+3  -3.88128E+3
  -4.08005E+3  -2.54069E+3
  -2.21030E+3   1.33455E+3
  -5.39414E+3   4.86080E+3
  -2.79749E+3   6.28817E+3
   1.07502E+3   3.83224E+3
   1.85067E+3  -6.30149E+2
   5.45898E+3  -1.94555E+3
   8.58625E+3   1.38030E+3
   4.46492E+3   3.81039E+3
  -5.76322E+3  -2.44190E+3
  -4.75053E+3  -6.99745E+3
  -3.54122E+3  -4.99811E+3
  -1.03466E+3   2.50854E+3
  -2.39587E+3   3.49318E+3
  -3.57993E+3   4.92972E+3
   2.87693E+2  -1.45089E+3
   5.04864E+3   1.36782E+3
   1.12713E+3   2.87387E+3
  -3.82523E+3   7.04586E+2
  -1.95934E+3  -4.77411E+3
   2.15117E+3  -4.83112E+3
  -1.29333E+3   1.42229E+3
  -5.32634E+3   6.76687E+2
  -6.20412E+3  -3.93437E+3
  -1.27507E+3  -7.78071E+3
   4.40603E+3  -3.27490E+3
   3.08961E+3   7.44688E+3
  -7.02129E+3   5.67626E+3
  -8.02595E+3   4.73908E+2
   2.14558E+2  -8.11929E+2
  -1.52891E+3   7.97929E+2
  -8.50568E+2  -3.67774E+3
   7.62965E+3  -5.96187E+3
   9.20121E+3  -1.70081E+2
   4.27588E+3   1.68619E+3
   1.85639E+3   4.31742E+2
  -8.06285E+2   7.13895E+2
  -6.74618E+3  -2.99887E+3
  -2.86465E+3  -9.19372E+3
   5.50095E+3  -9.06638E+3
   4.80871E+3  -5.62134E+2
   5.49287E+1   1.60848E+2
   2.00565E+3   2.73678E+2
  -3.84936E+2   1.83005E+3
  -5.57730E+3   1.47953E+3
  -5.09492E+3   1.33033E+3
  -5.89140E+3  -1.39567E+3
  -1.32539E+3  -2.01122E+3
   1.65120E+3   9.57275E+2
   4.32590E+2   4.54255E+3
  -2.76306E+3   3.25895E+3
  -3.84322E+3   4.98640E+3
  -6.73871E+3   3.24133E+3
  -6.74208E+3  -1.77715E+2
  -1.86277E+3  -5.84220E+3
   3.50325E+3  -3.31702E+3
   6.79793E+3  -4.03477E+2
   7.00535E+3   4.42550E+3
   2.40697E+3   4.27673E+3
   2.10409E+2   2.45098E+3
   2.38691E+3  -1.63106E+3
   4.69104E+3  -7.24276E+2
  -1.59721E+3   2.93883E+3
  -4.04802E+3  -2.38297E+3
   8.95903E+2  -2.32297E+3
   1.43304E+3  -3.69350E+3
  -8.32851E+2  -5.33963E+1
   4.10760E+0  -1.18903E+3
   3.91616E+2  -2.05775E+3
   2.31160E+3   2.17393E+2
   1.38340E+3   5.87029E+2
   3.95728E+3   1.18119E+3
   8.79603E+0  -5.83258E+2
   4.87304E+3  -1.13707E+3
   4.00519E+3  -1.10345E+3
   3.45189E+3   3.38916E+3
   1.33940E+3   2.27924E+3
   9.15862E+2  -1.71740E+3
   2.54499E+3  -2.26450E+2
  -1.19592E+3   2.12644E+3
  -3.42028E+3  -2.34804E+3
  -3.78517E+3  -3.31216E+3
   4.04554E+2  -4.16258E+3
   3.35674E+3  -4.31343E+3
   3.87699E+3   1.50972E+3
   1.30951E+2   3.69127E+3
   2.01984E+3  -9.26008E+2
   2.01849E+3   8.88266E+2
  -2.09381E+3   3.72077E+3
  -6.23655E+3   2.73765E+3
  -2.04841E+3  -1.53987E+3
   2.07047E+3  -2.39448E+3
   4.51125E+3   4.30586E+2
   9.83667E+2   4.62034E+3
  -2.75522E+3   1.02563E+3
  -1.93261E+3  -5.68468E+3
   2.67886E+3  -3.49237E+3
   5.94822E+3   1.38186E+3
  -8.23948E+2   4.59367E+3
  -3.30475E+3   3.09540E+3
  -3.47621E+3  -1.18650E+3
  -3.05346E+3  -1.19784E+3
  -3.09962E+3   5.32054E+2
  -4.23841E+3   9.38133E+2
  -1.41080E+3  -1.78411E+3
   3.30640E+3  -3.45317E+2
   5.19578E+3   1.59373E+3
   1.20338E+3   4.44926E+3
  -2.15369E+3   5.12171E+3
  -4.95811E+2  -7.65999E+1
  -4.40969E+3   2.48449E+2
  -3.62747E+3  -3.52370E+2
  -1.47135E+3  -4.83585E+3
  -1.59941E+3  -9.52121E+2
  -2.13674E+1  -2.57678E+3
   5.90263E+2   1.35594E+3
  -1.58448E+3   1.36312E+2
  -3.21025E+3  -1.08436E+3
  -1.70549E+3  -3.64342E+3
   3.23544E+3  -2.19152E+3
  -8.41283E+2  -1.52729E+3
  -8.64198E+2   1.45511E+3
  -2.21321E+3  -5.26182E+2
   1.29413E+3   3.31086E+3
  -1.74822E+3   1.55980E+3
   6.43986E+1   5.76536E+2
   3.82346E+2  -2.17526E+2
   2.92308E+3  -1.29612E+3
   2.20016E+3   5.00515E+2
   6.62081E+2   1.82983E+3
  -3.63734E+3  -1.37900E+2
  -4.02920E+3  -4.03979E+3
  -8.48101E+1  -3.42768E+3
  -6.83500E+2  -1.13869E+3
   2.23990E+2   1.27754E+3
   5.70123E+1   5.55827E+2
   1.06235E+3   5.19837E+2
   2.84170E+3   3.03724E+2
  -1.66796E+3   2.99873E+3
  -9.41016E+2   2.97933E+3
  -1.18737E+3  -1.24822E+3
   1.26058E+3  -3.89287E+2
  -8.77517E+2   2.43988E+3
  -2.04768E+3   7.20404E+2
  -5.92336E+2   1.15750E+3
  -3.10829E+3   6.96277E+1
  -3.14016E+3  -5.70694E+2
  -5.72586E+2  -2.84486E+3
   9.83169E+2  -2.96993E+3
   2.29357E+3  -1.16639E+3
   2.45902E+3   2.12064E+3
  -7.77267E+2   2.25494E+3
  -3.31371E+2   1.68332E+3
  -9.81788E+2  -8.47907E+2
  -8.81796E+2  -1.14625E+3
   1.51083E+3   5.43740E+2
  -1.31471E+3  -1.22849E+2
  -1.31785E+3   1.08390E+3
   4.33396E+1   4.99522E+2
   1.89261E+3   8.54789E+0
  -1.05753E+2   3.50822E+3
  -2.23715E+3  -1.19669E+3
  -1.26980E+2  -3.02646E+3
   4.39715E+3  -8.20513E+2
   3.18811E+2   2.73821E+3
  -2.63077E+3   2.35806E+3
  -1.81840E+3  -4.69579E+2
   1.07969E+3  -7.67035E+2
  -1.17451E+3  -3.30939E+3
  -3.97034E+2  -9.61683E+1
  -7.10655E+2  -2.09507E+1
   4.90629E+2   7.80676E+1
   1.67308E+3   1.50167E+3
   1.08462E+3   4.23980E+3
  -8.63987E+2   3.45608E+3
  -2.29059E+3   4.77872E+2
  -2.10410E+3  -3.61086E+3
   1.57932E+3   3.25206E+2
   2.56607E+3  -1.47911E+3
   1.21161E+3   1.19732E+3
   1.10252E+3   1.37941E+3
   2.45886E+2   1.91987E+3
  -5.12021E+2   4.29059E+2
  -2.07943E+3  -1.25281E+3
   1.12161E+3  -2.86136E+3
   2.39499E+3  -3.65218E+2
   1.37279E+3   2.47009E+3
  -1.75764E+3   1.39560E+3
  -2.52695E+2  -1.77099E+3
   1.62516E+3  -4.93569E+2
   2.41526E+3  -6.95249E+2
   1.89715E+3   1.43582E+3
   1.75299E+3   1.41590E+3
   9.96930E+2  -1.80282E+3
   1.32140E+3  -1.72892E+0
   1.80140E+3   2.71004E+3
  -4.55946E+3  -5.84764E+2
  -2.20270E+3  -2.73638E+3
   1.36820E+3  -2.94407E+3
   1.70643E+3  -1.16390E+3
   3.36503E+3   2.92379E+3
   2.29514E+3   3.15451E+3
   3.19538E+2  -9.41633E+2
   9.99894E+2   1.11064E+2
  -7.82348E+2   7.91089E+2
  -1.95244E+3   2.33793E+3
  -2.97079E+2  -2.68785E+3
  -7.32485E+2  -2.99951E+3
   4.57284E+3  -2.11230E+3
  -5.19392E+2   1.60392E+3
  -2.13890E+3   3.54863E+3
  -6.42072E+2   6.01114E+2
  -1.43236E+3  -1.28803E+3
   1.49253E+3  -1.25179E+3
  -8.40549E+2  -1.04430E+3
   1.20826E+3  -5.07859E+1
   3.53470E+3   6.63688E+1
   1.09726E+3   1.35761E+3
   7.42642E+2   9.07895E+2
   1.29016E+2  -1.00136E+3
  -6.65226E+2   7.10789E+2
   1.80925E+3   1.35040E+2
  -7.05699E+2   1.49200E+3
  -2.87796E+3   2.96144E+3
  -2.84930E+3  -3.76656E+2
  -6.62694E+2  -1.15571E+2
   3.72466E+2  -1.36594E+3
   1.09839E+3   1.44351E+2
   2.85635E+2  -7.87609E+1
   9.14430E+2  -8.84621E+2
   2.84481E+3   1.27756E+3
   2.35922E+3   4.24969E+2
  -3.11990E+3  -4.14235E+2
  -2.50898E+3  -1.74344E+3
  -1.01070E+2  -2.92835E+3
   1.62478E+3   1.15672E+3
   2.23863E+3   1.36621E+3
   6.97947E+2   1.35106E+3
   7.16735E+2  -8.06972E+2
  -4.08426E+2  -1.41609E+3
   1.74421E+2   1.24367E+3
  -1.18530E+3  -5.10293E+2
  -1.74719E+3  -6.56209E+1
   1.48259E+3  -1.00460E+3
   3.70012E+3   1.92109E+3
   7.82372E+2   3.18713E+3
  -2.65317E+3  -1.82017E+3
  -1.54758E+3  -1.99706E+3
   1.99492E+3  -1.66728E+3
   4.19258E+2   4.41283E+1
   1.67564E+3   3.29902E+2
   3.08714E+3   4.25288E+2
   7.24837E+2   1.25324E+3
   1.39592E+3   2.18775E+3
  -9.22835E+2   2.55763E+3
  -1.91700E+3   5.05952E+2
  -8.59961E+2  -1.71204E+3
   4.33570E+2  -1.22876E+3
   2.97248E+3   5.62340E+2
   1.75683E+3   1.86034E+3
  -1.41967E+3  -6.50343E+2
  -7.27236E+2  -1.09195E+3
  -2.85017E+2   1.13873E+3
  -6.29168E+2  -2.08438E+3
  -1.38003E+3   4.14116E+2
   3.79058E+3  -8.98983E+1
   2.68436E+3   9.69401E+1
   1.93801E+3   1.61415E+3
  -1.87774E+3   3.11834E+3
  -1.67769E+3  -5.28009E+2
   1.95440E+2  -7.07882E+2
   7.14695E+2  -5.92018E+2
   9.07893E+2   1.12995E+3
   1.30350E+3  -1.07805E+3
   9.59360E+2  -2.12140E+3
   1.11680E+3   1.06749E+3
  -2.52993E+3   1.93203E+2
  -2.68578E+3  -2.89328E+2
  -1.47975E+3  -4.38113E+1
   2.35624E+2  -2.59106E+3
   1.69968E+3   1.37001E+3
  -1.13005E+2   5.80165E+2
   1.08778E+3  -2.06634E+2
   1.66921E+3  -3.21308E+2
   2.87834E+3  -1.59450E+3
   1.40257E+3   6.37668E+2
  -3.67641E+2   1.81122E+3
  -1.01223E+3  -1.58731E+2
   1.05537E+3  -1.26987E+3
  -1.04232E+3   1.68008E+3
  -1.96464E+3  -1.40685E+2
  -1.83518E+3  -1.23603E+3
  -8.94594E+1  -1.13461E+2
   1.96243E+3  -2.23136E+3
   1.91901E+3   1.36169E+3
   9.55119E+2  -4.46206E+1
  -1.01710E+3   2.21220E+2
   7.97133E+2  -2.95703E+2
   1.46415E+2  -3.89324E+2
  -1.37658E+3   7.85428E+1
  -7.44040E+2  -3.84654E+3
   1.88034E+3   8.06541E+2
   1.56032E+3  -4.88441E+2
  -1.16858E+3   2.43308E+3
  -4.43109E+2   4.51140E+2
  -4.98419E+2  -1.47040E+3
  -2.25853E+3  -5.72520E+1
   7.93376E+2  -1.73939E+2
   2.50230E+3   7.74325E+2
  -1.07041E+3  -1.38869E+3
  -6.66871E+2  -1.07293E+3
   2.95975E+2  -6.06300E+2
  -1.25543E+3   1.68983E+3
  -1.44448E+3  -3.19592E+3
   2.98603E+1  -2.43268E+3
   1.73111E+3  -3.78344E+2
   4.00698E+2   2.34753E+3
  -1.43347E+3   1.68963E+3
  -1.83549E+3  -3.37570E+2
   2.32590E+2  -5.11289E+2
  -7.34748E+2  -1.41956E+3
  -5.49286E+2  -6.68478E+2
  -6.96414E+2  -2.03410E+3
  -5.65555E+2  -1.82834E+3
   1.32961E+3  -1.40730E+2
  -1.11545E+3   2.34513E+3
  -4.44880E+2   1.41578E+3
  -1.59579E+3   5.90784E+2
   4.41328E+2  -1.54280E+3
   1.32264E+2  -2.00977E+3
  -3.39379E+2   9.19655E+2
  -9.77471E+2  -8.14302E+2
   1.75175E+3   4.60595E+2
   1.27350E+3   1.41927E+3
   1.24765E+2   2.64798E+3
  -3.02302E+2   1.49718E+3
   5.24668E+2   7.67374E+2
   2.87613E+2   9.45593E+2
   1.62789E+3   2.74526E+3
  -9.96166E+2   9.92022E+2
  -1.00713E+3   1.55407E+2
   8.26853E+1  -6.54521E+2
   6.10033E+2   4.10446E+2
   4.86132E+2   3.65178E+2
  -1.79028E+3   5.22716E+2
   5.44660E+1  -3.71367E+3
   6.37835E+2  -8.84414E+0
  -1.54449E+2  -1.24485E+3
  -1.73009E+3  -1.17249E+3
  -9.04995E+2  -1.28160E+3
   4.10300E+1  -9.82811E+2
   6.26127E+2   1.87017E+3
  -1.68057E+2   1.17255E+3
  -1.24178E+3  -1.06247E+2
  -1.42110E+3  -6.26840E+2
   1.43887E+3   9.70713E+2
  -1.82734E+1   1.20449E+3
  -5.68431E+2   5.20785E+1
  -1.30295E+3   1.53343E+3
   2.97197E+2   2.53551E+2
   1.17557E+3  -1.32403E+3
  -3.49819E+2   2.69936E+2
  -1.48592E+3   1.05748E+3
