 
 $NMID
 ID=''
 FMTDAT='(2E13.5)'
 TRAMP=   1.00000E+0
 VOLUME=   1.00000E+0
 $END
  -1.00879E+4   1.92509E+4
  -3.88378E+4   4.02901E+4
  -3.09111E+4   4.65461E+4
  -2.83178E+4   4.30887E+4
  -3.04415E+4   4.39857E+4
  -2.81483E+4   4.55422E+4
  -2.72332E+4   4.36853E+4
  -2.81484E+4   4.38086E+4
  -2.65817E+4   4.47588E+4
  -2.57878E+4   4.36010E+4
  -2.61870E+4   4.36319E+4
  -2.48382E+4   4.41865E+4
  -2.40086E+4   4.35632E+4
  -2.44095E+4   4.35105E+4
  -2.34453E+4   4.38147E+4
  -2.26800E+4   4.31643E+4
  -2.28079E+4   4.31111E+4
  -2.20187E+4   4.32282E+4
  -2.13272E+4   4.28419E+4
  -2.12364E+4   4.27150E+4
  -2.04372E+4   4.26967E+4
  -1.95627E+4   4.23404E+4
  -1.94486E+4   4.23355E+4
  -1.88253E+4   4.23159E+4
  -1.81419E+4   4.18315E+4
  -1.77587E+4   4.18168E+4
  -1.72431E+4   4.18254E+4
  -1.67118E+4   4.13540E+4
  -1.64767E+4   4.11518E+4
  -1.58982E+4   4.10553E+4
  -1.52213E+4   4.07940E+4
  -1.48434E+4   4.07491E+4
  -1.43846E+4   4.06507E+4
  -1.39321E+4   4.03395E+4
  -1.34103E+4   4.01436E+4
  -1.27920E+4   3.99972E+4
  -1.22755E+4   3.96196E+4
  -1.18542E+4   3.94785E+4
  -1.12198E+4   3.94468E+4
  -1.07716E+4   3.92323E+4
  -1.03585E+4   3.89567E+4
  -1.00562E+4   3.87239E+4
  -9.62696E+3   3.84396E+4
  -9.19136E+3   3.81836E+4
  -8.76630E+3   3.78956E+4
  -8.32841E+3   3.77043E+4
  -8.00246E+3   3.74872E+4
  -7.54319E+3   3.72720E+4
  -7.18277E+3   3.70285E+4
  -6.87663E+3   3.67632E+4
  -6.56807E+3   3.65815E+4
  -6.22374E+3   3.61903E+4
  -5.85486E+3   3.59698E+4
  -5.41314E+3   3.57727E+4
  -5.17296E+3   3.54951E+4
  -4.81348E+3   3.51763E+4
  -4.60054E+3   3.50209E+4
  -4.31191E+3   3.47145E+4
  -4.03687E+3   3.43605E+4
  -3.75639E+3   3.40073E+4
  -3.48498E+3   3.37427E+4
  -3.07294E+3   3.33767E+4
  -2.90394E+3   3.30879E+4
  -2.65539E+3   3.28098E+4
  -2.52519E+3   3.24665E+4
  -2.14614E+3   3.20915E+4
  -1.90839E+3   3.18021E+4
  -1.63644E+3   3.15335E+4
  -1.41387E+3   3.11904E+4
  -1.19287E+3   3.08630E+4
  -1.06481E+3   3.04949E+4
  -7.52423E+2   3.01927E+4
  -4.99207E+2   2.97741E+4
  -2.74493E+2   2.93789E+4
  -1.34148E+1   2.89513E+4
   2.26937E+2   2.86656E+4
   4.18051E+2   2.82727E+4
   5.88744E+2   2.79288E+4
   8.38382E+2   2.74935E+4
   1.16264E+3   2.71215E+4
   1.25436E+3   2.67472E+4
   1.49327E+3   2.63684E+4
   1.73884E+3   2.60159E+4
   1.87057E+3   2.56192E+4
   2.09885E+3   2.52875E+4
   2.30960E+3   2.49894E+4
   2.42921E+3   2.45315E+4
   2.70145E+3   2.41223E+4
   2.91172E+3   2.37446E+4
   3.16920E+3   2.34183E+4
   3.31681E+3   2.29991E+4
   3.53816E+3   2.26888E+4
   3.70518E+3   2.23278E+4
   3.96147E+3   2.20128E+4
   4.14993E+3   2.16790E+4
   4.34861E+3   2.13269E+4
   4.54481E+3   2.09460E+4
   4.74225E+3   2.06694E+4
   4.98631E+3   2.04246E+4
   5.07934E+3   2.01330E+4
   5.23556E+3   1.97876E+4
   5.43177E+3   1.94612E+4
   5.60032E+3   1.92422E+4
   5.82185E+3   1.90057E+4
   5.83799E+3   1.87172E+4
   6.03818E+3   1.84598E+4
   6.15968E+3   1.81890E+4
   6.32096E+3   1.78891E+4
   6.38867E+3   1.76368E+4
   6.52121E+3   1.73488E+4
   6.60412E+3   1.70753E+4
   6.66431E+3   1.68595E+4
   6.81195E+3   1.66638E+4
   6.83421E+3   1.63681E+4
   6.97065E+3   1.61161E+4
   6.90369E+3   1.59198E+4
   7.03711E+3   1.57161E+4
   7.04522E+3   1.54222E+4
   7.18755E+3   1.51585E+4
   7.14055E+3   1.49750E+4
   7.18349E+3   1.47206E+4
   7.25464E+3   1.45054E+4
   7.23068E+3   1.42679E+4
   7.19910E+3   1.41004E+4
   7.22217E+3   1.37993E+4
   7.19819E+3   1.36063E+4
   7.15279E+3   1.32916E+4
   7.08755E+3   1.31445E+4
   7.13014E+3   1.29351E+4
   7.11216E+3   1.26525E+4
   7.12097E+3   1.24295E+4
   6.99639E+3   1.21946E+4
   7.05948E+3   1.18806E+4
   7.00485E+3   1.17415E+4
   7.03223E+3   1.14863E+4
   7.00333E+3   1.12527E+4
   6.96750E+3   1.10456E+4
   6.88835E+3   1.08312E+4
   6.92937E+3   1.06053E+4
   6.86307E+3   1.03755E+4
   6.80425E+3   1.01649E+4
   6.76615E+3   9.95030E+3
   6.74950E+3   9.72923E+3
   6.67212E+3   9.54418E+3
   6.68530E+3   9.41497E+3
   6.60237E+3   9.15789E+3
   6.55307E+3   8.95040E+3
   6.55304E+3   8.85305E+3
   6.47312E+3   8.64590E+3
   6.44671E+3   8.47827E+3
   6.37185E+3   8.31772E+3
   6.32021E+3   8.13594E+3
   6.25597E+3   7.98411E+3
   6.17562E+3   7.86047E+3
   6.13994E+3   7.62689E+3
   6.08402E+3   7.46195E+3
   6.06182E+3   7.31925E+3
   5.95718E+3   7.28438E+3
   5.91658E+3   7.11427E+3
   5.83693E+3   6.89152E+3
   5.85178E+3   6.81717E+3
   5.70316E+3   6.73431E+3
   5.58760E+3   6.50389E+3
   5.59151E+3   6.37699E+3
   5.53271E+3   6.33058E+3
   5.46035E+3   6.15235E+3
   5.36222E+3   6.03532E+3
   5.30646E+3   5.94133E+3
   5.21140E+3   5.89547E+3
   5.07611E+3   5.72854E+3
   5.04683E+3   5.61455E+3
   5.05558E+3   5.59211E+3
   4.95312E+3   5.47517E+3
   4.88451E+3   5.24973E+3
   4.76888E+3   5.20785E+3
   4.69890E+3   5.13932E+3
   4.70062E+3   4.99555E+3
   4.61135E+3   4.95662E+3
   4.59143E+3   4.79626E+3
   4.44594E+3   4.72876E+3
   4.34237E+3   4.66022E+3
   4.37224E+3   4.56261E+3
   4.24806E+3   4.42231E+3
   4.18448E+3   4.36304E+3
   4.11700E+3   4.30301E+3
   4.03752E+3   4.26054E+3
   4.01742E+3   4.08293E+3
   3.92841E+3   4.00404E+3
   3.88004E+3   3.88641E+3
   3.85941E+3   3.83482E+3
   3.79991E+3   3.71172E+3
   3.73781E+3   3.66675E+3
   3.61925E+3   3.63484E+3
   3.59505E+3   3.51369E+3
   3.51798E+3   3.44859E+3
   3.49835E+3   3.37170E+3
   3.43521E+3   3.29353E+3
   3.31804E+3   3.30658E+3
   3.32449E+3   3.17498E+3
   3.27836E+3   3.21890E+3
   3.24325E+3   3.00345E+3
   3.16564E+3   3.05599E+3
   3.13818E+3   2.99105E+3
   3.06537E+3   2.86886E+3
   3.03968E+3   2.85699E+3
   3.02638E+3   2.75982E+3
   2.95054E+3   2.69396E+3
   2.89856E+3   2.74051E+3
   2.87619E+3   2.58265E+3
   2.81472E+3   2.50820E+3
   2.78758E+3   2.51209E+3
   2.72758E+3   2.41181E+3
   2.68194E+3   2.33753E+3
   2.64051E+3   2.30138E+3
   2.59520E+3   2.27863E+3
   2.56660E+3   2.21838E+3
   2.52617E+3   2.21402E+3
   2.45906E+3   2.17142E+3
   2.48854E+3   2.09408E+3
   2.43639E+3   2.01197E+3
   2.33572E+3   1.99857E+3
   2.27541E+3   1.94948E+3
   2.26378E+3   1.97986E+3
   2.22269E+3   1.88321E+3
   2.26096E+3   1.82833E+3
   2.13989E+3   1.78371E+3
   2.09700E+3   1.80127E+3
   2.07235E+3   1.76790E+3
   2.04626E+3   1.68041E+3
   2.03091E+3   1.61968E+3
   1.96158E+3   1.68849E+3
   1.85053E+3   1.55909E+3
   1.93409E+3   1.50788E+3
   1.87972E+3   1.47576E+3
   1.78273E+3   1.41766E+3
   1.73284E+3   1.41290E+3
   1.73485E+3   1.39514E+3
   1.69519E+3   1.34255E+3
   1.63269E+3   1.29660E+3
   1.61201E+3   1.23915E+3
   1.55526E+3   1.22017E+3
   1.53724E+3   1.22675E+3
   1.48347E+3   1.20198E+3
   1.46674E+3   1.10697E+3
   1.43555E+3   1.08725E+3
   1.39692E+3   9.92897E+2
   1.39919E+3   9.93286E+2
   1.33701E+3   9.61883E+2
   1.33273E+3   9.42098E+2
   1.34048E+3   8.38024E+2
   1.27238E+3   9.10330E+2
   1.23035E+3   8.54618E+2
   1.21720E+3   8.76669E+2
   1.14098E+3   7.90320E+2
   1.08331E+3   7.77143E+2
   1.05556E+3   6.53078E+2
   1.11641E+3   6.96566E+2
   1.03594E+3   6.19159E+2
   9.93421E+2   6.56602E+2
   1.05188E+3   4.93362E+2
   9.61396E+2   5.26874E+2
   9.74261E+2   5.24507E+2
   8.97549E+2   5.34015E+2
   9.01409E+2   5.29943E+2
   8.96104E+2   4.91408E+2
   7.65598E+2   4.28375E+2
   8.47314E+2   3.73842E+2
   8.04034E+2   3.85503E+2
   8.30842E+2   3.87929E+2
   7.46425E+2   3.68326E+2
   7.33949E+2   3.41719E+2
   7.26817E+2   3.84876E+2
   7.79461E+2   3.53620E+2
   7.37696E+2   2.86890E+2
   6.83459E+2   2.98343E+2
   6.55842E+2   3.30803E+2
   6.20729E+2   2.48830E+2
   6.11071E+2   2.62077E+2
   5.94466E+2   2.40472E+2
   5.88214E+2   2.64720E+2
   5.72128E+2   2.20736E+2
   5.06393E+2   1.80233E+2
   5.44260E+2   2.07308E+2
   5.16149E+2   2.13986E+2
   5.42131E+2   2.07423E+2
   4.64238E+2   2.00112E+2
   4.85718E+2   1.71152E+2
   5.17227E+2   9.73957E+1
   4.50864E+2   1.93642E+2
   3.30985E+2   1.72558E+2
   4.04008E+2   1.34012E+2
   4.07159E+2   1.02953E+2
   3.06735E+2   1.29747E+2
   3.97871E+2   6.69683E+1
   3.28722E+2   1.31060E+2
   2.50039E+2   1.72897E+2
   3.19765E+2   1.19572E+2
   3.16495E+2   5.71478E+1
   3.04944E+2   1.71919E+1
   2.64365E+2   8.02797E+1
   2.03329E+2   6.19029E+1
   1.86179E+2   1.01103E+2
   1.63400E+2   1.43195E+2
   1.68582E+2   3.96567E+1
   1.35426E+2   3.48152E+1
   1.23023E+2   5.22826E+1
   1.37714E+2  -1.83847E+1
   3.27504E+1   4.75963E+1
   9.47009E+1   9.49053E+1
   3.20254E+1  -2.59070E+1
   8.01412E+1   1.06571E+1
  -1.98696E+1   4.68729E+1
   6.09374E+1   3.31529E+1
   5.98195E+1   3.77172E+1
  -1.93714E+1   3.55811E+1
   4.79448E+1  -3.06552E+1
   5.51898E+1   1.55051E+1
   1.72125E+1  -3.66618E+1
  -3.17911E+1  -1.04395E+1
  -3.64230E+1   3.22347E+1
  -6.70818E+1  -1.15980E+1
  -8.67672E+1  -3.99614E+1
  -9.91169E+1  -4.02929E+0
  -1.35591E+2  -2.88495E+0
  -8.15729E+1  -8.09240E+1
  -6.23174E+1  -1.53014E+1
  -1.01577E+2  -1.47104E+0
  -9.10246E+1  -6.11926E+1
  -7.73960E+1  -1.01328E+2
  -7.28280E+1  -6.80365E+1
  -1.46922E+2  -8.16518E+1
  -1.35491E+2  -6.68431E+1
  -1.66082E+2  -6.00337E+1
  -1.18765E+2  -8.62608E+1
  -1.12959E+2  -1.04252E+2
  -1.91166E+2  -3.42761E+1
  -1.69359E+2  -6.62720E+1
  -2.12356E+2  -3.44899E+1
  -1.68850E+2  -9.74927E+1
  -1.82563E+2  -9.45757E+1
  -1.00425E+2   5.68970E+0
  -1.27398E+2  -1.02772E+2
  -1.80925E+2  -6.43555E+1
  -1.57527E+2  -1.15377E+2
  -1.81388E+2  -1.30608E+2
  -1.65566E+2  -1.12209E+2
  -1.79020E+2  -1.01361E+2
  -1.65018E+2  -6.34627E+1
  -1.91364E+2  -2.15858E+1
  -2.12077E+2  -8.68654E+1
  -2.15336E+2  -9.55812E+1
  -2.12271E+2  -8.99116E+1
  -1.53848E+2  -1.28779E+2
  -2.20867E+2  -1.25729E+2
  -1.81348E+2  -9.10595E+1
  -2.09292E+2  -1.53372E+2
  -1.98752E+2  -1.74447E+2
  -2.57693E+2  -9.65086E+1
  -2.20835E+2  -5.40832E+1
  -1.72230E+2  -1.34060E+2
  -3.01008E+2  -1.12377E+2
  -2.04727E+2  -1.27526E+2
  -1.84072E+2  -6.54828E+1
  -1.98376E+2  -1.43863E+2
  -2.42989E+2  -1.23499E+2
  -2.19863E+2  -1.47301E+2
  -2.15627E+2  -1.05513E+2
