 
 $NMID
 ID=''
 FMTDAT='(2E13.5)'
 TRAMP=   1.00000E+0
 VOLUME=   1.00000E+0
 $END
   8.61645E+2  -3.54553E+2
   1.25039E+2   1.67935E+3
   3.09644E+3  -6.34603E+3
  -3.05397E+3  -1.96791E+3
  -2.95971E+3   7.53922E+2
   3.99389E+2   5.72042E+2
  -2.22604E+3   1.29639E+3
  -1.87079E+3  -1.89532E+2
  -1.02932E+3  -3.60491E+3
  -1.85641E+1  -2.94105E+3
   6.82465E+2  -1.89345E+3
  -8.03530E+2   2.23618E+3
  -1.67179E+3   5.01715E+3
  -5.07130E+3   1.14269E+3
  -1.05946E+3  -3.52848E+3
   3.65246E+3  -1.92406E+3
   3.05347E+3  -1.67856E+2
   5.25329E+2  -1.38313E+3
  -1.76295E+3  -8.32759E+2
  -2.13489E+3  -2.84205E+3
   1.97686E+3  -1.80013E+3
   8.38859E+2   2.27743E+3
  -5.15724E+3   1.20834E+3
   5.63476E+2  -2.81665E+3
   4.33293E+3  -2.86106E+2
  -8.98484E+1   4.10010E+3
  -3.02020E+3  -3.66798E+2
   1.55079E+3  -1.56209E+3
   3.15290E+3  -4.21783E+3
   7.46347E+3   9.10010E+2
   3.48642E+3   5.66175E+3
  -2.75606E+3   7.44390E+3
  -2.60053E+3  -2.95079E+3
   2.33749E+3  -2.72092E+3
   1.75374E+2   1.05428E+3
  -1.10646E+3  -3.74454E+3
   5.53373E+3  -3.58393E+3
   6.64549E+3   2.50994E+3
   1.89188E+3   4.25260E+3
  -7.69977E+2   4.08899E+3
  -3.60075E+3   4.78259E+3
  -7.02949E+3  -2.23823E+3
  -1.74494E+3  -6.89827E+3
   5.36847E+3  -2.49920E+3
   4.76839E+3   6.52220E+2
   1.47171E+3  -3.53418E+2
   5.54742E+2  -5.14421E+2
  -3.33536E+3   1.62401E+3
  -3.33759E+3   6.15735E+2
  -3.70944E+3  -2.13621E+3
  -3.49324E+3  -2.76709E+3
   1.35075E+3  -4.46429E+3
   2.58222E+3   1.61723E+3
   1.78051E+3   2.47447E+3
  -4.48550E+2  -2.78760E+2
  -2.66969E+2   1.90130E+3
  -5.37813E+3   5.05472E+2
  -5.50710E+3  -4.09267E+3
  -7.60396E+2  -7.72914E+3
   1.79820E+3  -4.37447E+3
   4.61590E+3   4.44438E+2
   2.66278E+3   2.00228E+3
  -1.13978E+3   3.57000E+3
  -3.46481E+3   7.71652E+2
  -4.70527E+2   4.93899E+2
   7.09964E+2   2.74478E+3
  -3.64617E+3   5.54319E+3
  -2.30319E+3   4.81059E+2
   2.08245E+3  -1.47090E+3
   2.38647E+3   2.52280E+2
   4.32560E+2   1.04908E+3
  -1.98516E+3  -2.03762E+3
   2.14877E+3  -1.40172E+3
   3.02232E+3  -1.19545E+3
   2.32581E+3   1.89886E+3
  -2.97289E+2   1.54349E+3
   1.44160E+2  -3.27538E+1
   3.85016E+3  -1.28756E+3
   3.74244E+3   6.79212E+1
   3.91609E+2   2.56758E+3
  -1.24240E+3   1.88281E+2
   1.64300E+2   7.21960E+2
  -3.79432E+1   1.02047E+3
  -2.17985E+3   2.67639E+3
  -4.06506E+3   1.13093E+3
  -4.38406E+3  -3.82877E+3
   6.57167E+2  -2.15555E+3
   2.43370E+3  -3.88917E+2
   2.53997E+3   4.52713E+3
  -1.34244E+3   3.42574E+3
  -4.96805E+2   1.10380E+2
  -1.15505E+2   4.32750E+3
  -8.08589E+2   2.80387E+3
  -2.93039E+3   3.46115E+3
  -2.42927E+3  -2.54455E+3
   3.38267E+3  -2.25987E+3
   3.77634E+3  -3.26008E+2
  -1.16890E+3   2.63498E+3
  -3.20521E+3   1.40945E+2
  -1.96618E+3  -2.52001E+3
   2.85877E+3  -4.36874E+3
   2.40592E+3  -4.58274E+1
  -2.05831E+3   5.35431E+3
  -3.95520E+3   2.91618E+3
  -4.32816E+3  -1.77696E+3
  -1.22297E+3   8.56573E+2
  -2.01061E+3   2.20205E+2
  -2.79691E+3  -1.88955E+3
  -1.21600E+3  -3.49136E+3
   3.49421E+3  -2.65064E+3
   3.71735E+3   1.68733E+3
   2.83576E+3   4.88872E+3
   8.45333E+2   3.60759E+3
  -1.10995E+3   3.48797E+3
  -2.73290E+3   4.84854E+2
  -6.86693E+1  -2.71454E+3
  -2.08261E+3  -1.07504E+3
   5.12471E+2  -6.96012E+2
   1.19700E+3  -1.51399E+3
  -9.80641E+2  -1.03997E+3
   2.33526E+2   3.09766E+3
  -1.50418E+3   3.71362E+2
  -1.54828E+3  -2.46149E+3
   1.37889E+3   3.27627E+2
  -8.40936E+2   1.01068E+3
   3.17049E+2  -5.74749E+2
   6.13878E+2  -1.95716E+3
   3.02808E+3  -9.53760E+2
   6.46947E+1   5.85146E+2
  -1.41247E+0   8.20705E+2
   6.56993E+1  -5.58545E+2
   1.73101E+3  -6.76735E+2
   8.60324E+2   2.12076E+3
  -1.57513E+3   5.44840E+3
  -2.20399E+3  -7.02909E+2
  -1.32293E+3  -1.95247E+3
   1.15309E+3  -1.13965E+3
   5.18004E+2  -1.80715E+3
   2.59817E+3  -9.12033E+2
   1.44309E+3  -5.44471E+2
   2.75709E+3  -8.53418E+2
   1.00603E+3   3.93992E+2
   6.91141E+1   1.17086E+3
  -3.08246E+3   5.14108E+2
  -9.29468E+2  -2.72859E+3
  -3.51443E+2  -2.29671E+3
   6.00720E+2   1.59392E+3
   7.48987E+2  -1.77894E+3
  -1.78886E+2   1.13415E+2
  -2.72324E+3  -1.34096E+3
  -5.28034E+2  -2.56114E+3
   7.65493E+2  -1.71905E+3
   2.99002E+3  -2.21246E+3
   2.09640E+3  -2.39261E+3
   1.77539E+3   1.36078E+3
   1.54633E+3  -2.25256E+2
  -8.90307E+2   1.62857E+3
  -1.87501E+3  -4.38436E+2
   4.01445E+2   9.66708E+2
  -2.86953E+3  -7.88130E+2
  -2.60228E+3  -3.19856E+2
   3.15192E+2  -2.95355E+3
   2.48196E+3  -1.48533E+3
   1.58930E+3   9.70437E+2
  -8.43356E+2  -1.99879E+2
  -1.66738E+3  -2.21983E+3
   1.03913E+3  -3.16756E+3
   3.43773E+3  -4.49913E+2
  -7.57611E+2   4.05672E+2
  -2.90171E+3   7.74837E+2
  -1.36073E+3  -1.59338E+3
  -3.41044E+0  -2.92666E+3
   1.83751E+3  -2.08395E+3
   2.22083E+3  -8.49066E+2
  -1.36590E+2   2.01998E+3
  -2.64497E+2   9.10774E+2
   1.71127E+3  -2.03091E+2
  -1.95037E+3   7.03908E+2
  -9.10613E+2   1.43667E+3
  -5.75750E+2  -8.44786E+2
  -2.05300E+2  -2.65053E+3
   3.44277E+3  -1.71796E+3
   2.79484E+3   1.40848E+3
  -2.29201E+2  -3.78939E+2
  -5.32014E+2  -1.40051E+3
  -7.40837E+2  -3.47561E+2
  -1.41683E+3  -4.29679E+2
  -1.41714E+3  -1.01420E+3
  -2.08735E+3  -2.03248E+3
   1.97767E+3  -5.95907E+2
   1.24124E+3   5.25124E+2
  -2.78776E+3   5.85705E+2
  -2.16230E+3   7.18792E+2
  -1.82419E+3   9.74735E+1
   4.75127E+2   9.40853E+1
   1.45925E+2   1.86476E+3
  -1.29791E+3   1.27819E+3
  -3.14819E+2   7.77714E+2
   1.89304E+3   4.48013E+2
  -7.53705E+2   1.42734E+2
  -3.06597E+3   8.78540E+2
   3.22062E+2  -2.16671E+3
   2.32405E+3  -1.00517E+3
   5.31128E+2   2.63520E+2
   1.17936E+3   1.55318E+3
  -4.87219E+2   1.87643E+3
  -4.94498E+2  -5.71954E+2
   3.98393E+2   9.80857E+2
  -1.01321E+2   1.03415E+3
  -1.76520E+3  -1.68485E+1
  -1.01132E+3  -2.93587E+2
   1.24849E+3  -1.32109E+3
   1.68652E+3  -2.51881E+2
  -1.05963E+3   2.24839E+3
  -9.15998E+2   4.84419E+2
  -2.80865E+3  -2.73379E+3
   8.22299E+1  -8.93543E+0
  -1.74384E+3  -5.93090E+1
   9.76450E+2  -1.96587E+3
  -1.02659E+3   6.80940E+0
   2.99682E+2  -1.22154E+3
  -1.94878E+2   1.91744E+3
   7.99531E+2   2.09040E+3
  -1.32065E+3   7.72501E+2
   1.59336E+3   8.93640E+2
   9.80253E+2   6.19548E+2
  -1.15185E+2   1.37329E+3
   7.61774E+1   3.05088E+2
  -1.87548E+3   1.20706E+3
  -6.00064E+2  -2.65200E+3
   1.34761E+3   1.56026E+3
  -5.10546E+1   3.94262E+2
  -8.45028E+1   5.11202E+1
   9.28418E+2  -1.45942E+3
   2.25291E+3   1.48374E+3
  -5.24002E+2   1.15390E+3
  -2.49928E+3   2.61838E+2
  -1.34021E+3  -1.97485E+3
   1.23422E+3  -1.17734E+3
   2.08024E+3   1.31955E+3
   1.74067E+3   5.59184E+2
  -1.36163E+2   3.79855E+2
  -4.45512E+2  -7.11065E+1
   5.57499E+2   2.43096E+2
   2.53720E+2   1.17430E+3
   6.10179E+2  -6.25236E+2
   1.75432E+3  -5.89145E+2
   4.00175E+3   9.07182E+2
   3.47672E+3   2.15680E+3
  -1.96161E+3   3.21897E+3
  -2.07120E+3  -5.14161E+2
   2.16670E+3  -2.45325E+3
   2.50051E+3  -1.76921E+3
   5.28095E+2   1.05346E+2
   7.58990E+2   6.88143E+2
  -9.90465E+2   8.74916E+2
   2.29586E+2   1.35042E+3
   9.83882E+2   1.07586E+3
   5.11824E+2   9.01605E+2
  -8.43448E+2   3.50813E+2
   1.40673E+3  -4.82543E+2
   9.83767E+2   1.77975E+3
  -2.68702E+2   1.49112E+3
  -6.93894E+2   1.77727E+3
  -2.46184E+2  -4.08168E+2
   4.45769E+2   4.75915E+2
   1.02773E+3  -4.19749E+2
  -8.80296E+2   1.25003E+3
   4.98432E+2   3.58831E+2
   9.59285E+2   4.51267E+1
   1.12340E+3   3.05430E+3
   7.57079E+2   2.96116E+3
  -9.17004E+2  -6.43879E+2
   1.40042E+3  -2.46165E+3
  -5.84202E+2  -1.68576E+2
   1.47455E+3  -4.44793E+2
   1.22438E+3   1.40491E+3
  -8.45383E+2  -7.60788E+2
   9.76042E+2   2.05258E+3
  -8.40381E+2   6.76597E+2
  -4.08049E+2   2.35972E+3
  -9.41592E+2  -9.66742E+2
  -6.57587E+2   3.71838E+2
   1.48403E+3  -2.07858E+3
  -3.90444E+2   1.40213E+2
  -6.16900E+2  -9.60379E+2
  -5.90810E+1  -2.54070E+3
   5.13988E+2  -1.13391E+3
   1.29532E+3  -2.43963E+2
   1.07957E+3   1.38121E+3
   1.32424E+2   7.29454E+2
  -1.72340E+3  -8.46140E+2
  -4.50375E+1   5.96505E+2
  -1.62976E+3   1.47584E+3
  -2.60142E+3   3.41440E+2
  -5.49994E+2   2.07747E+3
  -4.11170E+2  -6.32144E+2
   4.49344E+2   1.73138E+3
   3.69002E+2  -7.91652E+2
  -9.63806E+2   4.45915E+2
  -1.40272E+3  -1.04020E+3
   6.30025E+2   1.81110E+3
  -4.54075E+2   3.85849E+2
  -2.62141E+3  -1.29304E+3
  -1.04626E+3   5.97147E+2
   1.86841E+3   1.64005E+3
   1.71908E+3   1.25546E+3
   4.13782E+2   3.26980E+2
  -3.12968E+3  -4.04116E+2
  -1.66389E+2  -2.80103E+3
  -4.10566E+2  -1.48784E+1
   7.63966E+2   3.22243E+2
   6.11594E+2   3.19971E+2
  -3.60429E+2   2.31238E+2
   3.11188E+2   3.28464E+1
  -6.71203E+2   2.33174E+3
   5.67423E+2  -4.87088E+2
   1.21753E+3  -2.76838E+3
   1.08898E+3  -7.91905E+2
   3.87567E+2  -1.53417E+3
   6.99845E+2   4.16043E+2
  -1.47697E+3  -5.68853E+2
  -3.04492E+3  -1.54445E+3
  -8.17152E+2  -1.86047E+2
   9.97683E+2   1.78239E+2
  -8.54044E+2  -2.26813E+2
   1.46071E+3  -1.82227E+3
   1.23434E+2  -1.12102E+3
   2.27555E+3  -1.02128E+3
  -4.84791E+2   6.95152E+2
  -8.68083E+2   8.59546E+2
   3.97473E+2  -1.53715E+3
  -7.85887E+2  -1.64563E+3
  -1.53442E+3  -7.71694E+2
   3.71592E+2  -5.33836E+2
  -3.57512E+2   1.35398E+2
   4.74238E+2  -1.25679E+3
   2.10349E+3   5.58815E+2
  -6.90780E+2   1.56518E+3
   5.14879E+2  -4.33823E+2
   1.58098E+2  -1.69442E+3
   4.02084E+3   6.25266E+1
  -1.12727E+3   9.57838E+1
  -9.48591E+2  -2.43163E+2
  -8.95833E+2   1.01048E+3
   8.53457E+2   5.36950E+2
  -2.42940E+2   1.07265E+3
  -4.16227E+2   8.79721E+2
  -1.31516E+3   9.40435E+2
  -1.19252E+3  -3.23728E+2
  -9.61616E+1  -2.84273E+2
   1.91720E+3   1.18696E+3
   1.21608E+3  -3.04601E+1
  -7.07044E+2  -2.22411E+3
   3.17897E+3  -4.96745E+2
   3.02795E+3   1.06613E+3
  -1.81132E+3   2.44044E+3
  -2.08480E+3   1.03318E+3
  -5.74906E+2  -1.91210E+3
   5.29583E+2  -1.94508E+3
   3.91677E+2   2.38426E+3
   4.30949E+2   2.09785E+3
  -9.40568E+2  -1.15853E+3
  -8.59334E+1   1.18202E+3
  -4.38291E+2   8.86675E+2
  -1.52202E+2   4.63662E+2
   4.84164E+1   1.69449E+3
