 
 $NMID
 ID=''
 FMTDAT='(2E13.5)'
 TRAMP=   1.00000E+0
 VOLUME=   1.00000E+0
 $END
  -1.29618E+4   1.71718E+4
  -4.45882E+4   3.29996E+4
  -3.80158E+4   4.02950E+4
  -3.49805E+4   3.72791E+4
  -3.72839E+4   3.77218E+4
  -3.54382E+4   3.95894E+4
  -3.42699E+4   3.77948E+4
  -3.54481E+4   3.74810E+4
  -3.42655E+4   3.85362E+4
  -3.33554E+4   3.73570E+4
  -3.39454E+4   3.72603E+4
  -3.28607E+4   3.80071E+4
  -3.20160E+4   3.74447E+4
  -3.25384E+4   3.72700E+4
  -3.17131E+4   3.77255E+4
  -3.09721E+4   3.70899E+4
  -3.11144E+4   3.70477E+4
  -3.04448E+4   3.72756E+4
  -2.96728E+4   3.69287E+4
  -2.97123E+4   3.68255E+4
  -2.89506E+4   3.70097E+4
  -2.81878E+4   3.68173E+4
  -2.81185E+4   3.67340E+4
  -2.75251E+4   3.68114E+4
  -2.68574E+4   3.64974E+4
  -2.65534E+4   3.64189E+4
  -2.60433E+4   3.65822E+4
  -2.56381E+4   3.62129E+4
  -2.55264E+4   3.59542E+4
  -2.50037E+4   3.59620E+4
  -2.44623E+4   3.58484E+4
  -2.43074E+4   3.58467E+4
  -2.39215E+4   3.58485E+4
  -2.35091E+4   3.55925E+4
  -2.31806E+4   3.55262E+4
  -2.28398E+4   3.55594E+4
  -2.24241E+4   3.52016E+4
  -2.20807E+4   3.51027E+4
  -2.16100E+4   3.51632E+4
  -2.13182E+4   3.49157E+4
  -2.10109E+4   3.47520E+4
  -2.07739E+4   3.45769E+4
  -2.05570E+4   3.42326E+4
  -2.01265E+4   3.40080E+4
  -1.97300E+4   3.39034E+4
  -1.93026E+4   3.36661E+4
  -1.91644E+4   3.34195E+4
  -1.87557E+4   3.32286E+4
  -1.84292E+4   3.30380E+4
  -1.81356E+4   3.27574E+4
  -1.78089E+4   3.24890E+4
  -1.74653E+4   3.22477E+4
  -1.70963E+4   3.20407E+4
  -1.67035E+4   3.18655E+4
  -1.64762E+4   3.16500E+4
  -1.61389E+4   3.13772E+4
  -1.58516E+4   3.11320E+4
  -1.55891E+4   3.09519E+4
  -1.52849E+4   3.06358E+4
  -1.48881E+4   3.02937E+4
  -1.44997E+4   3.00145E+4
  -1.40885E+4   2.97445E+4
  -1.38224E+4   2.95781E+4
  -1.35301E+4   2.93209E+4
  -1.31975E+4   2.89621E+4
  -1.28007E+4   2.87319E+4
  -1.24665E+4   2.85814E+4
  -1.21690E+4   2.83603E+4
  -1.17783E+4   2.80514E+4
  -1.14435E+4   2.78092E+4
  -1.11008E+4   2.75907E+4
  -1.07076E+4   2.73940E+4
  -1.04209E+4   2.71624E+4
  -1.00416E+4   2.69402E+4
  -9.74538E+3   2.67267E+4
  -9.31633E+3   2.65440E+4
  -9.10006E+3   2.64347E+4
  -8.80158E+3   2.61432E+4
  -8.43020E+3   2.60725E+4
  -8.08237E+3   2.58312E+4
  -7.79181E+3   2.57124E+4
  -7.59375E+3   2.54777E+4
  -7.22939E+3   2.52649E+4
  -6.97738E+3   2.51019E+4
  -6.72897E+3   2.49451E+4
  -6.56068E+3   2.47914E+4
  -6.32594E+3   2.45443E+4
  -6.02011E+3   2.43620E+4
  -5.79960E+3   2.41705E+4
  -5.49200E+3   2.40360E+4
  -5.26235E+3   2.38436E+4
  -5.03162E+3   2.37078E+4
  -4.76035E+3   2.35567E+4
  -4.61485E+3   2.33845E+4
  -4.44732E+3   2.31176E+4
  -4.19556E+3   2.28957E+4
  -3.93050E+3   2.27912E+4
  -3.73840E+3   2.25765E+4
  -3.56832E+3   2.24148E+4
  -3.41647E+3   2.22110E+4
  -3.24794E+3   2.19801E+4
  -3.07582E+3   2.17322E+4
  -2.78642E+3   2.16198E+4
  -2.75604E+3   2.13944E+4
  -2.48849E+3   2.12452E+4
  -2.37162E+3   2.10144E+4
  -2.21474E+3   2.08351E+4
  -2.07505E+3   2.06020E+4
  -1.97107E+3   2.04169E+4
  -1.73515E+3   2.01623E+4
  -1.54201E+3   1.99813E+4
  -1.42810E+3   1.97202E+4
  -1.31696E+3   1.95468E+4
  -1.15553E+3   1.92800E+4
  -9.69835E+2   1.90076E+4
  -9.29284E+2   1.88167E+4
  -6.89670E+2   1.85508E+4
  -5.50180E+2   1.82994E+4
  -4.72866E+2   1.80810E+4
  -3.28317E+2   1.78108E+4
  -1.17499E+2   1.76401E+4
  -4.32815E+0   1.74051E+4
   1.50678E+2   1.70992E+4
   3.50526E+2   1.69548E+4
   5.10783E+2   1.66918E+4
   5.89370E+2   1.64668E+4
   6.90258E+2   1.61810E+4
   8.84487E+2   1.59832E+4
   1.05387E+3   1.57986E+4
   1.14840E+3   1.55272E+4
   1.22360E+3   1.53447E+4
   1.40941E+3   1.51895E+4
   1.57549E+3   1.48679E+4
   1.71962E+3   1.46324E+4
   1.84452E+3   1.44934E+4
   1.89340E+3   1.43135E+4
   2.08131E+3   1.40208E+4
   2.13968E+3   1.37958E+4
   2.32108E+3   1.36631E+4
   2.42620E+3   1.34458E+4
   2.49782E+3   1.32034E+4
   2.64167E+3   1.30518E+4
   2.69205E+3   1.28755E+4
   2.83536E+3   1.26539E+4
   2.89638E+3   1.25386E+4
   2.99611E+3   1.23117E+4
   3.10011E+3   1.21081E+4
   3.14894E+3   1.19102E+4
   3.22761E+3   1.17918E+4
   3.31801E+3   1.15477E+4
   3.37209E+3   1.13388E+4
   3.39781E+3   1.11485E+4
   3.45867E+3   1.09229E+4
   3.45017E+3   1.07312E+4
   3.48598E+3   1.05953E+4
   3.62223E+3   1.03457E+4
   3.64046E+3   1.02177E+4
   3.64520E+3   9.99672E+3
   3.64959E+3   9.77065E+3
   3.78308E+3   9.63800E+3
   3.82831E+3   9.41025E+3
   3.90271E+3   9.20381E+3
   3.94028E+3   8.98183E+3
   3.92303E+3   8.88693E+3
   3.94001E+3   8.71432E+3
   3.98765E+3   8.49314E+3
   3.94700E+3   8.33337E+3
   4.04339E+3   8.10307E+3
   4.05481E+3   7.98013E+3
   4.02843E+3   7.81765E+3
   4.04817E+3   7.64713E+3
   4.08323E+3   7.45930E+3
   4.09433E+3   7.31807E+3
   4.13836E+3   7.15148E+3
   4.10425E+3   7.02597E+3
   4.13694E+3   6.82790E+3
   4.13428E+3   6.70165E+3
   4.11400E+3   6.46426E+3
   4.20495E+3   6.40901E+3
   4.17129E+3   6.24412E+3
   4.12357E+3   6.11064E+3
   4.11759E+3   5.91195E+3
   4.14982E+3   5.83078E+3
   4.19235E+3   5.56772E+3
   4.23901E+3   5.54787E+3
   4.10364E+3   5.34464E+3
   4.15510E+3   5.21948E+3
   4.09129E+3   5.12410E+3
   4.14644E+3   4.99117E+3
   4.16531E+3   4.83191E+3
   4.08238E+3   4.75428E+3
   4.15440E+3   4.68283E+3
   4.07153E+3   4.56293E+3
   4.08667E+3   4.42261E+3
   4.03319E+3   4.28243E+3
   4.00877E+3   4.26174E+3
   3.97310E+3   4.06109E+3
   3.97976E+3   3.98644E+3
   3.96246E+3   3.87044E+3
   3.95565E+3   3.81025E+3
   3.88239E+3   3.70139E+3
   3.81826E+3   3.57354E+3
   3.78974E+3   3.49017E+3
   3.76683E+3   3.33454E+3
   3.75791E+3   3.20714E+3
   3.76972E+3   3.22156E+3
   3.68483E+3   3.11787E+3
   3.70088E+3   3.00684E+3
   3.68803E+3   2.91382E+3
   3.57855E+3   2.87490E+3
   3.63873E+3   2.73499E+3
   3.61138E+3   2.71208E+3
   3.56896E+3   2.57612E+3
   3.47231E+3   2.53744E+3
   3.50134E+3   2.44720E+3
   3.46435E+3   2.37173E+3
   3.39305E+3   2.29964E+3
   3.38578E+3   2.21277E+3
   3.41435E+3   2.14428E+3
   3.32711E+3   2.10788E+3
   3.29381E+3   2.04584E+3
   3.24820E+3   1.93941E+3
   3.21229E+3   1.97538E+3
   3.18289E+3   1.88217E+3
   3.12532E+3   1.70871E+3
   3.11120E+3   1.78170E+3
   3.14950E+3   1.67358E+3
   3.11546E+3   1.64292E+3
   3.07866E+3   1.52093E+3
   3.04073E+3   1.57537E+3
   3.01554E+3   1.53490E+3
   2.96136E+3   1.44268E+3
   2.98423E+3   1.39968E+3
   2.88174E+3   1.38994E+3
   2.90191E+3   1.32260E+3
   2.90282E+3   1.30088E+3
   2.86627E+3   1.24758E+3
   2.77747E+3   1.18506E+3
   2.76439E+3   1.23508E+3
   2.72274E+3   1.19380E+3
   2.71217E+3   1.09237E+3
   2.69415E+3   1.08010E+3
   2.62214E+3   1.00041E+3
   2.68383E+3   1.00158E+3
   2.56791E+3   9.64511E+2
   2.56627E+3   8.83996E+2
   2.47774E+3   8.70564E+2
   2.48114E+3   8.87718E+2
   2.45407E+3   8.53695E+2
   2.38639E+3   8.27364E+2
   2.33743E+3   7.76773E+2
   2.39750E+3   7.25688E+2
   2.34755E+3   7.13663E+2
   2.29812E+3   7.36231E+2
   2.28415E+3   6.97509E+2
   2.18147E+3   6.06195E+2
   2.21502E+3   5.98014E+2
   2.15625E+3   6.02209E+2
   2.15197E+3   5.38025E+2
   2.10676E+3   5.55782E+2
   2.11323E+3   4.83388E+2
   2.03143E+3   4.81892E+2
   2.05838E+3   4.14267E+2
   1.93235E+3   4.52135E+2
   1.99921E+3   3.66546E+2
   1.95779E+3   3.77958E+2
   1.97831E+3   3.93572E+2
   1.91822E+3   3.20644E+2
   1.91194E+3   2.30696E+2
   1.89384E+3   3.15068E+2
   1.80036E+3   3.06033E+2
   1.79764E+3   2.44261E+2
   1.76346E+3   2.23574E+2
   1.80402E+3   1.87185E+2
   1.74210E+3   1.38978E+2
   1.75635E+3   1.89995E+2
   1.64885E+3   1.41871E+2
   1.63495E+3   1.16985E+2
   1.63108E+3   8.74661E+1
   1.55248E+3   1.10381E+2
   1.63673E+3   1.11736E+2
   1.51393E+3   6.67653E+1
   1.52297E+3   2.47604E+1
   1.57104E+3   6.54751E+1
   1.50142E+3   4.56946E+1
   1.52372E+3   6.86801E+1
   1.46947E+3   4.00196E+1
   1.44469E+3  -5.88805E+1
   1.41948E+3  -4.32849E+1
   1.34137E+3  -3.94283E+1
   1.40536E+3  -7.96072E+1
   1.37468E+3  -5.65004E+1
   1.37665E+3  -5.47012E+1
   1.31966E+3  -1.00490E+2
   1.27986E+3  -1.32124E+2
   1.26807E+3  -1.31694E+2
   1.31688E+3  -1.06651E+2
   1.24566E+3  -1.30159E+2
   1.26020E+3  -1.70507E+2
   1.24483E+3  -1.71480E+2
   1.20964E+3  -1.74273E+2
   1.21088E+3  -2.37914E+2
   1.19877E+3  -2.35845E+2
   1.21411E+3  -1.91282E+2
   1.18456E+3  -2.15977E+2
   1.19038E+3  -2.06464E+2
   1.13635E+3  -1.79620E+2
   1.09790E+3  -2.03970E+2
   1.12679E+3  -2.14892E+2
   1.04246E+3  -2.17830E+2
   1.08614E+3  -2.22039E+2
   1.05088E+3  -2.15018E+2
   1.04122E+3  -1.95539E+2
   1.06559E+3  -2.54872E+2
   9.35741E+2  -2.82134E+2
   9.68146E+2  -2.66918E+2
   9.31211E+2  -2.63898E+2
   8.86281E+2  -2.49244E+2
   8.55034E+2  -3.01454E+2
   9.06276E+2  -2.02993E+2
   9.05027E+2  -2.88312E+2
   8.41146E+2  -2.13675E+2
   8.59012E+2  -2.35861E+2
   8.02001E+2  -2.40539E+2
   9.02385E+2  -2.55916E+2
   7.76557E+2  -2.58179E+2
   8.23799E+2  -2.52299E+2
   8.11775E+2  -3.10477E+2
   7.70132E+2  -2.49357E+2
   7.73178E+2  -2.73535E+2
   7.00989E+2  -3.20714E+2
   7.47694E+2  -3.34107E+2
   7.61382E+2  -2.68321E+2
   7.60905E+2  -3.00289E+2
   6.74608E+2  -2.48432E+2
   6.95187E+2  -2.78491E+2
   5.88851E+2  -2.62257E+2
   5.80584E+2  -2.51946E+2
   6.42697E+2  -3.46099E+2
   6.33271E+2  -3.06320E+2
   5.74415E+2  -2.35303E+2
   5.90762E+2  -2.63018E+2
   6.76214E+2  -2.26189E+2
   5.68309E+2  -3.21240E+2
   4.96725E+2  -2.50068E+2
   5.66554E+2  -3.28593E+2
   4.79658E+2  -2.92236E+2
   5.23442E+2  -3.22565E+2
   5.24311E+2  -2.79960E+2
   5.03608E+2  -2.30979E+2
   5.24017E+2  -2.39835E+2
   4.89394E+2  -2.88001E+2
   4.68324E+2  -3.05119E+2
   4.61747E+2  -2.48612E+2
   3.95414E+2  -2.87358E+2
   5.16066E+2  -3.32459E+2
   4.58756E+2  -3.10199E+2
   4.32105E+2  -2.97368E+2
   4.29531E+2  -2.30733E+2
   4.00672E+2  -2.65219E+2
   3.84611E+2  -2.12853E+2
   4.37952E+2  -2.40273E+2
   3.73183E+2  -2.93700E+2
   3.80083E+2  -2.56024E+2
   3.65184E+2  -2.33255E+2
   3.71651E+2  -2.77746E+2
   3.12257E+2  -2.19172E+2
