 
 $NMID
 ID=''
 FMTDAT='(2E13.5)'
 TRAMP=   1.00000E+0
 VOLUME=   1.00000E+0
 $END
  -2.26514E+4  -1.24769E+3
  -5.51375E+4  -1.96049E+4
  -5.76417E+4  -9.64711E+3
  -5.31755E+4  -8.90678E+3
  -5.50316E+4  -1.09596E+4
  -5.55112E+4  -8.52859E+3
  -5.34157E+4  -8.75780E+3
  -5.39979E+4  -9.95313E+3
  -5.42863E+4  -8.47872E+3
  -5.28208E+4  -8.56106E+3
  -5.29799E+4  -9.35585E+3
  -5.30828E+4  -8.03874E+3
  -5.21262E+4  -7.95119E+3
  -5.22375E+4  -8.71088E+3
  -5.22543E+4  -7.95672E+3
  -5.12914E+4  -7.95078E+3
  -5.12708E+4  -8.36323E+3
  -5.11550E+4  -7.86084E+3
  -5.04697E+4  -7.58677E+3
  -5.05150E+4  -7.97461E+3
  -5.02407E+4  -7.60126E+3
  -4.96855E+4  -7.24206E+3
  -4.96336E+4  -7.52853E+3
  -4.95466E+4  -7.28673E+3
  -4.88299E+4  -7.20476E+3
  -4.88017E+4  -7.28132E+3
  -4.86352E+4  -7.13072E+3
  -4.80403E+4  -7.19049E+3
  -4.78003E+4  -7.38676E+3
  -4.76165E+4  -7.27599E+3
  -4.71383E+4  -7.09186E+3
  -4.70353E+4  -7.26598E+3
  -4.68475E+4  -7.15475E+3
  -4.63649E+4  -7.20360E+3
  -4.61292E+4  -7.07344E+3
  -4.58747E+4  -6.91941E+3
  -4.54375E+4  -6.82362E+3
  -4.52041E+4  -6.73103E+3
  -4.49512E+4  -6.55363E+3
  -4.46492E+4  -6.39943E+3
  -4.44979E+4  -6.42191E+3
  -4.43039E+4  -6.55190E+3
  -4.38465E+4  -6.62543E+3
  -4.35118E+4  -6.43638E+3
  -4.32761E+4  -6.36213E+3
  -4.29640E+4  -6.36692E+3
  -4.27230E+4  -6.31433E+3
  -4.25935E+4  -6.23724E+3
  -4.22693E+4  -6.13944E+3
  -4.20058E+4  -6.07391E+3
  -4.17485E+4  -6.13813E+3
  -4.14652E+4  -6.13662E+3
  -4.11866E+4  -6.03398E+3
  -4.09156E+4  -5.92510E+3
  -4.07913E+4  -5.90613E+3
  -4.04958E+4  -5.87295E+3
  -4.02945E+4  -5.91727E+3
  -4.00632E+4  -5.92964E+3
  -3.97635E+4  -5.93482E+3
  -3.94740E+4  -5.95333E+3
  -3.91892E+4  -5.92494E+3
  -3.90087E+4  -5.84834E+3
  -3.87724E+4  -5.77172E+3
  -3.86472E+4  -5.83524E+3
  -3.83077E+4  -5.90617E+3
  -3.80749E+4  -5.79553E+3
  -3.79018E+4  -5.80562E+3
  -3.76891E+4  -5.81553E+3
  -3.75245E+4  -5.86129E+3
  -3.71986E+4  -5.79405E+3
  -3.70242E+4  -5.79153E+3
  -3.68015E+4  -5.73942E+3
  -3.66306E+4  -5.71935E+3
  -3.64897E+4  -5.76708E+3
  -3.61862E+4  -5.68316E+3
  -3.59772E+4  -5.57843E+3
  -3.58158E+4  -5.52093E+3
  -3.56571E+4  -5.56087E+3
  -3.54454E+4  -5.53040E+3
  -3.52288E+4  -5.48217E+3
  -3.51234E+4  -5.46726E+3
  -3.48391E+4  -5.45372E+3
  -3.45953E+4  -5.40806E+3
  -3.44765E+4  -5.35712E+3
  -3.43350E+4  -5.49325E+3
  -3.41372E+4  -5.49230E+3
  -3.38176E+4  -5.54433E+3
  -3.36784E+4  -5.43448E+3
  -3.33654E+4  -5.41257E+3
  -3.32740E+4  -5.37157E+3
  -3.31059E+4  -5.42277E+3
  -3.28951E+4  -5.37199E+3
  -3.27814E+4  -5.23813E+3
  -3.26004E+4  -5.22356E+3
  -3.24160E+4  -5.17089E+3
  -3.22181E+4  -5.15774E+3
  -3.19666E+4  -5.12020E+3
  -3.18907E+4  -5.02013E+3
  -3.17583E+4  -5.10053E+3
  -3.15694E+4  -5.04891E+3
  -3.14145E+4  -5.06334E+3
  -3.11653E+4  -4.95669E+3
  -3.09743E+4  -4.88522E+3
  -3.08808E+4  -4.87825E+3
  -3.06511E+4  -4.92222E+3
  -3.05660E+4  -4.84070E+3
  -3.04951E+4  -4.81767E+3
  -3.03325E+4  -4.79416E+3
  -3.01119E+4  -4.78841E+3
  -2.99122E+4  -4.75392E+3
  -2.96926E+4  -4.66265E+3
  -2.95964E+4  -4.62251E+3
  -2.95599E+4  -4.54849E+3
  -2.93779E+4  -4.55309E+3
  -2.92653E+4  -4.52489E+3
  -2.90920E+4  -4.50456E+3
  -2.89228E+4  -4.53601E+3
  -2.88388E+4  -4.51831E+3
  -2.86483E+4  -4.44079E+3
  -2.84658E+4  -4.45262E+3
  -2.83264E+4  -4.31829E+3
  -2.82042E+4  -4.41702E+3
  -2.79758E+4  -4.36786E+3
  -2.78556E+4  -4.32190E+3
  -2.76662E+4  -4.26597E+3
  -2.75343E+4  -4.24157E+3
  -2.73808E+4  -4.18163E+3
  -2.73080E+4  -4.19692E+3
  -2.71177E+4  -4.18657E+3
  -2.69835E+4  -4.08113E+3
  -2.68052E+4  -4.15208E+3
  -2.66077E+4  -4.06585E+3
  -2.65033E+4  -4.05763E+3
  -2.63714E+4  -3.96447E+3
  -2.61756E+4  -3.97982E+3
  -2.59881E+4  -3.97764E+3
  -2.58594E+4  -3.94374E+3
  -2.56690E+4  -3.86411E+3
  -2.54848E+4  -3.80813E+3
  -2.53578E+4  -3.75776E+3
  -2.51795E+4  -3.70205E+3
  -2.50039E+4  -3.69457E+3
  -2.48328E+4  -3.63812E+3
  -2.48106E+4  -3.55789E+3
  -2.46115E+4  -3.60896E+3
  -2.43878E+4  -3.50521E+3
  -2.42677E+4  -3.42874E+3
  -2.40578E+4  -3.46159E+3
  -2.39527E+4  -3.39579E+3
  -2.38085E+4  -3.35104E+3
  -2.36542E+4  -3.34865E+3
  -2.34619E+4  -3.29194E+3
  -2.32620E+4  -3.23893E+3
  -2.31538E+4  -3.09450E+3
  -2.29433E+4  -3.04203E+3
  -2.27964E+4  -3.02370E+3
  -2.27082E+4  -3.03148E+3
  -2.24980E+4  -2.99493E+3
  -2.24051E+4  -2.90707E+3
  -2.22523E+4  -2.85625E+3
  -2.21451E+4  -2.82180E+3
  -2.19730E+4  -2.79128E+3
  -2.17824E+4  -2.81580E+3
  -2.16265E+4  -2.72551E+3
  -2.15208E+4  -2.64882E+3
  -2.14336E+4  -2.59140E+3
  -2.11609E+4  -2.60204E+3
  -2.09943E+4  -2.52859E+3
  -2.08614E+4  -2.40485E+3
  -2.08081E+4  -2.37391E+3
  -2.06409E+4  -2.38672E+3
  -2.04673E+4  -2.32404E+3
  -2.03566E+4  -2.32902E+3
  -2.01515E+4  -2.24199E+3
  -2.00809E+4  -2.22073E+3
  -1.99125E+4  -2.21852E+3
  -1.97781E+4  -2.20039E+3
  -1.96028E+4  -2.07514E+3
  -1.95487E+4  -2.07332E+3
  -1.94159E+4  -1.99056E+3
  -1.93127E+4  -2.01116E+3
  -1.91769E+4  -2.02666E+3
  -1.90622E+4  -1.89266E+3
  -1.89491E+4  -1.93748E+3
  -1.87875E+4  -1.93258E+3
  -1.87093E+4  -1.84403E+3
  -1.85870E+4  -1.81208E+3
  -1.84436E+4  -1.83065E+3
  -1.83711E+4  -1.80012E+3
  -1.82165E+4  -1.79237E+3
  -1.80934E+4  -1.77764E+3
  -1.79499E+4  -1.75245E+3
  -1.79014E+4  -1.68535E+3
  -1.77670E+4  -1.66211E+3
  -1.76497E+4  -1.70263E+3
  -1.75687E+4  -1.63040E+3
  -1.74764E+4  -1.62038E+3
  -1.73194E+4  -1.64608E+3
  -1.72907E+4  -1.59499E+3
  -1.71473E+4  -1.56827E+3
  -1.71442E+4  -1.58499E+3
  -1.69260E+4  -1.59664E+3
  -1.67966E+4  -1.58627E+3
  -1.67113E+4  -1.58204E+3
  -1.65663E+4  -1.47728E+3
  -1.65146E+4  -1.45033E+3
  -1.64569E+4  -1.47563E+3
  -1.62369E+4  -1.48606E+3
  -1.61704E+4  -1.44409E+3
  -1.60815E+4  -1.36528E+3
  -1.59742E+4  -1.47174E+3
  -1.59229E+4  -1.42397E+3
  -1.57946E+4  -1.35308E+3
  -1.57371E+4  -1.33754E+3
  -1.56008E+4  -1.37355E+3
  -1.55267E+4  -1.33064E+3
  -1.54512E+4  -1.35459E+3
  -1.53049E+4  -1.30353E+3
  -1.52580E+4  -1.27381E+3
  -1.51108E+4  -1.32687E+3
  -1.49974E+4  -1.27877E+3
  -1.49631E+4  -1.28649E+3
  -1.49166E+4  -1.21050E+3
  -1.47689E+4  -1.26557E+3
  -1.46806E+4  -1.25273E+3
  -1.46186E+4  -1.23036E+3
  -1.44563E+4  -1.19018E+3
  -1.44158E+4  -1.18423E+3
  -1.43054E+4  -1.12554E+3
  -1.42133E+4  -1.14673E+3
  -1.41983E+4  -1.24344E+3
  -1.40550E+4  -1.13387E+3
  -1.39631E+4  -1.18466E+3
  -1.38942E+4  -1.11839E+3
  -1.37697E+4  -1.10803E+3
  -1.37554E+4  -1.14951E+3
  -1.36194E+4  -1.09430E+3
  -1.35512E+4  -1.09949E+3
  -1.35397E+4  -1.11629E+3
  -1.34364E+4  -1.08741E+3
  -1.33693E+4  -9.98717E+2
  -1.32341E+4  -9.97990E+2
  -1.31946E+4  -1.07773E+3
  -1.30295E+4  -1.09554E+3
  -1.29703E+4  -1.04253E+3
  -1.29718E+4  -9.60368E+2
  -1.28877E+4  -1.04240E+3
  -1.27464E+4  -9.72233E+2
  -1.27047E+4  -1.03527E+3
  -1.26485E+4  -9.35712E+2
  -1.25672E+4  -9.57074E+2
  -1.25170E+4  -9.89865E+2
  -1.24181E+4  -9.38929E+2
  -1.22833E+4  -9.15148E+2
  -1.22327E+4  -9.18086E+2
  -1.21839E+4  -9.25028E+2
  -1.20445E+4  -9.11177E+2
  -1.19506E+4  -8.05440E+2
  -1.19738E+4  -8.81849E+2
  -1.19184E+4  -8.49183E+2
  -1.18243E+4  -8.61372E+2
  -1.16762E+4  -8.09267E+2
  -1.16146E+4  -7.82590E+2
  -1.15495E+4  -8.42613E+2
  -1.15151E+4  -7.73980E+2
  -1.13511E+4  -7.68133E+2
  -1.13352E+4  -7.76718E+2
  -1.13164E+4  -6.64200E+2
  -1.12765E+4  -7.78199E+2
  -1.11318E+4  -7.88403E+2
  -1.10309E+4  -7.35480E+2
  -1.10379E+4  -6.61778E+2
  -1.09999E+4  -6.64484E+2
  -1.09114E+4  -7.44575E+2
  -1.07787E+4  -6.51524E+2
  -1.07051E+4  -6.10500E+2
  -1.07327E+4  -6.30030E+2
  -1.05669E+4  -6.21952E+2
  -1.05666E+4  -6.26028E+2
  -1.04533E+4  -5.99723E+2
  -1.04284E+4  -5.37195E+2
  -1.03573E+4  -5.67643E+2
  -1.02995E+4  -5.68560E+2
  -1.02181E+4  -5.76137E+2
  -1.01356E+4  -5.38977E+2
  -1.00926E+4  -5.37860E+2
  -1.00161E+4  -5.09342E+2
  -9.95351E+3  -5.31349E+2
  -9.90534E+3  -5.58726E+2
  -9.80817E+3  -5.28489E+2
  -9.76715E+3  -4.60736E+2
  -9.79036E+3  -4.99921E+2
  -9.66862E+3  -4.84857E+2
  -9.57385E+3  -3.29599E+2
  -9.53367E+3  -4.49624E+2
  -9.47546E+3  -4.26684E+2
  -9.39981E+3  -4.54650E+2
  -9.33838E+3  -4.46693E+2
  -9.33777E+3  -3.34731E+2
  -9.20881E+3  -3.16532E+2
  -9.24285E+3  -3.79468E+2
  -9.13893E+3  -3.82530E+2
  -9.09707E+3  -3.46935E+2
  -9.04608E+3  -3.51628E+2
  -8.91579E+3  -3.33121E+2
  -8.85506E+3  -3.63144E+2
  -8.82680E+3  -2.76372E+2
  -8.70733E+3  -2.81607E+2
  -8.65445E+3  -2.78564E+2
  -8.68492E+3  -2.68466E+2
  -8.57000E+3  -2.46513E+2
  -8.47762E+3  -3.01617E+2
  -8.46047E+3  -2.48089E+2
  -8.46434E+3  -2.50867E+2
  -8.36069E+3  -2.52251E+2
  -8.29868E+3  -2.50670E+2
  -8.27475E+3  -2.44163E+2
  -8.30894E+3  -1.92826E+2
  -8.09902E+3  -2.47770E+2
  -8.07931E+3  -2.77885E+2
  -8.02560E+3  -2.21134E+2
  -8.01160E+3  -1.89876E+2
  -7.96407E+3  -2.04768E+2
  -7.82879E+3  -1.91701E+2
  -7.81712E+3  -2.07487E+2
  -7.74705E+3  -2.25461E+2
  -7.73939E+3  -1.61821E+2
  -7.67953E+3  -1.96147E+2
  -7.55850E+3  -1.49000E+2
  -7.56511E+3  -1.83964E+2
  -7.55272E+3  -1.22547E+2
  -7.50484E+3  -1.58354E+2
  -7.40776E+3  -2.08998E+2
  -7.37762E+3  -2.09455E+2
  -7.37935E+3  -2.26516E+2
  -7.23301E+3  -1.26834E+2
  -7.24170E+3  -1.71312E+2
  -7.14721E+3  -1.67294E+2
  -7.13195E+3  -1.77989E+2
  -7.08480E+3  -5.87959E+1
  -7.05627E+3  -1.26475E+2
  -6.98923E+3  -1.69808E+2
  -6.99170E+3  -1.20455E+2
  -6.88986E+3  -6.77775E+1
  -6.91512E+3  -1.25395E+2
  -6.82824E+3  -1.27051E+2
  -6.82976E+3  -1.58127E+2
  -6.69302E+3  -1.06503E+2
  -6.66769E+3  -6.51864E+1
  -6.63905E+3  -2.36813E+1
  -6.64856E+3  -7.83448E+1
  -6.58165E+3  -5.09783E+1
  -6.51922E+3   3.66912E+0
  -6.42004E+3  -1.02420E+2
  -6.44537E+3  -1.18011E+2
  -6.36541E+3  -6.53144E+1
  -6.38121E+3  -2.96733E+1
  -6.25929E+3  -3.26449E+1
  -6.24944E+3  -4.58732E+1
  -6.22900E+3  -6.78204E+1
  -6.17168E+3  -7.50479E+0
  -6.10384E+3   1.67072E+1
  -6.13350E+3  -5.94770E+1
  -6.09533E+3  -3.66105E+1
  -6.10851E+3   2.65049E+1
  -5.96046E+3  -1.03639E+1
  -6.00468E+3   1.57236E+1
