 
 $NMID
 ID=''
 FMTDAT='(2E13.5)'
 TRAMP=   1.00000E+0
 VOLUME=   1.00000E+0
 $END
  -1.13260E+4   2.43909E+3
  -3.00599E+4  -2.13869E+3
  -3.02731E+4   3.31954E+3
  -2.82984E+4   3.41635E+3
  -2.96287E+4   2.73227E+3
  -2.96764E+4   3.93500E+3
  -2.86722E+4   3.66088E+3
  -2.90880E+4   3.07462E+3
  -2.89916E+4   3.88671E+3
  -2.83676E+4   3.58806E+3
  -2.86030E+4   3.12593E+3
  -2.83718E+4   3.74425E+3
  -2.79082E+4   3.67633E+3
  -2.81073E+4   3.29211E+3
  -2.79223E+4   3.54034E+3
  -2.73704E+4   3.49051E+3
  -2.74001E+4   3.28868E+3
  -2.72110E+4   3.54688E+3
  -2.68608E+4   3.61588E+3
  -2.68744E+4   3.43401E+3
  -2.66722E+4   3.66548E+3
  -2.63555E+4   3.74420E+3
  -2.64752E+4   3.66810E+3
  -2.63032E+4   3.72118E+3
  -2.59356E+4   3.71532E+3
  -2.58906E+4   3.69345E+3
  -2.59349E+4   3.67116E+3
  -2.55511E+4   3.48708E+3
  -2.54276E+4   3.35881E+3
  -2.52575E+4   3.32456E+3
  -2.50126E+4   3.37581E+3
  -2.48543E+4   3.28743E+3
  -2.46401E+4   3.33133E+3
  -2.43765E+4   3.17611E+3
  -2.41807E+4   3.23355E+3
  -2.39402E+4   3.30714E+3
  -2.36038E+4   3.40095E+3
  -2.34765E+4   3.46988E+3
  -2.33538E+4   3.64765E+3
  -2.31556E+4   3.76945E+3
  -2.30651E+4   3.78589E+3
  -2.29939E+4   3.83956E+3
  -2.27045E+4   3.72761E+3
  -2.26296E+4   3.78054E+3
  -2.25797E+4   3.92328E+3
  -2.24262E+4   4.00501E+3
  -2.22623E+4   3.92767E+3
  -2.21300E+4   3.98651E+3
  -2.20585E+4   3.92965E+3
  -2.19789E+4   3.93569E+3
  -2.18400E+4   3.96626E+3
  -2.16356E+4   3.92219E+3
  -2.14182E+4   4.04204E+3
  -2.13665E+4   4.08060E+3
  -2.12803E+4   4.04581E+3
  -2.11437E+4   4.09762E+3
  -2.10078E+4   4.03998E+3
  -2.09459E+4   4.01992E+3
  -2.07460E+4   4.02464E+3
  -2.06340E+4   4.03821E+3
  -2.05041E+4   4.06221E+3
  -2.04383E+4   4.09186E+3
  -2.03361E+4   4.15588E+3
  -2.02924E+4   4.07314E+3
  -2.01868E+4   4.08796E+3
  -2.01226E+4   4.03108E+3
  -2.01183E+4   4.10308E+3
  -2.00985E+4   4.04972E+3
  -1.99341E+4   3.95481E+3
  -1.98570E+4   3.92209E+3
  -1.97642E+4   3.85874E+3
  -1.96766E+4   3.83197E+3
  -1.96242E+4   3.74284E+3
  -1.94385E+4   3.68018E+3
  -1.93472E+4   3.71705E+3
  -1.92228E+4   3.64340E+3
  -1.90743E+4   3.65076E+3
  -1.90026E+4   3.55787E+3
  -1.87957E+4   3.49416E+3
  -1.86640E+4   3.49631E+3
  -1.85173E+4   3.52069E+3
  -1.84652E+4   3.49048E+3
  -1.83012E+4   3.44425E+3
  -1.82240E+4   3.45790E+3
  -1.81014E+4   3.33465E+3
  -1.80500E+4   3.37050E+3
  -1.79562E+4   3.28508E+3
  -1.76883E+4   3.26569E+3
  -1.76622E+4   3.28880E+3
  -1.75075E+4   3.21300E+3
  -1.74510E+4   3.23220E+3
  -1.72640E+4   3.20767E+3
  -1.71975E+4   3.22970E+3
  -1.69904E+4   3.23458E+3
  -1.69365E+4   3.19406E+3
  -1.67517E+4   3.16471E+3
  -1.66107E+4   3.18222E+3
  -1.64761E+4   3.18713E+3
  -1.63721E+4   3.09721E+3
  -1.62665E+4   3.18313E+3
  -1.61535E+4   3.07886E+3
  -1.60030E+4   3.11991E+3
  -1.58772E+4   3.11168E+3
  -1.57883E+4   3.24111E+3
  -1.56667E+4   3.13538E+3
  -1.55235E+4   3.24072E+3
  -1.54134E+4   3.12517E+3
  -1.52544E+4   3.10559E+3
  -1.51797E+4   3.18807E+3
  -1.50560E+4   3.12613E+3
  -1.49518E+4   3.19183E+3
  -1.48048E+4   3.21479E+3
  -1.47205E+4   3.19689E+3
  -1.46702E+4   3.24420E+3
  -1.45154E+4   3.26324E+3
  -1.44330E+4   3.22369E+3
  -1.43570E+4   3.16176E+3
  -1.41834E+4   3.20818E+3
  -1.40848E+4   3.19390E+3
  -1.40092E+4   3.12826E+3
  -1.39202E+4   3.15557E+3
  -1.38288E+4   3.13416E+3
  -1.36515E+4   3.14208E+3
  -1.36063E+4   3.16815E+3
  -1.34498E+4   3.13597E+3
  -1.33695E+4   3.19586E+3
  -1.33142E+4   3.17409E+3
  -1.31382E+4   3.20773E+3
  -1.30907E+4   3.19366E+3
  -1.28965E+4   3.20902E+3
  -1.28500E+4   3.23913E+3
  -1.26562E+4   3.24411E+3
  -1.26229E+4   3.25162E+3
  -1.24786E+4   3.34046E+3
  -1.24353E+4   3.27421E+3
  -1.23078E+4   3.30684E+3
  -1.21885E+4   3.31247E+3
  -1.21284E+4   3.31794E+3
  -1.20081E+4   3.36002E+3
  -1.19002E+4   3.36031E+3
  -1.18351E+4   3.34458E+3
  -1.16988E+4   3.35363E+3
  -1.16684E+4   3.36475E+3
  -1.14406E+4   3.37598E+3
  -1.14314E+4   3.40303E+3
  -1.13393E+4   3.32575E+3
  -1.12151E+4   3.39913E+3
  -1.11724E+4   3.38104E+3
  -1.10414E+4   3.42558E+3
  -1.09385E+4   3.44325E+3
  -1.08512E+4   3.49906E+3
  -1.07380E+4   3.40890E+3
  -1.06438E+4   3.41891E+3
  -1.05586E+4   3.45090E+3
  -1.04443E+4   3.40427E+3
  -1.03012E+4   3.42837E+3
  -1.02197E+4   3.52477E+3
  -1.02274E+4   3.49537E+3
  -1.01701E+4   3.46839E+3
  -1.00433E+4   3.47702E+3
  -9.90957E+3   3.48946E+3
  -9.82502E+3   3.44666E+3
  -9.81242E+3   3.41771E+3
  -9.71861E+3   3.52568E+3
  -9.58730E+3   3.44750E+3
  -9.51836E+3   3.41078E+3
  -9.47993E+3   3.40620E+3
  -9.39255E+3   3.44513E+3
  -9.32616E+3   3.47941E+3
  -9.18600E+3   3.42773E+3
  -9.16392E+3   3.41906E+3
  -9.14922E+3   3.40157E+3
  -9.02528E+3   3.41606E+3
  -9.00134E+3   3.32412E+3
  -8.87714E+3   3.38203E+3
  -8.80278E+3   3.40667E+3
  -8.66578E+3   3.32435E+3
  -8.64249E+3   3.36012E+3
  -8.56719E+3   3.42292E+3
  -8.52045E+3   3.37416E+3
  -8.43186E+3   3.35801E+3
  -8.40154E+3   3.32255E+3
  -8.27240E+3   3.23821E+3
  -8.26298E+3   3.30799E+3
  -8.23474E+3   3.36537E+3
  -8.11692E+3   3.28428E+3
  -8.03806E+3   3.22146E+3
  -8.02438E+3   3.17567E+3
  -7.91872E+3   3.24354E+3
  -7.84399E+3   3.11625E+3
  -7.77234E+3   3.17683E+3
  -7.67437E+3   3.16165E+3
  -7.68676E+3   3.15137E+3
  -7.46917E+3   3.09426E+3
  -7.53137E+3   3.12817E+3
  -7.41436E+3   3.13948E+3
  -7.41757E+3   3.07220E+3
  -7.30404E+3   3.09816E+3
  -7.23625E+3   3.09833E+3
  -7.12460E+3   3.04098E+3
  -7.13552E+3   3.06436E+3
  -7.13564E+3   2.89103E+3
  -7.06233E+3   2.97063E+3
  -7.00397E+3   2.99431E+3
  -6.90815E+3   2.88049E+3
  -6.80520E+3   2.90894E+3
  -6.75904E+3   2.94337E+3
  -6.75040E+3   2.87583E+3
  -6.67781E+3   2.81060E+3
  -6.58751E+3   2.89831E+3
  -6.59520E+3   2.77270E+3
  -6.51292E+3   2.76253E+3
  -6.42324E+3   2.83520E+3
  -6.35135E+3   2.79086E+3
  -6.39882E+3   2.71974E+3
  -6.31764E+3   2.67537E+3
  -6.27972E+3   2.69694E+3
  -6.21212E+3   2.65121E+3
  -6.09847E+3   2.63965E+3
  -6.14499E+3   2.67076E+3
  -6.08353E+3   2.60348E+3
  -6.11148E+3   2.55482E+3
  -5.95014E+3   2.59208E+3
  -5.97740E+3   2.61227E+3
  -5.79814E+3   2.49928E+3
  -5.81771E+3   2.54912E+3
  -5.80276E+3   2.50843E+3
  -5.75099E+3   2.51200E+3
  -5.71766E+3   2.49914E+3
  -5.66343E+3   2.42977E+3
  -5.61131E+3   2.42530E+3
  -5.55233E+3   2.43271E+3
  -5.53241E+3   2.38116E+3
  -5.50105E+3   2.34641E+3
  -5.44743E+3   2.40827E+3
  -5.47223E+3   2.34931E+3
  -5.39873E+3   2.31558E+3
  -5.33389E+3   2.29661E+3
  -5.34962E+3   2.28400E+3
  -5.21616E+3   2.32859E+3
  -5.22471E+3   2.25683E+3
  -5.09349E+3   2.24303E+3
  -5.13609E+3   2.26764E+3
  -5.08431E+3   2.22776E+3
  -5.06430E+3   2.25701E+3
  -5.00448E+3   2.15666E+3
  -5.00997E+3   2.20646E+3
  -4.94352E+3   2.10010E+3
  -4.90791E+3   2.09447E+3
  -4.86553E+3   2.18784E+3
  -4.77202E+3   2.14349E+3
  -4.83352E+3   2.11349E+3
  -4.73515E+3   2.05577E+3
  -4.72026E+3   2.11421E+3
  -4.63561E+3   2.04559E+3
  -4.59744E+3   2.03184E+3
  -4.55940E+3   2.08912E+3
  -4.47909E+3   2.07216E+3
  -4.44931E+3   2.00831E+3
  -4.52271E+3   2.04860E+3
  -4.39382E+3   1.97834E+3
  -4.38219E+3   1.99202E+3
  -4.30002E+3   2.02625E+3
  -4.27510E+3   2.00702E+3
  -4.26306E+3   2.03445E+3
  -4.18915E+3   1.99681E+3
  -4.19735E+3   1.98205E+3
  -4.21879E+3   2.00340E+3
  -4.09707E+3   1.97303E+3
  -4.12326E+3   1.95886E+3
  -4.06275E+3   1.95438E+3
  -3.98810E+3   1.97397E+3
  -3.98839E+3   1.93178E+3
  -3.95002E+3   1.92219E+3
  -3.92530E+3   1.90946E+3
  -3.87768E+3   1.84804E+3
  -3.82897E+3   1.90669E+3
  -3.79217E+3   1.94537E+3
  -3.83293E+3   1.86231E+3
  -3.73103E+3   1.85936E+3
  -3.68802E+3   1.86667E+3
  -3.68101E+3   1.88526E+3
  -3.62444E+3   1.85612E+3
  -3.63514E+3   1.83527E+3
  -3.56287E+3   1.88973E+3
  -3.57529E+3   1.85498E+3
  -3.52402E+3   1.81039E+3
  -3.48475E+3   1.76095E+3
  -3.41097E+3   1.83102E+3
  -3.39411E+3   1.79898E+3
  -3.38439E+3   1.81899E+3
  -3.37663E+3   1.81150E+3
  -3.26776E+3   1.82532E+3
  -3.32730E+3   1.74798E+3
  -3.21997E+3   1.77594E+3
  -3.24135E+3   1.75218E+3
  -3.14423E+3   1.77547E+3
  -3.11530E+3   1.73318E+3
  -3.11446E+3   1.73728E+3
  -3.06580E+3   1.74875E+3
  -3.05619E+3   1.77116E+3
  -2.99124E+3   1.74139E+3
  -2.99668E+3   1.67795E+3
  -2.94539E+3   1.65160E+3
  -2.94502E+3   1.72497E+3
  -2.88517E+3   1.65908E+3
  -2.85411E+3   1.63916E+3
  -2.75889E+3   1.67482E+3
  -2.83206E+3   1.63899E+3
  -2.75116E+3   1.62714E+3
  -2.70036E+3   1.67304E+3
  -2.68583E+3   1.64913E+3
  -2.63010E+3   1.60850E+3
  -2.65274E+3   1.63324E+3
  -2.57364E+3   1.58981E+3
  -2.57168E+3   1.64353E+3
  -2.52551E+3   1.60915E+3
  -2.54375E+3   1.55661E+3
  -2.47489E+3   1.61427E+3
  -2.48324E+3   1.54371E+3
  -2.41247E+3   1.52338E+3
  -2.36697E+3   1.55875E+3
  -2.40479E+3   1.55626E+3
  -2.38232E+3   1.51721E+3
  -2.29968E+3   1.48639E+3
  -2.25133E+3   1.52214E+3
  -2.24276E+3   1.45606E+3
  -2.31011E+3   1.47626E+3
  -2.23963E+3   1.42968E+3
  -2.24360E+3   1.48917E+3
  -2.16725E+3   1.45668E+3
  -2.12041E+3   1.45774E+3
  -2.05589E+3   1.45463E+3
  -2.06111E+3   1.44503E+3
  -1.97312E+3   1.42771E+3
  -2.02519E+3   1.38256E+3
  -1.99450E+3   1.42761E+3
  -1.99993E+3   1.33860E+3
  -1.99065E+3   1.28573E+3
  -1.94942E+3   1.35129E+3
  -1.90845E+3   1.35075E+3
  -1.90800E+3   1.32260E+3
  -1.90215E+3   1.28897E+3
  -1.83392E+3   1.34058E+3
  -1.85652E+3   1.29892E+3
  -1.84158E+3   1.28747E+3
  -1.77511E+3   1.30456E+3
  -1.82578E+3   1.26986E+3
  -1.74373E+3   1.22303E+3
  -1.71856E+3   1.24896E+3
  -1.71781E+3   1.24234E+3
  -1.65995E+3   1.14580E+3
  -1.63784E+3   1.18064E+3
  -1.59853E+3   1.16714E+3
  -1.61941E+3   1.14872E+3
  -1.62529E+3   1.12254E+3
  -1.63306E+3   1.11709E+3
  -1.59089E+3   1.11680E+3
  -1.54322E+3   1.14850E+3
  -1.52540E+3   1.09596E+3
  -1.49101E+3   1.08264E+3
  -1.48611E+3   1.08790E+3
  -1.46987E+3   1.09336E+3
  -1.41876E+3   1.09606E+3
  -1.39662E+3   1.02562E+3
  -1.40076E+3   1.02177E+3
  -1.41279E+3   1.05271E+3
