 
 $NMID
 ID=''
 FMTDAT='(2E13.5)'
 TRAMP=   1.00000E+0
 VOLUME=   1.00000E+0
 $END
   3.87701E+2  -4.71978E+2
   1.56142E+3   5.73641E+2
  -1.00443E+3  -3.82508E+3
  -1.05145E+3  -1.15928E+3
  -3.01595E+3  -9.12459E+2
  -1.49057E+3  -3.34490E+2
  -1.41337E+3   2.27799E+3
  -1.21571E+3   2.54595E+3
  -1.45513E+3   1.45159E+3
  -1.89044E+3   2.82374E+3
   1.32687E+3  -2.22604E+2
   3.37908E+3  -3.89260E+3
   3.50881E+3   5.07857E+2
   1.49965E+3   4.05130E+3
  -1.66330E+3   2.18056E+2
  -2.02430E+3  -3.72520E+3
   2.51421E+2  -1.61471E+3
   1.44771E+3   5.48642E+2
   1.48960E+3   7.10091E+2
  -1.61397E+3  -3.30275E+3
   1.34514E+3  -5.27403E+3
   3.24203E+3   1.47608E+3
   1.18388E+3   4.43106E+3
  -4.30394E+3  -9.41952E+2
  -1.99584E+3  -3.81687E+3
   1.95587E+3  -2.20776E+3
   2.87789E+3   1.67193E+2
  -1.01152E+3  -1.35680E+0
  -4.85758E+3  -6.25545E+2
   7.36816E+1  -4.92700E+3
   5.13104E+3  -2.43997E+3
   3.70263E+3   3.51501E+3
  -3.20720E+3   1.39079E+3
  -2.10326E+3   4.33413E+2
  -1.20551E+3  -3.57686E+0
  -4.80926E+3   1.10518E+3
  -3.88945E+3  -2.87677E+3
   1.45327E+3  -2.12958E+3
   8.96993E+2   1.12291E+3
  -2.26868E+2   1.08781E+3
   5.39363E+3   2.70758E+3
  -1.61387E+3   5.33978E+3
  -3.63313E+3   2.51210E+3
  -3.56259E+3  -3.02365E+3
   1.06340E+3  -1.49082E+3
   6.33183E+2   4.48662E+1
  -4.63336E+1  -7.68573E+2
   1.99966E+3   9.58061E+2
  -3.76291E+2   2.82594E+3
  -6.01515E+2   1.58200E+3
  -4.00361E+3   2.40565E+3
  -1.78846E+3  -1.06173E+3
  -1.84352E+3  -2.67799E+3
   1.32180E+3  -9.70276E+2
   1.91514E+3   1.81727E+2
   3.43558E+3  -4.91497E+2
   3.05705E+3   1.59327E+3
  -4.88283E+1   4.59627E+3
  -2.93041E+3   3.75907E+3
  -2.92576E+3  -9.36783E+2
  -8.14761E+2  -1.78687E+3
  -6.97132E+1  -4.14780E+3
   1.50368E+3  -1.32121E+3
   8.66085E+2  -8.99593E+2
   1.01957E+3  -7.55005E+2
   4.05932E+2  -2.62736E+3
   5.03594E+3   1.87499E+3
   2.76122E+2   1.77057E+3
   1.13536E+3   6.13068E+2
   2.77492E+3   1.70460E+2
   1.41912E+3   3.29043E+3
   1.28019E+3   1.64872E+2
   1.35730E+3   2.59325E+3
  -5.73523E+2   2.89043E+2
  -4.82842E+2  -1.46517E+3
  -1.18412E+3   1.46655E+3
   4.66590E+2   1.84222E+1
   1.35188E+3  -1.52137E+3
  -2.46839E+2  -6.51111E+2
   2.52922E+2   5.80095E+2
   1.00816E+3  -6.12504E+2
   7.34905E+2  -6.51497E+2
   1.80523E+3  -1.08680E+3
   7.22114E+2   1.43711E+3
   8.42906E+2   9.16267E+2
  -1.96065E+3   1.42887E+3
  -2.22121E+3  -9.16162E+2
  -8.91759E+2  -1.49804E+3
  -5.29136E+2  -1.65457E+3
  -3.94287E+2  -1.66972E+3
   2.64337E+3  -1.86752E+3
   4.11416E+2  -2.53176E+3
   1.74347E+3   7.17202E+2
   2.43243E+3  -1.71371E+2
  -1.87044E+2   1.57511E+3
   9.49725E+1   2.13125E+3
   3.12865E+2  -2.66235E+3
   1.16309E+3   5.93113E+2
  -1.37321E+2   2.00011E+3
  -2.38693E+3   1.12583E+3
  -1.92282E+3   8.60549E+2
  -1.01582E+3  -1.53996E+3
  -7.99497E+2  -1.28402E+3
   2.00413E+2   2.05735E+3
   4.80795E+2   2.31989E+2
  -3.21222E+3  -9.94213E+2
   3.49057E+2  -5.60602E+2
  -9.73685E+1  -2.29236E+3
  -2.22335E+2   1.29032E+3
  -1.61771E+3  -7.33622E+1
  -1.72971E+3  -1.09884E+3
   5.64399E+2   9.44011E+1
   9.64912E+2  -3.93237E+2
   4.49175E+1  -9.40070E+2
   1.44233E+3   2.52914E+2
  -1.14634E+3  -1.67176E+3
   1.48522E+3  -4.22295E+2
  -1.25604E+2  -2.27053E+3
  -9.67537E+2  -1.24982E+3
  -8.85408E+2   5.97876E+2
  -1.54156E+3  -1.80616E+2
  -1.03650E+3   1.38466E+3
   1.30688E+3   5.87048E+1
  -2.09706E+3   1.45654E+3
   1.43850E+3   7.51969E+2
  -1.53497E+3  -2.21966E+3
  -7.95286E+2  -6.69567E+2
   2.38112E+2   2.06287E+3
  -6.07100E+2  -7.44177E+2
  -7.31037E+2   7.77564E+1
   2.34031E+3   5.28631E+2
   2.16115E+2   9.13530E+2
  -1.84895E+3  -1.15690E+3
  -3.72365E+2  -1.47738E+3
   1.23772E+3   1.81276E+2
   1.52333E+3   1.46387E+3
   2.36486E+3   1.13712E+3
  -1.77671E+3   2.00570E+1
   8.08282E+2   1.45545E+3
  -1.15202E+3   3.06166E+2
   7.13774E+2   1.41733E+3
  -1.58829E+3   4.93393E+2
  -1.70217E+3   1.52703E+3
   6.88506E+2  -1.04449E+3
   1.80007E+3   4.33108E+2
  -1.05063E+3   7.01132E+2
  -2.81747E+2  -3.68048E+2
   4.62857E+2   1.66451E+3
  -2.26587E+3   1.11097E+3
   5.36159E+2   1.20383E+3
   2.51005E+3   1.55320E+3
   4.50555E+2   9.19126E+2
   7.65864E+2   9.06699E+2
   3.04076E+2   6.33526E+1
   1.96953E+2   3.69233E+2
  -8.79396E+2  -4.92686E+2
   1.07868E+3  -7.34385E+2
  -8.15537E+2   9.91628E+1
  -5.81470E+2  -1.02826E+2
   5.03073E+2  -1.29158E+3
   1.33883E+3   1.65931E+3
  -2.30882E+2   1.55507E+3
  -1.54628E+3  -2.35310E+2
   1.25114E+3  -1.07984E+3
  -3.35732E+2   1.32926E+3
  -4.49804E+2   4.12235E+2
   1.80875E+3   2.23939E+3
  -5.11929E+2  -1.97431E+3
  -1.64540E+3   1.60115E+3
  -6.13986E+2   1.71794E+3
   1.60535E+2  -2.85974E+2
  -1.82341E+3  -5.44992E+0
   7.84600E+2   1.71454E+3
  -3.73629E+2   5.49350E+2
  -3.35432E+2  -2.14379E+2
   8.71935E+2  -1.12240E+2
  -1.89498E+3   1.33062E+3
   8.13483E+2   3.66696E+2
   1.70268E+3   4.55128E+1
  -6.77846E+2  -3.17711E+1
  -1.41322E+1   2.56016E+3
  -3.92984E+2  -4.66484E+2
  -8.65338E+2   8.67925E+2
  -1.24215E+3  -1.30355E+3
  -5.95414E+2   1.33825E+2
  -1.15652E+3  -1.63565E+3
   1.04438E+3  -1.53564E+3
  -1.89721E+3  -9.24193E+2
  -1.24631E+3   6.47673E+2
  -4.95992E+2  -1.96811E+3
   2.27930E+2   4.96534E+2
  -1.25879E+3  -1.29251E+2
   1.95669E+3  -8.47540E+2
  -2.51175E+2   5.28930E+2
   1.35931E+3   1.29884E+3
  -1.07152E+3  -5.35081E+2
   5.95527E+1   9.81747E+2
  -1.10853E+3  -2.50346E+3
   1.95794E+1  -2.43069E+2
  -8.18282E+2   7.13140E+1
  -4.97808E+1   6.28021E+2
  -2.90464E+2   8.88629E+2
   3.75527E+2  -7.05333E+2
   2.47811E+3   7.68623E+2
   5.96096E+2  -6.40331E+2
  -8.23355E+1  -4.91702E+2
  -2.19756E+2  -5.15593E+2
  -6.77323E+1  -3.48985E+2
  -3.79803E+2   1.50189E+3
   7.67557E+2  -4.59605E+2
  -1.66686E+3   1.42251E+3
   3.82892E+2  -1.19104E+3
  -3.25006E+2   2.36208E+3
  -2.92006E+2  -8.29205E+2
   5.30065E+2  -1.38758E+3
  -1.28771E+3  -1.71619E+3
   1.56158E+3   1.01874E+3
  -1.19089E+3   1.34170E+3
   1.75726E+3   1.33914E+3
   8.98874E+1   1.50009E+3
  -1.28516E+2   5.91240E+2
   3.87208E+2  -9.61716E+2
  -8.18350E+2  -8.81450E+2
  -6.69507E+1   3.74840E+1
   7.18249E+2   1.00625E+3
   9.62503E+2   2.55679E+3
   1.74968E+3  -9.95186E+2
  -8.72997E+2   3.57832E+2
   9.60569E+2  -1.68722E+3
  -6.70776E+2   1.18780E+3
  -1.26701E+2  -1.33409E+2
   4.08503E+1  -2.30136E+2
  -3.48469E+2  -1.94655E+2
  -8.51161E+2  -1.48692E+3
   5.46946E+2   3.56321E+2
   1.31578E+2   2.33639E+1
   9.23364E+1  -5.76411E+2
  -1.71917E+3  -3.26725E+3
   8.26159E+1   2.25627E+3
  -7.46290E+2  -5.26590E+2
  -3.66544E+2  -3.19628E+2
  -1.78321E+2  -1.07740E+3
   9.16902E+2  -1.07633E+3
  -1.28258E+3   9.92975E+2
  -1.45177E+3   2.79550E+2
   5.21670E+1  -4.30463E+2
   7.58311E+2  -2.85150E+2
   7.70421E+2  -9.47667E+2
   1.69335E+3  -9.40153E+2
   3.75258E+2   7.01736E+2
  -7.93483E+2  -9.95180E+0
   5.98989E+2   1.46196E+1
   1.07141E+3   1.17506E+3
   1.16568E+3   4.70106E+2
  -1.55885E+3  -9.48800E+2
  -9.77733E+2   3.31262E+2
  -1.11621E+3  -6.75841E+2
  -9.24966E+2   1.32030E+3
  -3.96360E+2  -2.00886E+2
  -9.69294E+2   1.56760E+2
  -1.50919E+3   1.12458E+3
   1.27531E+2  -6.03422E+2
  -5.14761E+2  -2.34447E+3
  -5.82739E+2  -6.44584E+2
  -1.35456E+3  -9.07780E+2
   2.09192E+2   1.16662E+3
  -1.10615E+3   3.39567E+2
  -1.85109E+3  -1.44423E+3
  -2.62120E+1  -1.37236E+3
  -4.98936E+2  -5.77871E+2
  -1.52628E+0   4.09583E+2
  -6.71143E+1   3.10389E+2
  -4.83075E+1   6.06183E+2
  -6.06012E+2   3.03778E+2
   1.80731E+3   1.86974E+3
   1.52145E+3   3.47232E+2
  -5.40044E+2  -1.62235E+3
   5.68878E+2   4.76661E+2
  -1.69412E+3   3.03735E+1
   6.75462E+2  -1.49412E+3
   8.15857E+2  -7.76278E+2
   1.50448E+3   4.59197E+2
   7.27665E+2  -2.91876E+2
  -2.01175E+2  -1.83445E+3
   6.52076E+2   9.99417E+2
  -3.50654E+2  -2.95172E+3
  -1.11876E+2  -1.51527E+2
   9.16272E+2  -1.91736E+3
  -1.05158E+3   1.31721E+3
   9.94134E+1   4.62393E+2
   3.60340E+2  -1.27994E+3
  -3.69954E+1   1.16092E+3
  -8.32496E+1   2.25361E+3
   1.57935E+2  -2.43376E+3
  -1.32802E+3   8.08300E+2
  -2.04741E+3  -8.27686E+2
  -5.86674E+2  -1.54247E+3
   3.15373E+2  -9.49864E+2
  -2.01545E+3  -6.39861E+1
  -3.52405E+2  -1.45028E+3
  -4.09631E+2   1.38094E+3
   6.89804E+2   8.94008E+2
   4.52730E+2   1.15307E+3
  -1.40874E+3   1.29326E+3
  -8.46399E+2   1.23572E+2
   7.09178E+2  -3.69917E+2
  -1.41860E+3  -1.01112E+3
   9.94877E+2   1.74044E+3
   7.77948E+2   2.68554E+2
   1.82084E+1  -8.27932E+2
  -1.32552E+3   7.89729E+2
   4.99814E+2  -2.99301E+2
  -3.97265E+1   3.35956E+2
  -3.67189E+2  -2.16730E+3
   3.87689E+1   2.49719E+3
   1.00725E+3  -2.35910E+3
   4.11677E+2  -2.20091E+2
  -9.28897E+2   1.50513E+3
   2.67125E+3  -6.77051E+2
   1.14779E+3   1.86542E+3
  -7.06365E+2  -1.22491E+3
  -2.17570E+3   1.84497E+3
  -1.94395E+3   6.86358E+2
   2.27365E+2  -2.37451E+2
  -1.23847E+3   1.03268E+3
  -2.34328E+2   1.78400E+3
   7.36987E+2   1.88966E+3
  -4.04929E+2  -1.42780E+3
   1.40763E+3  -1.22749E+3
   9.85502E+2  -2.89738E+3
  -1.74083E+3   8.69029E+2
  -1.80175E+2   9.49425E+2
   1.07896E+3   5.89886E+2
   1.01213E+3  -6.04113E+2
  -4.55524E+2  -2.07013E+2
  -1.27247E+3  -1.20924E+2
   7.49589E+1   7.72294E+2
  -2.71683E+2   1.40498E+3
   3.44907E+2  -5.54194E+2
   6.11730E+2  -4.88393E+2
   1.12086E+3  -1.07270E+1
  -5.15782E+2  -8.07738E+2
  -6.29955E+2   1.50280E+3
   5.14974E+2  -2.96659E+2
  -9.91029E+2  -6.13850E+2
   7.10304E+1   9.30808E+2
  -1.74494E+3  -8.52843E+2
  -5.37872E+1   1.06810E+2
   1.54306E+3   3.86585E+2
  -3.59048E+2   5.80393E+2
   3.01854E+1   1.80815E+3
   4.60678E+2  -1.03464E+3
  -1.06000E+2   1.61738E+2
   8.72053E+2   3.99046E+2
   3.11618E+0  -1.62868E+3
   9.58688E+2   4.63706E+2
   8.29618E+2  -7.85949E+2
  -7.41920E+2   9.33221E+2
  -1.15302E+3   1.39210E+3
  -8.15571E+2   5.05273E+2
  -9.68568E+2  -4.48558E+2
   8.70701E+2   4.12650E+2
  -8.42125E+2  -1.63212E+3
   1.39779E+3  -1.07916E+3
   4.08984E+1  -2.57789E+0
   2.86197E+2   9.02134E+2
  -1.18625E+3   9.23049E+2
