 LCModel (Version 6.3-1N) Copyright: S.W. Provencher.          Ref.: Magn. Reson. Med. 30:672-679 (1993).                
 Slice_N1@15_21  02-Jun-2023 14:37:12
 27 lines in following concentration table = NCONC+1
    Conc.  %SD /Cr+PCr  Metabolite                                         
 2.55E-06  13% 3.8E-04 Mac                                                 
 3.52E-02  22%   5.258 Cr                                                  
 1.84E-02  41%   2.742 PCr                                                 
 7.87E-02  10%  11.745 Ins                                                 
 9.09E-02   7%  13.573 NAA                                                 
 6.71E-02  11%  10.021 Tau                                                 
 9.80E-03  25%   1.462 PCho                                                
    0.000 999%   0.000 GPC                                                 
 4.60E-02  19%   6.861 Glu                                                 
 2.65E-02  26%   3.951 Gln                                                 
    0.000 999%   0.000 Ala                                                 
    0.000 999%   0.000 Asc                                                 
    0.000 999%   0.000 Asp                                                 
 3.61E-03 102%   0.539 GABA                                                
 5.21E-03  87%   0.778 Glc                                                 
 2.02E-02  20%   3.008 GSH                                                 
    0.000 999%   0.000 Lac                                                 
 9.26E-03  50%   1.382 NAAG                                                
 1.05E-03 915%   0.157 PE                                                  
 9.80E-03  25%   1.462 GPC+PCho                                            
    0.100   7%  14.955 NAA+NAAG                                            
 7.24E-02  15%  10.811 Glu+Gln                                             
 5.36E-02  10%   8.000 Cr+PCr                                              
    0.100   7%  14.955 NAA+NAAG                                            
 5.36E-02  10%   8.000 Cr+PCr                                              
 7.24E-02  15%  10.811 Glu+Gln                                             
   6 lines in following misc. output table
  FWHM = 0.023 ppm    S/N =   5                                            
  Data shift = 0.006 ppm                                                   
  Ph: -13 deg     -13.0 deg/ppm                                            
  alphaB,S = 3.1E+01,   8.1E+00                                            
   18 spline knots.   Ns = 5(1)                                            
   2 inflections.     1 extrema                                            
  654 points on ppm-axis = NY
      4.000000     3.994181     3.988363     3.982544     3.976726     3.970907     3.965088     3.959270     3.953451     3.947633
      3.941814     3.935995     3.930177     3.924358     3.918540     3.912721     3.906902     3.901084     3.895265     3.889446
      3.883628     3.877809     3.871991     3.866172     3.860353     3.854535     3.848716     3.842898     3.837079     3.831260
      3.825442     3.819623     3.813805     3.807986     3.802167     3.796349     3.790530     3.784712     3.778893     3.773074
      3.767256     3.761437     3.755619     3.749800     3.743981     3.738163     3.732344     3.726526     3.720707     3.714888
      3.709070     3.703251     3.697433     3.691614     3.685795     3.679977     3.674158     3.668339     3.662521     3.656702
      3.650884     3.645065     3.639246     3.633428     3.627609     3.621791     3.615972     3.610153     3.604335     3.598516
      3.592698     3.586879     3.581060     3.575242     3.569423     3.563605     3.557786     3.551967     3.546149     3.540330
      3.534512     3.528693     3.522874     3.517056     3.511237     3.505419     3.499600     3.493781     3.487963     3.482144
      3.476326     3.470507     3.464688     3.458870     3.453051     3.447232     3.441414     3.435595     3.429777     3.423958
      3.418139     3.412321     3.406502     3.400684     3.394865     3.389046     3.383228     3.377409     3.371591     3.365772
      3.359953     3.354135     3.348316     3.342498     3.336679     3.330860     3.325042     3.319223     3.313405     3.307586
      3.301767     3.295949     3.290130     3.284312     3.278493     3.272674     3.266856     3.261037     3.255219     3.249400
      3.243581     3.237763     3.231944     3.226125     3.220307     3.214488     3.208670     3.202851     3.197032     3.191214
      3.185395     3.179577     3.173758     3.167939     3.162121     3.156302     3.150484     3.144665     3.138846     3.133028
      3.127209     3.121391     3.115572     3.109753     3.103935     3.098116     3.092298     3.086479     3.080660     3.074842
      3.069023     3.063205     3.057386     3.051567     3.045749     3.039930     3.034111     3.028293     3.022474     3.016656
      3.010837     3.005018     2.999200     2.993381     2.987563     2.981744     2.975925     2.970107     2.964288     2.958470
      2.952651     2.946832     2.941014     2.935195     2.929377     2.923558     2.917739     2.911921     2.906102     2.900284
      2.894465     2.888646     2.882828     2.877009     2.871191     2.865372     2.859553     2.853735     2.847916     2.842098
      2.836279     2.830460     2.824642     2.818823     2.813004     2.807186     2.801367     2.795549     2.789730     2.783911
      2.778093     2.772274     2.766456     2.760637     2.754818     2.749000     2.743181     2.737363     2.731544     2.725725
      2.719907     2.714088     2.708270     2.702451     2.696632     2.690814     2.684995     2.679177     2.673358     2.667539
      2.661721     2.655902     2.650084     2.644265     2.638446     2.632628     2.626809     2.620991     2.615172     2.609353
      2.603535     2.597716     2.591897     2.586079     2.580260     2.574442     2.568623     2.562804     2.556986     2.551167
      2.545349     2.539530     2.533711     2.527893     2.522074     2.516256     2.510437     2.504618     2.498800     2.492981
      2.487163     2.481344     2.475525     2.469707     2.463888     2.458070     2.452251     2.446432     2.440614     2.434795
      2.428977     2.423158     2.417339     2.411521     2.405702     2.399884     2.394065     2.388246     2.382428     2.376609
      2.370790     2.364972     2.359153     2.353335     2.347516     2.341697     2.335879     2.330060     2.324242     2.318423
      2.312604     2.306786     2.300967     2.295149     2.289330     2.283511     2.277693     2.271874     2.266056     2.260237
      2.254418     2.248600     2.242781     2.236963     2.231144     2.225325     2.219507     2.213688     2.207870     2.202051
      2.196232     2.190414     2.184595     2.178777     2.172958     2.167139     2.161321     2.155502     2.149683     2.143865
      2.138046     2.132228     2.126409     2.120590     2.114772     2.108953     2.103135     2.097316     2.091497     2.085679
      2.079860     2.074042     2.068223     2.062404     2.056586     2.050767     2.044949     2.039130     2.033311     2.027493
      2.021674     2.015856     2.010037     2.004218     1.998400     1.992581     1.986763     1.980944     1.975126     1.969307
      1.963489     1.957670     1.951852     1.946033     1.940215     1.934397     1.928578     1.922760     1.916941     1.911123
      1.905304     1.899486     1.893667     1.887849     1.882030     1.876212     1.870393     1.864575     1.858756     1.852938
      1.847119     1.841301     1.835482     1.829664     1.823845     1.818027     1.812208     1.806390     1.800571     1.794753
      1.788934     1.783116     1.777297     1.771479     1.765660     1.759842     1.754023     1.748205     1.742386     1.736568
      1.730749     1.724931     1.719113     1.713294     1.707476     1.701657     1.695839     1.690020     1.684202     1.678383
      1.672565     1.666746     1.660928     1.655109     1.649291     1.643472     1.637654     1.631835     1.626017     1.620198
      1.614380     1.608561     1.602743     1.596924     1.591106     1.585287     1.579469     1.573650     1.567832     1.562013
      1.556195     1.550376     1.544558     1.538739     1.532921     1.527102     1.521284     1.515465     1.509647     1.503829
      1.498010     1.492192     1.486373     1.480555     1.474736     1.468918     1.463099     1.457281     1.451462     1.445644
      1.439825     1.434007     1.428188     1.422370     1.416551     1.410733     1.404914     1.399096     1.393277     1.387459
      1.381640     1.375822     1.370003     1.364185     1.358366     1.352548     1.346729     1.340911     1.335092     1.329274
      1.323455     1.317637     1.311818     1.306000     1.300182     1.294363     1.288545     1.282726     1.276908     1.271089
      1.265271     1.259452     1.253634     1.247815     1.241997     1.236178     1.230360     1.224541     1.218723     1.212904
      1.207086     1.201267     1.195449     1.189630     1.183812     1.177993     1.172175     1.166356     1.160538     1.154719
      1.148901     1.143082     1.137264     1.131445     1.125627     1.119808     1.113990     1.108171     1.102353     1.096534
      1.090716     1.084898     1.079079     1.073261     1.067442     1.061624     1.055805     1.049987     1.044168     1.038350
      1.032531     1.026713     1.020894     1.015076     1.009257     1.003439     0.997620     0.991802     0.985983     0.980165
      0.974346     0.968528     0.962709     0.956891     0.951072     0.945254     0.939435     0.933617     0.927798     0.921980
      0.916161     0.910343     0.904524     0.898706     0.892887     0.887069     0.881251     0.875432     0.869614     0.863795
      0.857977     0.852158     0.846340     0.840521     0.834703     0.828884     0.823066     0.817247     0.811429     0.805610
      0.799792     0.793973     0.788155     0.782336     0.776518     0.770699     0.764881     0.759062     0.753244     0.747425
      0.741607     0.735788     0.729970     0.724151     0.718333     0.712514     0.706696     0.700877     0.695059     0.689240
      0.683422     0.677603     0.671785     0.665967     0.660148     0.654330     0.648511     0.642693     0.636874     0.631056
      0.625237     0.619419     0.613600     0.607782     0.601963     0.596145     0.590326     0.584508     0.578689     0.572871
      0.567052     0.561234     0.555415     0.549597     0.543778     0.537960     0.532141     0.526323     0.520504     0.514686
      0.508867     0.503049     0.497230     0.491412     0.485593     0.479775     0.473956     0.468138     0.462319     0.456501
      0.450682     0.444864     0.439045     0.433227     0.427408     0.421590     0.415771     0.409953     0.404134     0.398316
      0.392497     0.386679     0.380860     0.375042     0.369223     0.363405     0.357586     0.351767     0.345949     0.340130
      0.334312     0.328493     0.322675     0.316856     0.311038     0.305219     0.299401     0.293582     0.287764     0.281945
      0.276127     0.270308     0.264490     0.258671     0.252853     0.247034     0.241216     0.235397     0.229579     0.223760
      0.217942     0.212123     0.206305     0.200486
 NY phased data points follow
  -1.38254E-01  2.28472E-02 -7.32342E-02  8.61698E-02 -4.78965E-02  3.18845E-01  1.02441E-01 -2.40960E-01 -6.11320E-02  1.47749E-01
  -5.82879E-01  1.55611E-01  5.44860E-01  3.69293E-01  4.71337E-01  8.79129E-02  7.79907E-01  7.39236E-02 -1.44029E-01  8.89368E-03
  -2.04890E-01 -2.15499E-01 -9.01339E-02  2.50585E-02  1.82629E-02  5.33592E-02 -6.88264E-02 -4.81361E-02  5.13577E-02  2.74259E-01
  -2.58819E-01 -2.95387E-01 -2.02689E-01 -2.09550E-01 -2.04543E-01 -2.16257E-01 -4.01753E-01 -4.65078E-01 -2.04578E-01  1.37379E-01
   4.64238E-01  2.66079E-01  4.33288E-01  1.84867E-01  3.33941E-01  4.41724E-01  2.76080E-01  3.05256E-01  2.57193E-01  6.20090E-02
  -3.11520E-01 -3.93929E-02  2.03400E-01 -9.69676E-02 -8.02120E-02  5.82932E-02 -2.34825E-01 -8.28319E-04 -4.01657E-01 -4.97605E-01
  -3.51103E-01 -4.78317E-01 -2.42015E-01  2.33428E-03 -9.19461E-02 -5.45701E-01  1.97502E-01  2.29562E-01 -6.52039E-03  3.59668E-01
   2.78913E-01  3.34770E-01  4.37904E-01  2.58270E-01  6.24253E-02 -5.98279E-02 -8.26438E-02 -2.81793E-01 -4.92439E-01 -1.66611E-01
  -3.51364E-01 -3.60497E-01 -9.68711E-02  7.97829E-02  1.77241E-01  2.79796E-01  4.48980E-01  1.56393E-01 -1.48749E-03  2.36786E-01
   2.06289E-01  4.01715E-02  5.88320E-01  4.85757E-01  1.66721E-01  3.03983E-01  1.71005E-02 -9.01284E-02 -1.53151E-02 -1.40356E-01
  -5.18442E-01 -4.30682E-01 -1.13307E-01 -1.36179E-01  3.10770E-01  5.74991E-01  4.02343E-01  4.26136E-01  1.36885E-01  3.26531E-01
   5.57561E-01  1.32695E-01  4.45076E-01  3.91843E-01  3.47498E-03  2.78564E-01  2.63621E-01  4.42897E-01  3.44202E-01  1.23981E-01
   3.20089E-01  3.24786E-01  1.98514E-01  1.87324E-01  4.73205E-02 -1.98172E-01 -3.71629E-01 -6.91691E-01 -5.39901E-01 -7.90165E-01
  -7.29622E-01 -6.17291E-01 -6.55036E-01 -4.66366E-01 -5.39240E-01 -3.69376E-01 -7.02976E-01 -4.61065E-01 -3.34346E-01 -3.85510E-01
  -3.63759E-01 -1.20943E-01 -1.09275E-01 -2.47820E-01 -1.47853E-01 -5.11729E-01 -1.57210E-01 -2.62742E-01  2.52142E-01  2.67625E-01
  -1.84134E-01  3.11123E-01  2.67000E-01  8.33410E-02  2.55769E-01  6.44094E-01  1.68934E-01  1.42514E-01  4.70827E-01  6.72922E-01
   6.19921E-01  2.61235E-01  3.05599E-01  5.97189E-01  7.45706E-01  5.64134E-01  6.51326E-01 -4.18549E-03 -5.34393E-01 -8.26231E-01
  -1.10535E+00 -6.25067E-01 -5.20858E-01 -5.16782E-01 -3.87056E-01 -8.14751E-02 -6.04360E-02 -6.72695E-02  6.11125E-02 -1.88411E-01
  -1.94348E-01 -3.82661E-01 -1.81664E-01 -8.07792E-02 -2.89484E-01 -3.80465E-02 -1.74122E-01 -4.01700E-01 -1.97707E-01 -2.82902E-01
  -5.94076E-01 -2.20139E-01 -5.98212E-02 -1.11362E-01 -4.74438E-01 -5.80904E-01 -1.18298E-01  1.27468E-02 -1.78052E-01 -4.98529E-01
  -1.23411E-01 -1.58677E-01 -1.03054E-01 -2.29032E-02 -4.69317E-02  1.12523E-01 -1.11099E-01 -2.54389E-02 -2.59379E-01 -1.56474E-01
   2.38187E-01  1.59087E-01 -3.40859E-01 -4.55532E-01  1.47066E-01  1.22564E-01 -1.11025E-01  2.36301E-01  1.32642E-01 -3.06728E-02
   1.30186E-01  5.75017E-02  2.59207E-01  1.83188E-01  4.10666E-01  3.75424E-01 -2.69582E-01 -6.72419E-03  2.13999E-01  8.61300E-02
   4.52804E-01  5.93642E-01  1.58141E-01  1.44154E-01 -3.07877E-01 -4.39233E-01  9.90232E-02 -1.06967E-01 -3.97113E-01 -3.19353E-01
   1.27070E-01  1.77325E-01 -1.25973E-02 -3.08960E-01 -6.67403E-02 -9.31164E-02 -3.27468E-01  1.00241E-01 -2.11808E-01  1.24638E-01
   1.32742E-01  9.02283E-02  2.68107E-01  1.11453E-01  3.64384E-01  1.32620E-02 -2.83545E-01 -5.04988E-02  5.96773E-01  1.74593E-01
   2.64215E-02  3.88916E-01  1.07549E-01  1.19204E-01  1.21676E-01  3.56351E-01  3.51575E-01  2.22896E-01  1.96676E-01  2.28955E-01
   5.92479E-02  2.09968E-01  3.79402E-01  7.26420E-02  3.48177E-02 -1.43572E-01 -1.78941E-01 -1.66653E-01 -7.20424E-02  2.18430E-03
   1.36057E-02  1.29918E-01 -1.92936E-01  6.87902E-02  3.76527E-01  6.52197E-02  2.44721E-01  3.87410E-01  4.66673E-01  3.13740E-01
   1.99529E-01  3.88844E-01  4.20789E-01  3.14570E-01  4.85260E-02  1.17771E-01  1.83182E-01  2.47775E-01  3.70865E-01  1.37909E-01
   5.60062E-02  3.59158E-01  2.42342E-01  1.70613E-01  3.18174E-01  2.34788E-01 -8.15586E-02  1.52133E-01  2.11248E-01 -9.77124E-03
   6.00055E-01  1.88175E-01  9.68828E-02  2.50149E-01  4.37218E-02 -1.62704E-02 -4.39610E-02  5.93330E-02 -9.37828E-02 -2.62012E-02
  -3.72317E-01 -2.23691E-01 -9.65474E-02 -4.47844E-01 -3.97588E-01  1.22761E-02 -2.42903E-01 -1.77966E-01  1.63581E-01 -1.17757E-01
   2.00328E-01  2.01815E-01 -1.22652E-02 -4.46343E-02 -1.53016E-01 -2.48356E-01  3.94964E-03 -3.58410E-01 -2.88578E-01 -2.50907E-01
  -6.32124E-01 -6.55293E-01 -1.49436E+00 -1.97303E+00 -1.87172E+00 -8.98038E-01 -3.89938E-01 -1.49988E-01  1.24008E-01 -3.30461E-02
   4.05008E-02  1.24749E-01  2.76705E-01  7.78853E-02  1.00754E-01  2.62528E-01  7.98664E-02  1.61291E-01  3.97517E-01 -9.62545E-02
  -1.75193E-01 -1.67152E-01  7.02496E-02  2.66425E-01 -1.00067E-01 -4.01167E-02 -1.21978E-01 -6.78999E-02 -8.34016E-03  1.57687E-02
  -3.33234E-01 -7.22215E-03  3.92287E-01  1.43826E-01  3.09214E-01  2.64045E-01  2.32296E-01  3.94491E-02  7.70015E-02  4.30120E-02
   6.26904E-02  6.14984E-01  1.98136E-01  1.42037E-01  3.41832E-01 -1.18441E-01  4.26905E-02  2.77676E-01  6.01459E-01  4.50429E-01
   1.13778E-01  7.64841E-02  2.69664E-01  4.11165E-01  3.66688E-01  5.27171E-01  3.70465E-01  4.40184E-01  1.39731E-01  6.99854E-03
   2.99094E-01  3.00532E-01 -1.06548E-01 -1.39475E-01  2.60119E-01  4.44300E-03 -1.26085E-01 -1.03212E-01 -2.22495E-01 -1.14032E-01
  -3.69896E-02 -2.95310E-01 -3.24487E-01 -2.28801E-01 -4.83489E-02 -1.17910E-01 -1.00996E-01 -1.56884E-01 -5.52734E-02  5.04187E-02
  -3.52717E-01  3.32574E-02 -1.33560E-01 -5.26606E-01 -1.47575E-01  8.05095E-02 -1.90397E-01 -3.28438E-01 -3.95236E-01 -3.88192E-01
  -1.76970E-01 -6.58365E-02 -1.13309E-01 -1.66133E-01  4.19338E-02 -6.67991E-02 -1.80115E-01  2.98184E-02  1.36184E-01 -1.19461E-01
  -8.34612E-02 -2.33276E-01 -1.24236E-02  2.36795E-01  8.39727E-02 -6.99142E-02 -1.26022E-02  1.80800E-01  9.32019E-03  4.64975E-01
   3.75350E-01  3.38774E-01  2.22329E-01  1.86425E-01  2.46133E-02  1.77988E-02  3.96660E-02  3.47067E-02  3.26119E-01 -3.27178E-01
   1.04601E-01 -1.15995E-01  1.24172E-01  9.40953E-02 -3.45250E-01  2.24868E-01 -3.63487E-02  3.91804E-02 -2.01600E-01 -2.67224E-01
  -8.83588E-02 -9.24817E-02  5.38683E-02 -3.14354E-02 -3.78220E-01  1.86860E-02 -7.56766E-03 -2.08670E-01  1.25329E-01  2.32487E-02
  -1.51206E-01 -1.35869E-01  4.40663E-02  6.35748E-02  1.65613E-01 -2.53495E-01  1.84895E-01  2.29225E-01 -2.46399E-01  4.03674E-02
   1.70173E-01  3.37897E-01  6.56447E-02  6.50433E-02  1.17170E-01 -1.32867E-01 -1.44140E-01  1.84227E-01 -2.49046E-02  1.15979E-01
   2.43272E-01  2.55441E-02  2.10375E-01 -4.43508E-02  2.54661E-02  5.55119E-02 -4.41526E-02  1.52981E-01  3.51468E-01  1.19365E-01
   8.99677E-02  2.13797E-01 -6.75271E-03  1.55922E-01  4.95908E-02  1.29086E-01  3.13272E-01  6.42362E-02 -1.73386E-01 -3.29335E-01
  -3.32168E-02 -6.68628E-02  8.76921E-02  2.96946E-02 -2.98350E-01 -9.70629E-02 -5.21186E-01 -5.27870E-01 -2.86184E-01 -3.09442E-01
  -3.86737E-01 -3.91272E-01 -2.91359E-01 -3.67332E-01 -3.69993E-01 -3.45392E-02  1.00672E-01 -1.49058E-01 -2.08774E-01 -3.38573E-01
   8.07749E-03 -2.08951E-01 -1.81646E-01  7.23811E-02 -6.54003E-02  4.92618E-02 -9.74264E-02 -8.53948E-02 -8.04679E-02  2.54530E-01
   2.21231E-01  2.26602E-01  3.02049E-01  1.47251E-01 -1.09644E-01 -1.39758E-01  2.31526E-01  1.62471E-01  1.36166E-01  3.30404E-01
   4.09359E-01  3.14156E-03  8.70805E-02  1.90033E-01 -1.48732E-01 -2.76989E-02  2.32721E-01 -1.92907E-01 -1.20443E-01  2.40786E-01
  -2.04488E-01 -7.08579E-02 -2.18317E-02  6.58593E-02  6.07015E-02  4.77147E-02  2.79356E-01 -6.69600E-02  9.14373E-02  1.74508E-01
  -1.57409E-01  1.70816E-01  3.52629E-01 -5.29560E-02 -2.32819E-01  1.11819E-01  2.20200E-01 -6.11198E-02  1.14880E-01  1.10112E-01
  -1.10022E-01  1.03769E-01  1.22266E-01  8.60286E-03 -3.60633E-02  6.13191E-02  2.58862E-01 -1.65062E-02  6.79468E-02  1.23409E-01
   4.55729E-02  2.28544E-01  6.67724E-02 -4.86717E-02 -1.81611E-01 -1.33829E-01 -7.03297E-02  3.29277E-01  4.07748E-01  8.77709E-02
   4.76638E-02  5.67742E-02  5.51263E-02  1.03481E-03  4.85286E-02  2.40470E-02  2.11452E-01  3.88360E-02  1.25909E-01  2.28257E-01
   1.37425E-01 -7.26126E-02 -5.85253E-03  1.14666E-01 -1.35003E-01  2.40212E-01  4.34041E-02  2.14965E-01  8.52046E-02 -5.28152E-02
   3.14464E-01  1.31076E-01  2.78720E-01  4.73671E-01  3.64407E-01  7.48327E-02  4.81362E-01  1.85091E-01 -2.26300E-02  4.81507E-01
  -5.78383E-02 -2.61125E-02  2.52527E-01 -1.34795E-01 -8.79720E-03  1.02447E-01  7.31574E-02  2.62953E-01 -2.56868E-02 -1.00774E-01
   1.37305E-01 -2.81432E-02 -2.25777E-01 -7.37923E-02
 NY points of the fit to the data follow
   5.07754E-02  5.51648E-02  6.15095E-02  6.84977E-02  7.20235E-02  7.32993E-02  7.19247E-02  6.56559E-02  8.44106E-02  1.33733E-01
   1.45884E-01  2.43655E-01  4.13391E-01  4.43427E-01  4.52393E-01  5.16006E-01  4.99494E-01  3.29519E-01  1.65755E-01  6.91453E-02
   9.35073E-05 -7.71314E-03 -1.48781E-02 -2.86949E-02 -4.53741E-02 -6.13764E-02 -7.62432E-02 -8.84696E-02 -9.78940E-02 -1.07822E-01
  -1.18705E-01 -1.30364E-01 -1.44585E-01 -1.67227E-01 -1.98898E-01 -2.38451E-01 -2.50901E-01 -2.05649E-01 -1.54486E-01 -1.85221E-02
   1.88234E-01  3.31853E-01  3.53723E-01  3.28904E-01  3.07185E-01  2.70809E-01  2.50464E-01  2.02563E-01  1.40708E-01  8.44659E-02
   5.03488E-02  1.99606E-02 -7.01165E-04 -2.54942E-02 -5.49931E-02 -9.05665E-02 -1.31309E-01 -1.77435E-01 -2.32049E-01 -2.90852E-01
  -3.18928E-01 -3.68003E-01 -3.99991E-01 -2.94147E-01 -2.54319E-01 -2.15441E-01 -3.41437E-03  1.72285E-01  2.52743E-01  3.35534E-01
   4.19846E-01  3.64230E-01  2.68187E-01  1.89891E-01  8.97003E-02  2.22414E-02 -8.74141E-02 -2.22385E-01 -3.08006E-01 -4.36254E-01
  -5.20399E-01 -3.64145E-01 -1.14697E-01  7.64095E-02  2.40778E-01  3.97140E-01  4.40857E-01  4.04886E-01  3.58189E-01  2.92084E-01
   2.49275E-01  2.24260E-01  1.97753E-01  1.65131E-01  1.07117E-01  2.58785E-02 -8.07803E-02 -2.43853E-01 -3.60133E-01 -4.52714E-01
  -4.26885E-01 -2.80740E-01 -6.92548E-02  1.43127E-01  2.61584E-01  3.22838E-01  2.97198E-01  2.87456E-01  2.64807E-01  2.58689E-01
   2.55252E-01  2.52428E-01  2.49158E-01  2.45666E-01  2.41308E-01  2.37850E-01  2.35663E-01  2.35864E-01  2.33808E-01  2.13159E-01
   1.87204E-01  1.53056E-01  5.51379E-02 -1.06339E-02 -7.71947E-02 -1.90692E-01 -2.50781E-01 -3.76299E-01 -4.86871E-01 -6.56785E-01
  -7.23384E-01 -6.58040E-01 -5.48035E-01 -4.45628E-01 -3.64386E-01 -3.74103E-01 -6.04365E-01 -6.88098E-01 -5.52947E-01 -3.15048E-01
  -1.54462E-01 -3.73753E-02 -5.22812E-03  1.55607E-02  4.04044E-02  6.36797E-02  8.52994E-02  1.04573E-01  1.22099E-01  1.37221E-01
   1.50616E-01  1.63387E-01  1.76709E-01  1.89708E-01  2.04561E-01  2.21603E-01  2.40077E-01  2.60833E-01  2.85240E-01  3.12580E-01
   3.44960E-01  3.89885E-01  4.80590E-01  6.27383E-01  6.68769E-01  5.94984E-01  5.43101E-01  1.66354E-01 -4.70502E-01 -8.64427E-01
  -8.26542E-01 -6.13327E-01 -4.36925E-01 -2.91494E-01 -2.76092E-01 -2.61235E-01 -2.47537E-01 -2.30360E-01 -2.27604E-01 -2.39293E-01
  -2.33794E-01 -2.16932E-01 -2.01584E-01 -2.02115E-01 -2.06095E-01 -2.12494E-01 -2.12606E-01 -2.02466E-01 -1.94199E-01 -1.86038E-01
  -1.77781E-01 -1.66301E-01 -1.53641E-01 -1.41896E-01 -1.30761E-01 -1.20731E-01 -1.11781E-01 -1.04178E-01 -9.66525E-02 -8.97097E-02
  -8.44672E-02 -7.98952E-02 -7.60637E-02 -7.21441E-02 -6.88874E-02 -6.68012E-02 -6.56190E-02 -6.38902E-02 -6.13647E-02 -5.84235E-02
  -5.53231E-02 -5.23827E-02 -4.73886E-02 -4.09488E-02 -3.26925E-02 -2.48400E-02 -1.80542E-02 -9.32543E-03 -5.28583E-03 -9.01790E-03
  -1.47246E-02 -5.05790E-03  3.34908E-02  7.13537E-02  1.13099E-01  1.70244E-01  2.26196E-01  2.52395E-01  2.23155E-01  2.20825E-01
   3.04740E-01  3.56125E-01  2.71128E-01  1.18070E-01  4.08548E-03 -5.51590E-02 -7.40790E-02 -7.10920E-02 -7.84996E-02 -8.72402E-02
  -9.68796E-02 -1.04362E-01 -1.09660E-01 -1.11928E-01 -1.08987E-01 -1.09478E-01 -1.01923E-01 -9.80449E-02 -8.68151E-02 -7.89318E-02
  -8.12425E-02 -8.03136E-02 -1.04601E-01 -1.13764E-01 -9.25175E-02 -1.01604E-01 -6.42120E-02  4.10610E-02  8.89447E-02  1.06751E-01
   1.38128E-01  1.95469E-01  1.96696E-01  1.65429E-01  1.65169E-01  1.64324E-01  1.85878E-01  1.86899E-01  1.94009E-01  2.04349E-01
   2.01165E-01  1.96475E-01  1.60885E-01  1.27465E-01  8.86873E-02  5.47481E-02  2.69472E-02 -5.12329E-03 -4.16807E-02 -8.78396E-02
  -1.27290E-01 -1.74853E-01 -1.97088E-01 -1.75867E-01 -1.18870E-01 -3.56816E-03  1.23610E-01  2.27582E-01  2.88256E-01  3.03533E-01
   2.75899E-01  2.25017E-01  1.93045E-01  1.64261E-01  1.54815E-01  1.55978E-01  1.57742E-01  1.61556E-01  1.59965E-01  1.57366E-01
   1.50911E-01  1.49361E-01  1.45564E-01  1.41227E-01  1.36673E-01  1.28895E-01  1.16434E-01  1.02711E-01  7.92654E-02  5.13189E-02
   2.53633E-02 -7.46022E-03 -3.28262E-02 -6.40679E-02 -9.05307E-02 -1.29951E-01 -1.63626E-01 -1.98144E-01 -2.38791E-01 -2.55038E-01
  -2.71927E-01 -2.73003E-01 -2.66491E-01 -2.40694E-01 -1.97857E-01 -1.41035E-01 -7.16086E-02 -7.71347E-03  4.46039E-02  7.65290E-02
   7.38749E-02  5.56750E-02  1.74575E-02 -4.77549E-02 -1.11469E-01 -1.58900E-01 -2.16165E-01 -2.30838E-01 -1.86931E-01 -3.25499E-01
  -5.92016E-01 -8.29138E-01 -1.44447E+00 -1.96164E+00 -1.74646E+00 -1.03085E+00 -4.42545E-01 -1.56376E-01 -1.78794E-02 -6.24582E-02
  -4.51654E-02 -2.65831E-02 -9.92241E-03  2.86450E-03  1.22788E-02  1.99828E-02  2.62392E-02  2.88727E-02  2.95512E-02  2.57294E-02
   1.89973E-02  1.09846E-02  4.33639E-03 -3.46421E-04 -3.08448E-03 -1.76326E-03  1.39300E-03  8.56694E-03  1.59322E-02  2.41338E-02
   3.18954E-02  3.99760E-02  4.80263E-02  5.62155E-02  6.24008E-02  6.66790E-02  7.02946E-02  7.41630E-02  7.83540E-02  8.29309E-02
   8.65943E-02  8.95703E-02  9.25647E-02  9.57392E-02  9.93736E-02  1.02138E-01  1.04454E-01  1.05356E-01  1.07492E-01  1.10631E-01
   1.14881E-01  1.18927E-01  1.21257E-01  1.22165E-01  1.20337E-01  1.17261E-01  1.13795E-01  1.10833E-01  1.07211E-01  1.02834E-01
   9.70894E-02  8.95425E-02  8.20025E-02  7.44740E-02  6.62766E-02  5.77845E-02  5.10325E-02  4.51354E-02  3.81423E-02  3.16203E-02
   2.58471E-02  2.06769E-02  1.62508E-02  1.29445E-02  9.66212E-03  6.29444E-03  3.14741E-03  7.60244E-06 -3.06111E-03 -5.66462E-03
  -7.10918E-03 -8.12887E-03 -9.03608E-03 -8.46289E-03 -6.16175E-03 -3.18434E-03  5.42691E-04  6.11618E-03  1.13249E-02  1.65234E-02
   2.21199E-02  2.62847E-02  2.90365E-02  3.18131E-02  3.74844E-02  4.52903E-02  5.49050E-02  6.40598E-02  7.23953E-02  8.09614E-02
   9.12203E-02  1.03169E-01  1.15866E-01  1.29564E-01  1.42603E-01  1.55453E-01  1.67953E-01  1.79916E-01  1.89307E-01  1.96278E-01
   2.00223E-01  2.01023E-01  2.00977E-01  1.99465E-01  1.96704E-01  1.92251E-01  1.85796E-01  1.76480E-01  1.64558E-01  1.51919E-01
   1.39375E-01  1.27887E-01  1.16507E-01  1.06010E-01  9.48291E-02  8.42763E-02  7.56200E-02  6.79683E-02  6.06774E-02  5.35662E-02
   4.79517E-02  4.27883E-02  3.89937E-02  3.57521E-02  3.37137E-02  3.40103E-02  3.64190E-02  3.97333E-02  4.34160E-02  4.81823E-02
   5.34296E-02  5.89193E-02  6.56941E-02  7.24650E-02  7.78105E-02  8.11858E-02  8.42212E-02  8.64461E-02  8.80504E-02  9.08441E-02
   9.38895E-02  9.55896E-02  9.55083E-02  9.34531E-02  9.04466E-02  8.77264E-02  8.42079E-02  7.96556E-02  7.52638E-02  7.19878E-02
   6.84491E-02  6.45118E-02  6.03158E-02  5.60544E-02  5.16729E-02  4.70120E-02  4.26220E-02  3.79241E-02  3.41213E-02  3.16587E-02
   2.90627E-02  2.48758E-02  1.97703E-02  1.43777E-02  7.75628E-03 -4.00077E-04 -9.40197E-03 -1.86593E-02 -2.89774E-02 -4.14361E-02
  -5.61761E-02 -7.43576E-02 -9.48000E-02 -1.14521E-01 -1.32678E-01 -1.49954E-01 -1.66550E-01 -1.81673E-01 -1.94626E-01 -2.05117E-01
  -2.14073E-01 -2.19477E-01 -2.19719E-01 -2.16860E-01 -2.13291E-01 -2.07838E-01 -1.99326E-01 -1.89590E-01 -1.80495E-01 -1.71902E-01
  -1.63708E-01 -1.55954E-01 -1.46300E-01 -1.34947E-01 -1.23043E-01 -1.10899E-01 -9.81706E-02 -8.49376E-02 -7.32228E-02 -6.11489E-02
  -4.96886E-02 -3.90861E-02 -2.89327E-02 -1.86832E-02 -9.13060E-03 -1.24697E-03  5.68269E-03  1.31796E-02  2.10107E-02  2.62657E-02
   3.02431E-02  3.45456E-02  3.90638E-02  4.23952E-02  4.54751E-02  4.76470E-02  4.87626E-02  5.06130E-02  5.26915E-02  5.33360E-02
   5.38974E-02  5.62844E-02  5.90706E-02  6.13703E-02  6.40427E-02  6.64711E-02  6.68748E-02  6.68602E-02  6.72607E-02  6.69422E-02
   6.68748E-02  6.72261E-02  6.68315E-02  6.64982E-02  6.68370E-02  6.70350E-02  6.76885E-02  6.85720E-02  6.90370E-02  6.94568E-02
   6.85337E-02  6.51129E-02  6.28578E-02  6.40180E-02  6.61111E-02  6.64797E-02  6.60717E-02  6.58546E-02  6.48082E-02  6.36611E-02
   6.28804E-02  6.40572E-02  6.63577E-02  6.84090E-02  6.96964E-02  7.03674E-02  7.17596E-02  7.34403E-02  7.50597E-02  7.60524E-02
   7.66789E-02  7.77950E-02  7.76505E-02  7.61761E-02  7.56494E-02  7.66567E-02  7.86292E-02  8.04391E-02  8.18629E-02  8.35055E-02
   8.47427E-02  8.52416E-02  8.79752E-02  9.15921E-02  9.44608E-02  9.55497E-02  9.46972E-02  9.28923E-02  9.20050E-02  9.35430E-02
   9.55423E-02  9.68442E-02  9.68972E-02  9.67634E-02  9.71799E-02  9.79636E-02  9.99476E-02  1.00870E-01  1.01185E-01  1.03037E-01
   1.06207E-01  1.08057E-01  1.09044E-01  1.10375E-01  1.11922E-01  1.14679E-01  1.17581E-01  1.21119E-01  1.26427E-01  1.32271E-01
   1.36883E-01  1.39762E-01  1.42854E-01  1.45854E-01
 NY background values follow
     8.123E-02    8.105E-02    8.087E-02    8.070E-02    8.052E-02    8.034E-02    8.016E-02    7.999E-02    7.981E-02    7.963E-02
     7.945E-02    7.927E-02    7.910E-02    7.892E-02    7.874E-02    7.856E-02    7.838E-02    7.821E-02    7.803E-02    7.785E-02
     7.767E-02    7.749E-02    7.732E-02    7.714E-02    7.696E-02    7.678E-02    7.660E-02    7.643E-02    7.625E-02    7.607E-02
     7.589E-02    7.572E-02    7.554E-02    7.536E-02    7.518E-02    7.500E-02    7.483E-02    7.465E-02    7.447E-02    7.429E-02
     7.411E-02    7.394E-02    7.376E-02    7.358E-02    7.340E-02    7.322E-02    7.305E-02    7.287E-02    7.269E-02    7.251E-02
     7.233E-02    7.216E-02    7.198E-02    7.180E-02    7.162E-02    7.144E-02    7.126E-02    7.109E-02    7.091E-02    7.073E-02
     7.055E-02    7.037E-02    7.020E-02    7.002E-02    6.984E-02    6.966E-02    6.948E-02    6.931E-02    6.913E-02    6.895E-02
