 
 $NMID
 ID=''
 FMTDAT='(2E13.5)'
 TRAMP=   1.00000E+0
 VOLUME=   1.00000E+0
 $END
  -1.04985E+4   1.09950E+4
  -3.39810E+4   1.95858E+4
  -2.98754E+4   2.54709E+4
  -2.73523E+4   2.39822E+4
  -2.90236E+4   2.43107E+4
  -2.79963E+4   2.58072E+4
  -2.69850E+4   2.49075E+4
  -2.77798E+4   2.49559E+4
  -2.72047E+4   2.58598E+4
  -2.64471E+4   2.52953E+4
  -2.68911E+4   2.52008E+4
  -2.62704E+4   2.57815E+4
  -2.57312E+4   2.54456E+4
  -2.61158E+4   2.52294E+4
  -2.56203E+4   2.55467E+4
  -2.51596E+4   2.51717E+4
  -2.52186E+4   2.50951E+4
  -2.47675E+4   2.53677E+4
  -2.41718E+4   2.50717E+4
  -2.41687E+4   2.50289E+4
  -2.36055E+4   2.52188E+4
  -2.29051E+4   2.52333E+4
  -2.27556E+4   2.52943E+4
  -2.23931E+4   2.54742E+4
  -2.16847E+4   2.54328E+4
  -2.15726E+4   2.55367E+4
  -2.12906E+4   2.57692E+4
  -2.08746E+4   2.56237E+4
  -2.08273E+4   2.56433E+4
  -2.04486E+4   2.56493E+4
  -2.01282E+4   2.55640E+4
  -1.98272E+4   2.55979E+4
  -1.95856E+4   2.55419E+4
  -1.93005E+4   2.52954E+4
  -1.89343E+4   2.51499E+4
  -1.84895E+4   2.51534E+4
  -1.79995E+4   2.49693E+4
  -1.75196E+4   2.48392E+4
  -1.71384E+4   2.48359E+4
  -1.66182E+4   2.46438E+4
  -1.62432E+4   2.46521E+4
  -1.57921E+4   2.45334E+4
  -1.54606E+4   2.44033E+4
  -1.49693E+4   2.42237E+4
  -1.44824E+4   2.42033E+4
  -1.40236E+4   2.41615E+4
  -1.36044E+4   2.41097E+4
  -1.32744E+4   2.41258E+4
  -1.28889E+4   2.40702E+4
  -1.25846E+4   2.39762E+4
  -1.22791E+4   2.39088E+4
  -1.18990E+4   2.37423E+4
  -1.14174E+4   2.37955E+4
  -1.10552E+4   2.36687E+4
  -1.07233E+4   2.36383E+4
  -1.04600E+4   2.35174E+4
  -1.02280E+4   2.35034E+4
  -9.91479E+3   2.33641E+4
  -9.60801E+3   2.31971E+4
  -9.32848E+3   2.30801E+4
  -9.01864E+3   2.29666E+4
  -8.73737E+3   2.27964E+4
  -8.52834E+3   2.27226E+4
  -8.20428E+3   2.26085E+4
  -7.94428E+3   2.24715E+4
  -7.69591E+3   2.23311E+4
  -7.38285E+3   2.21919E+4
  -7.15506E+3   2.20544E+4
  -6.92168E+3   2.18623E+4
  -6.68053E+3   2.16237E+4
  -6.32406E+3   2.15278E+4
  -6.08725E+3   2.12953E+4
  -5.82015E+3   2.10784E+4
  -5.60547E+3   2.08176E+4
  -5.38355E+3   2.07163E+4
  -5.01085E+3   2.04970E+4
  -4.79055E+3   2.02843E+4
  -4.42235E+3   2.00925E+4
  -4.25314E+3   1.97786E+4
  -3.88621E+3   1.96699E+4
  -3.60395E+3   1.95158E+4
  -3.43774E+3   1.93218E+4
  -3.04530E+3   1.90799E+4
  -2.82065E+3   1.88841E+4
  -2.55323E+3   1.86089E+4
  -2.32826E+3   1.84415E+4
  -2.06901E+3   1.82685E+4
  -1.85708E+3   1.79384E+4
  -1.48722E+3   1.77676E+4
  -1.22065E+3   1.75555E+4
  -1.00401E+3   1.74204E+4
  -7.84077E+2   1.71622E+4
  -5.05049E+2   1.69870E+4
  -2.11191E+2   1.68813E+4
   1.04199E+1   1.66305E+4
   2.19898E+2   1.63935E+4
   4.85898E+2   1.62291E+4
   7.19484E+2   1.59831E+4
   8.73691E+2   1.58309E+4
   1.06620E+3   1.56541E+4
   1.28945E+3   1.53690E+4
   1.49796E+3   1.52475E+4
   1.76756E+3   1.51035E+4
   1.94632E+3   1.48265E+4
   2.03668E+3   1.46376E+4
   2.26588E+3   1.44229E+4
   2.47146E+3   1.42037E+4
   2.62362E+3   1.39971E+4
   2.70418E+3   1.37579E+4
   2.94824E+3   1.35908E+4
   3.08571E+3   1.33263E+4
   3.28924E+3   1.31470E+4
   3.41871E+3   1.29645E+4
   3.65964E+3   1.27591E+4
   3.75315E+3   1.25518E+4
   3.94484E+3   1.23505E+4
   4.05083E+3   1.20844E+4
   4.23779E+3   1.18290E+4
   4.36761E+3   1.16350E+4
   4.50236E+3   1.14523E+4
   4.62086E+3   1.11390E+4
   4.74955E+3   1.09273E+4
   4.83339E+3   1.08437E+4
   4.95042E+3   1.05197E+4
   5.12148E+3   1.02929E+4
   5.22735E+3   1.01718E+4
   5.40515E+3   9.91688E+3
   5.53619E+3   9.68305E+3
   5.62552E+3   9.49639E+3
   5.80246E+3   9.31742E+3
   5.99844E+3   9.17059E+3
   5.93606E+3   8.85066E+3
   6.13021E+3   8.66817E+3
   6.24465E+3   8.54428E+3
   6.34869E+3   8.36126E+3
   6.40378E+3   8.16204E+3
   6.41921E+3   8.01960E+3
   6.56733E+3   7.92188E+3
   6.69312E+3   7.74772E+3
   6.76060E+3   7.53983E+3
   6.79393E+3   7.44380E+3
   6.82178E+3   7.19391E+3
   6.90634E+3   6.97527E+3
   7.00199E+3   6.90235E+3
   6.98798E+3   6.79457E+3
   6.96112E+3   6.49720E+3
   7.04307E+3   6.43226E+3
   7.15329E+3   6.30031E+3
   7.13774E+3   6.16627E+3
   7.14611E+3   5.96550E+3
   7.16697E+3   5.83756E+3
   7.12759E+3   5.69107E+3
   7.13102E+3   5.45580E+3
   7.21443E+3   5.39544E+3
   7.17149E+3   5.25229E+3
   7.20176E+3   5.11785E+3
   7.19079E+3   4.89701E+3
   7.16511E+3   4.75223E+3
   7.16109E+3   4.66850E+3
   7.20335E+3   4.51566E+3
   7.12601E+3   4.34242E+3
   7.16061E+3   4.25628E+3
   7.12430E+3   4.13743E+3
   7.10412E+3   3.91927E+3
   7.06280E+3   3.74413E+3
   7.04118E+3   3.62080E+3
   7.11471E+3   3.50232E+3
   7.01956E+3   3.32484E+3
   7.04860E+3   3.21066E+3
   7.01730E+3   3.14150E+3
   6.97961E+3   2.94671E+3
   6.99391E+3   2.78099E+3
   6.93356E+3   2.64157E+3
   6.97131E+3   2.57031E+3
   6.90335E+3   2.49708E+3
   6.84883E+3   2.31185E+3
   6.87540E+3   2.19006E+3
   6.87224E+3   2.12227E+3
   6.84330E+3   1.98034E+3
   6.82802E+3   1.84946E+3
   6.82789E+3   1.74581E+3
   6.81152E+3   1.58731E+3
   6.74110E+3   1.57195E+3
   6.66900E+3   1.43104E+3
   6.65051E+3   1.35009E+3
   6.58729E+3   1.32931E+3
   6.47911E+3   1.16163E+3
   6.55221E+3   1.05157E+3
   6.43787E+3   1.04315E+3
   6.42256E+3   9.05307E+2
   6.33839E+3   9.03659E+2
   6.34798E+3   7.70594E+2
   6.27100E+3   7.05259E+2
   6.25412E+3   5.90996E+2
   6.20452E+3   5.49876E+2
   6.13043E+3   4.34651E+2
   6.09300E+3   3.71953E+2
   6.06477E+3   2.30174E+2
   6.01441E+3   2.73190E+2
   5.87069E+3   2.06129E+2
   5.86879E+3   9.65318E+1
   5.83297E+3   9.56240E+1
   5.69914E+3  -4.52359E+0
   5.67146E+3  -9.15187E+1
   5.57094E+3  -2.52510E+2
   5.52791E+3  -3.12121E+2
   5.57364E+3  -3.34855E+2
   5.45014E+3  -4.10823E+2
   5.41388E+3  -4.85904E+2
   5.32026E+3  -5.48156E+2
   5.29423E+3  -5.78219E+2
   5.16913E+3  -7.13012E+2
   5.14876E+3  -6.59276E+2
   5.07333E+3  -7.91772E+2
   5.08961E+3  -8.58137E+2
   4.96584E+3  -9.47069E+2
   4.95841E+3  -9.19583E+2
   4.88218E+3  -9.70842E+2
   4.83509E+3  -1.12856E+3
   4.73505E+3  -1.11328E+3
   4.72035E+3  -1.11322E+3
   4.67769E+3  -1.19018E+3
   4.62260E+3  -1.28717E+3
   4.61503E+3  -1.27043E+3
   4.58276E+3  -1.36434E+3
   4.52661E+3  -1.30922E+3
   4.43259E+3  -1.43675E+3
   4.44799E+3  -1.44209E+3
   4.38512E+3  -1.54188E+3
   4.33750E+3  -1.54459E+3
   4.29150E+3  -1.57968E+3
   4.20255E+3  -1.52473E+3
   4.20884E+3  -1.64511E+3
   4.13007E+3  -1.68281E+3
   4.12913E+3  -1.74089E+3
   4.03020E+3  -1.72315E+3
   4.06995E+3  -1.83659E+3
   3.99681E+3  -1.87843E+3
   3.95747E+3  -1.83660E+3
   3.92891E+3  -1.84456E+3
   3.83874E+3  -1.91314E+3
   3.74386E+3  -1.94546E+3
   3.73637E+3  -1.95766E+3
   3.68144E+3  -1.96163E+3
   3.64555E+3  -2.05539E+3
   3.63340E+3  -1.99845E+3
   3.61048E+3  -2.03233E+3
   3.49987E+3  -2.04636E+3
   3.45698E+3  -2.08404E+3
   3.44551E+3  -2.09887E+3
   3.36613E+3  -2.10303E+3
   3.34240E+3  -2.19325E+3
   3.30900E+3  -2.19295E+3
   3.24900E+3  -2.16745E+3
   3.17793E+3  -2.21942E+3
   3.17997E+3  -2.28322E+3
   3.16973E+3  -2.28252E+3
   3.03429E+3  -2.33117E+3
   3.05649E+3  -2.34193E+3
   3.00977E+3  -2.34910E+3
   2.91517E+3  -2.38973E+3
   2.90655E+3  -2.35423E+3
   2.82365E+3  -2.45696E+3
   2.87034E+3  -2.50285E+3
   2.73505E+3  -2.45656E+3
   2.78110E+3  -2.55576E+3
   2.75306E+3  -2.56837E+3
   2.64879E+3  -2.55298E+3
   2.61441E+3  -2.60619E+3
   2.63354E+3  -2.58592E+3
   2.55621E+3  -2.60664E+3
   2.46922E+3  -2.61588E+3
   2.53239E+3  -2.62454E+3
   2.49203E+3  -2.73396E+3
   2.41909E+3  -2.72804E+3
   2.44220E+3  -2.64756E+3
   2.42132E+3  -2.64954E+3
   2.33930E+3  -2.71091E+3
   2.22403E+3  -2.72830E+3
   2.24907E+3  -2.78156E+3
   2.25018E+3  -2.73252E+3
   2.13653E+3  -2.71854E+3
   2.13558E+3  -2.70296E+3
   2.12906E+3  -2.77630E+3
   2.05842E+3  -2.77411E+3
   2.01460E+3  -2.76655E+3
   2.01893E+3  -2.79484E+3
   1.96855E+3  -2.76127E+3
   1.91584E+3  -2.85015E+3
   1.81109E+3  -2.81290E+3
   1.86146E+3  -2.86277E+3
   1.71804E+3  -2.82607E+3
   1.71585E+3  -2.86966E+3
   1.77285E+3  -2.85266E+3
   1.64476E+3  -2.83610E+3
   1.62121E+3  -2.94805E+3
   1.58435E+3  -2.85037E+3
   1.58120E+3  -2.84510E+3
   1.53667E+3  -2.88730E+3
   1.50045E+3  -2.86269E+3
   1.45971E+3  -2.89601E+3
   1.43233E+3  -2.87042E+3
   1.42539E+3  -2.85643E+3
   1.39647E+3  -2.85017E+3
   1.33863E+3  -2.92466E+3
   1.35753E+3  -2.87690E+3
   1.29216E+3  -2.87242E+3
   1.29649E+3  -2.93953E+3
   1.23552E+3  -2.88034E+3
   1.18080E+3  -2.88446E+3
   1.19464E+3  -2.82142E+3
   1.14631E+3  -2.85746E+3
   1.15415E+3  -2.83033E+3
   1.07266E+3  -2.75979E+3
   1.07085E+3  -2.79820E+3
   1.07673E+3  -2.87275E+3
   9.29038E+2  -2.82767E+3
   1.00757E+3  -2.82474E+3
   9.51067E+2  -2.82888E+3
   9.22190E+2  -2.76762E+3
   8.73314E+2  -2.81881E+3
   8.32552E+2  -2.76296E+3
   8.64795E+2  -2.74033E+3
   8.19539E+2  -2.75609E+3
   7.83145E+2  -2.76830E+3
   7.75145E+2  -2.73876E+3
   7.32781E+2  -2.69133E+3
   6.65295E+2  -2.71641E+3
   7.44523E+2  -2.69340E+3
   6.28093E+2  -2.61746E+3
   5.85352E+2  -2.62442E+3
   6.22362E+2  -2.66359E+3
   5.59073E+2  -2.64146E+3
   5.73294E+2  -2.61702E+3
   5.71816E+2  -2.58937E+3
   5.19030E+2  -2.56832E+3
   5.04343E+2  -2.53520E+3
   4.09939E+2  -2.60273E+3
   4.41495E+2  -2.52794E+3
   4.14038E+2  -2.56462E+3
   4.38551E+2  -2.48519E+3
   3.77585E+2  -2.50607E+3
   3.67116E+2  -2.51803E+3
   3.40945E+2  -2.44863E+3
   3.26221E+2  -2.51870E+3
   2.98407E+2  -2.42313E+3
   2.79286E+2  -2.37780E+3
   2.98074E+2  -2.38279E+3
   2.36945E+2  -2.37029E+3
   2.70388E+2  -2.35569E+3
   2.17614E+2  -2.31875E+3
   2.60619E+2  -2.33097E+3
   2.25487E+2  -2.25524E+3
   2.41510E+2  -2.27839E+3
   1.45863E+2  -2.19947E+3
   8.34977E+1  -2.20808E+3
   1.15759E+2  -2.24776E+3
   7.57412E+1  -2.16395E+3
   6.87723E+1  -2.14722E+3
   5.76059E+1  -2.11210E+3
   8.29301E+1  -2.08636E+3
   3.48850E+1  -2.12077E+3
   5.21968E+1  -2.08389E+3
   4.73820E+1  -2.11196E+3
   2.33811E+1  -2.02556E+3
   4.18364E+0  -2.03100E+3
  -3.48216E+1  -2.03033E+3
