 
 $NMID
 ID=''
 FMTDAT='(2E13.5)'
 TRAMP=   1.00000E+0
 VOLUME=   1.00000E+0
 $END
  -1.61985E+4  -8.82549E+3
  -3.37706E+4  -3.33846E+4
  -3.94961E+4  -2.64559E+4
  -3.67912E+4  -2.37537E+4
  -3.76632E+4  -2.54265E+4
  -3.92121E+4  -2.34198E+4
  -3.78592E+4  -2.24173E+4
  -3.81995E+4  -2.32143E+4
  -3.91707E+4  -2.17936E+4
  -3.82923E+4  -2.11792E+4
  -3.83545E+4  -2.14778E+4
  -3.90209E+4  -2.03514E+4
  -3.86418E+4  -1.96001E+4
  -3.86531E+4  -1.99937E+4
  -3.89942E+4  -1.93058E+4
  -3.85667E+4  -1.86686E+4
  -3.85272E+4  -1.87888E+4
  -3.87232E+4  -1.81315E+4
  -3.83505E+4  -1.74846E+4
  -3.83391E+4  -1.75276E+4
  -3.83788E+4  -1.68192E+4
  -3.80386E+4  -1.60988E+4
  -3.80929E+4  -1.59581E+4
  -3.80268E+4  -1.54117E+4
  -3.76019E+4  -1.47964E+4
  -3.75568E+4  -1.45083E+4
  -3.76084E+4  -1.39451E+4
  -3.71806E+4  -1.34944E+4
  -3.69523E+4  -1.32840E+4
  -3.69020E+4  -1.27528E+4
  -3.66249E+4  -1.21158E+4
  -3.66122E+4  -1.17451E+4
  -3.64932E+4  -1.15409E+4
  -3.62136E+4  -1.10399E+4
  -3.61002E+4  -1.05793E+4
  -3.60385E+4  -1.00783E+4
  -3.57950E+4  -9.56455E+3
  -3.56646E+4  -9.12884E+3
  -3.56100E+4  -8.72044E+3
  -3.53690E+4  -8.25873E+3
  -3.51958E+4  -7.93330E+3
  -3.50126E+4  -7.71767E+3
  -3.47274E+4  -7.37972E+3
  -3.44869E+4  -7.04555E+3
  -3.44210E+4  -6.64587E+3
  -3.41044E+4  -6.32178E+3
  -3.39536E+4  -6.02219E+3
  -3.37879E+4  -5.71473E+3
  -3.35700E+4  -5.38015E+3
  -3.33962E+4  -5.08330E+3
  -3.30840E+4  -4.76989E+3
  -3.28133E+4  -4.44760E+3
  -3.25754E+4  -4.17371E+3
  -3.23385E+4  -3.73105E+3
  -3.21808E+4  -3.58196E+3
  -3.19120E+4  -3.26587E+3
  -3.16592E+4  -2.97422E+3
  -3.14133E+4  -2.68679E+3
  -3.11443E+4  -2.49120E+3
  -3.08455E+4  -2.26831E+3
  -3.05244E+4  -1.91027E+3
  -3.02162E+4  -1.64480E+3
  -3.00539E+4  -1.30492E+3
  -2.98293E+4  -1.11927E+3
  -2.95711E+4  -8.66312E+2
  -2.93144E+4  -5.60373E+2
  -2.90590E+4  -2.88112E+2
  -2.88240E+4  -6.40181E+1
  -2.85807E+4   1.07652E+2
  -2.82876E+4   3.38977E+2
  -2.79935E+4   6.04063E+2
  -2.77890E+4   7.56492E+2
  -2.75805E+4   1.05159E+3
  -2.73039E+4   1.13147E+3
  -2.70483E+4   1.42676E+3
  -2.67189E+4   1.66968E+3
  -2.64939E+4   1.86201E+3
  -2.62565E+4   2.03844E+3
  -2.59888E+4   2.26424E+3
  -2.56893E+4   2.50549E+3
  -2.54443E+4   2.70344E+3
  -2.50851E+4   2.86617E+3
  -2.48969E+4   3.05595E+3
  -2.45808E+4   3.23200E+3
  -2.44331E+4   3.42281E+3
  -2.41027E+4   3.58217E+3
  -2.38468E+4   3.68615E+3
  -2.36197E+4   3.92273E+3
  -2.32852E+4   4.07726E+3
  -2.30236E+4   4.33124E+3
  -2.28286E+4   4.49677E+3
  -2.26214E+4   4.70038E+3
  -2.23861E+4   4.83485E+3
  -2.21966E+4   4.99772E+3
  -2.20076E+4   5.20231E+3
  -2.16578E+4   5.30113E+3
  -2.13960E+4   5.52524E+3
  -2.12513E+4   5.72815E+3
  -2.10871E+4   5.82183E+3
  -2.08643E+4   5.88870E+3
  -2.06508E+4   5.98092E+3
  -2.04218E+4   6.20104E+3
  -2.02590E+4   6.29099E+3
  -2.00542E+4   6.43168E+3
  -1.98376E+4   6.48549E+3
  -1.95755E+4   6.55676E+3
  -1.94565E+4   6.67941E+3
  -1.92191E+4   6.80611E+3
  -1.90668E+4   6.89418E+3
  -1.87762E+4   6.97144E+3
  -1.86358E+4   7.15491E+3
  -1.83731E+4   7.15546E+3
  -1.82069E+4   7.28233E+3
  -1.80399E+4   7.43339E+3
  -1.78681E+4   7.46952E+3
  -1.77015E+4   7.55093E+3
  -1.75041E+4   7.62445E+3
  -1.73249E+4   7.68345E+3
  -1.71051E+4   7.79990E+3
  -1.69608E+4   7.84962E+3
  -1.68014E+4   7.92244E+3
  -1.66843E+4   7.97041E+3
  -1.64281E+4   7.95599E+3
  -1.63185E+4   8.07170E+3
  -1.61842E+4   8.17812E+3
  -1.60076E+4   8.15141E+3
  -1.59046E+4   8.18601E+3
  -1.57176E+4   8.31680E+3
  -1.55345E+4   8.35841E+3
  -1.54116E+4   8.42493E+3
  -1.52268E+4   8.41748E+3
  -1.50898E+4   8.38942E+3
  -1.49869E+4   8.43370E+3
  -1.47390E+4   8.50672E+3
  -1.47063E+4   8.53488E+3
  -1.45441E+4   8.51115E+3
  -1.44405E+4   8.51300E+3
  -1.42399E+4   8.58750E+3
  -1.40509E+4   8.60291E+3
  -1.39411E+4   8.58600E+3
  -1.38164E+4   8.69864E+3
  -1.36287E+4   8.67972E+3
  -1.35389E+4   8.63419E+3
  -1.34085E+4   8.67552E+3
  -1.31966E+4   8.67373E+3
  -1.30939E+4   8.63741E+3
  -1.29587E+4   8.69837E+3
  -1.28445E+4   8.70466E+3
  -1.26464E+4   8.73541E+3
  -1.25592E+4   8.76653E+3
  -1.23799E+4   8.66914E+3
  -1.23140E+4   8.63658E+3
  -1.20585E+4   8.60548E+3
  -1.19331E+4   8.77153E+3
  -1.17732E+4   8.66543E+3
  -1.16460E+4   8.65078E+3
  -1.15080E+4   8.69021E+3
  -1.14381E+4   8.63499E+3
  -1.13177E+4   8.58763E+3
  -1.11255E+4   8.62270E+3
  -1.10764E+4   8.55729E+3
  -1.08946E+4   8.56547E+3
  -1.07560E+4   8.53958E+3
  -1.06397E+4   8.58653E+3
  -1.05083E+4   8.58182E+3
  -1.04007E+4   8.52677E+3
  -1.02301E+4   8.48837E+3
  -1.00744E+4   8.40417E+3
  -9.96981E+3   8.47440E+3
  -9.81217E+3   8.54104E+3
  -9.75459E+3   8.37727E+3
  -9.66335E+3   8.38259E+3
  -9.50829E+3   8.40643E+3
  -9.35264E+3   8.40921E+3
  -9.19386E+3   8.30168E+3
  -9.08898E+3   8.34223E+3
  -8.96858E+3   8.30484E+3
  -8.77747E+3   8.29961E+3
  -8.67990E+3   8.25097E+3
  -8.60498E+3   8.18091E+3
  -8.45166E+3   8.21710E+3
  -8.38580E+3   8.18604E+3
  -8.23515E+3   8.17571E+3
  -8.15685E+3   8.08445E+3
  -8.03246E+3   8.09315E+3
  -7.88294E+3   8.09947E+3
  -7.80852E+3   8.03703E+3
  -7.66281E+3   8.08741E+3
  -7.57888E+3   7.97701E+3
  -7.40525E+3   7.92695E+3
  -7.30076E+3   7.97980E+3
  -7.21939E+3   7.94743E+3
  -7.13237E+3   7.82711E+3
  -7.01380E+3   7.84735E+3
  -6.89648E+3   7.79455E+3
  -6.73787E+3   7.72340E+3
  -6.69803E+3   7.74802E+3
  -6.61048E+3   7.64025E+3
  -6.46587E+3   7.58053E+3
  -6.35213E+3   7.53442E+3
  -6.25144E+3   7.53843E+3
  -6.19505E+3   7.48878E+3
  -6.03872E+3   7.45894E+3
  -5.96483E+3   7.41969E+3
  -5.81732E+3   7.36663E+3
  -5.76537E+3   7.37684E+3
  -5.64578E+3   7.35701E+3
  -5.54966E+3   7.32340E+3
  -5.49777E+3   7.14042E+3
  -5.38941E+3   7.13652E+3
  -5.30157E+3   7.19193E+3
  -5.30038E+3   7.09159E+3
  -5.05391E+3   7.05937E+3
  -4.95280E+3   6.99162E+3
  -4.89805E+3   6.96596E+3
  -4.84046E+3   6.92839E+3
  -4.73206E+3   6.89748E+3
  -4.63859E+3   6.84454E+3
  -4.54362E+3   6.76406E+3
  -4.50130E+3   6.74309E+3
  -4.39181E+3   6.70945E+3
  -4.29005E+3   6.62406E+3
  -4.22078E+3   6.65606E+3
  -4.18429E+3   6.56389E+3
  -4.08510E+3   6.48687E+3
  -4.05927E+3   6.47220E+3
  -3.89599E+3   6.46088E+3
  -3.85614E+3   6.38726E+3
  -3.80399E+3   6.37402E+3
  -3.65149E+3   6.28736E+3
  -3.67356E+3   6.25150E+3
  -3.53259E+3   6.22837E+3
  -3.51276E+3   6.14626E+3
  -3.46848E+3   6.14287E+3
  -3.31318E+3   6.05789E+3
  -3.22633E+3   6.05312E+3
  -3.15208E+3   6.02162E+3
  -3.20193E+3   6.04217E+3
  -3.04579E+3   5.87379E+3
  -3.05714E+3   5.85440E+3
  -2.92410E+3   5.78052E+3
  -2.88970E+3   5.74798E+3
  -2.87518E+3   5.78923E+3
  -2.78722E+3   5.70252E+3
  -2.71469E+3   5.65219E+3
  -2.68875E+3   5.69156E+3
  -2.63141E+3   5.52678E+3
  -2.56838E+3   5.50279E+3
  -2.46585E+3   5.50764E+3
  -2.47202E+3   5.49493E+3
  -2.38095E+3   5.44543E+3
  -2.39987E+3   5.44125E+3
  -2.36705E+3   5.39882E+3
  -2.32574E+3   5.33024E+3
  -2.21372E+3   5.27355E+3
  -2.09044E+3   5.25572E+3
  -2.11596E+3   5.22423E+3
  -1.98323E+3   5.17993E+3
  -2.03812E+3   5.10192E+3
  -2.02202E+3   5.15017E+3
  -1.93457E+3   5.07178E+3
  -1.85477E+3   5.03637E+3
  -1.79274E+3   4.95951E+3
  -1.73838E+3   4.92023E+3
  -1.75450E+3   4.97878E+3
  -1.75962E+3   4.89538E+3
  -1.75278E+3   4.86310E+3
  -1.66989E+3   4.80635E+3
  -1.60835E+3   4.82486E+3
  -1.59804E+3   4.71040E+3
  -1.62392E+3   4.75084E+3
  -1.50449E+3   4.69458E+3
  -1.52519E+3   4.71144E+3
  -1.43533E+3   4.55700E+3
  -1.38415E+3   4.55709E+3
  -1.40654E+3   4.53720E+3
  -1.34018E+3   4.53962E+3
  -1.34370E+3   4.54228E+3
  -1.32329E+3   4.43669E+3
  -1.29314E+3   4.43002E+3
  -1.17879E+3   4.41009E+3
  -1.23860E+3   4.36398E+3
  -1.21793E+3   4.40201E+3
  -1.23535E+3   4.30510E+3
  -1.12522E+3   4.27762E+3
  -1.09279E+3   4.23480E+3
  -1.13254E+3   4.24758E+3
  -1.09909E+3   4.18674E+3
  -1.05017E+3   4.17226E+3
  -1.00646E+3   4.11411E+3
  -9.63142E+2   4.14798E+3
  -9.70322E+2   4.12267E+3
  -1.00212E+3   4.12828E+3
  -9.98837E+2   4.11639E+3
  -9.55512E+2   4.05653E+3
  -9.41328E+2   4.01491E+3
  -9.72791E+2   4.01522E+3
  -9.03240E+2   3.96159E+3
  -8.35790E+2   3.92489E+3
  -7.54869E+2   3.92246E+3
  -8.35187E+2   3.95663E+3
  -8.15527E+2   3.86553E+3
  -7.13208E+2   3.86094E+3
  -7.63770E+2   3.82678E+3
  -7.48558E+2   3.82913E+3
  -7.74985E+2   3.79825E+3
  -7.20950E+2   3.74502E+3
  -7.04270E+2   3.77866E+3
  -6.55653E+2   3.73168E+3
  -6.74723E+2   3.71262E+3
  -6.94058E+2   3.69139E+3
  -6.42608E+2   3.70348E+3
  -6.37524E+2   3.64416E+3
  -6.31845E+2   3.64108E+3
  -6.10100E+2   3.60954E+3
  -6.12030E+2   3.62154E+3
  -5.40996E+2   3.63994E+3
  -5.88366E+2   3.59955E+3
  -5.39366E+2   3.55797E+3
  -5.36257E+2   3.58095E+3
  -5.36344E+2   3.56151E+3
  -5.22768E+2   3.56194E+3
  -5.01031E+2   3.52329E+3
  -4.49305E+2   3.51149E+3
  -4.35210E+2   3.42653E+3
  -4.10301E+2   3.40509E+3
  -4.19446E+2   3.44418E+3
  -3.83340E+2   3.41330E+3
  -3.82789E+2   3.39704E+3
  -3.39821E+2   3.34053E+3
  -3.62483E+2   3.37534E+3
  -3.44697E+2   3.41086E+3
  -3.07253E+2   3.26861E+3
  -2.95190E+2   3.33755E+3
  -2.83657E+2   3.34243E+3
  -2.26263E+2   3.29458E+3
  -2.50798E+2   3.31354E+3
  -2.89941E+2   3.21186E+3
  -2.19174E+2   3.27073E+3
  -1.83116E+2   3.21012E+3
  -2.29592E+2   3.18977E+3
  -1.88951E+2   3.22518E+3
  -1.37673E+2   3.13086E+3
  -1.11173E+2   3.15283E+3
  -2.09627E+2   3.20318E+3
  -1.99947E+2   3.08971E+3
  -1.10382E+2   3.15316E+3
  -6.68243E+1   3.09113E+3
  -8.02936E+1   3.06520E+3
  -1.08264E+2   3.06893E+3
  -7.46558E+1   3.07178E+3
  -1.06277E+2   3.08831E+3
  -6.79818E+1   3.03046E+3
  -8.32981E+1   3.05423E+3
  -3.57981E+1   3.02156E+3
  -1.09369E+2   2.95715E+3
  -6.75680E+1   2.90446E+3
  -5.29361E+0   2.94036E+3
   2.61537E+1   2.93211E+3
   6.72921E+1   2.83689E+3
   2.38008E+1   2.87806E+3
   3.98210E+1   2.81937E+3
  -1.18241E+1   2.82897E+3
   1.01725E+2   2.85528E+3
   7.07546E+1   2.80486E+3
   1.41264E+2   2.79960E+3
   6.23768E+1   2.75447E+3
