 
 $NMID
 ID=''
 FMTDAT='(2E13.5)'
 TRAMP=   1.00000E+0
 VOLUME=   1.00000E+0
 $END
  -1.63731E+2   1.36810E+3
  -2.66415E+3  -4.78495E+2
   7.14921E+3   3.95519E+3
   8.85098E+2  -1.54594E+3
   3.14436E+3  -3.01300E+3
   1.45348E+2   7.81504E+2
  -3.58016E+3  -2.28537E+3
  -1.69260E+3  -3.18059E+3
  -1.36072E+3  -1.53084E+3
  -5.17150E+2  -3.05663E+3
   2.09591E+3   7.76093E+2
  -1.37450E+3   7.28945E+3
  -6.77653E+3   5.10773E+3
  -2.27609E+3  -2.60019E+3
  -1.13789E+3   4.59991E+2
   2.87353E+3   1.89152E+3
  -4.44830E+2   4.92148E+3
  -8.10612E+2   2.79363E+3
  -4.54811E+2  -7.05477E+2
   3.56523E+3   1.44351E+3
   4.00729E+3   6.86537E+3
  -2.85805E+3   1.57108E+3
   1.86213E+2  -2.83727E+3
   4.84997E+3  -3.06309E+2
   1.10707E+3   3.81872E+3
  -3.01422E+3  -3.42950E+3
   1.01991E+3  -5.12120E+3
   3.50651E+3  -2.51891E+3
   5.70758E+3   6.26086E+2
   8.26548E+1   5.42881E+3
  -7.68149E+3   3.93373E+2
  -1.19281E+3  -8.91329E+3
   4.20907E+3  -9.22082E+2
  -1.60902E+3   2.07130E+3
  -1.43646E+3   2.40043E+2
   3.15374E+3  -2.39092E+3
  -8.56938E+2   3.15013E+3
  -5.88664E+3  -3.89349E+3
   7.70233E+2  -3.72692E+3
   8.56895E+2  -2.21170E+3
   3.96277E+3  -3.92533E+3
   9.09864E+3   3.21949E+3
   2.77690E+3   6.62469E+3
  -3.03377E+3   4.97868E+3
  -2.43509E+3  -1.20335E+3
  -1.39336E+3  -1.80885E+3
  -3.48154E+3   8.42616E+2
  -3.41486E+3  -2.24605E+3
   2.82407E+2  -3.50910E+3
   9.85611E+2  -6.01086E+1
  -1.82036E+3   7.15155E+2
  -3.35633E+3  -1.17829E+3
  -4.14451E+3  -4.09975E+3
   5.82459E+2  -2.03473E+3
   2.62398E+3  -2.59299E+3
   2.51132E+3  -7.28145E+2
   2.65844E+3   3.60071E+3
  -2.55622E+2   6.41039E+3
  -3.85270E+3   4.25559E+3
  -4.39313E+3   5.27945E+1
  -2.51406E+3  -4.39867E+3
   8.02254E+2  -4.89379E+3
   3.21427E+3   1.81898E+3
   3.29695E+2   1.23544E+3
  -3.39255E+3  -5.24648E+1
   2.59786E+3  -1.44754E+3
   4.90330E+3   1.32893E+3
  -1.03055E+3   3.90706E+3
  -3.54623E+2  -2.10400E+2
   1.17980E+3  -1.88725E+2
   3.97413E+2   1.00282E+3
   5.55920E+2  -1.07724E+0
   4.64516E+2   1.64961E+3
  -9.31943E+1  -1.94357E+2
  -1.07543E+3  -5.18940E+2
   8.62666E+2   9.12252E+2
  -1.38668E+3   6.47902E+2
  -2.31529E+3   1.01042E+2
   1.36512E+3  -1.32904E+2
   6.59745E+2   3.43199E+3
   1.10585E+3   9.14918E+2
  -6.63206E+2  -1.28765E+2
   1.06206E+3   3.30592E+2
  -2.97555E+2   1.89742E+3
  -2.45694E+3   2.06244E+3
  -3.34590E+3  -2.34975E+3
   9.18455E+2  -3.11619E+3
   4.04959E+3  -2.21688E+3
   1.38119E+3   2.66021E+3
  -7.82552E+2   1.05794E+3
   5.87086E+2  -1.10289E+3
   2.89401E+3   1.95542E+2
   8.36169E+1   2.97455E+3
  -3.26304E+3  -1.15665E+3
  -3.53078E+3  -2.88233E+3
   3.25226E+3  -1.31999E+3
   2.39228E+3   1.40274E+3
  -2.63807E+3   1.96816E+3
  -3.00583E+3  -1.19401E+3
   9.34258E+2  -2.39804E+3
   4.96462E+3  -4.11911E+3
   2.00971E+3   2.27092E+3
  -1.36192E+3   1.81105E+3
  -1.47760E+3  -1.39130E+3
  -1.52902E+3  -1.24772E+3
  -1.48895E+3  -7.01380E+2
   5.47621E+2   6.70752E+2
   1.85659E+2  -6.23349E+2
   1.89796E+3  -2.07543E+3
   3.62109E+3  -8.46717E+2
   2.05174E+3   2.54637E+3
   9.11464E+2   2.23495E+3
   4.04997E+2  -3.19830E+2
  -1.20627E+3  -5.20870E+2
  -1.79745E+2  -2.18840E+3
  -3.70203E+2  -4.55724E+2
   3.58455E+2  -1.59480E+3
  -1.52835E+2  -4.17183E+2
  -8.54790E+2  -1.81710E+3
   1.06281E+3  -6.65082E+1
  -2.28649E+3  -2.12404E+3
  -7.21755E+2  -1.72530E+3
   1.02558E+3   1.15089E+3
  -1.03114E+3  -8.85562E+2
  -6.06882E+2  -6.96785E+2
   6.55906E+2   7.57541E+2
  -6.46234E+2   1.77060E+3
  -2.32515E+3   2.32171E+3
  -1.47363E+3  -1.90684E+3
  -3.66643E+2  -1.35030E+3
   2.77500E+3   1.05858E+3
  -7.87866E+2   2.59481E+3
  -1.36239E+3   1.39971E+3
   7.30990E+2   8.48498E+2
   1.71408E+3   5.14493E+2
  -6.93535E+2   5.37373E+2
   1.12758E+3   1.23830E+3
  -3.33858E+2   1.86391E+2
  -1.96016E+3  -9.00358E+2
   1.85301E+2   1.59466E+3
  -2.43673E+3   2.50856E+3
  -1.67421E+3   2.57761E+2
  -1.28140E+3   1.43963E+3
   6.66399E+0  -3.24174E+0
  -9.67612E+2   1.97190E+3
   3.39028E+2  -9.18051E+2
  -1.43258E+3   8.34502E+2
   1.82878E+3   1.17967E+3
   6.49923E+2  -4.93740E+2
  -7.90640E+2  -1.67385E+2
   2.08904E+3   1.72796E+3
  -1.58969E+3   9.94510E+2
  -8.47490E+2  -4.98474E+2
   7.81699E+2  -1.20644E+3
  -1.14144E+3  -9.40036E+2
  -1.99370E+3  -1.19395E+3
  -2.36631E+2  -3.96574E+2
   9.49966E+2  -5.00528E+2
  -7.68236E+2   1.33894E+3
  -3.50174E+0  -1.07389E+2
  -1.28294E+2  -2.28673E+3
   1.09747E+3  -3.68213E+1
   9.21084E+2  -1.49074E+3
   6.39484E+2   9.36219E+2
   1.92887E+3  -4.45130E+2
   3.16885E+3  -8.73896E+2
   8.77659E+2   2.08356E+1
   8.59766E+2  -1.29531E+3
   2.84739E+3   8.25625E+2
   2.59522E+2   8.62152E+2
   7.55800E+2   7.24914E+2
  -1.28523E+3   1.06204E+3
   3.76595E+2   2.26025E+3
   1.55710E+3  -9.51644E+2
   1.09327E+3   5.40720E+2
   6.73565E+1   8.13770E+1
   1.97187E+2   1.05474E+3
  -1.50434E+3   1.02430E+3
   5.69545E+2   1.49401E+3
  -1.19575E+3  -1.29809E+3
   8.38880E+1  -1.63933E+3
   2.96361E+2  -1.16293E+3
  -1.26524E+3  -2.72305E+3
   9.40527E+2   1.45201E+2
  -6.87706E+2  -1.14771E+3
  -8.63809E+2  -2.68875E+3
  -1.45314E+2   8.32597E+2
  -9.66099E+2   5.83273E+2
   1.96326E+3   4.28561E+2
   2.53935E+2  -7.85844E+2
  -1.47033E+3   1.27821E+3
   3.52964E+2  -1.72983E+2
   3.18976E+2   1.10164E+3
   4.29589E+2   9.43688E+2
   2.04717E+2  -9.26042E+2
  -2.57093E+2  -3.68137E+2
   8.84789E+1   5.72303E+2
   2.22644E+2   1.31047E+3
   7.49786E+2  -1.41569E+3
  -2.44185E+2  -1.35432E+3
  -1.53247E+3   1.49437E+3
   9.40693E+2   1.10656E+2
   3.88489E+2   3.83380E+2
  -5.64428E+2  -4.16616E+2
   4.52893E+2  -1.42997E+3
   3.36304E+2  -8.22403E+2
  -7.58174E+2   1.20863E+3
   1.42077E+3  -1.28992E+3
   1.03831E+3  -1.55715E+3
  -2.15832E+3  -5.04946E+2
  -4.17583E+2  -1.22842E+3
  -6.99447E+2  -5.91556E+2
   5.87120E+2  -1.30912E+3
  -1.06965E+2   2.14637E+2
   1.05570E+3   4.54560E+2
  -9.53808E+2  -1.65434E+3
  -2.23019E+3  -1.04688E+2
  -9.09962E+2  -1.53203E+3
  -1.01637E+3  -1.21981E+3
  -8.87721E+2   4.62012E+2
   1.39291E+2   2.21984E+1
   3.87948E+2  -1.12371E+3
  -7.74648E+2   1.30582E+3
  -1.49154E+2   3.19824E+2
  -2.23181E+3   1.75427E+3
  -1.92945E+2   8.49390E+2
  -1.01595E+3   6.41077E+1
  -1.10074E+1  -8.53666E+1
  -2.42486E+3  -5.82780E+2
  -4.50873E+2  -1.05320E+3
   1.67632E+3  -1.45160E+3
  -1.30325E+3   4.18567E+2
  -3.84520E+2  -2.09686E+3
  -1.96936E+3  -2.62028E+3
   2.94936E+3  -1.80651E+3
   9.50047E+2   1.75311E+3
  -3.96855E+2   1.14113E+3
  -1.01788E+3  -1.85115E+3
  -1.08203E+2  -6.09955E+2
  -3.53213E+2  -2.99307E+3
  -3.58041E+2   9.27023E+2
  -1.72496E+3   2.95495E+2
  -8.03663E+2   6.66486E+1
   8.72095E+2   7.00749E+1
  -1.68697E+2  -8.63846E+2
  -1.17870E+3   1.06219E+3
   8.45731E+2  -6.79424E+2
   2.08280E+2  -2.40917E+2
  -4.14996E+1  -1.64977E+2
   9.25363E+2  -6.67232E+2
   1.64631E+3  -4.93613E+2
  -6.80061E+2   4.14848E+2
  -9.11778E+2   2.73581E+2
  -1.48161E+3  -5.17947E+2
   7.66134E+2  -2.25919E+2
   7.12094E+2  -1.24881E+2
   2.06961E+3  -2.19638E+2
   1.22799E+3  -6.28476E+2
   1.13814E+2  -5.87800E+2
  -7.84207E+2  -4.35502E+2
   1.43764E+2  -1.26226E+3
   6.64632E+2   9.85644E+2
   2.60792E+3   4.70975E+2
   5.91628E+2   1.77959E+3
  -4.48662E+2   4.22216E+2
   1.79548E+3   1.81345E+3
   7.75963E+2  -8.08838E+2
   5.00813E+2   4.63789E+2
  -4.00381E+2  -1.81161E+3
  -9.89222E+0  -1.35778E+3
  -3.24631E+2  -2.82033E+2
   1.37253E+3   2.02221E+3
   9.37292E+2   1.79747E+3
   3.95434E+2  -2.26875E+2
   1.40493E+2   2.89594E+2
   1.04033E+3   2.04047E+3
  -2.08583E+3   3.11642E+1
  -1.01200E+3   1.32565E+1
   1.41251E+3   1.02501E+3
  -1.44760E+3   1.53998E+3
   1.93089E+3   1.15452E+3
  -1.05814E+3   1.52589E+3
  -2.05640E+3  -7.00510E+2
   8.21732E+2  -6.37441E+2
   2.20429E+2   1.07723E+3
  -1.01079E+3   1.02397E+3
   4.75352E+2   5.66280E+2
  -6.81040E+2   1.87672E+3
   1.28017E+3  -1.89393E+1
  -1.74458E+2   3.56810E+2
  -1.40369E+3   1.11589E+3
   5.73802E+2   3.95942E+2
   1.13605E+3  -6.48482E+2
  -3.02927E+2   2.78139E+2
  -1.57993E+3   5.22543E+2
   9.15093E+2   1.18665E+3
  -1.19176E+3  -1.14804E+3
   3.39099E+2   9.59902E+2
   1.30172E+3  -1.94929E+2
   7.01116E+2   7.35967E+2
   2.00356E+2   9.58415E+2
  -1.30181E+2  -1.09444E+3
   1.83546E+3  -1.22964E+2
  -2.25710E+2   1.09757E+3
  -5.11392E+2   9.07981E+2
  -8.80881E+1   1.93283E+3
  -1.28286E+3  -3.82260E+2
  -7.50061E+2   5.04889E+2
  -1.86090E+3   4.00289E+1
   1.22351E+1   4.66243E+2
   7.39783E+2   2.77095E+2
   2.64859E+2   1.71244E+3
  -1.33192E+2   5.09280E+2
  -1.50676E+2   1.65815E+2
  -7.37104E+2   2.86185E+2
   5.83127E+2  -2.02366E+3
   1.19104E+3   1.33062E+3
   7.08383E+2  -7.81821E+2
  -1.08856E+3  -2.13822E+2
  -2.11785E+3   7.22543E+1
  -6.02566E+2  -1.19650E+3
  -2.57835E+3  -4.85859E+2
   1.11372E+3   1.53476E+2
  -1.49720E+3   8.77272E+2
   3.92217E+2  -4.23924E+2
   4.02341E+2   1.83934E+3
  -1.78047E+2  -5.40205E+2
   7.86137E+2  -3.99354E+2
  -9.54124E+2   1.46161E+2
   1.61953E+3  -1.17138E+2
  -5.95067E+2   2.05561E+3
  -1.67802E+2   2.37484E+3
  -1.64546E+3   1.64355E+3
  -1.15339E+2   1.98102E+3
  -5.54062E+0   3.65540E+2
   6.40634E+1  -1.06072E+3
  -1.69108E+3   2.43240E+3
   1.41494E+2   1.12940E+2
   1.53758E+2   1.01925E+3
  -9.36362E+2   2.25644E+3
   8.00881E+2   4.82002E+1
   8.45897E+2   3.70170E+2
   4.42010E+2   5.18263E+2
  -1.19076E+3  -3.47855E+2
  -4.29925E+2   1.47110E+3
   1.32335E+3   4.96805E+2
   5.93187E+1   8.09606E+2
  -2.01815E+3   1.10551E+3
   3.67956E+2  -1.46320E+2
  -7.73979E+1  -2.25209E+2
   1.32603E+3  -1.73436E+3
  -3.10572E+2   2.99101E+3
  -9.26072E+2  -1.18174E+1
  -1.64696E+3  -4.23471E+2
   2.38963E+3   1.37390E+3
  -9.39363E+1  -7.53909E+2
  -5.07735E+2  -2.23509E+2
  -1.42520E+2   5.61732E+2
  -2.54729E+2   6.83580E+2
  -6.37460E+2   1.53821E+3
   1.23933E+2  -1.07517E+3
   5.75439E+2  -1.74343E+3
   1.57081E+3   2.38742E+2
  -1.79693E+2  -2.26654E+3
  -6.09960E+2  -4.57549E+2
   3.58261E+3   1.55528E+3
   9.63668E+2  -9.11140E+2
