 
 $NMID
 ID=''
 FMTDAT='(2E13.5)'
 TRAMP=   1.00000E+0
 VOLUME=   1.00000E+0
 $END
   6.09967E+2   7.13237E+2
   7.34222E+2   9.30646E+2
   5.46158E+3  -5.62274E+3
  -4.62897E+3  -6.08880E+3
  -5.23018E+3  -5.62490E+2
   2.32444E+3   3.13396E+3
   7.65009E+2  -4.20368E+3
  -5.10428E+3  -3.64222E+3
  -5.91112E+3   2.54586E+3
  -1.30280E+3   1.20909E+3
  -2.62835E+3  -5.24808E+3
  -2.11632E+3  -3.24793E+3
  -1.94229E+3   2.28416E+3
  -1.31667E+3   4.35039E+3
   2.16191E+2   3.77468E+3
  -3.10092E+3   1.80026E+3
  -1.23452E+3  -3.37384E+2
   2.21414E+3   6.32349E+2
   1.67737E+3   3.86889E+2
   1.78664E+3  -2.10412E+2
   1.03798E+3   3.22591E+2
   2.72537E+3  -7.61218E+2
   4.42137E+3  -1.88620E+2
   3.45630E+2   6.93605E+2
  -1.36358E+3  -4.79984E+1
   1.77056E+3  -3.70461E+3
   4.91703E+3  -7.10020E+2
  -7.25280E+2   1.50580E+3
  -2.55063E+3   5.93454E+2
  -2.79790E+3  -5.02029E+3
   2.25035E+3  -4.28796E+3
   2.61764E+3  -9.03910E+0
  -2.81376E+2   3.18592E+3
  -1.20836E+3  -8.38096E+0
  -1.16900E+3   1.98735E+3
  -2.19472E+3   3.61782E+3
  -4.62778E+3   3.51139E+2
  -1.32525E+3  -1.63573E+3
  -6.69569E+1   2.17421E+2
   1.85730E+3  -4.76891E+2
   1.56075E+2  -2.68454E+2
   2.23628E+3   2.17941E+3
  -1.81989E+3   3.39780E+3
  -2.39093E+3   9.62594E+1
  -2.49044E+3  -2.69709E+3
  -1.33430E+3  -2.26926E+3
   2.46880E+3  -1.05831E+3
   1.58089E+3  -2.07800E+3
   2.92613E+3  -3.63165E+3
   2.97050E+3  -1.11588E+2
  -4.64090E+2   3.65928E+3
   3.82661E+1   2.44587E+3
  -3.46252E+3  -1.01848E+3
   3.59191E+0  -2.06962E+3
   1.75786E+3  -1.47712E+3
   5.18784E+2  -1.05929E+3
   2.03750E+3   4.12746E+1
   2.48231E+3   2.29293E+3
  -1.77365E+3   1.25162E+3
  -1.28630E+3   1.41331E+3
  -3.06155E+3  -1.33544E+3
  -2.26925E+3  -2.70802E+3
   4.68712E+2  -1.49934E+3
   1.29901E+3  -1.98830E+2
  -5.73922E+2  -6.00720E+2
   8.93343E+2  -2.27034E+2
   1.54393E+3  -2.88170E+3
   4.99894E+3   2.12882E+3
   1.03400E+3   1.64260E+3
   1.77133E+3   1.02325E+3
   2.74745E+3   5.30553E+2
   4.59061E+2  -3.65774E+2
   1.42090E+2  -3.52956E+2
   2.72497E+2   3.11441E+3
  -9.47628E+2   1.00201E+2
  -1.11586E+3  -9.71350E+2
   2.91522E+2   9.55749E+2
  -6.05381E+2   1.22765E+3
  -1.78153E+3  -2.39098E+3
  -5.64514E+2  -2.67373E+3
   1.41420E+3  -1.38777E+3
  -2.90977E+2   1.21684E+3
  -9.84318E+2   2.66405E+2
   1.95191E+3   9.36026E+2
   2.74080E+3  -1.68517E+3
   1.59060E+3  -4.54631E+2
   1.32057E+3   2.52003E+2
  -1.93170E+3   5.35002E+2
  -5.33233E+2   2.97947E+2
  -1.42647E+3   1.21993E+3
  -2.60412E+3  -6.92958E+2
   2.24090E+2   9.25483E+2
  -2.42073E+3  -7.94592E+2
  -8.71891E+2  -4.99726E+2
   2.03004E+3   1.85316E+3
  -2.11814E+2   2.56233E+3
  -3.01020E+3  -3.47726E+2
  -2.28060E+3  -1.36512E+3
   3.10671E+2  -2.69102E+3
   2.18253E+3   8.22029E+2
   7.78050E+1   2.18927E+3
  -2.77113E+3  -1.69408E+2
  -2.55537E+3   4.77676E+2
  -7.63115E+2   1.78759E+2
  -9.19912E+2  -7.32549E+2
  -5.63915E+2  -7.52673E+1
  -3.88267E+1   7.33699E+1
  -2.81540E+2   6.66700E+2
   2.51970E+3  -2.69763E+2
   1.52427E+3   7.92428E+2
   3.97951E+2   1.89267E+3
  -7.48970E+2   1.70149E+2
  -9.07908E+2  -2.74091E+2
  -9.29834E+2  -5.85730E+2
  -1.60501E+2  -1.33887E+3
  -1.73742E+3  -9.27358E+2
   8.58433E+2  -1.27816E+3
   1.86249E+3   1.05541E+3
   4.44125E+2   6.77920E+2
  -6.22706E+2   7.55584E+2
  -4.44749E+2  -2.99396E+2
   9.21168E+2  -1.32924E+3
   1.33416E+3  -8.89148E+2
   3.24337E+2   5.12870E+2
   2.66329E+2   1.42140E+2
   3.84811E+2   1.14133E+3
   3.22489E+2   2.68835E+2
   8.27018E+2   2.61734E+2
   1.60304E+2  -2.72125E+2
   7.96614E+2   1.61335E+3
   1.52643E+3   5.98718E+2
   1.10174E+3  -5.77640E+2
  -6.55362E+2   6.14482E+2
  -3.98802E+3   1.08563E+3
  -3.40479E+2   1.22288E+3
   8.50580E+2  -2.26909E+3
   2.15262E+3  -9.73421E+2
   6.88133E+2   9.46378E+2
   3.59536E+2   6.36668E+2
   1.99304E+3  -9.19978E+2
   1.96528E+3  -4.37393E+2
   3.59844E+2  -2.07399E+2
  -1.70435E+3  -9.95643E+2
  -5.96738E+2  -2.11449E+3
   1.19853E+3  -2.27079E+3
  -1.92981E+3  -5.04333E+2
   1.61504E+3   7.32727E+2
  -6.09339E+1   1.08832E+3
   5.46294E+2   7.72553E+2
  -6.60535E+2  -4.91450E+1
  -1.05110E+3  -2.44161E+2
   1.41693E+3   5.57054E+2
  -3.60322E+2   1.68760E+2
   1.44571E+2  -2.29666E+3
   5.29873E+1   1.20700E+2
   7.60713E+2   9.86274E+2
   8.89247E+1  -8.48275E+2
   1.12043E+2  -4.16838E+1
  -1.07776E+2   5.89742E+2
   2.58638E+3  -2.78696E+3
  -2.39135E+2  -1.92527E+3
  -8.89121E+2  -9.76555E+2
   1.79073E+3   5.76348E+2
   1.46042E+1  -4.69877E+2
   7.11294E+2  -4.59408E+2
   1.46510E+3  -8.14293E+2
   2.14988E+2  -1.12004E+3
   1.20367E+3  -2.04953E+3
   4.12103E+2   1.04379E+3
   8.18602E+2   2.25500E+3
  -1.15391E+3  -1.81081E+3
   1.60461E+3  -4.59380E+2
   1.51186E+2  -2.56873E+2
   4.45545E+2  -9.52511E+1
   2.34190E+3  -8.73429E+2
   4.43495E+2   9.44906E+2
   1.06534E+3   1.75262E+3
  -3.07841E+2  -9.62552E+1
   1.11286E+3  -6.56723E+2
   9.32385E+2   5.40994E+1
   6.98131E+2  -8.11110E+2
   5.15806E+2   7.28999E+2
  -1.19262E+2  -4.64616E+2
  -1.54909E+3  -9.96619E+2
  -2.99851E+2   5.68797E+2
  -2.16758E+3  -2.08992E+2
   3.21053E+2   1.21594E+3
  -8.14223E+2   5.32470E+2
  -3.05827E+2  -1.52814E+3
  -9.39817E+2  -5.18832E+2
   1.33933E+3  -1.31511E+3
  -1.24334E+3   4.25823E+2
   6.27515E+2   1.54823E+3
  -1.07160E+3  -5.63790E+2
   8.34802E+2   1.05232E+3
  -2.78141E+2  -9.28422E+2
   4.52174E+2  -3.10848E+1
   5.22397E+2  -1.61863E+2
  -2.32023E+2  -1.54670E+3
   4.96271E+2   4.65409E+2
   6.01035E+2   3.22378E+2
  -6.27935E+2  -4.81495E+2
   1.92540E+3  -1.03234E+2
  -4.30776E+2   1.64621E+0
  -2.56809E+3   8.75208E+2
  -1.14283E+3   4.62049E+2
  -1.02632E+3  -2.33850E+2
  -1.34303E+3  -4.98186E+2
  -2.38931E+3  -3.68773E+2
   1.10888E+3   9.86286E+1
   8.39733E+1   2.86697E+2
   4.48110E+2   1.93930E+3
  -1.18868E+3  -2.32055E+3
   5.99850E+2  -1.28559E+3
  -2.20624E+3   5.16438E+1
   1.77015E+3   6.83622E+2
   1.40613E+3   2.30571E+2
  -3.83102E+2   4.74743E+0
   1.25869E+3   1.49683E+3
  -3.82934E+2   2.13301E+3
  -6.10884E+2   2.89354E+2
   5.61615E+2  -5.49327E+1
   2.88154E+3   7.95398E+2
   8.25026E+1   1.86775E+2
   6.54003E+2   1.16362E+3
  -2.68159E+2   6.02823E+2
   3.24220E+3   8.09356E+1
   6.26253E+2   1.66756E+3
   2.01991E+3   3.08797E+2
   2.12225E+3   7.29989E+2
   1.04271E+3   1.07919E+2
   4.50145E+2   1.67411E+3
  -7.49350E+1   2.61701E+1
  -2.36582E+2   1.09182E+3
   4.29864E+1  -1.03832E+3
  -4.86714E+2   1.04848E+3
   3.47969E+2   6.55482E+2
   1.09796E+3  -1.21119E+3
   9.73029E+2   2.24577E+2
  -2.37069E+2   1.16625E+3
  -4.75188E+2  -2.15278E+2
   5.75795E+2  -1.18435E+3
  -2.05192E+2   1.42402E+3
   1.25994E+2   1.97449E+2
   1.16588E+3  -7.82224E+2
  -5.15177E+2   5.22280E+2
  -1.47103E+3   7.83160E+2
   3.58623E+2   5.67280E+2
   1.39925E+1   6.18590E+2
   1.82292E+3  -8.94313E+2
  -2.10971E+3   3.42249E+2
   1.10372E+3  -1.47527E+2
   7.64597E+2  -5.79629E+2
  -6.60769E+2   5.41939E+2
  -1.96752E+3  -1.31379E+3
  -1.86123E+2  -1.27887E+3
   1.01056E+3  -4.68710E+2
  -2.36349E+2   7.23877E+2
  -3.04085E+2  -2.98724E+3
   1.59940E+3  -2.81076E+2
  -3.00094E+2  -9.44469E+2
  -4.39498E+2  -2.82766E+1
   3.30698E+2   2.86750E+2
  -1.07403E+3  -1.23102E+3
   7.67834E+2   4.41089E+2
   2.14771E+1  -2.19395E+2
  -1.15736E+3  -7.23812E+2
   1.80554E+3  -2.23654E+3
   1.18130E+3  -2.21200E+3
   2.00318E+2   2.09802E+2
   5.44082E+2  -1.07594E+3
  -2.34143E+3   8.79782E+2
  -2.44121E+2   1.27457E+3
   4.43370E+3  -1.37808E+3
   6.11059E+2   9.97850E+2
   1.14339E+3   1.34928E+3
  -2.54628E+3  -1.04883E+3
   4.24453E+2  -8.35620E+2
  -6.11662E+1  -8.06080E+2
  -8.01703E+2   8.18703E+1
  -1.54812E+3   6.23724E+2
  -1.44429E+3  -6.45506E+2
  -1.64747E+2   8.81810E+2
   7.61716E+2  -4.06210E+2
   7.91540E+2  -1.90853E+2
  -8.32080E+2  -1.57930E+3
   2.49952E+3  -9.41489E+2
   2.30767E+2  -2.18215E+3
  -7.86199E+2   2.47016E+2
   2.56374E+2   2.12209E+3
  -2.00776E+3  -1.41681E+3
  -1.25146E+3   1.68855E+3
  -5.62647E+2  -4.52882E+2
  -2.67099E+3  -7.37846E+2
   1.09716E+3  -3.99053E+1
  -1.71943E+3  -8.53440E+2
  -2.28709E+3   1.40947E+2
  -1.45745E+2   9.52099E+2
  -3.71966E+2  -1.76450E+3
   1.96684E+2   9.21720E+2
   5.12088E+2   1.75374E+2
  -5.23141E+2   6.47184E+2
   1.05206E+2   1.38243E+3
  -9.34505E+2   9.15618E+2
  -1.04539E+3  -5.88610E+2
   5.43298E+2  -9.36548E+2
  -1.33241E+3   6.15374E+2
  -3.36341E+3   8.76647E+2
  -8.26992E+2  -1.06100E+3
  -6.76409E+2  -5.24210E+2
  -4.21774E+2   4.80472E+2
   1.02564E+2  -9.76231E+2
   1.04046E+3  -1.09030E+3
  -5.27874E+2   2.24220E+2
  -7.52027E+1  -5.24069E+1
  -1.65340E+3   1.53840E+3
  -6.57963E+2  -1.91075E+3
  -1.74782E+3  -1.43671E+3
   2.67243E+2   6.09811E+2
  -3.71275E+2   8.23053E+2
   6.75746E+2   9.96445E+2
  -1.11835E+3  -1.28326E+3
   5.24108E+2  -4.84728E+2
   1.59382E+3   4.16278E+2
  -3.33751E+2   1.19063E+3
   2.88137E+2   5.50829E+2
  -6.33340E+2  -1.83056E+3
  -2.36239E+2  -5.20448E+2
   3.93182E+2   1.00831E+3
  -4.71674E+2   2.08989E+3
  -7.40416E+2  -5.02080E+2
  -1.28397E+3   6.16020E+2
   3.42454E+2  -1.45344E+3
  -2.66729E+2  -4.01325E+1
   1.34203E+3   1.18572E+3
   1.76589E+3  -7.47380E+2
   1.07447E+3   1.42657E+3
   1.53650E+2   3.57314E+2
  -1.11775E+3  -3.24852E+2
  -1.68999E+3  -1.97787E+2
   5.14890E+2  -1.19338E+3
  -3.34039E+2  -1.51709E+2
   1.48886E+2   1.94376E+3
  -1.34872E+2   3.44529E+3
  -1.01690E+3   1.56043E+3
  -2.72265E+2   1.25012E+3
  -1.25906E+3  -1.81168E+2
  -6.75798E+2  -9.90632E+1
  -5.72784E+2  -1.00037E+3
   7.09818E+1  -1.86398E+3
   3.93947E+2  -1.19837E+2
  -6.06388E+2   2.42204E+2
   4.37373E+1   2.27137E+2
  -1.73131E+3  -7.55634E+2
   1.45554E+3  -7.68302E+2
   3.68513E+2   4.75948E+2
  -4.19628E+1   7.62043E+2
  -2.11420E+1  -4.06364E+2
  -1.42445E+3   2.61900E+3
   8.34003E+2   1.17130E+3
   2.06907E+3   1.21454E+2
  -1.05154E+3   2.48541E+2
   1.64027E+3   1.46316E+3
   3.34045E+2  -2.85749E+2
   7.42662E+2   1.53022E+2
   2.00635E+3  -4.74486E+2
  -1.25534E+3  -2.19926E+1
