 
 $NMID
 ID=''
 FMTDAT='(2E13.5)'
 TRAMP=   1.00000E+0
 VOLUME=   1.00000E+0
 $END
  -2.20683E+1  -3.96111E+2
   8.51680E+2   1.67526E+3
  -1.64211E+3  -4.33807E+3
  -4.82396E+2   1.30321E+3
   3.96175E+2   1.86786E+3
   2.56614E+3   4.61816E+2
   1.92600E+3   2.16287E+2
   1.22532E+2   1.96184E+2
  -1.51218E+3  -3.62981E+3
  -1.35859E+3  -4.05936E+3
  -1.74375E+3  -2.74764E+3
   8.52324E+2  -1.91993E+2
   1.84156E+2   4.52185E+3
  -4.09699E+3   3.29883E+3
  -1.17861E+3   2.88408E+2
   9.58431E+2   8.21507E+2
   1.34623E+3  -2.33207E+2
   8.09444E+2   7.09137E+2
   1.87272E+3   2.04337E+3
   1.95208E+2  -8.10480E+2
   6.45482E+2  -3.24243E+3
   2.48571E+3   7.86085E+2
  -3.03144E+3   7.12575E+2
  -4.84945E+3  -1.08777E+3
  -2.12941E+3  -6.33562E+2
   2.73570E+3  -5.24529E+1
  -6.50925E+2   5.04531E+3
  -4.39841E+3   3.66292E+2
  -3.55293E+3  -1.44453E+3
   3.61337E+3  -2.87408E+3
   3.78571E+3   1.95896E+3
  -4.96905E+1   4.19475E+3
  -1.58080E+3  -2.61943E+3
   2.63501E+2  -2.36967E+3
   7.75915E+2   3.58804E+2
  -1.43718E+3  -1.04115E+3
   1.20704E+2  -3.59601E+3
   1.70091E+3  -7.81079E+1
   1.86103E+3  -4.98796E+2
   1.19870E+3   4.78527E+2
   2.05487E+3   1.21784E+3
  -1.20405E+3   1.01290E+3
  -2.80514E+3  -5.76082E+3
   2.74306E+3  -6.18794E+3
   2.95605E+3  -4.20949E+3
   2.57048E+3  -2.24014E+3
   2.39560E+3  -1.33012E+3
   2.06803E+3   1.02919E+3
   5.43400E+2   4.61220E+3
   2.29832E+2   2.96287E+3
   9.38553E+1   1.14089E+3
   1.28665E+2  -4.09374E+1
   9.39816E+2   2.35394E+3
   2.53038E+3   2.23936E+3
   1.69052E+3   9.63440E+2
  -3.07131E+2   3.76749E+3
   2.05035E+3   2.20405E+3
  -2.24826E+3   2.01070E+3
  -2.89610E+3  -2.98645E+3
  -4.68929E+2  -2.91189E+3
   4.43193E+2  -3.51943E+3
   2.44607E+3  -2.22028E+3
   2.23373E+3   3.10984E+3
   9.36465E+2   1.37008E+3
   4.04523E+2  -4.90855E+2
   2.14944E+3   5.40751E+2
  -5.89798E+2   4.88623E+3
  -1.83578E+3   2.48388E+3
  -3.74212E+2  -5.45793E+2
   2.45456E+3   5.32502E+2
   7.03404E+2   9.53663E+2
  -1.11696E+3   9.87377E+2
  -7.60621E+2   7.69436E+2
  -2.49944E+3  -4.38215E+2
  -8.03573E+2  -4.98284E+2
   2.04365E+2   9.44295E+2
  -9.94462E+2   1.56645E+3
  -3.13412E+3   1.41916E+3
   1.01281E+3   1.48942E+3
   1.75329E+3   2.56317E+3
   5.93980E+2   2.23496E+3
   7.21247E+2  -1.99260E+2
   1.81637E+3  -1.29739E+3
   2.44127E+3   1.32953E+3
  -7.57108E+2   2.07566E+3
  -3.22866E+3  -7.04495E+1
  -1.24104E+3  -2.09209E+3
   4.63121E+1  -1.65532E+3
   2.09632E+3  -7.98194E+2
   1.05778E+3  -2.26725E+2
  -3.86690E+2  -6.63893E+2
   2.01685E+3  -1.42244E+3
   1.52618E+3   2.66589E+3
  -1.62942E+3   2.92083E+3
  -2.43678E+3   5.76603E+2
  -3.42724E+2  -2.31664E+3
   4.69345E+2  -1.53604E+3
   2.24828E+3  -1.42909E+3
  -5.41078E+1  -1.06048E+2
  -2.43491E+3  -1.59562E+3
   6.29375E+2  -1.64470E+3
   3.04711E+3  -2.08109E+3
   2.34435E+3   6.91708E+2
   4.64295E+1  -2.03680E+3
  -2.71648E+3   8.56566E+2
   9.31194E+1  -8.09633E+2
  -2.65683E+1   1.89695E+3
  -6.71896E+2  -1.30323E+3
  -8.94393E+2   3.45849E+2
  -1.08777E+3  -2.20551E+3
   1.48129E+3  -2.51548E+3
   1.41322E+2  -2.50991E+2
   1.80021E+3   2.32349E+3
   3.76126E+3   1.96442E+3
  -1.03920E+3   2.11107E+3
  -2.10925E+3   9.03397E+2
  -8.83605E+2  -4.46055E+2
  -3.58330E+3  -1.08214E+3
  -3.25411E+3  -2.07003E+3
   8.92152E+2  -9.54766E+2
  -1.32340E+3   7.55462E+2
  -1.50859E+3   1.44497E+2
  -4.04293E+3  -1.78345E+3
  -1.37180E+3  -2.79044E+2
   4.83367E+2  -1.90266E+2
  -4.88644E+2  -7.51688E+1
  -4.90962E+2   2.00232E+2
  -2.05722E+3   6.31464E+2
   1.37000E+2  -1.05954E+3
   5.04120E+2  -1.21926E+3
  -1.47048E+3   1.25384E+2
  -4.14496E+2  -2.38819E+3
   1.44570E+3  -1.73463E+3
   8.53721E+1   2.80693E+3
  -2.46990E+3   9.38764E+2
   2.55827E+2   8.93949E+2
  -1.44786E+3   5.76611E+2
  -1.66584E+3  -1.53895E+3
  -5.37656E+2  -9.50969E+2
   6.28726E+2  -2.67139E+3
  -5.22390E+2  -2.34343E+3
   5.60114E+2  -2.33285E+3
   2.44110E+3   8.49642E+2
  -1.40720E+2   1.70039E+3
  -1.16066E+3   9.11339E+2
  -1.62802E+1  -6.32546E+2
  -1.05797E+2  -3.66868E+1
   6.82803E+2   3.90995E+2
  -1.56726E+3   4.01139E+2
  -6.17803E+2  -1.42224E+2
   1.68283E+3   1.72351E+3
  -1.47371E+2   2.21566E+3
  -2.11208E+3  -2.41385E+2
   2.65084E+2  -1.26420E+3
   2.00451E+2  -2.62748E+3
   1.34271E+3  -3.87131E+2
   1.71428E+3   1.02310E+3
   9.92535E+2  -8.13073E+1
   2.18486E+2  -2.12999E+3
  -2.32483E+2   9.01873E+2
  -1.00987E+3  -4.84002E+2
  -3.71941E+2   2.28860E+3
   1.11351E+3  -4.32290E+2
  -1.10498E+3  -1.59906E+3
  -1.28121E+2  -4.77536E+2
  -3.99426E+3   9.23359E+2
  -3.89077E+1   2.18299E+3
  -1.00194E+3  -3.80608E+3
   1.09766E+3  -1.48322E+3
   3.08069E+3   2.77441E+3
   7.21395E+2   8.24372E+2
  -6.11848E+2   4.24531E+2
  -1.76152E+2   6.00371E+2
   4.07585E+2   3.27024E+2
  -5.25637E+2  -3.29657E+2
  -7.66937E+2  -3.18923E+3
  -7.32672E+2   7.21410E+2
   8.46647E+2   1.43333E+3
   2.52813E+2   1.04953E+3
  -2.79116E+2   1.16105E+2
  -1.52715E+3   1.72057E+3
  -6.28892E+2  -7.99360E+2
  -1.65329E+3   1.05741E+2
   6.96919E+2  -4.77764E+2
  -1.41681E+2   1.16529E+3
   4.09444E+2  -3.01277E+2
  -4.51558E+2   1.07372E+3
  -8.43676E+2   1.69218E+3
  -1.87903E+3   4.15167E+1
   1.57566E+3   5.38507E+2
  -1.71627E+2   3.96052E+2
   7.77813E+2  -1.48307E+3
  -2.30901E+3   2.10317E+3
  -4.12550E+1   1.17165E+3
  -3.21155E+2  -3.88570E+2
   1.26553E+3   4.12818E+2
   6.76147E+2   1.67495E+3
   3.79114E+2  -5.55745E+2
  -2.07548E+2  -1.98460E+3
   1.91036E+3  -5.79109E+2
  -2.94154E+2   2.35888E+3
   2.47293E+2   9.55247E+2
   4.98032E+2  -7.85768E+2
   8.62240E+2  -2.93672E+3
  -1.15877E+3  -1.36077E+3
  -9.38952E+0  -3.59384E+2
  -4.26586E+2  -1.36759E+3
   5.75117E+1  -2.19042E+3
  -3.51260E+1  -1.78491E+3
  -2.37575E+2   1.36678E+3
  -1.13192E+3   4.53002E+2
   9.39665E+2   6.78115E+2
   3.42320E+2  -1.37088E+3
   9.18489E+2   8.96822E+0
  -1.01621E+3  -6.45005E+2
  -1.43002E+3   1.55034E+3
  -1.52612E+3  -6.15857E+2
   9.00737E+2  -7.13694E+2
  -3.45690E+3  -3.25909E+1
  -3.61747E+2  -5.20445E+2
  -2.63110E+2   6.61209E+1
   5.35208E+2   8.96982E+1
   1.61565E+3   4.07197E+2
   7.82673E+2  -2.93966E+2
  -2.15136E+3  -6.41163E+2
   5.44763E+2  -1.15646E+3
   2.15840E+3   1.28756E+3
  -2.38041E+2   9.29091E+2
  -6.50350E+2   4.75683E+2
  -1.22252E+3  -1.24034E+3
  -8.64513E+1  -6.84988E+2
   1.21117E+2  -1.83849E+3
   6.04683E+1   8.66412E+2
  -9.20545E+2  -3.95791E+3
   1.90513E+3  -2.91362E+3
   7.20573E+2  -5.61847E+2
   2.79513E+2   2.83934E+3
   2.95037E+2  -6.35505E+2
  -6.29123E+2   4.80119E+2
   2.83146E+2  -2.12036E+3
   1.32108E+3   9.33438E+2
  -2.49709E+1   6.95726E+2
   1.87866E+3   7.96435E+2
  -1.52392E+2   6.08208E+1
  -6.89420E+2   1.28805E+3
   1.43307E+2  -2.67616E+2
   3.57015E+2   2.00883E+3
   3.46544E+2  -2.23324E+3
   2.19195E+3  -3.18955E+2
  -2.62979E+2  -6.43831E+2
  -8.96838E+1   1.53627E+3
  -2.37620E+3  -3.23255E+2
   1.14869E+3  -1.93720E+2
   1.12548E+3  -3.12687E+2
  -3.23907E+2  -3.92374E+1
  -4.98127E+2   4.59718E+2
   1.36798E+3  -2.76970E+2
   1.01965E+3  -5.38620E+2
   1.06941E+3   8.29909E+2
  -1.33975E+3   1.22437E+3
  -3.50897E+2   2.80223E+3
  -3.05764E+2  -1.44979E+3
   1.70671E+3  -4.14620E+2
  -5.85727E+0   1.13160E+3
  -3.10835E+2   2.64933E+2
   2.26444E+2  -5.63893E+2
  -9.41869E+2  -1.83700E+3
  -2.94130E+2   8.46973E+1
  -1.17479E+3   1.19881E+2
   5.66162E+2  -1.16446E+3
  -3.58227E+2  -1.41161E+3
   2.57018E+3   1.63326E+3
   1.88035E+3   9.17236E+2
  -1.96487E+2   2.89339E+2
  -1.84894E+3  -1.66447E+3
  -2.22115E+2  -1.69888E+2
  -1.00612E+3   4.74892E+1
  -1.49801E+3   2.78713E+2
  -1.04288E+3  -2.76021E+3
  -8.20896E+2   7.34504E+2
   1.36797E+2   7.08716E+0
   8.09658E+2   1.14563E+3
  -1.57512E+3  -2.73408E+2
  -7.07616E+2  -9.34178E+2
  -6.38895E+2   1.00999E+3
  -4.02781E+2   6.40927E+1
  -7.23387E+2   2.01394E+2
  -3.04501E+2   1.32938E+3
  -2.96808E+3   5.73221E+2
   4.21757E+1  -1.62248E+3
   7.84203E+2   8.62093E+2
  -2.18025E+2  -4.98837E+2
   2.44161E+3  -7.28001E+2
   1.95503E+2   1.13617E+3
  -1.24701E+3   5.56187E+2
  -8.31945E+2   1.49872E+3
  -8.77262E+2  -1.14120E+3
   4.37641E+2  -9.52492E+2
  -2.23233E+3  -1.61807E+3
   3.58013E+2   8.15949E+2
  -2.43110E+2  -3.23806E+1
  -8.00651E+2   5.81383E+2
   2.62454E+3   3.32547E+2
  -9.02621E+1   2.11760E+2
   2.17001E+2   4.09245E+2
  -1.13227E+3  -1.24761E+3
  -3.85828E+2  -1.62062E+3
   6.33466E+2  -1.49917E+3
   5.13927E+2  -1.68487E+2
  -5.77949E+2   6.39803E+2
  -7.34247E+2   7.08209E+2
  -4.16934E+1  -2.20050E+3
   1.57406E+3  -8.39036E+2
   6.53613E+2  -1.86827E+3
  -2.99684E+2  -1.08136E+3
  -2.52811E+2  -8.49769E+2
   1.97181E+3  -2.32894E+2
   5.15763E+2   1.30932E+3
  -1.90432E+3  -9.20642E+1
  -2.62522E+3  -1.14863E+3
  -1.05838E+2  -3.23879E+2
   9.24133E+2  -1.17179E+3
  -3.97666E+2  -3.74558E+2
  -9.33222E+2  -1.40531E+3
  -1.66793E+3  -2.29972E+1
   2.75305E+2   9.88988E+2
   4.65842E+2   2.11385E+3
   3.44633E+2   8.01366E+2
   2.07576E+2  -1.19408E+3
  -3.88742E+2  -2.40999E+3
  -9.92751E+1  -2.48009E+2
   4.65329E+2   1.62528E+3
   7.71726E+2   7.29787E+2
  -5.77190E+2  -6.51036E+2
  -1.98210E+1  -7.34051E+2
  -5.58610E+1   1.38219E+3
  -4.35081E+2  -1.27904E+3
   2.81549E+2   3.43096E+2
   5.27618E+2  -7.02092E+2
  -4.57750E+2  -1.00875E+3
  -2.19182E+3  -3.07737E+3
  -1.08159E+3  -2.13114E+3
   1.18568E+2  -1.30027E+3
   1.66721E+3  -5.87917E+2
  -3.25044E+2   2.50666E+2
  -9.05256E+2   5.11420E+2
   1.41516E+3  -1.05451E+3
  -1.21942E+1  -3.98427E+2
   1.41300E+3  -6.84433E+1
   3.87174E+2   2.37885E+3
  -1.61314E+3  -6.15297E+2
   7.37902E+2   1.14686E+3
  -1.70715E+3  -2.23841E+2
  -1.26241E+3  -1.00624E+3
  -1.06962E+3  -6.03439E+2
  -4.68593E+2  -7.02162E+2
  -9.74578E+2  -6.79172E+2
   6.73404E+2  -1.35791E+2
   1.89202E+2   9.34812E+2
   4.87001E+2  -7.97217E+2
  -4.05970E+2   8.14005E+2
  -9.78632E+2  -5.91223E+2
   2.00593E+2   2.84874E+2
   3.34363E+2  -6.53891E+2
   3.31522E+1  -1.50613E+3
  -3.41459E+2   7.94613E+2
   2.31406E+2   4.21174E+2
