 
 $NMID
 ID=''
 FMTDAT='(2E13.5)'
 TRAMP=   1.00000E+0
 VOLUME=   1.00000E+0
 $END
   1.86124E+2  -5.37290E+2
   8.99531E+1   1.68307E+3
   1.22781E+3  -3.45048E+3
   6.52886E+1   6.23062E+2
   7.21265E+2   2.62041E+3
   2.64420E+3  -2.13461E+3
   2.29869E+2  -2.94184E+2
  -2.69892E+3  -2.22413E+3
  -1.06533E+3  -4.16563E+3
  -1.34356E+3  -1.32748E+3
   2.67411E+2   2.90137E+2
   1.57504E+3   3.48961E+3
   1.92391E+2   4.21968E+3
   4.70042E+2   4.00761E+3
  -7.50691E+2   1.35195E+3
   3.93686E+3  -1.58379E+3
   3.62329E+3  -4.00104E+3
   5.05880E+3  -3.17405E+3
   1.38241E+3   8.01395E+2
  -2.54416E+3  -6.47480E+2
   2.45538E+2  -2.21847E+3
   1.02669E+3   3.10954E+3
  -1.31394E+3   3.63288E+3
  -2.99140E+3  -1.49768E+3
   1.54616E+3  -3.30831E+3
   3.72996E+3   3.15698E+3
   1.31186E+3   2.42135E+3
  -3.10296E+3  -2.55632E+3
  -6.99598E+2  -5.29811E+3
   2.95795E+3  -3.04005E+3
   5.00505E+3   6.35184E+2
  -2.77331E+3   5.66203E+3
  -8.23225E+3   1.00068E+3
  -3.50377E+3  -2.87710E+3
  -4.57473E+3  -8.98703E+2
  -7.46651E+3  -2.00806E+3
  -1.44725E+3  -6.80088E+2
   2.59469E+3   2.27613E+3
   2.04874E+3   3.30615E+3
   2.69322E+3   3.79660E+3
  -1.69078E+3   5.83784E+3
  -4.95222E+3   2.67709E+3
  -3.35296E+3  -4.06629E+3
   5.39791E+2  -4.72729E+3
   3.91631E+3  -4.63772E+2
   2.83449E+3   5.55060E+2
   1.52681E+3   1.13813E+3
   3.00397E+3   1.71945E+3
   1.15986E+3   1.63296E+3
  -1.17510E+3   8.34639E+2
  -1.64498E+3  -2.07468E+2
   1.99207E+2  -4.85585E+3
   5.21192E+3  -1.18573E+3
   4.06003E+3   1.17068E+3
  -5.27147E+2   3.48448E+1
   1.51676E+3   2.49364E+2
  -1.17114E+3  -6.21838E+2
  -3.98235E+3  -1.23088E+2
  -5.88283E+3  -6.66371E+3
   1.60757E+3  -6.30524E+3
   3.74405E+3  -4.26538E+3
   2.83363E+3  -9.91946E+2
   5.60110E+2   2.16554E+3
  -1.56037E+3   1.00328E+3
  -1.77098E+3   3.03896E+1
   1.00088E+3   1.26325E+3
   1.53467E+3   5.07746E+3
  -3.02589E+3   4.81668E+3
  -9.28659E+2  -8.51297E+2
  -2.99901E+1  -7.13683E+2
   2.46473E+2   5.30570E+2
   1.54752E+3   1.08825E+3
  -1.27352E+3   6.89503E+2
   7.99193E+2  -1.60142E+3
   1.56187E+3   9.44036E+1
   2.53257E+2   6.38338E+2
  -7.66291E+2   3.08316E+1
  -4.97111E+2  -1.79720E+3
   2.71059E+3  -2.24390E+3
   2.91647E+3   2.10297E+3
   6.48436E+2   1.52543E+3
   2.93585E+2   1.35507E+3
   1.07673E+3   9.43178E+2
   1.11304E+1   3.24226E+3
  -2.16658E+3   2.19727E+3
  -2.79630E+3   8.06972E+2
  -6.98951E+2  -4.16159E+3
   3.28719E+3  -4.67875E+3
   3.51596E+3   9.64181E+2
  -2.94618E+2   2.02091E+3
   3.44531E+2   1.05953E+3
   8.44144E+2   1.15577E+3
   1.59214E+3   1.84613E+3
  -2.66610E+3   3.65135E+3
  -4.00415E+3  -1.34347E+3
  -2.14544E+3  -2.71610E+3
   2.44648E+3  -9.49262E+2
   1.56143E+3   2.76513E+3
  -1.17099E+3   3.42841E+3
  -1.93276E+3  -1.66471E+3
   9.98870E+2  -3.48079E+3
   4.45249E+3  -3.07521E+3
   1.32666E+3   2.45160E+3
  -1.28431E+3   2.69790E+3
  -2.59048E+3   5.22106E+1
  -2.50451E+3  -9.76880E+2
  -8.27815E+2  -1.39853E+3
  -6.82516E+2  -1.18791E+3
  -2.04045E+3  -4.12163E+3
   2.38046E+3  -2.43308E+3
   2.12914E+3  -2.68983E+3
   3.66175E+3  -7.17986E+2
   8.58872E+2   2.82016E+3
   2.47921E+2   2.98917E+3
   1.28292E+3   9.48896E+2
  -3.27335E+3   1.94771E+2
  -5.73033E+2  -1.22308E+3
  -6.77206E+2  -8.90306E+2
   1.46433E+3  -1.13812E+3
   8.77636E+2  -1.83781E+3
  -6.41262E+2   2.02128E+3
  -5.87308E+2   1.21698E+3
  -9.90262E+2  -1.24698E+3
  -1.72848E+2  -3.22770E+3
   1.55720E+2   2.03110E+2
  -2.87781E+2   1.44936E+3
   4.42707E+1  -4.02969E+2
  -7.59772E+2   8.11162E+2
  -5.00751E+2   1.50646E+3
  -7.82468E+2   1.11499E+3
  -1.84053E+3   2.79808E+2
  -6.46370E+2  -2.77260E+2
   1.98313E+3   1.85776E+3
   4.78431E+2   2.04929E+3
  -9.51090E+2   2.97410E+3
  -1.39074E+3  -1.21159E+3
   9.83231E+2  -2.74852E+2
   1.45825E+3  -1.12615E+3
   2.48624E+3  -2.39939E+3
   3.57382E+3  -1.01885E+3
   3.20495E+2  -2.23384E+3
   1.71574E+3  -1.21519E+3
   9.95949E+2   1.67348E+3
  -3.45108E+2   2.08949E+3
   4.02634E+2   8.52298E+2
   5.33065E+2  -2.42198E+3
  -1.62090E+3   1.01805E+1
  -1.80248E+3   6.36304E+2
  -5.79551E+2   1.41952E+3
  -7.70750E+2   2.97543E+2
  -1.92904E+3   1.48190E+3
  -7.62575E+2  -1.57646E+2
   3.68725E+2  -3.76527E+3
   1.54655E+3  -1.04104E+3
   2.41504E+3  -1.68427E+3
   2.00957E+3   6.41510E+2
  -9.59067E+2   1.03906E+3
   1.82950E+2   4.33830E+2
  -1.17689E+3  -1.29267E+3
   3.20177E+2  -7.40715E+1
  -2.01295E+3   7.97534E+2
  -2.84677E+2  -4.61388E+2
  -1.21160E+3  -6.48670E+2
  -9.26455E+2  -1.58992E+2
   1.61018E+3   4.21680E+2
  -1.42882E+3   1.59011E+3
  -1.04399E+3   6.39870E+2
   1.99934E+3  -2.11563E+3
   1.39604E+3  -1.26905E+3
   1.77090E+3   5.29803E+2
  -1.73624E+3   9.27359E+2
   2.51019E+2  -1.06033E+3
   3.47793E+2  -2.54153E+2
  -4.24140E+2   9.02172E+2
   9.31411E+2   7.45295E+2
  -1.52912E+3  -6.15935E+2
   3.19528E+2  -1.74909E+3
   1.26983E+3   8.07206E+2
  -2.72077E+3   4.51813E+2
  -3.60508E+3   1.98471E+3
  -3.15534E+3  -3.32974E+2
  -2.00068E+3   3.39817E+2
  -1.51478E+3  -1.57657E+3
  -3.09335E+2  -7.87926E+2
  -1.34946E+3  -1.06092E+2
  -4.06439E+2  -8.77896E-1
  -1.43274E+3  -1.15365E+2
  -1.73445E+3   4.09066E+2
  -2.91399E+2   2.39656E+2
   1.43848E+3  -2.29002E+3
   1.51589E+3  -1.77884E+3
  -6.83551E+2   1.16999E+3
  -1.06703E+3   7.02098E+1
  -1.86776E+3  -1.22392E+3
  -2.92647E+2   4.95670E+2
   2.80589E+2   5.60553E+2
  -1.47497E+3   4.09067E+2
  -1.64927E+3   1.45424E+3
   4.78285E+2  -1.38219E+2
   9.95828E+1   1.05816E+3
   2.39829E+2  -3.77277E+2
  -3.33012E+3  -1.48055E+3
  -1.21013E+3  -1.02573E+3
  -6.99780E+2  -6.80591E+2
   1.76127E+3  -6.40185E+2
   7.26630E+2  -7.72850E+2
  -1.86201E+3  -1.25270E+3
   2.35831E+2   8.52532E+2
   1.52096E+3   1.70331E+3
  -6.86861E+2   3.92811E+2
  -2.86770E+3  -3.91716E+2
  -2.63404E+3  -2.65623E+2
   2.35732E+3  -4.18783E+2
   1.57136E+3   2.50930E+3
   3.90391E+2   2.27575E+3
   3.63285E+2   7.77587E+2
   1.89633E+3  -1.81134E+2
   1.35122E+2  -1.37255E+3
  -5.05145E+2   1.39330E+3
   6.26371E+2  -1.73612E+3
   4.27672E+1  -3.18580E+2
   9.03447E+2  -1.09224E+1
   1.97962E+2  -6.87462E+2
  -9.43727E+2  -2.84870E+2
  -1.57560E+3  -1.91002E+3
   6.46103E+2  -6.46964E+2
   8.46811E+2  -3.42232E+2
  -8.62199E+1  -1.08283E+2
   6.58981E+2   2.86159E+3
   6.17578E+1   5.72828E+2
  -4.69751E+1  -1.18958E+2
  -6.11966E+2   8.32744E+2
   5.86304E-1   3.32117E+2
  -1.24593E+3  -2.39298E+2
   2.24739E+3   2.37881E+2
  -4.85297E+2   7.07224E+2
   5.53783E+2   5.70514E+2
  -5.94952E+1   2.94904E+1
   3.36832E+2  -1.97893E+3
   2.07782E+2   4.24746E+2
   2.06334E+3  -3.45173E+2
   1.67794E+3   5.92231E+2
  -1.15428E+3   8.94304E+2
   3.94016E+2   1.15691E+3
   6.22145E+2  -2.39326E+1
   1.85773E+1   5.85289E+2
  -2.28702E+3   3.68879E+2
   2.25154E+3   2.56902E+2
   2.44602E+3  -4.74946E+2
   2.19543E+3   3.05976E+3
   1.08177E+2   9.39920E+2
  -3.15892E+2  -1.60582E+2
  -1.18459E+3  -2.33078E+3
   8.40959E+2  -3.03806E+2
   2.71536E+2   8.47806E+1
   5.12301E+2  -3.20954E+2
   2.44581E+2   9.91096E+2
   2.72829E+2   4.62845E+2
  -9.10306E+1   7.88105E+2
  -1.01443E+3   1.24129E+3
  -7.57027E+2  -2.83055E+3
   9.19319E+2  -2.17187E+3
   1.74635E+3   1.28093E+3
  -5.85117E+2   1.10580E+3
  -1.70776E+3   7.15023E+2
   7.41223E+2  -1.75815E+3
   4.58546E+2   5.24979E+2
   7.63712E+2  -3.75441E+2
  -1.95224E+3   8.37883E+1
  -6.39382E+2  -2.09419E+3
   3.71859E+3  -2.01225E+3
   2.58368E+3   2.53059E+3
   1.54549E+3   9.35386E+2
   1.15004E+2  -2.63206E+1
   1.13684E+1  -3.16537E+2
   9.54070E+2  -1.93521E+3
   1.70194E+3   1.45211E+3
  -9.05384E+2   1.63171E+2
   2.05438E+2  -1.10558E+3
  -1.57039E+2   7.18976E+2
  -1.09388E+3  -9.06641E+2
   3.12171E+2   1.81543E+3
  -4.18687E+2  -1.00692E+3
  -6.88024E+2  -6.26461E+2
   3.04593E+3  -1.03792E+3
  -5.43695E+2  -3.51982E+1
   1.41980E+3  -1.44161E+2
  -3.79444E+1   1.29065E+3
   1.07878E+3   1.70368E+2
   1.78186E+2   4.93671E+2
   1.71194E+3   5.54685E+2
  -4.84302E+2   1.48030E+3
  -4.15752E+1   1.11623E+3
   2.20162E+3   2.58054E+2
  -5.94574E+1   8.45795E+2
  -5.88315E+2   2.49365E+2
   3.56844E+2  -9.39088E+2
  -2.53958E+2   4.91555E+1
  -6.00827E+2  -8.74973E+2
  -2.50113E+2  -4.83860E+2
  -1.98448E+3  -9.10068E+2
   3.89025E+2   2.85430E+2
   8.89606E+2  -1.13055E+3
  -1.85246E+3   6.17147E+2
  -2.76157E+3  -1.12941E+3
  -3.08762E+2   8.60621E+2
   1.50795E+3   1.37987E+3
   1.18869E+3   1.47759E+3
  -6.69481E+2  -9.57910E+1
   8.90490E+2  -1.22505E+3
  -2.07120E+2  -3.37286E+2
   7.38915E+2  -2.87113E+3
  -1.32309E+3   8.78266E+2
   4.86452E+2   2.62212E+3
  -4.16624E+2  -1.16073E+3
  -4.50980E+1  -1.06479E+3
  -2.05250E+3   1.21301E+3
  -1.51673E+3   2.11458E+3
  -7.20960E+2  -2.52196E+2
   1.10800E+3   6.50260E+2
   1.07933E+3   1.65811E+3
   3.45731E+2   3.95782E+3
  -2.68054E+2   3.64110E+2
  -9.86538E+0  -1.24919E+1
   4.47985E+2   2.11359E+3
  -8.76405E+1   1.08697E+2
  -2.21209E+3   1.05513E+3
  -1.35707E+3   5.87834E+2
   4.23890E+1  -3.51006E+1
   1.18424E+2  -8.55147E+2
   1.71011E+3   6.99320E+2
  -1.27692E+3   2.33117E+2
  -1.25740E+3   4.09554E+2
   2.66954E+2  -1.44776E+3
  -7.89201E+2   5.58215E+2
  -1.26724E+3   1.27538E+3
   7.49811E+2  -2.13228E+2
   3.54732E+1  -8.26355E+2
   1.55240E+3   9.86360E+2
  -2.71969E+2   1.24898E+3
   5.60577E+2   3.53932E+2
  -1.46802E+3  -4.40846E+2
  -5.67528E+2   1.49489E+2
   3.32711E+2  -9.87707E+2
  -9.52070E+2   7.18568E+2
   1.20232E+1   6.47519E+2
  -3.45228E+2   8.89374E+2
   6.68167E+2  -3.88992E+2
  -6.10047E+2  -5.08222E+2
  -2.20647E+3  -2.80829E+2
  -2.06463E+2   8.30959E+1
   9.03886E+2  -5.78055E+2
  -6.58814E+2   1.54659E+3
  -1.66163E+3  -1.34655E+3
  -9.60306E+1  -9.44266E+2
   1.17800E+3  -7.60826E+2
   2.34541E+2   1.22193E+3
   8.23004E+2  -2.12468E+2
  -8.75997E+2   1.25154E+3
  -1.16802E+3  -1.21907E+3
   8.53895E+2  -1.41557E+2
   4.48743E+2  -1.58355E+2
   1.99499E+3   1.83342E+3
   8.27927E+0   6.26656E+2
   1.35439E+2  -8.37868E+2
   1.25842E+3  -1.42866E+2
  -4.50899E+1  -1.95491E+2
