 
 $NMID
 ID=''
 FMTDAT='(2E13.5)'
 TRAMP=   1.00000E+0
 VOLUME=   1.00000E+0
 $END
   1.46226E+2  -5.17719E+2
   9.02123E+2   9.92535E+2
  -2.02194E+3  -3.21406E+3
  -4.73273E+2   3.09404E+3
  -1.81809E+0  -4.67263E+1
   1.34613E+3   7.71048E+2
   7.59834E+2   4.06462E+2
  -9.45531E+2   3.05182E+2
   8.63274E+2   8.10636E+2
  -8.74134E+2  -1.77874E+3
   1.03088E+1   1.01617E+2
   2.45544E+3  -2.06055E+3
   1.53591E+3   1.43376E+3
  -1.93594E+2   3.69578E+3
  -2.63084E+3   1.03738E+3
   9.51647E+2  -1.80114E+3
   6.51945E+2  -7.82830E+2
   1.51481E+3  -1.99097E+2
   1.04042E+3   1.11739E+3
   5.12408E+2  -7.91133E+2
   1.48049E+3  -2.77394E+3
   1.32055E+3   2.05456E+3
  -1.96800E+3   2.34426E+3
  -3.02374E+3  -1.56304E+3
   9.64041E+1  -3.16472E+3
  -2.32025E+2  -7.98270E+2
   1.08119E+3   8.51948E+2
  -3.90475E+3   2.00672E+3
  -3.33049E+3   4.38733E+2
  -8.53660E+2  -2.63430E+3
   5.88657E+3   2.82627E+2
   6.10569E+2   4.16639E+3
  -1.52863E+3   3.10839E+3
  -5.60636E+2   2.89742E+1
  -7.96613E+2  -9.46809E+2
  -2.76128E+3  -1.01410E+3
  -3.08453E+2  -3.82360E+3
   2.79774E+3  -1.91942E+3
   2.98470E+3   6.22143E+2
   3.92237E+2  -2.67161E+2
   1.64079E+3   3.03317E+3
   2.61428E+2   2.97537E+3
  -1.86180E+3  -1.43292E+3
   1.02130E+3  -3.81160E+3
  -1.53301E+2  -1.12488E+3
   2.34572E+3  -1.40366E+3
  -6.65122E+1   1.04513E+2
   4.37338E+2   6.77939E+1
   8.48149E+2   2.01548E+2
  -8.51982E+2  -6.14481E+2
  -1.44900E+3   1.83035E+3
  -2.99481E+3  -1.82618E+3
   1.05083E+3  -1.88515E+3
   2.21228E+3   1.22970E+3
   1.54210E+3   3.26883E+2
   3.52913E+1   5.09526E+2
  -1.02855E+3   1.20749E+3
  -2.16659E+3   1.96338E+3
  -2.08133E+3   3.91751E+2
  -2.30595E+3  -1.30218E+3
  -2.19686E+3  -3.75523E+3
  -1.11712E+3   3.29309E+2
  -2.81874E+3  -1.51260E+2
  -6.06060E+2   1.37420E+3
  -6.88033E+2  -2.68482E+3
   1.19683E+3  -3.16587E+3
  -3.13834E+2   8.45444E+2
  -7.51559E+2  -9.19513E+2
  -2.55901E+3  -4.59720E+2
   1.34546E+3   1.33939E+3
  -2.43833E+2   2.17543E+3
  -4.29807E+2   9.19304E+2
  -1.43643E+3  -9.14207E+2
  -2.89809E+3  -1.00452E+3
  -4.27867E+2  -1.93927E+3
  -4.75951E+2   1.67360E+2
  -1.36635E+3   7.24815E+2
   4.92827E+1  -1.36460E+3
   1.26368E+3  -1.21186E+3
   1.80558E+3  -4.17212E+2
   1.60475E+3   2.13963E+3
   1.06751E+3   1.68205E+3
   9.09364E+2   1.19033E+3
   1.42213E+3   3.25999E+3
  -6.99760E+1   1.30054E+3
  -8.15492E+2   3.00581E+3
  -1.57065E+3  -4.89690E+2
  -5.51359E+2   1.36209E+2
   1.75455E+3  -2.54968E+3
  -5.98441E+2   8.58935E+2
   1.60420E+3   4.98284E+2
   1.65237E+3   1.95836E+2
   2.45019E+3  -1.28038E+2
  -2.11911E+3   5.90627E+2
  -6.28812E+2   1.52190E+3
  -1.55757E+3  -6.25048E+2
   1.97323E+2   1.59009E+2
  -4.83364E+2  -6.73934E+2
   2.67207E+3  -9.80366E+2
  -2.03884E+2   2.14801E+3
  -3.69582E+2  -8.61924E+2
   7.02717E+2  -2.86687E+2
   1.60067E+3   8.14773E+2
  -1.54841E+2   1.24857E+3
  -9.11018E+2   5.45820E+2
  -1.06410E+3  -1.94287E+3
   6.09179E+2  -2.69064E+2
   9.24642E+2  -1.34684E+3
  -1.26254E+3  -8.69300E+2
  -6.84773E+2  -4.01406E+2
   1.36030E+3   2.10072E+2
  -1.37181E+2  -1.01572E+3
   6.26358E+2  -1.67384E+3
   8.20370E+2   9.78190E+2
  -2.93983E+2  -4.70002E+2
  -8.99200E+2  -6.02448E+2
  -1.96369E+3  -1.14596E+3
   1.35945E+3  -7.33450E+2
   1.81059E+3  -8.99097E+2
  -1.32004E+2  -2.79847E+2
  -1.47507E+3   6.70985E+2
   9.43684E+2  -2.65498E+2
   2.15069E+3   8.19412E+2
  -1.39994E+3  -5.92117E+2
  -6.59254E+2  -2.43243E+2
   1.66187E+2  -1.13950E+3
   5.58684E+2   2.00054E+3
   3.37505E+2  -2.14243E+3
   6.07195E+2  -7.48929E+2
   1.26109E+3  -1.27294E+3
   5.90119E+2  -2.91584E+3
   1.18379E+3  -1.17375E+3
   1.93949E+3   1.30027E+2
   2.64541E+3   9.93776E+2
   5.16841E+2  -3.78018E+2
   6.62359E+2  -2.21612E+3
   3.12998E+3  -5.13697E+2
   1.91414E+3  -1.48769E+3
   4.71288E+1   3.56539E+2
   1.11581E+3   8.75519E+2
  -4.76178E+2  -8.44879E+2
  -2.75440E+3  -4.77098E+2
  -1.20338E+2   9.47764E+2
  -2.78122E+2   3.26824E+2
  -1.05707E+3   4.95404E+2
   2.89500E+2  -1.23283E+3
   6.65584E+2   1.94478E+3
   1.03155E+0  -2.87428E+3
  -2.03806E+3  -1.71536E+2
   1.28244E+3  -5.38546E+2
   6.89425E+2  -1.28324E+3
  -1.64239E+3  -1.20347E+3
   7.86720E+2  -7.63877E+1
   1.41443E+3  -1.36476E+2
   1.06853E+2  -6.32600E+2
  -1.06998E+3   1.35501E+3
  -2.55095E+2  -1.64241E+3
  -2.12375E+2   2.31960E+3
   7.18353E+2   9.26463E+2
   5.71839E+2  -6.54071E+2
  -1.72642E+3  -1.61147E+3
   2.43214E+2   2.80803E+1
   6.47941E+2   1.74554E+3
  -4.09728E+2  -2.41981E+3
  -2.13115E+3   4.52789E+2
   6.50473E+2  -2.96574E+2
   3.15811E+2  -7.08908E+2
   3.47463E+2   8.29769E+2
  -1.62836E+3  -1.10994E+3
   4.78637E+2   7.89989E+2
   1.44338E+3  -5.39470E+2
   2.65618E+3  -1.64226E+3
   1.28756E+3   2.80094E+1
   1.17698E+2  -2.21788E+1
   8.48369E+1   1.64795E+3
  -1.55225E+3   1.47153E+3
   1.09376E+3   1.87326E+3
   6.73986E+2   1.13528E+3
  -1.02985E+3  -5.44067E+2
   1.09511E+3   7.20975E+2
   3.98512E+2  -2.04659E+2
   1.48199E+3  -1.17299E+3
  -8.85831E+2   8.90801E+2
  -7.93029E+2   2.38862E+3
   1.00652E+3  -1.00911E+3
   8.08183E+2  -2.51300E+2
   4.68133E+1   2.25568E+1
   1.73599E+2  -4.94610E+2
   2.30750E+2  -6.24116E+2
  -1.54819E+2   1.28664E+3
  -1.56293E+2   3.45020E+2
   9.40972E+2   1.82612E+3
   2.38636E+2  -4.08609E+2
   4.54260E+2   9.29376E+2
  -1.95211E+2   1.04269E+3
  -8.22437E+2   9.32650E+2
   1.00561E+3   1.50117E+3
   3.50008E+2  -8.17095E+1
  -1.67232E+3   1.14342E+3
  -3.55807E+2  -2.23603E+2
  -2.38809E+3   5.95575E+2
   9.71475E+0  -8.34883E+2
   1.29604E+3   9.16641E+2
  -1.33551E+2   4.62886E+2
  -6.28091E+2   5.40952E+2
  -2.87826E+2   1.56406E+3
   8.36658E+2   1.63604E+2
   1.86561E+3   7.44932E+2
   2.48537E+3  -3.72732E+2
  -5.48057E+2   2.98369E+2
   5.80127E+2   6.03330E+2
   3.22653E+2   4.09896E+2
  -8.36074E+2  -9.68009E+1
   2.28657E+3   5.15564E+2
  -4.00431E+2   1.89400E+3
   1.54495E+3   6.93330E+2
   1.12765E+3   7.41834E+2
   5.30288E+2  -2.88996E+2
   2.28926E+2  -9.74576E+2
   1.84130E+3  -1.47007E+3
   6.88349E+1   1.35356E+3
  -7.52088E+2  -1.52481E+3
   2.12723E+2  -4.99137E+2
   2.71117E+2   4.03364E+1
  -1.08314E+2   5.47015E+2
  -6.88092E+2  -9.84625E+2
  -1.97015E+2   3.69519E+2
   1.05662E+3   1.89913E+3
   3.58469E+2   6.83816E+2
   9.61853E+2  -1.99960E+2
  -8.04413E+2  -1.83397E+3
   2.31506E+2  -4.63277E+2
   1.10690E+3   5.36256E+2
   8.63219E+2  -2.18927E+3
  -7.08025E+2  -3.44844E+3
   6.34087E+2  -1.53924E+3
   9.89037E+2  -1.14057E+3
   7.00421E+2   2.09456E+2
  -8.71665E+2   1.24787E+3
   5.44783E+2   3.65889E+2
   1.64575E+2   1.25077E+3
  -4.58186E+2   2.08443E+3
   1.66742E+3  -1.85136E+2
  -5.19602E+2   9.07053E+2
   1.15814E+3  -9.45121E+2
  -1.43991E+3  -3.98158E+1
   1.49335E+3  -1.56974E+2
   6.78326E+2  -1.58123E+3
   9.93097E+2   1.50136E+2
  -1.16565E+3  -1.46098E+3
   1.33061E+3   4.08613E+2
   4.31446E+2  -1.19629E+2
  -1.00943E+2  -6.74951E+1
   5.58633E+2  -1.23624E+3
  -1.77006E+2   6.29559E+2
   1.65311E+3  -5.55069E+2
  -3.04928E+2   1.21404E+3
  -2.76231E+2   3.47018E+2
   8.14737E+1  -2.02885E+2
  -9.37125E+1  -1.52441E+3
  -5.29482E+2   1.87490E+3
  -4.54985E+2   6.91714E+2
   7.20820E+2  -3.07417E+3
   1.46094E+3  -8.74733E+2
  -1.43236E+3   8.03883E+2
   2.18281E+2   1.76153E+2
  -1.34195E+2   4.99725E+2
  -5.96378E+2  -1.44486E+3
   6.43113E+2   7.67364E+2
  -6.25177E+2   1.53474E+3
  -1.45408E+3   3.30130E+2
   6.81496E+2  -2.70805E+2
   1.36940E+2   1.74399E+3
   1.21188E+3  -1.98254E+2
  -2.51786E+2   4.21677E+2
   4.45701E+1  -9.31931E+1
  -1.12698E+3  -5.79423E+2
   6.92593E+0   1.24875E+3
   2.56860E+2  -5.90970E+2
   7.18436E+0  -3.00564E+3
  -2.67741E+2  -6.99238E+1
   7.03232E+0  -1.63625E+3
  -1.21663E+3   6.72724E+2
   8.58027E+2  -1.19255E+2
   1.05576E+3   1.42700E+3
   9.01073E+0  -2.70663E+2
  -1.72689E+2  -1.36472E+3
  -1.32365E+1   1.25679E+3
  -3.86873E+2   8.44126E+2
   2.39847E+2   1.56067E+3
  -8.08817E+2  -3.51285E+2
  -2.36937E+3  -6.85201E+2
  -4.23547E+2   1.81301E+3
   4.25349E+2   1.66294E+3
   5.46888E+1  -2.24185E+3
   1.23349E+3  -9.75793E+1
   1.49512E+3   6.99124E+1
   1.92272E+3   4.85879E+2
  -1.82275E+2   6.39304E+2
  -1.54248E+3   2.36523E+2
  -4.31751E+2   1.35555E+2
  -6.12146E+2  -9.86165E+1
  -6.99498E+2   2.98517E+2
  -1.06574E+3   3.70666E+2
   7.10410E+2  -2.58568E+2
  -2.49991E+2   3.42286E+2
  -4.05956E+2  -3.40831E+2
  -1.89025E+2   1.21611E+3
   3.35292E+2   1.64573E+3
  -1.38715E+3  -4.26749E+2
   6.64859E+2   2.57095E+1
  -2.61485E+2   4.28456E+2
   2.31009E+3  -1.00706E+3
  -1.05243E+3  -3.42234E+2
  -1.30934E+3  -9.18912E+2
  -2.84177E+2  -3.72958E+2
  -1.40761E+3  -1.77731E+2
  -5.07923E+2  -6.18273E+2
  -4.97497E+2  -1.76173E+2
  -1.05553E+3  -1.51150E+3
  -1.56573E+3   1.49308E+3
  -2.93710E+3   4.84250E+2
  -1.89398E+3  -3.06831E+2
  -2.90129E+3   8.67499E+1
  -4.51741E+2   1.23407E+3
   1.10899E+3   1.27776E+3
   4.84636E+2  -2.14365E+2
  -1.16043E+3   2.12620E+3
   1.29562E+3   8.14793E+2
  -2.67418E+3  -8.35085E+2
  -1.71146E+2   4.38770E+2
  -6.80901E+2   1.30941E+3
   8.09256E+2   1.03878E+3
  -4.49780E+1  -1.43465E+3
  -1.18056E+3   4.60040E+2
  -8.05715E+2   3.27719E+2
   1.51946E+3  -1.36923E+3
   9.91135E+2  -1.57685E+3
  -1.15258E+3  -2.52136E+3
  -1.18630E+3   1.29184E+2
  -9.05259E+2   1.40150E+3
  -9.52657E+2  -4.59191E+2
   6.52764E+2  -4.79880E+1
  -1.02087E+2   4.94049E+2
  -3.26643E+2   1.53068E+2
   3.89037E+2   1.14204E+3
  -6.37062E+2  -3.06405E+2
  -1.07132E+3  -5.64042E+2
  -1.03320E+3  -7.03516E+2
   7.16376E+2  -2.30393E+2
   3.27165E+2   3.16688E+2
  -2.38906E+3  -1.35503E+3
  -1.01755E+3  -4.50720E+2
  -1.46376E+3  -4.22991E+2
  -4.21381E+2  -7.30509E+2
   1.25254E+3  -8.59690E+1
  -1.68511E+3  -9.78521E+1
   2.68772E+2   2.39467E+2
  -1.51474E+3   1.10367E+3
   8.61135E+2  -8.86071E+2
  -2.24471E+2  -6.16514E+2
  -9.09732E+2   8.42262E+2
   1.43733E+3  -1.13570E+3
  -8.74375E+2   1.21840E+3
  -1.54057E+3  -8.62983E+2
   2.46730E+3   2.15161E+1
  -4.96638E+2   2.29895E+3
