 
 $NMID
 ID=''
 FMTDAT='(2E13.5)'
 TRAMP=   1.00000E+0
 VOLUME=   1.00000E+0
 $END
  -2.20709E+4   3.41659E+3
  -5.70770E+4  -7.66081E+3
  -5.71894E+4   2.39005E+3
  -5.24941E+4   2.15824E+3
  -5.45114E+4   5.19378E+2
  -5.43835E+4   2.83455E+3
  -5.23815E+4   2.19640E+3
  -5.33458E+4   9.56007E+2
  -5.33320E+4   2.46661E+3
  -5.19245E+4   2.10542E+3
  -5.22080E+4   1.52753E+3
  -5.20032E+4   2.76409E+3
  -5.08698E+4   2.78139E+3
  -5.10332E+4   2.11209E+3
  -5.05880E+4   2.80661E+3
  -4.95503E+4   2.68415E+3
  -4.95824E+4   2.24454E+3
  -4.92259E+4   2.76205E+3
  -4.83585E+4   2.73303E+3
  -4.83667E+4   2.36039E+3
  -4.80428E+4   2.80603E+3
  -4.73780E+4   2.98275E+3
  -4.73903E+4   2.75479E+3
  -4.70916E+4   2.96104E+3
  -4.64574E+4   2.94007E+3
  -4.63521E+4   2.88981E+3
  -4.61857E+4   2.91579E+3
  -4.57681E+4   2.77526E+3
  -4.56889E+4   2.50639E+3
  -4.53990E+4   2.57893E+3
  -4.50768E+4   2.63414E+3
  -4.50380E+4   2.56036E+3
  -4.48954E+4   2.54804E+3
  -4.44689E+4   2.42242E+3
  -4.42817E+4   2.54565E+3
  -4.40215E+4   2.61603E+3
  -4.35148E+4   2.59896E+3
  -4.32941E+4   2.67836E+3
  -4.30393E+4   2.84001E+3
  -4.26647E+4   2.89176E+3
  -4.24498E+4   2.83445E+3
  -4.21035E+4   2.76742E+3
  -4.18285E+4   2.64037E+3
  -4.13234E+4   2.63901E+3
  -4.10384E+4   2.68385E+3
  -4.07983E+4   2.76320E+3
  -4.05052E+4   2.65357E+3
  -4.03341E+4   2.69127E+3
  -3.99679E+4   2.69876E+3
  -3.97035E+4   2.68475E+3
  -3.94285E+4   2.65076E+3
  -3.91474E+4   2.58444E+3
  -3.88222E+4   2.64688E+3
  -3.85352E+4   2.63037E+3
  -3.84530E+4   2.58955E+3
  -3.81434E+4   2.61362E+3
  -3.78783E+4   2.57681E+3
  -3.77105E+4   2.49904E+3
  -3.74260E+4   2.45551E+3
  -3.71176E+4   2.31145E+3
  -3.69193E+4   2.29702E+3
  -3.66846E+4   2.27721E+3
  -3.64948E+4   2.17302E+3
  -3.62822E+4   2.13649E+3
  -3.60819E+4   2.01536E+3
  -3.59735E+4   2.01743E+3
  -3.56928E+4   1.95030E+3
  -3.55561E+4   1.88862E+3
  -3.52566E+4   1.83904E+3
  -3.50604E+4   1.80524E+3
  -3.49935E+4   1.74536E+3
  -3.46973E+4   1.68546E+3
  -3.44500E+4   1.66368E+3
  -3.42356E+4   1.49311E+3
  -3.41182E+4   1.50817E+3
  -3.38733E+4   1.60109E+3
  -3.35995E+4   1.48505E+3
  -3.34178E+4   1.40393E+3
  -3.31650E+4   1.40783E+3
  -3.29792E+4   1.46760E+3
  -3.28954E+4   1.40484E+3
  -3.26946E+4   1.34213E+3
  -3.24786E+4   1.29402E+3
  -3.22819E+4   1.31293E+3
  -3.21467E+4   1.19310E+3
  -3.19543E+4   1.09121E+3
  -3.16726E+4   1.01411E+3
  -3.15046E+4   9.71114E+2
  -3.13551E+4   9.28489E+2
  -3.11937E+4   9.24440E+2
  -3.10179E+4   8.87929E+2
  -3.08356E+4   8.87144E+2
  -3.06906E+4   7.88769E+2
  -3.05084E+4   8.12618E+2
  -3.03400E+4   8.10592E+2
  -3.00867E+4   7.47730E+2
  -2.99207E+4   8.10299E+2
  -2.97542E+4   8.23039E+2
  -2.96343E+4   8.17315E+2
  -2.94986E+4   6.23988E+2
  -2.93096E+4   6.97620E+2
  -2.90604E+4   6.77139E+2
  -2.89821E+4   6.70879E+2
  -2.88935E+4   6.01940E+2
  -2.87299E+4   5.91980E+2
  -2.85004E+4   5.54730E+2
  -2.84221E+4   5.20540E+2
  -2.83333E+4   5.36542E+2
  -2.81927E+4   4.53486E+2
  -2.79745E+4   5.12160E+2
  -2.78618E+4   4.65489E+2
  -2.77036E+4   5.23701E+2
  -2.75605E+4   4.62090E+2
  -2.75403E+4   4.97321E+2
  -2.73538E+4   3.63441E+2
  -2.72724E+4   3.96222E+2
  -2.70129E+4   3.08497E+2
  -2.69906E+4   3.08245E+2
  -2.68061E+4   2.42738E+2
  -2.66944E+4   2.73037E+2
  -2.65642E+4   2.07227E+2
  -2.63511E+4   2.49854E+2
  -2.62565E+4   1.66376E+2
  -2.60940E+4   1.16576E+2
  -2.59745E+4   1.84127E+2
  -2.58367E+4   1.59081E+2
  -2.56706E+4   1.32833E+2
  -2.54712E+4   1.18954E+2
  -2.53997E+4   1.11876E+2
  -2.52116E+4   4.30775E+1
  -2.50367E+4   8.09540E+1
  -2.48632E+4   1.90419E+1
  -2.46439E+4   3.48914E+1
  -2.44905E+4   6.75599E+1
  -2.43477E+4   3.77917E+0
  -2.42418E+4   5.25876E+1
  -2.40637E+4  -5.30039E+0
  -2.38059E+4   1.88746E+1
  -2.37467E+4   7.72613E+1
  -2.34462E+4   1.06901E+2
  -2.32845E+4   1.50952E+2
  -2.30964E+4   1.79842E+2
  -2.29393E+4   2.22756E+2
  -2.27782E+4   2.03527E+2
  -2.25981E+4   2.53870E+2
  -2.24487E+4   3.09787E+2
  -2.22504E+4   2.80516E+2
  -2.20507E+4   3.81221E+2
  -2.19061E+4   4.19429E+2
  -2.16846E+4   4.44480E+2
  -2.15953E+4   4.44681E+2
  -2.13922E+4   4.85534E+2
  -2.11739E+4   5.00684E+2
  -2.09649E+4   6.30868E+2
  -2.08733E+4   6.27937E+2
  -2.06815E+4   6.79842E+2
  -2.05091E+4   8.34083E+2
  -2.03958E+4   9.32686E+2
  -2.01919E+4   9.49970E+2
  -2.00144E+4   1.03811E+3
  -1.98885E+4   1.08929E+3
  -1.97877E+4   1.10507E+3
  -1.95766E+4   1.17882E+3
  -1.94545E+4   1.29465E+3
  -1.92535E+4   1.34800E+3
  -1.90910E+4   1.35332E+3
  -1.89861E+4   1.39546E+3
  -1.88180E+4   1.48616E+3
  -1.86884E+4   1.59955E+3
  -1.85896E+4   1.70676E+3
  -1.84217E+4   1.70755E+3
  -1.81596E+4   1.72699E+3
  -1.80572E+4   1.85122E+3
  -1.79731E+4   1.88723E+3
  -1.78129E+4   1.91327E+3
  -1.76359E+4   1.99591E+3
  -1.74896E+4   2.10554E+3
  -1.73355E+4   2.14740E+3
  -1.72602E+4   2.16533E+3
  -1.71311E+4   2.25875E+3
  -1.69281E+4   2.24179E+3
  -1.67425E+4   2.28679E+3
  -1.66162E+4   2.40294E+3
  -1.64655E+4   2.46882E+3
  -1.63489E+4   2.52251E+3
  -1.62267E+4   2.56893E+3
  -1.60814E+4   2.66643E+3
  -1.59479E+4   2.61570E+3
  -1.58178E+4   2.71945E+3
  -1.56415E+4   2.70781E+3
  -1.54585E+4   2.80972E+3
  -1.54312E+4   2.83969E+3
  -1.52198E+4   2.96383E+3
  -1.50886E+4   3.05613E+3
  -1.49847E+4   3.01638E+3
  -1.48137E+4   3.03474E+3
  -1.46984E+4   3.08685E+3
  -1.45880E+4   3.19786E+3
  -1.44691E+4   3.19178E+3
  -1.43212E+4   3.29147E+3
  -1.41538E+4   3.34426E+3
  -1.41044E+4   3.35425E+3
  -1.38854E+4   3.42492E+3
  -1.38154E+4   3.51218E+3
  -1.36028E+4   3.56128E+3
  -1.35296E+4   3.56125E+3
  -1.34206E+4   3.63976E+3
  -1.33240E+4   3.61934E+3
  -1.32082E+4   3.67779E+3
  -1.30699E+4   3.74037E+3
  -1.29812E+4   3.82358E+3
  -1.28735E+4   3.82068E+3
  -1.26784E+4   3.91938E+3
  -1.25252E+4   3.89804E+3
  -1.25136E+4   4.01995E+3
  -1.23759E+4   3.99887E+3
  -1.22568E+4   4.04922E+3
  -1.21441E+4   4.12998E+3
  -1.20572E+4   4.15392E+3
  -1.19330E+4   4.22798E+3
  -1.18232E+4   4.22724E+3
  -1.17235E+4   4.28088E+3
  -1.16738E+4   4.31034E+3
  -1.15571E+4   4.28234E+3
  -1.14057E+4   4.23884E+3
  -1.13467E+4   4.40886E+3
  -1.11599E+4   4.39871E+3
  -1.11783E+4   4.39738E+3
  -1.10842E+4   4.45948E+3
  -1.09900E+4   4.43159E+3
  -1.08863E+4   4.43528E+3
  -1.08386E+4   4.50339E+3
  -1.07116E+4   4.51081E+3
  -1.06206E+4   4.51909E+3
  -1.05428E+4   4.56625E+3
  -1.03721E+4   4.55663E+3
  -1.03593E+4   4.65901E+3
  -1.03337E+4   4.58070E+3
  -1.01813E+4   4.63110E+3
  -1.00778E+4   4.56972E+3
  -9.92449E+3   4.69317E+3
  -9.87860E+3   4.67533E+3
  -9.79653E+3   4.69605E+3
  -9.67705E+3   4.66991E+3
  -9.64060E+3   4.68857E+3
  -9.55998E+3   4.67647E+3
  -9.48359E+3   4.61885E+3
  -9.38465E+3   4.68497E+3
  -9.24182E+3   4.73953E+3
  -9.25486E+3   4.72524E+3
  -9.18906E+3   4.65576E+3
  -9.09825E+3   4.67122E+3
  -8.96945E+3   4.67324E+3
  -8.94471E+3   4.73206E+3
  -8.80346E+3   4.64787E+3
  -8.75685E+3   4.69623E+3
  -8.59358E+3   4.64400E+3
  -8.65757E+3   4.73638E+3
  -8.51722E+3   4.67808E+3
  -8.43267E+3   4.71370E+3
  -8.33130E+3   4.65476E+3
  -8.29138E+3   4.68162E+3
  -8.22290E+3   4.70223E+3
  -8.18703E+3   4.66459E+3
  -8.09008E+3   4.69624E+3
  -7.96074E+3   4.60629E+3
  -7.94627E+3   4.61338E+3
  -7.91635E+3   4.60621E+3
  -7.77168E+3   4.64631E+3
  -7.76034E+3   4.58427E+3
  -7.67674E+3   4.54924E+3
  -7.53490E+3   4.65444E+3
  -7.55909E+3   4.66113E+3
  -7.54216E+3   4.57577E+3
  -7.37426E+3   4.53886E+3
  -7.37403E+3   4.52466E+3
  -7.24164E+3   4.51330E+3
  -7.17685E+3   4.48810E+3
  -7.12181E+3   4.49878E+3
  -7.06959E+3   4.49145E+3
  -7.01756E+3   4.46629E+3
  -6.91258E+3   4.52468E+3
  -6.87251E+3   4.44224E+3
  -6.80113E+3   4.45177E+3
  -6.68700E+3   4.47519E+3
  -6.65183E+3   4.37818E+3
  -6.58593E+3   4.43025E+3
  -6.58408E+3   4.36898E+3
  -6.54664E+3   4.33195E+3
  -6.46668E+3   4.32831E+3
  -6.36586E+3   4.32668E+3
  -6.31556E+3   4.27342E+3
  -6.26819E+3   4.25673E+3
  -6.26838E+3   4.32707E+3
  -6.21080E+3   4.30822E+3
  -6.11838E+3   4.21066E+3
  -6.09373E+3   4.23484E+3
  -5.94730E+3   4.26681E+3
  -5.88192E+3   4.26217E+3
  -5.85821E+3   4.21700E+3
  -5.80513E+3   4.23819E+3
  -5.74856E+3   4.17536E+3
  -5.67104E+3   4.16150E+3
  -5.72248E+3   4.21362E+3
  -5.66740E+3   4.15902E+3
  -5.53988E+3   4.10156E+3
  -5.47233E+3   4.07887E+3
  -5.52377E+3   4.10685E+3
  -5.49418E+3   4.07232E+3
  -5.33105E+3   4.10914E+3
  -5.35109E+3   4.05948E+3
  -5.29777E+3   4.02799E+3
  -5.29962E+3   4.00544E+3
  -5.17488E+3   4.06087E+3
  -5.19921E+3   4.01749E+3
  -5.10030E+3   4.00676E+3
  -5.09498E+3   3.97713E+3
  -5.11295E+3   3.93762E+3
  -5.07689E+3   3.91983E+3
  -4.92370E+3   3.88633E+3
  -4.91841E+3   3.91537E+3
  -4.87573E+3   3.82781E+3
  -4.79964E+3   3.86819E+3
  -4.81142E+3   3.81637E+3
  -4.75411E+3   3.83853E+3
  -4.77114E+3   3.78380E+3
  -4.73897E+3   3.78095E+3
  -4.71261E+3   3.69633E+3
  -4.63777E+3   3.71389E+3
  -4.57326E+3   3.69987E+3
  -4.53929E+3   3.64463E+3
  -4.54273E+3   3.65213E+3
  -4.50580E+3   3.64579E+3
  -4.45541E+3   3.63717E+3
  -4.42565E+3   3.58974E+3
  -4.34786E+3   3.54857E+3
  -4.39552E+3   3.50283E+3
  -4.28280E+3   3.57417E+3
  -4.23392E+3   3.48191E+3
  -4.24349E+3   3.48582E+3
  -4.19293E+3   3.48953E+3
  -4.19483E+3   3.48427E+3
  -4.10907E+3   3.42788E+3
  -4.01462E+3   3.41155E+3
  -4.06511E+3   3.39347E+3
  -4.00160E+3   3.41432E+3
  -3.99935E+3   3.37661E+3
  -3.91866E+3   3.35438E+3
  -3.90637E+3   3.32221E+3
  -3.86472E+3   3.35773E+3
  -3.82578E+3   3.23496E+3
  -3.71287E+3   3.24142E+3
  -3.83721E+3   3.26253E+3
  -3.72809E+3   3.24268E+3
  -3.70483E+3   3.21262E+3
  -3.74416E+3   3.12613E+3
  -3.64046E+3   3.14619E+3
  -3.63549E+3   3.07620E+3
  -3.58073E+3   3.18508E+3
  -3.60815E+3   3.11577E+3
  -3.57462E+3   3.12928E+3
  -3.46691E+3   3.06889E+3
  -3.48549E+3   3.02596E+3
  -3.46844E+3   2.99224E+3
  -3.38157E+3   2.98274E+3
  -3.36399E+3   2.98103E+3
  -3.39076E+3   2.95994E+3
