 LCModel (Version 6.3-1N) Copyright: S.W. Provencher.          Ref.: Magn. Reson. Med. 30:672-679 (1993).                
 Slice_N1@17_16  02-Jun-2023 14:37:11
 27 lines in following concentration table = NCONC+1
    Conc.  %SD /Cr+PCr  Metabolite                                         
 1.72E-06  17% 2.5E-04 Mac                                                 
 2.84E-02  21%   4.118 Cr                                                  
 2.68E-02  22%   3.882 PCr                                                 
 5.91E-02  11%   8.557 Ins                                                 
 7.22E-02   7%  10.460 NAA                                                 
 5.34E-02  11%   7.739 Tau                                                 
 4.87E-03  46%   0.706 PCho                                                
 8.85E-03  24%   1.283 GPC                                                 
 5.20E-02  14%   7.533 Glu                                                 
 1.96E-02  29%   2.835 Gln                                                 
    0.000 999%   0.000 Ala                                                 
 3.16E-02  33%   4.585 Asc                                                 
 1.19E-02  55%   1.724 Asp                                                 
 8.09E-03  42%   1.172 GABA                                                
 7.97E-03  56%   1.154 Glc                                                 
 1.25E-02  25%   1.805 GSH                                                 
    0.000 999%   0.000 Lac                                                 
 1.12E-02  30%   1.620 NAAG                                                
    0.000 999%   0.000 PE                                                  
 1.37E-02  11%   1.988 GPC+PCho                                            
 8.34E-02   8%  12.080 NAA+NAAG                                            
 7.16E-02  13%  10.368 Glu+Gln                                             
 5.52E-02   8%   8.000 Cr+PCr                                              
 8.34E-02   8%  12.080 NAA+NAAG                                            
 5.52E-02   8%   8.000 Cr+PCr                                              
 7.16E-02  13%  10.368 Glu+Gln                                             
   6 lines in following misc. output table
  FWHM = 0.017 ppm    S/N =   6                                            
  Data shift = 0.029 ppm                                                   
  Ph: -37 deg      -7.3 deg/ppm                                            
  alphaB,S = 3.1E+01,   3.5E+00                                            
   18 spline knots.   Ns = 5(1)                                            
   2 inflections.     1 extrema                                            
  654 points on ppm-axis = NY
      4.000000     3.994181     3.988363     3.982544     3.976726     3.970907     3.965088     3.959270     3.953451     3.947633
      3.941814     3.935995     3.930177     3.924358     3.918540     3.912721     3.906902     3.901084     3.895265     3.889446
      3.883628     3.877809     3.871991     3.866172     3.860353     3.854535     3.848716     3.842898     3.837079     3.831260
      3.825442     3.819623     3.813805     3.807986     3.802167     3.796349     3.790530     3.784712     3.778893     3.773074
      3.767256     3.761437     3.755619     3.749800     3.743981     3.738163     3.732344     3.726526     3.720707     3.714888
      3.709070     3.703251     3.697433     3.691614     3.685795     3.679977     3.674158     3.668339     3.662521     3.656702
      3.650884     3.645065     3.639246     3.633428     3.627609     3.621791     3.615972     3.610153     3.604335     3.598516
      3.592698     3.586879     3.581060     3.575242     3.569423     3.563605     3.557786     3.551967     3.546149     3.540330
      3.534512     3.528693     3.522874     3.517056     3.511237     3.505419     3.499600     3.493781     3.487963     3.482144
      3.476326     3.470507     3.464688     3.458870     3.453051     3.447232     3.441414     3.435595     3.429777     3.423958
      3.418139     3.412321     3.406502     3.400684     3.394865     3.389046     3.383228     3.377409     3.371591     3.365772
      3.359953     3.354135     3.348316     3.342498     3.336679     3.330860     3.325042     3.319223     3.313405     3.307586
      3.301767     3.295949     3.290130     3.284312     3.278493     3.272674     3.266856     3.261037     3.255219     3.249400
      3.243581     3.237763     3.231944     3.226125     3.220307     3.214488     3.208670     3.202851     3.197032     3.191214
      3.185395     3.179577     3.173758     3.167939     3.162121     3.156302     3.150484     3.144665     3.138846     3.133028
      3.127209     3.121391     3.115572     3.109753     3.103935     3.098116     3.092298     3.086479     3.080660     3.074842
      3.069023     3.063205     3.057386     3.051567     3.045749     3.039930     3.034111     3.028293     3.022474     3.016656
      3.010837     3.005018     2.999200     2.993381     2.987563     2.981744     2.975925     2.970107     2.964288     2.958470
      2.952651     2.946832     2.941014     2.935195     2.929377     2.923558     2.917739     2.911921     2.906102     2.900284
      2.894465     2.888646     2.882828     2.877009     2.871191     2.865372     2.859553     2.853735     2.847916     2.842098
      2.836279     2.830460     2.824642     2.818823     2.813004     2.807186     2.801367     2.795549     2.789730     2.783911
      2.778093     2.772274     2.766456     2.760637     2.754818     2.749000     2.743181     2.737363     2.731544     2.725725
      2.719907     2.714088     2.708270     2.702451     2.696632     2.690814     2.684995     2.679177     2.673358     2.667539
      2.661721     2.655902     2.650084     2.644265     2.638446     2.632628     2.626809     2.620991     2.615172     2.609353
      2.603535     2.597716     2.591897     2.586079     2.580260     2.574442     2.568623     2.562804     2.556986     2.551167
      2.545349     2.539530     2.533711     2.527893     2.522074     2.516256     2.510437     2.504618     2.498800     2.492981
      2.487163     2.481344     2.475525     2.469707     2.463888     2.458070     2.452251     2.446432     2.440614     2.434795
      2.428977     2.423158     2.417339     2.411521     2.405702     2.399884     2.394065     2.388246     2.382428     2.376609
      2.370790     2.364972     2.359153     2.353335     2.347516     2.341697     2.335879     2.330060     2.324242     2.318423
      2.312604     2.306786     2.300967     2.295149     2.289330     2.283511     2.277693     2.271874     2.266056     2.260237
      2.254418     2.248600     2.242781     2.236963     2.231144     2.225325     2.219507     2.213688     2.207870     2.202051
      2.196232     2.190414     2.184595     2.178777     2.172958     2.167139     2.161321     2.155502     2.149683     2.143865
      2.138046     2.132228     2.126409     2.120590     2.114772     2.108953     2.103135     2.097316     2.091497     2.085679
      2.079860     2.074042     2.068223     2.062404     2.056586     2.050767     2.044949     2.039130     2.033311     2.027493
      2.021674     2.015856     2.010037     2.004218     1.998400     1.992581     1.986763     1.980944     1.975126     1.969307
      1.963489     1.957670     1.951852     1.946033     1.940215     1.934397     1.928578     1.922760     1.916941     1.911123
      1.905304     1.899486     1.893667     1.887849     1.882030     1.876212     1.870393     1.864575     1.858756     1.852938
      1.847119     1.841301     1.835482     1.829664     1.823845     1.818027     1.812208     1.806390     1.800571     1.794753
      1.788934     1.783116     1.777297     1.771479     1.765660     1.759842     1.754023     1.748205     1.742386     1.736568
      1.730749     1.724931     1.719113     1.713294     1.707476     1.701657     1.695839     1.690020     1.684202     1.678383
      1.672565     1.666746     1.660928     1.655109     1.649291     1.643472     1.637654     1.631835     1.626017     1.620198
      1.614380     1.608561     1.602743     1.596924     1.591106     1.585287     1.579469     1.573650     1.567832     1.562013
      1.556195     1.550376     1.544558     1.538739     1.532921     1.527102     1.521284     1.515465     1.509647     1.503829
      1.498010     1.492192     1.486373     1.480555     1.474736     1.468918     1.463099     1.457281     1.451462     1.445644
      1.439825     1.434007     1.428188     1.422370     1.416551     1.410733     1.404914     1.399096     1.393277     1.387459
      1.381640     1.375822     1.370003     1.364185     1.358366     1.352548     1.346729     1.340911     1.335092     1.329274
      1.323455     1.317637     1.311818     1.306000     1.300182     1.294363     1.288545     1.282726     1.276908     1.271089
      1.265271     1.259452     1.253634     1.247815     1.241997     1.236178     1.230360     1.224541     1.218723     1.212904
      1.207086     1.201267     1.195449     1.189630     1.183812     1.177993     1.172175     1.166356     1.160538     1.154719
      1.148901     1.143082     1.137264     1.131445     1.125627     1.119808     1.113990     1.108171     1.102353     1.096534
      1.090716     1.084898     1.079079     1.073261     1.067442     1.061624     1.055805     1.049987     1.044168     1.038350
      1.032531     1.026713     1.020894     1.015076     1.009257     1.003439     0.997620     0.991802     0.985983     0.980165
      0.974346     0.968528     0.962709     0.956891     0.951072     0.945254     0.939435     0.933617     0.927798     0.921980
      0.916161     0.910343     0.904524     0.898706     0.892887     0.887069     0.881251     0.875432     0.869614     0.863795
      0.857977     0.852158     0.846340     0.840521     0.834703     0.828884     0.823066     0.817247     0.811429     0.805610
      0.799792     0.793973     0.788155     0.782336     0.776518     0.770699     0.764881     0.759062     0.753244     0.747425
      0.741607     0.735788     0.729970     0.724151     0.718333     0.712514     0.706696     0.700877     0.695059     0.689240
      0.683422     0.677603     0.671785     0.665967     0.660148     0.654330     0.648511     0.642693     0.636874     0.631056
      0.625237     0.619419     0.613600     0.607782     0.601963     0.596145     0.590326     0.584508     0.578689     0.572871
      0.567052     0.561234     0.555415     0.549597     0.543778     0.537960     0.532141     0.526323     0.520504     0.514686
      0.508867     0.503049     0.497230     0.491412     0.485593     0.479775     0.473956     0.468138     0.462319     0.456501
      0.450682     0.444864     0.439045     0.433227     0.427408     0.421590     0.415771     0.409953     0.404134     0.398316
      0.392497     0.386679     0.380860     0.375042     0.369223     0.363405     0.357586     0.351767     0.345949     0.340130
      0.334312     0.328493     0.322675     0.316856     0.311038     0.305219     0.299401     0.293582     0.287764     0.281945
      0.276127     0.270308     0.264490     0.258671     0.252853     0.247034     0.241216     0.235397     0.229579     0.223760
      0.217942     0.212123     0.206305     0.200486
 NY phased data points follow
  -2.05248E-03 -2.79008E-01  3.74943E-03  4.22548E-02 -8.46122E-02 -1.96226E-01 -3.57302E-01 -2.08579E-01  9.48761E-03  6.44406E-03
   1.98940E-01  3.18584E-01  5.30483E-01  1.62622E-01  2.23446E-01  5.99693E-01  4.88941E-01  2.38535E-01 -1.45249E-01  7.10047E-02
   2.07154E-02 -1.41430E-01  7.98528E-02  9.35033E-02 -4.53152E-02 -1.43945E-01 -1.67736E-01  6.60247E-02 -1.71487E-01 -3.37737E-01
   5.95188E-02 -2.37281E-01 -4.85083E-01 -1.43874E-01 -3.09775E-01 -4.05678E-01 -1.01544E-01 -2.62837E-01 -2.48543E-01  1.19787E-01
   3.55020E-01  5.03051E-02 -6.56467E-02  8.65772E-02  9.37954E-02  5.68195E-01  6.01876E-01  1.09566E-02  3.73488E-02  1.41310E-01
   1.04794E-01  1.41111E-01 -1.05721E-01 -5.77496E-02 -4.30987E-02  1.38835E-01 -8.06580E-02 -7.22691E-02  2.91754E-01 -1.40343E-01
  -1.91304E-01 -2.33913E-01 -1.19029E-01 -1.62721E-01 -3.78471E-01  6.59441E-02  1.22935E-01  3.25987E-02  4.36316E-01  1.90410E-01
   4.53896E-02  2.87753E-01  1.63782E-01  8.78576E-02  8.18990E-02  7.30953E-02 -1.88488E-01 -1.11919E-01 -5.51924E-01 -6.08569E-01
  -1.46262E-01 -2.63793E-01  3.53615E-02  3.92795E-01  5.28690E-01  2.44850E-01  1.12719E-01 -8.10005E-03  1.18554E-01  5.57501E-02
  -5.57265E-03  3.79138E-01  1.43023E-01  2.22444E-01  1.33401E-01 -2.59753E-02 -6.41918E-02 -1.78642E-01 -2.00132E-01 -6.24774E-01
  -4.39984E-01 -1.12164E-01 -7.64381E-02  2.25420E-01  3.26397E-01  3.13571E-01  2.03720E-01  4.31816E-01  6.19724E-01  3.03163E-01
   4.00070E-01  3.16904E-01  2.48819E-01  3.24584E-01  4.78350E-02  4.46744E-02  3.69594E-02  3.49869E-02  1.78760E-01  1.46197E-01
   4.27906E-02  7.00651E-02  8.37509E-02 -1.76954E-01 -3.02972E-01 -1.12677E-01 -2.23065E-01 -3.65634E-01 -4.96486E-01 -7.49149E-01
  -4.58268E-01 -3.30353E-01 -3.07287E-01 -2.78755E-01 -6.62940E-01 -9.88587E-01 -9.89363E-01 -5.90543E-01 -5.59312E-01 -1.45341E-01
   2.34015E-01 -1.60740E-01  1.17032E-01  7.22144E-02 -1.13130E-01  2.87202E-01  1.80453E-01  2.36949E-01  2.04134E-01  1.28902E-02
   3.22547E-01  1.20586E-01  1.34757E-01  2.54907E-01 -1.50922E-01  1.25274E-01  4.34154E-01  1.20655E-01  1.35440E-01  3.98687E-01
   3.48931E-01  3.48945E-01  5.55201E-01  4.25962E-01  6.17084E-01  1.37417E+00  5.42580E-01 -4.98116E-01 -8.09129E-01 -1.18125E+00
  -6.65662E-01 -4.20328E-01 -4.73904E-01 -3.02587E-01 -4.90942E-03 -1.80445E-01 -5.50148E-01 -3.66415E-01 -3.73997E-01 -5.41109E-01
  -5.53380E-01 -3.06751E-01 -3.46830E-01 -1.95340E-01  1.12090E-02 -2.45225E-01 -2.30601E-01 -2.94747E-01 -3.80506E-01 -3.70943E-01
  -4.60456E-01 -3.52907E-01 -2.70632E-01 -3.00089E-01 -1.66374E-01  2.20061E-01  6.55289E-02 -3.67673E-01  1.76553E-02  1.75016E-01
  -2.99760E-01 -6.01183E-02  2.35966E-01 -2.21039E-01 -3.03462E-02 -8.63440E-02 -1.74833E-01  2.81767E-01  1.69422E-01  7.67204E-02
  -1.17908E-01 -2.18896E-01 -1.29760E-01  2.74775E-02 -5.02768E-02 -3.77165E-02  7.11754E-02  1.83513E-01  1.80089E-01 -1.47989E-01
   9.67587E-02 -1.44964E-02 -2.77880E-01 -8.46655E-02  3.11123E-01  3.15551E-01  1.65167E-01  2.18284E-01 -3.81235E-02  3.90990E-01
   6.41634E-01  1.19715E-01  2.08488E-01  8.98097E-02  3.12019E-02  1.29058E-01 -2.68648E-01  1.08852E-01 -4.97445E-03 -8.29391E-02
  -8.41941E-02 -4.91431E-01 -1.21722E-01 -5.27217E-02 -3.03720E-01 -1.65784E-01  2.94539E-01  7.48384E-02  2.74350E-01  3.43309E-01
  -1.41042E-01  6.07581E-03 -9.69875E-02  8.56213E-02  1.66732E-01  9.58724E-02  2.91150E-01  5.29607E-02  2.20209E-01  5.00321E-01
   2.23602E-01  1.99089E-01 -7.61324E-02  1.95196E-01  3.64618E-01  2.90928E-01  3.03749E-01 -1.93699E-02  5.67568E-01  3.26590E-01
   2.35049E-01  3.43719E-01 -3.09917E-02  8.49656E-02  4.65150E-03  3.86944E-02 -8.10039E-02  1.44307E-01 -1.72737E-02 -4.67573E-01
  -3.97435E-01 -3.46910E-01 -1.93099E-01 -1.76433E-01  3.08718E-02  2.74547E-01  3.27622E-01  5.51515E-01  5.44760E-01  3.31955E-01
   1.59952E-01 -1.26324E-02  1.80125E-01  1.28795E-01  8.48568E-02  2.21585E-01 -6.87999E-02  2.86536E-01  3.70668E-01  1.07954E-01
   1.00118E-01  2.13887E-01  4.74875E-01  2.20044E-01  4.46548E-01  4.82892E-01  3.50561E-01  3.58927E-01  2.37745E-01  1.95197E-01
   2.84912E-01  3.04159E-01 -6.55689E-02  9.74206E-02  2.76794E-03  1.57776E-01 -4.11542E-02 -1.16481E-01 -5.56165E-02 -3.76768E-01
  -2.15586E-01 -3.93969E-01  1.26777E-01 -9.73071E-02 -1.70261E-01 -3.35054E-02  3.19212E-02  5.57462E-01  2.43379E-02 -1.91344E-02
   1.35940E-02 -2.91844E-03  7.93261E-02 -2.04259E-01 -5.13892E-01 -5.14206E-01 -2.95369E-01 -4.03652E-01 -3.51058E-01 -4.25479E-02
  -3.86478E-01 -1.36558E+00 -2.05240E+00 -1.35800E+00 -6.49688E-01 -5.98559E-01  2.50733E-02  1.20792E-01  1.61998E-01 -9.96969E-03
  -6.04242E-02 -2.45442E-02 -8.90471E-02  1.33604E-01  1.37254E-01  3.59423E-01  4.85261E-02  7.36749E-02  1.05049E-01  3.54951E-04
  -5.04072E-02 -1.05987E-01  7.67986E-02 -1.94767E-02 -6.07236E-02  1.31433E-01  1.43323E-01 -6.64161E-02 -3.84886E-02 -2.48618E-01
   2.31454E-01  1.58667E-01  5.48699E-02  4.03678E-01 -2.49136E-01 -8.07941E-03  6.42200E-02 -9.24665E-02  2.43350E-01  9.04325E-02
  -3.13704E-02  1.51063E-01  2.63288E-01  3.20792E-02  1.25654E-01  3.20549E-01  7.58762E-02  2.65758E-01  3.05715E-01  2.81975E-01
   2.31845E-01  1.59176E-01  2.83983E-01 -2.80087E-02  1.13022E-01  1.28538E-01  9.86994E-02  2.05897E-01  2.22510E-01  2.02013E-01
   1.69297E-01  8.23495E-02 -1.95421E-01  6.70004E-02  9.68867E-02  1.36898E-02  1.20816E-01  1.57727E-01 -2.27991E-01 -3.87757E-01
  -3.41136E-01 -5.04061E-01 -1.27114E-01 -2.34092E-02 -2.66299E-02  8.47100E-02 -4.72656E-02 -7.44907E-02 -1.11110E-01 -1.69552E-01
  -8.82258E-02 -1.51667E-01 -2.51206E-02 -8.46045E-02 -3.21942E-01 -1.38444E-01 -1.42466E-01 -1.67036E-01 -1.15843E-01 -2.26274E-02
   1.66253E-01  1.42624E-01  5.49510E-02  6.83325E-02  6.23896E-02 -3.13917E-02 -1.62013E-01  5.24979E-02 -7.05956E-02 -1.27062E-01
   1.54130E-01 -1.21638E-01 -1.49998E-01  2.30425E-01  1.96305E-01 -1.38239E-01  2.46819E-02  2.35133E-01  3.14120E-01  1.06856E-01
   6.32585E-02  2.66952E-01  1.02992E-01  1.02133E-01  1.24310E-01 -1.66116E-01 -1.48317E-01  1.74226E-01 -9.82502E-02 -1.15167E-01
  -1.54962E-01  1.13203E-01  2.48718E-01 -2.11300E-02 -1.78992E-01 -2.28819E-01  1.00232E-01  1.37154E-02  3.16351E-01  4.76696E-02
  -7.99827E-02  7.69654E-02  2.04537E-02 -2.25940E-01 -2.52690E-01  1.50239E-01 -1.15055E-01  1.53129E-01 -1.98274E-01 -1.98467E-01
   1.53798E-01  2.46403E-01  2.46553E-01  2.67873E-02  2.02522E-01  7.69192E-02 -3.21027E-02 -1.71060E-01  9.37211E-02  5.07506E-03
   7.59996E-03  7.22021E-02 -2.89893E-01 -3.61179E-02  2.69288E-01  1.42602E-01  1.69027E-01  1.90511E-02 -1.50024E-01  1.47164E-01
  -1.17730E-01  7.59420E-02  1.28231E-01  6.97457E-02  1.36056E-01 -1.46035E-01  1.96782E-01  4.45713E-02 -2.20344E-01  7.82634E-02
  -1.35573E-02  8.24523E-02  1.93987E-01 -2.85859E-01 -3.16577E-02  1.15151E-01 -3.76885E-02 -5.85428E-02 -2.63590E-03  1.17589E-01
  -2.95930E-02 -4.26622E-02 -2.08356E-01 -2.53148E-01 -3.58945E-01 -2.13726E-01 -2.90044E-01 -4.44842E-01 -4.44638E-01 -2.62835E-01
  -2.43569E-01 -2.26348E-01  1.19295E-01 -2.41243E-01 -6.03617E-02 -1.33720E-01  7.31500E-02  1.20422E-01 -1.49114E-01 -1.10318E-01
  -4.32582E-02  2.22901E-01 -1.27234E-01  3.04504E-01  2.85979E-01  4.71463E-02 -9.55559E-02  2.61434E-01  2.32331E-01 -1.60855E-01
   1.74528E-01 -1.11521E-03  3.21981E-01  6.83952E-02  2.86915E-01  3.33706E-01  1.58485E-01  1.57874E-01 -5.23793E-02  1.19571E-01
  -9.22434E-02  1.37757E-01  3.12478E-01  3.95565E-01  1.59517E-01  3.17336E-01  2.03953E-01 -1.39521E-01 -2.55102E-02 -1.48156E-02
   1.96382E-02  2.03123E-02 -1.34857E-03 -5.37945E-02  1.30211E-01 -1.92304E-01 -1.34411E-02  1.21651E-02  1.35081E-02  1.59066E-01
   1.70809E-02  1.63709E-01  7.29315E-02 -2.55138E-01 -4.58316E-01 -8.98463E-02 -1.31895E-01  1.23576E-02  1.70987E-01  8.87434E-02
  -4.09054E-02 -9.36990E-02 -6.89639E-03  1.48179E-01  1.52337E-02 -7.53777E-02  1.77002E-01 -9.29727E-03  3.47205E-01  1.32308E-01
   7.84444E-02  1.47361E-01  1.52033E-02  2.25782E-01  2.62303E-02 -1.39510E-01 -1.47989E-01  5.78765E-03 -1.00783E-02 -7.84347E-02
   2.44738E-02  3.46129E-01  7.25260E-03  6.30193E-02  2.06709E-01  1.69263E-01  9.06741E-02 -1.03384E-01  8.42565E-04  5.85361E-03
   1.93085E-01  6.48066E-02  2.64915E-01  7.14268E-02  8.83903E-02  7.21471E-02  8.49491E-02  8.83623E-02 -8.45297E-02  1.29389E-01
  -1.76234E-02  3.60340E-01  2.60290E-01  2.78620E-01  2.80721E-01  1.18775E-01  5.78784E-02  1.10844E-01  4.56002E-02 -1.67428E-02
   1.54764E-01 -5.23382E-02  1.46530E-01  2.61761E-02  1.47476E-01  2.97492E-01  1.05762E-02  3.50525E-02  1.76860E-01 -2.08634E-01
  -2.98787E-02  9.19844E-02 -1.26901E-01  1.54680E-03
 NY points of the fit to the data follow
   8.17620E-02  2.94115E-02 -1.78637E-02 -2.78800E-02 -2.99208E-02 -7.10186E-03 -5.48068E-04  9.44244E-03  1.84606E-02  3.07186E-02
   1.70441E-01  4.16966E-01  4.17026E-01  3.00016E-01  4.53804E-01  5.54008E-01  3.53707E-01  2.05778E-01  1.17787E-01  5.97394E-02
   3.33965E-02 -2.30995E-02 -3.52060E-02 -6.05147E-02 -8.23192E-02 -1.06815E-01 -1.20347E-01 -1.29384E-01 -1.39832E-01 -1.49493E-01
  -1.53629E-01 -1.64096E-01 -1.85385E-01 -2.14264E-01 -2.48747E-01 -2.70594E-01 -3.01892E-01 -3.10917E-01 -1.67626E-01  6.92068E-02
   1.06270E-01  1.21021E-01  1.60757E-01  2.01016E-01  2.89228E-01  3.76083E-01  3.45726E-01  2.51696E-01  2.47813E-01  1.60708E-01
   1.05022E-01  6.89092E-02  2.77039E-02 -7.49013E-03 -5.23573E-02 -1.20730E-01 -1.57531E-01 -1.37523E-01 -8.69905E-02 -1.00127E-01
  -1.96459E-01 -1.98330E-01 -1.41690E-01 -2.78570E-01 -2.19009E-01  1.54917E-01  1.66823E-01  1.96175E-01  4.24949E-01  4.04457E-01
   3.55074E-01  2.58580E-01  1.66318E-01  1.16405E-01  2.49185E-02 -3.59201E-02 -8.25042E-02 -2.06906E-01 -4.41112E-01 -4.64958E-01
  -2.02933E-01 -8.06689E-02  3.26354E-02  2.91587E-01  4.02575E-01  4.07495E-01  3.48861E-01  2.79618E-01  2.33097E-01  1.79850E-01
   1.61097E-01  1.37656E-01  1.10621E-01  7.75859E-02  4.54863E-02 -2.65691E-02 -1.56865E-01 -2.97081E-01 -4.26622E-01 -4.90253E-01
  -2.87134E-01 -1.13498E-01  1.13848E-01  2.82041E-01  2.74876E-01  3.10179E-01  2.48718E-01  2.47000E-01  2.24953E-01  2.23941E-01
   2.22837E-01  2.19821E-01  2.15094E-01  2.12405E-01  2.09772E-01  2.09179E-01  2.08068E-01  2.02006E-01  1.96867E-01  1.99278E-01
   1.49617E-01  7.06036E-02  4.80406E-02 -4.26800E-02 -1.58566E-01 -9.63833E-02 -1.36449E-01 -3.13949E-01 -4.26186E-01 -5.90047E-01
  -5.55542E-01 -4.59050E-01 -2.45622E-01 -2.09937E-01 -6.66122E-01 -9.46128E-01 -9.28248E-01 -6.24892E-01 -3.40735E-01 -1.61711E-01
  -2.03926E-02  2.09398E-02  3.89572E-02  3.46476E-02  4.92042E-02  6.49058E-02  8.01578E-02  9.46830E-02  1.06269E-01  1.18219E-01
   1.30801E-01  1.42298E-01  1.54925E-01  1.68534E-01  1.84049E-01  2.02102E-01  2.22588E-01  2.43973E-01  2.65865E-01  2.96106E-01
   3.39571E-01  4.00642E-01  4.80909E-01  4.88820E-01  6.72531E-01  1.06155E+00  6.91232E-01 -5.20621E-01 -9.92036E-01 -9.36881E-01
  -8.03103E-01 -5.49621E-01 -4.48776E-01 -2.94755E-01 -2.86592E-01 -2.60504E-01 -2.39942E-01 -2.37662E-01 -2.49943E-01 -2.28489E-01
  -1.99650E-01 -1.93072E-01 -1.83551E-01 -1.87273E-01 -1.88900E-01 -1.83522E-01 -1.75166E-01 -1.66426E-01 -1.63183E-01 -1.54433E-01
  -1.43595E-01 -1.34041E-01 -1.23371E-01 -1.13817E-01 -1.05834E-01 -9.87803E-02 -9.05049E-02 -8.26594E-02 -7.55116E-02 -6.89272E-02
  -5.88375E-02 -3.88822E-02 -2.27202E-02 -3.00909E-02 -4.99255E-02 -5.36085E-02 -3.13224E-02 -6.81581E-03 -1.90491E-02 -5.08657E-02
  -6.40298E-02 -6.73379E-02 -6.53316E-02 -5.76561E-02 -4.37076E-02 -2.42594E-02 -1.08979E-02 -1.45259E-02 -3.08100E-02 -2.18727E-02
   1.24521E-02  1.69188E-02 -1.05526E-03  5.42759E-02  1.99992E-01  2.72162E-01  2.06788E-01  1.14004E-01  1.61966E-01  3.53581E-01
   3.76889E-01  2.13343E-01  9.54039E-02 -1.75049E-04 -6.20271E-02 -8.47958E-02 -9.51827E-02 -8.22720E-02 -8.70100E-02 -9.45794E-02
  -1.00078E-01 -1.03707E-01 -1.04161E-01 -1.05146E-01 -1.07260E-01 -1.07114E-01 -1.01882E-01 -1.01251E-01 -9.63875E-02 -8.93654E-02
  -7.84722E-02 -9.99581E-02 -1.08768E-01 -1.12079E-01 -1.58671E-01 -7.13761E-02  5.78164E-02  1.47247E-02  3.26032E-02  1.42362E-01
   1.55053E-01  1.49987E-01  9.50632E-02  1.21331E-01  1.54431E-01  1.29022E-01  1.33269E-01  1.26783E-01  1.58341E-01  1.33670E-01
   1.19016E-01  8.86617E-02  4.66810E-02  2.37816E-02 -1.30046E-02 -3.60804E-02 -7.10493E-02 -1.02600E-01 -1.35997E-01 -1.77873E-01
  -2.50618E-01 -3.04473E-01 -2.98609E-01 -2.48236E-01 -7.96618E-02  1.10879E-01  2.30328E-01  3.55424E-01  3.59413E-01  2.96187E-01
   2.32994E-01  1.57351E-01  1.31099E-01  1.04101E-01  1.11783E-01  1.39852E-01  1.51132E-01  1.75708E-01  1.77441E-01  1.69620E-01
   1.63030E-01  1.46761E-01  1.40272E-01  1.30567E-01  1.19154E-01  1.09902E-01  9.30464E-02  5.87161E-02  3.04925E-02  8.89046E-03
  -2.41380E-02 -2.71573E-02 -3.09605E-02 -5.32118E-02 -4.87831E-02 -8.48641E-02 -1.28449E-01 -1.80493E-01 -2.10996E-01 -2.29905E-01
  -2.37794E-01 -2.25557E-01 -2.01806E-01 -1.59843E-01 -1.25501E-01 -6.47188E-02 -5.77007E-03  5.40906E-02  9.07494E-02  9.20152E-02
   6.05633E-02 -8.51657E-04 -6.10164E-02 -9.66855E-02 -2.51688E-01 -4.38392E-01 -3.62152E-01 -2.73504E-01 -2.03782E-01 -2.65082E-02
  -3.39766E-01 -1.48515E+00 -2.11356E+00 -1.41852E+00 -7.97974E-01 -3.57918E-01 -5.05821E-02  2.67951E-02  9.92887E-02  9.18088E-03
   4.73481E-03  1.13766E-02  1.92556E-02  2.58783E-02  3.29855E-02  4.10902E-02  4.57128E-02  4.65799E-02  4.15135E-02  2.74942E-02
   6.42589E-03 -1.60840E-02 -4.70644E-02 -5.53546E-02 -6.06083E-02 -5.54057E-02 -3.76451E-02 -2.57739E-02 -4.07063E-03  5.71752E-03
   1.91214E-02  2.91239E-02  3.69640E-02  4.05805E-02  4.38610E-02  4.74690E-02  5.12967E-02  5.63872E-02  5.92885E-02  6.14211E-02
   6.35541E-02  6.66707E-02  7.01877E-02  7.34134E-02  7.59438E-02  7.63831E-02  7.67616E-02  7.89867E-02  8.24323E-02  8.55277E-02
   8.98482E-02  9.20051E-02  9.20224E-02  9.03699E-02  8.78689E-02  8.57918E-02  8.38292E-02  8.21656E-02  7.89767E-02  7.44981E-02
   7.02366E-02  6.57698E-02  5.93519E-02  5.26737E-02  4.81975E-02  4.45754E-02  3.99013E-02  3.52990E-02  3.13925E-02  2.74069E-02
   2.39583E-02  2.26007E-02  1.99373E-02  1.75769E-02  1.57896E-02  1.29254E-02  1.06412E-02  8.87380E-03  7.91929E-03  7.45929E-03
   5.84389E-03  5.15935E-03  6.91160E-03  8.01879E-03  9.78897E-03  1.28703E-02  1.56964E-02  1.97522E-02  2.55584E-02  2.98813E-02
   3.10108E-02  3.08140E-02  3.32323E-02  3.85117E-02  4.49497E-02  5.17586E-02  5.71468E-02  6.25316E-02  6.83898E-02  7.62564E-02
   8.56420E-02  9.44307E-02  1.03896E-01  1.12796E-01  1.21579E-01  1.31330E-01  1.40103E-01  1.46500E-01  1.50771E-01  1.51935E-01
   1.52497E-01  1.51940E-01  1.50786E-01  1.49817E-01  1.47286E-01  1.43123E-01  1.35740E-01  1.25604E-01  1.16562E-01  1.08836E-01
   1.01581E-01  9.46377E-02  8.69951E-02  7.88194E-02  7.25609E-02  6.78859E-02  6.21275E-02  5.72788E-02  5.30551E-02  4.99620E-02
   4.68902E-02  4.39365E-02  4.08785E-02  3.97771E-02  4.21826E-02  4.42771E-02  4.58588E-02  4.92731E-02  5.26391E-02  5.59363E-02
   6.12084E-02  6.64464E-02  7.08395E-02  7.40796E-02  7.65745E-02  7.81085E-02  7.82283E-02  7.97720E-02  8.28952E-02  8.56368E-02
   8.62951E-02  8.56471E-02  8.44162E-02  8.29391E-02  8.12613E-02  7.72670E-02  7.43660E-02  7.23894E-02  7.02377E-02  6.81239E-02
   6.52935E-02  6.32026E-02  6.02524E-02  5.76965E-02  5.50077E-02  5.08026E-02  4.78952E-02  4.71866E-02  4.57494E-02  4.32071E-02
   4.08364E-02  3.87713E-02  3.52583E-02  2.91396E-02  2.28320E-02  1.69501E-02  1.12436E-02  5.38933E-03 -3.40203E-03 -1.56878E-02
  -2.97149E-02 -4.37707E-02 -5.60524E-02 -6.92671E-02 -8.24539E-02 -9.37248E-02 -1.02993E-01 -1.11816E-01 -1.21425E-01 -1.27601E-01
  -1.28506E-01 -1.27498E-01 -1.27800E-01 -1.25769E-01 -1.20020E-01 -1.13552E-01 -1.07526E-01 -1.01121E-01 -9.61923E-02 -9.23030E-02
  -8.69177E-02 -7.96793E-02 -7.30650E-02 -6.59801E-02 -5.67484E-02 -4.78336E-02 -3.97396E-02 -3.14942E-02 -2.29376E-02 -1.67919E-02
  -1.01475E-02 -1.07128E-03  5.82866E-03  1.02373E-02  1.43498E-02  2.00086E-02  2.75608E-02  3.11407E-02  3.21483E-02  3.64717E-02
   4.02648E-02  4.22674E-02  4.51560E-02  4.61657E-02  4.69965E-02  4.98484E-02  5.12135E-02  5.06866E-02  5.01371E-02  5.21623E-02
   5.43495E-02  5.54344E-02  5.85887E-02  6.12855E-02  6.18638E-02  6.16718E-02  6.21891E-02  6.23062E-02  6.13336E-02  6.19912E-02
   6.23020E-02  6.14068E-02  6.14138E-02  6.15485E-02  6.18410E-02  6.21877E-02  6.29319E-02  6.57027E-02  6.61772E-02  6.14577E-02
   5.83432E-02  6.00280E-02  6.13939E-02  6.07528E-02  6.02004E-02  6.13251E-02  6.22173E-02  5.95562E-02  5.76970E-02  5.87903E-02
   6.12362E-02  6.24045E-02  6.23801E-02  6.32577E-02  6.39036E-02  6.55283E-02  6.65782E-02  6.67061E-02  6.77172E-02  6.95193E-02
   6.93777E-02  6.72855E-02  6.58486E-02  6.63181E-02  6.67290E-02  6.77221E-02  6.97372E-02  7.11201E-02  7.15497E-02  7.05727E-02
   7.20115E-02  7.48424E-02  7.72484E-02  7.94486E-02  7.86871E-02  7.62219E-02  7.50958E-02  7.51735E-02  7.72885E-02  7.89657E-02
   7.81315E-02  7.74484E-02  7.71701E-02  7.72152E-02  7.88418E-02  7.92234E-02  7.74219E-02  7.82324E-02  8.10482E-02  8.21186E-02
   8.17671E-02  8.23585E-02  8.31548E-02  8.41895E-02  8.48718E-02  8.48193E-02  8.80129E-02  9.20737E-02  9.50236E-02  9.69791E-02
   9.82303E-02  9.98528E-02  9.99985E-02  1.01813E-01
 NY background values follow
     2.145E-02    2.141E-02    2.138E-02    2.135E-02    2.131E-02    2.128E-02    2.124E-02    2.121E-02    2.118E-02    2.114E-02
     2.111E-02    2.108E-02    2.104E-02    2.101E-02    2.097E-02    2.094E-02    2.091E-02    2.087E-02    2.084E-02    2.081E-02
     2.077E-02    2.074E-02    2.070E-02    2.067E-02    2.064E-02    2.060E-02    2.057E-02    2.054E-02    2.050E-02    2.047E-02
     2.043E-02    2.040E-02    2.037E-02    2.033E-02    2.030E-02    2.027E-02    2.023E-02    2.020E-02    2.016E-02    2.013E-02
     2.010E-02    2.006E-02    2.003E-02    2.000E-02    1.996E-02    1.993E-02    1.989E-02    1.986E-02    1.983E-02    1.979E-02
     1.976E-02    1.973E-02    1.969E-02    1.966E-02    1.962E-02    1.959E-02    1.956E-02    1.952E-02    1.949E-02    1.945E-02
     1.942E-02    1.939E-02    1.935E-02    1.932E-02    1.928E-02    1.925E-02    1.922E-02    1.918E-02    1.915E-02    1.912E-02
