 
 $NMID
 ID=''
 FMTDAT='(2E13.5)'
 TRAMP=   1.00000E+0
 VOLUME=   1.00000E+0
 $END
  -1.81563E+4   1.08998E+4
  -5.27837E+4   1.36212E+4
  -4.96106E+4   2.24335E+4
  -4.59329E+4   2.05714E+4
  -4.83170E+4   1.98159E+4
  -4.75732E+4   2.18328E+4
  -4.61325E+4   2.04449E+4
  -4.73799E+4   1.97367E+4
  -4.69688E+4   2.08507E+4
  -4.59890E+4   1.97881E+4
  -4.66705E+4   1.91515E+4
  -4.61449E+4   1.99497E+4
  -4.53073E+4   1.93410E+4
  -4.59424E+4   1.85958E+4
  -4.55301E+4   1.89584E+4
  -4.47987E+4   1.82714E+4
  -4.50745E+4   1.77779E+4
  -4.48138E+4   1.79291E+4
  -4.40893E+4   1.74806E+4
  -4.43828E+4   1.70388E+4
  -4.39679E+4   1.70393E+4
  -4.34635E+4   1.67684E+4
  -4.35844E+4   1.64368E+4
  -4.33662E+4   1.62771E+4
  -4.28444E+4   1.59022E+4
  -4.27976E+4   1.56067E+4
  -4.26494E+4   1.54539E+4
  -4.22154E+4   1.49628E+4
  -4.21001E+4   1.45436E+4
  -4.17704E+4   1.44222E+4
  -4.14016E+4   1.41853E+4
  -4.12927E+4   1.39434E+4
  -4.10765E+4   1.37306E+4
  -4.06412E+4   1.34426E+4
  -4.04601E+4   1.32878E+4
  -4.01980E+4   1.31377E+4
  -3.97621E+4   1.29532E+4
  -3.95316E+4   1.27838E+4
  -3.92754E+4   1.27409E+4
  -3.89424E+4   1.26297E+4
  -3.87151E+4   1.24182E+4
  -3.85955E+4   1.20589E+4
  -3.81977E+4   1.17936E+4
  -3.80074E+4   1.16812E+4
  -3.77592E+4   1.14310E+4
  -3.74590E+4   1.12547E+4
  -3.71969E+4   1.11066E+4
  -3.70132E+4   1.09766E+4
  -3.68105E+4   1.08202E+4
  -3.65155E+4   1.07143E+4
  -3.63889E+4   1.05265E+4
  -3.60460E+4   1.03101E+4
  -3.57894E+4   1.02152E+4
  -3.55461E+4   1.01007E+4
  -3.54334E+4   9.99544E+3
  -3.51370E+4   9.76734E+3
  -3.50383E+4   9.62775E+3
  -3.48090E+4   9.45737E+3
  -3.45879E+4   9.33200E+3
  -3.43290E+4   9.09272E+3
  -3.41069E+4   8.96330E+3
  -3.39122E+4   8.81410E+3
  -3.37621E+4   8.73671E+3
  -3.36354E+4   8.62788E+3
  -3.33933E+4   8.40746E+3
  -3.30812E+4   8.27559E+3
  -3.29251E+4   8.17599E+3
  -3.27636E+4   8.06119E+3
  -3.25345E+4   7.84532E+3
  -3.22994E+4   7.71646E+3
  -3.20830E+4   7.57591E+3
  -3.18653E+4   7.44899E+3
  -3.17069E+4   7.26423E+3
  -3.14599E+4   7.17546E+3
  -3.12686E+4   7.07105E+3
  -3.09889E+4   6.99457E+3
  -3.07792E+4   6.84323E+3
  -3.05256E+4   6.71946E+3
  -3.03678E+4   6.62037E+3
  -3.01043E+4   6.55351E+3
  -2.98873E+4   6.43105E+3
  -2.96740E+4   6.26894E+3
  -2.93783E+4   6.20384E+3
  -2.92105E+4   6.05608E+3
  -2.89381E+4   5.95520E+3
  -2.87937E+4   5.82691E+3
  -2.84873E+4   5.67317E+3
  -2.81780E+4   5.56857E+3
  -2.79535E+4   5.54954E+3
  -2.77226E+4   5.42032E+3
  -2.74294E+4   5.34058E+3
  -2.71341E+4   5.27076E+3
  -2.70477E+4   5.26884E+3
  -2.67982E+4   5.17849E+3
  -2.65420E+4   5.12697E+3
  -2.63098E+4   4.99346E+3
  -2.60337E+4   5.00048E+3
  -2.58449E+4   5.05951E+3
  -2.56515E+4   4.99257E+3
  -2.53448E+4   4.87957E+3
  -2.51259E+4   4.76668E+3
  -2.47945E+4   4.78144E+3
  -2.46511E+4   4.82229E+3
  -2.43980E+4   4.78329E+3
  -2.42603E+4   4.68541E+3
  -2.40243E+4   4.67337E+3
  -2.37663E+4   4.70362E+3
  -2.35879E+4   4.54119E+3
  -2.34400E+4   4.58810E+3
  -2.31666E+4   4.48606E+3
  -2.29603E+4   4.48923E+3
  -2.27186E+4   4.51112E+3
  -2.25300E+4   4.51378E+3
  -2.24160E+4   4.49689E+3
  -2.22502E+4   4.41964E+3
  -2.19525E+4   4.29972E+3
  -2.18393E+4   4.28820E+3
  -2.15424E+4   4.17932E+3
  -2.13928E+4   4.18172E+3
  -2.12308E+4   4.17899E+3
  -2.10112E+4   4.15996E+3
  -2.07321E+4   4.07859E+3
  -2.05329E+4   4.07238E+3
  -2.03979E+4   3.92595E+3
  -2.01631E+4   3.90740E+3
  -1.99796E+4   3.93540E+3
  -1.97288E+4   3.88559E+3
  -1.95723E+4   3.83335E+3
  -1.93359E+4   3.74029E+3
  -1.92421E+4   3.66628E+3
  -1.90272E+4   3.63612E+3
  -1.87757E+4   3.61141E+3
  -1.84867E+4   3.54063E+3
  -1.83431E+4   3.55158E+3
  -1.81456E+4   3.49632E+3
  -1.79650E+4   3.37407E+3
  -1.77175E+4   3.39548E+3
  -1.75180E+4   3.26583E+3
  -1.72917E+4   3.28336E+3
  -1.71154E+4   3.30261E+3
  -1.69164E+4   3.14140E+3
  -1.66376E+4   3.12839E+3
  -1.64769E+4   3.07274E+3
  -1.62355E+4   3.05461E+3
  -1.60437E+4   3.01482E+3
  -1.58082E+4   2.97097E+3
  -1.55916E+4   2.98034E+3
  -1.53656E+4   2.92473E+3
  -1.52040E+4   2.92313E+3
  -1.49493E+4   2.87467E+3
  -1.47941E+4   2.86420E+3
  -1.45981E+4   2.82715E+3
  -1.44428E+4   2.74834E+3
  -1.41699E+4   2.70095E+3
  -1.39108E+4   2.72373E+3
  -1.37574E+4   2.63391E+3
  -1.35159E+4   2.64536E+3
  -1.34252E+4   2.60278E+3
  -1.31546E+4   2.68303E+3
  -1.29548E+4   2.50358E+3
  -1.27534E+4   2.47846E+3
  -1.26259E+4   2.53682E+3
  -1.24118E+4   2.40611E+3
  -1.22097E+4   2.50915E+3
  -1.20996E+4   2.38363E+3
  -1.18677E+4   2.36838E+3
  -1.16643E+4   2.38287E+3
  -1.14527E+4   2.38635E+3
  -1.12736E+4   2.34042E+3
  -1.11727E+4   2.37770E+3
  -1.10411E+4   2.32216E+3
  -1.08757E+4   2.25856E+3
  -1.07170E+4   2.25722E+3
  -1.05598E+4   2.26409E+3
  -1.03257E+4   2.17854E+3
  -1.02246E+4   2.16911E+3
  -9.96773E+3   2.13103E+3
  -9.85605E+3   2.12294E+3
  -9.70464E+3   2.09002E+3
  -9.59415E+3   2.08624E+3
  -9.49431E+3   1.99702E+3
  -9.19773E+3   1.99490E+3
  -9.07920E+3   1.92494E+3
  -8.97897E+3   1.92311E+3
  -8.85443E+3   1.90905E+3
  -8.63199E+3   1.84641E+3
  -8.54654E+3   1.82266E+3
  -8.40635E+3   1.76779E+3
  -8.23240E+3   1.76338E+3
  -8.08645E+3   1.71275E+3
  -7.94933E+3   1.71052E+3
  -7.78265E+3   1.63940E+3
  -7.69683E+3   1.63936E+3
  -7.55505E+3   1.65458E+3
  -7.43122E+3   1.55583E+3
  -7.25485E+3   1.53033E+3
  -7.14594E+3   1.53396E+3
  -7.06248E+3   1.45962E+3
  -6.87877E+3   1.45107E+3
  -6.75404E+3   1.42768E+3
  -6.67191E+3   1.34973E+3
  -6.54733E+3   1.36726E+3
  -6.42351E+3   1.34183E+3
  -6.32609E+3   1.28833E+3
  -6.24330E+3   1.30526E+3
  -6.07355E+3   1.26569E+3
  -5.98325E+3   1.26598E+3
  -5.87015E+3   1.21749E+3
  -5.78089E+3   1.20728E+3
  -5.70772E+3   1.20973E+3
  -5.63538E+3   1.19083E+3
  -5.51598E+3   1.17693E+3
  -5.39796E+3   1.13515E+3
  -5.31506E+3   1.11610E+3
  -5.19537E+3   1.15860E+3
  -5.16738E+3   1.11230E+3
  -5.05981E+3   1.06593E+3
  -4.97242E+3   1.08258E+3
  -4.93348E+3   1.00836E+3
  -4.78725E+3   1.00622E+3
  -4.76967E+3   9.58126E+2
  -4.66261E+3   8.91540E+2
  -4.62796E+3   9.20268E+2
  -4.55488E+3   9.33695E+2
  -4.46388E+3   9.04554E+2
  -4.41462E+3   8.99309E+2
  -4.37145E+3   8.60892E+2
  -4.25815E+3   8.08175E+2
  -4.23768E+3   8.20347E+2
  -4.21421E+3   7.13740E+2
  -4.10579E+3   7.32119E+2
  -4.05576E+3   6.57306E+2
  -3.97321E+3   6.68090E+2
  -3.97315E+3   6.47160E+2
  -3.83425E+3   6.51016E+2
  -3.78055E+3   6.09663E+2
  -3.74238E+3   6.42564E+2
  -3.69595E+3   5.28405E+2
  -3.63641E+3   5.41495E+2
  -3.54356E+3   5.59098E+2
  -3.48530E+3   4.65395E+2
  -3.43103E+3   4.65470E+2
  -3.39950E+3   4.12064E+2
  -3.36365E+3   4.29933E+2
  -3.34046E+3   3.79730E+2
  -3.21645E+3   3.60506E+2
  -3.18850E+3   4.20264E+2
  -3.14446E+3   3.17164E+2
  -3.05288E+3   3.15944E+2
  -2.99931E+3   2.88629E+2
  -2.96861E+3   2.51939E+2
  -2.90368E+3   2.49752E+2
  -2.81181E+3   2.58784E+2
  -2.83993E+3   2.38406E+2
  -2.74699E+3   1.81327E+2
  -2.74849E+3   1.84211E+2
  -2.71298E+3   1.97869E+2
  -2.60167E+3   1.94337E+2
  -2.61874E+3   1.77040E+2
  -2.53416E+3   1.84653E+2
  -2.50764E+3   1.08061E+2
  -2.56424E+3   1.65803E+2
  -2.44380E+3   9.77212E+1
  -2.43389E+3   1.37066E+2
  -2.48464E+3   1.08549E+2
  -2.35623E+3   8.14659E+1
  -2.33803E+3   1.03150E+2
  -2.26401E+3   9.72072E+1
  -2.30561E+3   5.50118E+1
  -2.27383E+3   5.54611E+1
  -2.19652E+3   5.95991E+1
  -2.15133E+3   3.96387E+1
  -2.17244E+3   5.46093E+1
  -2.10762E+3   6.80829E+1
  -2.12253E+3  -4.42251E+1
  -2.07323E+3   6.05342E+0
  -2.01274E+3  -2.93721E+1
  -2.05630E+3  -7.08633E+1
  -2.00737E+3   6.62762E+1
  -1.98950E+3  -5.41525E+1
  -1.99525E+3  -4.17589E+1
  -1.93467E+3   4.31764E+0
  -1.88544E+3  -1.22872E+1
  -1.89201E+3  -6.69557E+1
  -1.80174E+3  -6.58200E+1
  -1.84096E+3  -7.45556E+1
  -1.81095E+3  -4.68909E+1
  -1.79162E+3  -7.62916E+1
  -1.81579E+3  -1.04669E+2
  -1.74620E+3  -3.77373E+1
  -1.71156E+3  -4.78609E+1
  -1.69639E+3  -1.05367E+2
  -1.68181E+3  -1.46638E+2
  -1.67037E+3  -1.36767E+2
  -1.68362E+3  -1.09099E+2
  -1.67107E+3  -1.32317E+2
  -1.58486E+3  -1.31080E+2
  -1.61247E+3  -1.31451E+2
  -1.50101E+3  -1.58285E+2
  -1.55349E+3  -1.72994E+2
  -1.51646E+3  -1.16435E+2
  -1.56644E+3  -1.33836E+2
  -1.42630E+3  -1.17346E+2
  -1.50394E+3  -6.97076E+1
  -1.41457E+3  -1.52140E+2
  -1.35362E+3  -1.30408E+2
  -1.38145E+3  -1.18119E+2
  -1.43051E+3  -1.24220E+2
  -1.41502E+3  -8.56317E+1
  -1.43400E+3  -1.10539E+2
  -1.31095E+3  -1.16714E+2
  -1.30405E+3  -1.76008E+2
  -1.25578E+3  -1.16736E+2
  -1.30529E+3  -9.68192E+1
  -1.29049E+3  -1.02828E+2
  -1.23183E+3  -5.04632E+1
  -1.15034E+3  -1.23497E+2
  -1.14181E+3  -1.40035E+2
  -1.16779E+3  -1.07109E+2
  -1.12552E+3  -1.63062E+2
  -1.10327E+3  -5.79551E+1
  -1.15035E+3  -1.50453E+2
  -1.08683E+3  -8.44003E+1
  -1.08329E+3  -9.44244E+1
  -1.10893E+3  -1.21654E+2
  -1.03328E+3  -1.13182E+2
  -9.99149E+2  -1.37323E+2
  -1.01953E+3  -9.05589E+1
  -9.17919E+2  -1.31312E+2
  -9.24649E+2  -7.10590E+1
  -1.00431E+3  -1.37597E+2
  -9.21548E+2  -8.49303E+1
  -8.88062E+2  -8.90500E+1
  -9.28246E+2  -1.27995E+2
  -8.76875E+2  -6.97095E+1
  -9.13085E+2  -1.21321E+2
  -8.64897E+2  -1.29397E+2
  -7.88291E+2  -7.22407E+1
  -8.61179E+2  -1.14799E+2
  -7.97572E+2  -8.71490E+1
  -9.17595E+2  -8.54883E+1
  -7.64143E+2  -8.48122E+1
  -7.66129E+2  -8.35796E+1
  -7.71487E+2  -1.29353E+2
  -7.57798E+2  -4.99576E+1
  -7.88334E+2  -7.48216E+1
  -7.69541E+2  -9.03868E+1
  -7.10644E+2  -1.30962E+2
  -6.85369E+2  -7.59667E+1
  -6.81988E+2  -1.37482E+2
  -6.45989E+2  -8.34912E+1
  -6.35727E+2  -7.69088E+1
  -6.54648E+2  -1.07633E+2
  -5.58433E+2  -7.03177E+1
  -5.80968E+2  -1.88395E+2
  -5.62123E+2  -6.43266E+1
  -5.88849E+2  -5.97911E+1
  -5.46431E+2  -8.69261E+0
  -5.24038E+2  -5.73655E+1
  -5.44824E+2  -2.54549E+1
  -5.53346E+2   2.41630E+1
  -5.81935E+2  -8.55536E+1
  -4.96871E+2  -6.13157E+1
  -5.58169E+2  -2.57904E+1
  -4.30558E+2  -3.41423E+1
  -5.07319E+2  -7.98394E+1
  -4.56728E+2  -9.00697E+1
