 
 $NMID
 ID=''
 FMTDAT='(2E13.5)'
 TRAMP=   1.00000E+0
 VOLUME=   1.00000E+0
 $END
  -1.71810E+4  -8.11674E+3
  -3.68711E+4  -3.21839E+4
  -4.23920E+4  -2.47610E+4
  -3.92889E+4  -2.21035E+4
  -4.01377E+4  -2.34952E+4
  -4.13689E+4  -2.09360E+4
  -3.97024E+4  -1.98843E+4
  -3.97570E+4  -2.03964E+4
  -4.05043E+4  -1.87068E+4
  -3.93717E+4  -1.78320E+4
  -3.91055E+4  -1.78727E+4
  -3.96328E+4  -1.62960E+4
  -3.88862E+4  -1.52969E+4
  -3.86550E+4  -1.55152E+4
  -3.87705E+4  -1.43338E+4
  -3.80505E+4  -1.34783E+4
  -3.78132E+4  -1.33504E+4
  -3.78032E+4  -1.23807E+4
  -3.71728E+4  -1.14457E+4
  -3.70226E+4  -1.12390E+4
  -3.67192E+4  -1.02516E+4
  -3.61757E+4  -9.23798E+3
  -3.59120E+4  -8.89199E+3
  -3.55829E+4  -8.07851E+3
  -3.49588E+4  -7.28433E+3
  -3.46701E+4  -6.70641E+3
  -3.43710E+4  -5.97422E+3
  -3.37208E+4  -5.38912E+3
  -3.33634E+4  -4.99750E+3
  -3.29022E+4  -4.28703E+3
  -3.23512E+4  -3.56670E+3
  -3.20848E+4  -3.10164E+3
  -3.17091E+4  -2.67844E+3
  -3.10683E+4  -2.02555E+3
  -3.06266E+4  -1.50198E+3
  -3.02738E+4  -9.24215E+2
  -2.96752E+4  -3.78366E+2
  -2.92252E+4   1.14174E+2
  -2.87978E+4   5.58970E+2
  -2.82637E+4   1.07787E+3
  -2.77725E+4   1.46016E+3
  -2.73284E+4   1.67203E+3
  -2.67492E+4   1.98221E+3
  -2.61285E+4   2.35970E+3
  -2.56568E+4   2.62946E+3
  -2.51243E+4   2.98368E+3
  -2.45701E+4   3.28255E+3
  -2.41603E+4   3.64494E+3
  -2.36284E+4   3.93565E+3
  -2.30523E+4   4.16752E+3
  -2.25882E+4   4.51281E+3
  -2.20470E+4   4.71731E+3
  -2.14660E+4   5.03501E+3
  -2.10866E+4   5.29498E+3
  -2.05447E+4   5.54562E+3
  -2.00355E+4   5.64638E+3
  -1.95644E+4   5.82747E+3
  -1.91511E+4   5.95133E+3
  -1.85953E+4   6.05903E+3
  -1.81797E+4   6.17435E+3
  -1.76485E+4   6.34466E+3
  -1.73267E+4   6.43934E+3
  -1.68000E+4   6.50158E+3
  -1.63940E+4   6.49521E+3
  -1.59253E+4   6.55799E+3
  -1.55094E+4   6.68107E+3
  -1.50559E+4   6.78956E+3
  -1.46464E+4   6.76036E+3
  -1.42745E+4   6.68252E+3
  -1.38751E+4   6.70799E+3
  -1.34900E+4   6.57958E+3
  -1.30600E+4   6.65116E+3
  -1.26458E+4   6.60032E+3
  -1.22461E+4   6.54216E+3
  -1.19026E+4   6.55447E+3
  -1.15166E+4   6.54602E+3
  -1.12141E+4   6.44401E+3
  -1.08646E+4   6.34051E+3
  -1.04522E+4   6.29465E+3
  -1.01970E+4   6.22724E+3
  -9.92604E+3   6.26361E+3
  -9.61318E+3   6.09482E+3
  -9.39146E+3   6.00111E+3
  -9.14270E+3   5.82402E+3
  -8.87057E+3   5.70633E+3
  -8.70193E+3   5.55525E+3
  -8.37881E+3   5.27250E+3
  -8.16344E+3   5.17370E+3
  -7.95850E+3   5.00051E+3
  -7.77561E+3   4.87962E+3
  -7.60678E+3   4.64122E+3
  -7.41645E+3   4.51271E+3
  -7.19404E+3   4.24245E+3
  -7.03386E+3   4.08299E+3
  -6.85616E+3   3.79938E+3
  -6.62771E+3   3.52037E+3
  -6.43699E+3   3.38741E+3
  -6.31772E+3   3.19035E+3
  -6.18962E+3   2.96535E+3
  -5.98839E+3   2.68110E+3
  -5.77759E+3   2.42700E+3
  -5.71626E+3   2.14087E+3
  -5.50577E+3   1.87237E+3
  -5.40971E+3   1.69480E+3
  -5.19100E+3   1.40113E+3
  -5.08585E+3   1.23056E+3
  -5.01988E+3   9.70659E+2
  -4.89858E+3   7.30876E+2
  -4.75976E+3   5.25226E+2
  -4.60690E+3   2.59003E+2
  -4.50163E+3   4.39315E+1
  -4.35607E+3  -1.59755E+2
  -4.24706E+3  -3.52755E+2
  -4.14020E+3  -5.05086E+2
  -4.01153E+3  -7.39571E+2
  -3.91798E+3  -1.06302E+3
  -3.79903E+3  -1.12882E+3
  -3.65970E+3  -1.27434E+3
  -3.61946E+3  -1.51711E+3
  -3.53095E+3  -1.69177E+3
  -3.30432E+3  -1.85495E+3
  -3.28763E+3  -1.94088E+3
  -3.21444E+3  -2.04139E+3
  -3.17020E+3  -2.15937E+3
  -2.99945E+3  -2.25966E+3
  -3.06055E+3  -2.42679E+3
  -2.93081E+3  -2.59344E+3
  -2.84243E+3  -2.66959E+3
  -2.84790E+3  -2.76251E+3
  -2.71690E+3  -2.85756E+3
  -2.69337E+3  -2.95205E+3
  -2.66596E+3  -3.02549E+3
  -2.55145E+3  -3.03451E+3
  -2.61023E+3  -3.17718E+3
  -2.52872E+3  -3.26753E+3
  -2.50158E+3  -3.30661E+3
  -2.46856E+3  -3.34637E+3
  -2.45124E+3  -3.49792E+3
  -2.41334E+3  -3.45124E+3
  -2.45100E+3  -3.50451E+3
  -2.28966E+3  -3.61521E+3
  -2.36139E+3  -3.59972E+3
  -2.41458E+3  -3.62511E+3
  -2.38202E+3  -3.68192E+3
  -2.38352E+3  -3.72559E+3
  -2.38615E+3  -3.75640E+3
  -2.35117E+3  -3.70865E+3
  -2.45983E+3  -3.79615E+3
  -2.40265E+3  -3.76439E+3
  -2.40943E+3  -3.81998E+3
  -2.43921E+3  -3.80959E+3
  -2.41038E+3  -3.73619E+3
  -2.42129E+3  -3.72796E+3
  -2.49365E+3  -3.78677E+3
  -2.47730E+3  -3.85522E+3
  -2.52661E+3  -3.84854E+3
  -2.62024E+3  -3.86714E+3
  -2.55524E+3  -3.86452E+3
  -2.53897E+3  -3.84108E+3
  -2.51958E+3  -3.89386E+3
  -2.55988E+3  -3.83603E+3
  -2.60206E+3  -3.78434E+3
  -2.61958E+3  -3.80865E+3
  -2.66643E+3  -3.78533E+3
  -2.69759E+3  -3.76721E+3
  -2.74144E+3  -3.79145E+3
  -2.72715E+3  -3.76139E+3
  -2.74189E+3  -3.72729E+3
  -2.78864E+3  -3.69618E+3
  -2.81062E+3  -3.59728E+3
  -2.80737E+3  -3.65119E+3
  -2.79015E+3  -3.58155E+3
  -2.79324E+3  -3.60482E+3
  -2.84019E+3  -3.55123E+3
  -2.82030E+3  -3.51203E+3
  -2.95182E+3  -3.46788E+3
  -2.90754E+3  -3.41564E+3
  -2.91784E+3  -3.42903E+3
  -2.95170E+3  -3.29893E+3
  -2.88598E+3  -3.38212E+3
  -2.93147E+3  -3.31911E+3
  -2.95468E+3  -3.18536E+3
  -2.94194E+3  -3.20701E+3
  -2.91452E+3  -3.07355E+3
  -2.99938E+3  -3.02154E+3
  -2.97807E+3  -3.07789E+3
  -2.96605E+3  -2.99060E+3
  -2.94048E+3  -2.86793E+3
  -2.94245E+3  -2.87764E+3
  -3.03607E+3  -2.80334E+3
  -2.93969E+3  -2.78141E+3
  -2.99352E+3  -2.73870E+3
  -2.89789E+3  -2.72520E+3
  -2.87774E+3  -2.59001E+3
  -2.91086E+3  -2.62084E+3
  -2.92749E+3  -2.56309E+3
  -2.95115E+3  -2.44283E+3
  -3.01397E+3  -2.47468E+3
  -2.90268E+3  -2.41564E+3
  -2.91268E+3  -2.37980E+3
  -2.88969E+3  -2.28139E+3
  -2.87893E+3  -2.22568E+3
  -2.82580E+3  -2.23066E+3
  -2.88686E+3  -2.10725E+3
  -2.83032E+3  -2.17456E+3
  -2.84799E+3  -1.99895E+3
  -2.88497E+3  -1.99822E+3
  -2.82351E+3  -2.00132E+3
  -2.81429E+3  -1.86901E+3
  -2.80830E+3  -1.87418E+3
  -2.78630E+3  -1.78659E+3
  -2.67390E+3  -1.75819E+3
  -2.77962E+3  -1.71868E+3
  -2.69965E+3  -1.67681E+3
  -2.66859E+3  -1.68306E+3
  -2.67206E+3  -1.47748E+3
  -2.58387E+3  -1.56196E+3
  -2.60501E+3  -1.52605E+3
  -2.62299E+3  -1.43133E+3
  -2.56335E+3  -1.41763E+3
  -2.59062E+3  -1.37275E+3
  -2.43445E+3  -1.33770E+3
  -2.39790E+3  -1.34426E+3
  -2.41588E+3  -1.23818E+3
  -2.36088E+3  -1.24414E+3
  -2.45258E+3  -1.18867E+3
  -2.29231E+3  -1.12321E+3
  -2.30845E+3  -1.16557E+3
  -2.27830E+3  -1.01755E+3
  -2.21999E+3  -9.99316E+2
  -2.19996E+3  -1.03765E+3
  -2.16163E+3  -1.05381E+3
  -2.12269E+3  -9.88730E+2
  -2.08696E+3  -9.02383E+2
  -2.09398E+3  -8.86696E+2
  -2.02985E+3  -7.83888E+2
  -2.02533E+3  -7.64397E+2
  -2.03310E+3  -7.05981E+2
  -1.93084E+3  -7.74933E+2
  -1.90338E+3  -7.45041E+2
  -1.84790E+3  -6.55017E+2
  -1.84768E+3  -6.97991E+2
  -1.81727E+3  -6.65890E+2
  -1.75763E+3  -6.60899E+2
  -1.72276E+3  -6.10669E+2
  -1.72362E+3  -5.67400E+2
  -1.68130E+3  -5.46775E+2
  -1.70106E+3  -5.37506E+2
  -1.64724E+3  -4.50502E+2
  -1.57218E+3  -4.28094E+2
  -1.53425E+3  -3.64717E+2
  -1.55035E+3  -4.54075E+2
  -1.51212E+3  -4.04916E+2
  -1.52057E+3  -3.77659E+2
  -1.43405E+3  -3.72700E+2
  -1.45825E+3  -3.50536E+2
  -1.41401E+3  -3.45762E+2
  -1.32196E+3  -3.05252E+2
  -1.34118E+3  -3.02849E+2
  -1.31637E+3  -2.65144E+2
  -1.25577E+3  -2.54630E+2
  -1.17648E+3  -2.35639E+2
  -1.14080E+3  -2.39674E+2
  -1.14541E+3  -2.40106E+2
  -1.15253E+3  -2.33849E+2
  -1.12243E+3  -1.52093E+2
  -1.04878E+3  -1.71267E+2
  -1.04967E+3  -2.14061E+2
  -1.02221E+3  -2.02965E+2
  -1.00858E+3  -2.12037E+2
  -1.01557E+3  -1.41702E+2
  -8.89395E+2  -1.37918E+2
  -9.09559E+2  -1.15534E+2
  -8.09968E+2  -1.19438E+2
  -8.67580E+2  -1.59447E+2
  -8.71597E+2  -9.39613E+1
  -8.18847E+2  -1.44387E+2
  -7.38079E+2  -1.37948E+2
  -7.18778E+2  -1.41500E+2
  -7.06154E+2  -9.09479E+1
  -6.49797E+2  -1.39482E+2
  -6.01383E+2  -9.85898E+1
  -6.20184E+2  -1.36976E+2
  -5.52091E+2  -1.44187E+2
  -5.95811E+2  -1.44904E+2
  -5.64363E+2  -1.54469E+2
  -5.76540E+2  -1.92606E+2
  -4.58421E+2  -1.74655E+2
  -4.79704E+2  -1.70596E+2
  -4.55395E+2  -1.26169E+2
  -3.97515E+2  -1.35955E+2
  -4.67452E+2  -7.35459E+1
  -3.96043E+2  -1.44036E+2
  -3.75362E+2  -1.65913E+2
  -3.72173E+2  -1.51460E+2
  -3.53320E+2  -1.75893E+2
  -3.47205E+2  -2.02389E+2
  -3.00423E+2  -1.11702E+2
  -2.80103E+2  -1.71274E+2
  -2.50462E+2  -1.80104E+2
  -2.67552E+2  -2.10910E+2
  -2.28017E+2  -2.47229E+2
  -1.73936E+2  -2.23595E+2
  -1.79236E+2  -2.44509E+2
  -1.50562E+2  -1.93178E+2
  -1.78758E+2  -2.21955E+2
  -2.00570E+2  -2.04361E+2
  -1.85626E+2  -3.09187E+2
  -1.42054E+2  -2.29299E+2
  -1.37158E+2  -2.59830E+2
  -5.34130E+1  -2.67524E+2
  -2.05143E+1  -2.36139E+2
  -2.61923E+0  -3.04657E+2
  -3.26635E+1  -3.49746E+2
  -6.23216E+1  -3.01068E+2
   4.68360E+1  -3.18209E+2
   1.63704E+1  -3.51253E+2
   2.32250E+1  -2.96557E+2
   1.15680E+1  -3.67736E+2
   6.11916E-1  -3.34538E+2
   5.54904E+1  -3.32710E+2
  -5.43510E+1  -4.05556E+2
  -5.23226E+0  -3.24575E+2
   1.40855E+1  -4.14164E+2
   6.18222E+1  -3.67199E+2
   1.41690E+2  -3.77183E+2
   1.30814E+2  -4.70633E+2
   4.96795E+1  -5.39934E+2
   1.28953E+2  -4.00066E+2
   1.65104E+2  -4.14678E+2
   1.82847E+2  -3.99874E+2
   1.30309E+2  -4.37442E+2
   1.14407E+2  -3.86594E+2
   1.63443E+2  -4.33313E+2
   1.42754E+2  -4.52598E+2
   1.87642E+2  -4.50799E+2
   1.45529E+2  -4.66686E+2
   1.75904E+2  -4.87025E+2
   1.91258E+2  -4.99789E+2
   1.62398E+2  -5.28225E+2
   1.47822E+2  -5.27072E+2
   1.63603E+2  -4.72907E+2
   1.88538E+2  -5.34732E+2
   2.14736E+2  -4.98559E+2
   2.15928E+2  -4.93112E+2
   2.29313E+2  -4.68212E+2
   2.15928E+2  -5.14590E+2
   1.99000E+2  -5.15274E+2
   1.71704E+2  -5.48145E+2
   2.06450E+2  -6.06742E+2
   1.92728E+2  -6.02622E+2
   2.50162E+2  -5.65088E+2
   1.34218E+2  -5.82888E+2
   1.40704E+2  -5.85507E+2
   1.98075E+2  -5.93076E+2
   2.07645E+2  -5.86390E+2
   2.17558E+2  -5.97678E+2
   2.28320E+2  -5.93160E+2
   1.59554E+2  -5.73622E+2
   1.43628E+2  -6.48124E+2
   2.53378E+2  -6.89101E+2
   1.83038E+2  -6.00895E+2
   2.11917E+2  -6.78086E+2
   2.00268E+2  -6.52681E+2
   1.74828E+2  -6.98743E+2
   1.41761E+2  -6.21813E+2
   2.16145E+2  -6.87012E+2
