 
 $NMID
 ID=''
 FMTDAT='(2E13.5)'
 TRAMP=   1.00000E+0
 VOLUME=   1.00000E+0
 $END
  -1.84891E+4   1.94170E+3
  -4.71058E+4  -8.40891E+3
  -4.79695E+4   2.05627E+2
  -4.42863E+4   4.90746E+2
  -4.60017E+4  -8.08357E+2
  -4.60844E+4   1.29229E+3
  -4.43512E+4   9.70731E+2
  -4.50277E+4   1.44778E+2
  -4.51418E+4   1.33954E+3
  -4.39591E+4   1.18568E+3
  -4.41968E+4   5.54016E+2
  -4.40500E+4   1.53057E+3
  -4.32549E+4   1.45644E+3
  -4.35152E+4   9.22169E+2
  -4.32585E+4   1.44164E+3
  -4.24724E+4   1.41807E+3
  -4.25866E+4   1.10399E+3
  -4.23299E+4   1.49544E+3
  -4.17182E+4   1.60825E+3
  -4.17041E+4   1.31004E+3
  -4.14610E+4   1.68885E+3
  -4.09148E+4   1.93553E+3
  -4.08895E+4   1.79354E+3
  -4.06664E+4   1.96133E+3
  -4.00147E+4   2.06977E+3
  -3.99479E+4   2.05083E+3
  -3.97410E+4   2.20067E+3
  -3.92448E+4   2.15386E+3
  -3.89443E+4   2.00746E+3
  -3.87491E+4   2.26645E+3
  -3.83684E+4   2.38687E+3
  -3.82147E+4   2.36800E+3
  -3.80267E+4   2.44501E+3
  -3.75680E+4   2.45855E+3
  -3.73882E+4   2.50926E+3
  -3.71522E+4   2.69000E+3
  -3.67667E+4   2.70733E+3
  -3.65063E+4   2.80813E+3
  -3.62886E+4   2.96580E+3
  -3.60270E+4   3.03201E+3
  -3.57602E+4   2.97181E+3
  -3.56203E+4   2.90803E+3
  -3.51764E+4   2.89284E+3
  -3.49358E+4   2.94162E+3
  -3.47050E+4   2.94063E+3
  -3.43793E+4   2.98493E+3
  -3.42072E+4   2.94818E+3
  -3.39999E+4   3.02882E+3
  -3.37646E+4   3.03001E+3
  -3.35261E+4   3.06269E+3
  -3.33624E+4   3.05219E+3
  -3.30732E+4   3.02475E+3
  -3.27802E+4   3.11888E+3
  -3.26294E+4   3.18978E+3
  -3.24254E+4   3.16427E+3
  -3.22482E+4   3.09551E+3
  -3.20308E+4   2.97189E+3
  -3.18506E+4   3.09162E+3
  -3.15816E+4   2.94384E+3
  -3.13323E+4   2.91744E+3
  -3.10090E+4   2.90921E+3
  -3.07925E+4   2.92933E+3
  -3.05428E+4   2.89355E+3
  -3.03049E+4   2.81559E+3
  -3.01313E+4   2.85258E+3
  -2.98437E+4   2.77038E+3
  -2.96177E+4   2.87419E+3
  -2.93975E+4   2.84121E+3
  -2.91196E+4   2.81544E+3
  -2.88558E+4   2.80368E+3
  -2.86795E+4   2.86779E+3
  -2.83823E+4   2.84135E+3
  -2.82127E+4   2.83987E+3
  -2.78955E+4   2.84927E+3
  -2.77665E+4   2.85096E+3
  -2.74782E+4   2.89300E+3
  -2.71974E+4   2.92256E+3
  -2.70160E+4   2.84471E+3
  -2.67777E+4   3.03965E+3
  -2.65411E+4   3.06771E+3
  -2.63445E+4   3.07288E+3
  -2.61077E+4   3.13034E+3
  -2.59103E+4   3.15774E+3
  -2.56198E+4   3.26428E+3
  -2.54623E+4   3.27268E+3
  -2.52825E+4   3.20110E+3
  -2.50622E+4   3.25127E+3
  -2.48545E+4   3.15049E+3
  -2.46460E+4   3.30250E+3
  -2.44640E+4   3.35106E+3
  -2.42839E+4   3.37804E+3
  -2.40760E+4   3.38081E+3
  -2.38842E+4   3.46952E+3
  -2.37523E+4   3.56308E+3
  -2.34565E+4   3.47611E+3
  -2.33184E+4   3.51761E+3
  -2.31206E+4   3.60435E+3
  -2.29050E+4   3.64261E+3
  -2.27677E+4   3.63768E+3
  -2.25249E+4   3.57228E+3
  -2.23518E+4   3.61453E+3
  -2.21307E+4   3.65280E+3
  -2.19867E+4   3.73467E+3
  -2.18641E+4   3.74491E+3
  -2.16783E+4   3.69873E+3
  -2.14361E+4   3.77278E+3
  -2.12563E+4   3.74995E+3
  -2.11290E+4   3.82748E+3
  -2.09520E+4   3.78902E+3
  -2.07302E+4   3.82906E+3
  -2.05879E+4   3.82271E+3
  -2.03818E+4   3.81637E+3
  -2.02390E+4   3.88022E+3
  -1.99864E+4   3.89106E+3
  -1.98667E+4   3.82423E+3
  -1.96420E+4   3.88748E+3
  -1.94925E+4   3.83164E+3
  -1.92772E+4   3.86944E+3
  -1.91378E+4   3.81923E+3
  -1.88306E+4   3.88281E+3
  -1.87364E+4   3.95544E+3
  -1.86155E+4   3.89609E+3
  -1.83830E+4   3.80623E+3
  -1.81636E+4   3.83595E+3
  -1.79384E+4   3.86352E+3
  -1.78134E+4   3.89965E+3
  -1.76384E+4   3.84574E+3
  -1.74376E+4   3.85206E+3
  -1.72896E+4   3.90892E+3
  -1.70612E+4   3.94545E+3
  -1.69529E+4   3.87123E+3
  -1.68202E+4   3.84091E+3
  -1.66577E+4   3.89862E+3
  -1.64362E+4   3.89100E+3
  -1.62494E+4   3.85153E+3
  -1.60733E+4   3.88831E+3
  -1.60067E+4   3.85314E+3
  -1.58165E+4   3.82345E+3
  -1.56670E+4   3.86961E+3
  -1.54823E+4   3.83579E+3
  -1.54063E+4   3.86909E+3
  -1.52394E+4   3.82106E+3
  -1.50617E+4   3.78415E+3
  -1.48826E+4   3.84861E+3
  -1.48139E+4   3.73414E+3
  -1.46632E+4   3.75276E+3
  -1.45643E+4   3.73146E+3
  -1.44180E+4   3.73447E+3
  -1.42175E+4   3.71833E+3
  -1.41491E+4   3.68999E+3
  -1.39991E+4   3.59543E+3
  -1.38839E+4   3.62081E+3
  -1.37471E+4   3.54533E+3
  -1.36299E+4   3.57134E+3
  -1.34978E+4   3.56254E+3
  -1.33347E+4   3.49627E+3
  -1.32586E+4   3.49890E+3
  -1.31361E+4   3.44380E+3
  -1.29840E+4   3.47145E+3
  -1.28158E+4   3.42124E+3
  -1.27289E+4   3.45265E+3
  -1.26360E+4   3.38649E+3
  -1.25231E+4   3.37731E+3
  -1.24321E+4   3.34894E+3
  -1.22746E+4   3.31383E+3
  -1.22078E+4   3.27857E+3
  -1.20585E+4   3.23346E+3
  -1.18778E+4   3.19587E+3
  -1.18296E+4   3.20099E+3
  -1.16503E+4   3.17812E+3
  -1.16000E+4   3.19803E+3
  -1.14171E+4   3.07047E+3
  -1.13739E+4   3.07821E+3
  -1.12608E+4   3.09932E+3
  -1.11620E+4   3.04600E+3
  -1.09773E+4   3.06789E+3
  -1.09649E+4   2.99948E+3
  -1.08427E+4   3.05076E+3
  -1.07327E+4   3.07111E+3
  -1.06286E+4   2.99776E+3
  -1.05452E+4   2.97745E+3
  -1.04488E+4   2.98536E+3
  -1.03620E+4   2.94448E+3
  -1.02009E+4   2.96081E+3
  -1.01155E+4   2.92954E+3
  -1.00118E+4   2.96587E+3
  -9.95984E+3   2.91911E+3
  -9.88469E+3   2.93901E+3
  -9.76672E+3   2.88062E+3
  -9.64275E+3   2.92608E+3
  -9.57147E+3   2.92110E+3
  -9.49231E+3   2.91018E+3
  -9.39421E+3   2.90189E+3
  -9.34455E+3   2.88136E+3
  -9.25684E+3   2.79997E+3
  -9.17426E+3   2.84202E+3
  -9.02003E+3   2.81520E+3
  -9.00693E+3   2.79861E+3
  -8.90785E+3   2.77252E+3
  -8.74025E+3   2.85189E+3
  -8.76276E+3   2.79484E+3
  -8.67248E+3   2.80145E+3
  -8.56693E+3   2.74560E+3
  -8.51018E+3   2.73647E+3
  -8.38648E+3   2.73510E+3
  -8.29292E+3   2.76712E+3
  -8.27187E+3   2.73265E+3
  -8.23427E+3   2.73238E+3
  -8.12540E+3   2.72992E+3
  -7.95301E+3   2.75658E+3
  -7.98550E+3   2.71330E+3
  -7.91743E+3   2.64423E+3
  -7.82010E+3   2.67080E+3
  -7.71429E+3   2.63525E+3
  -7.67119E+3   2.66545E+3
  -7.61783E+3   2.63907E+3
  -7.53530E+3   2.63075E+3
  -7.43438E+3   2.60028E+3
  -7.36531E+3   2.65755E+3
  -7.29612E+3   2.60651E+3
  -7.22476E+3   2.56491E+3
  -7.12885E+3   2.60865E+3
  -7.06206E+3   2.57171E+3
  -6.98001E+3   2.61843E+3
  -6.92463E+3   2.57731E+3
  -6.87877E+3   2.60583E+3
  -6.77611E+3   2.63157E+3
  -6.69342E+3   2.58917E+3
  -6.66658E+3   2.55998E+3
  -6.66223E+3   2.54865E+3
  -6.53146E+3   2.53134E+3
  -6.52640E+3   2.57407E+3
  -6.36893E+3   2.51031E+3
  -6.34059E+3   2.54720E+3
  -6.25633E+3   2.46625E+3
  -6.22518E+3   2.53509E+3
  -6.11893E+3   2.53931E+3
  -6.07976E+3   2.56709E+3
  -6.03024E+3   2.53003E+3
  -5.94324E+3   2.51181E+3
  -5.91612E+3   2.50706E+3
  -5.84591E+3   2.47976E+3
  -5.72626E+3   2.50510E+3
  -5.69850E+3   2.47239E+3
  -5.62666E+3   2.45936E+3
  -5.55380E+3   2.50555E+3
  -5.51202E+3   2.45035E+3
  -5.55103E+3   2.42812E+3
  -5.40013E+3   2.48499E+3
  -5.33442E+3   2.48836E+3
  -5.29193E+3   2.50560E+3
  -5.20965E+3   2.39780E+3
  -5.23539E+3   2.43343E+3
  -5.15253E+3   2.41451E+3
  -5.09370E+3   2.45661E+3
  -5.02252E+3   2.37569E+3
  -4.93169E+3   2.43757E+3
  -4.91033E+3   2.41324E+3
  -4.79720E+3   2.39577E+3
  -4.85402E+3   2.39302E+3
  -4.79852E+3   2.39541E+3
  -4.69420E+3   2.34158E+3
  -4.65364E+3   2.33606E+3
  -4.62007E+3   2.35377E+3
  -4.54840E+3   2.33653E+3
  -4.45330E+3   2.30158E+3
  -4.49355E+3   2.33433E+3
  -4.49250E+3   2.32744E+3
  -4.34711E+3   2.26509E+3
  -4.27911E+3   2.30177E+3
  -4.27742E+3   2.31250E+3
  -4.17751E+3   2.30512E+3
  -4.15634E+3   2.27326E+3
  -4.11250E+3   2.28294E+3
  -4.00050E+3   2.23958E+3
  -3.96273E+3   2.24580E+3
  -3.91660E+3   2.13833E+3
  -3.89748E+3   2.23419E+3
  -3.84060E+3   2.21836E+3
  -3.84246E+3   2.23886E+3
  -3.77257E+3   2.17169E+3
  -3.76825E+3   2.15344E+3
  -3.75952E+3   2.14236E+3
  -3.65776E+3   2.08834E+3
  -3.59082E+3   2.09946E+3
  -3.58774E+3   2.12720E+3
  -3.48456E+3   2.10539E+3
  -3.45550E+3   2.06932E+3
  -3.47390E+3   2.07432E+3
  -3.37819E+3   2.06624E+3
  -3.31112E+3   2.07508E+3
  -3.32582E+3   2.02328E+3
  -3.28047E+3   2.02042E+3
  -3.22282E+3   2.03695E+3
  -3.16230E+3   2.00751E+3
  -3.08649E+3   2.03910E+3
  -3.12120E+3   1.99428E+3
  -3.12335E+3   1.93947E+3
  -3.03090E+3   1.94780E+3
  -2.97798E+3   1.97534E+3
  -2.99238E+3   1.91382E+3
  -2.95548E+3   1.94094E+3
  -2.91676E+3   1.87758E+3
  -2.84906E+3   1.85446E+3
  -2.75652E+3   1.89231E+3
  -2.79557E+3   1.86744E+3
  -2.75307E+3   1.78366E+3
  -2.68958E+3   1.82832E+3
  -2.72058E+3   1.87414E+3
  -2.64936E+3   1.80394E+3
  -2.60369E+3   1.75128E+3
  -2.62319E+3   1.77104E+3
  -2.52062E+3   1.72650E+3
  -2.47695E+3   1.78242E+3
  -2.56802E+3   1.75859E+3
  -2.50608E+3   1.74521E+3
  -2.45015E+3   1.74735E+3
  -2.39655E+3   1.70080E+3
  -2.41126E+3   1.67562E+3
  -2.32583E+3   1.70090E+3
  -2.29006E+3   1.65318E+3
  -2.28547E+3   1.61528E+3
  -2.32830E+3   1.60158E+3
  -2.29561E+3   1.63757E+3
  -2.28797E+3   1.66236E+3
  -2.14560E+3   1.64878E+3
  -2.22567E+3   1.63024E+3
  -2.15294E+3   1.60596E+3
  -2.10398E+3   1.54608E+3
  -2.14682E+3   1.48214E+3
  -2.09047E+3   1.51682E+3
  -2.09780E+3   1.51662E+3
  -2.00889E+3   1.45832E+3
  -2.06209E+3   1.48968E+3
  -2.05628E+3   1.48540E+3
  -2.01167E+3   1.44818E+3
  -1.85219E+3   1.47412E+3
  -1.91803E+3   1.46556E+3
  -1.89961E+3   1.44556E+3
  -1.87957E+3   1.48145E+3
  -1.86907E+3   1.45830E+3
  -1.85758E+3   1.44185E+3
  -1.84427E+3   1.39373E+3
  -1.83478E+3   1.43357E+3
  -1.87447E+3   1.33212E+3
  -1.82374E+3   1.33146E+3
  -1.76742E+3   1.39244E+3
  -1.72177E+3   1.37278E+3
  -1.65564E+3   1.36066E+3
  -1.66750E+3   1.30912E+3
  -1.70787E+3   1.29667E+3
  -1.66328E+3   1.29045E+3
  -1.64063E+3   1.30684E+3
  -1.69772E+3   1.29647E+3
  -1.70756E+3   1.30521E+3
  -1.66878E+3   1.33394E+3
  -1.65498E+3   1.30193E+3
  -1.58339E+3   1.22989E+3
  -1.61727E+3   1.21744E+3
  -1.61936E+3   1.29438E+3
  -1.59493E+3   1.16494E+3
  -1.59109E+3   1.29480E+3
  -1.63078E+3   1.22017E+3
  -1.53038E+3   1.23558E+3
  -1.51959E+3   1.21407E+3
  -1.48495E+3   1.20002E+3
  -1.52391E+3   1.16062E+3
