 LCModel (Version 6.3-1N) Copyright: S.W. Provencher.          Ref.: Magn. Reson. Med. 30:672-679 (1993).                
 Slice_N1@20_19  02-Jun-2023 14:37:26
 27 lines in following concentration table = NCONC+1
    Conc.  %SD /Cr+PCr  Metabolite                                         
 2.01E-06  18% 2.2E-04 Mac                                                 
 4.34E-02  21%   4.804 Cr                                                  
 2.89E-02  32%   3.196 PCr                                                 
 7.86E-02  11%   8.701 Ins                                                 
    0.100   7%  11.077 NAA                                                 
 7.61E-02  10%   8.417 Tau                                                 
 9.08E-03  35%   1.005 PCho                                                
 4.08E-03  71%   0.451 GPC                                                 
 8.08E-02  12%   8.944 Glu                                                 
 2.73E-02  27%   3.023 Gln                                                 
 1.23E-03 550%   0.136 Ala                                                 
    0.000 999%   0.000 Asc                                                 
 1.20E-02  66%   1.333 Asp                                                 
 8.76E-03  49%   0.969 GABA                                                
 5.67E-03  95%   0.627 Glc                                                 
 2.02E-02  22%   2.234 GSH                                                 
 3.92E-03 185%   0.434 Lac                                                 
 2.32E-03 195%   0.257 NAAG                                                
    0.000 999%   0.000 PE                                                  
 1.32E-02  15%   1.456 GPC+PCho                                            
    0.102   7%  11.334 NAA+NAAG                                            
    0.108  11%  11.967 Glu+Gln                                             
 7.23E-02   9%   8.000 Cr+PCr                                              
    0.102   7%  11.334 NAA+NAAG                                            
 7.23E-02   9%   8.000 Cr+PCr                                              
    0.108  11%  11.967 Glu+Gln                                             
   6 lines in following misc. output table
  FWHM = 0.017 ppm    S/N =   6                                            
  Data shift = 0.017 ppm                                                   
  Ph:   6 deg     -11.3 deg/ppm                                            
  alphaB,S = 1.1E+00,   3.9E-01                                            
   18 spline knots.   Ns = 5(1)                                            
   2 inflections.     1 extrema                                            
  654 points on ppm-axis = NY
      4.000000     3.994181     3.988363     3.982544     3.976726     3.970907     3.965088     3.959270     3.953451     3.947633
      3.941814     3.935995     3.930177     3.924358     3.918540     3.912721     3.906902     3.901084     3.895265     3.889446
      3.883628     3.877809     3.871991     3.866172     3.860353     3.854535     3.848716     3.842898     3.837079     3.831260
      3.825442     3.819623     3.813805     3.807986     3.802167     3.796349     3.790530     3.784712     3.778893     3.773074
      3.767256     3.761437     3.755619     3.749800     3.743981     3.738163     3.732344     3.726526     3.720707     3.714888
      3.709070     3.703251     3.697433     3.691614     3.685795     3.679977     3.674158     3.668339     3.662521     3.656702
      3.650884     3.645065     3.639246     3.633428     3.627609     3.621791     3.615972     3.610153     3.604335     3.598516
      3.592698     3.586879     3.581060     3.575242     3.569423     3.563605     3.557786     3.551967     3.546149     3.540330
      3.534512     3.528693     3.522874     3.517056     3.511237     3.505419     3.499600     3.493781     3.487963     3.482144
      3.476326     3.470507     3.464688     3.458870     3.453051     3.447232     3.441414     3.435595     3.429777     3.423958
      3.418139     3.412321     3.406502     3.400684     3.394865     3.389046     3.383228     3.377409     3.371591     3.365772
      3.359953     3.354135     3.348316     3.342498     3.336679     3.330860     3.325042     3.319223     3.313405     3.307586
      3.301767     3.295949     3.290130     3.284312     3.278493     3.272674     3.266856     3.261037     3.255219     3.249400
      3.243581     3.237763     3.231944     3.226125     3.220307     3.214488     3.208670     3.202851     3.197032     3.191214
      3.185395     3.179577     3.173758     3.167939     3.162121     3.156302     3.150484     3.144665     3.138846     3.133028
      3.127209     3.121391     3.115572     3.109753     3.103935     3.098116     3.092298     3.086479     3.080660     3.074842
      3.069023     3.063205     3.057386     3.051567     3.045749     3.039930     3.034111     3.028293     3.022474     3.016656
      3.010837     3.005018     2.999200     2.993381     2.987563     2.981744     2.975925     2.970107     2.964288     2.958470
      2.952651     2.946832     2.941014     2.935195     2.929377     2.923558     2.917739     2.911921     2.906102     2.900284
      2.894465     2.888646     2.882828     2.877009     2.871191     2.865372     2.859553     2.853735     2.847916     2.842098
      2.836279     2.830460     2.824642     2.818823     2.813004     2.807186     2.801367     2.795549     2.789730     2.783911
      2.778093     2.772274     2.766456     2.760637     2.754818     2.749000     2.743181     2.737363     2.731544     2.725725
      2.719907     2.714088     2.708270     2.702451     2.696632     2.690814     2.684995     2.679177     2.673358     2.667539
      2.661721     2.655902     2.650084     2.644265     2.638446     2.632628     2.626809     2.620991     2.615172     2.609353
      2.603535     2.597716     2.591897     2.586079     2.580260     2.574442     2.568623     2.562804     2.556986     2.551167
      2.545349     2.539530     2.533711     2.527893     2.522074     2.516256     2.510437     2.504618     2.498800     2.492981
      2.487163     2.481344     2.475525     2.469707     2.463888     2.458070     2.452251     2.446432     2.440614     2.434795
      2.428977     2.423158     2.417339     2.411521     2.405702     2.399884     2.394065     2.388246     2.382428     2.376609
      2.370790     2.364972     2.359153     2.353335     2.347516     2.341697     2.335879     2.330060     2.324242     2.318423
      2.312604     2.306786     2.300967     2.295149     2.289330     2.283511     2.277693     2.271874     2.266056     2.260237
      2.254418     2.248600     2.242781     2.236963     2.231144     2.225325     2.219507     2.213688     2.207870     2.202051
      2.196232     2.190414     2.184595     2.178777     2.172958     2.167139     2.161321     2.155502     2.149683     2.143865
      2.138046     2.132228     2.126409     2.120590     2.114772     2.108953     2.103135     2.097316     2.091497     2.085679
      2.079860     2.074042     2.068223     2.062404     2.056586     2.050767     2.044949     2.039130     2.033311     2.027493
      2.021674     2.015856     2.010037     2.004218     1.998400     1.992581     1.986763     1.980944     1.975126     1.969307
      1.963489     1.957670     1.951852     1.946033     1.940215     1.934397     1.928578     1.922760     1.916941     1.911123
      1.905304     1.899486     1.893667     1.887849     1.882030     1.876212     1.870393     1.864575     1.858756     1.852938
      1.847119     1.841301     1.835482     1.829664     1.823845     1.818027     1.812208     1.806390     1.800571     1.794753
      1.788934     1.783116     1.777297     1.771479     1.765660     1.759842     1.754023     1.748205     1.742386     1.736568
      1.730749     1.724931     1.719113     1.713294     1.707476     1.701657     1.695839     1.690020     1.684202     1.678383
      1.672565     1.666746     1.660928     1.655109     1.649291     1.643472     1.637654     1.631835     1.626017     1.620198
      1.614380     1.608561     1.602743     1.596924     1.591106     1.585287     1.579469     1.573650     1.567832     1.562013
      1.556195     1.550376     1.544558     1.538739     1.532921     1.527102     1.521284     1.515465     1.509647     1.503829
      1.498010     1.492192     1.486373     1.480555     1.474736     1.468918     1.463099     1.457281     1.451462     1.445644
      1.439825     1.434007     1.428188     1.422370     1.416551     1.410733     1.404914     1.399096     1.393277     1.387459
      1.381640     1.375822     1.370003     1.364185     1.358366     1.352548     1.346729     1.340911     1.335092     1.329274
      1.323455     1.317637     1.311818     1.306000     1.300182     1.294363     1.288545     1.282726     1.276908     1.271089
      1.265271     1.259452     1.253634     1.247815     1.241997     1.236178     1.230360     1.224541     1.218723     1.212904
      1.207086     1.201267     1.195449     1.189630     1.183812     1.177993     1.172175     1.166356     1.160538     1.154719
      1.148901     1.143082     1.137264     1.131445     1.125627     1.119808     1.113990     1.108171     1.102353     1.096534
      1.090716     1.084898     1.079079     1.073261     1.067442     1.061624     1.055805     1.049987     1.044168     1.038350
      1.032531     1.026713     1.020894     1.015076     1.009257     1.003439     0.997620     0.991802     0.985983     0.980165
      0.974346     0.968528     0.962709     0.956891     0.951072     0.945254     0.939435     0.933617     0.927798     0.921980
      0.916161     0.910343     0.904524     0.898706     0.892887     0.887069     0.881251     0.875432     0.869614     0.863795
      0.857977     0.852158     0.846340     0.840521     0.834703     0.828884     0.823066     0.817247     0.811429     0.805610
      0.799792     0.793973     0.788155     0.782336     0.776518     0.770699     0.764881     0.759062     0.753244     0.747425
      0.741607     0.735788     0.729970     0.724151     0.718333     0.712514     0.706696     0.700877     0.695059     0.689240
      0.683422     0.677603     0.671785     0.665967     0.660148     0.654330     0.648511     0.642693     0.636874     0.631056
      0.625237     0.619419     0.613600     0.607782     0.601963     0.596145     0.590326     0.584508     0.578689     0.572871
      0.567052     0.561234     0.555415     0.549597     0.543778     0.537960     0.532141     0.526323     0.520504     0.514686
      0.508867     0.503049     0.497230     0.491412     0.485593     0.479775     0.473956     0.468138     0.462319     0.456501
      0.450682     0.444864     0.439045     0.433227     0.427408     0.421590     0.415771     0.409953     0.404134     0.398316
      0.392497     0.386679     0.380860     0.375042     0.369223     0.363405     0.357586     0.351767     0.345949     0.340130
      0.334312     0.328493     0.322675     0.316856     0.311038     0.305219     0.299401     0.293582     0.287764     0.281945
      0.276127     0.270308     0.264490     0.258671     0.252853     0.247034     0.241216     0.235397     0.229579     0.223760
      0.217942     0.212123     0.206305     0.200486
 NY phased data points follow
  -5.28892E-02 -3.89881E-01 -3.01569E-01 -3.25120E-01 -2.01190E-01 -4.50242E-01 -6.06501E-01 -4.21977E-01 -2.00506E-01 -2.02337E-01
  -2.29618E-01  3.38397E-01  3.70459E-01  3.74045E-01  6.00749E-01  5.66757E-01  3.98241E-01  3.30629E-01  1.62127E-01  9.09392E-02
   1.93676E-01  8.19812E-02 -7.10792E-02 -1.77551E-01 -1.39600E-01 -1.23122E-01  9.33543E-03 -1.95836E-01 -1.70234E-01  9.39409E-03
   1.22351E-01 -6.24218E-02 -4.85983E-01 -8.65486E-02 -1.51922E-01 -3.73331E-01 -2.56753E-01 -3.28484E-01 -1.37002E-01  7.27958E-02
   2.31788E-01  3.54281E-01  4.34620E-01  5.68851E-01  3.62756E-01  5.11083E-01  6.63884E-01  1.61300E-01 -6.04786E-02  8.12864E-02
   3.18578E-01  1.50188E-01 -2.18506E-01 -8.67513E-02  5.86968E-02 -8.69672E-02 -1.99067E-01 -1.09053E-01 -2.29759E-02 -6.88625E-01
  -2.71308E-01 -2.13718E-01 -7.71424E-01 -9.47377E-02 -5.75317E-01 -2.46107E-01  2.45166E-01 -3.29853E-01 -3.24846E-01  2.14821E-01
   1.71309E-01  1.58731E-01  2.99284E-01 -4.05633E-01  4.58568E-02  4.27745E-02 -2.17488E-01 -1.34819E-01 -5.64460E-01 -5.48701E-01
  -1.46911E-02  2.60511E-01 -1.98462E-02  1.62463E-01  4.96399E-01  4.44647E-01  3.75725E-01  1.80276E-01 -4.16192E-02  2.52433E-01
   1.89831E-01  3.49186E-01  1.58995E-01  1.02881E-01  4.25662E-01  7.35186E-02  6.55110E-02 -1.39036E-01 -4.04237E-01 -5.74928E-01
  -3.27387E-01 -2.13600E-01  4.11753E-01  6.29051E-01  2.29510E-01  5.95350E-01  3.98129E-01  3.42187E-01  4.67775E-01  2.95157E-01
   2.74564E-01  6.94982E-01  5.31114E-01  3.05969E-01  1.89793E-01  3.42887E-01  5.95875E-01  1.40166E-01  3.54113E-01  2.88579E-01
   1.19643E-01  7.66261E-04  9.23523E-02  3.34504E-01 -8.04146E-02  5.27176E-02 -2.16352E-02 -4.95446E-01 -3.25227E-01 -7.61745E-01
  -9.77265E-01 -3.19198E-01 -5.08813E-01 -5.36555E-01 -5.30598E-01 -6.50237E-01 -7.43162E-01 -9.88377E-01 -6.48687E-01 -3.80044E-01
  -1.78176E-01 -1.90157E-01 -1.70591E-01 -1.86039E-01 -6.99951E-02  1.26719E-01 -3.20624E-03  1.56185E-01  2.93325E-02  1.77228E-01
   4.06297E-01  2.02658E-01  2.07795E-01  1.51902E-01  2.15929E-01  4.34544E-01  2.90229E-01  3.50848E-01  5.36815E-01  3.71862E-01
   4.71743E-01  4.06515E-01  7.73078E-01  8.30687E-01  6.09244E-01  1.42604E+00  1.35165E+00  8.09616E-02 -9.12810E-01 -7.62099E-01
  -6.48328E-01 -6.24787E-01 -3.65952E-01 -5.26477E-01 -4.16318E-01 -5.35639E-01 -4.10047E-01 -1.61409E-01 -8.33217E-02 -1.59622E-01
  -5.87945E-01 -3.26165E-01 -3.67115E-01 -2.54938E-01 -4.20688E-01 -7.34261E-01 -1.74106E-01 -2.19965E-01 -1.45686E-01 -4.05766E-01
  -3.09678E-01 -9.65930E-02 -2.32175E-01 -1.29300E-01 -2.06273E-01 -7.07242E-02 -1.42802E-01  2.53274E-02 -3.10695E-01 -2.26442E-01
  -1.94870E-02 -1.92535E-01  1.79644E-01  1.28623E-01  4.07109E-02  5.61776E-02 -4.64775E-02 -3.72133E-02 -1.55920E-02 -8.48016E-03
   1.51844E-01 -3.15051E-01 -3.37223E-01 -3.86438E-02 -1.43904E-01  1.16681E-01  1.68032E-01 -2.01474E-01 -1.34615E-01  1.45772E-01
  -1.11386E-01 -1.28296E-01  2.02305E-02  7.18732E-02 -2.16424E-02  2.72884E-01  5.36793E-01  2.77969E-01  5.57025E-02  4.53394E-01
   4.95496E-01  1.39096E-01  1.37217E-01  7.92623E-02  1.90577E-01 -5.79064E-02  9.72993E-02 -1.41509E-01 -3.58798E-01 -1.23000E-01
   1.73427E-01 -2.30206E-01 -1.74786E-01  1.69140E-01 -4.19767E-01  1.49928E-01 -9.31123E-02 -7.59553E-02 -2.32443E-01 -1.15123E-01
   2.88866E-01  5.40733E-02  1.82774E-01 -6.02057E-02  6.29002E-02 -1.19907E-01  2.12324E-01 -1.34088E-01  1.95342E-02  3.66518E-01
  -1.30516E-01  1.58313E-01  1.33173E-01  1.82239E-01  1.60397E-01 -8.92667E-02  8.38341E-02  3.14288E-01  4.38165E-02 -4.09868E-02
   4.75627E-02  5.22129E-01  6.48975E-01 -1.48454E-01 -2.79110E-01  1.75390E-01 -5.91353E-02 -1.71433E-01  9.39003E-02 -9.23560E-02
  -3.01652E-01 -4.34989E-01 -2.42867E-01 -1.79511E-01 -6.80863E-02  2.63078E-01  2.95786E-01  6.96959E-01  8.15669E-01  1.75404E-01
   3.40935E-01  3.17018E-01  2.06241E-01  1.38244E-01 -5.47688E-02  2.37664E-01  2.34358E-01  1.08058E-01 -5.45036E-03  3.88097E-01
   1.03632E-01  2.35770E-01  2.23841E-01  5.52464E-02  4.33175E-01  4.65563E-01  5.18432E-01 -4.06237E-02  1.30704E-01  4.46995E-01
   4.40012E-01  2.86299E-01  5.63411E-01  1.99172E-01 -2.69764E-01 -8.99475E-03  1.86525E-02 -3.18354E-01 -2.03867E-01  2.75919E-01
  -2.13047E-01  1.51286E-01 -4.18873E-01 -6.86583E-01 -2.33087E-01 -3.59816E-01 -3.13233E-01 -1.53475E-01  1.84523E-01  4.41304E-02
  -1.39320E-01 -2.01174E-01 -1.36303E-01 -3.19391E-01 -2.26220E-02 -2.92895E-01 -2.11284E-01 -1.02346E-01  2.41312E-02 -1.58557E-01
  -4.19759E-01 -8.60366E-01 -2.98801E+00 -1.95901E+00 -9.23748E-01 -9.93449E-01 -2.67160E-01 -3.46852E-01 -1.23511E-01 -1.46986E-01
   1.82868E-02  2.15202E-01  1.27501E-02  1.73072E-01 -1.82331E-02 -1.07913E-01  1.84390E-01  1.51991E-01  1.08561E-01  8.58827E-02
   2.24325E-01 -1.16323E-01  2.52568E-01  2.52088E-01 -3.52618E-01  6.89859E-03  2.86475E-01 -3.32493E-02  1.26760E-02  2.93681E-01
   5.88972E-03  2.02240E-01  4.28517E-02  1.22383E-01 -9.21342E-02  1.67165E-01  3.49771E-01  1.76371E-01  5.96012E-01  2.11351E-01
   1.81890E-01  1.67218E-01  4.08444E-01  2.89606E-01  3.47087E-01  2.06723E-01  4.76694E-02  2.36789E-01  3.03571E-01  3.76421E-01
   9.99295E-02  1.17751E-01  9.27446E-02  4.23254E-01  4.17576E-02  1.86904E-01  1.96997E-01  4.02395E-02  3.23406E-01  1.12168E-01
   2.15448E-01  1.21551E-02  2.39341E-01  1.18035E-01  1.29593E-01  1.07033E-01 -1.66041E-01  7.46338E-02 -1.00490E-01 -3.71946E-02
   5.76311E-02  1.59378E-01  2.11713E-03 -1.09971E-01  4.65905E-02 -3.05102E-01 -6.78909E-02 -1.05660E-01 -5.74743E-02  1.13347E-01
  -9.91439E-02 -4.79111E-02 -5.22132E-01 -2.67888E-01 -7.51627E-02 -7.45759E-02 -1.50141E-02 -2.19724E-01 -1.58088E-01 -1.64461E-01
  -1.30836E-01 -2.47474E-01 -8.84076E-02  2.23630E-01 -1.24539E-02 -1.08421E-01  1.49614E-01 -3.04022E-01  6.27984E-02  2.21453E-01
  -2.50427E-02  2.33133E-01  3.84194E-02 -2.12376E-02 -1.08279E-01 -5.92924E-02 -2.25771E-01  2.58356E-01  2.59179E-01 -4.08437E-02
   1.00825E-01  4.07920E-03  3.58491E-01  2.00745E-01  7.26110E-02 -1.48876E-01 -1.68124E-01  9.60485E-03 -2.61060E-01  1.43999E-01
   7.02603E-02  7.73235E-02  5.96385E-01  7.12201E-02 -5.36897E-03  7.21852E-02 -1.31481E-01 -2.71499E-01 -1.39007E-01 -6.61697E-02
  -6.06694E-02 -8.10248E-02 -5.92739E-01 -3.83061E-01 -4.88371E-01 -2.14199E-01 -2.89071E-01 -5.61931E-01 -1.49316E-02  1.18909E-01
  -1.06216E-01 -1.63409E-01  2.37717E-01  5.35329E-02  2.01255E-01  3.73824E-02  7.41048E-02  2.77600E-01 -1.13135E-01  2.93332E-02
   1.59792E-01 -6.56698E-02 -3.04051E-02  8.85337E-02 -2.21110E-01  8.18693E-02  1.47296E-01 -9.33813E-02  2.71015E-01  2.51116E-01
  -1.01743E-01  2.07005E-01  1.79680E-01  1.01110E-01  6.93160E-02  3.34100E-01  2.98002E-01 -8.92231E-02  5.68741E-01  2.56468E-01
   1.29128E-01 -1.22750E-01 -2.24645E-01  1.67881E-01  2.27485E-01 -1.91568E-02 -4.13327E-02  2.02860E-01 -1.74004E-01  2.24745E-01
   7.98661E-02  1.88229E-01  1.84190E-01 -1.42749E-02 -3.84073E-01 -7.64258E-01 -5.69520E-01 -7.25887E-01 -2.21079E-01 -3.73133E-01
  -5.80426E-01 -2.48333E-01 -1.04635E-01 -2.36716E-01 -1.54506E-01 -2.53510E-01 -1.55135E-01 -7.10081E-02 -2.39961E-01 -1.57787E-01
  -2.65106E-01 -1.88025E-01 -2.52503E-01 -7.09192E-02 -2.59073E-01  3.12284E-02  9.35044E-02 -9.22780E-02  1.69731E-01  1.66803E-01
   5.17290E-01  4.87841E-01 -6.73686E-02 -2.55709E-01  1.84824E-01  2.25588E-01  2.57719E-01  2.29796E-01  2.41501E-01 -1.35390E-02
  -1.39020E-02  1.26395E-01 -1.88636E-01  2.89084E-01  4.25924E-01 -1.40164E-01 -6.98824E-02  3.13068E-01  1.10860E-01  2.03247E-01
  -3.18545E-02 -6.70785E-02  1.26279E-03  3.93503E-03 -2.67744E-02 -1.39287E-01  1.45700E-01 -7.51067E-02 -8.12798E-02 -2.16979E-01
   8.87263E-02 -3.05196E-02  1.78179E-02  1.51582E-01 -6.46415E-02  2.09026E-01  1.40591E-01  3.51061E-01 -6.59228E-02 -1.33197E-01
  -1.74973E-01 -2.01438E-01 -1.25667E-01 -8.77620E-02  1.88186E-01 -2.11849E-01  4.91448E-02  8.67252E-02 -1.65157E-01 -2.53590E-01
  -2.80841E-01 -2.11985E-01 -1.44030E-01 -4.11229E-04 -2.84224E-01 -6.69876E-02  7.81458E-02  2.22003E-02  4.92538E-02  7.77013E-02
   8.51347E-02 -8.25047E-02  3.88189E-02 -7.78198E-02  1.82972E-01 -4.59846E-02 -9.77333E-02  1.29172E-01 -3.68924E-01 -1.42570E-01
   1.47334E-01  2.65357E-02 -1.74400E-01  2.00429E-01  2.60133E-01  3.01671E-01  7.95286E-02  3.19658E-02  1.45417E-01 -2.50281E-01
   1.53662E-01 -8.93607E-02  1.21042E-02  1.74276E-01  2.57212E-01  2.72622E-01 -2.49951E-02  7.20246E-02  1.87226E-01  1.55680E-01
  -1.09114E-01  1.23167E-02 -1.14038E-01 -5.93436E-02 -7.97379E-02 -1.80425E-02  4.45097E-02 -1.98372E-02 -1.12219E-01 -3.76996E-02
   1.82067E-01 -1.58834E-01 -2.12507E-01  1.13118E-01
 NY points of the fit to the data follow
  -2.88828E-02 -2.39549E-02 -1.84854E-02 -1.72956E-02 -1.41956E-02 -7.40884E-03 -3.49850E-03 -2.42829E-02  1.13329E-02  3.67824E-02
   3.79952E-02  3.74115E-01  5.12031E-01  2.65543E-01  4.99203E-01  7.59873E-01  4.93203E-01  3.35407E-01  2.62393E-01  1.16066E-01
   1.01352E-01  9.20099E-02  1.56415E-02 -2.04984E-02 -4.97641E-02 -7.44592E-02 -9.52595E-02 -1.09715E-01 -1.25729E-01 -1.43003E-01
  -1.53599E-01 -1.65937E-01 -1.86365E-01 -2.16826E-01 -2.61253E-01 -3.05499E-01 -3.33021E-01 -3.49600E-01 -2.68829E-01  1.01972E-02
   1.94050E-01  2.07085E-01  3.61808E-01  4.29928E-01  4.34404E-01  4.38784E-01  2.95238E-01  2.06543E-01  1.60710E-01  9.63065E-02
   7.58778E-02  3.30101E-02  5.98510E-03 -2.86761E-02 -6.47210E-02 -1.08172E-01 -1.49888E-01 -1.72293E-01 -2.22070E-01 -2.54666E-01
  -3.00416E-01 -4.82378E-01 -3.04826E-01 -1.91082E-01 -5.46926E-01 -7.15652E-02  2.91607E-01 -5.27444E-02  3.18922E-01  4.98612E-01
   2.49363E-01  3.35224E-01  2.56185E-01  1.36597E-01  1.28141E-01  3.54130E-02 -9.22187E-02 -1.79850E-01 -4.21463E-01 -6.54824E-01
  -3.05700E-01 -8.89929E-02 -1.73150E-01  1.99500E-01  4.16587E-01  3.36605E-01  4.07665E-01  3.64868E-01  2.91849E-01  2.86850E-01
   2.64073E-01  2.39481E-01  2.03466E-01  1.61494E-01  1.17678E-01  1.00122E-02 -1.69165E-01 -3.35207E-01 -5.43165E-01 -5.33091E-01
  -3.58648E-01 -1.54069E-01  1.32945E-01  2.50322E-01  2.58385E-01  3.03577E-01  2.87784E-01  2.99421E-01  3.06586E-01  3.06454E-01
   3.02361E-01  3.00905E-01  2.99015E-01  2.94640E-01  2.93213E-01  2.93027E-01  2.95498E-01  3.04699E-01  2.91265E-01  2.84130E-01
   3.02430E-01  1.46038E-01  8.92659E-02  2.09335E-01 -1.18628E-01 -1.16242E-01  5.66844E-02 -4.46832E-01 -5.07029E-01 -6.99272E-01
  -8.37583E-01 -5.26825E-01 -4.37914E-01 -2.48301E-01 -3.53002E-01 -6.32904E-01 -8.71968E-01 -8.91960E-01 -4.60462E-01 -3.45356E-01
  -2.29846E-01 -9.36880E-02 -1.20364E-01 -3.64756E-02  7.60843E-03  4.17669E-02  6.96466E-02  9.36519E-02  1.15517E-01  1.33723E-01
   1.50880E-01  1.69368E-01  1.85487E-01  2.02218E-01  2.22830E-01  2.43207E-01  2.66030E-01  2.94775E-01  3.23624E-01  3.53494E-01
   3.93315E-01  4.45715E-01  5.46327E-01  7.72776E-01  8.00568E-01  1.03572E+00  1.32081E+00 -9.73621E-02 -1.11116E+00 -7.17257E-01
  -7.83422E-01 -6.42138E-01 -3.53210E-01 -5.12086E-01 -4.60180E-01 -3.73031E-01 -3.27518E-01 -3.20902E-01 -3.17325E-01 -3.07572E-01
  -2.42938E-01 -2.39909E-01 -2.41521E-01 -2.33695E-01 -2.60296E-01 -2.46109E-01 -2.29284E-01 -2.29385E-01 -2.23170E-01 -2.14767E-01
  -2.00708E-01 -1.89744E-01 -1.73962E-01 -1.65032E-01 -1.52228E-01 -1.42154E-01 -1.33538E-01 -1.23290E-01 -1.11837E-01 -1.01478E-01
  -9.19747E-02 -7.22437E-02 -5.81212E-02 -6.41376E-02 -7.25392E-02 -7.29230E-02 -5.36345E-02 -3.36318E-02 -4.67662E-02 -7.10577E-02
  -8.29129E-02 -8.63299E-02 -8.16363E-02 -7.76804E-02 -7.45341E-02 -7.08377E-02 -6.86681E-02 -6.49131E-02 -6.71974E-02 -7.01258E-02
  -7.39278E-02 -5.50771E-02 -2.81009E-02 -1.04086E-02  1.51333E-01  2.95148E-01  2.49234E-01  1.93140E-01  1.52657E-01  3.24331E-01
   5.47549E-01  3.72003E-01  1.87887E-01  1.23374E-01  3.01600E-05 -1.74539E-02 -1.52206E-02 -6.10166E-02 -7.48133E-02 -9.17495E-02
  -1.05496E-01 -1.09379E-01 -1.18732E-01 -1.16104E-01 -1.20331E-01 -1.30623E-01 -1.12619E-01 -1.21254E-01 -9.42823E-02 -9.02023E-02
  -1.15072E-01 -1.00188E-01 -1.64055E-01 -1.47094E-01 -1.47395E-01 -2.50411E-01 -4.53756E-03  6.63676E-02 -1.12306E-01  9.44049E-02
   1.80481E-01  1.37560E-01  1.56139E-01  1.01705E-01  1.84576E-01  1.53209E-01  1.18897E-01  1.74014E-01  1.17522E-01  1.72932E-01
   1.83054E-01  1.32612E-01  1.25404E-01  6.75944E-02  2.78814E-02 -7.57574E-03 -5.19640E-02 -1.08893E-01 -1.77357E-01 -2.37829E-01
  -3.86169E-01 -4.00949E-01 -3.57468E-01 -3.29041E-01 -4.74015E-02  1.38635E-01  2.49862E-01  4.55874E-01  4.17090E-01  3.59467E-01
   3.56872E-01  2.74332E-01  2.63569E-01  2.37224E-01  2.09851E-01  2.36509E-01  2.30919E-01  2.39168E-01  2.53601E-01  2.34700E-01
   2.31440E-01  2.28353E-01  2.14830E-01  2.11729E-01  2.06695E-01  1.96690E-01  1.89409E-01  1.81058E-01  1.62446E-01  1.49317E-01
   1.26543E-01  1.01360E-01  6.91435E-02  1.25179E-02 -2.60848E-02 -1.05304E-01 -1.55439E-01 -2.00418E-01 -2.64601E-01 -2.68120E-01
  -3.43071E-01 -3.75207E-01 -3.62084E-01 -3.87062E-01 -2.95302E-01 -1.85573E-01 -7.95780E-02  3.33492E-02  8.40659E-02  8.12711E-02
   6.78511E-02  2.28220E-02 -5.47208E-02 -6.65580E-02 -1.20876E-01 -1.29504E-01 -1.30215E-01 -4.13921E-02  7.68561E-03 -1.78566E-01
  -1.57104E-01 -1.03521E+00 -2.62383E+00 -2.08901E+00 -1.02631E+00 -8.77633E-01 -3.80491E-01 -2.21673E-01 -3.60597E-01 -1.57290E-01
  -9.30075E-02 -5.49410E-02 -2.89785E-02 -1.24364E-02  1.79864E-03  1.51587E-02  2.54480E-02  2.84264E-02  3.35208E-02  2.89761E-02
   1.22809E-02  9.93137E-03 -1.37310E-02 -2.45565E-02 -2.39395E-02 -3.03306E-02 -1.35198E-02 -2.54823E-03  3.50262E-03  1.85077E-02
   2.27388E-02  3.17707E-02  3.98949E-02  4.75348E-02  5.01749E-02  5.45063E-02  5.85494E-02  6.18128E-02  6.72892E-02  7.10157E-02
   7.24014E-02  7.56862E-02  7.81783E-02  8.17600E-02  8.58128E-02  8.70555E-02  8.83400E-02  8.87395E-02  9.11892E-02  9.51412E-02
   9.84340E-02  1.02424E-01  1.04186E-01  1.04376E-01  1.02422E-01  1.00041E-01  9.98243E-02  9.75448E-02  9.49545E-02  9.20837E-02
   8.62567E-02  8.08249E-02  7.67807E-02  6.93449E-02  6.17074E-02  5.67411E-02  5.24981E-02  4.62277E-02  3.92953E-02  3.52692E-02
   2.99135E-02  2.43957E-02  2.24898E-02  1.88497E-02  1.50086E-02  1.28326E-02  9.19210E-03  5.78919E-03  3.27810E-03  9.98189E-04
  -1.85580E-04 -2.88671E-03 -4.51573E-03 -2.79309E-03 -2.36596E-03 -1.60103E-03  2.14274E-03  5.51318E-03  7.84415E-03  1.38295E-02
   1.99382E-02  2.00827E-02  2.35194E-02  3.69442E-02  4.36591E-02  4.99673E-02  5.71271E-02  5.23442E-02  5.20314E-02  5.89106E-02
   6.46618E-02  7.39538E-02  8.38819E-02  9.33903E-02  1.01980E-01  1.12662E-01  1.23769E-01  1.32667E-01  1.40507E-01  1.46297E-01
   1.48284E-01  1.49308E-01  1.50979E-01  1.49025E-01  1.47477E-01  1.44629E-01  1.35701E-01  1.30662E-01  1.18254E-01  1.16698E-01
   1.44480E-01  1.44921E-01  1.50341E-01  1.48338E-01  1.08159E-01  9.47901E-02  8.62636E-02  6.71983E-02  6.42128E-02  5.43200E-02
   4.69115E-02  4.18063E-02  3.62892E-02  3.17292E-02  2.91046E-02  2.94840E-02  3.01874E-02  3.09392E-02  3.31330E-02  3.59951E-02
   3.82473E-02  4.29123E-02  4.94813E-02  5.33462E-02  5.63808E-02  5.95140E-02  6.13810E-02  6.18233E-02  6.38019E-02  6.85932E-02
   7.02139E-02  7.03725E-02  7.07309E-02  6.78793E-02  6.74174E-02  6.63527E-02  6.09053E-02  5.81418E-02  5.62780E-02  5.30158E-02
   5.00972E-02  4.64422E-02  4.33290E-02  4.03908E-02  3.63051E-02  3.26196E-02  2.84241E-02  2.39541E-02  2.28446E-02  2.15183E-02
   1.71284E-02  1.38551E-02  1.11203E-02  6.87100E-03  8.88248E-04 -6.13902E-03 -1.22608E-02 -1.85835E-02 -2.62767E-02 -3.54160E-02
  -4.79413E-02 -6.48872E-02 -8.02289E-02 -9.36848E-02 -1.09280E-01 -1.24157E-01 -1.37578E-01 -1.50726E-01 -1.61692E-01 -1.73296E-01
  -1.83170E-01 -1.85645E-01 -1.86279E-01 -1.89127E-01 -1.88838E-01 -1.84272E-01 -1.77978E-01 -1.72423E-01 -1.67116E-01 -1.61287E-01
  -1.57346E-01 -1.52151E-01 -1.42634E-01 -1.35643E-01 -1.28078E-01 -1.17959E-01 -1.08673E-01 -9.91485E-02 -9.08311E-02 -8.10017E-02
  -7.25968E-02 -6.58937E-02 -5.53269E-02 -4.74555E-02 -4.21932E-02 -3.57549E-02 -2.99822E-02 -2.14482E-02 -1.63648E-02 -1.54475E-02
  -9.93834E-03 -5.13867E-03 -3.22304E-03  5.92676E-04  2.59748E-03  2.97329E-03  5.03109E-03  8.12701E-03  8.09490E-03  6.56080E-03
   9.15029E-03  1.16060E-02  1.16740E-02  1.46557E-02  1.79175E-02  1.76425E-02  1.72444E-02  1.88198E-02  1.86596E-02  1.73921E-02
   1.89800E-02  1.85169E-02  1.66146E-02  1.83725E-02  1.74370E-02  1.59679E-02  1.81905E-02  1.83237E-02  1.93764E-02  2.07897E-02
   1.52630E-02  1.13692E-02  1.42447E-02  1.55268E-02  1.47361E-02  1.43763E-02  1.47530E-02  1.42988E-02  1.14251E-02  1.02570E-02
   1.03103E-02  1.20267E-02  1.39541E-02  1.33786E-02  1.37754E-02  1.46104E-02  1.56728E-02  1.70427E-02  1.70133E-02  1.79858E-02
   1.94697E-02  2.02989E-02  1.75538E-02  1.57883E-02  1.74192E-02  1.74359E-02  1.84176E-02  2.03162E-02  2.03448E-02  2.19650E-02
   1.99785E-02  1.99804E-02  2.63184E-02  2.75096E-02  2.90607E-02  3.04392E-02  2.53516E-02  2.50335E-02  2.67030E-02  2.77419E-02
   2.97125E-02  2.83781E-02  2.73279E-02  2.81154E-02  2.80112E-02  2.95726E-02  3.06098E-02  2.79483E-02  2.92462E-02  3.35171E-02
   3.35314E-02  3.32703E-02  3.49015E-02  3.53787E-02  3.63635E-02  3.83801E-02  3.85979E-02  4.22077E-02  4.84908E-02  5.08341E-02
   5.33963E-02  5.55468E-02  5.73241E-02  5.94608E-02
 NY background values follow
     2.281E-02    2.294E-02    2.307E-02    2.319E-02    2.332E-02    2.345E-02    2.358E-02    2.371E-02    2.383E-02    2.396E-02
     2.409E-02    2.422E-02    2.434E-02    2.447E-02    2.460E-02    2.473E-02    2.486E-02    2.498E-02    2.511E-02    2.524E-02
     2.536E-02    2.549E-02    2.562E-02    2.575E-02    2.587E-02    2.600E-02    2.612E-02    2.625E-02    2.638E-02    2.650E-02
     2.663E-02    2.675E-02    2.688E-02    2.700E-02    2.713E-02    2.725E-02    2.738E-02    2.750E-02    2.762E-02    2.775E-02
     2.787E-02    2.799E-02    2.812E-02    2.824E-02    2.836E-02    2.848E-02    2.860E-02    2.872E-02    2.885E-02    2.897E-02
     2.909E-02    2.921E-02    2.932E-02    2.944E-02    2.956E-02    2.968E-02    2.980E-02    2.992E-02    3.003E-02    3.015E-02
     3.027E-02    3.038E-02    3.050E-02    3.061E-02    3.072E-02    3.084E-02    3.095E-02    3.106E-02    3.118E-02    3.129E-02
