 
 $NMID
 ID=''
 FMTDAT='(2E13.5)'
 TRAMP=   1.00000E+0
 VOLUME=   1.00000E+0
 $END
  -1.44541E+4   1.21943E+4
  -4.43742E+4   1.98842E+4
  -3.98928E+4   2.75587E+4
  -3.63728E+4   2.57090E+4
  -3.82486E+4   2.57507E+4
  -3.69914E+4   2.75946E+4
  -3.55446E+4   2.64405E+4
  -3.63679E+4   2.61258E+4
  -3.54399E+4   2.72837E+4
  -3.44643E+4   2.65487E+4
  -3.48896E+4   2.63061E+4
  -3.40004E+4   2.71514E+4
  -3.31181E+4   2.68159E+4
  -3.34622E+4   2.65680E+4
  -3.27971E+4   2.69798E+4
  -3.20284E+4   2.67893E+4
  -3.21098E+4   2.66372E+4
  -3.15047E+4   2.71043E+4
  -3.08073E+4   2.70425E+4
  -3.08566E+4   2.68546E+4
  -3.01326E+4   2.70782E+4
  -2.93816E+4   2.71418E+4
  -2.93817E+4   2.72308E+4
  -2.89164E+4   2.74154E+4
  -2.81884E+4   2.72058E+4
  -2.80451E+4   2.73748E+4
  -2.75547E+4   2.75572E+4
  -2.71010E+4   2.73713E+4
  -2.68168E+4   2.73326E+4
  -2.64394E+4   2.75031E+4
  -2.59111E+4   2.75179E+4
  -2.56823E+4   2.75858E+4
  -2.54348E+4   2.77147E+4
  -2.50125E+4   2.75695E+4
  -2.47037E+4   2.76538E+4
  -2.44220E+4   2.77060E+4
  -2.39838E+4   2.75463E+4
  -2.36733E+4   2.76024E+4
  -2.32425E+4   2.77435E+4
  -2.27171E+4   2.76933E+4
  -2.24782E+4   2.76239E+4
  -2.22824E+4   2.76116E+4
  -2.18940E+4   2.73932E+4
  -2.14593E+4   2.73169E+4
  -2.10657E+4   2.73433E+4
  -2.06801E+4   2.73324E+4
  -2.02743E+4   2.72335E+4
  -1.99081E+4   2.72844E+4
  -1.95160E+4   2.72908E+4
  -1.92358E+4   2.72065E+4
  -1.88238E+4   2.71010E+4
  -1.85286E+4   2.71313E+4
  -1.80074E+4   2.70487E+4
  -1.76641E+4   2.71140E+4
  -1.72379E+4   2.70771E+4
  -1.70566E+4   2.70357E+4
  -1.66602E+4   2.69900E+4
  -1.63215E+4   2.69674E+4
  -1.59966E+4   2.67947E+4
  -1.56971E+4   2.66994E+4
  -1.53288E+4   2.66905E+4
  -1.49480E+4   2.65840E+4
  -1.46119E+4   2.65542E+4
  -1.43183E+4   2.64793E+4
  -1.40288E+4   2.64072E+4
  -1.36190E+4   2.63424E+4
  -1.32205E+4   2.62749E+4
  -1.29871E+4   2.61982E+4
  -1.26906E+4   2.60374E+4
  -1.23498E+4   2.60169E+4
  -1.21131E+4   2.59270E+4
  -1.17280E+4   2.58224E+4
  -1.15164E+4   2.57149E+4
  -1.12008E+4   2.56435E+4
  -1.09934E+4   2.55678E+4
  -1.06531E+4   2.55029E+4
  -1.03407E+4   2.53861E+4
  -1.00620E+4   2.52746E+4
  -9.77114E+3   2.51336E+4
  -9.50579E+3   2.50665E+4
  -9.23797E+3   2.49211E+4
  -9.04575E+3   2.47895E+4
  -8.69905E+3   2.47113E+4
  -8.49613E+3   2.46291E+4
  -8.26900E+3   2.45615E+4
  -8.06843E+3   2.43069E+4
  -7.83097E+3   2.42267E+4
  -7.55731E+3   2.40640E+4
  -7.31718E+3   2.39905E+4
  -7.05059E+3   2.39022E+4
  -6.82048E+3   2.37862E+4
  -6.53905E+3   2.36628E+4
  -6.34474E+3   2.35584E+4
  -6.11575E+3   2.34303E+4
  -5.85614E+3   2.33717E+4
  -5.58498E+3   2.32002E+4
  -5.38117E+3   2.30025E+4
  -5.15276E+3   2.29293E+4
  -4.87280E+3   2.29159E+4
  -4.72987E+3   2.27169E+4
  -4.54767E+3   2.25278E+4
  -4.30101E+3   2.23656E+4
  -4.02655E+3   2.23870E+4
  -3.81749E+3   2.22993E+4
  -3.61620E+3   2.20434E+4
  -3.44504E+3   2.20009E+4
  -3.20401E+3   2.17064E+4
  -3.06603E+3   2.16682E+4
  -2.81721E+3   2.15505E+4
  -2.60229E+3   2.13669E+4
  -2.42242E+3   2.11934E+4
  -2.15328E+3   2.10538E+4
  -1.96245E+3   2.09291E+4
  -1.80247E+3   2.08895E+4
  -1.67412E+3   2.07585E+4
  -1.44581E+3   2.05771E+4
  -1.30176E+3   2.04816E+4
  -1.16344E+3   2.03245E+4
  -1.01263E+3   2.01276E+4
  -7.48511E+2   2.00465E+4
  -5.78629E+2   1.98907E+4
  -4.73893E+2   1.98005E+4
  -3.12132E+2   1.96309E+4
  -1.09336E+2   1.94793E+4
   5.47132E+1   1.93692E+4
   1.51276E+2   1.92795E+4
   3.07784E+2   1.91258E+4
   5.23932E+2   1.89465E+4
   6.68576E+2   1.88310E+4
   7.55548E+2   1.86450E+4
   8.46715E+2   1.85690E+4
   1.02108E+3   1.83887E+4
   1.21327E+3   1.82625E+4
   1.27439E+3   1.81294E+4
   1.40994E+3   1.80394E+4
   1.57926E+3   1.78561E+4
   1.67603E+3   1.76858E+4
   1.77841E+3   1.75355E+4
   1.91779E+3   1.73513E+4
   2.09499E+3   1.73124E+4
   2.15002E+3   1.71253E+4
   2.31009E+3   1.69789E+4
   2.40522E+3   1.68803E+4
   2.57154E+3   1.67500E+4
   2.63595E+3   1.65876E+4
   2.71071E+3   1.64387E+4
   2.83987E+3   1.63506E+4
   2.91979E+3   1.61260E+4
   3.05580E+3   1.60075E+4
   3.14299E+3   1.58648E+4
   3.24176E+3   1.57092E+4
   3.36911E+3   1.55790E+4
   3.40465E+3   1.54353E+4
   3.49960E+3   1.52873E+4
   3.67134E+3   1.51226E+4
   3.73554E+3   1.49763E+4
   3.83962E+3   1.48093E+4
   3.91122E+3   1.47269E+4
   4.01992E+3   1.45145E+4
   4.17348E+3   1.44041E+4
   4.17383E+3   1.43073E+4
   4.27754E+3   1.40995E+4
   4.32657E+3   1.39368E+4
   4.45181E+3   1.37273E+4
   4.50697E+3   1.37053E+4
   4.64958E+3   1.35626E+4
   4.64199E+3   1.33008E+4
   4.77666E+3   1.32208E+4
   4.90334E+3   1.30473E+4
   4.91291E+3   1.29318E+4
   5.04457E+3   1.27612E+4
   5.07597E+3   1.25860E+4
   5.19247E+3   1.25044E+4
   5.21539E+3   1.23360E+4
   5.25992E+3   1.20939E+4
   5.41366E+3   1.20367E+4
   5.41737E+3   1.18830E+4
   5.49858E+3   1.17460E+4
   5.62746E+3   1.16367E+4
   5.65127E+3   1.14599E+4
   5.67433E+3   1.12974E+4
   5.79834E+3   1.11872E+4
   5.82853E+3   1.09739E+4
   5.83868E+3   1.08435E+4
   5.97247E+3   1.07130E+4
   6.01192E+3   1.05891E+4
   5.99951E+3   1.04145E+4
   6.10900E+3   1.03604E+4
   6.09929E+3   1.01966E+4
   6.10879E+3   1.00767E+4
   6.11360E+3   9.87264E+3
   6.26693E+3   9.72483E+3
   6.24425E+3   9.54212E+3
   6.33097E+3   9.44484E+3
   6.32079E+3   9.30225E+3
   6.44478E+3   9.12049E+3
   6.46006E+3   9.05538E+3
   6.47031E+3   8.86127E+3
   6.54487E+3   8.72455E+3
   6.58393E+3   8.55376E+3
   6.56701E+3   8.48911E+3
   6.61457E+3   8.30944E+3
   6.59224E+3   8.15680E+3
   6.67100E+3   7.98676E+3
   6.69137E+3   7.86859E+3
   6.69244E+3   7.73933E+3
   6.70189E+3   7.59798E+3
   6.71259E+3   7.47656E+3
   6.78389E+3   7.37184E+3
   6.79731E+3   7.13253E+3
   6.81716E+3   7.10713E+3
   6.81734E+3   6.91881E+3
   6.76664E+3   6.73845E+3
   6.89767E+3   6.58653E+3
   6.90705E+3   6.51541E+3
   6.89009E+3   6.41129E+3
   6.84410E+3   6.25177E+3
   6.86040E+3   6.17014E+3
   6.88673E+3   5.99848E+3
   6.97536E+3   5.86746E+3
   6.91947E+3   5.74843E+3
   6.86947E+3   5.60941E+3
   6.98075E+3   5.49485E+3
   6.84726E+3   5.38807E+3
   6.85906E+3   5.33105E+3
   6.87844E+3   5.13590E+3
   6.88401E+3   5.06526E+3
   6.91293E+3   4.89474E+3
   6.86106E+3   4.72812E+3
   6.81227E+3   4.65793E+3
   6.83580E+3   4.57404E+3
   6.78947E+3   4.39444E+3
   6.70939E+3   4.35668E+3
   6.75061E+3   4.25743E+3
   6.70634E+3   4.08729E+3
   6.77486E+3   4.00900E+3
   6.72101E+3   3.86591E+3
   6.74219E+3   3.83482E+3
   6.65032E+3   3.69378E+3
   6.58778E+3   3.60077E+3
   6.63045E+3   3.51323E+3
   6.58226E+3   3.33705E+3
   6.58976E+3   3.24985E+3
   6.55563E+3   3.23379E+3
   6.48512E+3   3.09423E+3
   6.58081E+3   3.00014E+3
   6.53405E+3   2.85558E+3
   6.46244E+3   2.82235E+3
   6.42292E+3   2.75194E+3
   6.43177E+3   2.56362E+3
   6.36839E+3   2.52879E+3
   6.26908E+3   2.44213E+3
   6.25603E+3   2.38488E+3
   6.27556E+3   2.27467E+3
   6.19208E+3   2.13879E+3
   6.26859E+3   2.13185E+3
   6.20452E+3   1.97130E+3
   6.13329E+3   1.91223E+3
   6.12687E+3   1.81164E+3
   6.07936E+3   1.81325E+3
   6.04690E+3   1.75421E+3
   5.97717E+3   1.65021E+3
   6.00845E+3   1.58407E+3
   5.97814E+3   1.48062E+3
   5.93690E+3   1.36189E+3
   5.87089E+3   1.32548E+3
   5.85006E+3   1.27341E+3
   5.79028E+3   1.22246E+3
   5.79698E+3   1.17443E+3
   5.74485E+3   1.14122E+3
   5.70019E+3   1.03798E+3
   5.66059E+3   9.41358E+2
   5.68645E+3   8.62499E+2
   5.58242E+3   8.30049E+2
   5.51975E+3   8.04434E+2
   5.51654E+3   7.02102E+2
   5.44986E+3   7.14182E+2
   5.43342E+3   5.84355E+2
   5.39466E+3   4.79065E+2
   5.34446E+3   5.42347E+2
   5.31071E+3   4.29097E+2
   5.27031E+3   3.48261E+2
   5.30205E+3   3.69908E+2
   5.19277E+3   2.98543E+2
   5.22688E+3   1.62172E+2
   5.09717E+3   2.06470E+2
   5.10190E+3   2.09797E+2
   5.06403E+3   1.06147E+2
   5.01656E+3   9.04546E+1
   4.96199E+3   1.68857E+0
   4.92614E+3  -2.20393E+1
   4.83991E+3  -4.86843E+1
   4.88385E+3  -5.28131E+1
   4.84965E+3  -1.31570E+2
   4.75716E+3  -1.88471E+2
   4.72448E+3  -2.10502E+2
   4.73290E+3  -2.16133E+2
   4.66023E+3  -3.24497E+2
   4.66432E+3  -3.40315E+2
   4.61488E+3  -3.76044E+2
   4.58096E+3  -3.36528E+2
   4.57962E+3  -4.10096E+2
   4.54906E+3  -4.23804E+2
   4.47103E+3  -5.05727E+2
   4.38449E+3  -5.01209E+2
   4.38869E+3  -5.61058E+2
   4.38316E+3  -5.00877E+2
   4.35458E+3  -5.77646E+2
   4.24125E+3  -6.30846E+2
   4.28037E+3  -6.63925E+2
   4.18892E+3  -7.10670E+2
   4.20241E+3  -7.38308E+2
   4.15085E+3  -7.32237E+2
   4.13094E+3  -7.85087E+2
   4.14163E+3  -7.40683E+2
   4.10470E+3  -7.88272E+2
   3.99062E+3  -8.44189E+2
   3.99687E+3  -7.53674E+2
   3.96635E+3  -8.28973E+2
   3.97190E+3  -8.59653E+2
   3.90504E+3  -9.31002E+2
   3.84332E+3  -9.47355E+2
   3.84642E+3  -9.20017E+2
   3.82697E+3  -8.95848E+2
   3.80482E+3  -9.66370E+2
   3.71465E+3  -9.44703E+2
   3.71127E+3  -9.99815E+2
   3.66490E+3  -1.02781E+3
   3.58643E+3  -1.03035E+3
   3.65433E+3  -9.99294E+2
   3.58602E+3  -1.05617E+3
   3.48498E+3  -1.12144E+3
   3.51915E+3  -1.14505E+3
   3.48198E+3  -1.04926E+3
   3.46681E+3  -1.11246E+3
   3.38972E+3  -1.12718E+3
   3.40339E+3  -1.18840E+3
   3.39964E+3  -1.10963E+3
   3.34730E+3  -1.14695E+3
   3.37850E+3  -1.18027E+3
   3.30833E+3  -1.14920E+3
   3.29915E+3  -1.24556E+3
   3.24570E+3  -1.23554E+3
   3.24197E+3  -1.23789E+3
   3.17775E+3  -1.28361E+3
   3.19744E+3  -1.29946E+3
   3.18206E+3  -1.27846E+3
   3.14568E+3  -1.25393E+3
   3.07967E+3  -1.29379E+3
   3.10184E+3  -1.34504E+3
   3.09002E+3  -1.31616E+3
   2.96498E+3  -1.26615E+3
   2.99437E+3  -1.29706E+3
   2.99155E+3  -1.25046E+3
   2.94393E+3  -1.33438E+3
   2.88868E+3  -1.35455E+3
   2.81374E+3  -1.34577E+3
   2.83265E+3  -1.31881E+3
   2.78839E+3  -1.32464E+3
   2.76575E+3  -1.34510E+3
   2.77528E+3  -1.32005E+3
   2.69178E+3  -1.40023E+3
   2.73568E+3  -1.33531E+3
   2.69368E+3  -1.42909E+3
   2.66105E+3  -1.34859E+3
   2.65227E+3  -1.44557E+3
   2.65409E+3  -1.35188E+3
