 
 $NMID
 ID=''
 FMTDAT='(2E13.5)'
 TRAMP=   1.00000E+0
 VOLUME=   1.00000E+0
 $END
   4.11838E+2  -2.40329E+2
   4.72611E+2   1.27030E+3
   1.68365E+3  -2.39007E+3
   6.09472E+2  -3.54750E+2
  -8.20662E+1   5.49440E+2
   1.69712E+3  -1.51451E+3
   6.31660E+2  -1.03448E+3
  -1.12169E+3  -2.70514E+3
   1.11906E+2  -2.31878E+3
   5.27657E+2  -3.43241E+3
  -1.13624E+3  -1.21921E+3
   8.91253E+2   1.48270E+3
  -1.43862E+3   8.68812E+2
  -1.48166E+2   1.20395E+2
  -1.78194E+3  -1.28490E+3
  -1.06336E+3  -2.70718E+2
   2.44695E+3   1.33125E+1
   1.70979E+3  -7.79491E+1
  -5.54291E+1   1.47894E+3
   2.43701E+3  -1.25944E+3
   3.12878E+3   8.04309E+1
   3.15564E+3   2.36923E+3
  -1.45731E+3   1.12431E+3
  -3.48250E+3  -2.37465E+3
   2.69325E+3  -3.50390E+3
   1.90888E+3   1.94047E+3
  -2.49508E+3   1.68977E+3
  -1.83363E+3  -1.83750E+3
   2.95430E+3  -1.18567E+3
   3.09295E+3   1.98667E+3
   1.50828E+3   4.46885E+3
  -3.58473E+3   4.07866E+3
  -4.14124E+3   1.04711E+3
  -5.10874E+2  -2.31100E+3
  -1.66478E+3  -2.16965E+3
  -1.81679E+3  -2.70710E+3
   4.68475E+2  -2.34432E+3
   1.56993E+3   4.30056E+2
  -8.80088E+2   4.10541E+3
  -2.89055E+3   4.94191E+3
  -5.65330E+3   6.87507E+3
  -4.44374E+3  -9.30196E+2
  -1.60484E+3  -5.01411E+3
   2.98409E+3   9.99548E+2
   1.90267E+3   3.74708E+3
   8.08795E+2   1.70303E+3
   3.27818E+3   8.95788E+1
  -1.13586E+3   6.71221E+2
  -1.23858E+3  -6.05610E+2
   2.22837E+1  -3.27903E+3
  -1.71762E+3  -2.46351E+3
   3.92971E+3  -4.30906E+3
   4.82036E+3  -1.29233E+3
   3.11687E+3   3.60145E+3
  -1.29872E+3   1.95096E+3
  -5.39524E+2   5.16337E+2
  -1.44533E+3   1.16102E+3
  -2.02665E+3  -1.95567E+3
   4.68117E+2  -3.11058E+3
   1.76261E+3  -1.50436E+3
   3.21334E+3  -1.18870E+3
   4.06747E+3  -3.27207E+2
  -1.18378E+3   1.66177E+3
  -2.86775E+3   1.03890E+3
   2.01120E+2  -4.29004E+3
   4.32262E+3  -8.81332E+2
   1.13139E+3   2.26275E+3
  -1.17101E+3   5.41082E+2
   1.85730E+2  -1.45462E+3
   3.39021E+2  -1.64041E+3
   9.81455E+2   3.26834E+2
  -4.43471E+2   8.55507E+2
   9.23907E+2   2.15110E+2
   1.41006E+3  -5.76693E+1
   1.35518E+3   1.16004E+0
  -1.01702E+3   1.34903E+3
  -1.74616E+3  -5.54665E+2
  -2.42537E+3   3.20975E+2
  -2.62254E+3   1.91239E+3
   4.80965E+2   2.39461E+3
  -3.95480E+3   3.46513E+3
  -3.02601E+3  -2.33455E+2
  -2.35084E+2  -7.22351E+2
  -6.22362E+2   2.82933E+3
  -3.46178E+3   1.37412E+3
  -3.94059E+3  -1.44675E+3
   8.59341E+2  -1.95289E+3
   2.89069E+3  -2.73193E+3
   3.94680E+3   3.01646E+3
   7.82120E+1   2.56365E+3
  -1.18454E+3  -9.98435E+2
   7.51225E+2   6.94324E+2
   1.02425E+3   4.12974E+3
  -2.85265E+3   2.96560E+3
  -3.97118E+3  -7.60699E+2
  -1.17980E+3  -1.83263E+3
   2.98015E+3  -1.07717E+3
  -8.88957E+2   3.02154E+3
  -3.91207E+3   3.83772E+3
  -2.56152E+3  -1.63386E+3
   7.32806E+2  -3.04855E+3
   4.11135E+3  -5.50872E+2
   1.55861E+3   1.83726E+3
  -1.13950E+3   9.20172E+2
  -5.44893E+2  -1.42803E+3
   5.65000E+2   1.87993E+2
  -1.10665E+3  -1.36553E+2
  -9.90670E+2  -1.97213E+2
  -5.73619E+2  -4.35349E+3
   2.34216E+3  -3.22684E+3
   2.10867E+3   5.22890E-1
   1.95609E+3  -1.79656E+2
   1.51175E+3   1.59654E+3
   9.98244E+2  -6.28746E+2
  -3.86291E+1   1.34925E+3
  -1.47993E+3   5.43414E+1
  -6.55901E+2  -1.31415E+3
   1.76685E+3  -7.27643E+2
   2.09293E+3   3.19640E+2
   2.04383E+3  -1.36608E+3
   3.85321E+2  -2.53594E+3
  -2.03318E+3  -3.54219E+2
   3.92057E+2  -4.15494E+3
   1.94169E+3  -2.47412E+3
   1.12425E+2  -1.80084E+3
   1.68785E+1  -1.37866E+3
  -9.38158E+2  -1.09099E+3
   7.53332E+2  -7.02647E+2
   2.42042E+2   3.00768E+2
  -7.01346E+2  -4.28360E+2
  -1.44966E+3   2.08431E+2
  -6.29729E+2  -1.68035E+3
   4.90098E+2  -8.58241E+2
   2.79453E+2   4.65070E+3
  -2.86477E+3   2.08180E+3
  -4.79698E+2   1.41921E+3
  -1.49595E+3  -1.30286E+3
  -9.78836E+2  -1.58061E+3
   1.33914E+3   4.76700E+2
   5.97024E+2  -3.41632E+3
   1.58703E+3  -6.47597E+2
   9.10846E+2  -1.38567E+3
   2.86581E+2  -1.81459E+2
  -9.06591E+2   6.61934E+2
  -8.58611E+2  -1.70716E+3
  -5.75307E+2  -1.74954E+3
  -1.17572E+3  -2.93526E+3
  -9.17029E+2   6.89444E+2
  -3.85044E+2  -1.94854E+3
  -1.04837E+2  -1.25242E+3
   4.47075E+2   1.86588E+3
  -1.85829E+3  -1.84708E+3
   1.88719E+2  -2.06866E+3
   1.08153E+3  -2.17805E+2
   9.32047E+2   8.83025E+2
   5.40562E+2   9.38899E+2
   6.82311E+2   1.54711E+3
   1.36486E+3   6.78191E+2
  -7.50323E+2   8.31055E+2
  -1.21096E+3   1.89676E+3
   1.73768E+1   3.16728E+2
  -1.34178E+3  -6.86881E+2
   8.89793E+1  -8.00986E+2
   1.62272E+3  -1.52706E+3
   1.43909E+3   4.59879E+2
   1.06618E+3  -1.32954E+1
  -9.10948E+1  -1.23187E+3
  -7.47825E+2   4.34891E+2
   1.09419E+3   1.31565E+3
  -2.40332E+2   8.75333E+2
  -4.42236E+2   1.32319E+3
   4.71573E+1  -1.69043E+3
   1.68441E+3  -2.14041E+3
   1.26669E+3  -1.88801E+3
   3.55662E+2  -7.41467E+2
  -9.72519E+2  -1.29975E+3
   8.17017E+2  -7.94407E+2
   1.00476E+3   2.19689E+3
   1.36951E+3   1.55053E+3
  -5.53668E+2   1.84667E+2
  -2.31499E+3  -7.01742E+2
  -2.31998E+3  -1.55688E+3
   2.14641E+3  -3.42639E+2
   4.01139E+2  -8.20785E+2
  -1.86146E+2  -9.20310E+2
   1.39483E+3   5.42834E+1
  -4.27134E+2   1.22055E+3
  -6.50449E+2   5.24777E+2
  -1.37001E+3  -1.92937E+3
   1.05637E+3  -9.14971E+2
   1.82674E+3   9.24178E+2
  -4.27633E+1  -6.16801E+0
  -1.92116E+2   5.65367E+2
   5.11925E+2   1.22698E+3
   7.10145E+2   7.01122E+1
  -3.67224E+2   1.06552E+3
  -2.51961E+2   4.45026E+2
   2.50620E+2   1.37585E+3
   2.02611E+3  -6.82751E+2
   2.41588E+3   2.01006E+3
  -1.47498E+3   1.58905E+3
  -2.93151E+3  -1.09810E+3
   5.75039E+2  -2.32457E+3
   9.90386E+0   2.00400E+3
   7.55101E+2  -6.82225E+2
   1.41931E+3   1.35132E+3
  -1.52515E+3   3.94081E+2
   8.79690E+2  -9.85389E+2
   2.01072E+3  -8.05478E+2
   2.29429E+2   1.36096E+3
  -2.93526E+3   2.03566E+2
   5.07813E+2  -1.25326E+0
   9.18090E+2  -2.03984E+3
   1.65054E+3  -6.78490E+2
  -1.74369E+3   2.15307E+3
  -2.53792E+3   2.57803E+3
  -1.49336E+3   6.58832E+2
   7.67324E+2   1.89197E+3
  -8.89462E+2   2.97077E+3
   6.47756E+2   8.65693E+2
  -2.21203E+3   1.56655E+3
   6.42046E+2   3.50722E+1
   3.23771E+2   1.66528E+3
  -8.64825E+2  -3.11535E+1
   7.27421E+2  -4.81280E+2
   2.98040E+3  -8.04859E+2
  -7.25697E+2   1.21210E+3
  -1.75066E+3   2.27758E+3
  -2.34005E+3   1.20242E+3
  -1.15734E+2  -1.11691E+3
  -3.89464E+2   3.22591E+2
   1.06555E+2   1.30476E+3
  -9.90866E+2   2.06632E+3
   1.90849E+3  -5.35362E+2
   2.05310E+3  -2.27432E+1
  -2.28745E+2   2.81735E+3
  -1.75636E+3   3.16756E+3
   9.53596E+2   1.32560E+3
   9.68520E+2  -2.64935E+3
   3.51845E+3  -1.43878E+3
   4.81982E+2   1.62481E+3
  -1.30184E+3   9.62055E+2
   1.37288E+3   1.15163E+3
  -4.07316E+2  -1.01903E+3
  -9.30611E+2   2.75228E+3
  -2.24634E+2   1.95428E+3
   1.35636E+3   1.75719E+3
  -3.66604E+2   1.11974E+2
  -4.80264E+2   5.01353E+2
   1.14447E+3   3.02182E+3
  -2.37538E+2  -2.05590E+2
   1.03991E+2   1.03536E+3
  -7.12126E+2  -2.14278E+3
   1.44786E+3  -7.84811E+2
   1.86761E+3   1.87396E+2
  -5.47676E+1  -1.64627E+3
   1.92106E+3  -3.67414E+2
   1.28511E+3  -4.79874E+2
  -1.71259E+2  -3.28442E+2
  -2.54597E+3   3.12720E+2
   1.94632E+2  -2.97903E+3
   1.25293E+3  -1.34621E+3
   2.10496E+3  -1.07789E+3
   2.38384E+2   1.02049E+2
  -7.52563E+2  -8.35495E+2
   3.36670E+2   1.16337E+3
   5.76467E+2  -1.02652E+3
  -1.05415E+3   2.39911E+3
  -1.24588E+1  -1.15072E+3
  -5.04732E+2  -1.81220E+3
   5.47288E+2   2.15326E+1
   8.07890E+2   2.02120E+3
  -6.35666E+2   1.04565E+3
  -1.27005E+3  -3.14566E+2
  -1.27098E+3   3.58746E+2
   2.66993E+2   9.26584E+2
   1.18859E+3  -1.23798E+3
   6.06587E+2  -3.86624E+2
   1.37398E+3  -8.54420E+2
   1.03781E+3  -2.00059E+1
   5.34874E+2   7.06919E+2
  -4.13082E+2   2.73144E+2
   1.21239E+2   8.28600E+2
   8.16824E+2  -1.65837E+3
   1.76851E+3   4.37357E+1
  -2.33773E+3   1.80866E+3
  -1.50693E+3   1.53932E+3
  -1.05514E+3   2.03789E+2
  -3.93545E+2  -1.25326E+3
   1.14503E+3   5.74381E+2
   6.97233E+2   1.13267E+3
  -3.96194E+2   1.44002E+3
  -5.69946E+2  -4.28998E+2
   1.56051E+3   1.92403E+3
  -6.88208E+2   1.78951E+3
  -1.05591E+3  -6.45397E+2
  -1.07123E+3  -5.82223E+2
   2.87017E+3   5.86165E+2
   1.47619E+3  -1.24514E+3
   7.42142E+2   1.02163E+3
  -2.43721E+2   3.22333E+2
  -3.35673E+2   4.06878E+2
   6.13013E+1  -1.53002E+2
   9.85582E+2   5.89232E+2
  -1.11692E+3  -1.76244E+0
   4.55816E+2  -1.32431E+3
  -4.82299E+1  -4.39163E+2
  -3.38866E+2   2.57044E+3
  -8.45413E+2   1.34367E+3
  -1.75109E+3   7.29453E+2
  -1.70392E+3  -8.21242E+2
   1.13129E+3   1.07642E+3
   3.43781E+2   1.16788E+3
  -7.22943E+2  -4.48358E+2
   1.00795E+3   1.84488E+2
  -1.67609E+3  -6.44763E+1
  -6.31665E+2   1.41196E+3
  -2.65195E+2   1.88545E+3
  -1.75512E+3  -1.66548E+3
  -6.99102E+2  -7.12391E+2
   6.16043E+2  -3.07936E+2
   1.07130E+3   9.59723E+2
  -1.06373E+2   1.69107E+3
  -5.35850E+2  -2.24248E+3
  -1.90593E+3   1.22113E+3
  -5.05014E+2  -6.15655E+2
  -2.66160E+3   1.84321E+3
  -2.87208E+1  -1.05398E+3
  -5.57975E+1  -2.03425E+3
  -2.76845E+2  -8.01882E+2
   1.07524E+3   1.97137E+3
  -8.64147E+2  -9.13888E+2
  -1.49701E+2  -2.02452E+2
  -7.15516E+2  -3.08775E+3
   1.33475E+3   4.11102E+2
  -1.64160E+3  -1.05010E+3
   1.85005E+3  -1.59425E+3
  -5.74590E+2   1.04238E+3
  -5.70088E+2   2.60547E+3
  -1.74024E+3   1.02561E+3
  -1.02856E+3   1.18299E+3
   1.02262E+2   1.18258E+2
  -5.63943E+2  -9.52011E+1
   3.57978E+2   4.90593E+2
   2.44790E+2  -2.03754E+3
  -1.30922E+2  -2.28100E+3
  -1.80963E+2  -1.63477E+3
   8.78311E+2   1.36023E+3
   5.58321E+2   6.82059E+2
  -2.84525E+2  -3.30210E+2
   1.30342E+3  -2.47300E+3
   6.51419E+2  -3.89032E+2
  -1.11740E+3   1.08183E+3
  -2.94908E+3  -5.94044E+0
  -1.15464E+3   3.48670E+2
  -6.90761E+2  -1.44556E+3
   1.01340E+3   1.22328E+3
  -2.25681E+3  -6.91930E+2
  -4.77312E+2   3.40439E+2
  -2.58878E+3  -4.58267E+2
   5.85581E+2   2.60729E+2
   1.40844E+3   1.80882E+3
  -1.11993E+3   7.32069E+2
   5.03064E+2  -7.96787E+2
  -5.11967E+2  -1.68333E+3
   1.40093E+3   1.66774E+2
  -1.82769E+2   2.71240E+2
