 LCModel (Version 6.3-1N) Copyright: S.W. Provencher.          Ref.: Magn. Reson. Med. 30:672-679 (1993).                
 Slice_N1@25_13  02-Jun-2023 14:37:54
 27 lines in following concentration table = NCONC+1
    Conc.  %SD /Cr+PCr  Metabolite                                         
 2.12E-06  17% 3.1E-04 Mac                                                 
 1.18E-02 204%   1.717 Cr                                                  
 4.31E-02  55%   6.283 PCr                                                 
 8.27E-02  14%  12.043 Ins                                                 
 8.42E-02  10%  12.267 NAA                                                 
 5.12E-02  21%   7.462 Tau                                                 
 1.34E-02  20%   1.952 PCho                                                
    0.000 999%   0.000 GPC                                                 
 6.33E-02  18%   9.219 Glu                                                 
 2.30E-02  34%   3.350 Gln                                                 
    0.000 999%   0.000 Ala                                                 
 1.23E-02 124%   1.792 Asc                                                 
 2.63E-03 225%   0.383 Asp                                                 
 7.47E-03  45%   1.088 GABA                                                
 4.20E-03  88%   0.611 Glc                                                 
 7.67E-03  55%   1.116 GSH                                                 
    0.000 999%   0.000 Lac                                                 
    0.000 999%   0.000 NAAG                                                
    0.000 999%   0.000 PE                                                  
 1.34E-02  20%   1.952 GPC+PCho                                            
 8.42E-02  10%  12.267 NAA+NAAG                                            
 8.63E-02  16%  12.569 Glu+Gln                                             
 5.49E-02  14%   8.000 Cr+PCr                                              
 8.42E-02  10%  12.267 NAA+NAAG                                            
 5.49E-02  14%   8.000 Cr+PCr                                              
 8.63E-02  16%  12.569 Glu+Gln                                             
   6 lines in following misc. output table
  FWHM = 0.052 ppm    S/N =   2                                            
  Data shift = 0.064 ppm                                                   
  Ph: -19 deg      -8.0 deg/ppm                                            
  alphaB,S = 2.3E+00,   2.9E+01                                            
   18 spline knots.   Ns =10(1)                                            
   4 inflections.     1 extrema                                            
  654 points on ppm-axis = NY
      4.000000     3.994181     3.988363     3.982544     3.976726     3.970907     3.965088     3.959270     3.953451     3.947633
      3.941814     3.935995     3.930177     3.924358     3.918540     3.912721     3.906902     3.901084     3.895265     3.889446
      3.883628     3.877809     3.871991     3.866172     3.860353     3.854535     3.848716     3.842898     3.837079     3.831260
      3.825442     3.819623     3.813805     3.807986     3.802167     3.796349     3.790530     3.784712     3.778893     3.773074
      3.767256     3.761437     3.755619     3.749800     3.743981     3.738163     3.732344     3.726526     3.720707     3.714888
      3.709070     3.703251     3.697433     3.691614     3.685795     3.679977     3.674158     3.668339     3.662521     3.656702
      3.650884     3.645065     3.639246     3.633428     3.627609     3.621791     3.615972     3.610153     3.604335     3.598516
      3.592698     3.586879     3.581060     3.575242     3.569423     3.563605     3.557786     3.551967     3.546149     3.540330
      3.534512     3.528693     3.522874     3.517056     3.511237     3.505419     3.499600     3.493781     3.487963     3.482144
      3.476326     3.470507     3.464688     3.458870     3.453051     3.447232     3.441414     3.435595     3.429777     3.423958
      3.418139     3.412321     3.406502     3.400684     3.394865     3.389046     3.383228     3.377409     3.371591     3.365772
      3.359953     3.354135     3.348316     3.342498     3.336679     3.330860     3.325042     3.319223     3.313405     3.307586
      3.301767     3.295949     3.290130     3.284312     3.278493     3.272674     3.266856     3.261037     3.255219     3.249400
      3.243581     3.237763     3.231944     3.226125     3.220307     3.214488     3.208670     3.202851     3.197032     3.191214
      3.185395     3.179577     3.173758     3.167939     3.162121     3.156302     3.150484     3.144665     3.138846     3.133028
      3.127209     3.121391     3.115572     3.109753     3.103935     3.098116     3.092298     3.086479     3.080660     3.074842
      3.069023     3.063205     3.057386     3.051567     3.045749     3.039930     3.034111     3.028293     3.022474     3.016656
      3.010837     3.005018     2.999200     2.993381     2.987563     2.981744     2.975925     2.970107     2.964288     2.958470
      2.952651     2.946832     2.941014     2.935195     2.929377     2.923558     2.917739     2.911921     2.906102     2.900284
      2.894465     2.888646     2.882828     2.877009     2.871191     2.865372     2.859553     2.853735     2.847916     2.842098
      2.836279     2.830460     2.824642     2.818823     2.813004     2.807186     2.801367     2.795549     2.789730     2.783911
      2.778093     2.772274     2.766456     2.760637     2.754818     2.749000     2.743181     2.737363     2.731544     2.725725
      2.719907     2.714088     2.708270     2.702451     2.696632     2.690814     2.684995     2.679177     2.673358     2.667539
      2.661721     2.655902     2.650084     2.644265     2.638446     2.632628     2.626809     2.620991     2.615172     2.609353
      2.603535     2.597716     2.591897     2.586079     2.580260     2.574442     2.568623     2.562804     2.556986     2.551167
      2.545349     2.539530     2.533711     2.527893     2.522074     2.516256     2.510437     2.504618     2.498800     2.492981
      2.487163     2.481344     2.475525     2.469707     2.463888     2.458070     2.452251     2.446432     2.440614     2.434795
      2.428977     2.423158     2.417339     2.411521     2.405702     2.399884     2.394065     2.388246     2.382428     2.376609
      2.370790     2.364972     2.359153     2.353335     2.347516     2.341697     2.335879     2.330060     2.324242     2.318423
      2.312604     2.306786     2.300967     2.295149     2.289330     2.283511     2.277693     2.271874     2.266056     2.260237
      2.254418     2.248600     2.242781     2.236963     2.231144     2.225325     2.219507     2.213688     2.207870     2.202051
      2.196232     2.190414     2.184595     2.178777     2.172958     2.167139     2.161321     2.155502     2.149683     2.143865
      2.138046     2.132228     2.126409     2.120590     2.114772     2.108953     2.103135     2.097316     2.091497     2.085679
      2.079860     2.074042     2.068223     2.062404     2.056586     2.050767     2.044949     2.039130     2.033311     2.027493
      2.021674     2.015856     2.010037     2.004218     1.998400     1.992581     1.986763     1.980944     1.975126     1.969307
      1.963489     1.957670     1.951852     1.946033     1.940215     1.934397     1.928578     1.922760     1.916941     1.911123
      1.905304     1.899486     1.893667     1.887849     1.882030     1.876212     1.870393     1.864575     1.858756     1.852938
      1.847119     1.841301     1.835482     1.829664     1.823845     1.818027     1.812208     1.806390     1.800571     1.794753
      1.788934     1.783116     1.777297     1.771479     1.765660     1.759842     1.754023     1.748205     1.742386     1.736568
      1.730749     1.724931     1.719113     1.713294     1.707476     1.701657     1.695839     1.690020     1.684202     1.678383
      1.672565     1.666746     1.660928     1.655109     1.649291     1.643472     1.637654     1.631835     1.626017     1.620198
      1.614380     1.608561     1.602743     1.596924     1.591106     1.585287     1.579469     1.573650     1.567832     1.562013
      1.556195     1.550376     1.544558     1.538739     1.532921     1.527102     1.521284     1.515465     1.509647     1.503829
      1.498010     1.492192     1.486373     1.480555     1.474736     1.468918     1.463099     1.457281     1.451462     1.445644
      1.439825     1.434007     1.428188     1.422370     1.416551     1.410733     1.404914     1.399096     1.393277     1.387459
      1.381640     1.375822     1.370003     1.364185     1.358366     1.352548     1.346729     1.340911     1.335092     1.329274
      1.323455     1.317637     1.311818     1.306000     1.300182     1.294363     1.288545     1.282726     1.276908     1.271089
      1.265271     1.259452     1.253634     1.247815     1.241997     1.236178     1.230360     1.224541     1.218723     1.212904
      1.207086     1.201267     1.195449     1.189630     1.183812     1.177993     1.172175     1.166356     1.160538     1.154719
      1.148901     1.143082     1.137264     1.131445     1.125627     1.119808     1.113990     1.108171     1.102353     1.096534
      1.090716     1.084898     1.079079     1.073261     1.067442     1.061624     1.055805     1.049987     1.044168     1.038350
      1.032531     1.026713     1.020894     1.015076     1.009257     1.003439     0.997620     0.991802     0.985983     0.980165
      0.974346     0.968528     0.962709     0.956891     0.951072     0.945254     0.939435     0.933617     0.927798     0.921980
      0.916161     0.910343     0.904524     0.898706     0.892887     0.887069     0.881251     0.875432     0.869614     0.863795
      0.857977     0.852158     0.846340     0.840521     0.834703     0.828884     0.823066     0.817247     0.811429     0.805610
      0.799792     0.793973     0.788155     0.782336     0.776518     0.770699     0.764881     0.759062     0.753244     0.747425
      0.741607     0.735788     0.729970     0.724151     0.718333     0.712514     0.706696     0.700877     0.695059     0.689240
      0.683422     0.677603     0.671785     0.665967     0.660148     0.654330     0.648511     0.642693     0.636874     0.631056
      0.625237     0.619419     0.613600     0.607782     0.601963     0.596145     0.590326     0.584508     0.578689     0.572871
      0.567052     0.561234     0.555415     0.549597     0.543778     0.537960     0.532141     0.526323     0.520504     0.514686
      0.508867     0.503049     0.497230     0.491412     0.485593     0.479775     0.473956     0.468138     0.462319     0.456501
      0.450682     0.444864     0.439045     0.433227     0.427408     0.421590     0.415771     0.409953     0.404134     0.398316
      0.392497     0.386679     0.380860     0.375042     0.369223     0.363405     0.357586     0.351767     0.345949     0.340130
      0.334312     0.328493     0.322675     0.316856     0.311038     0.305219     0.299401     0.293582     0.287764     0.281945
      0.276127     0.270308     0.264490     0.258671     0.252853     0.247034     0.241216     0.235397     0.229579     0.223760
      0.217942     0.212123     0.206305     0.200486
 NY phased data points follow
  -4.55336E-02 -3.71592E-01 -1.62309E-01  7.02064E-03 -8.36104E-02 -2.27403E-02  1.33754E-01  5.25193E-02 -8.81111E-02  2.32050E-01
   2.43518E-01  1.78428E-01  3.23659E-01  4.20249E-02  1.82425E-01  3.52286E-01  2.45204E-01  1.64998E-01  1.69842E-01 -8.95729E-02
   4.21273E-02  1.49556E-01 -1.34515E-01 -1.48869E-01 -6.44697E-02  3.65235E-02 -2.55402E-01 -1.49315E-02  1.08915E-01  1.15386E-01
  -3.07997E-01 -3.00473E-01  3.47567E-02 -2.27831E-01  8.13567E-02 -1.40954E-01 -1.78115E-01 -2.55587E-01 -3.59589E-01 -2.12380E-01
  -4.85201E-02  4.15859E-02  4.60802E-02  2.81971E-01  1.72023E-01  3.24033E-01  2.48913E-01  1.72086E-01  4.86714E-01  1.54660E-01
   2.97462E-02  2.02480E-01 -1.01274E-02 -3.34341E-02 -1.33702E-01 -6.32570E-02 -1.43179E-01 -2.34726E-01 -2.17538E-01  6.66843E-03
  -7.57282E-02 -4.35514E-01 -3.47160E-01 -4.66543E-01 -9.96411E-02 -2.89495E-01 -1.31402E-01  2.38021E-02  3.58417E-02  2.67531E-01
  -2.78877E-02  6.57136E-02  2.90132E-02 -9.09184E-03 -3.11126E-02  2.02046E-01 -1.07071E-01 -1.02795E-01 -9.38491E-02 -5.05754E-02
   1.51993E-01 -1.35612E-02  4.18907E-05 -1.05429E-01  4.24421E-01  3.25880E-01  2.19858E-02  1.91967E-01  3.21174E-01  1.60159E-01
   5.54672E-01  4.66092E-01  1.44082E-01  3.03091E-01 -9.59250E-02  1.73260E-01  3.38848E-03 -2.01987E-01  2.95054E-02  5.38461E-02
   7.71710E-02  3.28202E-01  4.19356E-02 -6.98902E-02  1.13179E-01 -1.34215E-01  2.27858E-01  4.38431E-01  3.90637E-01  4.93409E-01
   3.65259E-01  2.17272E-01  4.17448E-01  1.80211E-01  3.98448E-01  3.50918E-01  1.79527E-01  2.20901E-01  2.46446E-01  4.49266E-01
   9.87066E-02  3.65316E-01  1.44018E-01  2.04378E-02 -1.11517E-01 -2.08964E-01 -9.96353E-02 -1.04842E-01 -1.25803E-01 -2.91480E-01
  -4.43760E-02 -5.17716E-01 -7.21785E-01 -3.32418E-01 -4.16184E-01 -7.52190E-01 -4.08255E-01 -2.50693E-01 -3.16256E-01 -4.07941E-01
  -3.69631E-01 -2.98087E-01 -1.35919E-01 -7.31553E-03 -2.70988E-01  1.41447E-02 -2.17695E-01  1.44976E-01  1.55506E-01  8.10532E-02
   4.46122E-01  1.99995E-01  1.79944E-01  1.61610E-01  1.84007E-01  3.38816E-01  2.30508E-01  1.78532E-01  6.36432E-01  2.53944E-01
   3.88667E-01  1.97829E-01  2.61529E-01  4.71294E-01  1.87986E-01  3.75336E-01  1.14509E-03  4.73718E-01  3.95803E-01  6.77819E-02
  -2.68570E-01 -3.76614E-01 -4.33596E-01 -4.56585E-01 -4.07676E-01 -7.17995E-01 -3.02268E-01 -5.42075E-01 -6.51491E-01 -2.03066E-01
  -4.20705E-02 -3.33427E-01  9.34626E-03 -2.08195E-02 -2.54670E-01 -2.11461E-01 -4.38074E-01 -4.22121E-01 -4.01756E-01 -5.17146E-03
  -2.95325E-01 -2.60671E-01 -2.50126E-01  5.28541E-02  8.72853E-02 -4.43416E-01 -1.61474E-01 -2.76058E-01 -3.81785E-04 -1.82678E-01
  -3.36121E-01  2.52632E-02 -1.36117E-01 -2.86621E-01 -1.46353E-01  2.93892E-01 -2.61525E-02 -2.95584E-01 -1.60884E-01 -4.44662E-01
  -4.59326E-02 -7.89717E-03 -1.19496E-01  7.62197E-02  7.29012E-02 -5.72588E-02 -3.04546E-01  1.30896E-01 -1.55000E-01  9.94098E-02
   1.71883E-01 -1.41553E-01  1.22065E-03 -1.96491E-01  1.22142E-01 -3.13868E-02  2.27946E-01  2.69435E-01  2.77511E-01  2.64011E-01
   1.00937E-01  2.35686E-03  3.31607E-02  2.74140E-01 -2.83333E-02  2.45696E-01 -2.67372E-01 -2.35213E-01  1.29049E-01  8.17937E-02
  -1.11847E-03 -2.38896E-01 -2.95087E-02 -2.81559E-01 -2.26682E-01 -4.21847E-02  1.61814E-01 -1.00366E-01  9.88357E-03  2.35707E-01
  -5.13351E-02 -2.94466E-01 -6.98236E-02  2.24992E-01 -4.09321E-01 -4.79762E-02  2.22188E-01 -2.16388E-02 -1.23239E-02 -2.30443E-01
  -4.96074E-02  4.09758E-01 -5.11511E-02 -3.13691E-01  1.22007E-01  1.09068E-01  1.83711E-01 -1.24236E-01 -9.22890E-02  1.94337E-01
   3.42419E-01  7.91235E-02 -1.82117E-01  1.99668E-01  2.37540E-01 -1.09137E-01 -1.39193E-01 -8.35222E-02 -2.43543E-01  2.03380E-01
  -8.46423E-02  5.78400E-03  6.66397E-02 -2.82712E-01  1.84447E-01 -1.87456E-01  1.69884E-01  5.16930E-01  2.28064E-01  1.83361E-01
   1.04861E-03  3.87185E-01  5.80752E-01  3.42106E-01  6.72483E-02  3.02517E-02  3.72797E-01  2.10390E-01 -1.65347E-01 -6.61308E-02
  -2.26420E-01  2.63916E-02  4.37906E-01  2.35273E-01  4.45512E-01  2.06757E-01  4.09727E-01  6.42656E-01  1.29964E-01  2.75917E-01
   4.15732E-01  4.89998E-01  5.95656E-02  3.19026E-01  3.54636E-01  1.60984E-02  2.90248E-01  1.81193E-01  1.83748E-01 -7.31653E-02
   1.00704E-01 -3.99766E-01 -5.44994E-01 -1.38658E-02 -1.58964E-01 -4.61969E-01 -4.81645E-01  4.06937E-02  2.23693E-02  1.39782E-01
  -1.04175E-01 -9.06235E-02  1.51878E-01 -8.84591E-02  1.71048E-01  8.72588E-02 -3.13809E-01 -4.06387E-01 -5.97925E-01 -4.44126E-01
  -3.61122E-01 -8.06361E-01 -6.96979E-01 -6.62728E-01 -9.99159E-01 -1.06079E+00 -6.60927E-01 -5.25230E-01 -3.53977E-01 -2.19871E-01
  -2.19980E-01 -7.22509E-02  1.29247E-01  3.45842E-01  3.34939E-01  2.88687E-01  2.31812E-03  2.77921E-01  1.76672E-01 -9.11510E-02
   8.63190E-02  2.26290E-01 -8.96021E-02 -5.12516E-02 -6.22145E-02 -3.60263E-01  1.53998E-01 -2.09031E-01 -6.61650E-02  1.85327E-01
   1.41809E-01 -2.40498E-02  1.70165E-02  2.34071E-01  1.62663E-01  2.61963E-01  1.29758E-01  3.87246E-01  1.65248E-01  2.46395E-01
   1.53931E-01  1.78027E-01  3.89291E-02 -4.99534E-02  1.24705E-01 -1.30181E-01  1.40830E-01  1.51688E-01  3.12963E-01  2.33038E-01
   2.06346E-01 -2.86154E-02 -2.44942E-02  2.95346E-01  3.22059E-01  1.63577E-01  3.57122E-01  4.64559E-01  7.44867E-02  3.57550E-01
   1.92426E-01  3.09678E-01  1.77892E-01  1.77372E-01  2.77903E-01 -2.69864E-01 -3.63873E-02 -9.77635E-02 -3.96515E-01 -1.59938E-02
  -6.17981E-02 -2.23680E-01  8.87609E-02  8.63235E-02  1.11815E-02 -4.79749E-01  6.24564E-02  1.99394E-01 -3.75136E-01 -8.58274E-02
  -3.05902E-01 -2.42543E-01 -3.62151E-01 -4.24570E-02 -2.72337E-04 -2.10393E-01 -5.00365E-02 -3.65060E-01 -6.32135E-02 -1.25236E-01
  -8.52179E-02 -2.32019E-01 -1.46311E-01  3.17918E-01 -1.09853E-01 -1.17757E-02 -1.94602E-01 -1.26569E-01  3.64335E-02 -2.16864E-01
   1.10889E-01  1.76159E-01  1.31172E-01  2.20412E-01  8.50790E-02 -1.70361E-01 -2.44033E-01  7.63882E-03  4.01558E-01 -2.45778E-02
   8.48728E-02  1.59766E-01 -2.79902E-01 -1.49643E-01 -1.90565E-01 -1.26893E-02 -1.23345E-02  1.11106E-01 -2.01469E-01 -2.77386E-01
  -2.27400E-01 -2.83610E-01  8.41583E-02 -5.58530E-02 -3.38708E-01 -2.29632E-01  1.64298E-01 -5.29135E-02  1.33433E-01 -3.49503E-01
  -9.54667E-02  3.31563E-01 -3.14719E-01  2.17007E-01 -8.80351E-02 -1.24131E-02  1.28164E-01 -2.04912E-01  4.46791E-02  3.77185E-02
  -4.47933E-02 -2.24715E-01  1.32457E-01  2.46661E-01  1.45227E-01  3.14186E-01 -1.38523E-01 -3.06566E-01 -9.88062E-02  6.40923E-02
   1.93045E-01  5.89869E-03  1.19733E-01  4.12740E-02 -5.97953E-02  1.59564E-01  2.11466E-01  2.92171E-02 -9.62790E-02  2.13906E-01
   9.80848E-02 -2.99510E-02  8.86572E-02 -3.33024E-03  1.59279E-01  1.66492E-01 -4.12697E-02 -2.05461E-01  1.47924E-01  4.41480E-01
   3.45234E-02  5.52540E-02  2.10488E-01  6.24070E-02  1.16962E-01  1.78472E-01 -1.00799E-01  5.09859E-02  5.23902E-02  6.42744E-02
   2.01101E-01 -1.79417E-01 -1.02395E-01 -3.78226E-01 -3.11748E-01 -1.33736E-01 -2.66293E-01 -3.92459E-01 -5.36505E-01 -4.09402E-01
  -4.91570E-01 -4.25566E-01 -6.28864E-01 -5.86687E-01 -1.54447E-01 -2.82475E-02 -3.77580E-01 -2.01352E-01  2.64145E-02 -1.29877E-01
  -3.09402E-01 -3.34398E-01 -8.18543E-02 -3.46922E-01 -1.45863E-01 -7.85977E-02 -1.12917E-01  1.45231E-03 -7.75077E-02 -7.18632E-02
   2.49634E-01  2.01742E-01  1.88835E-01  6.20954E-01  8.46241E-02 -1.65275E-01 -1.55973E-01  3.74582E-04  2.28945E-01  1.71773E-01
   3.39945E-01  3.28441E-01  1.33446E-01  1.60597E-01  1.62227E-01  2.32749E-01 -1.00376E-01  7.03229E-02  3.46213E-01 -2.71277E-01
   5.06295E-01  3.02310E-01 -1.74096E-01  7.98992E-02 -4.81208E-02 -5.82298E-02  1.27892E-01  1.45421E-01 -1.83473E-01  1.00024E-01
  -3.45627E-01  2.07161E-01  5.56568E-01  2.07457E-01 -3.00598E-02  4.49118E-02  4.51697E-01  3.86064E-02  2.78067E-02 -2.01188E-01
   1.43500E-01  3.65589E-02 -1.81976E-01 -6.95677E-02  1.16496E-01  6.92153E-02  3.34851E-03  4.38154E-01  3.12713E-01  4.49627E-03
  -4.35046E-01  5.23794E-02 -2.36427E-01 -1.79741E-01  5.97217E-02 -6.31722E-02 -9.46894E-02 -5.02420E-01  2.59453E-01  2.14195E-01
  -2.17233E-02  3.34175E-02 -3.22824E-02 -3.40195E-01 -2.62832E-02  2.93055E-01 -4.66121E-02  6.18757E-02 -1.11371E-01  1.72992E-01
   5.93728E-02  2.25192E-01  2.67103E-01 -2.03538E-01 -4.25116E-02 -1.09567E-01 -3.55534E-02 -8.87791E-02  2.45878E-02  1.59988E-01
   4.02123E-03  1.16055E-01  2.51831E-02 -2.60120E-01 -8.68889E-02  2.86060E-01  1.47536E-01  2.83181E-02 -8.15192E-02 -2.30281E-01
  -1.22659E-02 -7.91346E-02  1.14715E-02  9.86499E-02 -6.37244E-02  1.30567E-01  7.86320E-02 -8.60703E-02  3.92838E-02  1.45054E-01
   1.20016E-01  1.52351E-01 -2.09217E-02  2.96771E-02
 NY points of the fit to the data follow
   4.19963E-02  4.59014E-02  5.38299E-02  5.05408E-02  5.53172E-02  7.14673E-02  1.02452E-01  1.40875E-01  1.73850E-01  1.97804E-01
   2.18927E-01  2.41695E-01  2.62968E-01  2.93005E-01  3.29696E-01  3.42652E-01  3.17123E-01  2.71950E-01  2.20064E-01  1.66226E-01
   1.13049E-01  5.62268E-02  4.61679E-03 -1.94572E-02 -2.67654E-02 -4.54283E-02 -5.79408E-02 -6.77539E-02 -8.01321E-02 -9.38970E-02
  -1.11665E-01 -1.31733E-01 -1.48555E-01 -1.61701E-01 -1.64271E-01 -1.60276E-01 -1.46812E-01 -1.27589E-01 -1.01274E-01 -6.98136E-02
  -3.53091E-02  8.50066E-03  5.97301E-02  1.11338E-01  1.55737E-01  1.90663E-01  2.12417E-01  2.18434E-01  2.05974E-01  1.75429E-01
   1.35812E-01  9.56374E-02  5.47149E-02  9.32343E-03 -3.84803E-02 -8.32356E-02 -1.16069E-01 -1.64652E-01 -2.02163E-01 -2.35703E-01
  -2.64625E-01 -2.75251E-01 -2.65914E-01 -2.39989E-01 -2.06664E-01 -1.52357E-01 -8.98220E-02 -4.10767E-02  2.07527E-02  1.01726E-01
   1.67461E-01  2.08160E-01  2.17964E-01  1.89486E-01  1.31396E-01  7.07667E-02 -1.75540E-03 -7.09451E-02 -9.44635E-02 -1.21146E-01
  -1.38467E-01 -1.37674E-01 -1.31425E-01 -8.57296E-02 -5.33062E-03  7.96614E-02  1.66524E-01  2.53682E-01  3.20617E-01  3.61361E-01
   3.61581E-01  3.14433E-01  2.49889E-01  1.96327E-01  1.30729E-01  7.37026E-02  4.57138E-02  2.58188E-02  7.64703E-03 -1.02289E-02
  -2.26568E-02 -2.01700E-02  5.57039E-03  5.27073E-02  1.11806E-01  1.70909E-01  2.19300E-01  2.55388E-01  2.77756E-01  2.88597E-01
   2.85888E-01  2.78868E-01  2.69913E-01  2.68293E-01  2.67340E-01  2.63642E-01  2.63141E-01  2.50901E-01  2.38543E-01  2.17801E-01
   1.93761E-01  1.51383E-01  1.00560E-01  3.74370E-02 -4.02135E-02 -1.11692E-01 -1.57431E-01 -1.87166E-01 -2.33724E-01 -2.87496E-01
  -3.61511E-01 -4.41454E-01 -4.87923E-01 -4.87100E-01 -4.58723E-01 -4.16244E-01 -3.75759E-01 -3.78540E-01 -3.99315E-01 -4.14976E-01
  -3.76200E-01 -3.13626E-01 -2.32177E-01 -1.66320E-01 -1.03339E-01 -3.05678E-02  4.55585E-02  8.40967E-02  8.51751E-02  9.96439E-02
   1.15756E-01  1.31628E-01  1.47173E-01  1.62763E-01  1.78429E-01  1.94384E-01  2.10446E-01  2.30026E-01  2.98897E-01  3.67517E-01
   4.24230E-01  4.41209E-01  4.06109E-01  3.43919E-01  2.86396E-01  2.52270E-01  2.10020E-01  1.63144E-01  1.02670E-01 -2.88100E-02
  -2.22764E-01 -3.75430E-01 -4.45735E-01 -4.63459E-01 -4.55137E-01 -4.48212E-01 -4.21607E-01 -3.47815E-01 -2.54100E-01 -2.50190E-01
  -2.41584E-01 -2.32059E-01 -2.19689E-01 -2.08304E-01 -1.96628E-01 -1.87732E-01 -1.80448E-01 -1.72967E-01 -1.64592E-01 -1.56164E-01
  -1.49163E-01 -1.42184E-01 -1.34740E-01 -1.26714E-01 -1.18925E-01 -1.10660E-01 -1.03267E-01 -9.64665E-02 -9.02939E-02 -8.41706E-02
  -7.86706E-02 -7.36145E-02 -6.92072E-02 -6.55674E-02 -6.26797E-02 -6.05847E-02 -5.89887E-02 -5.76973E-02 -5.61128E-02 -5.43385E-02
  -5.32061E-02 -5.29623E-02 -5.29957E-02 -5.23177E-02 -5.16586E-02 -5.45448E-02 -5.60357E-02 -5.04491E-02 -3.66380E-02 -1.79664E-02
  -1.96097E-03  1.05112E-02  2.66389E-02  5.13396E-02  8.54070E-02  1.21164E-01  1.55044E-01  1.82819E-01  1.94565E-01  1.88707E-01
   1.76158E-01  1.70265E-01  1.68654E-01  1.51082E-01  1.08183E-01  5.69949E-02  2.12441E-02 -4.32252E-03 -3.05330E-02 -5.90150E-02
  -8.07895E-02 -8.68711E-02 -8.54558E-02 -8.91378E-02 -9.29517E-02 -9.72017E-02 -1.02050E-01 -1.13862E-01 -1.22887E-01 -1.29540E-01
  -1.35235E-01 -1.35383E-01 -1.33066E-01 -1.27000E-01 -1.20826E-01 -1.09379E-01 -9.45605E-02 -8.01656E-02 -5.13295E-02 -1.60460E-02
   1.19985E-02  3.70019E-02  6.63544E-02  9.31497E-02  1.08991E-01  1.16213E-01  1.17366E-01  1.13744E-01  1.16223E-01  1.06007E-01
   9.03681E-02  8.31394E-02  7.02788E-02  4.61818E-02  8.36652E-03 -3.25804E-02 -7.22630E-02 -1.12161E-01 -1.37786E-01 -1.51414E-01
  -1.50745E-01 -1.39142E-01 -1.23524E-01 -1.00030E-01 -6.74077E-02 -2.33511E-02  3.34380E-02  9.73942E-02  1.56823E-01  2.07196E-01
   2.41267E-01  2.54830E-01  2.50151E-01  2.37068E-01  2.16070E-01  1.95246E-01  1.82433E-01  1.72338E-01  1.71982E-01  1.75767E-01
   1.78332E-01  1.80272E-01  1.80044E-01  1.78155E-01  1.74892E-01  1.68892E-01  1.62672E-01  1.55246E-01  1.45262E-01  1.34018E-01
   1.17933E-01  9.90518E-02  7.39959E-02  4.49854E-02  1.05920E-02 -2.84145E-02 -6.98292E-02 -1.12540E-01 -1.51590E-01 -1.84704E-01
  -2.07464E-01 -2.20267E-01 -2.23630E-01 -2.18207E-01 -2.06186E-01 -1.85347E-01 -1.60147E-01 -1.27769E-01 -9.54569E-02 -6.34543E-02
  -3.94737E-02 -2.11820E-02  1.58551E-02  2.99175E-02 -1.17369E-02 -1.08167E-01 -2.49148E-01 -3.87551E-01 -4.80974E-01 -5.24458E-01
  -5.59301E-01 -6.00825E-01 -6.51664E-01 -7.49311E-01 -8.64827E-01 -8.80289E-01 -7.72438E-01 -6.06745E-01 -4.50339E-01 -3.23287E-01
  -2.09842E-01 -8.10970E-02  2.48048E-02  2.17735E-02 -1.89758E-03 -8.71892E-04  1.61072E-03  3.14004E-03  3.17864E-03  2.16980E-03
   7.44565E-04 -1.38069E-03 -3.79093E-03 -6.28427E-03 -8.40075E-03 -9.87634E-03 -9.47410E-03 -6.93511E-03 -2.35790E-03  3.73889E-03
   1.06492E-02  1.80105E-02  2.49259E-02  3.20336E-02  3.72395E-02  4.26573E-02  4.63715E-02  5.02566E-02  5.37723E-02  5.70765E-02
   6.02366E-02  6.30379E-02  6.55131E-02  6.80858E-02  7.10065E-02  7.39565E-02  7.67662E-02  7.92889E-02  8.12254E-02  8.29657E-02
   8.45879E-02  8.61693E-02  8.74059E-02  8.82897E-02  8.84472E-02  8.77727E-02  8.61590E-02  8.35626E-02  8.02444E-02  7.63383E-02
   7.20568E-02  6.71903E-02  6.19072E-02  5.62576E-02  5.05013E-02  4.45249E-02  3.84553E-02  3.26146E-02  2.72020E-02  2.20681E-02
   1.71480E-02  1.24754E-02  8.21833E-03  4.37713E-03  9.61860E-04 -2.36036E-03 -5.40682E-03 -8.04692E-03 -1.02832E-02 -1.22397E-02
  -1.37724E-02 -1.46434E-02 -1.48929E-02 -1.44854E-02 -1.36041E-02 -1.22432E-02 -1.04833E-02 -8.28918E-03 -5.49311E-03 -2.00759E-03
   1.95393E-03  6.32719E-03  1.07895E-02  1.50468E-02  1.95416E-02  2.47185E-02  3.06258E-02  3.74123E-02  4.48293E-02  5.27200E-02
   6.12549E-02  7.05862E-02  8.04039E-02  9.01870E-02  9.97849E-02  1.09022E-01  1.17852E-01  1.26172E-01  1.33843E-01  1.40342E-01
   1.45218E-01  1.48256E-01  1.49436E-01  1.48824E-01  1.46833E-01  1.43562E-01  1.38859E-01  1.33104E-01  1.26253E-01  1.18353E-01
   1.09735E-01  1.00744E-01  9.17582E-02  8.28789E-02  7.43016E-02  6.59086E-02  5.79830E-02  5.07935E-02  4.44640E-02  3.87021E-02
   3.37105E-02  2.95346E-02  2.62627E-02  2.38616E-02  2.24011E-02  2.16980E-02  2.19988E-02  2.36411E-02  2.60174E-02  2.88324E-02
   3.19836E-02  3.55507E-02  3.93733E-02  4.34540E-02  4.75736E-02  5.12928E-02  5.46564E-02  5.74784E-02  5.95617E-02  6.10840E-02
   6.20986E-02  6.27215E-02  6.28853E-02  6.25211E-02  6.15619E-02  5.99490E-02  5.79708E-02  5.56476E-02  5.27243E-02  4.93301E-02
   4.59404E-02  4.27136E-02  3.94636E-02  3.62078E-02  3.30122E-02  2.97929E-02  2.67382E-02  2.34094E-02  1.97584E-02  1.60071E-02
   1.23655E-02  8.69279E-03  4.66111E-03 -4.48195E-05 -5.55582E-03 -1.20654E-02 -1.97161E-02 -2.85944E-02 -3.85321E-02 -4.92353E-02
  -6.07370E-02 -7.32921E-02 -8.69222E-02 -1.01181E-01 -1.15506E-01 -1.29465E-01 -1.42764E-01 -1.55100E-01 -1.66073E-01 -1.75184E-01
  -1.82293E-01 -1.87535E-01 -1.90938E-01 -1.92456E-01 -1.91881E-01 -1.89931E-01 -1.86668E-01 -1.82041E-01 -1.76078E-01 -1.69251E-01
  -1.62014E-01 -1.54604E-01 -1.46988E-01 -1.38845E-01 -1.30321E-01 -1.21615E-01 -1.12595E-01 -1.03283E-01 -9.39149E-02 -8.45136E-02
  -7.52869E-02 -6.63982E-02 -5.79682E-02 -4.99908E-02 -4.23782E-02 -3.53326E-02 -2.88766E-02 -2.30092E-02 -1.75873E-02 -1.23992E-02
  -7.82348E-03 -4.07867E-03 -8.99003E-04  2.10701E-03  4.78640E-03  7.10536E-03  9.06348E-03  1.08067E-02  1.26513E-02  1.45184E-02
   1.58036E-02  1.68865E-02  1.82502E-02  1.95782E-02  2.08986E-02  2.21423E-02  2.31766E-02  2.39770E-02  2.44991E-02  2.48124E-02
   2.49483E-02  2.51319E-02  2.53838E-02  2.53542E-02  2.50923E-02  2.48242E-02  2.46294E-02  2.44077E-02  2.43735E-02  2.44470E-02
   2.44084E-02  2.41877E-02  2.34767E-02  2.24420E-02  2.17805E-02  2.16481E-02  2.15092E-02  2.12711E-02  2.11608E-02  2.13362E-02
   2.16285E-02  2.17720E-02  2.19212E-02  2.26218E-02  2.35454E-02  2.43144E-02  2.48705E-02  2.53710E-02  2.61277E-02  2.67186E-02
   2.71293E-02  2.75481E-02  2.80267E-02  2.83551E-02  2.83606E-02  2.83335E-02  2.86952E-02  2.95358E-02  3.06216E-02  3.16363E-02
   3.24111E-02  3.32608E-02  3.40990E-02  3.50463E-02  3.60145E-02  3.70314E-02  3.76837E-02  3.79826E-02  3.80249E-02  3.79591E-02
   3.80285E-02  3.82207E-02  3.83035E-02  3.83621E-02  3.85510E-02  3.88509E-02  3.93883E-02  3.99050E-02  4.02869E-02  4.05059E-02
   4.10102E-02  4.21390E-02  4.34721E-02  4.47911E-02  4.62171E-02  4.75928E-02  4.92281E-02  5.10690E-02  5.28513E-02  5.49757E-02
   5.77513E-02  6.07139E-02  6.33387E-02  6.58179E-02
 NY background values follow
     7.505E-02    7.487E-02    7.470E-02    7.452E-02    7.435E-02    7.417E-02    7.400E-02    7.382E-02    7.364E-02    7.347E-02
     7.329E-02    7.312E-02    7.294E-02    7.277E-02    7.259E-02    7.242E-02    7.224E-02    7.207E-02    7.189E-02    7.172E-02
     7.154E-02    7.136E-02    7.119E-02    7.101E-02    7.084E-02    7.066E-02    7.049E-02    7.031E-02    7.014E-02    6.996E-02
     6.979E-02    6.961E-02    6.943E-02    6.926E-02    6.908E-02    6.891E-02    6.873E-02    6.856E-02    6.838E-02    6.820E-02
     6.803E-02    6.785E-02    6.768E-02    6.750E-02    6.732E-02    6.715E-02    6.697E-02    6.680E-02    6.662E-02    6.644E-02
     6.627E-02    6.609E-02    6.592E-02    6.574E-02    6.556E-02    6.539E-02    6.521E-02    6.504E-02    6.486E-02    6.468E-02
     6.451E-02    6.433E-02    6.415E-02    6.398E-02    6.380E-02    6.362E-02    6.345E-02    6.327E-02    6.309E-02    6.292E-02
