 LCModel (Version 6.3-1N) Copyright: S.W. Provencher.          Ref.: Magn. Reson. Med. 30:672-679 (1993).                
 Slice_N1@21_23  02-Jun-2023 14:37:24
 27 lines in following concentration table = NCONC+1
    Conc.  %SD /Cr+PCr  Metabolite                                         
 1.89E-06  19% 2.6E-04 Mac                                                 
 5.82E-02  12%   8.000 Cr                                                  
    0.000 999%   0.000 PCr                                                 
 6.24E-02  14%   8.574 Ins                                                 
    0.106   7%  14.570 NAA                                                 
 4.49E-02  18%   6.166 Tau                                                 
 8.67E-03  81%   1.192 PCho                                                
 2.76E-03 272%   0.379 GPC                                                 
 8.66E-02  12%  11.907 Glu                                                 
 1.35E-02  49%   1.849 Gln                                                 
    0.000 999%   0.000 Ala                                                 
 1.30E-02 110%   1.792 Asc                                                 
 1.21E-02  63%   1.670 Asp                                                 
 7.24E-03  59%   0.995 GABA                                                
 1.18E-02  43%   1.628 Glc                                                 
    0.000 999%   0.000 GSH                                                 
    0.000 999%   0.000 Lac                                                 
 1.20E-03 476%   0.165 NAAG                                                
    0.000 999%   0.000 PE                                                  
 1.14E-02  24%   1.571 GPC+PCho                                            
    0.107   8%  14.734 NAA+NAAG                                            
    0.100  12%  13.756 Glu+Gln                                             
 5.82E-02  12%   8.000 Cr+PCr                                              
    0.107   8%  14.734 NAA+NAAG                                            
 5.82E-02  12%   8.000 Cr+PCr                                              
    0.100  12%  13.756 Glu+Gln                                             
   6 lines in following misc. output table
  FWHM = 0.035 ppm    S/N =   4                                            
  Data shift = 0.029 ppm                                                   
  Ph:  37 deg      -6.3 deg/ppm                                            
  alphaB,S = 3.1E+01,   5.5E-01                                            
   18 spline knots.   Ns = 5(1)                                            
   2 inflections.     1 extrema                                            
  654 points on ppm-axis = NY
      4.000000     3.994181     3.988363     3.982544     3.976726     3.970907     3.965088     3.959270     3.953451     3.947633
      3.941814     3.935995     3.930177     3.924358     3.918540     3.912721     3.906902     3.901084     3.895265     3.889446
      3.883628     3.877809     3.871991     3.866172     3.860353     3.854535     3.848716     3.842898     3.837079     3.831260
      3.825442     3.819623     3.813805     3.807986     3.802167     3.796349     3.790530     3.784712     3.778893     3.773074
      3.767256     3.761437     3.755619     3.749800     3.743981     3.738163     3.732344     3.726526     3.720707     3.714888
      3.709070     3.703251     3.697433     3.691614     3.685795     3.679977     3.674158     3.668339     3.662521     3.656702
      3.650884     3.645065     3.639246     3.633428     3.627609     3.621791     3.615972     3.610153     3.604335     3.598516
      3.592698     3.586879     3.581060     3.575242     3.569423     3.563605     3.557786     3.551967     3.546149     3.540330
      3.534512     3.528693     3.522874     3.517056     3.511237     3.505419     3.499600     3.493781     3.487963     3.482144
      3.476326     3.470507     3.464688     3.458870     3.453051     3.447232     3.441414     3.435595     3.429777     3.423958
      3.418139     3.412321     3.406502     3.400684     3.394865     3.389046     3.383228     3.377409     3.371591     3.365772
      3.359953     3.354135     3.348316     3.342498     3.336679     3.330860     3.325042     3.319223     3.313405     3.307586
      3.301767     3.295949     3.290130     3.284312     3.278493     3.272674     3.266856     3.261037     3.255219     3.249400
      3.243581     3.237763     3.231944     3.226125     3.220307     3.214488     3.208670     3.202851     3.197032     3.191214
      3.185395     3.179577     3.173758     3.167939     3.162121     3.156302     3.150484     3.144665     3.138846     3.133028
      3.127209     3.121391     3.115572     3.109753     3.103935     3.098116     3.092298     3.086479     3.080660     3.074842
      3.069023     3.063205     3.057386     3.051567     3.045749     3.039930     3.034111     3.028293     3.022474     3.016656
      3.010837     3.005018     2.999200     2.993381     2.987563     2.981744     2.975925     2.970107     2.964288     2.958470
      2.952651     2.946832     2.941014     2.935195     2.929377     2.923558     2.917739     2.911921     2.906102     2.900284
      2.894465     2.888646     2.882828     2.877009     2.871191     2.865372     2.859553     2.853735     2.847916     2.842098
      2.836279     2.830460     2.824642     2.818823     2.813004     2.807186     2.801367     2.795549     2.789730     2.783911
      2.778093     2.772274     2.766456     2.760637     2.754818     2.749000     2.743181     2.737363     2.731544     2.725725
      2.719907     2.714088     2.708270     2.702451     2.696632     2.690814     2.684995     2.679177     2.673358     2.667539
      2.661721     2.655902     2.650084     2.644265     2.638446     2.632628     2.626809     2.620991     2.615172     2.609353
      2.603535     2.597716     2.591897     2.586079     2.580260     2.574442     2.568623     2.562804     2.556986     2.551167
      2.545349     2.539530     2.533711     2.527893     2.522074     2.516256     2.510437     2.504618     2.498800     2.492981
      2.487163     2.481344     2.475525     2.469707     2.463888     2.458070     2.452251     2.446432     2.440614     2.434795
      2.428977     2.423158     2.417339     2.411521     2.405702     2.399884     2.394065     2.388246     2.382428     2.376609
      2.370790     2.364972     2.359153     2.353335     2.347516     2.341697     2.335879     2.330060     2.324242     2.318423
      2.312604     2.306786     2.300967     2.295149     2.289330     2.283511     2.277693     2.271874     2.266056     2.260237
      2.254418     2.248600     2.242781     2.236963     2.231144     2.225325     2.219507     2.213688     2.207870     2.202051
      2.196232     2.190414     2.184595     2.178777     2.172958     2.167139     2.161321     2.155502     2.149683     2.143865
      2.138046     2.132228     2.126409     2.120590     2.114772     2.108953     2.103135     2.097316     2.091497     2.085679
      2.079860     2.074042     2.068223     2.062404     2.056586     2.050767     2.044949     2.039130     2.033311     2.027493
      2.021674     2.015856     2.010037     2.004218     1.998400     1.992581     1.986763     1.980944     1.975126     1.969307
      1.963489     1.957670     1.951852     1.946033     1.940215     1.934397     1.928578     1.922760     1.916941     1.911123
      1.905304     1.899486     1.893667     1.887849     1.882030     1.876212     1.870393     1.864575     1.858756     1.852938
      1.847119     1.841301     1.835482     1.829664     1.823845     1.818027     1.812208     1.806390     1.800571     1.794753
      1.788934     1.783116     1.777297     1.771479     1.765660     1.759842     1.754023     1.748205     1.742386     1.736568
      1.730749     1.724931     1.719113     1.713294     1.707476     1.701657     1.695839     1.690020     1.684202     1.678383
      1.672565     1.666746     1.660928     1.655109     1.649291     1.643472     1.637654     1.631835     1.626017     1.620198
      1.614380     1.608561     1.602743     1.596924     1.591106     1.585287     1.579469     1.573650     1.567832     1.562013
      1.556195     1.550376     1.544558     1.538739     1.532921     1.527102     1.521284     1.515465     1.509647     1.503829
      1.498010     1.492192     1.486373     1.480555     1.474736     1.468918     1.463099     1.457281     1.451462     1.445644
      1.439825     1.434007     1.428188     1.422370     1.416551     1.410733     1.404914     1.399096     1.393277     1.387459
      1.381640     1.375822     1.370003     1.364185     1.358366     1.352548     1.346729     1.340911     1.335092     1.329274
      1.323455     1.317637     1.311818     1.306000     1.300182     1.294363     1.288545     1.282726     1.276908     1.271089
      1.265271     1.259452     1.253634     1.247815     1.241997     1.236178     1.230360     1.224541     1.218723     1.212904
      1.207086     1.201267     1.195449     1.189630     1.183812     1.177993     1.172175     1.166356     1.160538     1.154719
      1.148901     1.143082     1.137264     1.131445     1.125627     1.119808     1.113990     1.108171     1.102353     1.096534
      1.090716     1.084898     1.079079     1.073261     1.067442     1.061624     1.055805     1.049987     1.044168     1.038350
      1.032531     1.026713     1.020894     1.015076     1.009257     1.003439     0.997620     0.991802     0.985983     0.980165
      0.974346     0.968528     0.962709     0.956891     0.951072     0.945254     0.939435     0.933617     0.927798     0.921980
      0.916161     0.910343     0.904524     0.898706     0.892887     0.887069     0.881251     0.875432     0.869614     0.863795
      0.857977     0.852158     0.846340     0.840521     0.834703     0.828884     0.823066     0.817247     0.811429     0.805610
      0.799792     0.793973     0.788155     0.782336     0.776518     0.770699     0.764881     0.759062     0.753244     0.747425
      0.741607     0.735788     0.729970     0.724151     0.718333     0.712514     0.706696     0.700877     0.695059     0.689240
      0.683422     0.677603     0.671785     0.665967     0.660148     0.654330     0.648511     0.642693     0.636874     0.631056
      0.625237     0.619419     0.613600     0.607782     0.601963     0.596145     0.590326     0.584508     0.578689     0.572871
      0.567052     0.561234     0.555415     0.549597     0.543778     0.537960     0.532141     0.526323     0.520504     0.514686
      0.508867     0.503049     0.497230     0.491412     0.485593     0.479775     0.473956     0.468138     0.462319     0.456501
      0.450682     0.444864     0.439045     0.433227     0.427408     0.421590     0.415771     0.409953     0.404134     0.398316
      0.392497     0.386679     0.380860     0.375042     0.369223     0.363405     0.357586     0.351767     0.345949     0.340130
      0.334312     0.328493     0.322675     0.316856     0.311038     0.305219     0.299401     0.293582     0.287764     0.281945
      0.276127     0.270308     0.264490     0.258671     0.252853     0.247034     0.241216     0.235397     0.229579     0.223760
      0.217942     0.212123     0.206305     0.200486
 NY phased data points follow
  -2.48020E-01  1.66645E-01 -9.04505E-02 -2.57258E-01 -2.93050E-02 -4.17867E-02 -3.15630E-01 -3.63073E-01 -2.10202E-01 -2.99868E-01
   2.43645E-02 -1.09862E-01  6.66028E-02  2.13833E-01  4.48863E-02  2.85172E-01  2.40433E-01  3.96890E-01  1.82169E-01  1.48369E-01
   2.70931E-01 -2.29770E-02 -1.61352E-02  1.49975E-01  1.89551E-01  1.18844E-01  2.79766E-01  1.02507E-01 -3.08186E-01  4.55926E-02
   9.29259E-03  1.81638E-01  2.70479E-01 -8.92512E-02 -1.36519E-01 -2.56246E-01 -1.52172E-01 -5.35433E-01 -3.32250E-01 -5.94397E-01
  -4.35185E-01  2.11527E-01 -4.79031E-02  1.47173E-01  8.85874E-02  1.67297E-01  2.20499E-01  2.12920E-01  7.35750E-02  2.41100E-01
   1.13009E-01 -1.43678E-01 -2.63953E-01 -5.54947E-03  2.62886E-01 -1.17256E-01 -6.22305E-03 -3.35845E-01 -8.31830E-02 -1.60791E-01
  -3.24982E-01 -3.92956E-02  6.20561E-02 -1.22078E-01 -3.27689E-01  3.14068E-01  2.19487E-01  2.31009E-01  5.29926E-01  4.06477E-01
   2.13371E-01  4.43185E-01  4.00225E-01  1.49941E-01  1.99490E-01 -6.34961E-02 -6.86107E-02  6.28090E-02 -1.56342E-01 -5.24344E-01
  -2.65654E-01 -1.05202E-02 -7.84338E-02  1.05677E-01  2.16024E-01  5.88932E-02 -7.42821E-02  1.70036E-01  3.30174E-01  5.48561E-02
   7.57995E-02  1.44694E-01 -6.90737E-02 -2.24482E-01 -1.46650E-01  1.12458E-01  1.66015E-01 -4.80919E-02 -1.37184E-01 -1.17061E-01
  -3.53904E-01  1.23998E-01 -7.02527E-02 -4.50736E-01  6.61870E-02  1.60576E-01  2.05909E-01  1.57978E-02  2.52043E-01  2.30566E-01
   3.22248E-01  7.30393E-01  2.78112E-01 -7.07100E-03  2.35961E-01  2.40974E-01 -3.90677E-02  2.19155E-01  2.23024E-01  1.44307E-01
   1.27195E-01 -1.74875E-01 -1.97683E-02 -1.05738E-01 -4.84897E-01 -4.92589E-01 -1.64767E-01 -1.26675E-01 -3.48726E-01 -3.70038E-01
  -5.22253E-01 -3.99893E-01 -3.85303E-01 -3.62267E-01 -4.09898E-01 -6.45262E-01 -6.08921E-01 -6.95879E-01 -3.00220E-01 -3.35108E-01
  -2.26173E-01 -7.06027E-02 -1.99307E-01  3.13846E-01  1.16944E-01 -6.45776E-02  9.29683E-02  2.28405E-01  1.65633E-01 -1.10955E-01
   1.78753E-01  2.48936E-01  4.22473E-02  2.32429E-01  1.50676E-01  1.75174E-01  3.29260E-01  2.39918E-01  5.32268E-01  3.65038E-01
   1.24087E-01  4.25048E-01  6.42208E-01  8.56158E-01  9.99619E-01  7.35141E-01  3.07717E-01  2.82495E-01 -2.96821E-01 -9.54193E-01
  -6.03442E-01 -6.12783E-01 -6.98796E-01 -8.59022E-01 -7.96372E-01 -2.82424E-01 -3.59703E-01  4.58763E-02  2.44839E-02 -5.27754E-01
  -5.05314E-01 -2.41042E-01 -2.19640E-01 -6.99961E-01 -3.64043E-01  1.40649E-02 -2.27497E-01  1.09020E-02 -1.31109E-01 -3.97486E-01
  -3.14420E-02  9.76320E-03 -4.83278E-02  1.00998E-01  6.25458E-02 -1.62940E-01 -8.45766E-02  2.95138E-02 -1.88360E-01 -1.38392E-01
  -1.29971E-01 -1.17455E-01  1.89526E-01 -7.84400E-02 -1.42892E-01  1.89258E-02 -2.58913E-01 -5.21151E-02  9.84019E-02 -7.16338E-02
  -2.90805E-01 -2.43722E-02 -2.41079E-01 -2.24770E-01  1.66621E-02 -2.44829E-01  2.29612E-01 -4.56519E-02  1.05481E-01  2.75295E-01
   1.35943E-01 -1.46132E-02  5.04654E-02  3.37119E-01  4.23147E-02  2.50678E-01  3.06462E-01  6.26370E-01  6.43916E-01  4.54691E-01
   3.42242E-01  5.99595E-01  4.51455E-01  1.53932E-01  2.02600E-01  1.24766E-02  1.70815E-01 -3.53447E-01 -2.75324E-01 -1.24501E-01
   9.72022E-03  4.33636E-02 -2.30189E-01 -1.73126E-01  3.73311E-02 -2.16156E-02 -2.16372E-01 -1.18756E-01 -2.05178E-01  1.88591E-01
   6.98858E-02  8.84528E-02 -2.64647E-01 -2.75770E-01 -1.58549E-02 -1.19140E-01  1.08992E-01 -3.42203E-01  5.92840E-03  1.44342E-01
  -1.67788E-02 -4.59253E-02  6.72759E-02  1.57730E-01 -1.10424E-01 -2.90340E-02  1.94378E-01  4.69693E-01  3.89582E-01  2.49461E-01
   2.15667E-01  2.31546E-01  1.75379E-01 -1.58810E-01 -9.01945E-02  1.20954E-01 -1.29708E-01  9.05648E-02 -2.64978E-01 -4.40881E-01
  -9.42539E-02 -4.10303E-01 -5.95917E-01 -5.61845E-01  1.09694E-01  1.83216E-01  1.61294E-01  6.12213E-01  6.98515E-01  5.65127E-01
   5.52735E-01  5.11528E-01  1.68344E-01  2.73516E-01  2.43027E-01  8.28727E-02  1.51063E-01 -2.91405E-01 -2.87785E-01  3.01698E-01
   7.91475E-02  2.59711E-01  5.22250E-01  2.66268E-01  2.16101E-01  4.11089E-01  4.83950E-01  5.86573E-01  6.62080E-01  5.41635E-02
   2.92711E-01  6.42022E-01  4.11330E-01  2.65127E-01  3.03544E-01  1.20251E-01  3.09458E-01  3.17783E-01 -1.63020E-01 -1.67386E-02
  -3.11665E-01 -1.82500E-01 -3.48302E-01 -4.32705E-01 -2.71194E-01 -2.18170E-01  3.80627E-02  7.70490E-02  2.39856E-01  3.23354E-01
   4.01795E-01 -1.27818E-01  1.38530E-01 -1.33782E-02 -1.33216E-01 -6.85665E-02 -5.24112E-01 -1.15615E-01 -3.59782E-01 -5.01732E-01
  -9.40446E-01 -1.28875E+00 -1.23280E+00 -1.57537E+00 -1.66410E+00 -1.21909E+00 -5.13861E-01 -2.50753E-01 -1.10160E-01 -1.16583E-02
   2.29052E-01  3.75652E-01  1.19088E-01 -7.37719E-02  3.97160E-02 -1.24830E-01 -8.41024E-02 -1.51083E-01 -1.34421E-02  3.84009E-01
  -1.70662E-01 -2.35888E-01 -2.71797E-01 -1.39182E-01  2.36425E-01  6.84201E-02  8.83046E-02 -1.22693E-01  1.19599E-02  4.41912E-01
  -2.72988E-02 -6.92165E-02  2.73732E-01  1.05298E-01  1.87508E-01  9.53656E-02  1.74056E-01  5.09485E-02 -2.43397E-02  2.88983E-02
   1.07424E-01  1.85289E-01 -7.71942E-02  2.65815E-01  4.01605E-02  1.81150E-01  1.36138E-01  2.12348E-02  2.90665E-01  4.16724E-03
   1.69603E-01  1.80906E-01  5.36260E-01  2.58670E-01  2.32992E-01  2.33342E-01  2.33830E-01  4.94558E-01 -8.46792E-02  4.72657E-01
   2.42221E-01 -1.38819E-01 -1.00621E-01  3.16969E-02  4.18593E-01 -5.96238E-02  2.94265E-02 -1.91953E-01 -1.87985E-01  1.27079E-01
   6.21261E-02  2.92089E-01 -1.05869E-01 -2.86829E-01 -1.60817E-01 -9.85924E-02 -6.25658E-03 -2.12010E-01 -6.26598E-02 -2.31541E-01
  -1.23037E-01  1.33443E-01 -2.24827E-01 -3.03463E-01 -3.16172E-02 -1.53063E-01 -1.24209E-01  3.01151E-01 -3.25398E-01  3.45979E-03
   9.43522E-03 -3.25937E-02  1.54604E-01 -6.37973E-01  1.30483E-01  1.13328E-01  7.14663E-02  2.01235E-01 -3.34095E-02 -3.57472E-02
  -2.66438E-01  1.51147E-02  1.61127E-01  2.08903E-01  7.50873E-02  1.07617E-01  7.84303E-02  3.80124E-01  8.55821E-02 -1.76669E-02
   2.73105E-01  9.14663E-03  4.09666E-01  9.25157E-02  5.57096E-02  1.00728E-01 -3.17254E-01 -9.67768E-02 -7.24149E-02 -3.28811E-02
   8.59528E-02  1.63526E-01  3.70022E-02 -2.98278E-03  2.36050E-01  7.11606E-02  7.24298E-02 -3.52629E-01 -3.61097E-01 -2.43099E-02
  -3.52334E-01 -3.11852E-01 -3.44909E-01 -6.28529E-02 -1.91472E-01 -1.48923E-02 -1.17017E-02 -2.98992E-01 -1.55823E-01 -5.14724E-01
  -2.60124E-01  5.63629E-02  1.97256E-01  2.69303E-01  1.90447E-01 -1.37324E-01  2.51783E-01  1.35082E-01  1.62182E-01  3.26543E-01
  -4.28317E-01  1.13382E-01 -6.99997E-02  4.34245E-02  3.85957E-01  1.92815E-01  3.37694E-01  3.29991E-02 -1.87171E-01 -9.00500E-02
   1.13227E-02  2.02459E-03  1.19635E-01  2.64926E-01  5.56850E-01  2.99209E-01  4.88778E-03 -9.85226E-02  1.39180E-01  2.23864E-01
  -9.10232E-02 -8.88474E-02 -1.09752E-01 -6.32398E-02  6.76746E-02  7.33386E-02 -1.47886E-01 -1.07188E-02  1.18745E-01  1.13193E-01
  -1.77411E-01 -8.67376E-02 -1.06024E-01 -8.39528E-02 -1.63807E-01 -5.35784E-01 -7.84696E-02 -4.12637E-01 -3.40733E-01 -3.82394E-01
  -5.52817E-01 -1.89019E-01 -3.28263E-01 -1.85124E-01  1.04769E-01  1.06222E-01  1.24048E-02 -8.52844E-02 -2.81929E-01 -5.11890E-02
   1.80218E-01  1.73829E-01 -2.77591E-01 -2.69537E-01 -3.66536E-01 -4.77430E-01 -1.34854E-01 -5.08255E-02  3.67798E-01  8.91123E-02
   2.19345E-01  1.07192E-01 -4.32041E-02  2.73831E-01 -6.50179E-03  9.05623E-02 -3.33781E-04  1.21095E-01  1.85190E-01 -1.41690E-01
  -4.86059E-02  3.62867E-01  2.31058E-01  4.44022E-02  2.21628E-01  3.10874E-02 -6.58038E-03  1.91894E-01  3.20849E-01  1.00133E-01
   1.03946E-01  1.45308E-01 -6.53358E-02 -1.17583E-01 -2.93337E-02  1.19759E-01 -1.43472E-01  7.93407E-02  3.33153E-01  1.04432E-01
  -1.42432E-01 -2.66825E-01  5.83639E-02  3.21011E-02 -1.16637E-01  1.56149E-01  5.03781E-02  1.01827E-01  4.30362E-01 -7.57798E-02
   1.64146E-01  2.39125E-01 -1.13403E-01  3.99304E-01  1.97680E-01 -1.72467E-01 -9.29625E-02 -7.06487E-02 -3.85397E-01 -8.53393E-02
   5.61464E-02 -2.36138E-01  4.98969E-02 -2.53447E-02  6.30433E-02  2.69267E-01 -1.21256E-01 -2.13174E-01 -9.61469E-02  7.26647E-02
   2.80580E-01 -5.29576E-03  1.42253E-01 -1.11424E-01 -1.29064E-01 -1.68164E-01 -3.03117E-01 -3.49843E-02 -1.49683E-01  4.12797E-01
  -6.51142E-02 -2.26268E-04  7.62378E-02 -9.63438E-02  2.91760E-01 -2.65691E-01 -1.68600E-03 -6.92828E-02  1.08289E-01  3.88176E-01
  -2.32418E-01 -8.48826E-02 -1.47112E-01 -1.16099E-01  3.89297E-01 -5.03831E-02  1.12532E-01  3.26641E-01  4.42121E-03 -5.51642E-02
  -1.58632E-01  1.84655E-01  1.78604E-01  2.33236E-01 -2.56758E-02 -2.74618E-01 -1.55422E-01  1.56581E-02  1.93939E-02 -1.85119E-01
  -7.09429E-04 -7.16194E-02  1.98254E-01  1.96755E-01
 NY points of the fit to the data follow
   5.05008E-02  4.30079E-02  3.39302E-02  2.66483E-02  1.96238E-02  1.67482E-02  1.58494E-02  1.74190E-02  1.81230E-02  1.75460E-02
   9.96435E-03  8.54290E-02  2.04204E-01  3.57960E-01  4.42597E-01  4.95849E-01  5.74950E-01  4.90271E-01  3.17463E-01  1.67579E-01
   8.93165E-02  5.54940E-02  2.25682E-02 -6.23321E-03 -3.31657E-02 -5.51792E-02 -7.04233E-02 -8.15250E-02 -8.74733E-02 -8.97838E-02
  -9.36625E-02 -1.01473E-01 -1.12086E-01 -1.25150E-01 -1.46448E-01 -1.68709E-01 -1.93658E-01 -2.15749E-01 -2.15781E-01 -2.03851E-01
  -1.37009E-01 -7.40938E-02  4.29313E-02  1.52345E-01  2.34326E-01  2.92852E-01  2.86980E-01  2.68518E-01  2.12921E-01  1.54476E-01
   1.13188E-01  8.00847E-02  4.54667E-02  1.36836E-02 -2.19884E-02 -5.67119E-02 -9.30410E-02 -1.29469E-01 -1.73605E-01 -1.93804E-01
  -2.06716E-01 -2.37645E-01 -2.20906E-01 -2.01919E-01 -1.03272E-01 -4.56912E-02  1.34916E-02  1.96835E-01  2.39641E-01  2.64426E-01
   2.92259E-01  2.65450E-01  2.17023E-01  1.36654E-01  7.69488E-02  5.73512E-03 -1.04484E-01 -1.91786E-01 -2.60021E-01 -2.76675E-01
  -2.71941E-01 -2.14198E-01 -2.53396E-02  1.10306E-01  1.97994E-01  2.75414E-01  3.05314E-01  2.99262E-01  2.55171E-01  2.18383E-01
   1.89745E-01  1.61181E-01  1.41521E-01  1.12880E-01  6.34688E-02  1.83179E-02 -7.82060E-02 -1.22887E-01 -2.08824E-01 -2.01165E-01
  -1.83261E-01 -1.19425E-01  2.28442E-04  7.61562E-02  1.64503E-01  1.91242E-01  2.09725E-01  2.06279E-01  2.08868E-01  2.09766E-01
   2.10915E-01  2.09298E-01  2.07249E-01  2.03758E-01  2.00661E-01  1.97560E-01  1.95048E-01  1.93393E-01  1.85108E-01  1.61344E-01
   1.40383E-01  8.67028E-02  4.54071E-02 -1.59764E-02 -7.50554E-02 -1.00060E-01 -2.27696E-01 -2.39196E-01 -3.31873E-01 -3.65886E-01
  -3.69211E-01 -3.46448E-01 -3.48312E-01 -4.06194E-01 -4.88306E-01 -4.92213E-01 -5.55363E-01 -6.26069E-01 -4.74740E-01 -2.96807E-01
  -1.33353E-01 -6.86020E-02 -2.39510E-02  9.38933E-03  3.54868E-02  5.69767E-02  7.59193E-02  9.24857E-02  1.07044E-01  1.20877E-01
   1.32874E-01  1.45282E-01  1.57791E-01  1.71203E-01  1.85731E-01  2.01523E-01  2.19190E-01  2.38568E-01  2.61806E-01  2.90142E-01
   3.25678E-01  3.74601E-01  4.48798E-01  6.53321E-01  6.28723E-01  5.75208E-01  2.20929E-01  5.91899E-02 -2.27061E-01 -7.28183E-01
  -8.22111E-01 -7.57297E-01 -5.59588E-01 -4.77696E-01 -4.20208E-01 -3.77589E-01 -3.40170E-01 -3.10248E-01 -2.83541E-01 -2.62066E-01
  -2.43827E-01 -2.27883E-01 -2.13579E-01 -1.99846E-01 -1.86900E-01 -1.74001E-01 -1.62536E-01 -1.52596E-01 -1.43213E-01 -1.34292E-01
  -1.26158E-01 -1.18787E-01 -1.11624E-01 -1.04415E-01 -9.74397E-02 -9.01293E-02 -8.31861E-02 -7.64510E-02 -6.67633E-02 -5.64824E-02
  -4.64375E-02 -4.10783E-02 -3.80348E-02 -3.19974E-02 -2.90988E-02 -2.83373E-02 -3.09548E-02 -3.22412E-02 -3.16502E-02 -3.80443E-02
  -5.00051E-02 -5.87928E-02 -6.04192E-02 -5.69617E-02 -5.37062E-02 -5.14076E-02 -4.93425E-02 -4.82600E-02 -4.63552E-02 -4.45217E-02
  -4.39263E-02 -1.23353E-02  4.06107E-02  1.15187E-01  1.63879E-01  1.98615E-01  2.73549E-01  3.28889E-01  3.53712E-01  3.44855E-01
   3.30006E-01  3.53283E-01  2.92159E-01  1.64575E-01  5.96601E-02 -4.86702E-03 -2.78934E-02 -4.64633E-02 -5.82042E-02 -6.80469E-02
  -7.67329E-02 -8.51266E-02 -9.23069E-02 -9.95485E-02 -1.06022E-01 -1.12956E-01 -1.20753E-01 -1.28489E-01 -1.37522E-01 -1.48224E-01
  -1.62304E-01 -1.81668E-01 -2.16180E-01 -2.10239E-01 -2.07197E-01 -1.76536E-01 -1.50152E-01 -9.78542E-02  3.54776E-02  4.35767E-02
   8.80317E-02  1.35365E-01  1.64608E-01  1.85147E-01  1.40829E-01  1.61241E-01  1.46605E-01  1.34972E-01  1.10660E-01  8.52227E-02
   7.31266E-02  4.11683E-02  1.57149E-02 -2.28729E-02 -5.60471E-02 -9.41300E-02 -1.31725E-01 -1.76828E-01 -2.43273E-01 -3.08089E-01
  -3.92094E-01 -4.31283E-01 -4.32062E-01 -3.72724E-01 -2.13905E-01 -5.26254E-02  1.68983E-01  3.26686E-01  4.03960E-01  4.43838E-01
   3.97240E-01  3.52669E-01  2.94940E-01  2.72232E-01  2.57438E-01  2.52782E-01  2.57028E-01  2.52355E-01  2.53860E-01  2.44341E-01
   2.37098E-01  2.27851E-01  2.21608E-01  2.15099E-01  2.09302E-01  2.03726E-01  1.97398E-01  1.89537E-01  1.80778E-01  1.70434E-01
   1.57977E-01  1.46256E-01  1.31846E-01  1.17630E-01  9.32330E-02  6.45647E-02  2.06149E-02 -2.38338E-02 -8.58726E-02 -1.38909E-01
  -1.92972E-01 -2.21509E-01 -2.47190E-01 -2.41239E-01 -2.19873E-01 -1.74887E-01 -1.13234E-01 -6.06718E-02  3.26916E-03  1.89374E-02
   3.74205E-02  1.50334E-03 -3.50218E-02 -7.30657E-02 -1.20131E-01 -1.14282E-01 -1.20706E-01 -5.93436E-02 -1.50181E-01 -4.94443E-01
  -8.96578E-01 -1.29658E+00 -1.41698E+00 -1.70873E+00 -1.66355E+00 -1.11712E+00 -6.30408E-01 -3.03072E-01 -2.18605E-01 -1.47599E-01
  -1.04485E-01 -7.38652E-02 -5.15672E-02 -3.33339E-02 -2.02061E-02 -8.95628E-03 -4.42104E-03  1.23218E-03 -3.91802E-03 -5.82123E-03
  -1.63192E-02 -2.33598E-02 -2.80329E-02 -3.21085E-02 -2.68707E-02 -2.33286E-02 -1.27044E-02 -4.34632E-03  5.14336E-03  1.28260E-02
   1.98235E-02  2.63315E-02  3.16297E-02  3.67418E-02  4.17626E-02  4.53178E-02  4.92755E-02  5.24962E-02  5.61697E-02  5.94381E-02
   6.26878E-02  6.55382E-02  6.82966E-02  7.12762E-02  7.33566E-02  7.60055E-02  7.75476E-02  8.00476E-02  8.19319E-02  8.52474E-02
   8.83281E-02  9.06040E-02  9.22868E-02  9.24162E-02  9.18879E-02  9.03588E-02  8.84006E-02  8.61154E-02  8.34988E-02  8.03864E-02
   7.61007E-02  7.10342E-02  6.53415E-02  6.01813E-02  5.46087E-02  4.88189E-02  4.37540E-02  3.88126E-02  3.45709E-02  2.95992E-02
   2.57431E-02  2.20486E-02  1.87064E-02  1.59757E-02  1.30574E-02  1.02156E-02  7.82759E-03  5.48984E-03  3.26259E-03  1.49465E-03
   3.55723E-05 -5.90970E-04 -1.04763E-03 -1.03965E-03  4.27899E-04  2.43582E-03  5.29730E-03  8.89273E-03  1.24268E-02  1.56402E-02
   1.85207E-02  2.16973E-02  2.45360E-02  2.76365E-02  3.20438E-02  3.74149E-02  4.35408E-02  5.00140E-02  5.65098E-02  6.37362E-02
   7.15807E-02  8.04754E-02  9.01709E-02  9.98377E-02  1.09958E-01  1.19809E-01  1.28711E-01  1.37198E-01  1.43766E-01  1.48806E-01
   1.51907E-01  1.53735E-01  1.54354E-01  1.54200E-01  1.52338E-01  1.48937E-01  1.43753E-01  1.37312E-01  1.29602E-01  1.21072E-01
   1.12673E-01  1.04386E-01  9.66402E-02  8.85860E-02  8.13455E-02  7.36318E-02  6.71222E-02  6.15098E-02  5.61659E-02  5.11064E-02
   4.63351E-02  4.25764E-02  3.96514E-02  3.76298E-02  3.64834E-02  3.63877E-02  3.79391E-02  4.01831E-02  4.25244E-02  4.61243E-02
   5.00478E-02  5.43547E-02  5.86058E-02  6.27284E-02  6.61800E-02  6.86349E-02  7.11627E-02  7.34234E-02  7.55947E-02  7.73760E-02
   7.89952E-02  8.06043E-02  8.02519E-02  7.95279E-02  7.75035E-02  7.54457E-02  7.36515E-02  7.07247E-02  6.82530E-02  6.55661E-02
   6.33614E-02  6.07938E-02  5.78404E-02  5.47923E-02  5.15472E-02  4.85963E-02  4.58601E-02  4.30452E-02  4.03878E-02  3.84138E-02
   3.62838E-02  3.33030E-02  2.93837E-02  2.50113E-02  2.02997E-02  1.46435E-02  8.24203E-03  1.12362E-03 -7.63180E-03 -1.73173E-02
  -2.93622E-02 -4.23558E-02 -5.67912E-02 -7.12765E-02 -8.48624E-02 -9.81926E-02 -1.11160E-01 -1.23333E-01 -1.33357E-01 -1.41668E-01
  -1.48319E-01 -1.53293E-01 -1.55169E-01 -1.54527E-01 -1.52684E-01 -1.49915E-01 -1.45480E-01 -1.40539E-01 -1.35370E-01 -1.30280E-01
  -1.25145E-01 -1.19512E-01 -1.13418E-01 -1.05765E-01 -9.78830E-02 -8.97515E-02 -8.09488E-02 -7.25506E-02 -6.39377E-02 -5.58767E-02
  -4.74734E-02 -3.98551E-02 -3.31074E-02 -2.57920E-02 -1.88652E-02 -1.29506E-02 -7.71602E-03 -2.69319E-03  2.52185E-03  7.23929E-03
   1.00053E-02  1.33481E-02  1.65864E-02  1.90091E-02  2.15501E-02  2.29080E-02  2.41162E-02  2.53677E-02  2.65165E-02  2.77344E-02
   2.85573E-02  3.05180E-02  3.26720E-02  3.42011E-02  3.57589E-02  3.68512E-02  3.75760E-02  3.75486E-02  3.76016E-02  3.77729E-02
   3.73509E-02  3.73069E-02  3.73394E-02  3.68666E-02  3.69080E-02  3.76057E-02  3.81346E-02  3.81068E-02  3.74798E-02  3.69346E-02
   3.65574E-02  3.50228E-02  3.32883E-02  3.35522E-02  3.40012E-02  3.39972E-02  3.28216E-02  3.21422E-02  3.21614E-02  3.13859E-02
   3.10255E-02  3.10417E-02  3.20159E-02  3.27614E-02  3.31856E-02  3.35702E-02  3.41642E-02  3.49246E-02  3.58882E-02  3.56280E-02
   3.55014E-02  3.49890E-02  3.46068E-02  3.38238E-02  3.30010E-02  3.35168E-02  3.39113E-02  3.44027E-02  3.46929E-02  3.51635E-02
   3.59246E-02  3.68476E-02  3.74905E-02  3.85719E-02  3.88845E-02  3.86534E-02  3.82022E-02  3.71067E-02  3.64934E-02  3.60448E-02
   3.59063E-02  3.57967E-02  3.49908E-02  3.40843E-02  3.32087E-02  3.25075E-02  3.23795E-02  3.23355E-02  3.16342E-02  3.10270E-02
   3.13315E-02  3.15182E-02  3.05799E-02  2.99164E-02  2.94015E-02  2.97756E-02  3.04841E-02  3.10562E-02  3.21576E-02  3.35977E-02
   3.42204E-02  3.45124E-02  3.42167E-02  3.46430E-02
 NY background values follow
     4.106E-02    4.098E-02    4.090E-02    4.083E-02    4.075E-02    4.067E-02    4.059E-02    4.051E-02    4.043E-02    4.035E-02
     4.028E-02    4.020E-02    4.012E-02    4.004E-02    3.996E-02    3.988E-02    3.980E-02    3.972E-02    3.964E-02    3.957E-02
     3.949E-02    3.941E-02    3.933E-02    3.925E-02    3.917E-02    3.909E-02    3.901E-02    3.893E-02    3.885E-02    3.878E-02
     3.870E-02    3.862E-02    3.854E-02    3.846E-02    3.838E-02    3.830E-02    3.822E-02    3.814E-02    3.806E-02    3.798E-02
     3.790E-02    3.782E-02    3.774E-02    3.767E-02    3.759E-02    3.751E-02    3.743E-02    3.735E-02    3.727E-02    3.719E-02
     3.711E-02    3.703E-02    3.695E-02    3.687E-02    3.679E-02    3.671E-02    3.663E-02    3.655E-02    3.647E-02    3.639E-02
     3.631E-02    3.623E-02    3.615E-02    3.607E-02    3.599E-02    3.591E-02    3.583E-02    3.575E-02    3.567E-02    3.559E-02
