 LCModel (Version 6.3-1N) Copyright: S.W. Provencher.          Ref.: Magn. Reson. Med. 30:672-679 (1993).                
 Slice_N1@20_20  02-Jun-2023 14:37:22
 27 lines in following concentration table = NCONC+1
    Conc.  %SD /Cr+PCr  Metabolite                                         
 1.69E-06  20% 2.3E-04 Mac                                                 
 4.42E-02  21%   6.117 Cr                                                  
 1.36E-02  71%   1.883 PCr                                                 
 7.59E-02  11%  10.500 Ins                                                 
 8.06E-02   8%  11.161 NAA                                                 
 6.89E-02  11%   9.544 Tau                                                 
 9.61E-03  33%   1.331 PCho                                                
 3.28E-03  91%   0.454 GPC                                                 
 6.70E-02  14%   9.273 Glu                                                 
 1.89E-02  35%   2.615 Gln                                                 
 5.77E-03 123%   0.799 Ala                                                 
 3.21E-02  41%   4.446 Asc                                                 
 7.62E-03  95%   1.054 Asp                                                 
 9.59E-03  41%   1.328 GABA                                                
 7.16E-03  66%   0.991 Glc                                                 
 8.24E-03  43%   1.141 GSH                                                 
 6.94E-03 103%   0.961 Lac                                                 
 1.34E-02  34%   1.855 NAAG                                                
    0.000 999%   0.000 PE                                                  
 1.29E-02  16%   1.785 GPC+PCho                                            
 9.40E-02   8%  13.016 NAA+NAAG                                            
 8.59E-02  13%  11.888 Glu+Gln                                             
 5.78E-02  11%   8.000 Cr+PCr                                              
 9.40E-02   8%  13.016 NAA+NAAG                                            
 5.78E-02  11%   8.000 Cr+PCr                                              
 8.59E-02  13%  11.888 Glu+Gln                                             
   6 lines in following misc. output table
  FWHM = 0.017 ppm    S/N =   5                                            
  Data shift = 0.012 ppm                                                   
  Ph:   9 deg      -7.6 deg/ppm                                            
  alphaB,S = 3.1E+01,   8.2E+00                                            
   18 spline knots.   Ns = 5(1)                                            
   2 inflections.     1 extrema                                            
  654 points on ppm-axis = NY
      4.000000     3.994181     3.988363     3.982544     3.976726     3.970907     3.965088     3.959270     3.953451     3.947633
      3.941814     3.935995     3.930177     3.924358     3.918540     3.912721     3.906902     3.901084     3.895265     3.889446
      3.883628     3.877809     3.871991     3.866172     3.860353     3.854535     3.848716     3.842898     3.837079     3.831260
      3.825442     3.819623     3.813805     3.807986     3.802167     3.796349     3.790530     3.784712     3.778893     3.773074
      3.767256     3.761437     3.755619     3.749800     3.743981     3.738163     3.732344     3.726526     3.720707     3.714888
      3.709070     3.703251     3.697433     3.691614     3.685795     3.679977     3.674158     3.668339     3.662521     3.656702
      3.650884     3.645065     3.639246     3.633428     3.627609     3.621791     3.615972     3.610153     3.604335     3.598516
      3.592698     3.586879     3.581060     3.575242     3.569423     3.563605     3.557786     3.551967     3.546149     3.540330
      3.534512     3.528693     3.522874     3.517056     3.511237     3.505419     3.499600     3.493781     3.487963     3.482144
      3.476326     3.470507     3.464688     3.458870     3.453051     3.447232     3.441414     3.435595     3.429777     3.423958
      3.418139     3.412321     3.406502     3.400684     3.394865     3.389046     3.383228     3.377409     3.371591     3.365772
      3.359953     3.354135     3.348316     3.342498     3.336679     3.330860     3.325042     3.319223     3.313405     3.307586
      3.301767     3.295949     3.290130     3.284312     3.278493     3.272674     3.266856     3.261037     3.255219     3.249400
      3.243581     3.237763     3.231944     3.226125     3.220307     3.214488     3.208670     3.202851     3.197032     3.191214
      3.185395     3.179577     3.173758     3.167939     3.162121     3.156302     3.150484     3.144665     3.138846     3.133028
      3.127209     3.121391     3.115572     3.109753     3.103935     3.098116     3.092298     3.086479     3.080660     3.074842
      3.069023     3.063205     3.057386     3.051567     3.045749     3.039930     3.034111     3.028293     3.022474     3.016656
      3.010837     3.005018     2.999200     2.993381     2.987563     2.981744     2.975925     2.970107     2.964288     2.958470
      2.952651     2.946832     2.941014     2.935195     2.929377     2.923558     2.917739     2.911921     2.906102     2.900284
      2.894465     2.888646     2.882828     2.877009     2.871191     2.865372     2.859553     2.853735     2.847916     2.842098
      2.836279     2.830460     2.824642     2.818823     2.813004     2.807186     2.801367     2.795549     2.789730     2.783911
      2.778093     2.772274     2.766456     2.760637     2.754818     2.749000     2.743181     2.737363     2.731544     2.725725
      2.719907     2.714088     2.708270     2.702451     2.696632     2.690814     2.684995     2.679177     2.673358     2.667539
      2.661721     2.655902     2.650084     2.644265     2.638446     2.632628     2.626809     2.620991     2.615172     2.609353
      2.603535     2.597716     2.591897     2.586079     2.580260     2.574442     2.568623     2.562804     2.556986     2.551167
      2.545349     2.539530     2.533711     2.527893     2.522074     2.516256     2.510437     2.504618     2.498800     2.492981
      2.487163     2.481344     2.475525     2.469707     2.463888     2.458070     2.452251     2.446432     2.440614     2.434795
      2.428977     2.423158     2.417339     2.411521     2.405702     2.399884     2.394065     2.388246     2.382428     2.376609
      2.370790     2.364972     2.359153     2.353335     2.347516     2.341697     2.335879     2.330060     2.324242     2.318423
      2.312604     2.306786     2.300967     2.295149     2.289330     2.283511     2.277693     2.271874     2.266056     2.260237
      2.254418     2.248600     2.242781     2.236963     2.231144     2.225325     2.219507     2.213688     2.207870     2.202051
      2.196232     2.190414     2.184595     2.178777     2.172958     2.167139     2.161321     2.155502     2.149683     2.143865
      2.138046     2.132228     2.126409     2.120590     2.114772     2.108953     2.103135     2.097316     2.091497     2.085679
      2.079860     2.074042     2.068223     2.062404     2.056586     2.050767     2.044949     2.039130     2.033311     2.027493
      2.021674     2.015856     2.010037     2.004218     1.998400     1.992581     1.986763     1.980944     1.975126     1.969307
      1.963489     1.957670     1.951852     1.946033     1.940215     1.934397     1.928578     1.922760     1.916941     1.911123
      1.905304     1.899486     1.893667     1.887849     1.882030     1.876212     1.870393     1.864575     1.858756     1.852938
      1.847119     1.841301     1.835482     1.829664     1.823845     1.818027     1.812208     1.806390     1.800571     1.794753
      1.788934     1.783116     1.777297     1.771479     1.765660     1.759842     1.754023     1.748205     1.742386     1.736568
      1.730749     1.724931     1.719113     1.713294     1.707476     1.701657     1.695839     1.690020     1.684202     1.678383
      1.672565     1.666746     1.660928     1.655109     1.649291     1.643472     1.637654     1.631835     1.626017     1.620198
      1.614380     1.608561     1.602743     1.596924     1.591106     1.585287     1.579469     1.573650     1.567832     1.562013
      1.556195     1.550376     1.544558     1.538739     1.532921     1.527102     1.521284     1.515465     1.509647     1.503829
      1.498010     1.492192     1.486373     1.480555     1.474736     1.468918     1.463099     1.457281     1.451462     1.445644
      1.439825     1.434007     1.428188     1.422370     1.416551     1.410733     1.404914     1.399096     1.393277     1.387459
      1.381640     1.375822     1.370003     1.364185     1.358366     1.352548     1.346729     1.340911     1.335092     1.329274
      1.323455     1.317637     1.311818     1.306000     1.300182     1.294363     1.288545     1.282726     1.276908     1.271089
      1.265271     1.259452     1.253634     1.247815     1.241997     1.236178     1.230360     1.224541     1.218723     1.212904
      1.207086     1.201267     1.195449     1.189630     1.183812     1.177993     1.172175     1.166356     1.160538     1.154719
      1.148901     1.143082     1.137264     1.131445     1.125627     1.119808     1.113990     1.108171     1.102353     1.096534
      1.090716     1.084898     1.079079     1.073261     1.067442     1.061624     1.055805     1.049987     1.044168     1.038350
      1.032531     1.026713     1.020894     1.015076     1.009257     1.003439     0.997620     0.991802     0.985983     0.980165
      0.974346     0.968528     0.962709     0.956891     0.951072     0.945254     0.939435     0.933617     0.927798     0.921980
      0.916161     0.910343     0.904524     0.898706     0.892887     0.887069     0.881251     0.875432     0.869614     0.863795
      0.857977     0.852158     0.846340     0.840521     0.834703     0.828884     0.823066     0.817247     0.811429     0.805610
      0.799792     0.793973     0.788155     0.782336     0.776518     0.770699     0.764881     0.759062     0.753244     0.747425
      0.741607     0.735788     0.729970     0.724151     0.718333     0.712514     0.706696     0.700877     0.695059     0.689240
      0.683422     0.677603     0.671785     0.665967     0.660148     0.654330     0.648511     0.642693     0.636874     0.631056
      0.625237     0.619419     0.613600     0.607782     0.601963     0.596145     0.590326     0.584508     0.578689     0.572871
      0.567052     0.561234     0.555415     0.549597     0.543778     0.537960     0.532141     0.526323     0.520504     0.514686
      0.508867     0.503049     0.497230     0.491412     0.485593     0.479775     0.473956     0.468138     0.462319     0.456501
      0.450682     0.444864     0.439045     0.433227     0.427408     0.421590     0.415771     0.409953     0.404134     0.398316
      0.392497     0.386679     0.380860     0.375042     0.369223     0.363405     0.357586     0.351767     0.345949     0.340130
      0.334312     0.328493     0.322675     0.316856     0.311038     0.305219     0.299401     0.293582     0.287764     0.281945
      0.276127     0.270308     0.264490     0.258671     0.252853     0.247034     0.241216     0.235397     0.229579     0.223760
      0.217942     0.212123     0.206305     0.200486
 NY phased data points follow
  -1.33377E-01 -1.04579E-02 -2.67689E-01 -8.97079E-02 -3.93653E-01 -1.88144E-01  5.08578E-03 -1.61649E-01  1.19061E-01 -2.84238E-01
  -2.24485E-01  1.25888E-01  3.26112E-01  6.98713E-03 -7.65569E-02  4.05411E-01  5.37626E-01  2.92722E-01 -3.84690E-02 -9.79188E-02
  -5.98596E-02  2.89241E-01  1.83745E-01 -2.62044E-02 -2.35363E-03  6.96919E-02 -6.76646E-02 -1.01484E-01  5.41779E-02  7.88002E-02
   1.55428E-01 -5.20874E-02 -1.10309E-01 -1.34723E-01 -1.90171E-01 -2.12003E-01 -3.60975E-01 -5.04917E-01 -4.18400E-01 -1.22008E-01
  -3.60040E-02  1.63634E-01  4.44367E-01  3.59096E-01  1.79276E-01  1.22767E-01  6.97554E-01  5.27458E-01  4.19798E-03  3.61824E-01
   2.02885E-01  2.81294E-01  1.96856E-01  1.09843E-01  1.55073E-01 -1.13081E-01 -6.06228E-02 -2.84247E-01 -5.31793E-01 -2.36780E-01
  -3.10410E-01 -3.42958E-01 -3.81137E-01 -3.08454E-01 -2.11876E-02 -7.74497E-01  1.87292E-02  9.20415E-03 -3.41927E-01  3.66478E-01
  -7.89840E-02  1.03695E-01  7.08764E-02  2.05676E-01 -6.46740E-02 -8.12314E-02  1.24956E-01 -3.16074E-02 -2.57131E-01 -5.29442E-01
  -7.53437E-02 -7.61195E-02  7.38118E-02  1.65092E-01  3.39719E-01  5.44176E-01  2.71832E-01  2.30244E-01  3.77862E-01  1.42349E-01
   1.35528E-01  1.73983E-01  1.13930E-01  2.18616E-01  6.36564E-02  7.74097E-02 -1.90365E-01 -5.72220E-02  1.41498E-01 -1.89469E-01
  -2.38094E-01 -8.64225E-03 -1.24157E-01  1.41136E-01  4.16822E-01  4.06240E-01  5.12914E-01  5.48233E-01  6.16517E-01  3.62449E-01
   7.07222E-01  2.58891E-01  9.72906E-02  1.90630E-01 -1.86028E-01  3.69586E-01  1.78711E-01  3.82217E-01  4.82218E-01 -8.95351E-02
   2.55908E-01  1.80014E-01 -9.63382E-02  1.86743E-01 -4.07383E-02  2.50539E-02 -1.21979E-01 -4.96690E-01 -5.11043E-01 -7.62729E-01
  -6.75606E-01 -6.97045E-01 -6.92415E-01 -5.87587E-01 -6.58378E-01 -5.13212E-01 -6.65267E-01 -1.06979E+00 -3.55909E-01 -9.73618E-02
  -6.34291E-01 -2.85356E-01  2.74998E-02 -1.42566E-01 -3.45079E-01 -2.90905E-02  1.75348E-01  1.77173E-01  2.08629E-01  1.10400E-01
   3.14130E-01  3.54127E-01 -5.36289E-02 -2.11022E-02  1.31057E-01  3.16651E-01  1.74689E-01 -5.71961E-02  1.50390E-01  3.75773E-02
   4.62093E-01  3.95110E-01  3.33641E-01  4.72203E-01  3.41405E-01  9.95233E-01  1.21915E+00  2.93195E-01 -7.06633E-01 -7.85832E-01
  -6.86972E-01 -5.63028E-01 -6.88222E-01 -3.64084E-01 -6.33900E-02 -4.70244E-01 -5.96782E-01 -4.59520E-01 -2.60215E-01 -3.35367E-01
  -2.72526E-01 -6.48515E-02 -2.93340E-01 -5.29016E-01 -2.37211E-01 -7.17626E-02  8.94578E-02 -4.01860E-01 -3.82224E-01 -5.02291E-02
  -1.01211E-01  9.19193E-02 -3.51323E-01  1.28622E-01 -1.37060E-01 -4.84432E-01 -9.43919E-02 -2.78133E-01 -2.86952E-01 -9.29528E-02
   1.10511E-01 -1.26140E-01 -4.62019E-03  5.82884E-02  4.17857E-02  1.53906E-01  6.63585E-02 -2.11360E-01 -8.43159E-02  1.53012E-01
   1.50081E-01  9.23989E-02 -5.63784E-02 -2.90023E-01 -1.86700E-01  2.77172E-01 -1.93574E-01 -7.56900E-02 -1.46919E-01 -1.91869E-01
   1.82231E-01  2.81179E-01  3.17637E-01 -1.26095E-01 -2.21599E-02 -2.67068E-02  2.57951E-01  3.67575E-01  2.78834E-01  1.58637E-01
   3.19076E-01  3.18739E-01 -2.56480E-02  1.42398E-01 -1.90820E-01 -1.55403E-02 -9.73272E-02 -1.66174E-01  6.39690E-02 -1.05166E-01
  -2.20237E-01 -2.33342E-01 -1.04400E-01  1.52301E-01  1.20269E-03 -2.63411E-01 -6.13128E-03 -2.21212E-01 -1.08902E-01 -1.18667E-01
  -1.81848E-01  1.11832E-01  3.18839E-01  1.59669E-01 -1.47709E-01  1.81535E-01  4.45855E-02 -1.74374E-02 -1.97186E-01 -7.33788E-02
   4.29327E-01  4.02221E-01  4.45686E-01  1.22240E-04 -2.83339E-03  1.36933E-01 -1.74104E-01 -1.17379E-01 -8.78827E-02  1.99521E-01
   1.30063E-01  3.60579E-02  1.54461E-01  9.61251E-02  9.84478E-02  2.29474E-01  1.42586E-01 -1.18914E-01  1.38128E-01 -3.43988E-01
  -2.11570E-01 -2.44944E-01 -3.14483E-01  6.17504E-02 -3.48544E-01  2.43739E-01  3.17632E-01  4.70776E-01  6.37363E-01  4.53297E-01
   3.48121E-01  2.02592E-01  2.56691E-01 -5.26561E-02 -1.11088E-01  3.22511E-02  4.01606E-01  3.22726E-01  1.15600E-01  2.05279E-01
   2.13648E-01  1.98640E-01  4.49432E-01  2.55566E-01  4.75984E-01  7.07310E-01  3.29345E-01  6.63858E-01  2.20886E-01 -1.47216E-01
   1.13232E-01  4.43159E-01  3.13849E-01 -4.42113E-02  1.51216E-01  1.69562E-01  1.17903E-01  7.89861E-02 -4.82069E-03  6.82466E-02
  -2.99199E-01 -2.91550E-01  3.05590E-02 -1.12686E-01 -1.75635E-01 -4.30815E-01  2.30533E-01  1.95756E-01  2.97525E-01  6.50983E-01
  -1.07682E-02  3.91429E-02  7.39308E-02 -8.56573E-02 -1.12850E-01 -1.42197E-01 -5.25289E-01 -3.26450E-01 -4.38456E-01 -7.95859E-02
  -3.10775E-01 -5.81756E-01 -1.22338E+00 -2.48353E+00 -9.18619E-01 -8.03105E-01 -8.11663E-01 -1.38104E-01 -8.70858E-02  1.79118E-03
   2.33160E-01  7.32145E-02 -1.99815E-01  3.16367E-01 -1.48599E-01  1.92087E-01  2.00614E-01  8.39615E-02  2.83231E-01  9.27811E-03
   8.37189E-02  2.89787E-01 -5.21197E-02 -2.48250E-01  5.77127E-02 -5.27208E-02  1.73026E-01 -8.10599E-02 -4.30017E-02  1.46728E-01
   8.71599E-02 -7.77957E-02 -1.64069E-01 -1.93068E-01 -1.58083E-01  2.51205E-01  8.36410E-02  2.71906E-02 -1.32195E-02  3.27500E-01
   4.28701E-02 -2.22836E-01  2.18580E-01  2.95624E-01  4.92399E-01  9.14224E-02  4.35936E-03 -2.26378E-02 -2.02495E-01  1.06474E-01
  -2.10344E-03  4.81164E-02  3.06425E-01  1.06590E-01 -9.89713E-03  3.91483E-01  5.07003E-01  3.12512E-01 -4.62892E-02 -6.47471E-02
   3.52639E-01  1.30543E-01  2.51520E-01 -7.79738E-02 -3.18606E-01  2.09455E-01  1.43624E-01  5.71882E-03 -1.15740E-01  1.53272E-01
   2.13610E-01 -8.98980E-02 -2.68893E-01 -7.43979E-02 -1.57098E-01 -3.50486E-01  9.92197E-03  5.23100E-02 -2.09279E-01 -2.02407E-01
  -1.18083E-01 -4.73326E-01 -2.83156E-01 -2.47162E-01 -2.73677E-01  4.83913E-02 -2.01157E-01 -5.07676E-01 -2.94427E-01  2.98509E-02
  -2.17466E-01 -6.69203E-02 -5.55235E-02 -7.74454E-02  2.29674E-01  6.65789E-02  1.11180E-01  1.58397E-01  1.66996E-01 -5.51089E-02
  -1.41137E-01 -8.92958E-04 -1.06765E-01  1.88259E-01  3.57394E-02  2.14354E-01  1.31327E-01 -2.04034E-01  4.37811E-01  4.13159E-01
   1.96387E-01  1.13466E-01  1.94590E-01  2.99367E-01  1.21327E-01 -1.64036E-01  7.99008E-02  2.64928E-01  1.42317E-01 -5.31314E-03
  -2.71775E-01  1.25837E-01  3.85247E-01  5.11372E-01  1.45321E-01  1.47919E-01 -4.99679E-03 -5.53952E-02  2.01582E-01 -3.55722E-01
  -3.14392E-01 -2.17188E-01 -8.01603E-02  3.98045E-02  3.56284E-03 -1.29331E-01 -1.87987E-01 -3.76818E-01 -3.36233E-01 -1.68444E-01
  -1.03780E-01 -2.55226E-01 -2.34573E-01  2.47673E-01 -1.19738E-01  1.24461E-01  1.83158E-01 -4.10150E-02  6.06407E-02  7.87850E-02
   9.87700E-02  1.24457E-01  1.62716E-01  1.37060E-01  1.93455E-01 -8.96195E-02  6.07028E-03 -3.55594E-02 -9.47856E-02 -7.74092E-02
   1.18277E-01  1.14016E-01  3.35979E-03  8.00831E-02 -8.44551E-02  1.47912E-01 -4.01598E-02 -1.99570E-02  5.73911E-01  3.42334E-01
   4.98073E-02  2.36099E-01 -4.98920E-03  1.87784E-01  3.24485E-02  6.67254E-02  3.29467E-01 -5.68813E-02  5.95996E-02 -9.75786E-02
  -1.02063E-01 -1.22716E-02 -3.44048E-01 -5.18018E-01 -2.09120E-01 -1.18484E-01 -1.48893E-01 -2.50512E-01 -2.41708E-01 -1.79477E-01
  -3.58700E-01 -1.17718E-01  2.29545E-02 -3.02307E-02 -1.30914E-01 -7.87193E-02 -1.78543E-01  6.03273E-02 -1.13875E-01 -1.77261E-01
   9.62476E-03 -2.98428E-01  4.29755E-02 -3.72565E-02 -1.47737E-01 -9.17191E-02 -8.88812E-02  1.44309E-01  2.58817E-01  1.59027E-01
   9.54117E-02  9.42193E-02  6.70885E-02 -6.14022E-03  2.80217E-01  3.96445E-01  1.51784E-01  1.23826E-01 -3.08382E-01 -1.76623E-02
   1.06018E-01  3.52107E-02  9.74683E-03 -5.03237E-03  8.88083E-02 -1.36738E-01  1.18104E-01 -7.13390E-02  2.93664E-01  3.98690E-02
  -2.81174E-01  2.75489E-01  7.63672E-02  3.28387E-01  2.66319E-01  1.72989E-01  1.28303E-01 -1.44629E-01 -9.70016E-02 -3.08290E-01
  -1.68789E-01 -3.30763E-02  1.98392E-01  3.30073E-01  4.89529E-02  1.29067E-01 -8.37517E-02  4.26463E-02  2.71869E-01  7.63855E-02
  -1.05589E-01 -1.56359E-01 -8.37210E-02 -8.05508E-02  1.07245E-01 -2.36530E-01  6.10924E-03  6.38437E-02 -4.07154E-01 -8.59985E-04
  -1.20389E-02 -6.57741E-02 -2.45799E-01 -1.39177E-01 -2.19819E-02  1.51397E-02  9.30286E-02 -3.49882E-01  2.31168E-01  2.35825E-01
  -1.56539E-01  3.09665E-02 -2.44983E-01 -2.83451E-01 -1.02469E-01 -6.19107E-02 -6.10185E-02  1.77455E-01  1.84840E-01 -7.02900E-02
  -2.29525E-01 -2.05521E-01  1.74530E-02  2.05363E-01  1.30707E-01  2.82037E-01  2.04385E-01 -1.63845E-01 -1.35959E-01 -2.45447E-01
   1.69164E-01  1.15062E-01 -4.50667E-02 -4.67090E-02  5.76746E-02  3.96610E-01 -2.12737E-01  2.50489E-01  1.19450E-01 -4.15480E-01
   3.43286E-01  1.71645E-01 -1.55998E-01  1.19549E-01 -5.97458E-02 -2.93191E-01  2.78050E-02  1.05274E-01  1.54571E-01  1.10918E-01
   1.53240E-01  9.08551E-02 -1.28576E-01  1.04440E-02
 NY points of the fit to the data follow
   9.04584E-02  6.26034E-02  2.66778E-02 -2.80719E-03 -1.45559E-02 -1.52027E-02 -1.34113E-02 -1.39182E-03 -3.18662E-03  2.72912E-03
   5.77975E-02  1.56923E-01  2.19522E-01  2.10316E-01  3.20850E-01  5.64912E-01  5.65185E-01  3.18125E-01  2.10477E-01  1.53107E-01
   5.70256E-02  5.79727E-03 -1.10506E-02 -3.94814E-02 -6.20250E-02 -8.25299E-02 -1.00697E-01 -1.13554E-01 -1.23817E-01 -1.38427E-01
  -1.48830E-01 -1.58114E-01 -1.77272E-01 -2.01628E-01 -2.29815E-01 -2.48249E-01 -2.69909E-01 -2.90579E-01 -2.67801E-01 -1.84455E-01
  -3.90388E-02  5.03566E-02  1.18079E-01  2.33226E-01  3.04100E-01  3.36271E-01  3.40036E-01  2.87503E-01  2.34694E-01  2.22123E-01
   1.69029E-01  1.10103E-01  8.97329E-02  4.81796E-02 -8.26630E-03 -5.55027E-02 -1.05483E-01 -1.55648E-01 -1.79423E-01 -2.26021E-01
  -3.04870E-01 -3.12446E-01 -2.91094E-01 -2.33493E-01 -2.61903E-01 -1.64163E-01  1.79430E-01  1.76042E-01  1.82394E-01  4.31225E-01
   4.10961E-01  2.80431E-01  2.53424E-01  1.86391E-01  8.09510E-02  2.32651E-03 -5.49173E-02 -1.62448E-01 -3.30511E-01 -4.61475E-01
  -3.84303E-01 -1.43241E-01 -6.68668E-02  6.51367E-02  3.40941E-01  4.16461E-01  3.71000E-01  3.64546E-01  3.32672E-01  2.74304E-01
   2.37259E-01  2.12679E-01  1.73561E-01  1.28904E-01  8.14100E-02  9.24658E-03 -9.65980E-02 -2.43751E-01 -3.73298E-01 -4.31180E-01
  -3.66636E-01 -1.79555E-01  1.73934E-02  1.76811E-01  2.57480E-01  2.87002E-01  2.97975E-01  2.92797E-01  2.80755E-01  2.80170E-01
   2.79308E-01  2.77488E-01  2.76194E-01  2.74391E-01  2.72479E-01  2.72244E-01  2.72727E-01  2.66340E-01  2.63334E-01  2.62003E-01
   2.24468E-01  1.75055E-01  1.06363E-01  4.45832E-02 -2.85487E-02 -1.80284E-01 -1.25803E-01 -2.49471E-01 -5.05405E-01 -5.67637E-01
  -6.93210E-01 -5.99663E-01 -4.98671E-01 -3.29550E-01 -2.86359E-01 -4.77365E-01 -7.35213E-01 -7.89591E-01 -5.51471E-01 -3.72504E-01
  -2.72075E-01 -1.41512E-01 -5.18885E-02 -2.81633E-02 -3.82362E-04  2.51451E-02  4.80049E-02  6.77172E-02  8.57074E-02  1.01522E-01
   1.16480E-01  1.31305E-01  1.45684E-01  1.60178E-01  1.76290E-01  1.94189E-01  2.13882E-01  2.37511E-01  2.64071E-01  2.93819E-01
   3.34055E-01  3.95472E-01  4.77040E-01  4.62296E-01  5.53197E-01  7.27469E-01  8.09045E-01  3.28901E-01 -5.96098E-01 -7.35921E-01
  -5.88909E-01 -6.24136E-01 -5.64572E-01 -4.01928E-01 -3.64213E-01 -3.40280E-01 -3.00830E-01 -2.71813E-01 -2.63789E-01 -2.54048E-01
  -2.31673E-01 -2.10783E-01 -2.01580E-01 -1.94478E-01 -1.85530E-01 -1.82295E-01 -1.75633E-01 -1.66730E-01 -1.59259E-01 -1.54061E-01
  -1.45973E-01 -1.37265E-01 -1.29215E-01 -1.21599E-01 -1.13155E-01 -1.05528E-01 -9.90806E-02 -9.13536E-02 -8.39079E-02 -7.77298E-02
  -7.14421E-02 -6.17310E-02 -5.10062E-02 -4.87891E-02 -5.39843E-02 -5.61967E-02 -4.90075E-02 -3.90866E-02 -3.93756E-02 -5.00646E-02
  -5.80670E-02 -5.88248E-02 -5.65776E-02 -5.35033E-02 -4.93872E-02 -3.81041E-02 -2.01186E-02 -5.74651E-03 -1.00895E-02 -2.40024E-02
  -1.09506E-02  1.36311E-02  2.09417E-02  2.52694E-02  6.97209E-02  1.81489E-01  2.49904E-01  2.10193E-01  1.63782E-01  2.40799E-01
   3.74961E-01  3.34677E-01  1.85157E-01  1.11814E-01  5.45125E-02 -1.35449E-02 -4.34060E-02 -5.06437E-02 -5.96825E-02 -6.83565E-02
  -7.74243E-02 -8.60284E-02 -9.11744E-02 -9.62524E-02 -9.99779E-02 -1.04307E-01 -1.08206E-01 -1.09488E-01 -1.16341E-01 -1.16383E-01
  -1.16307E-01 -1.15548E-01 -1.17975E-01 -1.31875E-01 -1.39403E-01 -1.32684E-01 -8.92171E-02  3.60109E-04 -1.02326E-02  8.22101E-03
   1.15286E-01  1.21903E-01  1.26158E-01  8.96465E-02  1.03573E-01  1.52278E-01  1.28424E-01  1.23228E-01  1.33774E-01  1.44993E-01
   1.22176E-01  1.00451E-01  6.98327E-02  3.30496E-02 -4.55458E-03 -3.99315E-02 -8.32459E-02 -1.20172E-01 -1.68881E-01 -2.24735E-01
  -2.83317E-01 -3.33876E-01 -3.00482E-01 -2.37208E-01 -1.02260E-01  8.19563E-02  1.99383E-01  3.10722E-01  3.55311E-01  3.11163E-01
   2.74091E-01  2.36270E-01  1.90855E-01  1.69092E-01  1.55441E-01  1.65500E-01  1.84375E-01  1.92213E-01  2.06105E-01  2.07471E-01
   1.99281E-01  1.93544E-01  1.85551E-01  1.75462E-01  1.66291E-01  1.56697E-01  1.42837E-01  1.23477E-01  9.95214E-02  6.62455E-02
   4.79677E-02  1.89074E-02  3.90072E-03  1.25821E-02 -2.02585E-03 -8.68507E-04 -2.96256E-02 -7.54236E-02 -1.23559E-01 -1.64718E-01
  -2.04097E-01 -2.33873E-01 -2.28717E-01 -2.23083E-01 -1.81148E-01 -1.14280E-01 -3.32080E-02  3.54930E-02  8.05642E-02  9.37104E-02
   6.82868E-02  2.93477E-02 -4.50479E-02 -7.83390E-02 -1.19524E-01 -2.17682E-01 -3.27737E-01 -3.71032E-01 -3.46996E-01 -2.11802E-01
  -1.85183E-01 -4.90835E-01 -1.41937E+00 -2.13535E+00 -1.33260E+00 -7.95350E-01 -6.99648E-01 -3.68553E-01 -1.11081E-01 -1.20815E-01
  -9.36743E-02 -6.73934E-02 -4.47581E-02 -2.74978E-02 -1.34946E-02 -1.31004E-04  9.63905E-03  1.78804E-02  1.78303E-02  1.42828E-02
  -2.61400E-03 -2.29400E-02 -4.12396E-02 -6.81103E-02 -7.68434E-02 -8.37619E-02 -7.89219E-02 -6.56637E-02 -5.12957E-02 -3.84967E-02
  -2.52866E-02 -1.33736E-02 -2.02129E-03  7.17427E-03  1.35873E-02  1.88531E-02  2.40519E-02  2.87217E-02  3.34597E-02  3.78774E-02
   4.12219E-02  4.41312E-02  4.78548E-02  5.10737E-02  5.49892E-02  5.76425E-02  5.94625E-02  6.12942E-02  6.36271E-02  6.71243E-02
   7.02332E-02  7.39530E-02  7.65598E-02  7.76157E-02  7.70945E-02  7.58594E-02  7.50104E-02  7.41852E-02  7.23950E-02  6.98191E-02
   6.64747E-02  6.25067E-02  5.86753E-02  5.36744E-02  4.76677E-02  4.34286E-02  3.97860E-02  3.54569E-02  3.03418E-02  2.64048E-02
   2.29386E-02  1.89098E-02  1.60252E-02  1.37371E-02  1.09639E-02  8.64490E-03  6.34524E-03  3.56190E-03  1.46992E-03 -1.22809E-04
  -1.57757E-03 -3.13512E-03 -4.30231E-03 -3.64392E-03 -2.61667E-03 -1.48865E-03  9.76932E-04  4.16711E-03  7.93188E-03  1.47419E-02
   2.26006E-02  2.71390E-02  3.79373E-02  5.82124E-02  8.87470E-02  1.05669E-01  1.08867E-01  1.06158E-01  7.90421E-02  6.38077E-02
   6.40273E-02  6.46000E-02  6.86202E-02  7.88775E-02  8.70735E-02  9.52617E-02  1.04190E-01  1.12076E-01  1.18486E-01  1.23249E-01
   1.26158E-01  1.27003E-01  1.27176E-01  1.25982E-01  1.23170E-01  1.20132E-01  1.20096E-01  1.11162E-01  1.06865E-01  1.06126E-01
   1.31210E-01  1.69978E-01  1.77823E-01  1.90312E-01  1.63703E-01  1.28329E-01  1.10669E-01  9.36752E-02  7.62676E-02  6.97627E-02
   6.39531E-02  5.85226E-02  5.36426E-02  4.94867E-02  4.69316E-02  4.63024E-02  4.64900E-02  4.70453E-02  4.88819E-02  5.10663E-02
   5.33839E-02  5.65782E-02  6.11190E-02  6.49994E-02  6.78360E-02  7.07064E-02  7.26675E-02  7.36752E-02  7.50236E-02  7.79628E-02
   8.05942E-02  8.10252E-02  8.09409E-02  8.05404E-02  7.94769E-02  7.84965E-02  7.56146E-02  7.27380E-02  7.13211E-02  6.94533E-02
   6.68629E-02  6.42629E-02  6.20097E-02  5.96972E-02  5.71854E-02  5.41470E-02  5.09479E-02  4.81007E-02  4.64793E-02  4.53064E-02
   4.27575E-02  3.99246E-02  3.77714E-02  3.48264E-02  3.01243E-02  2.46577E-02  1.93044E-02  1.36718E-02  7.31083E-03 -5.59662E-04
  -1.06761E-02 -2.31838E-02 -3.66023E-02 -4.88415E-02 -6.17396E-02 -7.51279E-02 -8.70405E-02 -9.74212E-02 -1.07759E-01 -1.17760E-01
  -1.26029E-01 -1.30212E-01 -1.31783E-01 -1.33922E-01 -1.34850E-01 -1.32248E-01 -1.28076E-01 -1.24104E-01 -1.20092E-01 -1.16079E-01
  -1.12302E-01 -1.08391E-01 -1.02791E-01 -9.64666E-02 -9.08066E-02 -8.33037E-02 -7.56117E-02 -6.81200E-02 -6.07780E-02 -5.35435E-02
  -4.64838E-02 -4.02436E-02 -3.28473E-02 -2.57329E-02 -2.08510E-02 -1.62920E-02 -1.03907E-02 -4.55648E-03  1.08426E-04  2.36208E-03
   5.73069E-03  1.00439E-02  1.25452E-02  1.47880E-02  1.68890E-02  1.81411E-02  1.96907E-02  2.15231E-02  2.22900E-02  2.22104E-02
   2.33388E-02  2.53669E-02  2.63163E-02  2.78816E-02  3.03356E-02  3.13442E-02  3.12573E-02  3.17011E-02  3.22283E-02  3.17296E-02
   3.16850E-02  3.19769E-02  3.12693E-02  3.12240E-02  3.16968E-02  3.07856E-02  3.05711E-02  3.16303E-02  3.25926E-02  3.26672E-02
   3.01687E-02  2.70630E-02  2.74008E-02  2.84777E-02  2.74706E-02  2.69090E-02  2.74285E-02  2.74668E-02  2.53233E-02  2.33900E-02
   2.34102E-02  2.40282E-02  2.47762E-02  2.47004E-02  2.47250E-02  2.52896E-02  2.59141E-02  2.62310E-02  2.59475E-02  2.62020E-02
   2.71111E-02  2.69995E-02  2.55541E-02  2.36414E-02  2.35685E-02  2.36300E-02  2.32199E-02  2.38332E-02  2.47743E-02  2.45628E-02
   2.38482E-02  2.29477E-02  2.46884E-02  2.68940E-02  2.70785E-02  2.70973E-02  2.50555E-02  2.25728E-02  2.22461E-02  2.24319E-02
   2.22878E-02  2.11720E-02  1.96123E-02  1.84588E-02  1.79396E-02  1.73946E-02  1.65393E-02  1.45020E-02  1.33288E-02  1.43344E-02
   1.39879E-02  1.20275E-02  1.10021E-02  1.07558E-02  9.63893E-03  8.36848E-03  7.35961E-03  7.37549E-03  9.13349E-03  9.78704E-03
   9.18317E-03  8.69922E-03  7.60052E-03  6.25806E-03
 NY background values follow
     3.508E-02    3.502E-02    3.496E-02    3.490E-02    3.485E-02    3.479E-02    3.473E-02    3.467E-02    3.461E-02    3.456E-02
     3.450E-02    3.444E-02    3.438E-02    3.433E-02    3.427E-02    3.421E-02    3.415E-02    3.409E-02    3.404E-02    3.398E-02
     3.392E-02    3.386E-02    3.380E-02    3.375E-02    3.369E-02    3.363E-02    3.357E-02    3.351E-02    3.346E-02    3.340E-02
     3.334E-02    3.328E-02    3.322E-02    3.316E-02    3.311E-02    3.305E-02    3.299E-02    3.293E-02    3.287E-02    3.282E-02
     3.276E-02    3.270E-02    3.264E-02    3.258E-02    3.253E-02    3.247E-02    3.241E-02    3.235E-02    3.229E-02    3.223E-02
     3.218E-02    3.212E-02    3.206E-02    3.200E-02    3.194E-02    3.189E-02    3.183E-02    3.177E-02    3.171E-02    3.165E-02
     3.159E-02    3.154E-02    3.148E-02    3.142E-02    3.136E-02    3.130E-02    3.124E-02    3.119E-02    3.113E-02    3.107E-02
