 
 $NMID
 ID=''
 FMTDAT='(2E13.5)'
 TRAMP=   1.00000E+0
 VOLUME=   1.00000E+0
 $END
  -3.63735E+0  -4.63233E+1
   5.15619E+2   1.28383E+3
   3.59171E+2  -3.21495E+3
   1.20272E+3  -1.14190E+3
  -6.85186E+2   9.44343E+2
   2.52681E+3  -1.28267E+3
  -8.31837E+2  -1.61725E+3
  -5.08344E+3  -7.13914E+2
  -3.47277E+3  -1.36630E+3
  -1.77373E+3  -1.33761E+3
   1.91102E+3  -7.97606E+2
   3.05804E+3   2.57380E+3
   6.63789E+2   4.52744E+3
  -2.88691E+3  -4.27184E+2
  -1.46073E+3  -1.49380E+3
  -3.83886E+1  -1.89351E+3
   1.12096E+3  -9.26454E+1
   1.65750E+3  -2.14559E+3
  -1.51251E+3   1.58851E+2
  -1.51290E+3  -1.33043E+3
   1.16183E+3  -2.67421E+3
   1.74115E+1  -1.34533E+3
  -2.47216E+3   3.90805E+3
  -2.94216E+3  -3.55043E+2
  -3.03271E+2  -3.88007E+3
   3.49493E+2  -5.19826E+2
  -2.12725E+3   2.50244E+3
  -3.62230E+3  -1.82681E+3
   1.25259E+3  -7.00167E+3
   1.90828E+3  -2.06647E+3
   4.23244E+3   4.77328E+3
  -2.14682E+3   3.63814E+3
  -5.32190E+3   6.87541E+1
   8.43088E+2  -4.07937E+2
   3.01808E+2   9.54726E+2
  -7.52133E+2  -2.72793E+3
   2.92050E+3  -5.11019E+3
   6.15006E+3   2.40608E+2
   2.09575E+3   3.00591E+3
   1.86529E+3   3.47324E+3
  -5.07891E+2   2.81717E+3
  -2.22171E+3  -4.51889E+2
  -1.20858E+3  -5.63752E+3
   4.76673E+3  -3.69656E+3
   4.73467E+3  -9.96493E+2
   1.41293E+3  -1.61643E+3
   3.07479E+3   2.52327E+3
   1.94742E+3   3.89930E+3
  -2.06274E+3   2.77180E+3
  -1.59007E+3   1.95104E+3
   2.22093E+2  -3.76161E+2
  -6.91720E+2  -2.05873E+3
   2.59013E+3  -9.34486E+2
   1.23180E+3   3.39431E+3
   1.60365E+2   3.09230E+3
  -3.74134E+3   2.29601E+3
  -2.56337E+3   3.88565E+3
  -5.10099E+3   1.35782E+2
  -8.40443E+2  -3.39750E+3
  -2.17429E+3  -2.97748E+3
   5.03362E+3  -1.12331E+3
   4.22578E+3   1.14836E+2
   3.21597E+3   2.68914E+3
   1.46478E+1   3.97345E+2
   1.29764E+3  -1.43037E+3
   3.31630E+3   7.84681E+1
   2.38922E+1   1.97783E+3
  -7.83850E+2   1.26273E+2
  -2.39811E+2  -3.02472E+3
   5.24444E+2  -8.38568E+2
  -1.60865E+3  -1.12476E+3
  -1.09387E+3  -9.51276E+2
  -1.52171E+3  -1.48946E+3
  -2.03615E+3  -7.87967E+2
   6.64666E+2  -8.52912E+2
  -5.11312E+2   2.62653E+2
  -5.33729E+2  -1.91042E+3
   8.76848E+2  -3.13860E+3
   1.71132E+3  -2.10546E+3
   6.80097E+2   9.25981E+2
  -8.22589E+2  -1.06460E+3
   3.45441E+2  -4.68564E+2
  -1.23166E+3   2.01736E+2
   7.29920E+2   1.64865E+3
  -2.26479E+3  -9.83008E+2
  -3.41697E+3  -2.73812E+3
  -1.98775E+3  -3.69960E+3
   6.36830E+2  -3.01649E+3
   2.09698E+3   3.60905E+2
   1.99827E+3  -4.70821E+2
   1.53779E+3   3.52060E+2
   3.25462E+3  -2.20278E+3
  -4.19478E+2   1.12522E+3
  -2.28050E+3   1.14883E+3
  -6.64265E+2   4.75720E+2
   1.85025E+3  -1.00019E+3
   3.31881E+3  -3.92322E+2
  -4.61747E+2   2.63611E+3
  -1.91934E+3   1.09575E+3
  -9.83704E+2  -2.88383E+3
   2.61259E+2  -2.41750E+3
   2.92734E+3   9.83969E+2
   1.17528E+3   2.25820E+3
  -3.87164E+3   2.03961E+3
  -3.24454E+3  -1.20255E+2
  -8.74767E+2  -6.59353E+2
  -1.20546E+3   6.59997E+2
  -1.75780E+3  -8.37962E+2
  -1.52468E+3  -2.98163E+2
   1.33671E+3  -1.70443E+3
   2.72174E+3   4.85047E+2
   1.46476E+3  -1.02148E+2
  -4.88353E+2   2.66084E+3
   1.09093E+3   9.95520E+2
  -2.19656E+2   9.02731E+2
  -1.81800E+2  -1.25887E+2
  -1.48172E+3  -9.36123E+2
   7.08770E+2  -1.00174E+3
   3.15934E+2   1.55982E+3
   1.23750E+2  -2.83607E+2
  -1.06357E+3   4.52596E+2
  -1.43577E+3   3.53277E+2
  -2.57515E+3   1.74841E+3
   1.12011E+3   1.00401E+3
  -6.51796E+2   1.13862E+3
  -1.95189E+3   1.83390E+3
   9.23645E+2  -1.43197E+3
  -3.60464E+2   1.84821E+3
  -3.51011E+2   1.47230E+3
  -8.17592E+2   1.10885E+3
   3.66351E+2  -6.53485E+2
   2.31117E+2  -1.00553E+3
   3.56919E+3   5.47390E+1
   1.05225E+3   2.76516E+3
   5.81818E+2   1.83209E+3
   9.56156E+2  -6.22036E+1
   8.52798E+2  -1.14886E+3
   3.36126E+1   7.13163E+2
  -1.77904E+2  -1.81400E+2
   6.45712E+2  -5.18918E+2
   2.73235E+3   7.82259E+2
   3.19485E+3   9.26290E+2
  -3.05546E+2   1.72456E+3
  -1.18491E+3   1.11212E+3
   3.41995E+2  -6.29063E+2
  -3.61026E+2   3.76597E+1
  -1.38100E+1   3.60726E+2
   3.10242E+3   2.76369E+2
   4.70233E+2   2.61212E+3
  -1.67862E+3  -4.23936E+2
  -2.11915E+3   1.72447E+3
  -8.56969E+2  -2.00151E+2
   9.53228E+2  -2.17713E+3
   1.35189E+3   1.86799E+2
   5.12940E+2   8.10058E+2
   6.85943E+2   1.43097E+3
  -1.29234E+3  -2.79884E+1
  -7.31557E+2   3.55725E+2
   3.13032E+2  -4.67511E+2
   4.82608E+2   1.41831E+3
  -2.37838E+2   8.61278E+1
   1.28989E+3  -2.90077E+2
   1.85073E+3   6.98853E+2
  -1.78273E+2   1.04196E+3
   6.09090E+2   3.06745E+3
  -2.11440E+3  -1.07480E+3
   9.61253E+2  -1.23799E+3
   8.71360E+2   9.80849E+1
   5.55618E+2   1.25971E+3
  -2.93198E+3  -1.02446E+2
   2.75882E+2   1.50269E+3
   3.11156E+2  -1.52812E+3
   1.28807E+3  -7.39301E+2
   1.56333E+3  -5.41465E+2
  -8.61809E+2   1.75594E+1
   8.17385E+0   3.79934E+2
   5.65122E+2   1.20272E+3
   3.18129E+2   2.85405E+3
  -1.65120E+3   1.23446E+3
  -1.98133E+3   1.27812E+3
   9.61491E+1  -3.10103E+1
   9.74421E+2  -9.48793E+2
   7.45936E+2  -4.02188E+1
  -7.25223E+2  -1.33171E+1
  -2.15511E+2   1.35257E+3
   1.53703E+3   6.65814E+2
  -1.37553E+3   1.03354E+3
  -2.20491E+3  -5.40913E+1
  -1.24451E+3  -1.38689E+3
  -5.40484E+2  -1.19442E+3
  -3.18380E+2  -3.32719E+2
   7.30636E+2  -4.55825E+2
  -1.59764E+3  -4.69043E+2
  -1.18741E+3  -4.66094E+2
  -1.07255E+3   4.55694E+2
   1.71625E+3   9.75188E+2
  -1.55189E+3   7.19805E+2
   6.63232E+2  -6.53423E+2
   3.68825E+3   6.24170E+2
   6.07589E+2   9.42280E+1
  -2.28561E+3   7.92260E+1
  -1.10845E+3  -1.94140E+3
   7.42413E+2  -1.38039E+3
   7.06444E+2  -1.62319E+3
   7.10880E+2  -1.23793E+3
   9.65595E+2  -3.25432E+2
  -1.54128E+3  -1.60177E+3
  -1.67060E+3   5.75883E+1
   1.09629E+3   2.71786E+1
  -6.37516E+2   2.17198E+3
   6.14420E+1  -1.26236E+3
   1.11664E+3  -2.19672E+2
   9.53200E+2  -1.48553E+3
   3.16730E+2  -1.65652E+3
  -8.21518E+2  -3.67881E+2
  -4.39400E+2   9.80958E+2
   6.27883E+2  -1.22033E+3
  -1.06109E+3  -1.43472E+3
   5.50718E+2  -5.37836E+2
  -6.10782E+2  -1.51619E+3
   9.42394E+2  -1.83078E+2
   3.10912E+2   2.03263E+2
  -1.22726E+3  -1.12116E+3
   1.15589E+3  -5.95742E+2
  -2.13939E+2  -1.09922E+3
  -3.06468E+2  -8.09872E+1
  -2.68337E+2   9.78851E-1
  -1.06027E+3  -6.73442E+2
  -2.84262E+3  -9.24318E+2
  -1.19709E+3  -1.07551E+3
  -8.10955E+2  -1.26681E+3
  -1.89575E+3   1.77218E+2
  -6.34598E+2  -1.25289E+3
   8.23583E+1  -4.86246E+2
   3.07420E+1   1.50066E+2
  -1.00361E+3   1.90072E+3
  -7.02297E+2   8.90860E+2
   1.94816E+2  -1.60619E+3
  -5.61691E+2  -1.42857E+2
   1.38152E+3   1.64307E+3
  -6.32936E+2  -1.64021E+2
  -1.38226E+3   1.32427E+3
  -2.51360E+3   5.66806E+2
   3.28814E+1  -1.81344E+3
  -2.61540E+2  -1.57387E+3
  -1.19163E+3  -5.60379E+2
  -3.91881E+2   2.19821E+0
   2.45404E+2  -1.27112E+3
   1.67947E+3  -1.06350E+3
  -2.27352E+3   1.01712E+2
  -1.05447E+3   1.60761E+3
  -6.13446E+2  -2.39697E+3
   1.24279E+3   1.68092E+2
   3.10897E+2  -1.28908E+3
  -1.20415E+3   8.21980E+1
  -3.57887E+2   1.80619E+2
  -4.51606E+2  -4.07425E+2
  -1.28245E+3  -6.58662E+2
  -1.44980E+3   5.45949E+2
  -2.94581E+3   1.88649E+2
  -1.74049E+3   6.05536E+2
   1.41472E+3  -1.10163E+3
   3.36799E+2   3.34905E+2
  -9.04958E+1   8.38417E+2
   2.50022E+2   1.81745E+3
  -4.14368E+2   1.08242E+3
  -1.57719E+3   9.81396E+2
  -9.88169E+2  -7.63650E+2
  -7.37640E+2  -1.51091E+3
   3.63424E+2  -3.04123E+2
   3.12193E+2  -2.03197E+2
  -5.98591E+1   8.68996E+2
  -3.32325E+2   8.45025E+2
  -1.77374E+2   4.47586E+2
  -2.90254E+2   2.33931E+1
   5.83442E+2   5.40733E+2
   1.40748E+2  -1.73253E+2
  -3.78662E+2   2.39154E+3
  -1.36579E+2  -5.24624E+2
  -4.52153E+2  -1.39658E+3
  -7.31926E+2   1.35030E+3
  -1.85427E+2   1.68259E+3
   2.44614E+1   1.65675E+3
  -8.87677E+2  -4.03219E+2
  -1.12652E+3  -1.03745E+3
   1.01398E+3  -1.64415E+2
  -2.52486E+3  -2.63166E+3
  -1.32845E+3  -2.12145E+3
   1.47341E+3  -3.69373E+2
   2.49658E+3  -8.33743E+2
  -2.65587E+2  -8.59587E+2
   6.18994E+2  -7.39867E+2
  -2.35808E+3   1.88496E+3
   2.26768E+3   6.70876E+2
  -1.28258E+2   7.50071E+2
  -1.86612E+2  -9.86838E+2
   8.19618E+2   4.84723E+2
   2.04784E+3   1.83500E+3
  -5.02671E+2   1.19438E+3
  -1.51339E+3  -1.57093E+3
  -9.14350E+2   4.71834E+2
  -1.13491E+3   8.66061E+2
   1.02843E+2   3.98170E+3
  -1.14003E+3  -1.57445E+3
   2.56187E+2  -2.25668E+3
   4.26308E+2  -1.55580E+3
   1.18762E+3   1.21000E+3
   1.26536E+3   7.38498E+2
  -2.13278E+3  -1.13346E+3
  -2.48464E+2  -7.00145E+2
  -5.04585E+2   5.36306E+2
  -9.22913E+2  -5.17870E+2
   6.48312E+1   1.98631E+1
   2.66350E+1   2.12159E+3
  -1.25691E+3  -1.06789E+2
   3.81509E+2   2.02681E+3
  -1.51534E+3   6.02552E+2
  -1.64409E+3   1.06785E+3
  -7.07010E+2  -1.85401E+3
   4.42871E+2   7.62292E+1
   3.79436E+2   6.88511E+2
  -1.06974E+3   8.96859E+2
  -1.95990E+3   8.61771E+2
   9.10308E+2  -3.29175E+3
  -1.05287E+3  -8.28066E+2
  -3.69742E+2  -5.41310E+1
  -2.03682E+3  -5.39359E+2
   2.44610E+3   7.92447E+2
  -1.44642E+3   5.13094E+2
  -1.09480E+3   6.21427E+2
   1.56634E+2   1.41114E+3
  -1.49592E+3   3.05340E+2
   6.56445E+2  -4.68475E+2
   1.51642E+2   1.03729E+3
  -1.59083E+2  -5.40350E+1
  -6.95483E+2  -6.78973E+2
  -1.08759E+3   3.85807E+2
   1.23069E+3  -1.48661E+2
   1.66445E+2   5.52278E+2
  -1.88225E+3  -1.32847E+3
  -2.29930E+2  -1.96873E+3
  -8.33371E+2  -2.17694E+2
   3.62667E+2   7.70297E+2
   1.08094E+3   1.68979E+3
   1.15603E+3   3.70892E+3
  -5.61779E+2  -6.49366E+2
   6.10382E+2   7.96121E+2
  -1.22831E+3   1.63124E+2
   3.47526E+2  -5.40873E+2
  -5.44609E+2  -5.94862E+2
  -1.71522E+2   2.52453E+1
  -1.02989E+3   2.08638E+3
   1.68052E+3  -7.39134E+2
  -4.01569E+2   7.85829E+2
  -3.12293E+1  -1.16392E+3
   1.79506E+3   1.21854E+3
   7.99272E+0  -4.49480E+2
  -1.09540E+3  -4.21857E+2
  -2.56697E+3  -2.67071E+2
  -1.94026E+3  -1.55480E+3
  -5.83243E+1  -2.70550E+1
   4.13122E+2   2.47005E+3
   2.83853E+2  -6.72489E+2
  -3.15743E+2   1.84493E+2
   2.90172E+1  -2.26622E+2
  -8.00581E+0  -1.20667E+3
  -2.53871E+2   3.83545E+2
