 
 $NMID
 ID=''
 FMTDAT='(2E13.5)'
 TRAMP=   1.00000E+0
 VOLUME=   1.00000E+0
 $END
   1.60003E+1   1.83555E+2
  -1.95557E+3   1.01557E+3
   5.27151E+3   1.74180E+3
   1.59825E+3  -4.80058E+2
   1.83835E+2  -4.28017E+2
   7.67385E+2   4.18971E+1
  -2.15504E+3   8.94783E+2
  -1.58983E+3  -2.65125E+3
   1.60236E+3  -6.26060E+2
   2.99074E+3  -2.50612E+2
   3.67913E+3   3.76895E+1
   2.25168E+3   6.06560E+3
  -7.64182E+1   1.49212E+3
  -5.32324E+3  -2.96675E+3
  -2.82068E+3  -3.33875E+3
   4.14651E+2  -8.91021E+2
   1.51787E+3  -5.64406E+2
   8.24850E+2   4.60234E+3
  -2.76458E+3   2.24518E+2
   7.81762E+2   7.56403E+2
   2.76609E+3   3.67190E+3
  -1.29718E+3   4.61715E+3
  -3.51141E+3   1.40436E+3
  -9.81422E+2  -5.19791E+3
   2.84659E+3  -8.87594E+2
   1.11658E+3   2.71458E+3
  -2.28904E+3  -1.13782E+3
  -3.22562E+2  -2.06715E+3
   2.02717E+3  -1.82574E+3
   5.55179E+3   1.15102E+3
   2.35608E+2   7.54803E+3
  -3.54508E+3   4.95543E+3
  -3.32282E+3  -1.50184E+3
   8.71658E+2  -8.79321E+2
  -1.00925E+2  -1.52958E+3
  -4.34375E+2  -4.38473E+3
   4.37908E+3  -3.75053E+3
   4.49051E+3   1.31646E+3
   6.01756E+2   1.39726E+3
  -5.78810E+2   1.27081E+3
  -2.15454E+3   7.33059E+2
  -6.30597E+3  -2.08423E+3
  -1.49776E+3  -3.95440E+3
   2.26376E+3   1.22514E+3
  -1.00705E+3   4.84297E+3
   1.61933E+2   3.95931E+3
  -1.37209E+3   1.99612E+3
  -8.31987E+2   1.40722E+3
  -3.63057E+3   4.49158E+3
  -4.01003E+3   5.93618E+2
  -4.71648E+3  -3.13903E+3
   1.85722E+2  -2.07407E+3
   1.03033E+3  -4.53247E+1
   1.66570E+1   1.92243E+3
  -1.06408E+3  -1.53900E+3
  -1.91020E+3  -2.72035E+3
  -4.05111E+2  -7.36768E+2
  -4.07952E+3  -6.18548E+3
  -1.91762E+2  -7.28254E+3
   3.66901E+3  -4.79178E+3
   3.40113E+3   8.52350E+2
   2.85383E+3   3.26296E+3
  -3.91729E+2   3.33889E+3
  -2.82584E+2  -6.21704E+2
   1.31104E+3   8.38278E+2
   2.00298E+3   1.80154E+3
   4.55929E+2   4.32827E+2
  -2.99448E+3  -2.58321E+2
  -2.76929E+3  -2.34752E+3
   4.37288E+2  -2.82801E+3
  -6.45316E+2  -3.08576E+3
  -1.50191E+3  -1.16737E+3
  -6.08625E+2  -1.64435E+3
   1.69803E+3  -1.60594E+3
   2.55470E+3   1.14679E+3
   2.64985E+3  -3.45542E+2
   4.07216E+2   2.53083E+2
   7.46672E+2  -2.46158E+3
   1.97439E+3   5.19168E+2
   2.59044E+3   4.15828E+3
   6.65456E+2   1.55158E+2
   1.17850E+3  -3.10122E+3
   3.54082E+3   3.82689E+2
  -6.92503E+2   1.64081E+3
  -2.42985E+3   1.17281E+3
  -4.30049E+3  -1.10135E+3
  -1.42597E+3  -2.40409E+3
   3.71378E+3  -4.76268E+2
   4.50832E+3   3.19758E+3
   9.52885E+2   1.48118E+3
   9.04457E+2   1.43724E+3
   3.08537E+2   2.82661E+3
  -2.06393E+3   3.38627E+3
  -2.69530E+3   3.61042E+3
  -3.44990E+3  -1.12496E+3
   6.60366E+2  -1.82792E+3
   9.45722E+2  -3.24762E+2
   6.69406E+2   1.68480E+3
  -3.77841E+3   2.58130E+3
  -1.89700E+3  -3.93173E+3
  -1.12208E+2  -4.91538E+3
   3.19683E+3  -8.36022E+2
   7.28065E+2   2.31476E+3
  -2.26316E+3   2.60284E+3
  -1.61314E+3   1.30814E+3
   1.63961E+3  -2.00212E+3
  -1.26521E+3  -1.00718E+3
   4.54587E+2  -5.53355E+2
   6.81873E+2  -2.33020E+3
   2.64900E+3  -2.09233E+3
   3.79011E+3   9.14708E+2
   1.51695E+3   3.40734E+3
   1.11357E+3   1.66779E+3
  -4.26746E+2   1.27533E+3
   8.06967E+2   3.03730E+3
  -1.97993E+3  -7.20097E+1
  -8.90348E+2   6.31981E+2
  -6.63758E+1  -8.52813E+2
   1.06674E+3   1.03391E+2
   7.24566E+2  -1.37226E+3
  -4.25993E+2   1.51004E+3
  -1.33056E+3   4.81793E+2
   7.15520E+2  -3.47157E+2
   7.97228E+2  -3.29041E+2
   1.86427E+3   1.01171E+3
  -8.29762E+1   1.44677E+3
   6.81542E+2  -1.77655E+3
   5.31039E+2  -1.38281E+3
   1.35474E+3   1.00861E+3
  -1.94327E+3   7.03172E+2
  -8.96529E+2  -2.92143E+3
   1.70218E+3  -2.62756E+3
   2.23812E+3   2.49404E+3
   2.34881E+3   2.70126E+3
  -8.82256E+1   1.05663E+3
  -2.94672E+3  -1.60048E+3
   1.40233E+2  -2.01554E+3
  -7.33156E+2  -1.85758E+3
  -1.46283E+3   2.00652E+2
   2.90362E+2  -8.29376E+2
   2.41329E+2  -1.03510E+3
   7.90642E+2  -1.71986E+3
   3.69552E+3   1.83509E+3
  -2.85112E+2   3.05270E+3
  -1.28199E+3  -4.63149E+2
   7.85727E+2  -2.01030E+3
   1.57275E+3   1.00746E+3
  -6.15422E+2   7.82646E+2
   2.62698E+2  -4.22678E+2
  -1.21056E+3   1.59137E+3
  -1.80687E+3   1.49604E+3
  -1.97122E+3  -1.50398E+3
   1.21922E+3  -1.86006E+3
  -6.84138E+0  -5.00162E+2
   2.29803E+3   2.34738E+3
  -7.83196E+2   3.79990E+3
  -1.63619E+3   1.08829E+3
  -1.69991E+3   9.80944E+2
  -8.39498E+2  -1.21711E+2
  -1.02498E+3  -6.43235E+2
   2.00720E+2  -1.32210E+3
   2.28856E+3   4.37214E+2
  -9.14050E+1  -1.21509E+3
   5.44688E+2   1.42654E+2
  -1.89770E+3   9.31357E+2
  -1.38912E+3  -1.70412E+3
  -1.93871E+3  -4.19012E+3
   2.32473E+2  -1.71790E+3
   8.01407E+2   1.32663E+3
  -1.31801E+3   1.72166E+3
  -1.33699E+3  -1.31116E+3
   4.27725E+2  -3.11674E+3
   1.66862E+2  -6.70210E+1
   3.74797E+2  -2.60557E+3
  -1.60040E+3   5.08640E+2
   5.16752E+2  -1.31720E+3
   1.48760E+3  -1.41735E+3
   6.18786E+2   2.96703E+3
  -1.25069E+3   2.56341E+3
  -1.91017E+3   4.43717E+1
  -1.24586E+0  -6.27276E+2
   2.33280E+2  -1.75536E+3
  -2.75912E+2   1.37671E+2
   9.74355E+2   2.11217E+2
   1.54954E+3  -1.01471E+3
   1.04132E+3   1.04394E+3
   1.04159E+3   1.16228E+3
  -7.54064E+2   1.43898E+3
  -1.12996E+3  -2.88543E+3
  -5.54358E+2  -6.05670E+2
   8.32870E+2  -1.79386E+3
  -4.37010E+2  -4.76341E+2
  -2.10777E+3  -4.76658E+1
   8.15522E+2   8.14441E+2
   1.77252E+3   3.25221E+2
   2.85266E+3  -7.02352E+2
  -1.27249E+2   1.79472E+3
  -2.34428E+2  -1.07494E+3
   8.32916E+2  -1.20155E+2
   3.49359E+3   1.48926E+3
  -1.86469E+1   2.95717E+3
  -1.62955E+2   9.44823E+2
  -1.89507E+3  -1.70777E+3
   1.47479E+3  -1.43590E+3
   2.39985E+3  -1.36371E+2
   2.61980E+2  -5.13192E+2
  -1.73790E+3  -2.93275E+2
   1.21709E+3  -4.19814E+2
   8.26550E+2   5.98777E+2
   1.17604E+2   3.93367E+2
  -1.93003E+3  -1.32158E+3
  -1.42387E+3  -1.08221E+3
   1.61049E+3  -7.55603E+2
   1.30054E+3  -7.33138E+2
   1.48617E+2   4.47398E+2
  -6.61717E+2   1.10229E+3
  -7.42126E+2   4.79620E+2
  -8.81173E+2   1.57357E+3
   1.61359E+3   2.30593E+2
  -1.01996E+3   5.30073E+2
  -2.44691E+3  -7.75315E+2
  -2.62114E+2  -2.44763E+2
  -4.40347E+2   2.08841E+3
   5.99151E+2   9.07974E+2
  -1.38695E+3  -1.41915E+3
  -7.15091E+2  -5.54476E+2
   1.52542E+3   4.90748E+2
   6.54526E+1   2.24929E+3
  -7.11561E+2   2.40887E+3
  -3.67017E+3   4.85782E+2
  -6.60350E+2  -1.58393E+3
   1.36670E+3   2.12781E+3
  -1.14321E+3   2.98621E+2
   1.98330E+2  -1.04845E+3
  -6.28844E+2  -3.33639E+2
   1.70483E+3  -6.55202E+1
   8.78483E+2   1.76034E+3
  -1.16587E+3   2.30740E+2
  -9.53546E+2  -1.97864E+3
   3.00918E+2  -7.19070E+2
   1.91244E+2  -3.56590E+2
  -4.27728E+2   1.44728E+3
   6.96248E+2   1.99366E+2
  -2.93598E+2  -2.29440E+3
   2.10525E+2  -1.19488E+3
   1.24084E+3   1.71706E+2
  -1.64717E+3  -5.09333E+2
  -1.07035E+3  -3.06943E+3
   5.81415E+2   5.65318E+2
   1.29294E+3   2.23981E+3
  -1.12476E+3   1.95953E+3
  -3.17613E+3  -1.89168E+3
  -2.12670E+3   1.68506E+2
  -2.61775E+2  -4.70745E+2
   1.41857E+3  -2.10934E+3
  -4.76828E+2   4.85652E+2
  -3.21818E+2  -2.30708E+2
   1.03237E+2  -9.31835E+2
   2.17252E+3   1.55004E+3
  -2.64710E+3   6.81223E+2
   1.74844E+2   5.91157E+2
   1.29673E+3  -1.71149E+3
  -5.49446E+2  -6.82266E+1
   1.22392E+3   2.22878E+3
  -2.05102E+3   1.37090E+3
   6.56308E+2  -1.37099E+3
   2.05828E+3  -3.61989E+2
  -7.00729E+2   1.14950E+2
  -2.76394E+2  -4.12295E+2
  -1.90490E+3  -4.21964E+2
  -1.25438E+3  -4.80907E+2
   1.99683E+3   1.23556E+3
   1.38563E+3   1.00458E+3
   1.32781E+3   1.98182E+3
  -7.18045E+2   5.45591E+1
  -1.11444E+3  -1.21762E+3
  -3.83875E+2  -7.32027E+2
  -3.79365E+1  -7.65446E+2
  -1.82311E+3  -1.96084E+2
   8.43362E+2  -9.45668E+2
   1.24008E+2   1.10064E+3
   2.23569E+3   1.04538E+3
  -4.56383E+2  -4.24672E+2
   1.19177E+2  -1.11061E+3
   4.51249E+2   9.42868E+2
   5.95753E+2   1.01770E+3
  -2.53772E+2   5.69545E+2
  -1.43159E+3   1.21866E+3
   1.07359E+3   9.94629E+2
  -2.76806E+2   1.07820E+2
   9.42559E+1   3.00311E+2
   6.79534E+2   5.00021E+2
  -1.58910E+3  -7.46671E+2
   6.51921E+2   1.23314E+3
   4.41024E+2   2.50779E+3
  -1.86689E+3   5.15569E+2
  -1.27012E+3   6.61064E+2
  -9.75752E+2   8.50111E+2
   5.35438E+2  -1.21704E+2
  -1.78345E+2  -2.20247E+2
   7.79579E+2  -6.35835E+2
  -2.78819E+2  -1.14374E+3
   6.66372E+2  -1.61426E+3
  -2.51979E+2   6.42855E+2
  -1.17716E+3   1.52669E+3
  -5.66185E+0   2.01193E+2
  -2.54017E+2  -2.28508E+2
   1.04697E+3   9.53390E+2
  -3.37830E+2   1.25420E+3
  -5.80981E+1  -9.62521E+2
  -2.31611E+1  -6.95314E+2
   1.11499E+3   9.86358E+2
   8.22608E+2   1.92151E+3
  -1.09064E+3   1.35541E+3
  -9.51126E+1  -1.83023E+2
  -1.79982E+2   2.18415E+2
   1.90456E+2   7.53280E+2
  -1.19486E+3   4.91549E+2
  -9.38556E+2  -1.01121E+3
   1.24167E+3  -8.38773E+2
   1.81759E+3   6.13617E+2
   2.86233E+3   6.32659E+2
   4.58913E+2  -1.30597E+3
  -1.46593E+3  -5.60704E+2
   5.67386E+2  -5.97918E+2
   2.19287E+2   3.14941E+3
  -2.14125E+2   1.18869E+3
  -2.06947E+3  -1.83163E+3
   4.58908E+2   1.22847E+3
   7.59732E+2   8.44458E+2
  -1.64070E+2  -9.55890E+2
  -4.45776E+1   2.12607E+2
   9.23141E+2   6.93654E+2
  -4.33687E+2   2.10512E+3
   2.56502E+2   4.01426E+2
   5.41450E+2  -2.37251E+2
  -6.41596E+2   3.59502E+2
   5.04147E+2  -2.58883E+2
   4.91633E+2   9.68837E+2
   4.55065E+2   3.19763E+3
  -1.51987E+3   1.52171E+3
  -1.86004E+3  -2.05140E+2
   2.10289E+3   4.90762E+2
   9.93714E+2  -3.50909E+2
   1.38847E+3   3.37636E+2
   9.74506E+2   2.37823E+3
   8.73391E+2   2.75091E+2
   2.58069E+3  -1.96147E+3
  -4.13461E+2  -5.01222E+1
  -1.28239E+3  -6.27724E+2
  -2.16965E+3   4.28821E+2
   7.96659E+2  -1.40039E+3
   1.37550E+3   9.66198E+2
   2.08444E+2   1.58605E+3
   3.17819E+2  -1.39782E+3
   5.56849E+2  -1.75310E+3
   1.24660E+3  -8.19068E+1
   9.55560E+2   1.51373E+2
  -4.03084E+2   1.61932E+2
   7.52277E+2   8.11187E+2
   3.39847E+2   5.55189E+1
  -6.93257E+2   7.76522E+2
  -1.06324E+3   7.38226E+2
  -1.18529E+3   7.90308E+2
   5.81985E+2  -9.00203E+2
   1.07018E+3   1.03900E+3
   7.24384E+2   6.50195E+2
