 LCModel (Version 6.3-1N) Copyright: S.W. Provencher.          Ref.: Magn. Reson. Med. 30:672-679 (1993).                
 Slice_N1@26_18  02-Jun-2023 14:38:05
 27 lines in following concentration table = NCONC+1
    Conc.  %SD /Cr+PCr  Metabolite                                         
 9.30E-07  44% 2.5E-04 Mac                                                 
 2.95E-02  37%   8.000 Cr                                                  
    0.000 999%   0.000 PCr                                                 
 9.00E-02  19%  24.400 Ins                                                 
 7.34E-02  16%  19.907 NAA                                                 
 7.59E-02  24%  20.574 Tau                                                 
    0.000 999%   0.000 PCho                                                
 1.20E-02  31%   3.258 GPC                                                 
    0.109  16%  29.639 Glu                                                 
    0.000 999%   0.000 Gln                                                 
 1.59E-02  82%   4.304 Ala                                                 
 2.28E-02  96%   6.179 Asc                                                 
 6.78E-03 113%   1.838 Asp                                                 
 7.41E-03  61%   2.010 GABA                                                
 5.62E-03  84%   1.525 Glc                                                 
 8.20E-04 569%   0.222 GSH                                                 
    0.000 999%   0.000 Lac                                                 
    0.000 999%   0.000 NAAG                                                
    0.000 999%   0.000 PE                                                  
 1.20E-02  31%   3.258 GPC+PCho                                            
 7.34E-02  16%  19.907 NAA+NAAG                                            
    0.109  18%  29.639 Glu+Gln                                             
 2.95E-02  37%   8.000 Cr+PCr                                              
 7.34E-02  16%  19.907 NAA+NAAG                                            
 2.95E-02  37%   8.000 Cr+PCr                                              
    0.109  18%  29.639 Glu+Gln                                             
   6 lines in following misc. output table
  FWHM = 0.093 ppm    S/N =   1                                            
  Data shift =-0.006 ppm                                                   
  Ph: 128 deg      16.9 deg/ppm                                            
  alphaB,S = 3.1E+01,   5.1E+01                                            
   18 spline knots.   Ns = 8(2)                                            
   2 inflections.     1 extrema                                            
  654 points on ppm-axis = NY
      4.000000     3.994181     3.988363     3.982544     3.976726     3.970907     3.965088     3.959270     3.953451     3.947633
      3.941814     3.935995     3.930177     3.924358     3.918540     3.912721     3.906902     3.901084     3.895265     3.889446
      3.883628     3.877809     3.871991     3.866172     3.860353     3.854535     3.848716     3.842898     3.837079     3.831260
      3.825442     3.819623     3.813805     3.807986     3.802167     3.796349     3.790530     3.784712     3.778893     3.773074
      3.767256     3.761437     3.755619     3.749800     3.743981     3.738163     3.732344     3.726526     3.720707     3.714888
      3.709070     3.703251     3.697433     3.691614     3.685795     3.679977     3.674158     3.668339     3.662521     3.656702
      3.650884     3.645065     3.639246     3.633428     3.627609     3.621791     3.615972     3.610153     3.604335     3.598516
      3.592698     3.586879     3.581060     3.575242     3.569423     3.563605     3.557786     3.551967     3.546149     3.540330
      3.534512     3.528693     3.522874     3.517056     3.511237     3.505419     3.499600     3.493781     3.487963     3.482144
      3.476326     3.470507     3.464688     3.458870     3.453051     3.447232     3.441414     3.435595     3.429777     3.423958
      3.418139     3.412321     3.406502     3.400684     3.394865     3.389046     3.383228     3.377409     3.371591     3.365772
      3.359953     3.354135     3.348316     3.342498     3.336679     3.330860     3.325042     3.319223     3.313405     3.307586
      3.301767     3.295949     3.290130     3.284312     3.278493     3.272674     3.266856     3.261037     3.255219     3.249400
      3.243581     3.237763     3.231944     3.226125     3.220307     3.214488     3.208670     3.202851     3.197032     3.191214
      3.185395     3.179577     3.173758     3.167939     3.162121     3.156302     3.150484     3.144665     3.138846     3.133028
      3.127209     3.121391     3.115572     3.109753     3.103935     3.098116     3.092298     3.086479     3.080660     3.074842
      3.069023     3.063205     3.057386     3.051567     3.045749     3.039930     3.034111     3.028293     3.022474     3.016656
      3.010837     3.005018     2.999200     2.993381     2.987563     2.981744     2.975925     2.970107     2.964288     2.958470
      2.952651     2.946832     2.941014     2.935195     2.929377     2.923558     2.917739     2.911921     2.906102     2.900284
      2.894465     2.888646     2.882828     2.877009     2.871191     2.865372     2.859553     2.853735     2.847916     2.842098
      2.836279     2.830460     2.824642     2.818823     2.813004     2.807186     2.801367     2.795549     2.789730     2.783911
      2.778093     2.772274     2.766456     2.760637     2.754818     2.749000     2.743181     2.737363     2.731544     2.725725
      2.719907     2.714088     2.708270     2.702451     2.696632     2.690814     2.684995     2.679177     2.673358     2.667539
      2.661721     2.655902     2.650084     2.644265     2.638446     2.632628     2.626809     2.620991     2.615172     2.609353
      2.603535     2.597716     2.591897     2.586079     2.580260     2.574442     2.568623     2.562804     2.556986     2.551167
      2.545349     2.539530     2.533711     2.527893     2.522074     2.516256     2.510437     2.504618     2.498800     2.492981
      2.487163     2.481344     2.475525     2.469707     2.463888     2.458070     2.452251     2.446432     2.440614     2.434795
      2.428977     2.423158     2.417339     2.411521     2.405702     2.399884     2.394065     2.388246     2.382428     2.376609
      2.370790     2.364972     2.359153     2.353335     2.347516     2.341697     2.335879     2.330060     2.324242     2.318423
      2.312604     2.306786     2.300967     2.295149     2.289330     2.283511     2.277693     2.271874     2.266056     2.260237
      2.254418     2.248600     2.242781     2.236963     2.231144     2.225325     2.219507     2.213688     2.207870     2.202051
      2.196232     2.190414     2.184595     2.178777     2.172958     2.167139     2.161321     2.155502     2.149683     2.143865
      2.138046     2.132228     2.126409     2.120590     2.114772     2.108953     2.103135     2.097316     2.091497     2.085679
      2.079860     2.074042     2.068223     2.062404     2.056586     2.050767     2.044949     2.039130     2.033311     2.027493
      2.021674     2.015856     2.010037     2.004218     1.998400     1.992581     1.986763     1.980944     1.975126     1.969307
      1.963489     1.957670     1.951852     1.946033     1.940215     1.934397     1.928578     1.922760     1.916941     1.911123
      1.905304     1.899486     1.893667     1.887849     1.882030     1.876212     1.870393     1.864575     1.858756     1.852938
      1.847119     1.841301     1.835482     1.829664     1.823845     1.818027     1.812208     1.806390     1.800571     1.794753
      1.788934     1.783116     1.777297     1.771479     1.765660     1.759842     1.754023     1.748205     1.742386     1.736568
      1.730749     1.724931     1.719113     1.713294     1.707476     1.701657     1.695839     1.690020     1.684202     1.678383
      1.672565     1.666746     1.660928     1.655109     1.649291     1.643472     1.637654     1.631835     1.626017     1.620198
      1.614380     1.608561     1.602743     1.596924     1.591106     1.585287     1.579469     1.573650     1.567832     1.562013
      1.556195     1.550376     1.544558     1.538739     1.532921     1.527102     1.521284     1.515465     1.509647     1.503829
      1.498010     1.492192     1.486373     1.480555     1.474736     1.468918     1.463099     1.457281     1.451462     1.445644
      1.439825     1.434007     1.428188     1.422370     1.416551     1.410733     1.404914     1.399096     1.393277     1.387459
      1.381640     1.375822     1.370003     1.364185     1.358366     1.352548     1.346729     1.340911     1.335092     1.329274
      1.323455     1.317637     1.311818     1.306000     1.300182     1.294363     1.288545     1.282726     1.276908     1.271089
      1.265271     1.259452     1.253634     1.247815     1.241997     1.236178     1.230360     1.224541     1.218723     1.212904
      1.207086     1.201267     1.195449     1.189630     1.183812     1.177993     1.172175     1.166356     1.160538     1.154719
      1.148901     1.143082     1.137264     1.131445     1.125627     1.119808     1.113990     1.108171     1.102353     1.096534
      1.090716     1.084898     1.079079     1.073261     1.067442     1.061624     1.055805     1.049987     1.044168     1.038350
      1.032531     1.026713     1.020894     1.015076     1.009257     1.003439     0.997620     0.991802     0.985983     0.980165
      0.974346     0.968528     0.962709     0.956891     0.951072     0.945254     0.939435     0.933617     0.927798     0.921980
      0.916161     0.910343     0.904524     0.898706     0.892887     0.887069     0.881251     0.875432     0.869614     0.863795
      0.857977     0.852158     0.846340     0.840521     0.834703     0.828884     0.823066     0.817247     0.811429     0.805610
      0.799792     0.793973     0.788155     0.782336     0.776518     0.770699     0.764881     0.759062     0.753244     0.747425
      0.741607     0.735788     0.729970     0.724151     0.718333     0.712514     0.706696     0.700877     0.695059     0.689240
      0.683422     0.677603     0.671785     0.665967     0.660148     0.654330     0.648511     0.642693     0.636874     0.631056
      0.625237     0.619419     0.613600     0.607782     0.601963     0.596145     0.590326     0.584508     0.578689     0.572871
      0.567052     0.561234     0.555415     0.549597     0.543778     0.537960     0.532141     0.526323     0.520504     0.514686
      0.508867     0.503049     0.497230     0.491412     0.485593     0.479775     0.473956     0.468138     0.462319     0.456501
      0.450682     0.444864     0.439045     0.433227     0.427408     0.421590     0.415771     0.409953     0.404134     0.398316
      0.392497     0.386679     0.380860     0.375042     0.369223     0.363405     0.357586     0.351767     0.345949     0.340130
      0.334312     0.328493     0.322675     0.316856     0.311038     0.305219     0.299401     0.293582     0.287764     0.281945
      0.276127     0.270308     0.264490     0.258671     0.252853     0.247034     0.241216     0.235397     0.229579     0.223760
      0.217942     0.212123     0.206305     0.200486
 NY phased data points follow
  -2.96757E-01  1.62855E-01  1.82663E-01 -4.99102E-02  4.30969E-02 -1.27679E-01 -1.57718E-01 -9.81090E-02 -7.55812E-02 -3.36086E-01
  -9.47664E-02 -2.98787E-01 -2.54453E-01  9.69896E-02 -2.09897E-01  7.74144E-02  1.19136E-01  2.35500E-01  2.40355E-01  3.10040E-01
   2.13381E-01  1.36510E-01  7.39047E-02 -8.34617E-02  1.73900E-01  1.79142E-01  2.77444E-01 -1.06726E-01  1.18881E-01  4.64243E-02
  -7.61196E-02  2.43559E-01 -3.47338E-01 -1.05521E-01 -7.57904E-02 -4.65738E-01 -1.54917E-01 -9.72303E-02 -9.17501E-02  1.51678E-01
  -2.09296E-01 -1.56528E-01  4.50976E-02 -3.51091E-01 -2.05029E-01  1.87815E-01  1.27148E-01 -2.20323E-01  1.23659E-01  1.76670E-01
  -3.75927E-02  2.36557E-01  2.81183E-02  1.01731E-01  6.26547E-01  2.59352E-01 -5.66558E-02  1.34103E-01 -1.95997E-01  1.48394E-01
  -1.90217E-01 -3.03318E-01  2.63553E-01 -3.06879E-01  1.82839E-01  4.37317E-01  1.21793E-01 -5.53144E-02 -1.35402E-01 -1.16128E-01
  -1.76103E-01 -1.66190E-01 -2.82736E-01  8.91856E-02 -6.93589E-02 -7.71033E-02  1.04020E-01 -1.05597E-04 -1.55377E-01  8.41001E-02
   2.40749E-01  2.76092E-01  1.70886E-02 -5.57897E-01  2.37342E-01  2.45983E-01 -2.58790E-02  5.53629E-02  9.36883E-02 -9.21274E-02
  -2.35277E-01  1.20635E-01  1.47834E-02  1.75885E-01 -7.69852E-02  7.90115E-02  2.05904E-02 -2.43102E-01  1.67561E-01  8.84709E-02
   2.38843E-01  5.09326E-01  3.41067E-01 -1.17138E-01 -7.04001E-02  3.27881E-01  2.22029E-01  1.39070E-01 -1.14031E-02  8.53162E-02
  -3.16645E-02 -1.89461E-01 -2.25035E-02 -6.67039E-04  4.99602E-01 -1.63931E-01  1.90526E-01  6.58269E-01  1.75565E-02  3.09906E-01
   7.07977E-02  1.42655E-01 -1.56819E-03 -1.15845E-01 -1.39094E-01 -6.75299E-02 -8.77117E-02 -1.32174E-01 -2.72170E-01 -3.22287E-01
  -2.20024E-01 -8.73890E-01 -3.76368E-01 -2.43903E-01 -4.55547E-01 -4.00295E-01 -3.39301E-01 -2.71014E-01 -5.68418E-01 -6.07522E-01
  -2.98211E-01 -3.55327E-01 -6.09156E-01 -2.66733E-01 -3.05290E-01 -1.02208E-01 -2.87085E-01 -4.52284E-01 -1.21788E-01 -4.15280E-02
  -2.30206E-01 -1.66614E-01  1.78484E-02  1.07823E-03  1.31296E-01 -4.04674E-02  1.31318E-01  1.12940E-01  2.08978E-01 -6.23110E-02
   1.38217E-01  7.17810E-01  1.16547E-01  1.24701E-01  4.18332E-01  2.94901E-01  3.14166E-01  3.76108E-01  1.05625E-01  3.57437E-01
   3.94524E-01  2.81045E-02  5.04234E-01  3.66814E-01 -3.81025E-01 -5.17015E-01 -4.98999E-01 -2.09312E-01 -1.70837E-01 -7.61064E-02
   5.57227E-02 -5.77024E-02  4.57786E-02 -1.13966E-01  1.48083E-01 -5.12114E-02 -8.10585E-02 -1.24446E-01 -4.47759E-01 -1.69453E-01
  -2.29384E-01 -1.66794E-01 -1.41339E-02 -2.23095E-02 -3.06096E-01 -5.45872E-02  4.88861E-02 -2.75346E-01  1.22667E-01  1.91807E-01
  -2.53206E-01 -4.12146E-02 -5.11115E-02  1.59660E-02 -1.93729E-02 -3.48719E-01  5.91533E-02  5.89101E-03  2.24155E-01  4.13088E-03
  -8.79925E-02 -2.20606E-03 -2.92821E-02  6.63489E-02 -3.05496E-01 -1.49990E-01 -2.38567E-01  2.66075E-01  1.66887E-01 -8.31324E-02
   3.20138E-01 -8.41241E-02 -1.27125E-01  3.76296E-01  2.95907E-02 -6.96227E-02  1.46477E-01  3.91071E-02  1.52412E-01 -2.16582E-01
   3.95198E-01  1.93408E-01 -1.88907E-01  1.95691E-02 -9.35453E-02  2.91890E-01  6.44075E-02  3.73057E-02  1.74919E-01  2.28599E-01
  -9.04245E-02 -3.77482E-02  2.53473E-01  2.06594E-01  1.09382E-01  1.42203E-01  1.49062E-01  5.72219E-02  1.28777E-03 -1.00207E-01
   1.32006E-01  1.36775E-01  1.13776E-01 -7.71444E-02 -9.60251E-02 -1.43328E-02  2.73668E-01  2.13106E-01  1.71529E-01 -2.63510E-02
  -1.92545E-01  1.42837E-01 -1.43345E-01  2.25685E-01  2.63784E-02 -6.47840E-02 -4.36440E-02  8.04847E-02  5.65432E-02 -1.41643E-01
   9.36157E-02 -2.00252E-01  2.67077E-01  3.53315E-02 -2.81223E-01 -4.40900E-02  6.51564E-02 -1.31093E-01 -2.62469E-01  1.71787E-01
   1.13106E-01 -2.40674E-01 -3.01579E-01 -1.69204E-01 -1.58972E-01 -2.30752E-01 -1.68278E-01 -7.11533E-02 -1.03429E-01  3.22523E-01
   1.78157E-01  6.05835E-02  2.57599E-01  1.03922E-01  1.10981E-01  2.42886E-01  6.53737E-02  1.92815E-01  6.91151E-01  2.15946E-01
   1.88262E-01  3.95158E-01  4.57732E-01  1.62479E-01  2.84068E-01  7.68805E-01  4.11365E-01  4.39852E-01  6.17946E-01  6.23945E-01
   3.09726E-01  3.38669E-01  3.47704E-01  3.44835E-01  1.53809E-01 -3.88756E-02  3.40661E-01 -9.17665E-02 -1.28623E-01  2.50809E-01
   3.15810E-02 -6.78166E-02 -3.16929E-02  7.89933E-02  2.82202E-01  1.71683E-01 -2.95745E-01 -3.30200E-02  8.63529E-02 -2.39463E-01
  -3.00228E-01 -1.99025E-01  1.11203E-01 -2.45771E-01 -9.36565E-02 -2.33140E-01 -2.09088E-01  1.72935E-01 -2.42941E-01 -3.22478E-01
  -3.71946E-01 -5.96750E-01 -8.52151E-01 -3.63649E-01 -4.85837E-01 -3.11435E-01 -3.50149E-01 -5.57844E-01 -4.04008E-01 -8.55281E-01
  -4.77021E-01 -1.00024E-01  3.18097E-02 -1.13999E-01  7.30001E-02  3.55098E-02  1.57553E-01  6.17019E-03 -1.70607E-01  4.11866E-02
   5.34152E-02 -1.61891E-01 -3.03519E-01  1.10761E-01 -2.45074E-01  3.17262E-03 -2.10726E-01 -1.40403E-01  9.85114E-02  6.13148E-02
   7.20212E-02 -6.27597E-02  8.09318E-02 -3.33033E-01 -1.60510E-01  1.42934E-01  1.47979E-01 -1.83886E-01 -9.06727E-02 -2.70148E-02
   2.82253E-01 -1.71423E-01 -3.50425E-01  4.56518E-03 -2.10443E-01  3.07970E-01 -7.15181E-02 -3.60226E-01  1.45656E-01  3.21315E-01
  -2.13370E-01  2.93157E-01  1.42994E-01  5.19049E-02  3.27615E-01  2.69603E-01  5.03199E-01  1.22980E-01  3.82515E-01  1.23017E-01
   5.64364E-01  4.03566E-01  9.68997E-02  1.51241E-01  1.29881E-01  2.20191E-01  1.03378E-01  1.39114E-01 -4.23376E-01 -6.34599E-02
  -1.74174E-01  2.84103E-01  3.60012E-01 -1.67251E-01  1.33089E-02 -9.57459E-02 -5.01354E-02 -5.18222E-02 -2.63032E-02  1.35490E-02
   1.13769E-01  3.06053E-03  2.62592E-01 -1.15122E-01 -1.11517E-01 -1.20792E-01 -5.17656E-01 -1.58077E-01 -1.95613E-01  5.98347E-02
   1.42577E-01  2.34235E-01  2.49158E-01 -1.73781E-01 -1.55157E-01  2.08271E-01 -2.15738E-01 -1.17241E-01  3.09099E-01  1.84418E-01
   3.12923E-01 -3.71877E-01 -2.73982E-02  3.22939E-01  3.68368E-01  4.01160E-01 -1.36617E-01  3.93892E-01  3.14117E-01  1.65181E-01
   2.06799E-01  2.56966E-01  1.35331E-01 -3.14739E-02  3.38953E-01  2.68310E-01 -9.27975E-02 -2.80695E-01 -6.95241E-02 -4.00671E-02
   3.79709E-02 -7.32948E-02 -4.31084E-02 -3.08055E-01 -1.11668E-01  3.54956E-01 -1.15313E-01 -3.58825E-02 -6.42881E-02  5.83861E-03
   6.64991E-02  1.13989E-02 -2.77469E-01 -2.03941E-01 -2.42262E-02  3.22241E-02 -2.46792E-01 -5.82637E-01  3.17020E-01 -1.80362E-01
  -1.01174E-01  2.34389E-01 -1.13666E-01  1.99217E-01 -1.60379E-01 -1.37260E-01 -2.70535E-01 -1.76502E-01  1.33245E-01  1.57822E-02
   3.03301E-02  6.28130E-02  1.60556E-01 -1.69333E-01 -1.38642E-01  2.41854E-01 -2.34686E-01 -2.27901E-01  1.35907E-01 -2.59339E-01
  -1.55633E-03  1.74978E-02 -1.65741E-01  4.68709E-01  3.13807E-01  1.67632E-01  2.41084E-01  1.51925E-01  1.90810E-01 -1.75452E-01
   2.39684E-01  5.53347E-01 -2.92492E-01 -3.42271E-01  1.66879E-01  9.93404E-02 -3.41911E-02  1.36825E-01  8.05499E-03 -2.75647E-01
   1.29888E-01 -2.06042E-01 -1.42928E-01  4.04290E-01 -3.49108E-01 -2.29724E-01  3.03106E-01  2.83880E-01 -3.70625E-02 -2.50511E-01
  -3.95406E-01 -4.77069E-01 -2.15631E-02 -1.18202E-01 -4.06023E-01 -8.20875E-02  1.29130E-01 -1.28618E-01 -1.63500E-01 -3.51943E-01
  -4.07013E-01  2.21480E-02  2.13099E-01  2.05218E-01  5.79819E-02  3.38541E-02  6.48872E-02 -3.88046E-01 -1.38059E-01  2.82190E-01
   2.50479E-01  1.12537E-01 -4.52080E-01  1.28545E-01  2.96729E-01  1.80186E-01 -3.67333E-02  1.27328E-01  7.06325E-01  1.02580E-02
   1.76105E-01  1.05407E-01 -3.68057E-02  2.44500E-01  4.54190E-01  2.06821E-02 -3.83099E-01  1.27953E-01 -1.56124E-01 -5.09924E-02
   1.57601E-01 -4.00061E-02 -7.31942E-02 -1.12914E-01  3.02982E-02  1.94206E-01  9.00930E-02 -9.93997E-02 -1.55644E-02  8.55498E-02
   1.75998E-01  1.40587E-01  3.89589E-02  2.01566E-01 -3.10632E-01 -1.23652E-02  7.12050E-01 -8.95726E-02 -1.63315E-01  8.68515E-02
   8.71987E-02  2.33224E-01 -1.72760E-01 -2.75749E-01  1.53499E-01 -9.92534E-02 -3.90891E-02 -3.64894E-02 -1.07369E-01  2.22264E-01
   4.60839E-02  2.32983E-01 -1.43472E-01 -2.33116E-02  5.48945E-02  1.62569E-01  1.20482E-01 -3.25163E-01 -6.87543E-02 -1.22241E-01
  -3.51494E-02 -1.56047E-01  2.15256E-01 -1.66802E-01 -3.29033E-02  2.39684E-01 -1.20393E-01  1.35761E-01 -3.60803E-01 -2.95039E-01
  -8.06541E-02 -3.59378E-02 -1.68144E-01  9.51331E-02  1.83238E-01  1.03948E-01  2.49213E-01  4.09940E-02  1.02415E-01 -2.71272E-01
  -6.23704E-02  1.37395E-01  2.01973E-01  2.11643E-01 -2.99702E-01  9.98176E-02 -3.73282E-02 -1.54455E-01  2.87455E-01  2.32204E-01
   3.90639E-01  2.81430E-02 -1.38838E-01 -2.48690E-02  2.13599E-01  4.64917E-01 -3.80552E-02 -1.04007E-03  1.68924E-01  1.48291E-01
   1.60489E-01 -5.50638E-02 -2.40139E-01 -4.58014E-02
 NY points of the fit to the data follow
   9.95377E-02  7.84792E-02  7.40527E-02  6.12692E-02  5.43516E-02  5.24286E-02  3.88592E-02  5.17694E-02  3.00230E-02  6.36496E-02
   3.81903E-02  9.06339E-02  4.89215E-02  1.13435E-01  5.74730E-02  1.28590E-01  6.26541E-02  1.39260E-01  6.57550E-02  1.48172E-01
   6.70126E-02  1.45876E-01  6.09952E-02  1.21476E-01  4.44974E-02  8.49126E-02  2.01504E-02  4.14324E-02 -1.26355E-02 -1.01201E-02
  -5.09976E-02 -6.57369E-02 -8.69517E-02 -1.15652E-01 -1.11589E-01 -1.37205E-01 -1.19087E-01 -1.43392E-01 -1.11565E-01 -1.33918E-01
  -8.88173E-02 -1.09615E-01 -5.58357E-02 -7.71630E-02 -2.13224E-02 -4.17105E-02  1.35076E-02 -4.08073E-03  4.71613E-02  3.52117E-02
   7.26733E-02  5.95505E-02  8.03898E-02  5.73658E-02  6.33390E-02  3.53158E-02  3.21558E-02  4.96699E-03 -3.21166E-03 -2.54867E-02
  -3.65745E-02 -5.19400E-02 -6.03748E-02 -6.05174E-02 -6.22387E-02 -4.90042E-02 -5.13673E-02 -3.02337E-02 -4.13544E-02 -1.63134E-02
  -3.02862E-02  2.07223E-03 -1.99195E-02  2.83057E-02 -7.44796E-03  4.41790E-02  1.46777E-03  4.69984E-02  9.81290E-03  4.79271E-02
   2.06940E-02  5.31986E-02  2.89678E-02  5.55298E-02  3.59726E-02  4.65643E-02  4.77117E-02  4.73898E-02  6.46624E-02  6.34770E-02
   8.45523E-02  8.38852E-02  9.56499E-02  9.27777E-02  9.44816E-02  9.14634E-02  8.72915E-02  8.71581E-02  7.75288E-02  7.84595E-02
   5.32340E-02  6.44395E-02  3.59448E-02  4.98203E-02  3.04052E-02  5.98330E-02  5.27048E-02  9.78606E-02  9.88367E-02  1.49590E-01
   1.54261E-01  1.96980E-01  2.09028E-01  2.36190E-01  2.56654E-01  2.64589E-01  2.81398E-01  2.70622E-01  2.64254E-01  2.54207E-01
   2.10310E-01  2.12085E-01  1.29432E-01  1.47961E-01  2.82963E-02  6.50364E-02 -8.38329E-02 -3.33123E-02 -1.94182E-01 -1.34621E-01
  -2.94973E-01 -2.31610E-01 -3.86924E-01 -3.10757E-01 -4.54302E-01 -3.66260E-01 -4.77833E-01 -3.96356E-01 -4.55198E-01 -4.05195E-01
  -4.05886E-01 -3.83563E-01 -3.39229E-01 -3.25105E-01 -2.50717E-01 -2.48392E-01 -1.57450E-01 -1.66115E-01 -7.87797E-02 -9.01967E-02
  -2.55457E-02 -1.87776E-02  2.61186E-02  5.40138E-02  8.00754E-02  9.52840E-02  1.12982E-01  1.26047E-01  1.34680E-01  1.48365E-01
   1.44249E-01  1.60964E-01  1.42225E-01  1.61834E-01  1.23120E-01  1.48387E-01  9.36688E-02  1.25467E-01  6.03540E-02  9.68285E-02
   2.27627E-02  6.04589E-02 -2.55517E-02  1.38185E-02 -7.76305E-02 -3.41827E-02 -1.13542E-01 -7.07517E-02 -1.33933E-01 -9.57403E-02
  -1.42948E-01 -1.10899E-01 -1.41973E-01 -1.15439E-01 -1.28684E-01 -1.06554E-01 -1.00474E-01 -8.86657E-02 -8.36330E-02 -7.57557E-02
  -6.95475E-02 -6.41331E-02 -5.79728E-02 -5.34464E-02 -4.82293E-02 -4.40172E-02 -3.95035E-02 -3.55775E-02 -3.16874E-02 -2.81317E-02
  -2.50354E-02 -2.18539E-02 -1.95405E-02 -1.67126E-02 -1.50844E-02 -1.28665E-02 -1.19277E-02 -1.04568E-02 -1.04300E-02 -1.08274E-02
  -1.16513E-02 -1.19214E-02 -1.23497E-02 -1.11707E-02 -1.29460E-02 -1.01288E-02 -1.03265E-02 -4.10215E-03 -1.00947E-03  9.24103E-03
   1.42707E-02  2.88278E-02  3.49603E-02  5.15188E-02  5.65002E-02  7.37255E-02  7.79820E-02  9.61616E-02  9.67785E-02  1.14780E-01
   1.10466E-01  1.25532E-01  1.16947E-01  1.26129E-01  1.14952E-01  1.19357E-01  1.04055E-01  1.03779E-01  8.19078E-02  7.69764E-02
   5.35141E-02  4.27274E-02  2.15308E-02  8.26950E-03 -1.24472E-02 -2.02814E-02 -4.16748E-02 -4.48248E-02 -6.62663E-02 -6.45201E-02
  -7.71546E-02 -7.09664E-02 -7.89050E-02 -6.92746E-02 -7.25140E-02 -6.29773E-02 -5.90657E-02 -5.25938E-02 -4.19924E-02 -3.90994E-02
  -2.39253E-02 -2.24873E-02 -4.84652E-03 -7.43447E-03  1.43673E-02  1.62252E-03  2.84601E-02  4.53804E-03  2.80760E-02 -3.66145E-03
   5.58620E-03 -2.87837E-02 -3.67882E-02 -7.19720E-02 -8.92289E-02 -1.21816E-01 -1.42169E-01 -1.62306E-01 -1.84846E-01 -1.92199E-01
  -2.06659E-01 -2.01912E-01 -2.03164E-01 -1.89140E-01 -1.77360E-01 -1.52727E-01 -1.36032E-01 -1.00451E-01 -7.92346E-02 -3.36557E-02
  -2.51803E-03  4.73601E-02  8.50191E-02  1.33330E-01  1.63011E-01  2.06548E-01  2.19988E-01  2.56767E-01  2.57191E-01  2.86124E-01
   2.76812E-01  2.95650E-01  2.74547E-01  2.85084E-01  2.54499E-01  2.59191E-01  2.31379E-01  2.30489E-01  2.10936E-01  2.06420E-01
   1.88664E-01  1.79854E-01  1.59052E-01  1.47674E-01  1.21165E-01  1.11652E-01  7.95608E-02  7.47504E-02  3.92705E-02  3.84209E-02
   2.03078E-03  3.44695E-03 -3.28897E-02 -2.83011E-02 -6.58458E-02 -5.41877E-02 -8.80658E-02 -6.02118E-02 -1.09444E-01 -7.01023E-02
  -1.40838E-01 -9.57958E-02 -1.79048E-01 -1.30953E-01 -2.21627E-01 -1.77613E-01 -2.69041E-01 -2.34762E-01 -3.25997E-01 -3.04363E-01
  -3.78120E-01 -3.60913E-01 -4.12059E-01 -3.98091E-01 -4.29788E-01 -4.27900E-01 -4.39328E-01 -4.55129E-01 -4.27369E-01 -4.49893E-01
  -3.74431E-01 -3.88505E-01 -2.97089E-01 -3.07131E-01 -2.19082E-01 -2.27163E-01 -1.49441E-01 -1.51058E-01 -8.56160E-02 -7.52611E-02
  -2.80591E-02 -8.27662E-03 -3.94692E-03  4.48130E-03  4.08866E-03  9.46904E-03  7.94908E-03  1.15375E-02  1.08379E-02  1.30181E-02
   1.42067E-02  1.54938E-02  1.84791E-02  1.94429E-02  2.35780E-02  2.44670E-02  2.93730E-02  3.02249E-02  3.54390E-02  3.64516E-02
   4.10603E-02  4.24826E-02  4.58422E-02  4.75096E-02  4.97902E-02  5.13665E-02  5.30306E-02  5.44432E-02  5.56936E-02  5.69495E-02
   5.77909E-02  5.88530E-02  5.92475E-02  6.01345E-02  6.00691E-02  6.07006E-02  6.02015E-02  6.04474E-02  5.95419E-02  5.93309E-02
   5.80121E-02  5.73370E-02  5.56746E-02  5.45885E-02  5.26699E-02  5.12132E-02  4.91034E-02  4.73456E-02  4.50828E-02  4.32043E-02
   4.08759E-02  3.90252E-02  3.67718E-02  3.50245E-02  3.29368E-02  3.13241E-02  2.95228E-02  2.80227E-02  2.58751E-02  2.45315E-02
   2.32931E-02  2.22093E-02  2.42855E-02  2.45924E-02  2.92771E-02  3.19969E-02  3.75246E-02  4.31655E-02  4.80467E-02  5.69752E-02
   6.02835E-02  7.24602E-02  7.23896E-02  8.75582E-02  8.25066E-02  9.97162E-02  9.08472E-02  1.09445E-01  9.83748E-02  1.17853E-01
   1.03516E-01  1.22818E-01  1.03021E-01  1.20311E-01  9.79547E-02  1.11758E-01  9.17413E-02  1.02198E-01  8.58484E-02  9.31598E-02
   8.00498E-02  8.42432E-02  7.44639E-02  7.60096E-02  7.22461E-02  7.20182E-02  7.21567E-02  7.15616E-02  7.10394E-02  6.95371E-02
   6.82729E-02  6.59177E-02  6.40456E-02  6.09930E-02  5.87076E-02  5.52046E-02  5.27676E-02  4.91027E-02  4.67711E-02  4.31791E-02
   4.11697E-02  3.78661E-02  3.63215E-02  3.35363E-02  3.24619E-02  3.03900E-02  2.97962E-02  2.84752E-02  2.83450E-02  2.77246E-02
   2.80197E-02  2.80508E-02  2.86682E-02  2.92136E-02  3.00144E-02  3.08881E-02  3.18096E-02  3.28316E-02  3.37133E-02  3.47241E-02
   3.54142E-02  3.62737E-02  3.66726E-02  3.72280E-02  3.73136E-02  3.75076E-02  3.72953E-02  3.70901E-02  3.65542E-02  3.59906E-02
   3.51654E-02  3.42660E-02  3.32516E-02  3.20757E-02  3.09189E-02  2.95662E-02  2.82757E-02  2.67718E-02  2.52870E-02  2.36601E-02
   2.19508E-02  2.01363E-02  1.81121E-02  1.60602E-02  1.36244E-02  1.12811E-02  8.30309E-03  5.52190E-03  1.96894E-03 -1.28233E-03
  -5.38694E-03 -9.08945E-03 -1.36310E-02 -1.76493E-02 -2.24480E-02 -2.66259E-02 -3.14980E-02 -3.56377E-02 -4.02816E-02 -4.40808E-02
  -4.82068E-02 -5.14108E-02 -5.47715E-02 -5.71098E-02 -5.95475E-02 -6.08594E-02 -6.22452E-02 -6.24434E-02 -6.26807E-02 -6.17520E-02
  -6.09041E-02 -5.89830E-02 -5.72207E-02 -5.44899E-02 -5.19653E-02 -4.87167E-02 -4.55872E-02 -4.20357E-02 -3.84832E-02 -3.47883E-02
  -3.10106E-02 -2.73724E-02 -2.34391E-02 -2.00123E-02 -1.60702E-02 -1.29664E-02 -9.12121E-03 -6.32166E-03 -2.75206E-03 -2.58662E-04
   2.95036E-03  5.08773E-03  7.90480E-03  9.74770E-03  1.21113E-02  1.37095E-02  1.56194E-02  1.70482E-02  1.85518E-02  1.97992E-02
   2.10077E-02  2.20385E-02  2.30289E-02  2.38731E-02  2.46948E-02  2.53949E-02  2.60962E-02  2.66863E-02  2.73500E-02  2.77738E-02
   2.83921E-02  2.86996E-02  2.92552E-02  2.94863E-02  2.99631E-02  3.01622E-02  3.05141E-02  3.06888E-02  3.09648E-02  3.10860E-02
   3.13158E-02  3.14337E-02  3.16355E-02  3.17678E-02  3.19865E-02  3.21000E-02  3.23642E-02  3.24784E-02  3.28659E-02  3.30028E-02
   3.35151E-02  3.36573E-02  3.42789E-02  3.43984E-02  3.51755E-02  3.52497E-02  3.62073E-02  3.62721E-02  3.73973E-02  3.74694E-02
   3.87133E-02  3.87871E-02  4.01159E-02  4.02768E-02  4.16513E-02  4.18854E-02  4.32924E-02  4.36118E-02  4.50083E-02  4.54106E-02
   4.67777E-02  4.73208E-02  4.86994E-02  4.93079E-02  5.07059E-02  5.13714E-02  5.28006E-02  5.35862E-02  5.49967E-02  5.59456E-02
   5.73150E-02  5.83949E-02  5.97497E-02  6.08767E-02  6.22923E-02  6.35499E-02  6.50458E-02  6.64890E-02  6.80827E-02  6.97412E-02
   7.14676E-02  7.33488E-02  7.52565E-02  7.75041E-02  7.96034E-02  8.22933E-02  8.45720E-02  8.76537E-02  9.01626E-02  9.36629E-02
   9.65137E-02  1.00446E-01  1.03738E-01  1.08178E-01
 NY background values follow
     6.154E-02    6.133E-02    6.113E-02    6.092E-02    6.071E-02    6.050E-02    6.029E-02    6.009E-02    5.988E-02    5.967E-02
     5.946E-02    5.925E-02    5.905E-02    5.884E-02    5.863E-02    5.842E-02    5.822E-02    5.801E-02    5.780E-02    5.759E-02
     5.738E-02    5.718E-02    5.697E-02    5.676E-02    5.655E-02    5.634E-02    5.614E-02    5.593E-02    5.572E-02    5.551E-02
     5.531E-02    5.510E-02    5.489E-02    5.468E-02    5.447E-02    5.427E-02    5.406E-02    5.385E-02    5.364E-02    5.343E-02
     5.323E-02    5.302E-02    5.281E-02    5.260E-02    5.240E-02    5.219E-02    5.198E-02    5.177E-02    5.156E-02    5.136E-02
     5.115E-02    5.094E-02    5.073E-02    5.053E-02    5.032E-02    5.011E-02    4.990E-02    4.969E-02    4.949E-02    4.928E-02
     4.907E-02    4.886E-02    4.865E-02    4.845E-02    4.824E-02    4.803E-02    4.782E-02    4.762E-02    4.741E-02    4.720E-02
