 LCModel (Version 6.3-1N) Copyright: S.W. Provencher.          Ref.: Magn. Reson. Med. 30:672-679 (1993).                
 Slice_N1@18_20  02-Jun-2023 14:37:11
 27 lines in following concentration table = NCONC+1
    Conc.  %SD /Cr+PCr  Metabolite                                         
 2.43E-06  13% 3.2E-04 Mac                                                 
 3.12E-02  13%   4.099 Cr                                                  
 2.97E-02  14%   3.901 PCr                                                 
 7.99E-02   9%  10.476 Ins                                                 
 8.50E-02   7%  11.147 NAA                                                 
 6.51E-02  10%   8.541 Tau                                                 
 7.59E-03  20%   0.996 PCho                                                
 3.87E-03  34%   0.508 GPC                                                 
 8.01E-02  10%  10.503 Glu                                                 
 2.40E-02  26%   3.152 Gln                                                 
    0.000 999%   0.000 Ala                                                 
 3.16E-02  34%   4.147 Asc                                                 
 1.13E-02  60%   1.488 Asp                                                 
 1.11E-02  33%   1.450 GABA                                                
 7.10E-03  65%   0.932 Glc                                                 
 1.46E-02  23%   1.911 GSH                                                 
 5.13E-03 110%   0.674 Lac                                                 
 4.46E-03  77%   0.585 NAAG                                                
    0.000 999%   0.000 PE                                                  
 1.15E-02  14%   1.504 GPC+PCho                                            
 8.94E-02   7%  11.732 NAA+NAAG                                            
    0.104  10%  13.655 Glu+Gln                                             
 6.10E-02   8%   8.000 Cr+PCr                                              
 8.94E-02   7%  11.732 NAA+NAAG                                            
 6.10E-02   8%   8.000 Cr+PCr                                              
    0.104  10%  13.655 Glu+Gln                                             
   6 lines in following misc. output table
  FWHM = 0.017 ppm    S/N =   8                                            
  Data shift = 0.012 ppm                                                   
  Ph:  -7 deg     -14.1 deg/ppm                                            
  alphaB,S = 4.5E-01,   3.1E-01                                            
   18 spline knots.   Ns = 5(1)                                            
   2 inflections.     1 extrema                                            
  654 points on ppm-axis = NY
      4.000000     3.994181     3.988363     3.982544     3.976726     3.970907     3.965088     3.959270     3.953451     3.947633
      3.941814     3.935995     3.930177     3.924358     3.918540     3.912721     3.906902     3.901084     3.895265     3.889446
      3.883628     3.877809     3.871991     3.866172     3.860353     3.854535     3.848716     3.842898     3.837079     3.831260
      3.825442     3.819623     3.813805     3.807986     3.802167     3.796349     3.790530     3.784712     3.778893     3.773074
      3.767256     3.761437     3.755619     3.749800     3.743981     3.738163     3.732344     3.726526     3.720707     3.714888
      3.709070     3.703251     3.697433     3.691614     3.685795     3.679977     3.674158     3.668339     3.662521     3.656702
      3.650884     3.645065     3.639246     3.633428     3.627609     3.621791     3.615972     3.610153     3.604335     3.598516
      3.592698     3.586879     3.581060     3.575242     3.569423     3.563605     3.557786     3.551967     3.546149     3.540330
      3.534512     3.528693     3.522874     3.517056     3.511237     3.505419     3.499600     3.493781     3.487963     3.482144
      3.476326     3.470507     3.464688     3.458870     3.453051     3.447232     3.441414     3.435595     3.429777     3.423958
      3.418139     3.412321     3.406502     3.400684     3.394865     3.389046     3.383228     3.377409     3.371591     3.365772
      3.359953     3.354135     3.348316     3.342498     3.336679     3.330860     3.325042     3.319223     3.313405     3.307586
      3.301767     3.295949     3.290130     3.284312     3.278493     3.272674     3.266856     3.261037     3.255219     3.249400
      3.243581     3.237763     3.231944     3.226125     3.220307     3.214488     3.208670     3.202851     3.197032     3.191214
      3.185395     3.179577     3.173758     3.167939     3.162121     3.156302     3.150484     3.144665     3.138846     3.133028
      3.127209     3.121391     3.115572     3.109753     3.103935     3.098116     3.092298     3.086479     3.080660     3.074842
      3.069023     3.063205     3.057386     3.051567     3.045749     3.039930     3.034111     3.028293     3.022474     3.016656
      3.010837     3.005018     2.999200     2.993381     2.987563     2.981744     2.975925     2.970107     2.964288     2.958470
      2.952651     2.946832     2.941014     2.935195     2.929377     2.923558     2.917739     2.911921     2.906102     2.900284
      2.894465     2.888646     2.882828     2.877009     2.871191     2.865372     2.859553     2.853735     2.847916     2.842098
      2.836279     2.830460     2.824642     2.818823     2.813004     2.807186     2.801367     2.795549     2.789730     2.783911
      2.778093     2.772274     2.766456     2.760637     2.754818     2.749000     2.743181     2.737363     2.731544     2.725725
      2.719907     2.714088     2.708270     2.702451     2.696632     2.690814     2.684995     2.679177     2.673358     2.667539
      2.661721     2.655902     2.650084     2.644265     2.638446     2.632628     2.626809     2.620991     2.615172     2.609353
      2.603535     2.597716     2.591897     2.586079     2.580260     2.574442     2.568623     2.562804     2.556986     2.551167
      2.545349     2.539530     2.533711     2.527893     2.522074     2.516256     2.510437     2.504618     2.498800     2.492981
      2.487163     2.481344     2.475525     2.469707     2.463888     2.458070     2.452251     2.446432     2.440614     2.434795
      2.428977     2.423158     2.417339     2.411521     2.405702     2.399884     2.394065     2.388246     2.382428     2.376609
      2.370790     2.364972     2.359153     2.353335     2.347516     2.341697     2.335879     2.330060     2.324242     2.318423
      2.312604     2.306786     2.300967     2.295149     2.289330     2.283511     2.277693     2.271874     2.266056     2.260237
      2.254418     2.248600     2.242781     2.236963     2.231144     2.225325     2.219507     2.213688     2.207870     2.202051
      2.196232     2.190414     2.184595     2.178777     2.172958     2.167139     2.161321     2.155502     2.149683     2.143865
      2.138046     2.132228     2.126409     2.120590     2.114772     2.108953     2.103135     2.097316     2.091497     2.085679
      2.079860     2.074042     2.068223     2.062404     2.056586     2.050767     2.044949     2.039130     2.033311     2.027493
      2.021674     2.015856     2.010037     2.004218     1.998400     1.992581     1.986763     1.980944     1.975126     1.969307
      1.963489     1.957670     1.951852     1.946033     1.940215     1.934397     1.928578     1.922760     1.916941     1.911123
      1.905304     1.899486     1.893667     1.887849     1.882030     1.876212     1.870393     1.864575     1.858756     1.852938
      1.847119     1.841301     1.835482     1.829664     1.823845     1.818027     1.812208     1.806390     1.800571     1.794753
      1.788934     1.783116     1.777297     1.771479     1.765660     1.759842     1.754023     1.748205     1.742386     1.736568
      1.730749     1.724931     1.719113     1.713294     1.707476     1.701657     1.695839     1.690020     1.684202     1.678383
      1.672565     1.666746     1.660928     1.655109     1.649291     1.643472     1.637654     1.631835     1.626017     1.620198
      1.614380     1.608561     1.602743     1.596924     1.591106     1.585287     1.579469     1.573650     1.567832     1.562013
      1.556195     1.550376     1.544558     1.538739     1.532921     1.527102     1.521284     1.515465     1.509647     1.503829
      1.498010     1.492192     1.486373     1.480555     1.474736     1.468918     1.463099     1.457281     1.451462     1.445644
      1.439825     1.434007     1.428188     1.422370     1.416551     1.410733     1.404914     1.399096     1.393277     1.387459
      1.381640     1.375822     1.370003     1.364185     1.358366     1.352548     1.346729     1.340911     1.335092     1.329274
      1.323455     1.317637     1.311818     1.306000     1.300182     1.294363     1.288545     1.282726     1.276908     1.271089
      1.265271     1.259452     1.253634     1.247815     1.241997     1.236178     1.230360     1.224541     1.218723     1.212904
      1.207086     1.201267     1.195449     1.189630     1.183812     1.177993     1.172175     1.166356     1.160538     1.154719
      1.148901     1.143082     1.137264     1.131445     1.125627     1.119808     1.113990     1.108171     1.102353     1.096534
      1.090716     1.084898     1.079079     1.073261     1.067442     1.061624     1.055805     1.049987     1.044168     1.038350
      1.032531     1.026713     1.020894     1.015076     1.009257     1.003439     0.997620     0.991802     0.985983     0.980165
      0.974346     0.968528     0.962709     0.956891     0.951072     0.945254     0.939435     0.933617     0.927798     0.921980
      0.916161     0.910343     0.904524     0.898706     0.892887     0.887069     0.881251     0.875432     0.869614     0.863795
      0.857977     0.852158     0.846340     0.840521     0.834703     0.828884     0.823066     0.817247     0.811429     0.805610
      0.799792     0.793973     0.788155     0.782336     0.776518     0.770699     0.764881     0.759062     0.753244     0.747425
      0.741607     0.735788     0.729970     0.724151     0.718333     0.712514     0.706696     0.700877     0.695059     0.689240
      0.683422     0.677603     0.671785     0.665967     0.660148     0.654330     0.648511     0.642693     0.636874     0.631056
      0.625237     0.619419     0.613600     0.607782     0.601963     0.596145     0.590326     0.584508     0.578689     0.572871
      0.567052     0.561234     0.555415     0.549597     0.543778     0.537960     0.532141     0.526323     0.520504     0.514686
      0.508867     0.503049     0.497230     0.491412     0.485593     0.479775     0.473956     0.468138     0.462319     0.456501
      0.450682     0.444864     0.439045     0.433227     0.427408     0.421590     0.415771     0.409953     0.404134     0.398316
      0.392497     0.386679     0.380860     0.375042     0.369223     0.363405     0.357586     0.351767     0.345949     0.340130
      0.334312     0.328493     0.322675     0.316856     0.311038     0.305219     0.299401     0.293582     0.287764     0.281945
      0.276127     0.270308     0.264490     0.258671     0.252853     0.247034     0.241216     0.235397     0.229579     0.223760
      0.217942     0.212123     0.206305     0.200486
 NY phased data points follow
   1.35874E-01 -1.35344E-02 -1.68924E-01  5.22164E-02 -5.95529E-02 -9.84203E-02 -1.15980E-01  1.09130E-02 -2.06747E-01 -7.44339E-02
   7.78333E-02  6.22763E-01  7.12852E-01 -2.82278E-01  3.66324E-02  6.66139E-01  3.15665E-01  2.22136E-01  1.00282E-01 -2.84431E-02
   8.26863E-02  3.53991E-02 -5.39446E-02 -1.12975E-01 -3.14334E-02 -2.72118E-01 -2.58376E-01 -9.65507E-02 -1.09606E-01  1.52925E-02
  -3.81232E-02 -2.14825E-01 -1.06791E-01 -3.41607E-01 -2.40537E-01  7.89148E-02 -1.94274E-01 -3.43506E-01 -7.72694E-01 -2.46024E-01
   2.43647E-01  3.99478E-01  1.35969E-01 -5.41654E-02  7.06125E-01  3.36862E-01  3.74059E-01  4.63252E-01  1.71614E-01  4.82179E-01
   3.54719E-01  1.40713E-01  1.45751E-01  1.11487E-02 -1.21525E-01 -2.36375E-01 -5.32187E-02  3.90797E-02  3.98126E-03 -3.72950E-02
  -3.68708E-01 -7.10532E-01 -5.47703E-01 -2.13551E-02 -5.65781E-01 -5.94321E-01  3.65049E-01  3.26697E-01 -1.16828E-01  5.44130E-01
   5.27170E-01 -2.06905E-01 -1.57037E-01  6.07587E-02  3.10217E-01 -5.64022E-02 -4.74346E-02 -3.11602E-01 -4.02788E-01 -5.41366E-01
  -7.36703E-01 -1.29171E-01 -1.53671E-01 -3.07541E-02  3.71891E-01  7.64471E-01  4.54072E-01  2.33035E-01  7.98258E-02  1.70271E-01
   5.34762E-01  2.11673E-01  1.17363E-01  2.28068E-01  1.03260E-02 -1.50054E-01  2.45629E-01  8.80246E-02 -1.16235E-01 -3.47253E-01
  -5.05558E-01 -9.99930E-02  4.25195E-02 -5.89350E-02  2.70086E-01  3.96666E-01  2.52625E-01  4.88916E-01  3.41173E-01  4.09795E-01
   2.59573E-01  4.41018E-01  4.97504E-01  3.40263E-01  5.61371E-01  2.03710E-01  2.70995E-01  4.87183E-01  2.77933E-01 -8.54345E-02
   1.94085E-02  6.66283E-02 -1.21049E-03  1.35502E-01 -4.65842E-02 -4.12659E-01  1.27271E-01  1.04972E-01 -6.27227E-01 -5.49951E-01
  -9.60659E-01 -7.41059E-01 -6.24400E-01 -4.02104E-01 -2.23333E-01 -5.25576E-01 -7.57434E-01 -1.03267E+00 -5.55004E-01 -2.75686E-01
   7.10416E-02 -3.42095E-01 -1.29136E-01  1.17166E-01 -8.77931E-02 -1.31260E-02 -1.83143E-01  2.32915E-01 -3.97010E-02  2.76961E-02
   2.91468E-02  1.54506E-01  4.07764E-01  2.59177E-01  3.21415E-01  1.13359E-01  4.51485E-02  3.37345E-01  3.50831E-01  1.98832E-01
   6.16107E-01  4.21990E-01  5.91497E-01  5.86334E-01  4.11608E-01  1.07829E+00  1.19692E+00  1.26900E-01 -1.07388E+00 -7.77909E-01
  -5.79613E-01 -5.71271E-01 -4.03055E-01 -4.59482E-01 -3.67078E-01 -4.67490E-01 -6.24404E-01 -4.60056E-01 -5.21651E-01 -4.59477E-01
  -6.07103E-01 -6.08943E-01  6.17342E-02 -3.65574E-01 -3.95540E-01 -2.61652E-01 -2.73927E-01 -1.45945E-01 -2.40920E-01 -2.71724E-01
  -5.69050E-01 -3.14314E-01 -3.02769E-01 -1.72443E-01 -1.12748E-01 -1.52446E-01  7.99897E-02 -1.61170E-01 -5.48627E-04  3.47534E-04
  -1.61170E-01 -1.10684E-01 -2.90896E-01 -1.39091E-01  1.39376E-01  1.47282E-01  1.34416E-02 -7.35010E-02 -1.16523E-01 -1.22759E-02
  -4.61697E-02 -1.67817E-01 -2.19961E-01 -1.58334E-01  1.25141E-01 -2.85097E-01 -2.07550E-01  2.06342E-01  1.94480E-01  5.63612E-02
  -1.40314E-01 -7.48235E-02 -1.20013E-01  1.99912E-01  2.69445E-01  3.76726E-01  4.61455E-01  1.56850E-01  1.65791E-01  4.58854E-01
   7.83579E-01  7.19416E-01  2.88167E-01  1.74146E-01  2.36825E-01 -2.83488E-02 -2.87414E-02 -9.89638E-03 -1.52339E-01 -3.92216E-01
  -1.78990E-01 -1.91408E-01 -2.25575E-01  1.09712E-01 -5.87652E-02  1.13256E-01  2.31875E-01 -2.41697E-01 -1.27283E-01  2.06784E-01
   6.40069E-02  4.01019E-01 -8.38174E-02 -2.14715E-01 -5.78370E-02 -2.05447E-01  2.42748E-01  2.12610E-01  1.04326E-02 -3.64173E-02
   5.02891E-01  1.28093E-01 -1.26031E-03  4.54612E-02  6.77773E-02  4.00233E-02 -3.11696E-01  5.76820E-02 -1.26064E-01  4.18177E-01
   3.11047E-01  1.18861E-01  3.76680E-01  7.19552E-02 -2.16732E-02 -1.50362E-01  1.95473E-01  1.23069E-01 -1.29045E-01 -1.34398E-01
  -4.24193E-01 -4.09583E-01 -3.29758E-01 -8.16914E-01 -2.38473E-01  4.47529E-01  2.84503E-01  5.90936E-01  5.93813E-01  2.60805E-01
   2.87444E-01  5.03142E-01  3.98282E-01  3.50341E-01  1.87017E-01 -4.85728E-02  1.70276E-01  1.03383E-01  2.26911E-01  2.81418E-01
   3.33303E-02  3.61025E-01  2.81754E-01  3.38244E-01  2.17873E-01  3.12175E-01  5.24665E-01  2.96799E-02  4.74059E-01  2.36115E-01
   2.02234E-01  3.65432E-01  2.16260E-01  4.34450E-01  8.33663E-02  7.82283E-02  1.76214E-02 -1.84459E-01 -3.37376E-01 -1.26462E-01
  -9.38320E-02 -1.87690E-01 -2.63339E-01 -3.47910E-01 -2.12750E-01 -1.91611E-01  1.14029E-01  1.92520E-02  2.18007E-01  4.16874E-01
   3.20235E-01  2.44074E-01  3.60195E-02 -1.11508E-01 -5.20855E-01 -3.79197E-01 -6.40346E-02 -3.46336E-01 -2.43530E-01 -1.54657E-01
  -2.95361E-01 -3.08109E-01 -2.34926E+00 -2.74153E+00 -5.36641E-01 -3.04389E-01 -3.82120E-01 -2.42651E-01 -9.60275E-02 -1.00910E-02
   2.17654E-01  1.58478E-01 -9.38457E-02  3.34588E-01 -1.00908E-01 -3.54461E-02  3.04592E-02 -9.19627E-02  1.91338E-01 -7.70767E-03
   9.69746E-02  1.12477E-01  5.67360E-02 -1.12073E-01 -9.34367E-02  1.25956E-01 -6.81022E-02 -1.22198E-01  1.17242E-01  1.85864E-01
   4.54322E-02  3.31963E-01  4.40648E-01  1.04131E-01 -4.42532E-03  3.32526E-01  5.11890E-01 -3.55661E-02 -8.38775E-02  2.51708E-01
   2.16324E-01  3.22805E-01  3.34606E-01 -3.97340E-02 -1.50332E-02  1.79746E-01  2.01844E-02  4.90083E-02  1.92953E-01  3.38967E-01
  -8.23721E-02 -1.27705E-01  2.41413E-01  1.64040E-01  7.71133E-02  8.16300E-02  3.47135E-01  1.07633E-01  2.66601E-01  2.46310E-01
   2.36341E-01  4.30334E-01  3.17656E-02  2.14199E-01 -1.04711E-01 -2.55916E-01 -2.24908E-03  3.56827E-01  3.61254E-01 -1.53077E-01
  -1.67134E-01 -2.35559E-01 -1.70343E-01 -3.19695E-01 -1.56924E-01  1.80196E-01 -1.30131E-01 -2.34991E-01 -2.42795E-01 -3.50245E-01
  -1.81357E-01 -1.58168E-01 -2.55302E-01 -1.57132E-01 -9.70387E-02 -1.82612E-01 -2.59426E-01 -2.41786E-01 -2.15669E-01 -5.23766E-02
  -2.14756E-01 -2.39544E-01 -5.08547E-02 -2.44705E-02  3.42462E-02 -5.47152E-02  5.25033E-02  9.73109E-02 -6.69780E-02 -1.38436E-01
  -3.43320E-02 -2.74414E-02 -9.93318E-02  3.90613E-02  8.23718E-02  9.39406E-03  1.19666E-01  3.48997E-02 -1.47374E-01  1.43759E-01
   4.51583E-01  2.58120E-01  2.11740E-01  2.50923E-01 -2.27804E-02  2.33500E-01  1.05212E-01 -1.39509E-01 -4.69184E-02 -2.59536E-01
  -3.40713E-02  3.13038E-01  2.62845E-01  2.81750E-02  1.11521E-01  1.69928E-01  1.24820E-01 -1.16307E-01 -4.10989E-01 -2.92623E-01
  -1.02315E-01 -1.93566E-02  2.50162E-02  9.40777E-02  2.63250E-02 -1.26498E-01 -1.48315E-01 -1.01778E-01 -1.27156E-01  1.98266E-01
  -6.78274E-02 -2.70305E-01  1.75049E-01  1.08825E-01 -3.77052E-02  5.98836E-02  1.65144E-01  9.36932E-02  2.05544E-01  4.07992E-02
  -1.58792E-01 -5.37472E-02  2.98047E-01  2.06125E-01 -6.69208E-02  9.75964E-03  9.94152E-02  2.10574E-01  7.13237E-02  1.01180E-01
   2.30619E-02  1.91186E-01 -5.99058E-02  1.13695E-01  2.28977E-01 -5.69314E-02  2.29392E-01  2.55842E-02 -1.11720E-01  3.64253E-02
   2.44318E-01 -1.77780E-01  3.46036E-03  7.42156E-03  5.45635E-02  9.58288E-02 -9.40569E-02 -6.31813E-03 -3.29076E-01  9.51466E-02
  -1.05711E-01  7.26260E-02  9.46621E-03 -2.86766E-01 -2.93135E-01 -4.13387E-01 -2.51206E-01 -3.22576E-01 -1.75596E-01 -3.96703E-01
  -4.54667E-01 -3.51674E-01 -1.38518E-01 -3.35632E-01 -2.63101E-01 -1.06895E-01 -4.03015E-03  9.14906E-02 -5.13995E-02 -1.73948E-01
  -3.85847E-01  1.52278E-02 -1.50281E-02  1.38170E-01 -2.90795E-01 -2.92819E-01  2.21092E-01  5.63419E-02  1.45916E-01  1.36906E-01
   2.49841E-02 -5.72653E-02  6.18351E-01  2.61693E-01  2.69694E-01  8.70227E-01  1.70897E-01 -4.37633E-02 -3.07328E-02  5.68086E-02
   2.84249E-01  2.68287E-01  1.42899E-01  1.05365E-01  1.39323E-01  3.30513E-01  3.29235E-01 -1.08039E-02  1.41170E-01 -1.20221E-01
  -1.77859E-01  2.26555E-01 -4.64368E-02 -7.34335E-02 -1.36422E-02  3.05342E-03 -3.46110E-02  1.63669E-01  1.44467E-01  5.91621E-02
   4.03552E-01  3.40128E-01  1.48459E-01 -3.78090E-02  2.62596E-01  5.97129E-02 -1.04171E-01  9.76472E-02  7.82022E-04  1.32607E-01
   1.55940E-01  1.77732E-01 -1.03009E-01  6.44651E-02  1.30754E-01 -1.52793E-01  1.81775E-01 -3.92206E-02 -1.08740E-01  1.96887E-01
  -1.50335E-01  9.39040E-02  1.88568E-01 -1.20421E-01 -1.24162E-01  1.22126E-02 -7.97964E-02 -2.29904E-01  3.30724E-01  1.92167E-01
  -1.13961E-02 -1.87826E-01 -1.33230E-01  6.95172E-02 -1.01386E-03  2.97200E-01  1.80311E-02  1.38559E-01  1.97877E-01  4.71746E-02
   1.13999E-01 -8.38907E-03  1.43561E-01  1.74777E-01 -3.28706E-02  1.23505E-01  2.13539E-01 -5.87142E-02  4.59847E-02  1.11733E-01
   1.66537E-02 -2.78526E-02  1.22766E-01  2.15633E-01 -8.69025E-03  8.97110E-02  2.47770E-01 -7.97505E-02 -1.33595E-01  1.04975E-01
  -1.37235E-01 -1.39676E-01  3.22682E-02 -2.65828E-02  1.86722E-01  1.56162E-01 -9.56659E-02  1.41995E-03 -5.48238E-02  1.71980E-02
   2.57167E-01 -8.33993E-02 -8.69800E-02  1.43109E-01
 NY points of the fit to the data follow
   9.10495E-02  6.25520E-02  2.79238E-02 -1.94953E-02 -2.75221E-02 -2.03200E-02 -7.90933E-03  3.31938E-03  7.95347E-03 -4.02110E-02
   9.64898E-02  5.60201E-01  5.23725E-01  5.79648E-02  1.14376E-01  6.31249E-01  5.58891E-01  1.46208E-01  9.67897E-02  1.23674E-01
   5.37227E-02  9.71467E-03 -2.61885E-02 -6.24349E-02 -9.02608E-02 -1.11990E-01 -1.37062E-01 -1.60440E-01 -1.68290E-01 -1.82509E-01
  -2.03989E-01 -2.14465E-01 -2.19997E-01 -2.52237E-01 -2.94631E-01 -3.24446E-01 -3.63611E-01 -3.92205E-01 -4.74559E-01 -4.03582E-01
   9.46439E-02  1.84780E-01  8.61849E-02  3.15103E-01  3.60773E-01  3.87316E-01  4.13765E-01  3.26730E-01  1.92514E-01  2.64626E-01
   2.38519E-01  9.76912E-02  9.93328E-02  7.85980E-02  1.21480E-03 -4.87943E-02 -1.08210E-01 -1.54028E-01 -1.73039E-01 -2.05502E-01
  -2.62434E-01 -4.19976E-01 -4.76481E-01 -7.12989E-02 -3.96054E-01 -6.46326E-01  4.41362E-01  2.80004E-01 -1.56499E-01  5.52845E-01
   5.66571E-01  2.24937E-01  2.40180E-01  2.06352E-01  1.01585E-01  2.38522E-02 -5.54706E-02 -1.17391E-01 -2.71580E-01 -7.13454E-01
  -6.91086E-01  1.64854E-02 -7.33971E-02 -1.78779E-01  4.37915E-01  5.59287E-01  3.62645E-01  3.61534E-01  3.51967E-01  2.99452E-01
   2.58307E-01  2.43434E-01  2.13848E-01  1.65790E-01  1.35489E-01  8.14463E-02  2.62259E-02 -1.79522E-01 -3.68820E-01 -4.44229E-01
  -5.80188E-01 -2.16701E-01 -3.40847E-02  1.53264E-01  2.80080E-01  2.56805E-01  2.56965E-01  2.78417E-01  2.66990E-01  2.64455E-01
   2.65064E-01  2.68356E-01  2.64856E-01  2.61330E-01  2.60255E-01  2.59267E-01  2.59622E-01  2.59797E-01  2.53873E-01  2.42478E-01
   2.61854E-01  1.97186E-01 -1.42265E-02  9.89735E-02  5.58583E-02 -4.31369E-01 -5.40241E-02 -3.13052E-02 -5.91061E-01 -5.14747E-01
  -8.47151E-01 -6.15286E-01 -5.24134E-01 -2.98738E-01 -1.41317E-01 -4.88412E-01 -7.42047E-01 -9.87522E-01 -5.38286E-01 -2.01961E-01
  -2.39256E-01 -1.49527E-01 -3.71974E-02 -1.25019E-02  1.54393E-02  4.64914E-02  7.23042E-02  9.22522E-02  1.15242E-01  1.30694E-01
   1.45172E-01  1.65423E-01  1.80661E-01  1.95170E-01  2.13233E-01  2.35635E-01  2.56983E-01  2.85058E-01  3.17519E-01  3.45724E-01
   3.87458E-01  4.55144E-01  5.25484E-01  5.70193E-01  6.72756E-01  1.04021E+00  1.16704E+00 -2.45916E-02 -1.24559E+00 -8.43284E-01
  -4.45821E-01 -5.14088E-01 -4.86547E-01 -3.88140E-01 -3.48751E-01 -3.76758E-01 -3.19467E-01 -2.42270E-01 -2.69275E-01 -3.23572E-01
  -2.76858E-01 -2.08564E-01 -2.08528E-01 -2.23142E-01 -2.02147E-01 -2.14698E-01 -2.10418E-01 -1.91355E-01 -1.77741E-01 -1.86713E-01
  -1.78468E-01 -1.58266E-01 -1.48054E-01 -1.39544E-01 -1.25826E-01 -1.15628E-01 -1.08819E-01 -9.65028E-02 -8.55002E-02 -7.75645E-02
  -7.19715E-02 -5.76972E-02 -2.90967E-02 -2.49352E-02 -4.49549E-02 -6.09916E-02 -4.76014E-02 -8.05472E-03 -1.00893E-03 -3.85420E-02
  -6.54955E-02 -5.86474E-02 -4.92225E-02 -5.02366E-02 -4.89844E-02 -4.04247E-02 -3.54728E-02 -2.45862E-02 -2.46648E-02 -3.75311E-02
  -3.21557E-02 -9.53755E-03  1.33598E-02 -1.54619E-02  5.06534E-02  3.49644E-01  3.81209E-01  1.57078E-01  7.00653E-02  1.84409E-01
   5.12042E-01  5.15733E-01  1.40805E-01  6.41325E-02  7.77391E-02 -2.66657E-03 -3.40329E-02 -4.01884E-02 -5.27605E-02 -6.18975E-02
  -7.63220E-02 -8.76911E-02 -9.00021E-02 -9.20192E-02 -9.28430E-02 -9.30062E-02 -1.02180E-01 -8.93273E-02 -9.85601E-02 -8.67851E-02
  -9.18623E-02 -1.06692E-01 -1.08721E-01 -1.40710E-01 -1.41055E-01 -2.16587E-01 -1.55985E-01  1.97136E-01 -2.46394E-02 -1.31495E-01
   2.21993E-01  2.26902E-01  9.58119E-02  1.95267E-02  1.70638E-01  1.88530E-01  7.17248E-02  1.43332E-01  1.27925E-01  2.00910E-01
   1.66445E-01  1.30742E-01  9.96068E-02  4.07190E-02  5.87787E-03 -3.80667E-02 -8.40039E-02 -1.24768E-01 -1.91662E-01 -2.28812E-01
  -3.49627E-01 -4.90414E-01 -3.89967E-01 -3.68815E-01 -1.23863E-01  2.44960E-01  2.83659E-01  4.79236E-01  5.33577E-01  3.72702E-01
   3.46166E-01  3.13270E-01  2.35092E-01  2.09095E-01  1.77552E-01  1.54003E-01  2.40794E-01  2.31379E-01  2.62186E-01  2.81308E-01
   2.55439E-01  2.53326E-01  2.45366E-01  2.32935E-01  2.31858E-01  2.22084E-01  2.08328E-01  2.03269E-01  1.87875E-01  1.58440E-01
   1.43198E-01  1.12309E-01  7.73995E-02  6.08080E-02  9.09379E-03 -2.00769E-02 -1.04532E-01 -1.81181E-01 -2.43373E-01 -2.74904E-01
  -3.01775E-01 -3.68545E-01 -3.07511E-01 -3.27708E-01 -2.64560E-01 -1.80349E-01 -6.34802E-02  3.13962E-02  1.03735E-01  1.03931E-01
   4.83368E-02  3.86221E-02 -7.31056E-02 -1.05757E-01 -1.14544E-01 -1.58091E-01 -1.74999E-01 -3.25991E-01 -1.92801E-01 -2.04768E-01
   3.79910E-02 -3.02573E-01 -2.39724E+00 -2.69661E+00 -7.49902E-01 -2.98739E-01 -5.34555E-01 -2.33868E-01 -4.48227E-02 -4.30064E-02
  -2.27041E-02 -1.17370E-03  1.96168E-02  3.26036E-02  3.91724E-02  5.02299E-02  5.95691E-02  6.81461E-02  6.29970E-02  6.58407E-02
   5.28007E-02  1.54970E-02  2.12034E-02 -3.43168E-02 -2.96895E-02 -2.78247E-02 -2.57255E-02 -8.57425E-04  9.57286E-03  2.02695E-02
   3.59621E-02  4.29948E-02  5.43707E-02  6.66207E-02  6.67937E-02  6.98497E-02  7.71155E-02  8.06487E-02  8.75102E-02  9.12604E-02
   9.21522E-02  9.37899E-02  9.99373E-02  1.02740E-01  1.07386E-01  1.10246E-01  1.09869E-01  1.08625E-01  1.12045E-01  1.18721E-01
   1.19646E-01  1.26191E-01  1.28978E-01  1.27718E-01  1.24823E-01  1.20984E-01  1.17963E-01  1.16671E-01  1.13754E-01  1.08876E-01
   1.01255E-01  9.44294E-02  8.94606E-02  8.09286E-02  6.78986E-02  6.24037E-02  5.89050E-02  5.20535E-02  4.18120E-02  3.65850E-02
   3.22587E-02  2.42367E-02  2.30962E-02  1.89919E-02  1.27719E-02  1.10544E-02  7.16451E-03  1.78418E-03  1.26067E-04 -2.38085E-03
  -2.83040E-03 -5.98273E-03 -1.02486E-02 -6.10646E-03 -3.71512E-03 -5.29192E-03 -4.26952E-04  4.15227E-03  7.46732E-03  1.52065E-02
   2.34787E-02  2.28236E-02  1.91228E-02  2.41882E-02  3.28060E-02  4.11032E-02  4.99280E-02  5.58674E-02  6.20874E-02  6.96988E-02
   8.11945E-02  9.48740E-02  1.04585E-01  1.17064E-01  1.30017E-01  1.39282E-01  1.54062E-01  1.67018E-01  1.73290E-01  1.79402E-01
   1.80885E-01  1.80994E-01  1.80812E-01  1.79147E-01  1.75582E-01  1.72107E-01  1.65891E-01  1.56061E-01  1.40815E-01  1.16206E-01
   1.43363E-01  1.96052E-01  1.69543E-01  1.97961E-01  1.53695E-01  9.88442E-02  1.00203E-01  8.64402E-02  6.58497E-02  5.96498E-02
   5.43268E-02  4.77904E-02  4.24105E-02  3.63373E-02  3.25752E-02  3.70933E-02  4.01931E-02  3.72840E-02  4.23102E-02  4.84978E-02
   5.00615E-02  5.62257E-02  6.45042E-02  7.01291E-02  7.25886E-02  7.64547E-02  7.94007E-02  7.87506E-02  7.94059E-02  8.53900E-02
   9.13317E-02  8.88340E-02  8.73514E-02  8.63446E-02  8.30707E-02  8.39310E-02  7.63756E-02  7.03259E-02  6.96238E-02  6.73018E-02
   6.30383E-02  5.78246E-02  5.49373E-02  5.09673E-02  4.68434E-02  4.35849E-02  3.66789E-02  3.06324E-02  3.12891E-02  3.02934E-02
   2.43401E-02  1.94298E-02  1.74200E-02  1.32470E-02  3.09323E-03 -6.54423E-03 -1.34525E-02 -2.14966E-02 -2.92868E-02 -4.22085E-02
  -5.98442E-02 -7.86123E-02 -9.92510E-02 -1.13511E-01 -1.31494E-01 -1.51955E-01 -1.68009E-01 -1.78766E-01 -1.91250E-01 -2.05839E-01
  -2.17102E-01 -2.16780E-01 -2.12289E-01 -2.15901E-01 -2.17257E-01 -2.06860E-01 -1.96421E-01 -1.90210E-01 -1.81625E-01 -1.74287E-01
  -1.69176E-01 -1.62544E-01 -1.49547E-01 -1.39760E-01 -1.32493E-01 -1.18155E-01 -1.04427E-01 -9.45256E-02 -8.35594E-02 -7.01889E-02
  -6.11115E-02 -5.48467E-02 -3.87894E-02 -2.74983E-02 -2.49575E-02 -1.90938E-02 -1.01210E-02  2.40886E-03  9.23437E-03  4.42109E-03
   1.16241E-02  2.30108E-02  2.12727E-02  2.53585E-02  2.89014E-02  2.76127E-02  3.25272E-02  3.60301E-02  3.42361E-02  3.14330E-02
   3.60424E-02  4.16233E-02  3.98631E-02  4.31645E-02  4.92410E-02  4.91474E-02  4.62205E-02  4.82324E-02  5.06570E-02  4.64922E-02
   4.76077E-02  5.09596E-02  4.63490E-02  4.60984E-02  4.95135E-02  4.77886E-02  4.71852E-02  4.86643E-02  5.24617E-02  5.57367E-02
   4.60921E-02  3.72380E-02  4.53993E-02  5.01889E-02  4.49075E-02  4.22935E-02  4.59059E-02  5.02125E-02  4.33589E-02  3.87163E-02
   4.26847E-02  4.78103E-02  4.78635E-02  4.60484E-02  4.78284E-02  4.93484E-02  5.14918E-02  5.39463E-02  5.24793E-02  5.27891E-02
   5.75609E-02  5.77255E-02  5.37302E-02  4.97713E-02  5.40065E-02  5.49568E-02  5.48514E-02  5.82248E-02  6.02564E-02  6.10111E-02
   5.95101E-02  5.96140E-02  6.58711E-02  7.01083E-02  7.15354E-02  7.19812E-02  6.70719E-02  6.56242E-02  6.79601E-02  7.13070E-02
   7.47589E-02  7.17090E-02  6.91621E-02  7.18163E-02  7.19901E-02  7.45896E-02  7.75325E-02  7.23970E-02  7.17565E-02  8.16276E-02
   8.42160E-02  7.90441E-02  8.19358E-02  8.57561E-02  8.68921E-02  8.95902E-02  8.82771E-02  9.32583E-02  1.02874E-01  1.07538E-01
   1.08884E-01  1.11853E-01  1.16745E-01  1.18186E-01
 NY background values follow
     6.055E-03    6.325E-03    6.595E-03    6.865E-03    7.135E-03    7.405E-03    7.675E-03    7.945E-03    8.215E-03    8.485E-03
     8.754E-03    9.024E-03    9.293E-03    9.563E-03    9.832E-03    1.010E-02    1.037E-02    1.064E-02    1.091E-02    1.118E-02
     1.144E-02    1.171E-02    1.198E-02    1.225E-02    1.252E-02    1.278E-02    1.305E-02    1.332E-02    1.358E-02    1.385E-02
     1.412E-02    1.438E-02    1.465E-02    1.491E-02    1.518E-02    1.544E-02    1.571E-02    1.597E-02    1.623E-02    1.650E-02
     1.676E-02    1.702E-02    1.728E-02    1.754E-02    1.780E-02    1.806E-02    1.832E-02    1.858E-02    1.884E-02    1.910E-02
     1.936E-02    1.962E-02    1.988E-02    2.013E-02    2.039E-02    2.064E-02    2.090E-02    2.116E-02    2.141E-02    2.166E-02
     2.192E-02    2.217E-02    2.242E-02    2.268E-02    2.293E-02    2.318E-02    2.343E-02    2.368E-02    2.393E-02    2.418E-02
