 
 $NMID
 ID=''
 FMTDAT='(2E13.5)'
 TRAMP=   1.00000E+0
 VOLUME=   1.00000E+0
 $END
  -1.75046E+4   1.46789E+4
  -5.41048E+4   2.35234E+4
  -4.91508E+4   3.26056E+4
  -4.52767E+4   3.02745E+4
  -4.80334E+4   3.01542E+4
  -4.65445E+4   3.23415E+4
  -4.49470E+4   3.06800E+4
  -4.60988E+4   3.01376E+4
  -4.51286E+4   3.13160E+4
  -4.41880E+4   3.01001E+4
  -4.48590E+4   2.96072E+4
  -4.41548E+4   3.02784E+4
  -4.34241E+4   2.97068E+4
  -4.42068E+4   2.92212E+4
  -4.37325E+4   2.96580E+4
  -4.30286E+4   2.91866E+4
  -4.33479E+4   2.89700E+4
  -4.29670E+4   2.93816E+4
  -4.22611E+4   2.90397E+4
  -4.24891E+4   2.88792E+4
  -4.20324E+4   2.91519E+4
  -4.13820E+4   2.90817E+4
  -4.15788E+4   2.90482E+4
  -4.12952E+4   2.91368E+4
  -4.07149E+4   2.89173E+4
  -4.05787E+4   2.88628E+4
  -4.04012E+4   2.89657E+4
  -4.00202E+4   2.86732E+4
  -3.99854E+4   2.83948E+4
  -3.96110E+4   2.83873E+4
  -3.90744E+4   2.83691E+4
  -3.91389E+4   2.82347E+4
  -3.89534E+4   2.81760E+4
  -3.85823E+4   2.78997E+4
  -3.83668E+4   2.78483E+4
  -3.80181E+4   2.78873E+4
  -3.76715E+4   2.77060E+4
  -3.74330E+4   2.76287E+4
  -3.71709E+4   2.77270E+4
  -3.69094E+4   2.75945E+4
  -3.67596E+4   2.75552E+4
  -3.66420E+4   2.74985E+4
  -3.64363E+4   2.72506E+4
  -3.61175E+4   2.71371E+4
  -3.58950E+4   2.71906E+4
  -3.56453E+4   2.71454E+4
  -3.54569E+4   2.69968E+4
  -3.52573E+4   2.69772E+4
  -3.49771E+4   2.69209E+4
  -3.48109E+4   2.68591E+4
  -3.46659E+4   2.67015E+4
  -3.43777E+4   2.66948E+4
  -3.40949E+4   2.66159E+4
  -3.38865E+4   2.65976E+4
  -3.37292E+4   2.65680E+4
  -3.36235E+4   2.64266E+4
  -3.34392E+4   2.63828E+4
  -3.32772E+4   2.62577E+4
  -3.30157E+4   2.61106E+4
  -3.27195E+4   2.60244E+4
  -3.25451E+4   2.59402E+4
  -3.22805E+4   2.58225E+4
  -3.20589E+4   2.57274E+4
  -3.18472E+4   2.57046E+4
  -3.16610E+4   2.55487E+4
  -3.14291E+4   2.54233E+4
  -3.11958E+4   2.53732E+4
  -3.09849E+4   2.52442E+4
  -3.06950E+4   2.51124E+4
  -3.05766E+4   2.49983E+4
  -3.03121E+4   2.48562E+4
  -3.01579E+4   2.48233E+4
  -2.98824E+4   2.45949E+4
  -2.96180E+4   2.46022E+4
  -2.93990E+4   2.43969E+4
  -2.91992E+4   2.43830E+4
  -2.89589E+4   2.43463E+4
  -2.87231E+4   2.42413E+4
  -2.84661E+4   2.40929E+4
  -2.82040E+4   2.40310E+4
  -2.79383E+4   2.39178E+4
  -2.77493E+4   2.38682E+4
  -2.75287E+4   2.36559E+4
  -2.73585E+4   2.36562E+4
  -2.71611E+4   2.35866E+4
  -2.70057E+4   2.34275E+4
  -2.67967E+4   2.32132E+4
  -2.64601E+4   2.31507E+4
  -2.62218E+4   2.31510E+4
  -2.60089E+4   2.30795E+4
  -2.58308E+4   2.29613E+4
  -2.56004E+4   2.29192E+4
  -2.53951E+4   2.28124E+4
  -2.51489E+4   2.27681E+4
  -2.49493E+4   2.26605E+4
  -2.46739E+4   2.25718E+4
  -2.44435E+4   2.24732E+4
  -2.42276E+4   2.24956E+4
  -2.41181E+4   2.24558E+4
  -2.39739E+4   2.22426E+4
  -2.37071E+4   2.21723E+4
  -2.34794E+4   2.21316E+4
  -2.32573E+4   2.21187E+4
  -2.31300E+4   2.21420E+4
  -2.29279E+4   2.19274E+4
  -2.27501E+4   2.18871E+4
  -2.25288E+4   2.17319E+4
  -2.23148E+4   2.17598E+4
  -2.21647E+4   2.16018E+4
  -2.19403E+4   2.14624E+4
  -2.17740E+4   2.14047E+4
  -2.14846E+4   2.13665E+4
  -2.13026E+4   2.13684E+4
  -2.11561E+4   2.11586E+4
  -2.09566E+4   2.11792E+4
  -2.08450E+4   2.10308E+4
  -2.06399E+4   2.09350E+4
  -2.04324E+4   2.07855E+4
  -2.02599E+4   2.07455E+4
  -2.01272E+4   2.06700E+4
  -1.98875E+4   2.06358E+4
  -1.97885E+4   2.05175E+4
  -1.95842E+4   2.04258E+4
  -1.94377E+4   2.02880E+4
  -1.91935E+4   2.01536E+4
  -1.90800E+4   2.01228E+4
  -1.89757E+4   1.99198E+4
  -1.87957E+4   1.99301E+4
  -1.86007E+4   1.98600E+4
  -1.84943E+4   1.97665E+4
  -1.82983E+4   1.96478E+4
  -1.82054E+4   1.94787E+4
  -1.79217E+4   1.94512E+4
  -1.77370E+4   1.93738E+4
  -1.75975E+4   1.93094E+4
  -1.74648E+4   1.92188E+4
  -1.73417E+4   1.90349E+4
  -1.71597E+4   1.90151E+4
  -1.70173E+4   1.89560E+4
  -1.68173E+4   1.88078E+4
  -1.67196E+4   1.87578E+4
  -1.65601E+4   1.85864E+4
  -1.63803E+4   1.85121E+4
  -1.62232E+4   1.84449E+4
  -1.61041E+4   1.83474E+4
  -1.59717E+4   1.82676E+4
  -1.57897E+4   1.81774E+4
  -1.56390E+4   1.80807E+4
  -1.54715E+4   1.79279E+4
  -1.53354E+4   1.79221E+4
  -1.52281E+4   1.78100E+4
  -1.50802E+4   1.76561E+4
  -1.49865E+4   1.75488E+4
  -1.47385E+4   1.74411E+4
  -1.46661E+4   1.73534E+4
  -1.45156E+4   1.73095E+4
  -1.43675E+4   1.72291E+4
  -1.42782E+4   1.70774E+4
  -1.41498E+4   1.69793E+4
  -1.39941E+4   1.68563E+4
  -1.39061E+4   1.67609E+4
  -1.37446E+4   1.67045E+4
  -1.36090E+4   1.66397E+4
  -1.34810E+4   1.64602E+4
  -1.33081E+4   1.64336E+4
  -1.32767E+4   1.62905E+4
  -1.30751E+4   1.61894E+4
  -1.29643E+4   1.60047E+4
  -1.29107E+4   1.59509E+4
  -1.27098E+4   1.59462E+4
  -1.26420E+4   1.58049E+4
  -1.25340E+4   1.56955E+4
  -1.24075E+4   1.55593E+4
  -1.22306E+4   1.54487E+4
  -1.22018E+4   1.53886E+4
  -1.21030E+4   1.52407E+4
  -1.19197E+4   1.51701E+4
  -1.18147E+4   1.50358E+4
  -1.17362E+4   1.48731E+4
  -1.16265E+4   1.48273E+4
  -1.15148E+4   1.47398E+4
  -1.13788E+4   1.46808E+4
  -1.12790E+4   1.45478E+4
  -1.11846E+4   1.44160E+4
  -1.10902E+4   1.42852E+4
  -1.10391E+4   1.41939E+4
  -1.08490E+4   1.41269E+4
  -1.06941E+4   1.39826E+4
  -1.07573E+4   1.38690E+4
  -1.06502E+4   1.37983E+4
  -1.05802E+4   1.36770E+4
  -1.04290E+4   1.36182E+4
  -1.03231E+4   1.34984E+4
  -1.03014E+4   1.33505E+4
  -1.01116E+4   1.32764E+4
  -1.00488E+4   1.31914E+4
  -9.98151E+3   1.30762E+4
  -9.95863E+3   1.29913E+4
  -9.84764E+3   1.29130E+4
  -9.79756E+3   1.28263E+4
  -9.71046E+3   1.27047E+4
  -9.71654E+3   1.25939E+4
  -9.60136E+3   1.24701E+4
  -9.47240E+3   1.23726E+4
  -9.37331E+3   1.22714E+4
  -9.28336E+3   1.21821E+4
  -9.26466E+3   1.20753E+4
  -9.25586E+3   1.19983E+4
  -9.13685E+3   1.18964E+4
  -9.03378E+3   1.18199E+4
  -9.03747E+3   1.17530E+4
  -8.92174E+3   1.16468E+4
  -8.90013E+3   1.14963E+4
  -8.79239E+3   1.14651E+4
  -8.74606E+3   1.13915E+4
  -8.74895E+3   1.13009E+4
  -8.68474E+3   1.11847E+4
  -8.61558E+3   1.10711E+4
  -8.56602E+3   1.09591E+4
  -8.49776E+3   1.09327E+4
  -8.44315E+3   1.07880E+4
  -8.42201E+3   1.07102E+4
  -8.36331E+3   1.05953E+4
  -8.26278E+3   1.05521E+4
  -8.25724E+3   1.04912E+4
  -8.22923E+3   1.04180E+4
  -8.15969E+3   1.03092E+4
  -8.12896E+3   1.02507E+4
  -8.04867E+3   1.01217E+4
  -8.07370E+3   1.00439E+4
  -7.98117E+3   9.90074E+3
  -7.99573E+3   9.84937E+3
  -7.90042E+3   9.82477E+3
  -7.91039E+3   9.69533E+3
  -7.76215E+3   9.61467E+3
  -7.75125E+3   9.49303E+3
  -7.68118E+3   9.53190E+3
  -7.66089E+3   9.37372E+3
  -7.67424E+3   9.31045E+3
  -7.59094E+3   9.27294E+3
  -7.56524E+3   9.19091E+3
  -7.53554E+3   9.12659E+3
  -7.52793E+3   9.05343E+3
  -7.40728E+3   9.01966E+3
  -7.34878E+3   9.00613E+3
  -7.29251E+3   8.86515E+3
  -7.31767E+3   8.80447E+3
  -7.29477E+3   8.79407E+3
  -7.24858E+3   8.67374E+3
  -7.19671E+3   8.66858E+3
  -7.27568E+3   8.58771E+3
  -7.18241E+3   8.53708E+3
  -7.17657E+3   8.48431E+3
  -7.04583E+3   8.43877E+3
  -7.11289E+3   8.32341E+3
  -7.01085E+3   8.28852E+3
  -6.99971E+3   8.26305E+3
  -6.96684E+3   8.23189E+3
  -6.99917E+3   8.22274E+3
  -6.94751E+3   8.16311E+3
  -6.90355E+3   8.07161E+3
  -6.90712E+3   8.03730E+3
  -6.88253E+3   8.00210E+3
  -6.79889E+3   7.98014E+3
  -6.73865E+3   7.94544E+3
  -6.78851E+3   7.90414E+3
  -6.75370E+3   7.82902E+3
  -6.76750E+3   7.82170E+3
  -6.66990E+3   7.70827E+3
  -6.72302E+3   7.65832E+3
  -6.69753E+3   7.64638E+3
  -6.64110E+3   7.52556E+3
  -6.56509E+3   7.55176E+3
  -6.63734E+3   7.53248E+3
  -6.51939E+3   7.52779E+3
  -6.54511E+3   7.44517E+3
  -6.55816E+3   7.40848E+3
  -6.48873E+3   7.37929E+3
  -6.49731E+3   7.33422E+3
  -6.38869E+3   7.26102E+3
  -6.40423E+3   7.25764E+3
  -6.41627E+3   7.24949E+3
  -6.35942E+3   7.17625E+3
  -6.35094E+3   7.15886E+3
  -6.30757E+3   7.10622E+3
  -6.28552E+3   7.11039E+3
  -6.29016E+3   7.05153E+3
  -6.23129E+3   6.98748E+3
  -6.25932E+3   6.95862E+3
  -6.20603E+3   6.89454E+3
  -6.17297E+3   6.93723E+3
  -6.10415E+3   6.89719E+3
  -6.13876E+3   6.84419E+3
  -6.07222E+3   6.90365E+3
  -6.05430E+3   6.80670E+3
  -6.06303E+3   6.75194E+3
  -6.01144E+3   6.70069E+3
  -5.94624E+3   6.67148E+3
  -5.92671E+3   6.68311E+3
  -5.92563E+3   6.67700E+3
  -5.92361E+3   6.66367E+3
  -5.88659E+3   6.66893E+3
  -5.87333E+3   6.56740E+3
  -5.84017E+3   6.54684E+3
  -5.81459E+3   6.47986E+3
  -5.78016E+3   6.49125E+3
  -5.72079E+3   6.43707E+3
  -5.72016E+3   6.51602E+3
  -5.66628E+3   6.45230E+3
  -5.66531E+3   6.42433E+3
  -5.61049E+3   6.41358E+3
  -5.62779E+3   6.32553E+3
  -5.60292E+3   6.32087E+3
  -5.58162E+3   6.34685E+3
  -5.49205E+3   6.26324E+3
  -5.44972E+3   6.30580E+3
  -5.46763E+3   6.27803E+3
  -5.43452E+3   6.18655E+3
  -5.44156E+3   6.17412E+3
  -5.38383E+3   6.13945E+3
  -5.31568E+3   6.17203E+3
  -5.32210E+3   6.14953E+3
  -5.30854E+3   6.12170E+3
  -5.22791E+3   6.14958E+3
  -5.27885E+3   6.09362E+3
  -5.20409E+3   6.04160E+3
  -5.27033E+3   6.04224E+3
  -5.09920E+3   6.05910E+3
  -5.07902E+3   5.93784E+3
  -5.07761E+3   5.97283E+3
  -4.99589E+3   5.94771E+3
  -5.03483E+3   6.00783E+3
  -5.01551E+3   5.93629E+3
  -4.93478E+3   5.86735E+3
  -4.96093E+3   5.94459E+3
  -4.86077E+3   5.89395E+3
  -4.89784E+3   5.80919E+3
  -4.88902E+3   5.85022E+3
  -4.76944E+3   5.74900E+3
  -4.80305E+3   5.79243E+3
  -4.78049E+3   5.79103E+3
  -4.75621E+3   5.74488E+3
  -4.64548E+3   5.74796E+3
  -4.61177E+3   5.71202E+3
  -4.62576E+3   5.74178E+3
  -4.65922E+3   5.69211E+3
  -4.57174E+3   5.66623E+3
  -4.58223E+3   5.69795E+3
  -4.51647E+3   5.65178E+3
  -4.40524E+3   5.62134E+3
  -4.49550E+3   5.63223E+3
  -4.37897E+3   5.55442E+3
  -4.35326E+3   5.54405E+3
  -4.32802E+3   5.50647E+3
  -4.36865E+3   5.45566E+3
  -4.29444E+3   5.49427E+3
  -4.25178E+3   5.44384E+3
  -4.17383E+3   5.47890E+3
  -4.13831E+3   5.42394E+3
  -4.12432E+3   5.34060E+3
  -4.14875E+3   5.41819E+3
  -4.15786E+3   5.37117E+3
  -4.09932E+3   5.36552E+3
  -4.00640E+3   5.32117E+3
  -3.96469E+3   5.20345E+3
  -4.01626E+3   5.26409E+3
  -3.93459E+3   5.30440E+3
