 
 $NMID
 ID=''
 FMTDAT='(2E13.5)'
 TRAMP=   1.00000E+0
 VOLUME=   1.00000E+0
 $END
   1.09681E+3   3.50874E+2
  -1.07134E+3   2.45013E+3
   7.09475E+3  -3.90019E+3
  -5.18880E+2  -3.22316E+3
  -7.32039E+2  -2.17638E+3
   1.24066E+3  -2.40834E+3
  -1.84073E+3  -3.48117E+2
  -4.39352E+3  -4.00780E+3
  -2.36574E+3  -3.12445E+3
  -2.96813E+3  -1.91149E+3
  -8.39977E+2  -2.78012E+3
   2.18458E+3   4.80884E+3
  -1.52206E+3   4.62482E+3
  -6.68825E+3   6.22933E+2
  -3.92473E+3  -2.97753E+3
   5.26684E+2   7.19567E+2
   3.14644E+3   2.24880E+3
  -3.95950E+1   4.44900E+3
  -1.07038E+3   4.10846E+3
   9.91154E+2  -1.59421E+3
   4.20796E+3   1.83996E+3
   9.15840E+2   3.63988E+3
  -4.39085E+3   2.73841E+3
   2.87888E+3  -2.35496E+3
   6.20726E+3   3.27303E+2
   6.43136E+2   3.87765E+3
  -4.77372E+2   4.65499E+2
  -3.73733E+2  -3.43550E+3
   1.20291E+3  -6.52098E+3
   6.68475E+3  -1.64602E+3
   5.29290E+2   4.50013E+3
  -7.76574E+3   3.98042E+3
  -7.05780E+3  -3.64943E+3
   3.89962E+0  -2.47746E+1
   3.76959E+2   1.15133E+3
  -2.12131E+2  -5.29338E+2
   3.89781E+3  -2.19044E+3
   4.94792E+3   2.58110E+3
   1.04613E+3   2.23003E+3
  -2.60777E+3  -3.90446E+2
  -2.82201E+3   1.87560E+3
  -6.24018E+3  -3.32614E+3
   1.96715E+3  -8.25584E+3
   7.34175E+3  -3.57906E+3
   2.94568E+3   4.40782E+2
   7.49058E+2   1.57569E+3
   1.30751E+3   2.31521E+3
  -2.42484E+3   3.06685E+3
  -3.38176E+3   5.76639E+2
  -2.80905E+3  -3.07663E+2
   9.00310E+2  -1.66592E+3
   1.77372E+3  -2.12537E+3
   3.81006E+3   2.18847E+3
   1.66522E+3   3.39715E+3
  -2.94785E+3   2.64657E+3
  -4.74702E+3   2.00924E+2
  -5.47994E+3   1.25665E+3
  -4.28465E+3  -4.21907E+3
   1.45957E+3  -5.92382E+3
   4.50100E+3  -2.37832E+3
   3.43421E+3   2.80942E+3
  -5.68362E+2   4.19875E+3
  -2.62160E+3   1.61177E+3
  -1.20576E+3  -1.40521E+3
   2.12166E+3   3.22026E+2
  -6.35949E+2   2.42909E+3
  -4.01433E+3   3.56102E+3
  -3.86225E+3  -1.63754E+3
   1.46896E+3  -3.55576E+3
   5.47544E+1   1.15456E+3
   8.33908E+2  -1.05242E+3
   5.15778E+2  -4.82139E+2
   1.98650E+3  -1.04164E+2
   1.31108E+3  -8.14703E+2
   2.32640E+2   5.72428E+2
   1.06624E+3   1.68736E+3
   2.53074E+3  -1.72129E+3
   3.23084E+3  -8.06042E+2
   2.82516E+3   1.46506E+3
   5.74906E+2   2.05678E+3
   8.65620E+1   5.56280E+2
   1.73057E+3  -9.61577E+2
   2.65595E+0   4.03882E+2
  -1.49335E+3   5.67249E+2
  -9.39141E+2  -1.22669E+3
   1.83064E+2  -4.58789E+2
   3.87403E+3  -2.48196E+1
   4.57768E+3   3.69104E+3
   1.04798E+3   4.94085E+3
  -1.22507E+3   2.76381E+3
   3.23481E+2   1.09151E+2
   4.30347E+2  -2.28606E+2
  -2.30814E+3   9.39975E+2
  -3.84663E+3  -3.53679E+3
  -1.31275E+3  -3.08739E+3
   3.45641E+3  -1.63853E+3
   3.31675E+3   2.05453E+3
  -3.19249E+3   2.03476E+3
  -3.48985E+3   9.56357E+2
   4.41535E+2  -3.58315E+3
   4.20406E+3  -2.06905E+3
   2.51115E+3   3.93652E+3
  -2.62283E+3   2.73182E+3
  -7.19457E+2  -1.19385E+3
  -6.65107E+2  -1.93838E+3
   2.16356E+1  -1.54172E+3
  -1.61843E+3  -1.04337E+2
   7.48020E+2  -3.66893E+3
   2.71987E+3  -3.08279E+3
   4.26678E+3   3.69281E+2
   3.03709E+3   2.06572E+3
  -1.52499E+3   4.11007E+3
  -1.66484E+3   2.33195E+3
  -9.90447E+2   1.97032E+3
  -7.34481E+2   1.38300E+2
   4.96953E+2  -1.06789E+3
   2.61431E+3   1.10972E+3
   3.74736E+2  -7.08557E+2
   1.47274E+3   2.80467E+2
   2.04754E+2   8.35990E+2
  -1.62157E+3   5.57348E+2
   2.46910E+3  -1.74195E+3
   1.10148E+3  -1.38396E+3
   1.25824E+3   1.82172E+3
   1.85298E+3   7.18721E+2
   2.83187E+2  -1.01175E+3
   4.83043E+2  -1.80513E+2
  -1.00999E+3   3.10118E+3
  -1.26516E+3   1.57222E+3
  -5.66021E+2  -8.79690E+2
   2.48983E+3  -6.88643E+2
   6.16920E+2   2.03621E+3
  -8.94324E+2   2.58492E+3
  -6.02768E+2   6.97793E+2
  -1.89285E+3  -3.26716E+3
   2.78533E+3  -1.84666E+3
   2.61508E+3  -1.79389E+3
   5.18009E+2   7.15066E+2
   4.57993E+2  -5.34124E+2
   1.60189E+2  -9.09836E+2
   1.24923E+3  -3.75918E+2
   4.15851E+2   1.38043E+3
  -1.85331E+3   5.33798E+2
   1.40701E+1  -1.82796E+1
   1.04909E+2  -1.83338E+3
   6.77528E+2  -6.56499E+2
  -3.19623E+2   2.56457E+2
  -4.87929E+2  -4.65960E+2
  -2.25315E+3   4.48480E+2
  -1.04728E+3  -5.30693E+2
   3.37337E+2  -1.99953E+3
   2.26415E+3  -1.04034E+3
   2.47579E+3   7.82151E+2
   1.55220E+3   1.55999E+3
   1.27669E+3   2.29204E+2
  -2.54163E+3  -7.73498E+2
  -2.33963E+3  -1.71839E+3
  -1.74546E+3  -1.84460E+3
   6.78967E+2  -7.94806E+2
   2.29810E+2   1.34627E+3
   1.80777E+3  -1.81095E+3
   2.85988E+2  -1.48077E+3
  -3.06886E+2   1.17629E+3
  -6.93491E+2  -1.23668E+3
  -1.08814E+3  -9.58016E+2
  -1.53903E+2  -3.34057E+3
   1.96710E+3  -2.11496E+3
   1.51507E+2   1.05737E+3
  -3.01531E+3   6.15453E+2
  -2.01233E+3  -1.47025E+3
  -8.57653E+2  -3.36522E+3
   2.05428E+3  -3.28692E+3
   2.09317E+3  -1.63315E+3
   8.65191E+2   8.35216E+2
  -1.15019E+3   1.62110E+3
  -1.78692E+2   7.02644E+2
   1.06659E+3  -5.64768E+2
  -1.68231E+3  -1.22683E+3
  -1.19829E+3  -1.53298E+3
   4.23747E+2  -1.76745E+3
   1.70734E+3  -5.74142E+2
   4.33343E+2  -1.68397E+3
   8.97301E+2   1.01577E+3
  -1.71897E+3  -2.10689E+1
  -6.25858E+2   1.98765E+2
  -8.79618E+2  -6.31474E+2
   2.34667E+2  -2.65904E+3
   1.84671E+3  -2.06807E+3
   9.54629E+1  -8.30976E+2
  -1.12517E+3   6.95952E+2
  -2.60870E+3   7.85575E+2
  -1.13692E+3  -1.08439E+2
  -1.04432E+2  -1.37136E+3
  -2.43843E+2  -2.62399E+2
  -1.61541E+3   6.24567E+2
  -2.11836E+3   2.00340E+2
  -3.67715E+2  -1.93203E+3
  -7.62731E+2   3.27006E+0
  -5.40683E+2   2.51535E+3
  -1.09321E+3  -1.34111E+3
   1.02735E+3  -1.13847E+3
   1.30233E+2   9.12520E+2
   6.62352E+2   2.58679E+3
   1.84227E+3   2.31209E+3
  -1.84143E+3   2.33516E+3
  -2.19877E+3   8.85473E+1
  -1.05966E+3   3.00729E+2
  -4.19188E+2   1.31459E+3
  -2.15855E+3  -7.52369E+2
   2.30765E+2  -1.78451E+3
   1.53561E+3   4.67271E+2
  -1.68055E+3   1.01220E+3
  -2.97873E+3   2.20894E+3
  -9.51484E+2   7.94338E+2
   1.01659E+3  -1.37618E+3
  -6.69421E+2  -1.80248E+3
  -1.16892E+3  -1.53145E+3
  -5.66475E+2  -2.61555E+1
  -4.28483E+2   2.40842E+2
  -1.42822E+3  -6.42287E+2
  -1.83899E+3   4.68654E+2
  -1.54008E+3   2.41008E+2
   1.52977E+3   1.89649E+3
   7.60941E+2   6.68731E+2
   1.07267E+3   1.33594E+3
   1.01348E+3  -1.03646E+3
  -1.65842E+3  -1.28607E+3
  -7.13887E+2  -1.43001E+3
   6.08074E+2   3.94888E+2
   9.10485E+2  -1.23628E+3
  -3.44166E+2   1.19028E+3
  -1.58098E+2   1.21400E+2
   1.89980E+2  -9.08370E+2
  -1.30676E+3   9.19911E+2
  -1.30882E+3   3.87844E+2
  -2.57857E+3  -2.24055E+3
  -6.28687E+2  -1.67029E+3
   2.27043E+3  -1.50059E+3
   9.24307E+2   1.98697E+3
  -6.85836E+1   1.55490E+3
   3.74133E+2  -1.11690E+3
   1.28731E+3  -6.12710E+2
   5.39821E+1  -2.56129E+3
   3.94590E+2   9.94400E+2
  -3.22342E+2  -9.66772E+2
  -2.39260E+2  -8.50986E+2
   1.23070E+3  -1.48301E+2
   5.68122E+2   1.50651E+3
  -2.92471E+2   5.29314E+2
  -5.00972E+1  -1.06376E+3
   1.61516E+3  -2.85277E+3
   1.63123E+3  -1.20445E+3
   1.14791E+3   1.93454E+3
  -6.72020E+2   1.08992E+3
  -9.89177E+2   1.38249E+3
   4.16277E+1   7.25157E+2
  -1.60703E+3   4.16563E+2
  -1.39214E+3  -1.57850E+3
  -4.11592E+1  -5.42717E+2
   1.05792E+3   2.93842E+2
   9.79751E+1  -3.41067E+2
   1.41427E+2   8.86991E+2
   1.22576E+3   3.25854E+2
   1.46779E+3   1.29417E+3
   8.92995E+2  -1.10152E+3
  -5.33575E+2   1.49769E+2
   2.01147E+2   1.03465E+3
  -6.88683E+2  -1.34034E+3
   6.18821E+2   6.55307E+2
  -1.51320E+2   1.48060E+3
  -2.02004E+3  -6.47972E+2
   2.91782E+2  -3.01689E+3
   5.31008E+2   3.24689E+2
  -4.78561E+1  -1.19034E+2
   1.14993E+3   1.21776E+2
  -2.95020E+2  -1.28493E+3
  -1.99353E+3  -1.13055E+3
   1.47379E+3   1.81829E+3
   3.63305E-1  -8.40214E+2
  -1.08082E+3  -1.51045E+2
  -1.05810E+3  -1.11490E+2
  -7.17319E+2  -1.67339E+3
   3.03837E+3  -1.81793E+2
  -1.26153E+3   3.88511E+2
  -1.08353E+3  -8.35397E+1
  -3.47864E+2   6.57028E+2
   1.77031E+3   4.48430E+2
   6.45543E+2   9.09733E+2
   4.70111E+2  -6.28427E+2
   1.15181E+2  -9.21457E+2
  -1.73712E+3  -5.18187E+2
  -2.49575E+3  -1.11625E+3
   7.60476E+2   4.98121E+2
   3.40453E+2   3.96083E+2
  -4.58993E+2  -2.97839E+2
   6.05255E+2   1.28971E+3
   6.78922E+2   5.97718E+2
  -8.46575E+1   6.74946E+2
  -7.98939E+2   1.47108E+2
   2.75888E+2  -5.10615E+2
  -1.47899E+3   1.57895E+3
   1.32879E+3  -9.17938E+2
  -1.16161E+3  -9.05377E+2
  -5.94223E+2   6.37949E+1
   7.00197E+2   2.01582E+3
   5.77554E+2   3.06008E+2
  -2.17896E+3  -4.46326E+1
  -5.63492E+2   1.11389E+3
   1.31712E+3   5.61189E+2
   5.65201E+2  -1.54575E+2
   4.24605E+2   3.50656E+2
  -3.09100E+2   6.90108E+2
  -4.51443E+2   4.53478E+2
  -1.43430E+3  -3.65538E+2
   3.75094E+2   1.80036E+3
  -5.22918E+2   2.12394E+3
  -1.63672E+3  -1.50149E+3
   9.49932E+2  -1.27946E+3
   2.79828E+2   5.75050E+2
   1.30125E+2   1.76380E+3
  -6.55558E+2   2.46078E+3
  -5.68960E+2  -3.31544E+2
  -9.77669E+2   3.41364E+1
  -5.17286E+2  -2.12316E+2
   9.92352E+2   2.03903E+2
   1.04892E+3   3.60244E+2
   1.17856E+2   1.97252E+3
  -7.28109E+2   2.14875E+1
  -6.62845E+2   5.73958E+2
   7.64766E+2   5.49170E+2
   8.08577E+2  -2.94337E+2
   8.70540E+2  -5.38072E+2
   8.75384E+2   3.15761E+2
  -2.17047E+2   3.10294E+2
   1.35822E+3  -1.87402E+3
  -2.62429E+2   2.03421E+2
  -9.27484E+2   3.53764E+2
   3.93483E+2  -5.88901E+2
  -5.92799E+2   1.00367E+3
   8.94728E+2   1.11781E+3
   1.14215E+3   4.28557E+1
  -2.48590E+3   1.05085E+3
   5.75066E+2  -2.29334E+2
   5.79103E+2   1.13909E+3
   1.51089E+3   4.48463E+2
   1.04936E+3   1.76935E+2
   9.22397E+2  -3.89025E+1
  -1.71437E+2   6.85127E+2
  -4.15099E+2  -2.06122E+2
   8.88416E+2   5.43151E+1
  -6.56793E+2  -1.03148E+3
  -7.51306E+2  -4.28083E+1
   1.07070E+3  -8.25789E+1
   1.48506E+2  -1.00397E+3
   4.04905E+2   5.81091E+2
  -3.26278E+3   2.25474E+2
  -7.20522E+2   1.35251E+3
   1.59420E+3  -2.22089E+3
   1.66095E+3   5.66294E+2
   5.85854E+2  -6.16481E+2
  -4.57545E+2  -4.22155E+2
  -1.41673E+3  -5.62357E+2
  -9.68190E+1   1.64606E+2
  -1.05038E+3   8.48004E+2
  -1.08171E+3   1.43875E+2
  -1.22491E+3   2.05938E+2
   2.19518E+3  -1.46930E+3
