 
 $NMID
 ID=''
 FMTDAT='(2E13.5)'
 TRAMP=   1.00000E+0
 VOLUME=   1.00000E+0
 $END
  -1.90313E+2  -2.22299E+2
   1.19946E+3   9.31269E+2
  -2.07344E+3  -1.47490E+3
   3.41967E+2   5.17759E+2
   2.97474E+3   3.16933E+3
   2.03313E+3  -1.57567E+3
   4.47362E+3   2.04336E+2
   2.04822E+3  -4.83407E+2
  -8.04097E+2  -5.22509E+3
   1.72898E+3  -4.91798E+3
  -1.12721E+3  -3.80979E+3
   2.27659E+3  -4.46226E+3
   1.94029E+3  -8.29443E+2
  -3.81233E+3   1.00764E+3
  -2.14991E+3  -5.44570E+2
  -1.02793E+2  -2.85367E+3
   3.42463E+2  -1.32232E+3
   8.10080E+2  -1.66658E+3
   8.71529E+2  -1.34143E+2
  -3.18064E+3  -1.39803E+3
   9.38467E+2  -3.65217E+3
   9.43743E+2   1.15992E+3
  -5.60249E+1   4.84688E+3
  -4.11915E+3  -1.93968E+1
  -1.28598E+3   8.87751E+2
   7.63413E+2   3.38932E+3
   1.43068E+2   3.68916E+3
   1.79512E+2   2.08499E+3
  -8.73129E+2   2.42585E+2
   3.60031E+3  -2.60448E+3
   7.02056E+3   1.51299E+3
   2.84463E+3   4.41514E+3
  -9.55463E+2   1.91057E+3
  -1.53682E+3  -2.54430E+3
  -8.84272E+2  -7.28550E+2
  -3.80242E+3  -1.36054E+3
  -1.74785E+2  -6.12729E+3
   2.27368E+3  -4.97579E+2
   1.12518E+3   1.61055E+3
  -2.14573E+3   2.56647E+3
  -2.09654E+3   5.30700E+3
  -5.65284E+3   4.16296E+3
  -5.84650E+3  -1.71435E+3
   1.89073E+3  -5.76168E+3
   3.82462E+3  -2.48846E+3
   2.40188E+3  -1.14507E+3
   6.15891E+2   1.19603E+3
   1.26310E+3  -2.48630E+2
   6.84303E+2   5.12193E+2
  -2.87647E+3   9.69456E+2
  -3.94320E+3   4.49389E+2
  -2.41122E+3  -2.69614E+3
   1.74430E+2  -5.52322E+2
   1.63162E+3   1.31972E+3
  -1.87327E+3   4.61778E+3
  -1.05406E+3   5.42913E+3
  -2.63971E+3   4.28817E+3
  -7.91467E+3   3.56352E+2
  -4.80099E+3  -2.94757E+3
  -1.72770E+3  -5.64481E+3
   2.65783E+3  -6.80706E+3
   7.82580E+2  -2.34179E+3
  -1.56651E+3   4.44564E+1
  -2.30871E+3  -4.89036E+2
  -2.05824E+3  -1.93058E+3
   1.86419E+2   1.53370E+3
   1.84382E+2   1.18313E+3
  -1.74611E+3   6.97348E+2
  -2.24530E+3  -2.93604E+3
  -5.61398E+2   2.04877E+3
   2.26278E+3  -1.62297E+3
  -5.74625E+2  -8.58726E+2
  -7.77994E+2  -9.98605E+2
   2.25152E+3  -4.16636E+2
  -7.21884E+2  -1.60414E+3
   8.31568E+1  -7.72725E+2
   5.45346E+2   2.39729E+2
   2.06286E+3  -2.26900E+3
   2.98196E+3   9.74493E+2
   1.57422E+3   9.01032E+2
  -6.52353E+2   5.13731E+2
  -1.37997E+3   2.95568E+3
   1.64029E+3   3.65460E+2
   4.58244E+1   1.22391E+3
  -1.22286E+3   8.03472E+2
  -3.10571E+3  -6.00892E+2
  -3.55612E+2  -2.83754E+2
   1.65643E+3  -2.54997E+3
   1.45837E+3  -6.90340E+2
   2.92096E+2   3.91047E+3
   5.52056E+2   4.08294E+2
   1.05703E+3   4.25383E+2
   1.34152E+3   1.48531E+3
  -2.53562E+3   2.94026E+3
  -2.66121E+3   5.27676E+2
  -4.95683E+2  -3.84530E+3
   3.70753E+3  -1.18740E+3
  -1.25619E+3  -3.34452E+2
  -1.70750E+3  -1.57100E+3
  -3.48572E+3  -2.14180E+3
   1.86980E+3  -4.05893E+3
   5.14124E+3  -1.06599E+3
   2.17363E+3   2.78145E+3
  -2.41882E+2   1.12138E+3
  -1.82174E+2   4.56709E+2
   1.18115E+3  -4.49245E+2
  -4.10250E+2   2.58179E+3
  -9.31009E+2   6.33995E+2
  -1.54565E+3  -1.83042E+3
   2.50419E+3  -3.63062E+3
   3.56681E+3  -8.52387E+2
   1.77456E+3   8.40292E+2
   9.11172E+2   9.44996E+2
   3.05627E+2   1.97179E+3
  -4.59145E+2   3.44514E+2
  -1.15043E+3  -7.72965E+2
  -1.59331E+3  -8.70255E+2
   9.29384E+2  -3.32260E+2
   1.17190E+3  -1.12827E+3
   7.42252E+2   1.28785E+3
   6.72786E+2   1.42666E+3
  -6.90190E+2   1.07284E+3
  -1.41390E+3  -2.53174E+3
   3.54661E+3  -1.01892E+3
   2.34077E+2   2.51016E+3
   5.54459E+2  -2.73153E+2
   4.67336E+2   9.22372E+2
   1.40797E+2   7.12965E+2
   2.27303E+2   1.49026E+3
  -8.90851E+2   7.69636E+2
  -1.29621E+3  -1.09182E+3
  -2.54486E+2  -2.10289E+2
   3.81438E+2   1.21555E+3
   7.29740E+2   3.32525E+3
  -1.49939E+3   1.60709E+3
  -1.51882E+3  -1.54249E+3
   1.28136E+2  -1.25500E+3
   2.29835E+3  -1.24503E+3
   8.83533E+2   5.26049E+2
  -3.19169E+2  -1.54366E+3
   2.47809E+2   5.94065E+1
  -7.87298E+1   1.57891E+3
   1.55531E+3   2.61861E+3
   5.87686E+2   6.91297E+2
  -2.02088E+2   8.90865E+2
   3.55878E+2  -8.96863E+2
   5.72522E+2   1.13113E+3
  -1.46891E+3   2.10195E+2
   3.83255E+2   2.83047E+3
  -4.15299E+2   2.69550E+2
  -3.77441E+3   4.17903E+2
  -2.99436E+2  -3.84393E+2
   9.76509E+2  -2.77639E+3
   1.03685E+3   1.83258E+3
   2.24217E+3   1.09791E+2
  -6.14499E+2   2.06372E+3
  -1.58937E+2   7.81099E+2
   1.32594E+3   2.16283E+2
   1.03923E+3   2.08316E+1
  -6.25236E+2  -2.42083E+2
   7.51435E+1   7.50953E+2
  -5.46135E+2  -5.45452E+2
   3.23082E+1   4.98532E+2
   1.62130E+3  -2.71806E+2
  -1.45858E+3   2.86218E+2
  -5.53246E+2   1.14564E+3
   1.56413E+2   1.08754E+2
   1.20359E+3   1.67601E+3
   2.53591E+3   1.55518E+3
  -9.16911E+2   8.76985E+2
  -1.36229E+3  -1.47872E+2
   2.25606E+2  -1.77708E+2
  -1.54642E+2  -7.07802E+2
   1.44655E+3  -2.88723E+3
   1.04694E+3  -3.95633E+2
   7.70182E+1   2.90394E+2
   5.27705E+2   2.74937E+3
  -1.56253E+3  -4.66153E+2
  -1.19995E+3   1.30737E+3
  -4.16622E+2  -5.53239E+2
   2.39579E+2  -1.88922E+3
  -1.12333E+2   2.48927E+3
  -8.20545E+2  -1.96307E+2
   4.14753E+2  -6.68985E+1
  -1.39212E+2   1.89682E+3
   4.03164E+2   1.67647E+3
   5.53519E+2   1.87790E+3
  -2.23972E+2  -9.94106E+1
   1.93452E+3  -1.40314E+2
   1.68877E+3   1.60692E+3
   1.64611E+2   2.74392E+2
   1.20474E+3  -6.02246E+2
   1.03232E+3  -5.54680E+2
   4.65485E+1  -1.78893E+2
  -3.29670E+2  -7.33825E+2
   1.64344E+3   1.38773E+3
  -1.90219E+3  -5.26183E+1
   2.75223E+2   1.95511E+2
   2.76020E+3   2.54187E+2
  -2.19663E+3   2.24746E+3
  -5.59388E+2  -7.39779E+2
  -2.48556E+3  -1.94660E+3
  -9.93223E+2   4.39404E+2
   6.30242E+2   9.31975E+2
   2.20439E+3   8.64616E+2
  -1.13210E+3   4.68403E+2
  -1.19154E+3  -5.38542E+2
   1.70658E+3  -1.65304E+2
   1.36997E+3  -1.04622E+2
  -1.71103E+3   5.48178E+2
   5.06513E+2  -4.99029E+2
   6.32245E+2   1.85451E+3
   1.68134E+3  -1.24285E+2
  -7.51134E+2   2.91812E+1
   1.76890E+3   1.27115E+3
  -1.49009E+3  -1.31191E+3
  -5.85100E+2  -1.00746E+3
  -7.69167E+2  -1.20531E+3
  -6.62065E+2   8.83406E+1
  -1.19875E+3   8.66501E+1
   7.30602E+2  -1.45587E+3
   1.21480E+3  -7.18113E+2
   1.81991E+2   7.42508E+1
   1.59104E+3  -1.32438E+3
  -5.73934E+2  -5.38567E+2
  -1.17445E+3   1.23076E+3
   1.08677E+3  -6.42717E+2
  -1.26886E+2  -4.96502E+2
   1.25863E+3   5.20061E+2
  -2.03788E+3   8.97355E+2
   1.66194E+2   5.69125E+2
   5.59064E+2   2.15028E+3
  -1.50817E+3  -1.50632E+3
  -4.05621E+2   1.86742E+2
   1.79393E+1  -1.38640E+3
  -2.24324E+3   2.90168E+3
  -1.65205E+2   8.71836E+2
  -8.84731E+2   1.03805E+3
   3.39082E+2  -1.70615E+3
   1.04765E+3   3.28984E+2
   1.32618E+3   1.11226E+3
  -1.32497E+3   2.46337E+3
  -5.28587E+2  -7.79483E+2
  -1.50531E+3  -3.94718E+1
   1.41503E+3  -7.24763E+2
   5.14650E+2   2.43354E+2
   6.50284E+2  -6.83086E+1
  -4.27646E+2  -1.01309E+3
   2.39422E+2   1.22308E+2
   3.54562E+2   4.97411E+2
  -5.80312E+2  -1.51505E+3
  -3.68257E+2  -1.46795E+2
  -1.43535E+3   6.57360E+2
   4.80879E+1  -9.31674E+2
   5.80522E+2   1.05608E+3
   6.52439E+0   4.14803E+2
   2.01773E+2   1.88718E+3
   6.17931E+1  -1.52356E+3
  -1.00328E+3  -1.10033E+3
  -1.03845E+3  -1.69180E+3
  -2.10316E+2  -9.40578E+2
   5.35282E+2   8.98756E+2
   1.00467E+3   1.22170E+3
  -4.13040E+2   7.22105E+2
  -5.76755E+2  -1.13030E+3
  -1.04229E+3  -6.61302E+2
  -7.63666E+2  -1.59137E+3
   3.06368E+2   9.54985E+1
  -5.51467E+2   1.52764E+2
  -8.72342E+2   1.46947E+3
  -1.75798E+3   7.33686E+2
  -7.78877E+2  -1.12416E+3
  -1.52032E+3  -6.44755E+2
  -6.32198E+2  -2.03641E+3
   1.92415E+2  -7.94436E+2
   1.59059E+1  -8.82628E+1
   6.10096E+2  -7.36176E+1
  -2.56977E+2   7.97180E+0
  -1.17937E+3   1.38131E+1
   2.91700E+2   9.70979E+2
  -4.66938E+2   1.20766E+3
   6.55336E+2  -2.08120E+3
   1.98014E+2  -4.10680E+2
  -3.82765E+2   2.80934E+1
   4.85877E+2  -1.00432E+3
  -2.23230E+3   2.70942E+2
   1.88574E+3  -6.41284E+2
   7.34144E+2   8.54931E+2
  -1.55529E+3  -2.95793E+2
   1.04879E+3   5.00558E+2
   9.51230E+2  -7.49334E+2
  -9.81010E+1  -2.11965E+3
  -2.83147E+2  -4.45741E+2
  -6.85621E+2  -1.68869E+3
   2.44180E+2   1.49688E+3
   2.51900E+3   1.10337E+3
  -7.86446E+1  -5.08443E+2
   3.49359E+2   1.36570E+3
  -1.24050E+3   2.60500E+2
   2.55763E+2  -8.81886E+1
  -7.15450E+2   7.66219E+2
   1.96400E+3  -1.91704E+3
  -1.87749E+2  -8.48085E+1
  -4.14526E+2  -2.01130E+3
   2.59426E+2  -1.03291E+3
   1.64571E+2  -2.19980E+3
   1.63904E+3   6.33672E+2
   1.62739E+3  -1.59457E+2
   2.04337E+3   6.47840E+1
  -4.66968E+1  -1.11078E+3
   1.15645E+3   8.12563E+2
   7.96615E+2   3.94152E+2
   2.04242E+3   1.93577E+3
   7.58117E+2  -6.93349E+2
   2.20843E+3  -2.55735E+2
  -1.49274E+3   2.36470E+2
  -2.29923E+2   5.59848E+1
  -1.06502E+3   2.67965E+0
   5.24619E+2  -6.89801E+2
   4.23952E+2   5.25347E+2
  -9.14604E+1  -1.43922E+3
   9.87788E+2  -7.84571E+2
  -2.16641E+3  -1.24725E+3
   1.86676E+2   1.14171E+3
  -8.13108E+2  -9.87982E+2
   3.97778E+2  -4.05741E+2
   7.81424E+2  -7.00328E+2
   4.75539E+2  -1.21891E+3
   3.58995E+2  -3.09020E+2
   1.15918E+3   1.29404E+3
   8.65066E+2  -1.80969E+2
  -3.22198E+2   7.22904E+2
  -9.02613E+2  -1.70417E+3
   5.48996E+2  -3.32580E+2
  -9.81494E+2   1.45333E+3
  -1.82413E+3  -5.66651E+1
   4.34597E+2  -6.37773E+2
   9.07411E+2  -2.43904E+3
  -4.30527E+2  -1.31123E+3
  -6.21736E+2  -3.70086E+2
  -5.39067E+1  -7.86231E+2
   1.95220E+3   3.50847E+2
   1.83496E+3  -9.11012E+2
   9.13374E+2  -1.48909E+3
  -1.26752E+3   1.14938E+3
   1.42792E+2   5.62221E+2
   1.98931E+3  -6.85797E+2
   2.99403E+2  -1.11621E+3
   1.18539E+3  -1.55323E+3
  -4.24754E+2   8.34658E+2
   8.64588E+2  -2.36410E+3
  -6.33451E+2  -2.67613E+2
  -1.26332E+3   1.06424E+3
  -9.57162E+2  -1.93232E+3
  -8.16119E+2  -6.52897E+2
  -2.42658E+3  -7.25764E+2
   9.04728E+2   1.67468E+2
   1.94408E+3   3.78283E+2
  -1.61559E+3  -1.25115E+2
   2.31411E+2   4.83551E+2
  -1.31000E+3  -3.17970E+1
   5.21608E+2   4.26470E+2
  -9.91093E+2   6.18563E+2
   1.33971E+3  -2.71742E+3
  -1.15921E+3   2.38832E+3
  -8.65849E+2  -7.91633E+1
   1.33429E+3  -3.96957E+2
