 
 $NMID
 ID=''
 FMTDAT='(2E13.5)'
 TRAMP=   1.00000E+0
 VOLUME=   1.00000E+0
 $END
   6.48279E+2   2.95173E+2
  -1.63261E+3   3.00336E+2
   4.64941E+3   3.90315E+2
   8.80922E+1   3.50460E+2
   1.83371E+2   1.82027E+3
   3.23971E+3   1.15286E+3
   3.53913E+2  -1.68845E+3
  -2.18667E+3  -1.82253E+3
   2.81392E+3  -4.13754E+3
   2.36630E+3  -9.14176E+2
   3.99033E+3  -9.06016E+2
   1.09700E+3   2.16073E+3
  -3.12030E+3   1.72582E+3
  -3.44549E+3   2.25082E+2
  -3.90678E+3  -3.52485E+3
   1.19842E+3  -9.68330E+2
   9.32154E+2  -1.40187E+3
   9.38184E+2   2.03233E+3
  -7.42548E+2   9.80417E+2
  -1.16934E+3   1.62818E+3
   5.01817E+3   2.22204E+3
  -2.64018E+3   5.75416E+3
  -4.58700E+3  -8.08146E+2
   1.87759E+3  -5.79970E+3
   4.33942E+3   2.11649E+3
  -3.63340E+3   2.59410E+3
  -3.90481E+3  -4.07371E+3
   4.26709E+3  -2.79407E+3
   6.44056E+3  -2.38024E+3
   4.23060E+3   4.33690E+3
  -4.24439E+3   5.63862E+3
  -6.79023E+3  -3.32762E+3
  -2.03830E+2  -5.26777E+3
   2.47070E+3   1.25903E+3
  -3.26562E+2  -7.72418E+2
   2.49314E+3  -3.50194E+3
   2.42935E+3   1.00068E+3
  -4.23070E+3   3.85094E+3
  -4.57424E+3   1.18071E+3
  -1.49616E+3  -4.24349E+2
  -1.88618E+3  -3.12959E+3
   1.78638E+3  -5.58282E+3
   9.06343E+3   3.25614E+3
   8.88794E+2   8.62420E+3
  -1.87873E+3   3.64360E+3
  -2.29957E+3   4.29201E+3
  -1.43714E+2   3.97523E+3
  -2.45892E+3   6.79079E+2
  -1.63290E+3  -1.09537E+2
  -1.13047E+3  -9.74250E+2
   4.56417E+2  -2.21713E+3
   1.88005E+3   2.63633E+3
  -2.35282E+3   5.78788E+2
  -6.47129E+3  -3.20646E+3
  -3.44574E+2  -3.84557E+3
  -3.42891E+1  -3.84385E+3
   2.18260E+3  -4.46413E+3
   3.56776E+3  -2.93961E+3
   3.04024E+3   1.36403E+3
   1.68786E+3   5.49001E+3
  -7.93554E+2   2.27765E+3
  -3.00122E+3  -7.86165E+2
   1.26577E+3  -3.61673E+3
   4.06603E+3  -1.08744E+3
  -1.91690E+2  -9.75350E+2
  -6.99456E+2  -3.21046E+3
   2.03438E+3  -5.49663E+3
   3.86049E+3  -1.74924E+3
   2.28718E+3   1.74784E+3
   1.41432E+3  -1.40399E+3
   2.21096E+3  -4.09409E+2
   2.23850E+3   1.26513E+3
   1.12096E+3   3.42053E+3
  -1.60289E+3   2.50193E+3
  -9.97858E+2   8.22876E+2
  -1.01070E+3  -1.28781E+3
  -1.36269E+3   1.30366E+3
  -2.36314E+3   7.29984E+2
  -1.38413E+3   3.17085E+2
  -7.54518E+2  -1.73681E+3
   1.50974E+3  -1.90047E+3
  -6.36169E+2   4.87844E+2
  -1.42488E+3   5.57606E+2
   6.90255E+2  -1.37000E+3
   1.63927E+3   1.00240E+3
   1.01131E+3   6.41173E+1
  -2.96973E+3   2.55863E+3
  -4.31261E+3  -1.13545E+3
  -6.45531E+2  -2.83579E+3
   7.64905E+2  -9.71616E+2
   1.06257E+3  -4.07941E+2
   6.42164E+2  -3.38042E+3
   3.24735E+3  -1.91409E+3
   2.77213E+3   3.18152E+3
  -1.99407E+3   3.24096E+3
  -3.37774E+3  -2.11800E+2
  -9.60561E+2  -2.84339E+3
   2.21371E+3   2.37725E+2
  -4.14861E+2   3.26718E+3
  -1.21307E+3   2.85482E+3
  -3.48417E+3  -1.00431E+3
   4.23717E+1  -2.89924E+3
   3.60612E+3  -2.20640E+3
   2.35031E+3   1.25737E+3
  -1.09742E+3   3.20872E+3
   4.29142E+2   1.37334E+3
   4.54929E+2  -7.17589E+2
  -8.86414E+2   1.48555E+3
  -2.58059E+3  -4.85365E+2
  -1.07742E+3  -1.41489E+3
   6.30475E+2  -3.03618E+3
   1.03387E+3   2.73061E+3
   5.72624E+2   4.75030E+2
  -1.33113E+3   1.75044E+3
  -6.91059E+2   6.41091E+2
  -1.31595E+3   7.80464E+2
  -6.99990E+2  -7.41066E+2
  -6.98986E+2  -2.42875E+3
   5.04685E+2   1.04959E+3
   6.47851E+2  -1.89866E+3
   8.07131E+2   6.82676E+1
   6.28057E+2   1.25101E+3
  -1.94056E+2  -3.00886E+2
   6.14523E+2   1.04450E+2
   2.73521E+3  -4.07293E+2
  -1.23140E+2   5.74500E+2
   4.99014E+2  -8.06283E+2
   2.03010E+3  -8.79042E+2
  -1.67349E+3  -1.02401E+3
   9.30833E+2   2.56394E+3
   9.15063E+2   2.84921E+2
   5.71347E+2  -1.19236E+3
   2.23705E+2   4.56989E+2
  -3.52564E+2   4.05712E+2
  -1.55004E+3   4.94881E+2
  -1.30767E+3  -6.41036E+2
   2.95276E+2   4.51514E+2
   1.10825E+3  -1.49552E+3
   1.58533E+2  -5.39047E+1
   4.87154E+2   1.25105E+3
  -6.19798E+1   2.90761E+2
   1.68595E+3   7.97917E+2
  -2.77645E+2  -1.98620E+3
   6.50837E+1   1.16632E+3
   9.99848E+2   1.80097E+3
  -9.28687E+2   1.25015E+3
  -3.16266E+2   1.89518E+3
   3.92507E+2  -1.19626E+2
   1.00863E+3  -4.87026E+2
   1.46290E+3   1.61377E+3
  -1.05004E+2  -7.18606E+2
  -2.03153E+3  -1.00341E+3
   5.67173E+2  -4.19945E+2
   1.61073E+3   7.71023E+1
   1.10199E+3  -1.27738E+3
   1.77310E+2  -1.28858E+3
  -7.10647E+2  -3.17153E+1
  -4.93944E+2  -5.90957E+2
   2.95493E+2  -3.20862E+3
   1.69703E+2  -1.06894E+3
   1.45784E+3  -1.04106E+3
   6.39117E+2  -1.41101E+3
  -7.37451E+2  -2.27442E+3
  -7.91534E+2   7.70179E+2
  -2.18325E+2  -9.98024E+2
   4.93008E+1  -6.15232E+2
   4.15820E+2  -6.88353E+2
   6.11368E+2   1.38577E+3
   1.01252E+3  -6.85289E+2
  -3.65663E+2  -1.49262E+3
  -6.82584E+2   3.58102E+2
   1.46977E+3  -1.63610E+3
   1.99356E+3   1.57489E+2
  -4.70325E+2   8.95125E+2
   5.13642E+2   6.66567E+2
   7.31696E+2   9.30412E+2
   1.03014E+3  -8.62061E+1
   3.15259E+2  -1.37993E+1
  -1.15351E+3  -1.71143E+3
   7.75846E+2  -7.41276E+2
   1.17898E+3   1.41729E+2
  -1.95194E+3  -1.20621E+3
   4.79702E+2   5.86927E+2
   7.61736E+2  -1.14956E+2
   6.22381E+2   9.26859E+2
  -6.75260E+2  -1.16038E+3
  -4.90229E+2  -1.38242E+2
  -2.25264E+3  -8.21782E+2
   2.60831E+3   3.64087E+2
   7.99174E+2   4.96434E+2
   1.66882E+2   7.31467E+1
   1.68026E+2   2.49374E+3
  -5.56201E+2  -1.86582E+2
  -9.12936E+2   4.47911E+2
  -1.34841E+3   1.31682E+3
   1.86186E+2   1.12390E+3
  -8.23395E+2   2.86967E+2
   4.60432E+2   6.90693E+2
  -1.13972E+3  -4.74676E+2
  -1.87505E+3   1.46689E+3
  -2.76076E+2  -1.14178E+2
  -6.80046E+2   4.44212E+2
  -1.61236E+3  -1.80475E+2
   3.45746E+1   3.73422E+2
  -1.53632E+3  -2.20151E+2
   2.85668E+2   1.59650E+3
   6.89218E+1   1.05501E+3
   4.99807E+2  -2.49443E+2
  -1.28937E+3  -3.87578E+2
   1.55744E+2   1.38838E+2
   6.44661E+2  -4.80503E+2
   6.40021E+2   1.23561E+3
  -1.49588E+3   1.18423E+3
  -5.49184E+2  -7.73813E+2
  -9.76278E+2   9.62560E+2
   7.53069E+2  -7.74597E+2
  -2.14714E+3   3.99358E+2
  -3.15536E+2   2.04590E+3
  -1.57430E+3   1.12958E+3
  -6.43173E+1   2.24477E+3
  -1.11990E+3   1.64233E+3
  -8.38235E+2   1.30461E+3
  -3.06806E+2  -5.59994E+2
   1.87221E+2  -4.37346E+2
  -8.81457E+1   6.09793E+2
   1.27770E+3   7.69330E+2
   1.17338E+3   2.58258E+3
  -1.33905E+3   3.26511E+2
  -8.98789E+2   2.33440E+0
  -2.11164E+2   3.71365E+2
   6.58626E+2   5.33220E+2
  -5.50353E+2  -3.55216E+2
   2.52025E+2  -2.81377E+2
   9.17576E+2   6.14825E+2
  -2.91926E+2   7.29710E+2
   7.14078E+2   1.05977E+3
   5.50456E+2  -2.76715E+2
   3.51205E+2  -1.03587E+3
  -3.82980E+2   8.41530E+2
  -3.03206E+1   1.00150E+3
  -4.11525E+2   5.43784E+2
  -4.76902E+2   1.22380E+3
  -6.50822E+2  -4.40052E+2
   6.74209E+1  -1.05447E+3
  -2.03442E+3  -7.04988E+2
   1.15545E+3  -8.13233E+2
  -5.34951E+2  -5.74904E+1
   1.16481E+3   3.57784E+1
  -8.23093E+2   1.03077E+3
  -2.06724E+3   1.02909E+3
   7.86671E+2  -2.30113E+1
   5.20383E+2   2.02767E+3
  -3.00513E+1  -1.23747E+3
  -7.22473E+2   1.31779E+3
  -7.38654E+2   3.54158E+2
  -5.41049E+1   8.16830E+2
   5.52788E+2  -3.65749E+2
   1.77504E+2  -8.83371E+2
  -1.08704E+3  -3.26525E+2
  -1.06354E+2   8.87131E+2
   6.45799E+2   5.86413E+2
   3.22769E+2   6.59964E+2
   7.62124E+2  -1.06909E+3
   3.71454E+2   1.01655E+3
   5.98437E+2  -4.33683E+2
  -9.32575E+2   8.46356E+2
   1.01782E+3  -5.01200E+2
  -6.86481E+2   1.01946E+3
  -1.24570E+3  -2.02797E+3
   9.35215E+2  -2.47058E+2
  -2.13981E+2   2.89919E+2
   3.32209E+2  -3.02578E+2
   5.74010E+2  -1.78119E+3
  -5.91084E+2   8.98307E+2
  -3.70928E+2  -8.52146E+2
  -8.08166E+2   3.60582E+2
   1.97215E+2  -1.37229E+3
  -4.00026E+2  -7.80099E+2
  -9.00964E+2  -2.25124E+2
  -5.20803E+2  -9.65621E+2
   3.01378E+2  -4.88797E+2
  -1.92419E+3   7.02519E+2
   1.08215E+3  -1.96831E+3
   1.55230E+2  -4.48048E+1
   1.98054E+2  -8.67517E+2
  -9.16163E+1   9.40943E+2
  -5.64371E+2   1.92840E+2
  -1.04618E+2   6.32174E+2
   3.88952E+2   6.87676E+2
  -1.78527E+3  -4.68542E+2
   1.04360E+3  -3.15825E+2
   3.50779E+2  -1.42879E+3
  -9.30876E+2  -6.82930E+2
  -7.08271E+2   1.77821E+3
   2.72986E+3  -3.81037E+2
   4.88795E+1  -4.91876E+2
  -1.07732E+3  -2.13576E+3
  -5.09478E+2  -1.25604E+3
  -3.15468E+1   4.88517E+2
   1.18669E+3  -1.85721E+3
   1.67468E+3  -7.41677E+2
  -2.57135E+2  -2.60872E+2
  -1.92784E+3  -1.79068E+3
  -1.09281E+1   5.72730E+2
  -1.32424E+3   1.33459E+2
   1.40988E+2  -3.70002E+2
   1.94571E+3  -1.18340E+3
  -1.58021E+3   1.19167E+3
  -1.97353E+2  -8.48524E+2
   1.10772E+3  -1.77774E+2
   1.83161E+3   1.49736E+2
  -5.33860E+2  -1.28727E+3
  -7.79305E+2   7.93341E+2
   9.52906E+2  -2.37680E+3
  -2.23715E+2  -2.90985E+3
  -1.64087E+3   3.14901E+3
   1.98221E+3  -1.25916E+3
   1.20994E+2  -1.28967E+2
  -1.19716E+3  -4.77936E+1
   2.46741E+2  -1.82909E+3
  -4.38145E+2  -2.56161E+2
  -9.39451E+2  -9.98350E+2
   1.40197E+3  -4.57078E+2
   5.93219E+2  -1.16411E+3
   1.91744E+3   1.48261E+3
  -9.54877E+2  -7.35645E+2
  -5.87063E+2  -6.14487E+2
   6.09940E+2   7.35293E+2
   2.66068E+2   3.32712E+2
  -6.67645E+2   4.17448E+2
   2.31188E+2   1.67379E+3
  -1.83354E+3   7.42964E+2
   1.62165E+2  -6.05150E+2
   2.17842E+3   3.28995E+2
   1.75942E+3  -2.32751E+2
   9.69814E+2   3.40859E+2
   5.86364E+2   5.11249E+2
  -1.85501E+3  -6.39753E+2
  -2.49548E+2   9.62147E+2
  -3.94706E+2  -8.93203E+2
   2.45603E+3   8.59441E+2
   1.55349E+3  -7.90150E+2
   2.91734E+2   7.64169E+2
   1.54426E+3  -5.65586E+2
   8.35097E+2  -1.00898E+3
   1.61508E+3  -7.47105E+2
   1.42677E+3   6.02738E+2
  -1.71473E+3   1.32489E+3
   5.23712E+2   6.36011E+2
   1.31073E+2  -1.44839E+2
   1.84414E+3  -3.21724E+2
   9.81093E+2   1.93113E+2
   2.46969E+3   9.74725E+2
  -3.67980E+2  -2.16268E+2
   1.14756E+3  -8.69333E+2
  -6.00878E+2   1.41184E+3
   4.41745E+2   3.51432E+2
   4.56347E+2   1.79758E+3
   9.54146E+2  -5.20460E+2
   1.07535E+3   5.47572E+2
   9.98362E+2   1.16489E+3
   6.40564E+2  -1.08978E+2
   2.32895E+3   2.14884E+1
  -6.68878E+2   1.48482E+3
   8.41230E+2  -5.02457E+1
   1.51096E+3  -3.77961E+2
   1.16555E+3  -6.93995E+2
