 
 $NMID
 ID=''
 FMTDAT='(2E13.5)'
 TRAMP=   1.00000E+0
 VOLUME=   1.00000E+0
 $END
  -4.77384E+3   1.95810E+4
  -2.56953E+4   4.48322E+4
  -1.69350E+4   4.85641E+4
  -1.49880E+4   4.46681E+4
  -1.64662E+4   4.58600E+4
  -1.38675E+4   4.66730E+4
  -1.31315E+4   4.46371E+4
  -1.38733E+4   4.47990E+4
  -1.20453E+4   4.53044E+4
  -1.13524E+4   4.39451E+4
  -1.15873E+4   4.39296E+4
  -9.94392E+3   4.39918E+4
  -9.08257E+3   4.32204E+4
  -9.25898E+3   4.31798E+4
  -8.05206E+3   4.32069E+4
  -7.28790E+3   4.23127E+4
  -7.15192E+3   4.22907E+4
  -6.14978E+3   4.20824E+4
  -5.39299E+3   4.13933E+4
  -5.22283E+3   4.12476E+4
  -4.36064E+3   4.08743E+4
  -3.48791E+3   4.03414E+4
  -3.22017E+3   4.01554E+4
  -2.48877E+3   3.97752E+4
  -1.81596E+3   3.91331E+4
  -1.35775E+3   3.87592E+4
  -7.25469E+2   3.85028E+4
  -1.77658E+2   3.78009E+4
   1.52554E+2   3.74229E+4
   8.04291E+2   3.70855E+4
   1.55000E+3   3.65344E+4
   2.04832E+3   3.61926E+4
   2.48067E+3   3.58857E+4
   3.05204E+3   3.52948E+4
   3.52212E+3   3.49199E+4
   4.06817E+3   3.45597E+4
   4.54088E+3   3.39761E+4
   5.05545E+3   3.35570E+4
   5.53167E+3   3.32040E+4
   5.96816E+3   3.26878E+4
   6.34927E+3   3.23209E+4
   6.64735E+3   3.19606E+4
   6.84895E+3   3.14038E+4
   7.15297E+3   3.08321E+4
   7.56009E+3   3.03985E+4
   7.92717E+3   2.99199E+4
   8.04855E+3   2.93586E+4
   8.41338E+3   2.88863E+4
   8.63591E+3   2.84121E+4
   8.84843E+3   2.79214E+4
   9.09486E+3   2.74995E+4
   9.36288E+3   2.68823E+4
   9.63190E+3   2.63498E+4
   9.92483E+3   2.58997E+4
   1.00965E+4   2.54301E+4
   1.02629E+4   2.49432E+4
   1.04632E+4   2.45931E+4
   1.05761E+4   2.41381E+4
   1.06326E+4   2.37440E+4
   1.08286E+4   2.32381E+4
   1.09513E+4   2.27582E+4
   1.11162E+4   2.23714E+4
   1.12655E+4   2.18986E+4
   1.12110E+4   2.14950E+4
   1.12405E+4   2.11248E+4
   1.13886E+4   2.06471E+4
   1.12750E+4   2.02880E+4
   1.13139E+4   1.98908E+4
   1.12855E+4   1.94760E+4
   1.11764E+4   1.90192E+4
   1.11162E+4   1.86907E+4
   1.10506E+4   1.83000E+4
   1.09920E+4   1.79278E+4
   1.08394E+4   1.75404E+4
   1.07946E+4   1.71234E+4
   1.06629E+4   1.67282E+4
   1.05560E+4   1.63465E+4
   1.03803E+4   1.59288E+4
   1.01824E+4   1.55508E+4
   1.00980E+4   1.51919E+4
   9.87086E+3   1.47467E+4
   9.63715E+3   1.43778E+4
   9.56048E+3   1.39782E+4
   9.34611E+3   1.36151E+4
   9.16016E+3   1.32755E+4
   8.88297E+3   1.29047E+4
   8.65256E+3   1.25394E+4
   8.41237E+3   1.21407E+4
   8.23094E+3   1.17078E+4
   8.08452E+3   1.13283E+4
   7.93247E+3   1.09685E+4
   7.71556E+3   1.05666E+4
   7.46470E+3   1.02476E+4
   7.32143E+3   9.82476E+3
   7.17153E+3   9.45190E+3
   6.92219E+3   9.11642E+3
   6.72284E+3   8.80370E+3
   6.56235E+3   8.34025E+3
   6.42790E+3   8.10288E+3
   6.24062E+3   7.81770E+3
   6.05017E+3   7.50750E+3
   5.85770E+3   7.22183E+3
   5.73220E+3   6.85924E+3
   5.55791E+3   6.67398E+3
   5.47178E+3   6.41484E+3
   5.35063E+3   6.14651E+3
   5.11969E+3   5.91075E+3
   5.02556E+3   5.69013E+3
   4.79770E+3   5.50508E+3
   4.70233E+3   5.24035E+3
   4.60248E+3   4.99350E+3
   4.44858E+3   4.82776E+3
   4.38424E+3   4.64315E+3
   4.21885E+3   4.54151E+3
   4.10169E+3   4.37703E+3
   4.00049E+3   4.21545E+3
   3.80110E+3   4.13353E+3
   3.69937E+3   3.92936E+3
   3.52624E+3   3.84071E+3
   3.43710E+3   3.66018E+3
   3.38305E+3   3.57191E+3
   3.19758E+3   3.57370E+3
   3.07738E+3   3.40973E+3
   2.93086E+3   3.27444E+3
   2.86382E+3   3.27731E+3
   2.72168E+3   3.19583E+3
   2.61295E+3   3.02395E+3
   2.44400E+3   3.02762E+3
   2.36929E+3   2.94662E+3
   2.28019E+3   2.87924E+3
   2.15753E+3   2.80178E+3
   2.04044E+3   2.81249E+3
   1.89886E+3   2.76011E+3
   1.75542E+3   2.76024E+3
   1.70418E+3   2.63289E+3
   1.59090E+3   2.58568E+3
   1.45574E+3   2.53399E+3
   1.33052E+3   2.51742E+3
   1.21345E+3   2.42597E+3
   1.11881E+3   2.42880E+3
   1.06070E+3   2.37915E+3
   9.75346E+2   2.35917E+3
   8.97642E+2   2.27705E+3
   8.37046E+2   2.17264E+3
   7.88204E+2   2.17811E+3
   6.52579E+2   2.20113E+3
   6.16204E+2   2.09903E+3
   5.43379E+2   2.11855E+3
   5.30976E+2   2.10617E+3
   4.37228E+2   2.10117E+3
   3.03522E+2   2.07168E+3
   2.56913E+2   2.06218E+3
   2.15251E+2   2.08470E+3
   1.46711E+2   1.95329E+3
   1.55451E+2   1.98705E+3
   9.87483E+1   1.88279E+3
   8.98765E+0   1.92681E+3
   1.31766E+1   1.91595E+3
  -1.07533E+2   1.81344E+3
  -1.12445E+2   1.89541E+3
  -1.44625E+2   1.85953E+3
  -1.90500E+2   1.80886E+3
  -2.68306E+2   1.87144E+3
  -2.61688E+2   1.79681E+3
  -3.02747E+2   1.86399E+3
  -2.59338E+2   1.81909E+3
  -2.99052E+2   1.84791E+3
  -2.53172E+2   1.84681E+3
  -3.62694E+2   1.86640E+3
  -3.84146E+2   1.81042E+3
  -4.23680E+2   1.88470E+3
  -4.26873E+2   1.80043E+3
  -4.77386E+2   1.83299E+3
  -4.86142E+2   1.89912E+3
  -4.88133E+2   1.83230E+3
  -4.55945E+2   1.86263E+3
  -5.15753E+2   1.87872E+3
  -5.82065E+2   1.91074E+3
  -5.70547E+2   1.87565E+3
  -6.47790E+2   1.88234E+3
  -6.22287E+2   1.86746E+3
  -7.12136E+2   1.91034E+3
  -6.72377E+2   1.87981E+3
  -6.65128E+2   2.00068E+3
  -7.60607E+2   1.95228E+3
  -7.54224E+2   1.95187E+3
  -7.79673E+2   1.91065E+3
  -7.81094E+2   1.95783E+3
  -8.69721E+2   1.95788E+3
  -8.12712E+2   1.98004E+3
  -8.69207E+2   1.97239E+3
  -8.84582E+2   1.98245E+3
  -8.97842E+2   1.99763E+3
  -9.33081E+2   2.00237E+3
  -9.77209E+2   2.02758E+3
  -1.00031E+3   1.98335E+3
  -1.00610E+3   2.04739E+3
  -1.00655E+3   2.05120E+3
  -1.09133E+3   2.08386E+3
  -9.73465E+2   2.04824E+3
  -1.11252E+3   2.03678E+3
  -1.06815E+3   2.03071E+3
  -1.04054E+3   2.03020E+3
  -1.06035E+3   2.03486E+3
  -1.15811E+3   2.08038E+3
  -1.09259E+3   2.06050E+3
  -1.11139E+3   2.04301E+3
  -1.14241E+3   2.14489E+3
  -1.12878E+3   2.09899E+3
  -1.11229E+3   2.13289E+3
  -1.17708E+3   2.08081E+3
  -1.20216E+3   2.15092E+3
  -1.16391E+3   2.15560E+3
  -1.19667E+3   2.13582E+3
  -1.16995E+3   2.15929E+3
  -1.18469E+3   2.20577E+3
  -1.24268E+3   2.14154E+3
  -1.21938E+3   2.23940E+3
  -1.23085E+3   2.21688E+3
  -1.15576E+3   2.13824E+3
  -1.22958E+3   2.19958E+3
  -1.22253E+3   2.17616E+3
  -1.21770E+3   2.23201E+3
  -1.32429E+3   2.23345E+3
  -1.29868E+3   2.27230E+3
  -1.32904E+3   2.26199E+3
  -1.29334E+3   2.23214E+3
  -1.26197E+3   2.33810E+3
  -1.33427E+3   2.29204E+3
  -1.43230E+3   2.32000E+3
  -1.34012E+3   2.28402E+3
  -1.42998E+3   2.28648E+3
  -1.35318E+3   2.29440E+3
  -1.38744E+3   2.29616E+3
  -1.36442E+3   2.31761E+3
  -1.38605E+3   2.31208E+3
  -1.42942E+3   2.24084E+3
  -1.41675E+3   2.35647E+3
  -1.40499E+3   2.27324E+3
  -1.34536E+3   2.30975E+3
  -1.41687E+3   2.36089E+3
  -1.40544E+3   2.22432E+3
  -1.47370E+3   2.22673E+3
  -1.46809E+3   2.30537E+3
  -1.45599E+3   2.25534E+3
  -1.41575E+3   2.25740E+3
  -1.46011E+3   2.28238E+3
  -1.53749E+3   2.28215E+3
  -1.40862E+3   2.27419E+3
  -1.50651E+3   2.25128E+3
  -1.44647E+3   2.30531E+3
  -1.47213E+3   2.21943E+3
  -1.44385E+3   2.20943E+3
  -1.42784E+3   2.16197E+3
  -1.44223E+3   2.14667E+3
  -1.40027E+3   2.15893E+3
  -1.44709E+3   2.18939E+3
  -1.37545E+3   2.18461E+3
  -1.37996E+3   2.17084E+3
  -1.42588E+3   2.06930E+3
  -1.39496E+3   2.15233E+3
  -1.32096E+3   2.16815E+3
  -1.36337E+3   2.11728E+3
  -1.30679E+3   2.07445E+3
  -1.34589E+3   2.09905E+3
  -1.31493E+3   2.14614E+3
  -1.29710E+3   2.10946E+3
  -1.33655E+3   2.09793E+3
  -1.38425E+3   2.05275E+3
  -1.27326E+3   2.02295E+3
  -1.28656E+3   2.04945E+3
  -1.22382E+3   2.04711E+3
  -1.20700E+3   1.98546E+3
  -1.28600E+3   2.05072E+3
  -1.26375E+3   2.04354E+3
  -1.20485E+3   1.98709E+3
  -1.22798E+3   2.03775E+3
  -1.24962E+3   2.03857E+3
  -1.21753E+3   2.00264E+3
  -1.17074E+3   1.92651E+3
  -1.19732E+3   1.98635E+3
  -1.13877E+3   1.95339E+3
  -1.20551E+3   1.94797E+3
  -1.19917E+3   1.98802E+3
  -1.09281E+3   1.92251E+3
  -1.19766E+3   1.83884E+3
  -1.13481E+3   1.92411E+3
  -1.13882E+3   1.92746E+3
  -1.16799E+3   1.89892E+3
  -1.08526E+3   1.90802E+3
  -1.15140E+3   1.91539E+3
  -1.04665E+3   1.93278E+3
  -1.14418E+3   1.90978E+3
  -1.13315E+3   1.89937E+3
  -1.16010E+3   1.87903E+3
  -1.09281E+3   1.83245E+3
  -1.18832E+3   1.83525E+3
  -1.09789E+3   1.81189E+3
  -1.04962E+3   1.85806E+3
  -1.09949E+3   1.78098E+3
  -1.06174E+3   1.84218E+3
  -1.01621E+3   1.79337E+3
  -1.14961E+3   1.72870E+3
  -1.04591E+3   1.72587E+3
  -1.10725E+3   1.80237E+3
  -1.05389E+3   1.72014E+3
  -1.10416E+3   1.79121E+3
  -1.00696E+3   1.70726E+3
  -1.09333E+3   1.67041E+3
  -1.05508E+3   1.71216E+3
  -1.06370E+3   1.68969E+3
  -1.05501E+3   1.68195E+3
  -1.01617E+3   1.73710E+3
  -1.02805E+3   1.68642E+3
  -1.04621E+3   1.71681E+3
  -1.03523E+3   1.59579E+3
  -1.00620E+3   1.63560E+3
  -1.01087E+3   1.64628E+3
  -9.87367E+2   1.67130E+3
  -1.03002E+3   1.60773E+3
  -1.07411E+3   1.58511E+3
  -1.02659E+3   1.61951E+3
  -1.08622E+3   1.54243E+3
  -1.01777E+3   1.48642E+3
  -9.70604E+2   1.46339E+3
  -9.95423E+2   1.43514E+3
  -9.42403E+2   1.48840E+3
  -9.41381E+2   1.45858E+3
  -1.00937E+3   1.43488E+3
  -1.02374E+3   1.43322E+3
  -1.02325E+3   1.50307E+3
  -1.04415E+3   1.39018E+3
  -9.56700E+2   1.39641E+3
  -1.02278E+3   1.44027E+3
  -9.83089E+2   1.35209E+3
  -9.68493E+2   1.34007E+3
  -9.83037E+2   1.35682E+3
  -9.75634E+2   1.28709E+3
  -9.91446E+2   1.28177E+3
  -9.28426E+2   1.31681E+3
  -9.76254E+2   1.30870E+3
  -9.93285E+2   1.27126E+3
  -9.53523E+2   1.33487E+3
  -8.88677E+2   1.25565E+3
  -8.83311E+2   1.27290E+3
  -9.71301E+2   1.28214E+3
  -9.21506E+2   1.20259E+3
  -9.36386E+2   1.20948E+3
  -8.68100E+2   1.24256E+3
  -9.05308E+2   1.13655E+3
  -9.20259E+2   1.14564E+3
  -9.42469E+2   1.16994E+3
  -9.01380E+2   1.13019E+3
  -9.20828E+2   1.11896E+3
  -9.19201E+2   1.20106E+3
  -9.29536E+2   1.11327E+3
  -8.54377E+2   1.17725E+3
  -9.45576E+2   1.11810E+3
  -8.80207E+2   1.13668E+3
  -9.41157E+2   1.12567E+3
  -8.93469E+2   1.14318E+3
  -8.52384E+2   1.09534E+3
  -9.05554E+2   1.09153E+3
  -8.69976E+2   1.06147E+3
  -8.88732E+2   1.00669E+3
  -8.60111E+2   1.01766E+3
  -8.20752E+2   1.00258E+3
